Data from USB4F104151__120__14-18-36-347.txt Node

Date: Thu Mar 13 14:18:36 EDT 2025
User: louis
Spectrometer: USB4F10415
Trigger mode: 4
Integration Time (sec): 2.000000E-2
Scans to average: 1
Electric dark correction enabled: true
Nonlinearity correction enabled: false
Boxcar width: 0
XAxis mode: Wavelengths
Number of Pixels in Spectrum: 3648
>>>>>Begin Spectral Data<<<<<
178.204	-129.88
178.424	-129.88
178.644	-129.88
178.864	-109.4
179.084	-68.44
179.304	-50
179.524	42.15
179.744	-39.76
179.964	7.34
180.184	-23.38
180.404	15.53
180.624	54.44
180.844	-2.9
181.064	-41.81
181.283	70.83
181.503	-37.72
181.723	5.29
181.943	-70.48
182.163	29.87
182.383	21.67
182.602	15.53
182.822	5.29
183.042	76.97
183.262	-9.05
183.482	-68.44
183.701	-15.19
183.921	-60.24
184.141	-15.19
184.361	-27.48
184.58	50.35
184.8	25.77
185.02	-15.19
185.239	-15.19
185.459	52.39
185.679	21.67
185.898	-35.67
186.118	38.06
186.338	-76.63
186.557	48.3
186.777	-35.67
186.997	25.77
187.216	15.53
187.436	25.77
187.655	-47.96
187.875	5.29
188.095	68.78
188.314	48.3
188.534	62.63
188.753	7.34
188.973	-27.48
189.192	1.19
189.412	-25.43
189.631	62.63
189.851	29.87
190.07	38.06
190.29	-47.96
190.509	-58.2
190.729	-33.62
190.948	19.63
191.168	38.06
191.387	31.91
191.607	-15.19
191.826	9.39
192.045	-35.67
192.265	60.59
192.484	-58.2
192.704	-25.43
192.923	-50
193.142	38.06
193.362	50.35
193.581	21.67
193.8	15.53
194.02	-50
194.239	21.67
194.458	-25.43
194.678	115.88
194.897	5.29
195.116	17.58
195.335	13.48
195.555	40.11
195.774	-9.05
195.993	40.11
196.212	-2.9
196.432	23.72
196.651	64.68
196.87	-41.81
197.089	72.87
197.308	-4.95
197.528	68.78
197.747	-35.67
197.966	-2.9
198.185	25.77
198.404	50.35
198.623	40.11
198.842	38.06
199.062	105.64
199.281	5.29
199.5	62.63
199.719	-33.62
199.938	-15.19
200.157	29.87
200.376	-0.85
200.595	40.11
200.814	-27.48
201.033	29.87
201.252	107.69
201.471	21.67
201.69	21.67
201.909	7.34
202.128	54.44
202.347	46.25
202.566	42.15
202.785	29.87
203.004	-62.29
203.223	60.59
203.442	-2.9
203.661	-11.09
203.879	81.07
204.098	54.44
204.317	13.48
204.536	31.91
204.755	-74.58
204.974	46.25
205.193	17.58
205.411	62.63
205.63	3.24
205.849	5.29
206.068	-15.19
206.287	-93.01
206.505	-11.09
206.724	-11.09
206.943	-15.19
207.162	29.87
207.381	31.91
207.599	-27.48
207.818	-31.57
208.037	1.19
208.255	11.43
208.474	-17.24
208.693	9.39
208.911	-4.95
209.13	1.19
209.349	54.44
209.567	25.77
209.786	130.22
210.005	42.15
210.223	-27.48
210.442	-33.62
210.661	68.78
210.879	50.35
211.098	21.67
211.316	33.96
211.535	-52.05
211.753	83.11
211.972	5.29
212.191	56.49
212.409	42.15
212.628	-2.9
212.846	13.48
213.065	-13.14
213.283	81.07
213.502	-88.92
213.72	-23.38
213.938	17.58
214.157	-11.09
214.375	-15.19
214.594	5.29
214.812	-25.43
215.031	38.06
215.249	-90.96
215.467	31.91
215.686	7.34
215.904	15.53
216.122	-11.09
216.341	42.15
216.559	-19.29
216.778	62.63
216.996	9.39
217.214	-0.85
217.432	7.34
217.651	-0.85
217.869	15.53
218.087	23.72
218.306	5.29
218.524	-47.96
218.742	-25.43
218.96	54.44
219.179	-25.43
219.397	81.07
219.615	13.48
219.833	60.59
220.051	-19.29
220.27	60.59
220.488	-15.19
220.706	25.77
220.924	74.92
221.142	-43.86
221.36	-43.86
221.578	5.29
221.796	23.72
222.015	-15.19
222.233	-13.14
222.451	79.02
222.669	-50
222.887	54.44
223.105	-19.29
223.323	-27.48
223.541	-17.24
223.759	40.11
223.977	-9.05
224.195	56.49
224.413	21.67
224.631	11.43
224.849	9.39
225.067	25.77
225.285	48.3
225.503	-117.59
225.721	-56.15
225.939	-17.24
226.157	38.06
226.375	103.59
226.592	9.39
226.81	66.73
227.028	-27.48
227.246	33.96
227.464	25.77
227.682	25.77
227.9	27.82
228.117	17.58
228.335	-23.38
228.553	-0.85
228.771	36.01
228.989	54.44
229.206	7.34
229.424	15.53
229.642	-0.85
229.86	-25.43
230.077	11.43
230.295	-19.29
230.513	5.29
230.731	-47.96
230.948	27.82
231.166	25.77
231.384	17.58
231.601	-17.24
231.819	-2.9
232.037	-9.05
232.254	-74.58
232.472	17.58
232.689	33.96
232.907	-76.63
233.125	40.11
233.342	13.48
233.56	-11.09
233.777	19.63
233.995	25.77
234.213	87.21
234.43	-25.43
234.648	-56.15
234.865	-27.48
235.083	-25.43
235.3	70.83
235.518	-41.81
235.735	31.91
235.953	31.91
236.17	9.39
236.388	-50
236.605	-35.67
236.822	31.91
237.04	81.07
237.257	23.72
237.475	-68.44
237.692	-23.38
237.909	62.63
238.127	-25.43
238.344	-62.29
238.562	1.19
238.779	-2.9
238.996	13.48
239.214	-0.85
239.431	-27.48
239.648	-60.24
239.865	5.29
240.083	113.83
240.3	-37.72
240.517	21.67
240.735	-74.58
240.952	-7
241.169	31.91
241.386	7.34
241.603	48.3
241.821	-35.67
242.038	29.87
242.255	-11.09
242.472	25.77
242.689	-13.14
242.907	-11.09
243.124	-19.29
243.341	27.82
243.558	-43.86
243.775	29.87
243.992	11.43
244.209	-35.67
244.426	93.35
244.643	19.63
244.86	-125.78
245.078	5.29
245.295	-2.9
245.512	36.01
245.729	-35.67
245.946	-2.9
246.163	29.87
246.38	-19.29
246.597	-43.86
246.814	21.67
247.031	-17.24
247.248	79.02
247.464	9.39
247.681	72.87
247.898	-21.33
248.115	9.39
248.332	56.49
248.549	13.48
248.766	29.87
248.983	-23.38
249.2	-43.86
249.417	21.67
249.633	-23.38
249.85	31.91
250.067	-17.24
250.284	50.35
250.501	-54.1
250.717	95.4
250.934	48.3
251.151	-33.62
251.368	-39.76
251.585	70.83
251.801	-0.85
252.018	-43.86
252.235	64.68
252.451	15.53
252.668	-13.14
252.885	-33.62
253.102	13.48
253.318	1.19
253.535	5.29
253.752	15.53
253.968	29.87
254.185	-39.76
254.401	25.77
254.618	-4.95
254.835	-99.16
255.051	70.83
255.268	9.39
255.484	21.67
255.701	-7
255.917	17.58
256.134	-39.76
256.351	25.77
256.567	-13.14
256.784	52.39
257	-45.91
257.217	-35.67
257.433	40.11
257.65	13.48
257.866	21.67
258.082	42.15
258.299	-27.48
258.515	31.91
258.732	-54.1
258.948	-93.01
259.165	40.11
259.381	29.87
259.597	-2.9
259.814	-31.57
260.03	21.67
260.246	-60.24
260.463	-4.95
260.679	29.87
260.895	-50
261.112	13.48
261.328	1.19
261.544	-33.62
261.761	-7
261.977	-62.29
262.193	13.48
262.409	36.01
262.626	-54.1
262.842	44.2
263.058	21.67
263.274	-0.85
263.49	-0.85
263.707	54.44
263.923	40.11
264.139	-74.58
264.355	-11.09
264.571	13.48
264.787	38.06
265.004	48.3
265.22	-35.67
265.436	5.29
265.652	15.53
265.868	33.96
266.084	3.24
266.3	-7
266.516	-23.38
266.732	21.67
266.948	-41.81
267.164	5.29
267.38	29.87
267.596	5.29
267.812	-4.95
268.028	70.83
268.244	-4.95
268.46	46.25
268.676	-117.59
268.892	31.91
269.108	-82.77
269.324	13.48
269.54	-17.24
269.756	-25.43
269.972	25.77
270.188	-25.43
270.403	-21.33
270.619	1.19
270.835	-13.14
271.051	-27.48
271.267	9.39
271.483	38.06
271.698	-25.43
271.914	-11.09
272.13	13.48
272.346	25.77
272.562	-15.19
272.777	13.48
272.993	1.19
273.209	-2.9
273.425	46.25
273.64	-31.57
273.856	25.77
274.072	-62.29
274.287	-23.38
274.503	68.78
274.719	68.78
274.934	-0.85
275.15	25.77
275.366	-43.86
275.581	-17.24
275.797	23.72
276.012	-19.29
276.228	15.53
276.444	-64.34
276.659	33.96
276.875	17.58
277.09	-64.34
277.306	-0.85
277.521	25.77
277.737	115.88
277.952	7.34
278.168	-9.05
278.383	15.53
278.599	15.53
278.814	62.63
279.03	50.35
279.245	38.06
279.461	15.53
279.676	70.83
279.892	7.34
280.107	29.87
280.322	-23.38
280.538	19.63
280.753	33.96
280.969	31.91
281.184	1.19
281.399	15.53
281.615	11.43
281.83	7.34
282.045	-50
282.26	-27.48
282.476	-35.67
282.691	17.58
282.906	-23.38
283.122	-41.81
283.337	-90.96
283.552	142.5
283.767	-21.33
283.983	-27.48
284.198	-35.67
284.413	40.11
284.628	13.48
284.843	56.49
285.058	62.63
285.274	-27.48
285.489	13.48
285.704	7.34
285.919	-66.39
286.134	5.29
286.349	3.24
286.564	-27.48
286.779	5.29
286.995	91.31
287.21	7.34
287.425	-0.85
287.64	-52.05
287.855	21.67
288.07	-2.9
288.285	-2.9
288.5	-7
288.715	-17.24
288.93	3.24
289.145	11.43
289.36	1.19
289.575	-33.62
289.79	-64.34
290.004	15.53
290.219	-62.29
290.434	-50
290.649	13.48
290.864	-66.39
291.079	-43.86
291.294	70.83
291.509	-15.19
291.724	23.72
291.938	13.48
292.153	-72.53
292.368	-7
292.583	29.87
292.798	21.67
293.012	50.35
293.227	-7
293.442	-27.48
293.657	7.34
293.871	58.54
294.086	19.63
294.301	87.21
294.516	64.68
294.73	-54.1
294.945	-60.24
295.16	60.59
295.374	85.16
295.589	17.58
295.804	21.67
296.018	-2.9
296.233	42.15
296.447	7.34
296.662	7.34
296.877	46.25
297.091	60.59
297.306	66.73
297.52	-7
297.735	52.39
297.949	-27.48
298.164	7.34
298.378	-35.67
298.593	-93.01
298.807	-19.29
299.022	-0.85
299.236	-11.09
299.451	21.67
299.665	33.96
299.88	-58.2
300.094	62.63
300.309	29.87
300.523	17.58
300.737	42.15
300.952	-7
301.166	-13.14
301.381	11.43
301.595	-47.96
301.809	72.87
302.024	17.58
302.238	15.53
302.452	38.06
302.667	-60.24
302.881	31.91
303.095	97.45
303.309	46.25
303.524	38.06
303.738	-0.85
303.952	13.48
304.166	5.29
304.381	-54.1
304.595	72.87
304.809	-70.48
305.023	-29.52
305.237	74.92
305.452	7.34
305.666	7.34
305.88	56.49
306.094	-7
306.308	-19.29
306.522	50.35
306.736	-15.19
306.95	74.92
307.164	62.63
307.379	21.67
307.593	74.92
307.807	40.11
308.021	44.2
308.235	54.44
308.449	-13.14
308.663	62.63
308.877	111.78
309.091	19.63
309.305	74.92
309.519	-52.05
309.733	-27.48
309.947	48.3
310.161	29.87
310.374	-7
310.588	21.67
310.802	-23.38
311.016	-33.62
311.23	-7
311.444	-41.81
311.658	-31.57
311.872	9.39
312.085	-41.81
312.299	89.26
312.513	38.06
312.727	17.58
312.941	48.3
313.154	23.72
313.368	58.54
313.582	-2.9
313.796	74.92
314.009	-31.57
314.223	81.07
314.437	-2.9
314.651	23.72
314.864	58.54
315.078	5.29
315.292	-4.95
315.505	7.34
315.719	-7
315.933	-4.95
316.146	3.24
316.36	-27.48
316.573	46.25
316.787	-19.29
317.001	38.06
317.214	21.67
317.428	21.67
317.641	-33.62
317.855	5.29
318.068	95.4
318.282	42.15
318.495	29.87
318.709	66.73
318.922	38.06
319.136	66.73
319.349	-29.52
319.563	21.67
319.776	23.72
319.99	-70.48
320.203	-50
320.417	64.68
320.63	38.06
320.843	3.24
321.057	83.11
321.27	-43.86
321.483	76.97
321.697	122.02
321.91	-11.09
322.124	29.87
322.337	44.2
322.55	-56.15
322.763	-31.57
322.977	-9.05
323.19	-33.62
323.403	21.67
323.617	21.67
323.83	54.44
324.043	7.34
324.256	62.63
324.469	56.49
324.683	115.88
324.896	9.39
325.109	52.39
325.322	-47.96
325.535	46.25
325.748	13.48
325.962	38.06
326.175	5.29
326.388	38.06
326.601	21.67
326.814	1.19
327.027	-19.29
327.24	-17.24
327.453	7.34
327.666	42.15
327.879	38.06
328.092	83.11
328.305	-47.96
328.518	21.67
328.731	19.63
328.944	54.44
329.157	46.25
329.37	5.29
329.583	42.15
329.796	36.01
330.009	13.48
330.222	31.91
330.435	5.29
330.648	9.39
330.861	3.24
331.073	-11.09
331.286	17.58
331.499	38.06
331.712	-47.96
331.925	40.11
332.138	-27.48
332.35	31.91
332.563	-58.2
332.776	29.87
332.989	17.58
333.202	17.58
333.414	-2.9
333.627	21.67
333.84	23.72
334.053	-13.14
334.265	-0.85
334.478	66.73
334.691	-23.38
334.903	-27.48
335.116	66.73
335.329	60.59
335.541	66.73
335.754	79.02
335.966	-11.09
336.179	42.15
336.392	1.19
336.604	7.34
336.817	23.72
337.029	38.06
337.242	7.34
337.454	13.48
337.667	54.44
337.88	70.83
338.092	42.15
338.305	21.67
338.517	60.59
338.729	70.83
338.942	-58.2
339.154	-66.39
339.367	-35.67
339.579	-13.14
339.792	40.11
340.004	38.06
340.217	-11.09
340.429	58.54
340.641	-37.72
340.854	-58.2
341.066	-76.63
341.278	103.59
341.491	117.93
341.703	15.53
341.915	-101.2
342.128	21.67
342.34	25.77
342.552	-0.85
342.764	-17.24
342.977	13.48
343.189	113.83
343.401	58.54
343.613	-11.09
343.826	-45.91
344.038	-41.81
344.25	-9.05
344.462	-11.09
344.674	21.67
344.886	-23.38
345.099	36.01
345.311	-7
345.523	62.63
345.735	-37.72
345.947	11.43
346.159	-58.2
346.371	85.16
346.583	-27.48
346.795	13.48
347.007	-37.72
347.219	97.45
347.431	-19.29
347.643	54.44
347.855	-19.29
348.067	48.3
348.279	1.19
348.491	33.96
348.703	15.53
348.915	9.39
349.127	-4.95
349.339	-7
349.551	-17.24
349.763	72.87
349.975	29.87
350.187	70.83
350.399	21.67
350.61	21.67
350.822	40.11
351.034	-31.57
351.246	-82.77
351.458	31.91
351.669	50.35
351.881	62.63
352.093	48.3
352.305	48.3
352.517	87.21
352.728	31.91
352.94	38.06
353.152	74.92
353.363	-72.53
353.575	29.87
353.787	9.39
353.999	21.67
354.21	-33.62
354.422	-29.52
354.633	44.2
354.845	-21.33
355.057	42.15
355.268	-9.05
355.48	-2.9
355.692	11.43
355.903	48.3
356.115	-23.38
356.326	-84.82
356.538	46.25
356.749	95.4
356.961	-2.9
357.172	9.39
357.384	33.96
357.595	-9.05
357.807	83.11
358.018	-60.24
358.23	58.54
358.441	95.4
358.653	70.83
358.864	56.49
359.075	40.11
359.287	13.48
359.498	119.98
359.709	-11.09
359.921	72.87
360.132	-2.9
360.344	21.67
360.555	83.11
360.766	27.82
360.977	15.53
361.189	46.25
361.4	31.91
361.611	38.06
361.823	11.43
362.034	5.29
362.245	99.5
362.456	13.48
362.667	-68.44
362.879	21.67
363.09	31.91
363.301	29.87
363.512	-7
363.723	31.91
363.935	66.73
364.146	117.93
364.357	48.3
364.568	-9.05
364.779	-35.67
364.99	29.87
365.201	40.11
365.412	107.69
365.623	21.67
365.834	54.44
366.045	7.34
366.256	7.34
366.467	46.25
366.678	70.83
366.889	5.29
367.1	13.48
367.311	15.53
367.522	9.39
367.733	-31.57
367.944	117.93
368.155	-70.48
368.366	81.07
368.577	19.63
368.788	52.39
368.999	-50
369.209	42.15
369.42	79.02
369.631	29.87
369.842	56.49
370.053	15.53
370.264	29.87
370.474	46.25
370.685	1.19
370.896	46.25
371.107	9.39
371.317	91.31
371.528	-0.85
371.739	-23.38
371.95	21.67
372.16	87.21
372.371	-31.57
372.582	21.67
372.792	-27.48
373.003	-19.29
373.214	-11.09
373.424	81.07
373.635	-0.85
373.846	31.91
374.056	105.64
374.267	-31.57
374.477	48.3
374.688	-17.24
374.898	46.25
375.109	42.15
375.319	23.72
375.53	128.17
375.74	42.15
375.951	7.34
376.161	-2.9
376.372	21.67
376.582	29.87
376.793	5.29
377.003	-29.52
377.214	31.91
377.424	95.4
377.635	9.39
377.845	42.15
378.055	58.54
378.266	74.92
378.476	-0.85
378.686	31.91
378.897	119.98
379.107	40.11
379.317	54.44
379.528	-31.57
379.738	25.77
379.948	66.73
380.158	91.31
380.369	33.96
380.579	-0.85
380.789	19.63
380.999	101.55
381.21	89.26
381.42	105.64
381.63	29.87
381.84	60.59
382.05	23.72
382.261	46.25
382.471	3.24
382.681	74.92
382.891	11.43
383.101	132.26
383.311	-17.24
383.521	5.29
383.731	54.44
383.941	40.11
384.151	-39.76
384.361	23.72
384.571	46.25
384.781	11.43
384.991	15.53
385.201	50.35
385.411	44.2
385.621	42.15
385.831	-0.85
386.041	74.92
386.251	7.34
386.461	62.63
386.671	29.87
386.881	70.83
387.091	46.25
387.301	44.2
387.511	89.26
387.72	95.4
387.93	25.77
388.14	13.48
388.35	42.15
388.56	54.44
388.769	29.87
388.979	15.53
389.189	48.3
389.399	38.06
389.609	15.53
389.818	38.06
390.028	-4.95
390.238	79.02
390.447	23.72
390.657	33.96
390.867	5.29
391.076	-7
391.286	79.02
391.496	21.67
391.705	85.16
391.915	70.83
392.125	79.02
392.334	-25.43
392.544	128.17
392.753	46.25
392.963	-43.86
393.172	23.72
393.382	-27.48
393.591	70.83
393.801	29.87
394.01	136.36
394.22	-19.29
394.429	89.26
394.639	-7
394.848	54.44
395.058	44.2
395.267	83.11
395.477	58.54
395.686	40.11
395.895	62.63
396.105	79.02
396.314	91.31
396.524	7.34
396.733	-2.9
396.942	81.07
397.152	1.19
397.361	136.36
397.57	74.92
397.78	56.49
397.989	38.06
398.198	91.31
398.407	79.02
398.617	48.3
398.826	117.93
399.035	-15.19
399.244	54.44
399.453	103.59
399.663	56.49
399.872	79.02
400.081	44.2
400.29	81.07
400.499	56.49
400.708	128.17
400.917	42.15
401.127	42.15
401.336	5.29
401.545	119.98
401.754	115.88
401.963	93.35
402.172	13.48
402.381	81.07
402.59	5.29
402.799	60.59
403.008	87.21
403.217	113.83
403.426	58.54
403.635	70.83
403.844	62.63
404.053	87.21
404.262	56.49
404.471	144.55
404.68	48.3
404.888	97.45
405.097	111.78
405.306	165.03
405.515	107.69
405.724	140.46
405.933	128.17
406.142	60.59
406.35	187.56
406.559	97.45
406.768	169.13
406.977	169.13
407.185	156.84
407.394	226.47
407.603	107.69
407.812	210.09
408.02	210.09
408.229	134.31
408.438	160.94
408.646	138.41
408.855	162.98
409.064	222.38
409.272	144.55
409.481	222.38
409.69	162.98
409.898	234.66
410.107	232.62
410.315	228.52
410.524	230.57
410.733	234.66
410.941	275.62
411.15	287.91
411.358	259.24
411.567	310.44
411.775	300.2
411.984	365.73
412.192	320.68
412.401	212.14
412.609	423.08
412.818	443.56
413.026	433.32
413.234	400.55
413.443	406.69
413.651	384.16
413.86	517.28
414.068	517.28
414.276	482.47
414.485	476.32
414.693	523.43
414.901	511.14
415.11	517.28
415.318	529.57
415.526	599.2
415.734	636.06
415.943	603.3
416.151	736.42
416.359	646.3
416.567	683.17
416.776	709.79
416.984	720.03
417.192	769.18
417.4	752.8
417.608	853.15
417.817	703.65
418.025	873.63
418.233	957.6
418.441	869.53
418.649	914.59
418.857	992.41
419.065	1090.71
419.273	996.51
419.481	1057.95
419.689	1143.96
419.897	1070.23
420.105	1275.03
420.313	1303.7
420.521	1342.61
420.729	1342.61
420.937	1315.99
421.145	1367.19
421.353	1504.4
421.561	1598.61
421.769	1604.75
421.977	1639.57
422.185	1571.99
422.393	1756.3
422.601	1930.38
422.809	1807.5
423.017	1883.28
423.224	1971.34
423.432	1989.77
423.64	1971.34
423.848	2210.95
424.056	2126.99
424.263	2221.19
424.471	2258.06
424.679	2409.61
424.887	2391.17
425.094	2479.24
425.302	2638.98
425.51	2587.78
425.718	2665.6
425.925	2782.34
426.133	2835.58
426.341	3013.76
426.548	3153.02
426.756	2956.41
426.964	3167.35
427.171	3312.76
427.379	3400.82
427.586	3576.95
427.794	3595.38
428.001	3773.55
428.209	3927.15
428.417	3826.8
428.624	4113.52
428.832	4215.91
429.039	4074.6
429.247	4097.13
429.454	4602.98
429.662	4789.35
429.869	4494.44
430.076	4832.35
430.284	4736.1
430.491	4863.07
430.699	5135.45
430.906	5135.45
431.114	5225.56
431.321	5276.76
431.528	5297.24
431.736	5772.37
431.943	6249.55
432.15	5930.06
432.358	5956.69
432.565	6317.13
432.772	6196.3
432.979	6587.46
433.187	6698.05
433.394	6739.01
433.601	7265.34
433.808	7214.14
434.016	7255.1
434.223	7636.02
434.43	8049.71
434.637	7896.11
434.844	8236.08
435.052	8485.93
435.259	8465.45
435.466	8406.06
435.673	8473.64
435.88	9036.83
436.087	9450.52
436.294	9411.61
436.501	9253.92
436.708	9348.12
436.915	9802.77
437.122	10177.55
437.329	10179.6
437.537	10490.89
437.743	10552.33
437.95	10454.03
438.157	11105.28
438.364	11279.36
438.571	11443.2
438.778	11344.89
438.985	12858.34
439.192	12010.48
439.399	12465.13
439.606	12043.25
439.813	12985.32
440.02	13648.86
440.227	13212.64
440.433	13353.95
440.64	13609.95
440.847	13362.14
441.054	14015.44
441.261	15006.66
441.467	14629.84
441.674	14861.26
441.881	15424.45
442.088	15229.89
442.294	15254.47
442.501	15504.32
442.708	15809.47
442.914	16616.37
443.121	17632.16
443.328	16692.14
443.534	18084.76
443.741	17433.5
443.948	17210.28
444.154	18711.44
444.361	18430.87
444.568	18295.7
444.774	18539.41
444.981	18785.16
445.187	19397.51
445.394	20015.99
445.6	19616.64
445.807	21779.29
446.013	20740.97
446.22	21134.18
446.426	21932.89
446.633	22176.6
446.839	22838.09
447.046	21922.65
447.252	22879.05
447.459	23280.46
447.665	23096.14
447.871	24236.86
448.078	25271.08
448.284	23995.2
448.491	24955.69
448.697	25844.51
448.903	25852.7
449.11	26006.3
449.316	25690.91
449.522	26135.32
449.728	26991.37
449.935	26768.15
450.141	27079.44
450.347	27925.25
450.553	26733.33
450.76	27276.04
450.966	28001.02
451.172	27859.71
451.378	28797.68
451.584	28044.03
451.791	28842.74
451.997	28588.79
452.203	28908.27
452.409	28795.64
452.615	29014.77
452.821	27994.88
453.027	27515.65
453.233	29340.39
453.44	27953.92
453.646	28400.38
453.852	28357.37
454.058	29010.67
454.264	27935.49
454.47	28650.23
454.676	27951.87
454.882	28963.57
455.088	26561.3
455.294	27161.36
455.5	27167.5
455.705	27273.99
455.911	26501.91
456.117	25844.51
456.323	25557.8
456.529	24003.39
456.735	25707.3
456.941	24789.81
457.147	24435.51
457.352	23649.09
457.558	23468.87
457.764	23612.23
457.97	23018.32
458.176	22240.09
458.381	22668.11
458.587	21123.94
458.793	21607.26
458.999	20149.11
459.204	21975.9
459.41	21130.09
459.616	19819.39
459.821	20013.95
460.027	19956.6
460.233	19411.84
460.438	18328.47
460.644	18883.47
460.85	17978.26
461.055	17464.22
461.261	17355.68
461.466	16264.11
461.672	15629.24
461.878	16782.25
462.083	15858.62
462.289	15547.33
462.494	15207.36
462.7	14584.78
462.905	14302.16
463.111	14791.62
463.316	14865.35
463.522	14513.1
463.727	14586.83
463.932	14326.74
464.138	14386.13
464.343	14386.13
464.549	13966.29
464.754	14201.81
464.959	14277.58
465.165	13976.53
465.37	13685.72
465.575	13214.69
465.781	13581.28
465.986	13976.53
466.191	13171.68
466.397	13044.71
466.602	12379.12
466.807	12729.32
467.012	12841.96
467.218	12678.12
467.423	12661.74
467.628	12635.11
467.833	13118.43
468.038	12729.32
468.244	12334.06
468.449	12710.89
468.654	12590.06
468.859	12364.78
469.064	12446.7
469.269	11547.64
469.474	11785.21
469.679	12055.54
469.885	11764.73
470.09	11926.52
470.295	11809.78
470.5	11613.18
470.705	11746.3
470.91	11398.14
471.115	11140.1
471.32	11531.26
471.525	11396.09
471.73	11027.46
471.935	11117.57
472.139	10714.12
472.344	10853.38
472.549	10779.65
472.754	10712.07
472.959	10431.5
473.164	10083.34
473.369	10105.87
473.574	10411.02
473.778	10282
473.983	10333.2
474.188	10148.88
474.393	9790.49
474.598	9794.58
474.802	9810.96
475.007	9591.83
475.212	9610.26
475.417	9172
475.621	9286.68
475.826	9286.68
476.031	9198.62
476.235	9004.07
476.44	9217.05
476.645	8901.67
476.849	8860.71
477.054	8832.04
477.259	8797.22
477.463	8565.8
477.668	8594.47
477.872	8774.69
478.077	8289.32
478.282	8135.73
478.486	8262.7
478.691	8301.61
478.895	7877.68
479.1	8111.15
479.304	8119.34
479.509	7781.43
479.713	7928.88
479.918	7896.11
480.122	7511.1
480.326	7705.65
480.531	7689.27
480.735	7672.89
480.94	7509.05
481.144	7926.83
481.348	7480.38
481.553	7537.72
481.757	7275.58
481.961	7470.14
482.166	7658.55
482.37	7511.1
482.574	7453.75
482.778	7472.18
482.983	7664.69
483.187	7468.09
483.391	7488.57
483.595	7224.38
483.8	7322.68
484.004	7701.56
484.208	7648.31
484.412	7476.28
484.616	7322.68
484.821	7535.67
485.025	7328.83
485.229	7386.17
485.433	7459.9
485.637	7494.71
485.841	7355.45
486.045	7357.5
486.249	7377.98
486.453	7134.27
486.657	7535.67
486.861	7390.27
487.065	7322.68
487.269	7263.29
487.473	7179.33
487.677	7439.42
487.881	7515.19
488.085	7208
488.289	7586.87
488.493	7353.4
488.697	7492.66
488.901	7488.57
489.105	7398.46
489.309	7357.5
489.512	7410.75
489.716	7482.42
489.92	7291.96
490.124	7490.62
490.328	7498.81
490.531	7509.05
490.735	7615.54
490.939	7607.35
491.143	7380.03
491.346	7570.49
491.55	7820.34
491.754	7705.65
491.958	7969.84
492.161	7642.17
492.365	7879.73
492.569	7640.12
492.772	7676.98
492.976	7703.61
493.18	7904.31
493.383	7922.74
493.587	8062
493.79	8010.8
493.994	8084.53
494.197	8123.44
494.401	8313.9
494.605	8264.75
494.808	8348.72
495.012	8244.27
495.215	8471.59
495.419	8338.48
495.622	8451.11
495.825	8547.37
496.029	8461.35
496.232	8797.22
496.436	8815.65
496.639	8758.31
496.843	8789.03
497.046	9028.64
497.249	9229.34
497.453	9313.31
497.656	9190.43
497.859	9274.4
498.063	9413.66
498.266	9489.43
498.469	9554.97
498.673	9645.08
498.876	9790.49
499.079	10019.86
499.282	9804.82
499.485	10200.08
499.689	10181.65
499.892	10232.85
500.095	10386.44
500.298	10396.68
500.501	10421.26
500.705	10648.58
500.908	10726.41
501.111	10902.53
501.314	11035.65
501.517	11115.52
501.72	11291.65
501.923	11273.21
502.126	11654.14
502.329	11811.83
502.532	11674.62
502.735	11682.81
502.938	11906.04
503.141	11920.37
503.344	12084.21
503.547	12377.07
503.75	12669.93
503.953	12893.16
504.156	12887.01
504.359	12835.81
504.562	12962.79
504.765	13218.78
504.968	13288.42
505.17	13585.37
505.373	13587.42
505.576	13667.29
505.779	13927.38
505.982	13976.53
506.185	14326.74
506.387	14078.93
506.59	14228.43
506.793	14662.6
506.996	14418.89
507.198	14957.51
507.401	14922.69
507.604	15188.93
507.807	15309.76
508.009	15496.13
508.212	15373.25
508.415	15537.09
508.617	15791.03
508.82	16204.72
509.022	15977.4
509.225	16278.45
509.428	16520.11
509.63	16565.17
509.833	16876.46
510.035	17339.3
510.238	17134.5
510.44	17554.33
510.643	17607.58
510.845	17726.36
511.048	17593.25
511.25	17716.12
511.453	17853.34
511.655	18645.9
511.858	18375.57
512.06	18561.94
512.262	18762.64
512.465	18746.25
512.667	19155.85
512.87	19364.74
513.072	19395.46
513.274	19624.83
513.477	19927.93
513.679	20093.82
513.881	20102.01
514.084	20646.77
514.286	20456.31
514.488	20687.73
514.69	21056.36
514.893	21128.04
515.095	20867.95
515.297	21445.48
515.499	21631.84
515.701	21635.94
515.904	22023
516.106	22416.21
516.308	22319.96
516.51	22702.93
516.712	22418.26
516.914	22983.5
517.116	23065.42
517.318	23235.4
517.52	23671.62
517.722	23640.9
517.925	23743.3
518.127	24427.32
518.329	24314.68
518.531	24062.78
518.733	24462.13
518.935	25176.87
519.136	24814.38
519.338	25420.58
519.54	25486.12
519.742	25656.1
519.944	25715.49
520.146	25910.05
520.348	26290.97
520.55	26387.22
520.752	26303.26
520.954	26766.1
521.155	26544.92
521.357	27038.48
521.559	27589.38
521.761	27910.91
521.963	27915.01
522.164	27900.67
522.366	27788.03
522.568	27904.77
522.77	28394.23
522.971	28836.59
523.173	28953.33
523.375	28885.75
523.576	28639.99
523.778	28742.39
523.98	29221.61
524.181	29483.75
524.383	29297.39
524.584	29944.55
524.786	29846.24
524.988	29956.83
525.189	30446.3
525.391	30321.37
525.592	30350.04
525.794	30501.59
525.995	30669.53
526.197	30839.51
526.398	30948.05
526.6	31242.96
526.801	31087.31
527.003	31417.04
527.204	31113.94
527.406	31593.16
527.607	31673.03
527.808	31986.37
528.01	31525.58
528.211	31804.1
528.412	32285.37
528.614	32012.99
528.815	32080.58
529.016	32342.72
529.218	32142.02
529.419	32309.95
529.62	32217.79
529.822	32199.36
530.023	32303.81
530.224	32598.71
530.425	32522.94
530.626	32750.26
530.828	32139.97
531.029	33108.66
531.23	32672.44
531.431	32729.78
531.632	32930.48
531.833	32803.51
532.035	33024.69
532.236	32785.08
532.437	33321.65
532.638	32975.54
532.839	33034.93
533.04	33082.03
533.241	33051.31
533.442	33491.63
533.643	33276.59
533.844	32914.1
534.045	33217.2
534.246	32813.75
534.447	33284.78
534.648	33356.46
534.849	33331.89
535.05	32811.7
535.251	33192.62
535.451	33295.02
535.652	33368.75
535.853	33215.15
536.054	33331.89
536.255	33401.52
536.456	33135.28
536.657	33544.87
536.857	33137.33
537.058	33133.23
537.259	33510.06
537.46	33327.79
537.66	32998.07
537.861	33383.09
538.062	33213.1
538.263	33235.63
538.463	32787.13
538.664	33215.15
538.865	33632.94
539.065	33331.89
539.266	32797.37
539.466	33462.96
539.667	32752.31
539.868	33256.11
540.068	32860.85
540.269	32901.81
540.469	33192.62
540.67	32871.09
540.87	33104.56
541.071	33141.42
541.271	33163.95
541.472	33069.75
541.672	33350.32
541.873	32914.1
542.073	32664.25
542.274	33276.59
542.474	33225.39
542.675	32981.68
542.875	33460.91
543.075	33176.24
543.276	32209.6
543.476	32885.43
543.676	32617.14
543.877	33055.41
544.077	33088.18
544.277	32850.61
544.478	33086.13
544.678	33366.7
544.878	32756.41
545.078	32928.44
545.279	32502.46
545.479	32772.79
545.679	33141.42
545.879	32742.07
546.079	33034.93
546.28	32387.77
546.48	32688.82
546.68	32871.09
546.88	32858.81
547.08	32703.16
547.28	32549.56
547.48	32453.31
547.68	32864.95
547.88	32524.99
548.081	33045.17
548.281	32899.76
548.481	32922.29
548.681	32916.15
548.881	32762.55
549.081	32701.11
549.28	32778.93
549.48	32801.46
549.68	32377.53
549.88	33245.87
550.08	32430.78
550.28	32512.7
550.48	32518.84
550.68	32867
550.88	32465.6
551.08	32598.71
551.279	32576.19
551.479	32350.91
551.679	32602.81
551.879	32400.06
552.079	32770.74
552.278	32316.09
552.478	32832.18
552.678	32342.72
552.878	32662.2
553.077	32359.1
553.277	32441.02
553.477	32459.45
553.676	32271.04
553.876	32275.13
554.076	32277.18
554.275	32332.48
554.475	32068.29
554.674	32221.89
554.874	32203.46
555.074	31834.82
555.273	31879.88
555.473	32197.31
555.672	32359.1
555.872	32172.74
556.071	32047.81
556.271	32418.49
556.47	32152.26
556.67	31609.54
556.869	31769.29
557.068	32066.24
557.268	31761.09
557.467	31474.38
557.667	31816.39
557.866	31976.13
558.065	31847.11
558.265	32010.95
558.464	31457.99
558.663	32082.63
558.863	31421.13
559.062	32195.26
559.261	31412.94
559.461	31716.04
559.66	31271.63
559.859	31707.85
560.058	31234.77
560.258	31341.26
560.457	31288.01
560.656	31181.52
560.855	30997.2
561.054	31283.92
561.253	30941.91
561.453	31216.33
561.652	31154.9
561.851	31132.37
562.05	31001.3
562.249	30941.91
562.448	31234.77
562.647	30984.91
562.846	30728.92
563.045	30810.84
563.244	30464.73
563.443	30925.52
563.642	30601.94
563.841	30935.76
564.04	30536.41
564.239	30765.78
564.438	30472.92
564.637	30360.28
564.836	30911.19
565.035	30161.63
565.234	30571.22
565.432	30067.42
565.631	30098.14
565.83	30214.88
566.029	29954.79
566.228	29891.3
566.427	29872.87
566.625	29672.17
566.824	29160.17
567.023	29717.22
567.222	29383.4
567.42	30083.81
567.619	29733.6
567.818	29514.47
568.016	29389.55
568.215	29829.86
568.414	29405.93
568.612	29420.27
568.811	29412.07
569.01	29524.71
569.208	29117.17
569.407	29344.49
569.605	29102.83
569.804	29016.82
570.002	28785.4
570.201	28803.83
570.4	28726
570.598	28648.18
570.797	28541.69
570.995	28660.47
571.193	28349.18
571.392	28621.56
571.59	28140.29
571.789	28394.23
571.987	28283.64
572.186	28338.94
572.384	28248.83
572.582	28154.62
572.781	28218.11
572.979	27773.7
573.177	27994.88
573.376	28068.61
573.574	27671.3
573.772	27792.13
573.971	27611.91
574.169	27667.2
574.367	27407.11
574.565	27781.89
574.763	27542.28
574.962	27376.39
575.16	27046.67
575.358	27233.04
575.556	26942.22
575.754	27210.51
575.952	26794.77
576.151	27157.26
576.349	26874.64
576.547	26751.76
576.745	27112.2
576.943	27044.62
577.141	26559.25
577.339	26737.43
577.537	26475.29
577.735	26596.12
577.933	26510.1
578.131	26604.31
578.329	26417.94
578.527	26065.69
578.725	26256.15
578.923	26172.19
579.121	26190.62
579.319	26034.97
579.516	26153.76
579.714	26366.74
579.912	25864.99
580.11	25770.79
580.308	25961.25
580.506	25539.36
580.704	25008.94
580.901	25613.09
581.099	25877.28
581.297	25350.95
581.495	25514.79
581.692	25729.83
581.89	25281.32
582.088	25516.84
582.285	25125.68
582.483	25328.42
582.681	25135.92
582.878	24859.44
583.076	24711.99
583.274	25064.24
583.471	24824.62
583.669	24834.86
583.866	24894.25
584.064	24847.15
584.262	24523.57
584.459	24728.37
584.657	24300.34
584.854	24851.25
585.052	24259.38
585.249	24474.42
585.447	24339.26
585.644	24044.35
585.841	24111.93
586.039	24376.12
586.236	23870.27
586.434	23614.27
586.631	23618.37
586.828	23933.76
587.026	23950.14
587.223	23827.26
587.42	23563.08
587.618	23792.45
587.815	23278.41
588.012	23323.46
588.21	23278.41
588.407	23567.17
588.604	23389
588.801	22838.09
588.999	22780.75
589.196	23016.27
589.393	23087.95
589.59	22831.95
589.787	22784.85
589.984	22596.43
590.182	22713.17
590.379	22735.7
590.576	22668.11
590.773	22549.33
590.97	22741.84
591.167	22526.8
591.364	22272.85
591.561	22469.46
591.758	22217.56
591.955	22283.09
592.152	22123.35
592.349	21949.28
592.546	22117.21
592.743	21883.74
592.94	21500.77
593.137	21936.99
593.334	21986.14
593.531	21396.32
593.727	21875.55
593.924	21728.1
594.121	21287.78
594.318	21594.98
594.515	21140.33
594.712	21363.56
594.908	21218.15
595.105	21216.1
595.302	21074.79
595.499	21085.03
595.696	20759.41
595.892	20931.44
596.089	21021.55
596.286	20906.86
596.482	20724.59
596.679	20829.04
596.876	20870
597.072	20687.73
597.269	20824.94
597.466	20403.06
597.662	20339.57
597.859	20808.56
598.055	20593.52
598.252	20341.62
598.448	20398.96
598.645	20018.04
598.841	20155.26
599.038	20237.17
599.234	19897.21
599.431	20001.66
599.627	19854.2
599.824	20081.53
600.02	19620.74
600.217	19884.92
600.413	19643.26
600.609	19817.34
600.806	19596.16
601.002	19727.23
601.198	19526.53
601.395	19329.92
601.591	19293.06
601.787	19551.1
601.984	19143.56
602.18	19268.48
602.376	19159.94
602.572	18850.7
602.769	19028.87
602.965	18815.88
603.161	18733.96
603.357	18701.2
603.553	18842.51
603.75	18803.6
603.946	18697.1
604.142	18459.54
604.338	18588.56
604.534	18701.2
604.73	18428.82
604.926	18199.44
605.122	18101.14
605.318	18187.16
605.514	18019.22
605.71	18254.74
605.906	18199.44
606.102	18250.64
606.298	18416.53
606.494	17863.58
606.69	18195.35
606.886	17965.98
607.082	17839
607.278	17937.3
607.474	17640.35
607.67	17652.64
607.866	17613.73
608.062	17619.87
608.257	17585.05
608.453	17556.38
608.649	17615.77
608.845	17466.27
609.041	17310.63
609.236	17566.62
609.432	17390.5
609.628	17228.71
609.824	17093.54
610.019	17187.75
610.215	17118.12
610.411	17521.57
610.606	17032.1
610.802	17238.95
610.998	16935.85
611.193	17163.17
611.389	17230.76
611.584	16999.34
611.78	16669.61
611.976	17034.15
612.171	16944.04
612.367	16937.9
612.562	16767.91
612.758	16565.17
612.953	16649.13
613.149	16974.76
613.344	16653.23
613.539	16763.82
613.735	16780.2
613.93	16501.68
614.126	16444.34
614.321	16880.55
614.517	16853.93
614.712	16706.48
614.907	16462.77
615.103	16698.28
615.298	16366.51
615.493	16413.62
615.688	16229.3
615.884	16667.56
616.079	16151.48
616.274	16460.72
616.47	16161.72
616.665	16112.56
616.86	16194.48
617.055	16106.42
617.25	15983.54
617.445	16317.36
617.641	15680.44
617.836	16145.33
618.031	15795.13
618.226	16217.01
618.421	15668.16
618.616	16012.21
618.811	15483.84
619.006	15963.06
619.201	15664.06
619.396	15727.55
619.591	15254.47
619.786	15610.81
619.981	15543.23
620.176	15518.65
620.371	15133.64
620.566	15328.19
620.761	15107.01
620.956	15233.99
621.151	14973.89
621.346	14889.93
621.541	14695.37
621.735	15197.12
621.93	14848.97
622.125	14635.98
622.32	14611.4
622.515	14429.13
622.709	14597.07
622.904	14429.13
623.099	14205.91
623.294	14183.38
623.488	14083.03
623.683	14273.49
623.878	14105.56
624.072	14083.03
624.267	13806.55
624.462	13757.4
624.656	13691.87
624.851	13759.45
625.046	13528.03
625.24	13405.15
625.435	13466.59
625.629	13241.31
625.824	13409.25
626.018	13310.94
626.213	13016.04
626.407	13235.17
626.602	12844.01
626.796	12803.05
626.991	13022.18
627.185	12815.34
627.38	12751.85
627.574	12723.18
627.768	12614.63
627.963	12559.34
628.157	12561.39
628.352	12411.89
628.546	12393.45
628.74	12487.66
628.935	12211.18
629.129	12180.46
629.323	12000.24
629.517	12108.79
629.712	12020.72
629.906	12088.31
630.1	11703.29
630.294	11820.02
630.489	11781.11
630.683	11709.43
630.877	11627.51
631.071	11408.38
631.265	11711.48
631.459	11258.88
631.653	11613.18
631.848	11377.66
632.042	11320.32
632.236	11252.73
632.43	11162.62
632.624	11021.31
632.818	11123.71
633.012	10900.48
633.206	10916.87
633.4	10966.02
633.594	10789.89
633.788	10703.88
633.982	10701.83
634.176	10707.98
634.369	10288.14
634.563	10454.03
634.757	10609.67
634.951	10490.89
635.145	10425.36
635.339	10322.96
635.533	10325.01
635.726	10320.91
635.92	10245.13
636.114	10228.75
636.308	10206.22
636.501	10212.37
636.695	10353.68
636.889	9870.36
637.083	9798.68
637.276	9714.71
637.47	9757.72
637.664	9784.34
637.857	9745.43
638.051	9657.37
638.244	9790.49
638.438	9554.97
638.632	9491.48
638.825	9475.1
639.019	9243.68
639.212	9354.27
639.406	9329.69
639.599	9278.49
639.793	9352.22
639.986	9114.66
640.18	9069.6
640.373	9024.54
640.567	9010.21
640.76	8979.49
640.954	8909.86
641.147	8901.67
641.34	8803.36
641.534	8868.9
641.727	8793.12
641.92	8692.77
642.114	8715.3
642.307	8655.91
642.5	8672.29
642.694	8289.32
642.887	8373.29
643.08	8520.74
643.273	8600.62
643.467	8549.42
643.66	8258.6
643.853	8318
644.046	8242.22
644.239	8225.84
644.432	8076.34
644.626	7978.03
644.819	8086.58
645.012	7902.26
645.205	8098.86
645.398	7748.66
645.591	8025.14
645.784	7920.69
645.977	7795.76
646.17	7775.28
646.363	7619.64
646.556	7578.68
646.749	7717.94
646.942	7605.3
647.135	7511.1
647.328	7521.34
647.521	7519.29
647.714	7500.86
647.907	7302.2
648.099	7472.18
648.292	7457.85
648.485	7304.25
648.678	7246.91
648.871	7365.69
649.064	7197.76
649.256	7164.99
649.449	7138.37
649.642	7042.11
649.835	6968.38
650.027	6886.47
650.22	6925.38
650.413	6855.75
650.605	7001.15
650.798	6845.51
650.991	6833.22
651.183	6831.17
651.376	6640.71
651.568	6798.4
651.761	6659.14
651.954	6685.76
652.146	6648.9
652.339	6624.33
652.531	6632.52
652.724	6530.12
652.916	6464.58
653.109	6386.76
653.301	6456.39
653.494	6313.03
653.686	6270.03
653.879	6411.34
654.071	6310.99
654.263	6214.73
654.456	6325.32
654.648	6290.51
654.84	6112.33
655.033	6173.77
655.225	6108.24
655.417	6106.19
655.61	6046.8
655.802	6026.32
655.994	5946.45
656.186	6063.18
656.379	5987.41
656.571	5936.21
656.763	5690.45
656.955	5737.56
657.148	5831.76
657.34	5801.04
657.532	5698.64
657.724	5743.7
657.916	5698.64
658.108	5721.17
658.3	5602.39
658.492	5641.3
658.684	5540.95
658.876	5518.42
659.068	5317.72
659.26	5395.54
659.452	5430.36
659.644	5397.59
659.836	5330.01
660.028	5459.03
660.22	5268.57
660.412	5303.39
660.604	5321.82
660.796	5172.32
660.988	5117.02
661.18	5162.08
661.372	5076.06
661.563	5272.67
661.755	5078.11
661.947	5153.88
662.139	5157.98
662.331	5168.22
662.522	5119.07
662.714	4938.85
662.906	5100.64
663.097	4969.57
663.289	4926.56
663.481	4772.96
663.673	4949.09
663.864	4940.9
664.056	4887.65
664.247	4895.84
664.439	4813.92
664.631	4811.87
664.822	4736.1
665.014	4590.69
665.205	4668.52
665.397	4584.55
665.588	4699.23
665.78	4664.42
665.971	4600.93
666.163	4627.56
666.354	4459.62
666.546	4580.45
666.737	4400.23
666.929	4494.44
667.12	4486.25
667.311	4453.48
667.503	4387.94
667.694	4465.77
667.885	4410.47
668.077	4385.9
668.268	4289.64
668.459	4252.78
668.651	4316.26
668.842	4349.03
669.033	4338.79
669.224	4267.11
669.416	4324.46
669.607	4322.41
669.798	4152.43
669.989	4166.76
670.18	4160.62
670.371	4217.96
670.563	4168.81
670.754	4277.35
670.945	4234.35
671.136	4134
671.327	4168.81
671.518	4090.99
671.709	3972.21
671.9	3923.05
672.091	4144.24
672.282	3894.38
672.473	3839.09
672.664	3955.82
672.855	3978.35
673.046	3800.18
673.237	3957.87
673.428	3851.38
673.619	4142.19
673.809	3880.05
674	3789.94
674.191	3830.9
674.382	3800.18
674.573	3736.69
674.764	3822.7
674.954	3771.51
675.145	3769.46
675.336	3716.21
675.527	3820.66
675.717	3763.31
675.908	3708.02
676.099	3740.79
676.289	3695.73
676.48	3806.32
676.671	3660.91
676.861	3642.48
677.052	3562.61
677.243	3683.44
677.433	3710.07
677.624	3703.92
677.814	3552.37
678.005	3683.44
678.195	3589.24
678.386	3701.87
678.576	3644.53
678.767	3568.76
678.957	3560.56
679.148	3654.77
679.338	3667.06
679.529	3574.9
679.719	3488.89
679.909	3619.96
680.1	3507.32
680.29	3615.86
680.481	3570.8
680.671	3466.36
680.861	3660.91
681.052	3458.17
681.242	3495.03
681.432	3458.17
681.622	3413.11
681.813	3355.77
682.003	3394.68
682.193	3423.35
682.383	3347.58
682.573	3388.53
682.764	3392.63
682.954	3374.2
683.144	3296.38
683.334	3488.89
683.524	3357.82
683.714	3341.43
683.904	3191.93
684.094	3327.1
684.284	3388.53
684.474	3382.39
684.664	3312.76
684.854	3226.75
685.044	3161.21
685.234	3198.07
685.424	3329.14
685.614	3216.51
685.804	3253.37
685.994	3241.08
686.184	3222.65
686.374	3204.22
686.564	3200.12
686.753	3101.82
686.943	3056.76
687.133	3226.75
687.323	3196.03
687.513	3169.4
687.702	3044.48
687.892	2931.84
688.082	3122.3
688.272	3067
688.461	3026.04
688.651	3079.29
688.841	3093.63
689.03	3054.72
689.22	3024
689.41	3040.38
689.599	3021.95
689.789	2903.17
689.979	2901.12
690.168	3044.48
690.358	2987.13
690.547	2954.37
690.737	2888.83
690.926	3060.86
691.116	2905.21
691.305	2921.6
691.495	2884.73
691.684	2921.6
691.874	2866.3
692.063	2704.51
692.252	2845.82
692.442	2839.68
692.631	2868.35
692.82	2806.91
693.01	2708.61
693.199	2753.66
693.388	2692.23
693.578	2649.22
693.767	2667.65
693.956	2708.61
694.146	2708.61
694.335	2710.66
694.524	2651.27
694.713	2555.01
694.902	2702.47
695.092	2663.55
695.281	2710.66
695.47	2663.55
695.659	2565.25
695.848	2585.73
696.037	2641.03
696.226	2587.78
696.415	2614.4
696.604	2579.59
696.793	2595.97
696.982	2555.01
697.171	2456.71
697.36	2528.39
697.549	2514.05
697.738	2507.91
697.927	2524.29
698.116	2495.62
698.305	2438.28
698.494	2602.11
698.683	2432.13
698.872	2421.89
699.061	2421.89
699.25	2561.16
699.438	2399.37
699.627	2526.34
699.816	2438.28
700.005	2364.55
700.193	2417.8
700.382	2387.08
700.571	2473.09
700.76	2452.61
700.948	2315.4
701.137	2561.16
701.326	2440.33
701.514	2446.47
701.703	2413.7
701.892	2380.93
702.08	2397.32
702.269	2434.18
702.457	2331.78
702.646	2380.93
702.834	2286.73
703.023	2294.92
703.212	2327.69
703.4	2448.52
703.589	2301.06
703.777	2397.32
703.965	2366.6
704.154	2362.5
704.342	2360.45
704.531	2307.21
704.719	2425.99
704.907	2399.37
705.096	2258.06
705.284	2272.39
705.472	2458.76
705.661	2258.06
705.849	2337.93
706.037	2309.26
706.226	2270.34
706.414	2313.35
706.602	2313.35
706.79	2393.22
706.979	2333.83
707.167	2282.63
707.355	2278.54
707.543	2348.17
707.731	2249.86
707.919	2333.83
708.107	2292.87
708.296	2280.58
708.484	2319.5
708.672	2329.74
708.86	2196.62
709.048	2243.72
709.236	2196.62
709.424	2237.58
709.612	2360.45
709.8	2204.81
709.988	2149.51
710.176	2286.73
710.364	2272.39
710.551	2200.71
710.739	2213
710.927	2251.91
711.115	2278.54
711.303	2286.73
711.491	2233.48
711.679	2225.29
711.866	2215.05
712.054	2202.76
712.242	2200.71
712.43	2364.55
712.617	2217.1
712.805	2221.19
712.993	2333.83
713.181	2229.38
713.368	2249.86
713.556	2126.99
713.744	2155.66
713.931	2350.21
714.119	2241.67
714.306	2356.36
714.494	2321.54
714.682	2204.81
714.869	2233.48
715.057	2147.47
715.244	2196.62
715.432	2249.86
715.619	2143.37
715.807	2280.58
715.994	2239.62
716.182	2221.19
716.369	2237.58
716.556	2315.4
716.744	2116.75
716.931	2133.13
717.119	2149.51
717.306	2270.34
717.493	2192.52
717.681	2213
717.868	2208.9
718.055	2198.67
718.242	2227.34
718.43	2227.34
718.617	2094.22
718.804	2208.9
718.991	2165.9
719.179	2159.75
719.366	2167.95
719.553	2227.34
719.74	2282.63
719.927	2122.89
720.114	2202.76
720.301	2102.41
720.488	2210.95
720.676	2184.33
720.863	2208.9
721.05	2245.77
721.237	2202.76
721.424	2217.1
721.611	2149.51
721.798	2172.04
721.985	2169.99
722.172	2180.23
722.358	2167.95
722.545	2139.27
722.732	2126.99
722.919	2180.23
723.106	2143.37
723.293	2151.56
723.48	2063.5
723.667	2092.17
723.853	2178.19
724.04	2159.75
724.227	2096.27
724.414	2184.33
724.6	2161.8
724.787	2139.27
724.974	2280.58
725.161	2073.74
725.347	2120.84
725.534	2245.77
725.72	2090.12
725.907	2217.1
726.094	2163.85
726.28	2200.71
726.467	2172.04
726.653	2137.23
726.84	2126.99
727.027	2153.61
727.213	2098.31
727.4	2104.46
727.586	2176.14
727.773	2196.62
727.959	2266.25
728.145	2073.74
728.332	2014.35
728.518	2079.88
728.705	2169.99
728.891	2047.12
729.077	2094.22
729.264	2172.04
729.45	2077.83
729.636	2143.37
729.823	2088.07
730.009	2180.23
730.195	2180.23
730.382	2165.9
730.568	2065.55
730.754	2108.55
730.94	2141.32
731.126	2077.83
731.313	2223.24
731.499	2086.03
731.685	2104.46
731.871	2110.6
732.057	2137.23
732.243	2145.42
732.429	2143.37
732.615	2153.61
732.801	2151.56
732.987	2241.67
733.173	2108.55
733.359	2163.85
733.545	2227.34
733.731	2186.38
733.917	2096.27
734.103	2249.86
734.289	2092.17
734.475	2012.3
734.661	2169.99
734.847	2061.45
735.033	2184.33
735.219	2100.36
735.404	2106.51
735.59	2028.68
735.776	1979.53
735.962	2098.31
736.148	2102.41
736.333	2210.95
736.519	2126.99
736.705	2022.54
736.89	2155.66
737.076	2079.88
737.262	1981.58
737.447	2129.03
737.633	2178.19
737.819	2077.83
738.004	2086.03
738.19	2053.26
738.375	2020.49
738.561	2118.79
738.747	2010.25
738.932	2036.88
739.118	2079.88
739.303	2032.78
739.489	2022.54
739.674	1944.72
739.859	1946.76
740.045	2032.78
740.23	2137.23
740.416	2014.35
740.601	2022.54
740.786	1991.82
740.972	1899.66
741.157	1987.72
741.342	1887.37
741.528	1889.42
741.713	1954.96
741.898	2034.83
742.084	1971.34
742.269	1914
742.454	1883.28
742.639	1916.05
742.824	2036.88
743.01	1760.4
743.195	1916.05
743.38	1948.81
743.565	1954.96
743.75	1911.95
743.935	1805.46
744.12	1987.72
744.305	1916.05
744.49	1817.74
744.675	1805.46
744.86	1844.37
745.045	1725.58
745.23	1825.93
745.415	1729.68
745.6	1817.74
745.785	1864.85
745.97	1856.65
746.155	1811.6
746.34	1825.93
746.525	1766.54
746.71	1854.61
746.895	1623.19
747.079	1713.3
747.264	1647.76
747.449	1784.98
747.634	1641.62
747.819	1715.34
748.003	1692.82
748.188	1678.48
748.373	1653.91
748.557	1684.62
748.742	1676.43
748.927	1651.86
749.111	1660.05
749.296	1606.8
749.481	1614.99
749.665	1531.03
749.85	1506.45
750.034	1614.99
750.219	1574.03
750.404	1596.56
750.588	1588.37
750.773	1492.12
750.957	1627.28
751.141	1520.79
751.326	1557.65
751.51	1453.2
751.695	1571.99
751.879	1508.5
752.064	1434.77
752.248	1430.68
752.432	1490.07
752.617	1416.34
752.801	1471.64
752.985	1432.72
753.17	1354.9
753.354	1309.85
753.538	1373.33
753.722	1408.15
753.907	1315.99
754.091	1250.46
754.275	1389.72
754.459	1402.01
754.643	1287.32
754.828	1322.13
755.012	1217.69
755.196	1295.51
755.38	1258.65
755.564	1250.46
755.748	1266.84
755.932	1254.55
756.116	1295.51
756.3	1234.07
756.484	1254.55
756.668	1225.88
756.852	1205.4
757.036	1234.07
757.22	1184.92
757.404	1197.21
757.588	1096.86
757.772	1258.65
757.956	1227.93
758.14	1209.5
758.323	1117.34
758.507	1178.78
758.691	1184.92
758.875	1129.63
759.059	1094.81
759.242	1094.81
759.426	1070.23
759.61	1168.54
759.794	1098.91
759.977	1103
760.161	1035.42
760.345	1139.87
760.528	1047.71
760.712	1053.85
760.895	988.32
761.079	1164.44
761.263	1053.85
761.446	1025.18
761.63	924.83
761.813	1039.51
761.997	943.26
762.18	906.4
762.364	1021.08
762.547	898.2
762.731	1031.32
762.914	1039.51
763.098	947.36
763.281	1000.6
763.464	965.79
763.648	947.36
763.831	976.03
764.015	1010.84
764.198	908.44
764.381	914.59
764.564	965.79
764.748	918.68
764.931	984.22
765.114	922.78
765.297	957.6
765.481	928.92
765.664	840.86
765.847	820.38
766.03	896.16
766.213	992.41
766.397	924.83
766.58	904.35
766.763	844.96
766.946	896.16
767.129	842.91
767.312	701.6
767.495	840.86
767.678	834.72
767.861	941.21
768.044	826.53
768.227	840.86
768.41	908.44
768.593	824.48
768.776	832.67
768.959	824.48
769.142	804
769.324	763.04
769.507	720.03
769.69	711.84
769.873	738.46
770.056	894.11
770.239	734.37
770.421	863.39
770.604	804
770.787	695.46
770.97	726.18
771.152	713.89
771.335	748.7
771.518	793.76
771.7	785.57
771.883	812.19
772.066	689.31
772.248	726.18
772.431	685.22
772.613	677.02
772.796	636.06
772.978	728.22
773.161	781.47
773.343	775.33
773.526	734.37
773.708	654.5
773.891	603.3
774.073	646.3
774.256	670.88
774.438	732.32
774.621	627.87
774.803	742.56
774.985	619.68
775.168	730.27
775.35	656.54
775.532	619.68
775.715	572.58
775.897	674.98
776.079	605.35
776.261	621.73
776.444	578.72
776.626	578.72
776.808	656.54
776.99	586.91
777.173	629.92
777.355	578.72
777.537	609.44
777.719	556.19
777.901	631.97
778.083	582.82
778.265	591.01
778.447	552.1
778.629	537.76
778.811	523.43
778.993	638.11
779.175	550.05
779.357	466.08
779.539	535.71
779.721	535.71
779.903	584.87
780.085	521.38
780.267	550.05
780.449	498.85
780.631	545.95
780.812	554.15
780.994	539.81
781.176	496.8
781.358	519.33
781.54	525.47
781.721	490.66
781.903	443.56
782.085	468.13
782.267	482.47
782.448	486.56
782.63	545.95
782.812	437.41
782.993	464.04
783.175	492.71
783.357	472.23
783.538	457.89
783.72	431.27
783.901	394.4
784.083	384.16
784.264	521.38
784.446	357.54
784.627	425.12
784.809	441.51
784.99	392.36
785.172	447.65
785.353	414.88
785.535	427.17
785.716	375.97
785.897	398.5
786.079	324.77
786.26	369.83
786.441	396.45
786.623	349.35
786.804	369.83
786.985	388.26
787.167	447.65
787.348	335.01
787.529	394.4
787.71	455.84
787.891	382.12
788.073	359.59
788.254	304.29
788.435	378.02
788.616	394.4
788.797	324.77
788.978	316.58
789.159	337.06
789.34	357.54
789.522	316.58
789.703	330.92
789.884	322.73
790.065	341.16
790.246	289.96
790.427	234.66
790.607	373.92
790.788	316.58
790.969	328.87
791.15	255.14
791.331	226.47
791.512	341.16
791.693	271.53
791.874	369.83
792.054	322.73
792.235	365.73
792.416	312.49
792.597	277.67
792.778	177.32
792.958	292.01
793.139	230.57
793.32	244.9
793.5	277.67
793.681	308.39
793.862	251.05
794.042	244.9
794.223	244.9
794.404	236.71
794.584	171.18
794.765	218.28
794.945	292.01
795.126	267.43
795.306	187.56
795.487	265.38
795.667	255.14
795.848	249
796.028	283.81
796.209	275.62
796.389	267.43
796.57	214.18
796.75	183.46
796.93	277.67
797.111	210.09
797.291	257.19
797.471	181.42
797.652	279.72
797.832	173.22
798.012	259.24
798.192	162.98
798.373	220.33
798.553	197.8
798.733	269.48
798.913	175.27
799.093	205.99
799.274	195.75
799.454	228.52
799.634	173.22
799.814	234.66
799.994	251.05
800.174	265.38
800.354	187.56
800.534	187.56
800.714	160.94
800.894	197.8
801.074	177.32
801.254	212.14
801.434	210.09
801.614	218.28
801.794	83.11
801.974	681.12
802.154	208.04
802.334	160.94
802.514	144.55
802.693	162.98
802.873	113.83
803.053	253.09
803.233	183.46
803.413	122.02
803.592	160.94
803.772	140.46
803.952	134.31
804.131	160.94
804.311	191.66
804.491	249
804.67	232.62
804.85	128.17
805.03	197.8
805.209	214.18
805.389	119.98
805.568	169.13
805.748	148.65
805.928	173.22
806.107	146.6
806.287	187.56
806.466	85.16
806.646	177.32
806.825	146.6
807.004	115.88
807.184	124.07
807.363	236.71
807.543	160.94
807.722	132.26
807.901	193.7
808.081	195.75
808.26	122.02
808.439	115.88
808.619	87.21
808.798	152.74
808.977	111.78
809.156	128.17
809.336	130.22
809.515	187.56
809.694	128.17
809.873	171.18
810.052	162.98
810.231	160.94
810.411	113.83
810.59	179.37
810.769	101.55
810.948	152.74
811.127	169.13
811.306	27.82
811.485	66.73
811.664	212.14
811.843	132.26
812.022	124.07
812.201	148.65
812.38	79.02
812.559	138.41
812.737	154.79
812.916	72.87
813.095	130.22
813.274	169.13
813.453	119.98
813.632	138.41
813.811	124.07
813.989	167.08
814.168	95.4
814.347	97.45
814.526	130.22
814.704	54.44
814.883	144.55
815.062	128.17
815.24	99.5
815.419	107.69
815.598	177.32
815.776	103.59
815.955	87.21
816.133	-23.38
816.312	87.21
816.49	91.31
816.669	64.68
816.847	97.45
817.026	156.84
817.204	87.21
817.383	146.6
817.561	130.22
817.74	79.02
817.918	64.68
818.097	46.25
818.275	181.42
818.453	97.45
818.632	83.11
818.81	128.17
818.988	76.97
819.167	181.42
819.345	87.21
819.523	109.74
819.701	44.2
819.879	81.07
820.058	95.4
820.236	79.02
820.414	62.63
820.592	64.68
820.77	87.21
820.948	46.25
821.127	25.77
821.305	64.68
821.483	58.54
821.661	113.83
821.839	56.49
822.017	68.78
822.195	56.49
822.373	162.98
822.551	72.87
822.729	74.92
822.907	33.96
823.085	89.26
823.262	140.46
823.44	-11.09
823.618	154.79
823.796	79.02
823.974	64.68
824.152	64.68
824.329	99.5
824.507	105.64
824.685	50.35
824.863	122.02
825.04	33.96
825.218	107.69
825.396	62.63
825.574	87.21
825.751	66.73
825.929	23.72
826.107	79.02
826.284	124.07
826.462	126.12
826.639	85.16
826.817	54.44
826.994	72.87
827.172	50.35
827.349	124.07
827.527	58.54
827.704	74.92
827.882	56.49
828.059	70.83
828.237	97.45
828.414	-21.33
828.591	-11.09
828.769	70.83
828.946	58.54
829.124	87.21
829.301	85.16
829.478	81.07
829.655	103.59
829.833	62.63
830.01	7.34
830.187	79.02
830.364	48.3
830.542	17.58
830.719	181.42
830.896	44.2
831.073	54.44
831.25	38.06
831.427	107.69
831.604	13.48
831.782	21.67
831.959	87.21
832.136	-52.05
832.313	111.78
832.49	54.44
832.667	5.29
832.844	13.48
833.021	83.11
833.198	70.83
833.374	9.39
833.551	87.21
833.728	62.63
833.905	15.53
834.082	70.83
834.259	79.02
834.436	72.87
834.612	64.68
834.789	62.63
834.966	154.79
835.143	-13.14
835.319	13.48
835.496	46.25
835.673	85.16
835.85	91.31
836.026	-43.86
836.203	167.08
836.38	-17.24
836.556	27.82
836.733	48.3
836.909	-9.05
837.086	83.11
837.262	-35.67
837.439	21.67
837.616	52.39
837.792	52.39
837.968	103.59
838.145	-60.24
838.321	68.78
838.498	56.49
838.674	54.44
838.851	-19.29
839.027	-27.48
839.203	62.63
839.38	79.02
839.556	17.58
839.732	62.63
839.909	-13.14
840.085	15.53
840.261	-84.82
840.437	29.87
840.614	13.48
840.79	79.02
840.966	-2.9
841.142	-9.05
841.318	-2.9
841.494	46.25
841.671	25.77
841.847	-2.9
842.023	-99.16
842.199	46.25
842.375	76.97
842.551	-19.29
842.727	5.29
842.903	7.34
843.079	19.63
843.255	72.87
843.431	-9.05
843.607	21.67
843.783	9.39
843.959	17.58
844.134	62.63
844.31	72.87
844.486	-15.19
844.662	-15.19
844.838	11.43
845.013	74.92
845.189	27.82
845.365	5.29
845.541	46.25
845.716	23.72
845.892	9.39
846.068	42.15
846.244	38.06
846.419	-33.62
846.595	23.72
846.77	70.83
846.946	62.63
847.122	-56.15
847.297	1.19
847.473	38.06
847.648	64.68
847.824	48.3
847.999	-41.81
848.175	40.11
848.35	38.06
848.526	-0.85
848.701	54.44
848.876	31.91
849.052	-27.48
849.227	9.39
849.403	40.11
849.578	-9.05
849.753	38.06
849.929	9.39
850.104	-21.33
850.279	33.96
850.454	5.29
850.63	25.77
850.805	-0.85
850.98	38.06
851.155	-11.09
851.33	101.55
851.505	-41.81
851.681	58.54
851.856	21.67
852.031	38.06
852.206	11.43
852.381	33.96
852.556	76.97
852.731	-11.09
852.906	-9.05
853.081	62.63
853.256	-17.24
853.431	-2.9
853.606	25.77
853.781	-23.38
853.956	-76.63
854.131	25.77
854.305	-50
854.48	19.63
854.655	-33.62
854.83	-60.24
855.005	-43.86
855.18	21.67
855.354	-19.29
855.529	-35.67
855.704	15.53
855.879	72.87
856.053	33.96
856.228	66.73
856.403	38.06
856.577	50.35
856.752	-62.29
856.926	21.67
857.101	38.06
857.276	23.72
857.45	-47.96
857.625	5.29
857.799	1.19
857.974	87.21
858.148	-17.24
858.323	1.19
858.497	-84.82
858.672	-19.29
858.846	-58.2
859.02	70.83
859.195	1.19
859.369	13.48
859.543	-56.15
859.718	60.59
859.892	-23.38
860.066	-35.67
860.241	-25.43
860.415	9.39
860.589	-76.63
860.763	25.77
860.938	7.34
861.112	-35.67
861.286	62.63
861.46	81.07
861.634	5.29
861.808	-0.85
861.982	-45.91
862.157	33.96
862.331	-9.05
862.505	-35.67
862.679	29.87
862.853	38.06
863.027	42.15
863.201	60.59
863.375	33.96
863.549	70.83
863.722	72.87
863.896	29.87
864.07	38.06
864.244	21.67
864.418	70.83
864.592	21.67
864.766	1.19
864.939	3.24
865.113	42.15
865.287	46.25
865.461	-23.38
865.634	25.77
865.808	-27.48
865.982	-52.05
866.156	-37.72
866.329	13.48
866.503	-9.05
866.676	48.3
866.85	83.11
867.024	-25.43
867.197	-0.85
867.371	-15.19
867.544	13.48
867.718	-15.19
867.891	58.54
868.065	-76.63
868.238	81.07
868.412	27.82
868.585	38.06
868.759	9.39
868.932	-31.57
869.105	-11.09
869.279	21.67
869.452	-27.48
869.625	9.39
869.799	7.34
869.972	42.15
870.145	13.48
870.319	56.49
870.492	-9.05
870.665	-45.91
870.838	-33.62
871.011	-0.85
871.185	-19.29
871.358	-64.34
871.531	-23.38
871.704	-21.33
871.877	-9.05
872.05	-33.62
872.223	-50
872.396	23.72
872.569	7.34
872.742	-60.24
872.915	21.67
873.088	17.58
873.261	1.19
873.434	7.34
873.607	9.39
873.78	-15.19
873.953	-31.57
874.126	31.91
874.299	-0.85
874.471	-21.33
874.644	21.67
874.817	-11.09
874.99	-17.24
875.163	-27.48
875.335	48.3
875.508	-33.62
875.681	60.59
875.853	-56.15
876.026	-9.05
876.199	-58.2
876.371	36.01
876.544	-113.49
876.717	-60.24
876.889	-56.15
877.062	27.82
877.234	-111.44
877.407	-31.57
877.579	-31.57
877.752	-11.09
877.924	-35.67
878.097	9.39
878.269	-76.63
878.442	81.07
878.614	-29.52
878.786	-2.9
878.959	25.77
879.131	-2.9
879.303	-47.96
879.476	38.06
879.648	48.3
879.82	-56.15
879.993	-33.62
880.165	-0.85
880.337	-33.62
880.509	-31.57
880.681	-11.09
880.854	-0.85
881.026	7.34
881.198	-0.85
881.37	-19.29
881.542	-9.05
881.714	-25.43
881.886	-17.24
882.058	-74.58
882.23	42.15
882.402	-15.19
882.574	46.25
882.746	9.39
882.918	38.06
883.09	21.67
883.262	5.29
883.434	-11.09
883.606	-19.29
883.778	-4.95
883.95	-35.67
884.122	-70.48
884.293	-9.05
884.465	-25.43
884.637	42.15
884.809	-41.81
884.98	-17.24
885.152	-45.91
885.324	23.72
885.496	-9.05
885.667	-35.67
885.839	-17.24
886.011	-37.72
886.182	-2.9
886.354	38.06
886.525	7.34
886.697	7.34
886.869	-56.15
887.04	-50
887.212	38.06
887.383	7.34
887.555	-21.33
887.726	-70.48
887.897	-27.48
888.069	-25.43
888.24	-21.33
888.412	-52.05
888.583	40.11
888.754	9.39
888.926	-88.92
889.097	7.34
889.268	-35.67
889.44	91.31
889.611	9.39
889.782	-64.34
889.953	-60.24
890.125	62.63
890.296	-43.86
890.467	5.29
890.638	-23.38
890.809	31.91
890.98	-50
891.151	-62.29
891.323	-7
891.494	-82.77
891.665	-47.96
891.836	-25.43
892.007	13.48
892.178	-54.1
892.349	-43.86
892.52	-66.39
892.691	-27.48
892.862	29.87
893.032	-72.53
893.203	-19.29
893.374	-78.68
893.545	7.34
893.716	-11.09
893.887	89.26
894.057	-21.33
894.228	-11.09
894.399	-43.86
894.57	72.87
894.74	-2.9
894.911	17.58
895.082	-15.19
895.253	-7
895.423	1.19
895.594	-39.76
895.764	-15.19
895.935	-76.63
896.106	-23.38
896.276	5.29
896.447	5.29
896.617	13.48
896.788	-35.67
896.958	-93.01
897.129	17.58
897.299	-0.85
897.47	15.53
897.64	15.53
897.81	-11.09
897.981	-23.38
898.151	-23.38
898.322	-23.38
898.492	5.29
898.662	-56.15
898.832	-39.76
899.003	-39.76
899.173	-39.76
899.343	-60.24
899.513	-25.43
