Data from USB4F104151__81__14-17-43-447.txt Node

Date: Thu Mar 13 14:17:43 EDT 2025
User: louis
Spectrometer: USB4F10415
Trigger mode: 4
Integration Time (sec): 2.000000E-2
Scans to average: 1
Electric dark correction enabled: true
Nonlinearity correction enabled: false
Boxcar width: 0
XAxis mode: Wavelengths
Number of Pixels in Spectrum: 3648
>>>>>Begin Spectral Data<<<<<
178.204	-164.52
178.424	-164.52
178.644	-164.52
178.864	-162.47
179.084	-144.04
179.304	11.61
179.524	42.32
179.744	-47.79
179.964	-6.83
180.184	17.75
180.404	-10.92
180.624	46.42
180.844	-12.97
181.064	-37.55
181.283	-21.16
181.503	-64.17
181.723	83.28
181.943	-15.02
182.163	118.1
182.383	38.23
182.602	21.85
182.822	91.48
183.042	30.04
183.262	-2.73
183.482	19.8
183.701	34.13
183.921	34.13
184.141	54.61
184.361	99.67
184.58	-43.69
184.8	-2.73
185.02	-15.02
185.239	144.72
185.459	-2.73
185.679	-64.17
185.898	-55.98
186.118	25.94
186.338	-23.21
186.557	93.52
186.777	-31.4
186.997	9.56
187.216	21.85
187.436	-10.92
187.655	-6.83
187.875	36.18
188.095	27.99
188.314	95.57
188.534	54.61
188.753	19.8
188.973	77.14
189.192	93.52
189.412	-4.78
189.631	42.32
189.851	13.65
190.07	52.56
190.29	-8.87
190.509	60.76
190.729	3.41
190.948	25.94
191.168	124.24
191.387	13.65
191.607	44.37
191.826	54.61
192.045	1.37
192.265	11.61
192.484	30.04
192.704	-8.87
192.923	-39.59
193.142	75.09
193.362	54.61
193.581	40.28
193.8	9.56
194.02	60.76
194.239	3.41
194.458	-10.92
194.678	5.46
194.897	42.32
195.116	17.75
195.335	25.94
195.555	50.52
195.774	-6.83
195.993	58.71
196.212	1.37
196.432	-15.02
196.651	75.09
196.87	-25.26
197.089	91.48
197.308	-27.31
197.528	73.04
197.747	-35.5
197.966	-27.31
198.185	79.19
198.404	-15.02
198.623	1.37
198.842	36.18
199.062	58.71
199.281	5.46
199.5	42.32
199.719	66.9
199.938	-68.27
200.157	75.09
200.376	99.67
200.595	44.37
200.814	50.52
201.033	36.18
201.252	40.28
201.471	25.94
201.69	62.8
201.909	48.47
202.128	77.14
202.347	62.8
202.566	75.09
202.785	-8.87
203.004	-47.79
203.223	25.94
203.442	40.28
203.661	-15.02
203.879	-6.83
204.098	-12.97
204.317	1.37
204.536	58.71
204.755	-62.12
204.974	34.13
205.193	-10.92
205.411	83.28
205.63	19.8
205.849	87.38
206.068	38.23
206.287	68.95
206.505	52.56
206.724	-55.98
206.943	52.56
207.162	25.94
207.381	54.61
207.599	17.75
207.818	19.8
208.037	-39.59
208.255	48.47
208.474	17.75
208.693	36.18
208.911	-58.03
209.13	50.52
209.349	34.13
209.567	-2.73
209.786	38.23
210.005	42.32
210.223	36.18
210.442	-64.17
210.661	7.51
210.879	15.7
211.098	34.13
211.316	83.28
211.535	54.61
211.753	23.89
211.972	-12.97
212.191	75.09
212.409	68.95
212.628	50.52
212.846	-27.31
213.065	50.52
213.283	77.14
213.502	40.28
213.72	15.7
213.938	97.62
214.157	25.94
214.375	95.57
214.594	-31.4
214.812	60.76
215.031	60.76
215.249	36.18
215.467	44.37
215.686	62.8
215.904	32.08
216.122	19.8
216.341	25.94
216.559	34.13
216.778	58.71
216.996	-0.68
217.214	-23.21
217.432	25.94
217.651	-4.78
217.869	-15.02
218.087	3.41
218.306	3.41
218.524	62.8
218.742	-6.83
218.96	60.76
219.179	-2.73
219.397	19.8
219.615	89.43
219.833	-4.78
220.051	21.85
220.27	58.71
220.488	17.75
220.706	157.01
220.924	34.13
221.142	19.8
221.36	75.09
221.578	101.72
221.796	3.41
222.015	40.28
222.233	13.65
222.451	126.29
222.669	-12.97
222.887	32.08
223.105	38.23
223.323	54.61
223.541	-10.92
223.759	-33.45
223.977	62.8
224.195	-19.11
224.413	19.8
224.631	71
224.849	13.65
225.067	30.04
225.285	25.94
225.503	25.94
225.721	56.66
225.939	11.61
226.157	27.99
226.375	150.87
226.592	-19.11
226.81	-23.21
227.028	44.37
227.246	1.37
227.464	17.75
227.682	-39.59
227.9	58.71
228.117	-8.87
228.335	-6.83
228.553	-10.92
228.771	27.99
228.989	91.48
229.206	-4.78
229.424	40.28
229.642	-8.87
229.86	46.42
230.077	50.52
230.295	58.71
230.513	75.09
230.731	54.61
230.948	107.86
231.166	42.32
231.384	-2.73
231.601	-39.59
231.819	99.67
232.037	-19.11
232.254	-10.92
232.472	60.76
232.689	-37.55
232.907	66.9
233.125	-21.16
233.342	-10.92
233.56	42.32
233.777	68.95
233.995	25.94
234.213	83.28
234.43	85.33
234.648	-15.02
234.865	30.04
235.083	17.75
235.3	13.65
235.518	30.04
235.735	42.32
235.953	107.86
236.17	1.37
236.388	17.75
236.605	17.75
236.822	50.52
237.04	25.94
237.257	-35.5
237.475	91.48
237.692	-25.26
237.909	15.7
238.127	9.56
238.344	79.19
238.562	75.09
238.779	25.94
238.996	9.56
239.214	46.42
239.431	-15.02
239.648	30.04
239.865	-15.02
240.083	-86.7
240.3	75.09
240.517	-15.02
240.735	42.32
240.952	-29.35
241.169	38.23
241.386	68.95
241.603	3.41
241.821	79.19
242.038	52.56
242.255	38.23
242.472	3.41
242.689	46.42
242.907	73.04
243.124	52.56
243.341	-6.83
243.558	-23.21
243.775	91.48
243.992	-19.11
244.209	27.99
244.426	52.56
244.643	85.33
244.86	-27.31
245.078	-12.97
245.295	-70.31
245.512	73.04
245.729	-47.79
245.946	42.32
246.163	36.18
246.38	77.14
246.597	3.41
246.814	52.56
247.031	32.08
247.248	32.08
247.464	64.85
247.681	40.28
247.898	15.7
248.115	30.04
248.332	38.23
248.549	99.67
248.766	75.09
248.983	23.89
249.2	15.7
249.417	1.37
249.633	89.43
249.85	58.71
250.067	58.71
250.284	50.52
250.501	83.28
250.717	46.42
250.934	-43.69
251.151	-51.88
251.368	46.42
251.585	34.13
251.801	-27.31
252.018	21.85
252.235	-0.68
252.451	-29.35
252.668	73.04
252.885	50.52
253.102	17.75
253.318	46.42
253.535	11.61
253.752	58.71
253.968	3.41
254.185	-23.21
254.401	17.75
254.618	64.85
254.835	48.47
255.051	107.86
255.268	64.85
255.484	25.94
255.701	27.99
255.917	73.04
256.134	-10.92
256.351	77.14
256.567	23.89
256.784	17.75
257	-31.4
257.217	9.56
257.433	7.51
257.65	54.61
257.866	71
258.082	-2.73
258.299	-23.21
258.515	13.65
258.732	13.65
258.948	32.08
259.165	54.61
259.381	-35.5
259.597	-17.07
259.814	-19.11
260.03	54.61
260.246	11.61
260.463	42.32
260.679	107.86
260.895	-23.21
261.112	17.75
261.328	-23.21
261.544	-6.83
261.761	19.8
261.977	13.65
262.193	-0.68
262.409	-0.68
262.626	54.61
262.842	1.37
263.058	-15.02
263.274	-21.16
263.49	25.94
263.707	34.13
263.923	52.56
264.139	42.32
264.355	30.04
264.571	83.28
264.787	-6.83
265.004	54.61
265.22	27.99
265.436	54.61
265.652	38.23
265.868	13.65
266.084	21.85
266.3	107.86
266.516	-6.83
266.732	66.9
266.948	1.37
267.164	73.04
267.38	42.32
267.596	3.41
267.812	15.7
268.028	50.52
268.244	-6.83
268.46	9.56
268.676	-37.55
268.892	62.8
269.108	7.51
269.324	19.8
269.54	1.37
269.756	83.28
269.972	9.56
270.188	34.13
270.403	30.04
270.619	54.61
270.835	21.85
271.051	15.7
271.267	-4.78
271.483	19.8
271.698	34.13
271.914	68.95
272.13	27.99
272.346	-31.4
272.562	-12.97
272.777	-37.55
272.993	36.18
273.209	-6.83
273.425	62.8
273.64	-39.59
273.856	50.52
274.072	-64.17
274.287	1.37
274.503	75.09
274.719	21.85
274.934	77.14
275.15	-8.87
275.366	40.28
275.581	36.18
275.797	42.32
276.012	30.04
276.228	36.18
276.444	42.32
276.659	66.9
276.875	30.04
277.09	-19.11
277.306	42.32
277.521	11.61
277.737	-8.87
277.952	15.7
278.168	9.56
278.383	-47.79
278.599	34.13
278.814	36.18
279.03	46.42
279.245	114
279.461	11.61
279.676	91.48
279.892	-4.78
280.107	54.61
280.322	23.89
280.538	42.32
280.753	-17.07
280.969	19.8
281.184	42.32
281.399	71
281.615	-33.45
281.83	32.08
282.045	9.56
282.26	11.61
282.476	1.37
282.691	19.8
282.906	25.94
283.122	60.76
283.337	5.46
283.552	44.37
283.767	9.56
283.983	-6.83
284.198	-8.87
284.413	56.66
284.628	38.23
284.843	34.13
285.058	-12.97
285.274	75.09
285.489	-62.12
285.704	60.76
285.919	71
286.134	79.19
286.349	40.28
286.564	-37.55
286.779	15.7
286.995	-4.78
287.21	-37.55
287.425	83.28
287.64	71
287.855	-31.4
288.07	-10.92
288.285	27.99
288.5	60.76
288.715	17.75
288.93	52.56
289.145	19.8
289.36	75.09
289.575	-10.92
289.79	-21.16
290.004	15.7
290.219	5.46
290.434	32.08
290.649	38.23
290.864	9.56
291.079	-8.87
291.294	46.42
291.509	-37.55
291.724	-4.78
291.938	34.13
292.153	52.56
292.368	-64.17
292.583	17.75
292.798	83.28
293.012	38.23
293.227	11.61
293.442	-45.74
293.657	54.61
293.871	58.71
294.086	34.13
294.301	50.52
294.516	64.85
294.73	103.76
294.945	25.94
295.16	83.28
295.374	66.9
295.589	-19.11
295.804	3.41
296.018	99.67
296.233	91.48
296.447	120.15
296.662	-58.03
296.877	-29.35
297.091	62.8
297.306	-47.79
297.52	-37.55
297.735	58.71
297.949	-15.02
298.164	-29.35
298.378	27.99
298.593	3.41
298.807	1.37
299.022	5.46
299.236	-21.16
299.451	38.23
299.665	68.95
299.88	58.71
300.094	23.89
300.309	120.15
300.523	-4.78
300.737	25.94
300.952	-4.78
301.166	27.99
301.381	-55.98
301.595	1.37
301.809	-27.31
302.024	32.08
302.238	-19.11
302.452	77.14
302.667	77.14
302.881	-10.92
303.095	62.8
303.309	25.94
303.524	1.37
303.738	19.8
303.952	85.33
304.166	66.9
304.381	-60.07
304.595	85.33
304.809	54.61
305.023	79.19
305.237	-6.83
305.452	68.95
305.666	50.52
305.88	42.32
306.094	66.9
306.308	17.75
306.522	27.99
306.736	50.52
306.95	1.37
307.164	21.85
307.379	-12.97
307.593	111.96
307.807	30.04
308.021	19.8
308.235	25.94
308.449	13.65
308.663	34.13
308.877	83.28
309.091	25.94
309.305	68.95
309.519	-43.69
309.733	9.56
309.947	-15.02
310.161	32.08
310.374	19.8
310.588	114
310.802	-6.83
311.016	42.32
311.23	36.18
311.444	-64.17
311.658	46.42
311.872	93.52
312.085	9.56
312.299	132.44
312.513	101.72
312.727	-10.92
312.941	21.85
313.154	-27.31
313.368	-0.68
313.582	60.76
313.796	54.61
314.009	-39.59
314.223	58.71
314.437	-10.92
314.651	120.15
314.864	25.94
315.078	56.66
315.292	1.37
315.505	17.75
315.719	58.71
315.933	66.9
316.146	116.05
316.36	25.94
316.573	79.19
316.787	44.37
317.001	68.95
317.214	34.13
317.428	34.13
317.641	62.8
317.855	11.61
318.068	21.85
318.282	79.19
318.495	95.57
318.709	38.23
318.922	44.37
319.136	91.48
319.349	50.52
319.563	42.32
319.776	58.71
319.99	-6.83
320.203	81.24
320.417	48.47
320.63	54.61
320.843	64.85
321.057	-12.97
321.27	-2.73
321.483	50.52
321.697	36.18
321.91	81.24
322.124	42.32
322.337	66.9
322.55	42.32
322.763	-25.26
322.977	89.43
323.19	52.56
323.403	-6.83
323.617	11.61
323.83	68.95
324.043	25.94
324.256	19.8
324.469	-55.98
324.683	7.51
324.896	62.8
325.109	25.94
325.322	81.24
325.535	17.75
325.748	128.34
325.962	68.95
326.175	34.13
326.388	38.23
326.601	44.37
326.814	-10.92
327.027	58.71
327.24	99.67
327.453	-27.31
327.666	75.09
327.879	87.38
328.092	62.8
328.305	34.13
328.518	58.71
328.731	75.09
328.944	46.42
329.157	-45.74
329.37	36.18
329.583	130.39
329.796	9.56
330.009	13.65
330.222	42.32
330.435	-23.21
330.648	60.76
330.861	58.71
331.073	60.76
331.286	107.86
331.499	58.71
331.712	58.71
331.925	-64.17
332.138	-12.97
332.35	44.37
332.563	30.04
332.776	44.37
332.989	11.61
333.202	-29.35
333.414	50.52
333.627	-0.68
333.84	-17.07
334.053	109.91
334.265	-2.73
334.478	34.13
334.691	9.56
334.903	34.13
335.116	107.86
335.329	-15.02
335.541	85.33
335.754	1.37
335.966	66.9
336.179	-0.68
336.392	34.13
336.604	11.61
336.817	21.85
337.029	52.56
337.242	-6.83
337.454	56.66
337.667	44.37
337.88	38.23
338.092	46.42
338.305	93.52
338.517	30.04
338.729	111.96
338.942	11.61
339.154	9.56
339.367	68.95
339.579	13.65
339.792	-49.83
340.004	30.04
340.217	30.04
340.429	36.18
340.641	3.41
340.854	1.37
341.066	7.51
341.278	-37.55
341.491	68.95
341.703	68.95
341.915	-15.02
342.128	34.13
342.34	-15.02
342.552	-12.97
342.764	32.08
342.977	44.37
343.189	25.94
343.401	19.8
343.613	-2.73
343.826	19.8
344.038	-62.12
344.25	13.65
344.462	9.56
344.674	25.94
344.886	13.65
345.099	77.14
345.311	13.65
345.523	15.7
345.735	85.33
345.947	36.18
346.159	50.52
346.371	54.61
346.583	58.71
346.795	50.52
347.007	-39.59
347.219	107.86
347.431	75.09
347.643	42.32
347.855	-2.73
348.067	126.29
348.279	52.56
348.491	-4.78
348.703	62.8
348.915	34.13
349.127	50.52
349.339	62.8
349.551	-23.21
349.763	103.76
349.975	132.44
350.187	58.71
350.399	134.48
350.61	34.13
350.822	11.61
351.034	75.09
351.246	75.09
351.458	21.85
351.669	42.32
351.881	50.52
352.093	-2.73
352.305	1.37
352.517	73.04
352.728	32.08
352.94	-15.02
353.152	30.04
353.363	32.08
353.575	9.56
353.787	132.44
353.999	42.32
354.21	60.76
354.422	32.08
354.633	44.37
354.845	-12.97
355.057	46.42
355.268	44.37
355.48	83.28
355.692	128.34
355.903	15.7
356.115	40.28
356.326	7.51
356.538	116.05
356.749	93.52
356.961	9.56
357.172	103.76
357.384	-51.88
357.595	128.34
357.807	38.23
358.018	-2.73
358.23	-12.97
358.441	91.48
358.653	-0.68
358.864	5.46
359.075	87.38
359.287	48.47
359.498	93.52
359.709	36.18
359.921	-4.78
360.132	-12.97
360.344	116.05
360.555	3.41
360.766	71
360.977	13.65
361.189	79.19
361.4	36.18
361.611	132.44
361.823	83.28
362.034	99.67
362.245	9.56
362.456	34.13
362.667	46.42
362.879	3.41
363.09	54.61
363.301	32.08
363.512	1.37
363.723	-10.92
363.935	-27.31
364.146	32.08
364.357	13.65
364.568	13.65
364.779	7.51
364.99	93.52
365.201	42.32
365.412	-43.69
365.623	-35.5
365.834	111.96
366.045	34.13
366.256	38.23
366.467	19.8
366.678	50.52
366.889	34.13
367.1	44.37
367.311	-21.16
367.522	81.24
367.733	30.04
367.944	50.52
368.155	56.66
368.366	36.18
368.577	64.85
368.788	19.8
368.999	58.71
369.209	99.67
369.42	142.68
369.631	71
369.842	34.13
370.053	-8.87
370.264	105.81
370.474	5.46
370.685	54.61
370.896	62.8
371.107	17.75
371.317	40.28
371.528	40.28
371.739	48.47
371.95	62.8
372.16	60.76
372.371	42.32
372.582	91.48
372.792	75.09
373.003	36.18
373.214	-8.87
373.424	83.28
373.635	3.41
373.846	48.47
374.056	25.94
374.267	68.95
374.477	58.71
374.688	50.52
374.898	15.7
375.109	103.76
375.319	50.52
375.53	128.34
375.74	-21.16
375.951	32.08
376.161	5.46
376.372	64.85
376.582	46.42
376.793	36.18
377.003	44.37
377.214	27.99
377.424	30.04
377.635	40.28
377.845	1.37
378.055	50.52
378.266	-15.02
378.476	-27.31
378.686	66.9
378.897	-15.02
379.107	71
379.317	75.09
379.528	42.32
379.738	118.1
379.948	-4.78
380.158	81.24
380.369	83.28
380.579	-10.92
380.789	73.04
380.999	185.68
381.21	81.24
381.42	83.28
381.63	42.32
381.84	73.04
382.05	71
382.261	116.05
382.471	75.09
382.681	48.47
382.891	68.95
383.101	5.46
383.311	-4.78
383.521	27.99
383.731	62.8
383.941	116.05
384.151	66.9
384.361	30.04
384.571	44.37
384.781	5.46
384.991	50.52
385.201	120.15
385.411	77.14
385.621	46.42
385.831	52.56
386.041	27.99
386.251	48.47
386.461	75.09
386.671	-21.16
386.881	25.94
387.091	52.56
387.301	71
387.511	52.56
387.72	-15.02
387.93	21.85
388.14	91.48
388.35	56.66
388.56	50.52
388.769	66.9
388.979	101.72
389.189	1.37
389.399	-39.59
389.609	56.66
389.818	62.8
390.028	13.65
390.238	73.04
390.447	56.66
390.657	66.9
390.867	-2.73
391.076	19.8
391.286	50.52
391.496	101.72
391.705	42.32
391.915	99.67
392.125	44.37
392.334	52.56
392.544	111.96
392.753	91.48
392.963	50.52
393.172	-31.4
393.382	-47.79
393.591	93.52
393.801	34.13
394.01	97.62
394.22	50.52
394.429	27.99
394.639	116.05
394.848	95.57
395.058	62.8
395.267	81.24
395.477	124.24
395.686	58.71
395.895	126.29
396.105	107.86
396.314	202.07
396.524	87.38
396.733	83.28
396.942	85.33
397.152	111.96
397.361	66.9
397.57	73.04
397.78	103.76
397.989	66.9
398.198	167.25
398.407	54.61
398.617	-0.68
398.826	19.8
399.035	34.13
399.244	124.24
399.453	132.44
399.663	124.24
399.872	122.2
400.081	56.66
400.29	50.52
400.499	32.08
400.708	134.48
400.917	118.1
401.127	64.85
401.336	48.47
401.545	165.2
401.754	150.87
401.963	50.52
402.172	126.29
402.381	132.44
402.59	85.33
402.799	109.91
403.008	85.33
403.217	181.59
403.426	128.34
403.635	68.95
403.844	99.67
404.053	114
404.262	152.92
404.471	95.57
404.68	99.67
404.888	142.68
405.097	122.2
405.306	122.2
405.515	193.87
405.724	159.06
405.933	152.92
406.142	132.44
406.35	195.92
406.559	116.05
406.768	173.39
406.977	91.48
407.185	185.68
407.394	177.49
407.603	177.49
407.812	197.97
408.02	220.5
408.229	202.07
408.438	134.48
408.646	171.35
408.855	259.41
409.064	326.99
409.272	245.07
409.481	224.59
409.69	265.55
409.898	183.63
410.107	273.75
410.315	292.18
410.524	218.45
410.733	271.7
410.941	193.87
411.15	398.67
411.358	283.99
411.567	361.81
411.775	324.94
411.984	378.19
412.192	394.58
412.401	437.58
412.609	402.77
412.818	476.49
413.026	394.58
413.234	415.06
413.443	476.49
413.651	439.63
413.86	427.34
414.068	548.17
414.276	574.8
414.485	587.08
414.693	599.37
414.901	566.6
415.11	560.46
415.318	675.15
415.526	562.51
415.734	634.19
415.943	693.58
416.151	767.31
416.359	691.53
416.567	775.5
416.776	734.54
416.984	847.18
417.192	863.56
417.4	804.17
417.608	789.83
417.817	1025.35
418.025	853.32
418.233	1013.06
418.441	906.57
418.649	980.29
418.857	1168.71
419.065	1111.36
419.273	1066.31
419.481	1041.73
419.689	1279.3
419.897	1305.92
420.105	1264.96
420.313	1312.07
420.521	1369.41
420.729	1451.33
420.937	1389.89
421.145	1561.92
421.353	1555.77
421.561	1615.16
421.769	1647.93
421.977	1774.91
422.185	1733.95
422.393	1891.64
422.601	1918.26
422.809	2028.85
423.017	2000.18
423.224	1975.61
423.432	2043.19
423.64	2075.96
423.848	2307.38
424.056	2217.27
424.263	2454.83
424.471	2477.36
424.679	2542.89
424.887	2671.92
425.094	2639.15
425.302	2790.7
425.51	2819.37
425.718	2899.24
425.925	3026.22
426.133	3063.08
426.341	3302.69
426.548	3403.04
426.756	3476.77
426.964	3487.01
427.171	3644.7
427.379	3679.52
427.586	3738.91
427.794	3794.2
428.001	4048.15
428.209	4105.49
428.417	4082.97
428.624	4486.42
428.832	4513.04
429.039	4312.34
429.247	4308.24
429.454	4760.84
429.662	5039.37
429.869	4717.84
430.076	5231.88
430.284	5004.55
430.491	5395.72
430.699	5543.17
430.906	5506.31
431.114	5555.46
431.321	5727.49
431.528	5958.91
431.736	6214.9
431.943	6743.28
432.15	6339.83
432.358	6466.8
432.565	6829.29
432.772	6769.9
432.979	7116.01
433.187	7113.96
433.394	7191.78
433.601	7742.69
433.808	7816.41
434.016	7861.47
434.223	8041.69
434.43	8588.5
434.637	8471.76
434.844	8725.71
435.052	8936.65
435.259	9120.97
435.466	9053.39
435.673	8996.04
435.88	9604.29
436.087	10112.19
436.294	10261.69
436.501	9991.36
436.708	10003.64
436.915	10527.92
437.122	10785.97
437.329	10939.57
437.537	10966.19
437.743	11465.89
437.95	11293.86
438.157	11871.39
438.364	12111
438.571	12481.69
438.778	12371.1
438.985	13528.2
439.192	12919.95
439.399	13218.96
439.606	13118.61
439.813	13646.98
440.02	14607.48
440.227	14144.64
440.433	14339.19
440.64	14902.39
440.847	14494.84
441.054	15025.26
441.261	15996
441.467	15631.46
441.674	15959.14
441.881	16143.45
442.088	16395.36
442.294	16532.57
442.501	16802.9
442.708	17114.19
442.914	17630.28
443.121	18607.16
443.328	18089.03
443.534	19295.28
443.741	18830.39
443.948	18428.99
444.154	19940.39
444.361	19801.13
444.568	19797.03
444.774	19745.83
444.981	20302.88
445.187	20648.99
445.394	21560.33
445.6	21199.89
445.807	23436.27
446.013	22242.31
446.22	22516.73
446.426	23413.74
446.633	23671.79
446.839	24781.79
447.046	23372.78
447.252	24564.7
447.459	24783.84
447.665	24759.26
447.871	25732.04
448.078	27153.33
448.284	25535.44
448.491	26747.84
448.697	27376.56
448.903	28210.09
449.11	28076.97
449.316	27526.07
449.522	27962.28
449.728	28631.97
449.935	28912.54
450.141	28961.69
450.347	29655.95
450.553	28500.9
450.76	28869.53
450.966	30104.46
451.172	30006.16
451.378	30550.92
451.584	30260.1
451.791	30686.08
451.997	30512
452.203	30974.84
452.409	31163.26
452.615	31075.2
452.821	29516.69
453.027	29254.55
453.233	30993.28
453.44	29696.91
453.646	30167.94
453.852	30120.84
454.058	30669.7
454.264	29600.66
454.47	30628.74
454.676	29619.09
454.882	30395.27
455.088	28052.39
455.294	28525.47
455.5	28945.31
455.705	29410.2
455.911	27741.1
456.117	27724.72
456.323	27165.62
456.529	25871.31
456.735	27001.79
456.941	25961.42
457.147	25988.04
457.352	24982.49
457.558	24724.44
457.764	25000.92
457.97	24564.7
458.176	23983.08
458.381	23878.63
458.587	22608.89
458.793	22955
458.999	21650.44
459.204	23270.39
459.41	22506.49
459.616	21181.46
459.821	21050.39
460.027	20943.89
460.233	20276.26
460.438	19516.46
460.644	19717.16
460.85	18836.53
461.055	18400.32
461.261	18445.37
461.466	16938.07
461.672	16573.53
461.878	17888.32
462.083	16577.62
462.289	16237.66
462.494	16006.24
462.7	15402.09
462.905	15305.84
463.111	15557.74
463.316	15510.63
463.522	15346.8
463.727	15070.32
463.932	15309.93
464.138	14969.97
464.343	15221.87
464.549	14838.9
464.754	15211.63
464.959	15322.22
465.165	14894.19
465.37	14457.98
465.575	13821.06
465.781	14337.15
465.986	14439.54
466.191	14128.25
466.397	13712.52
466.602	12983.44
466.807	13448.33
467.012	13505.67
467.218	13481.1
467.423	13474.95
467.628	13382.79
467.833	14226.56
468.038	13487.24
468.244	12967.06
468.449	13612.17
468.654	13214.86
468.859	13116.56
469.064	12895.38
469.269	12620.95
469.474	12772.5
469.679	12682.39
469.885	12319.9
470.09	12461.21
470.295	12592.28
470.5	12184.73
470.705	12514.45
470.91	12039.33
471.115	12033.18
471.32	12108.96
471.525	12125.34
471.73	11734.18
471.935	11764.9
472.139	11371.69
472.344	11349.16
472.549	11326.63
472.754	11211.95
472.959	11087.02
473.164	10851.5
473.369	10726.58
473.574	10945.71
473.778	10839.22
473.983	10779.82
474.188	10847.41
474.393	10333.37
474.598	10396.85
474.802	10099.9
475.007	10257.59
475.212	10319.03
475.417	9868.48
475.621	9958.59
475.826	9999.55
476.031	9594.05
476.235	9481.41
476.44	9667.78
476.645	9372.87
476.849	9557.19
477.054	9538.76
477.259	9182.41
477.463	9166.03
477.668	9034.96
477.872	9075.91
478.077	8805.58
478.282	8766.67
478.486	8586.45
478.691	8604.88
478.895	8615.12
479.1	8598.74
479.304	8570.07
479.509	8336.6
479.713	8496.34
479.918	8330.45
480.122	8056.03
480.326	8258.78
480.531	8213.72
480.735	8289.49
480.94	8176.86
481.144	8398.04
481.348	7965.92
481.553	8056.03
481.757	7781.6
481.961	8168.66
482.166	8150.23
482.37	8185.05
482.574	7806.17
482.778	7955.68
482.983	8017.12
483.187	8080.6
483.391	7980.25
483.595	8109.27
483.8	7824.61
484.004	8088.79
484.208	7976.16
484.412	7935.2
484.616	8000.73
484.821	7845.09
485.025	7959.77
485.229	7967.96
485.433	8051.93
485.637	8015.07
485.841	7660.77
486.045	7988.44
486.249	7988.44
486.453	8045.79
486.657	7947.48
486.861	8002.78
487.065	7771.36
487.269	7949.53
487.473	7720.16
487.677	7988.44
487.881	7998.68
488.085	7804.13
488.289	8090.84
488.493	7935.2
488.697	8019.16
488.901	7840.99
489.105	7965.92
489.309	8088.79
489.512	8006.88
489.716	7988.44
489.92	7994.59
490.124	7955.68
490.328	8283.35
490.531	8154.33
490.735	8094.94
490.939	8215.77
491.143	8068.31
491.346	8082.65
491.55	8146.14
491.754	8381.65
491.958	8283.35
492.161	8189.14
492.365	8367.32
492.569	8299.73
492.772	8410.33
492.976	8580.31
493.18	8535.25
493.383	8479.96
493.587	8418.52
493.79	8770.77
493.994	8608.98
494.197	8533.2
494.401	8918.22
494.605	8752.34
494.808	8844.49
495.012	8733.9
495.215	9108.68
495.419	9116.87
495.622	9147.59
495.825	9313.48
496.029	9327.81
496.232	9237.7
496.436	9442.5
496.639	9651.39
496.843	9528.52
497.046	9542.85
497.249	9872.57
497.453	9753.79
497.656	9823.42
497.859	9862.33
498.063	10075.32
498.266	10345.66
498.469	10368.18
498.673	10302.65
498.876	10626.23
499.079	10575.03
499.282	10570.93
499.485	11054.25
499.689	10767.54
499.892	11148.46
500.095	11306.15
500.298	11279.53
500.501	11142.32
500.705	11469.99
500.908	11596.96
501.111	11680.93
501.314	11951.26
501.517	11887.78
501.72	12328.09
501.923	12111
502.126	12395.67
502.329	12680.34
502.532	12694.68
502.735	12688.53
502.938	13104.27
503.141	13085.84
503.344	13259.92
503.547	13364.36
503.75	13493.38
503.953	13763.72
504.156	13714.56
504.359	13868.16
504.562	13870.21
504.765	14208.12
504.968	14486.65
505.17	14531.7
505.373	14597.24
505.576	14937.2
505.779	14877.81
505.982	15230.06
506.185	15463.53
506.387	15309.93
506.59	15242.35
506.793	15832.16
506.996	15656.04
507.198	16262.24
507.401	16098.4
507.604	16557.14
507.807	16551
508.009	16467.03
508.212	16845.91
508.415	17015.89
508.617	17409.1
508.82	17359.95
509.022	17161.3
509.225	17566.79
509.428	17820.74
509.63	17871.94
509.833	18172.99
510.035	18269.25
510.238	18498.62
510.44	18652.22
510.643	19055.67
510.845	19186.74
511.048	19225.65
511.25	19233.84
511.453	19489.84
511.655	20220.96
511.858	19864.61
512.06	20233.25
512.262	20198.43
512.465	20153.38
512.667	20522.01
512.87	20767.77
513.072	20937.75
513.274	21093.4
513.477	21349.39
513.679	21455.89
513.881	21783.56
514.084	22086.66
514.286	22017.03
514.488	22373.38
514.69	22578.17
514.893	23198.71
515.095	22991.86
515.297	23313.39
515.499	23196.66
515.701	23677.93
515.904	23995.37
516.106	24232.93
516.308	24333.28
516.51	24677.34
516.712	24339.43
516.914	24863.71
517.116	25308.12
517.318	25275.35
517.52	25283.54
517.722	25527.25
517.925	25988.04
518.127	26194.89
518.329	26090.44
518.531	26278.85
518.733	26921.91
518.935	27229.11
519.136	26981.31
519.338	27366.32
519.54	27601.84
519.742	27913.13
519.944	27863.98
520.146	28332.96
520.348	28421.03
520.55	28779.42
520.752	28662.69
520.954	29375.38
521.155	29174.68
521.357	29791.12
521.559	29944.72
521.761	29823.89
521.963	30096.27
522.164	30272.39
522.366	30446.47
522.568	30446.47
522.77	30497.67
522.971	31206.27
523.173	30940.03
523.375	31509.36
523.576	31241.08
523.778	31538.04
523.98	31834.99
524.181	32334.7
524.383	32330.6
524.584	32396.13
524.786	32729.95
524.988	32480.1
525.189	33078.11
525.391	33059.68
525.592	33233.75
525.794	33151.84
525.995	33272.67
526.197	33409.88
526.398	33514.33
526.6	33911.63
526.801	33905.49
527.003	34145.1
527.204	34347.85
527.406	34216.78
527.607	34300.75
527.808	34511.69
528.01	34128.72
528.211	34526.02
528.412	35269.44
528.614	34904.9
528.815	34919.23
529.016	35312.44
529.218	35091.26
529.419	35040.06
529.62	35623.73
529.822	35005.25
530.023	35443.51
530.224	35324.73
530.425	35468.09
530.626	35355.45
530.828	35056.45
531.029	36277.04
531.23	35795.76
531.431	35724.08
531.632	35744.56
531.833	35902.26
532.035	35861.3
532.236	35994.42
532.437	35951.41
532.638	36016.94
532.839	35951.41
533.04	36266.8
533.241	36098.86
533.442	36823.84
533.643	36277.04
533.844	36203.31
534.045	36641.57
534.246	35918.64
534.447	36221.74
534.648	36115.25
534.849	36168.49
535.05	36213.55
535.251	36363.05
535.451	36229.93
535.652	36817.7
535.853	35756.85
536.054	36240.17
536.255	36389.67
536.456	35918.64
536.657	36723.49
536.857	36408.11
537.058	36465.45
537.259	36541.22
537.46	36633.38
537.66	36350.76
537.861	36600.61
538.062	36444.97
538.263	36746.02
538.463	36115.25
538.664	36346.67
538.865	36664.1
539.065	36361
539.266	36143.92
539.466	36768.55
539.667	36006.7
539.868	36629.29
540.068	35994.42
540.269	36221.74
540.469	36338.47
540.67	35945.26
540.87	36358.95
541.071	36287.28
541.271	36436.78
541.472	36385.58
541.672	36092.72
541.873	36064.05
542.073	35789.62
542.274	36340.52
542.474	36483.88
542.675	35916.59
542.875	36266.8
543.075	35787.57
543.276	35779.38
543.476	36350.76
543.676	36105.01
543.877	36508.46
544.077	36483.88
544.277	36111.15
544.478	36080.43
544.678	36064.05
544.878	36131.63
545.078	36256.56
545.279	35920.69
545.479	36100.91
545.679	36176.69
545.879	36295.47
546.079	35502.9
546.28	35844.91
546.48	35642.17
546.68	36156.21
546.88	36092.72
547.08	36068.14
547.28	35803.95
547.48	35599.16
547.68	36295.47
547.88	35982.13
548.081	36092.72
548.281	35795.76
548.481	35719.99
548.681	35894.07
548.881	35697.46
549.081	35719.99
549.28	35697.46
549.48	36088.62
549.68	35941.17
549.88	36459.31
550.08	35511.1
550.28	36381.48
550.48	35955.5
550.68	36262.7
550.88	35361.59
551.08	35615.54
551.279	35928.88
551.479	35642.17
551.679	35689.27
551.879	35697.46
552.079	35879.73
552.278	35730.23
552.478	35707.7
552.678	35621.69
552.878	35969.84
553.077	35685.17
553.277	35377.98
553.477	35871.54
553.676	35408.7
553.876	35771.19
554.076	35566.39
554.275	35306.3
554.475	35101.5
554.674	35597.11
554.874	35478.33
555.074	35502.9
555.273	35044.16
555.473	35580.73
555.672	35289.91
555.872	35244.86
556.071	35191.61
556.271	35152.7
556.47	35285.82
556.67	34841.41
556.869	35181.37
557.068	35107.65
557.268	35068.73
557.467	35175.23
557.667	35097.41
557.866	35038.01
558.065	35332.92
558.265	34667.33
558.464	34728.77
558.663	35029.82
558.863	34634.56
559.062	35294.01
559.261	34593.61
559.461	34927.42
559.66	34556.74
559.859	34593.61
560.058	34392.9
560.258	34650.95
560.457	34339.66
560.656	34519.88
560.855	34239.31
561.054	34286.41
561.253	34214.73
561.453	34489.16
561.652	34282.31
561.851	34280.27
562.05	34057.04
562.249	33540.95
562.448	34435.91
562.647	33915.73
562.846	33921.87
563.045	33823.57
563.244	33481.56
563.443	34274.12
563.642	33702.74
563.841	33184.6
564.04	33530.71
564.239	33743.7
564.438	33270.62
564.637	33356.63
564.836	33639.25
565.035	33035.1
565.234	33196.89
565.432	32772.96
565.631	32942.94
565.83	33119.07
566.029	32914.27
566.228	32719.71
566.427	32815.97
566.625	32631.65
566.824	32357.22
567.023	32705.38
567.222	32588.64
567.42	32764.77
567.619	32637.8
567.818	32398.18
568.016	32521.06
568.215	32643.94
568.414	31880.05
568.612	32346.98
568.811	32119.66
569.01	32332.65
569.208	31882.09
569.407	31939.44
569.605	31552.37
569.804	31894.38
570.002	31388.53
570.201	31843.18
570.4	31050.62
570.598	31431.54
570.797	31210.36
570.995	31535.99
571.193	30956.41
571.392	31507.32
571.59	30874.49
571.789	31255.42
571.987	30876.54
572.186	30851.97
572.384	30567.3
572.582	30880.64
572.781	30987.13
572.979	30565.25
573.177	30497.67
573.376	30669.7
573.574	30278.54
573.772	30372.74
573.971	30075.79
574.169	30247.82
574.367	30215.05
574.565	29977.48
574.763	29901.71
574.962	29997.96
575.16	29741.97
575.358	29746.06
575.556	29127.58
575.754	29926.28
575.952	29510.55
576.151	29916.04
576.349	29223.83
576.547	29076.38
576.745	29647.76
576.943	29488.02
577.141	29320.09
577.339	29100.95
577.537	29113.24
577.735	29385.62
577.933	28842.91
578.131	28804
578.329	28464.03
578.527	28490.66
578.725	28504.99
578.923	28222.37
579.121	28373.92
579.319	28205.99
579.516	28423.08
579.714	27982.76
579.912	28476.32
580.11	28093.35
580.308	28083.11
580.506	27773.87
580.704	27384.76
580.901	27718.57
581.099	28040.11
581.297	27405.24
581.495	27739.05
581.692	27583.41
581.89	27503.54
582.088	27440.05
582.285	27157.43
582.483	27386.8
582.681	27470.77
582.878	27390.9
583.076	26944.44
583.274	27345.84
583.471	26827.71
583.669	26938.3
583.866	26381.25
584.064	26756.03
584.262	26620.86
584.459	26604.48
584.657	26516.42
584.854	26602.43
585.052	26495.94
585.249	26334.15
585.447	25959.37
585.644	25897.93
585.841	25992.14
586.039	26213.32
586.236	25732.04
586.434	25705.42
586.631	25895.88
586.828	25619.41
587.026	25668.56
587.223	25406.42
587.42	25488.34
587.618	25349.07
587.815	25000.92
588.012	25408.47
588.21	25490.38
588.407	25498.58
588.604	25060.31
588.801	24738.78
588.999	24992.73
589.196	24847.32
589.393	24726.49
589.59	24855.51
589.787	24591.33
589.984	24751.07
590.182	24529.89
590.379	24452.06
590.576	24447.97
590.773	24527.84
590.97	24126.44
591.167	24411.1
591.364	24259.56
591.561	24060.9
591.758	24128.49
591.955	24134.63
592.152	24218.6
592.349	24040.42
592.546	23817.19
592.743	23806.95
592.94	23067.64
593.137	23825.39
593.334	23663.6
593.531	23395.31
593.727	23204.85
593.924	23096.31
594.121	22916.09
594.318	23593.97
594.515	22952.95
594.712	23274.48
594.908	22840.31
595.105	22770.68
595.302	22737.91
595.499	23012.34
595.696	22670.33
595.892	22750.2
596.089	22873.08
596.286	22768.63
596.482	22692.86
596.679	22340.61
596.876	22443.01
597.072	22215.68
597.269	22451.2
597.466	22166.53
597.662	21888.01
597.859	22074.37
598.055	22072.32
598.252	21761.03
598.448	21914.63
598.645	21775.37
598.841	21380.11
599.038	21691.4
599.234	21668.87
599.431	20988.95
599.627	21324.82
599.824	21459.98
600.02	21083.16
600.217	21492.75
600.413	21314.58
600.609	21050.39
600.806	21091.35
601.002	21007.38
601.198	20775.96
601.395	20747.29
601.591	20759.58
601.787	20861.97
601.984	20472.86
602.18	20712.47
602.376	20636.7
602.572	20489.24
602.769	20407.33
602.965	20220.96
603.161	20282.4
603.357	20110.37
603.553	20270.11
603.75	19924.01
603.946	19944.48
604.142	20392.99
604.338	19924.01
604.534	19940.39
604.73	19713.06
604.926	19731.5
605.122	19692.58
605.318	19647.53
605.514	19809.32
605.71	19522.6
605.906	19944.48
606.102	19377.2
606.298	19432.49
606.494	19569.71
606.69	19381.29
606.886	19303.47
607.082	19096.63
607.278	19407.92
607.474	19033.14
607.67	19266.61
607.866	18951.22
608.062	19022.9
608.257	19047.47
608.453	19072.05
608.649	19049.52
608.845	18539.58
609.041	18699.32
609.236	19041.33
609.432	18482.24
609.628	18648.12
609.824	18549.82
610.019	18877.49
610.215	18613.31
610.411	18787.38
610.606	18318.4
610.802	18502.72
610.998	18383.93
611.193	18646.07
611.389	18172.99
611.584	18336.83
611.78	18000.96
611.976	18089.03
612.171	18328.64
612.367	17994.82
612.562	17882.18
612.758	17931.33
612.953	17728.58
613.149	18136.13
613.344	17830.98
613.539	18230.34
613.735	17927.24
613.93	17728.58
614.126	17644.62
614.321	17931.33
614.517	17566.79
614.712	17658.95
614.907	17529.93
615.103	17699.91
615.298	17511.5
615.493	17615.94
615.688	17294.41
615.884	17687.62
616.079	17327.18
616.274	17548.36
616.47	17331.28
616.665	17097.81
616.86	17478.73
617.055	17206.35
617.25	17171.54
617.445	17433.68
617.641	16993.36
617.836	17218.64
618.031	16776.28
618.226	16909.4
618.421	16917.59
618.616	16882.77
618.811	16780.37
619.006	17007.7
619.201	16747.61
619.396	16667.73
619.591	16237.66
619.786	16688.21
619.981	16286.81
620.176	16548.95
620.371	16122.98
620.566	16344.16
620.761	16125.02
620.956	16282.72
621.151	15768.68
621.346	16174.17
621.541	15869.03
621.735	15934.56
621.93	15422.57
622.125	15832.16
622.32	15623.27
622.515	15557.74
622.709	15377.51
622.904	15469.67
623.099	15207.53
623.294	15238.25
623.488	15230.06
623.683	14904.43
623.878	14730.36
624.072	15017.07
624.267	14799.99
624.462	14630.01
624.656	14517.37
624.851	14822.52
625.046	14681.21
625.24	14498.94
625.435	14447.74
625.629	14429.31
625.824	14349.43
626.018	14060.67
626.213	14021.76
626.407	14142.59
626.602	13747.33
626.796	13864.07
626.991	13993.09
627.185	13630.6
627.38	13640.84
627.574	13708.42
627.768	13462.66
627.963	13323.4
628.157	13321.35
628.352	13380.75
628.546	13231.24
628.74	13241.48
628.935	13038.73
629.129	13270.15
629.323	12807.31
629.517	12778.64
629.712	12721.3
629.906	12553.37
630.1	12620.95
630.294	12702.87
630.489	12559.51
630.683	12674.2
630.877	12305.56
631.071	12287.13
631.265	12258.46
631.459	12309.66
631.653	12248.22
631.848	12076.19
632.042	12100.76
632.236	11795.62
632.43	11801.76
632.624	11887.78
632.818	11652.26
633.012	11642.02
633.206	11652.26
633.4	11594.92
633.594	11553.96
633.788	11584.68
633.982	11340.97
634.176	11449.51
634.369	11437.22
634.563	11302.06
634.757	11285.67
634.951	11127.98
635.145	11150.51
635.339	11084.97
635.533	10978.48
635.726	10921.13
635.92	10771.63
636.114	10837.17
636.308	10702
636.501	10679.47
636.695	10730.67
636.889	10663.09
637.083	10349.75
637.276	10439.86
637.47	10384.57
637.664	10335.42
637.857	10339.51
638.051	10425.53
638.244	10097.85
638.438	10396.85
638.632	10042.56
638.825	9999.55
639.019	9917.63
639.212	9811.14
639.406	9991.36
639.599	9614.53
639.793	10034.36
639.986	9702.59
640.18	9669.83
640.373	9628.87
640.567	9450.69
640.76	9790.66
640.954	9536.71
641.147	9469.12
641.34	9430.21
641.534	9448.65
641.727	9249.99
641.92	9096.39
642.114	9168.07
642.307	9166.03
642.5	9172.17
642.694	9051.34
642.887	8973.52
643.08	8889.55
643.273	8828.11
643.467	8738
643.66	8727.76
643.853	8707.28
644.046	8563.92
644.239	8512.72
644.432	8500.44
644.626	8522.96
644.819	8742.1
645.012	8393.94
645.205	8516.82
645.398	8293.59
645.591	8328.41
645.784	8281.3
645.977	8217.82
646.17	8418.52
646.363	8062.17
646.556	8213.72
646.749	8115.42
646.942	8082.65
647.135	7849.18
647.328	8053.98
647.521	8002.78
647.714	7679.2
647.907	7810.27
648.099	7800.03
648.292	7775.45
648.485	7851.23
648.678	7607.52
648.871	7562.47
649.064	7648.48
649.256	7462.12
649.449	7587.04
649.642	7429.35
649.835	7419.11
650.027	7466.21
650.22	7386.34
650.413	7392.48
650.605	7242.98
650.798	7111.91
650.991	7275.75
651.183	7206.12
651.376	7255.27
651.568	7034.09
651.761	7021.8
651.954	7070.95
652.146	6866.16
652.339	6946.03
652.531	7060.71
652.724	6933.74
652.916	6692.08
653.109	6747.37
653.301	6837.48
653.494	6896.88
653.686	6677.74
653.879	6679.79
654.071	6587.63
654.263	6679.79
654.456	6458.61
654.648	6620.4
654.84	6538.48
655.033	6679.79
655.225	6444.27
655.417	6356.21
655.61	6366.45
655.802	6382.84
655.994	6362.36
656.186	6505.71
656.379	6194.42
656.571	6194.42
656.763	6247.67
656.955	6188.28
657.148	6112.5
657.34	6059.26
657.532	5975.29
657.724	5919.99
657.916	5983.48
658.108	6034.68
658.3	6059.26
658.492	6026.49
658.684	5870.84
658.876	5883.13
659.068	5879.04
659.26	5752.06
659.452	5764.35
659.644	5823.74
659.836	5764.35
660.028	5809.4
660.22	5725.44
660.412	5518.59
660.604	5432.58
660.796	5506.31
660.988	5442.82
661.18	5459.2
661.372	5408
661.563	5518.59
661.755	5367.04
661.947	5475.59
662.139	5399.81
662.331	5465.35
662.522	5244.17
662.714	5383.43
662.906	5180.68
663.097	5297.41
663.289	5260.55
663.481	5342.47
663.673	5207.3
663.864	5090.57
664.056	5147.91
664.247	5205.25
664.439	5033.22
664.631	5094.66
664.822	5047.56
665.014	5100.81
665.205	5047.56
665.397	4926.73
665.588	4969.74
665.78	4965.64
665.971	4875.53
666.163	4918.54
666.354	4803.85
666.546	4691.21
666.737	4769.04
666.929	4875.53
667.12	4621.58
667.311	4789.52
667.503	4678.93
667.694	4683.02
667.885	4695.31
668.077	4709.65
668.268	4721.93
668.459	4590.86
668.651	4656.4
668.842	4572.43
669.033	4558.1
669.224	4687.12
669.416	4504.85
669.607	4510.99
669.798	4535.57
669.989	4418.83
670.18	4320.53
670.371	4375.83
670.563	4486.42
670.754	4414.74
670.945	4558.1
671.136	4504.85
671.327	4388.11
671.518	4384.02
671.709	4375.83
671.9	4367.63
672.091	4257.04
672.282	4353.3
672.473	4263.19
672.664	4361.49
672.855	4271.38
673.046	4246.8
673.237	4113.69
673.428	4203.8
673.619	4191.51
673.809	4189.46
674	4101.4
674.191	4281.62
674.382	4064.54
674.573	4185.37
674.764	4255
674.954	4168.98
675.145	4148.5
675.336	4078.87
675.527	4074.78
675.717	4072.73
675.908	4095.25
676.099	3978.52
676.289	3935.51
676.48	4025.62
676.671	3962.14
676.861	4048.15
677.052	3951.9
677.243	3845.4
677.433	3958.04
677.624	3941.66
677.814	4005.14
678.005	3896.6
678.195	3798.3
678.386	3970.33
678.576	3831.07
678.767	3831.07
678.957	3945.75
679.148	4019.48
679.338	3783.96
679.529	3769.63
679.719	3837.21
679.909	4025.62
680.1	3810.59
680.29	3929.37
680.481	3708.19
680.671	3761.44
680.861	3818.78
681.052	3757.34
681.242	3745.05
681.432	3820.83
681.622	3861.79
681.813	3681.57
682.003	3806.49
682.193	3792.16
682.383	3859.74
682.573	3650.85
682.764	3767.58
682.954	3812.64
683.144	3859.74
683.334	3695.9
683.524	3704.09
683.714	3810.59
683.904	3605.79
684.094	3659.04
684.284	3644.7
684.474	3755.29
684.664	3689.76
684.854	3763.48
685.044	3591.45
685.234	3659.04
685.424	3704.09
685.614	3532.06
685.804	3630.37
685.994	3611.93
686.184	3654.94
686.374	3609.89
686.564	3630.37
686.753	3624.22
686.943	3433.76
687.133	3345.7
687.323	3460.38
687.513	3544.35
687.702	3351.84
687.892	3441.95
688.082	3474.72
688.272	3351.84
688.461	3339.55
688.651	3433.76
688.841	3446.05
689.03	3304.74
689.22	3437.86
689.41	3474.72
689.599	3327.27
689.789	3247.4
689.979	3388.71
690.168	3302.69
690.358	3237.16
690.547	3212.58
690.737	3306.79
690.926	3339.55
691.116	3073.32
691.305	3235.11
691.495	3161.38
691.684	3093.8
691.874	3253.54
692.063	3130.66
692.252	3192.1
692.442	3048.74
692.631	3054.89
692.82	3099.94
693.01	3058.98
693.199	3069.22
693.388	3044.65
693.578	2987.3
693.767	3114.28
693.956	2952.49
694.146	3038.5
694.335	3020.07
694.524	2960.68
694.713	3028.26
694.902	2952.49
695.092	2983.21
695.281	2843.95
695.47	2936.1
695.659	3061.03
695.848	2936.1
696.037	2966.82
696.226	2970.92
696.415	2919.72
696.604	2872.62
696.793	2819.37
696.982	2919.72
697.171	2919.72
697.36	2811.18
697.549	2770.22
697.738	2753.84
697.927	2909.48
698.116	2817.32
698.305	2827.56
698.494	2819.37
698.683	2819.37
698.872	2700.59
699.061	2811.18
699.25	2739.5
699.438	2827.56
699.627	2737.45
699.816	2794.79
700.005	2778.41
700.193	2839.85
700.382	2768.17
700.571	2737.45
700.76	2893.1
700.948	2837.8
701.137	2860.33
701.326	2790.7
701.514	2786.6
701.703	2708.78
701.892	2843.95
702.08	2735.4
702.269	2673.96
702.457	2733.36
702.646	2682.16
702.834	2696.49
703.023	2673.96
703.212	2747.69
703.4	2682.16
703.589	2536.75
703.777	2716.97
703.965	2729.26
704.154	2690.35
704.342	2696.49
704.531	2626.86
704.719	2559.28
704.907	2700.59
705.096	2555.18
705.284	2680.11
705.472	2647.34
705.661	2657.58
705.849	2729.26
706.037	2604.33
706.226	2598.19
706.414	2639.15
706.602	2538.8
706.79	2688.3
706.979	2669.87
707.167	2573.61
707.355	2671.92
707.543	2600.24
707.731	2630.96
707.919	2651.44
708.107	2696.49
708.296	2628.91
708.484	2585.9
708.672	2561.33
708.86	2587.95
709.048	2538.8
709.236	2639.15
709.424	2684.2
709.612	2569.52
709.8	2590
709.988	2600.24
710.176	2532.65
710.364	2571.57
710.551	2493.74
710.739	2483.5
710.927	2506.03
711.115	2434.35
711.303	2626.86
711.491	2649.39
711.679	2415.92
711.866	2567.47
712.054	2518.32
712.242	2514.22
712.43	2481.46
712.617	2467.12
712.805	2520.37
712.993	2546.99
713.181	2424.11
713.368	2506.03
713.556	2571.57
713.744	2473.26
713.931	2596.14
714.119	2479.41
714.306	2585.9
714.494	2489.65
714.682	2508.08
714.869	2506.03
715.057	2573.61
715.244	2446.64
715.432	2528.56
715.619	2460.98
715.807	2518.32
715.994	2409.78
716.182	2422.06
716.369	2458.93
716.556	2420.02
716.744	2352.43
716.931	2422.06
717.119	2417.97
717.306	2557.23
717.493	2397.49
717.681	2450.74
717.868	2481.46
718.055	2368.82
718.242	2430.26
718.43	2430.26
718.617	2417.97
718.804	2469.17
718.991	2442.54
719.179	2475.31
719.366	2385.2
719.553	2487.6
719.74	2442.54
719.927	2311.47
720.114	2409.78
720.301	2374.96
720.488	2346.29
720.676	2348.34
720.863	2385.2
721.05	2483.5
721.237	2450.74
721.424	2360.63
721.611	2377.01
721.798	2280.75
721.985	2417.97
722.172	2231.6
722.358	2311.47
722.545	2444.59
722.732	2315.57
722.919	2387.25
723.106	2393.39
723.293	2389.3
723.48	2327.86
723.667	2299.19
723.853	2409.78
724.04	2401.58
724.227	2440.5
724.414	2270.51
724.6	2323.76
724.787	2385.2
724.974	2360.63
725.161	2342.19
725.347	2266.42
725.534	2354.48
725.72	2313.52
725.907	2307.38
726.094	2215.22
726.28	2211.12
726.467	2340.15
726.653	2295.09
726.84	2286.9
727.027	2354.48
727.213	2254.13
727.4	2295.09
727.586	2274.61
727.773	2321.71
727.959	2352.43
728.145	2323.76
728.332	2295.09
728.518	2247.99
728.705	2354.48
728.891	2166.07
729.077	2286.9
729.264	2350.39
729.45	2176.31
729.636	2350.39
729.823	2301.23
730.009	2362.67
730.195	2377.01
730.382	2204.98
730.568	2352.43
730.754	2372.91
730.94	2284.85
731.126	2366.77
731.313	2266.42
731.499	2323.76
731.685	2217.27
731.871	2264.37
732.057	2368.82
732.243	2256.18
732.429	2362.67
732.615	2319.67
732.801	2252.08
732.987	2250.04
733.173	2274.61
733.359	2297.14
733.545	2211.12
733.731	2250.04
733.917	2192.69
734.103	2311.47
734.289	2188.6
734.475	2155.83
734.661	2336.05
734.847	2229.56
735.033	2190.64
735.219	2204.98
735.404	2266.42
735.59	2155.83
735.776	2237.75
735.962	2293.04
736.148	2303.28
736.333	2256.18
736.519	2153.78
736.705	2223.41
736.89	2225.46
737.076	2151.73
737.262	2157.88
737.447	2241.84
737.633	2272.56
737.819	2207.03
738.004	2225.46
738.19	2241.84
738.375	2166.07
738.561	2121.01
738.747	2209.08
738.932	2116.92
739.118	2164.02
739.303	2035
739.489	2108.73
739.674	2065.72
739.859	2221.36
740.045	2182.45
740.23	2067.77
740.416	2078.01
740.601	2225.46
740.786	2010.42
740.972	2149.68
741.157	2078.01
741.342	2016.57
741.528	2094.39
741.713	2075.96
741.898	1971.51
742.084	2030.9
742.269	2030.9
742.454	2098.49
742.639	2071.86
742.824	1955.13
743.01	2164.02
743.195	2014.52
743.38	1916.22
743.565	1994.04
743.75	2069.81
743.935	1865.02
744.12	1879.35
744.305	2030.9
744.49	1936.7
744.675	1965.37
744.86	1832.25
745.045	1799.48
745.23	1828.15
745.415	1889.59
745.6	1877.3
745.785	1860.92
745.97	1944.89
746.155	1838.39
746.34	1869.11
746.525	1787.19
746.71	1867.06
746.895	1746.23
747.079	1797.43
747.264	1787.19
747.449	1770.81
747.634	1819.96
747.819	1858.87
748.003	1690.94
748.188	1830.2
748.373	1828.15
748.557	1664.32
748.742	1725.76
748.927	1672.51
749.111	1705.28
749.296	1744.19
749.481	1643.84
749.665	1625.4
749.85	1658.17
750.034	1690.94
750.219	1580.35
750.404	1574.21
750.588	1692.99
750.773	1494.33
750.957	1553.73
751.141	1570.11
751.326	1533.25
751.51	1480
751.695	1623.36
751.879	1502.53
752.064	1594.68
752.248	1500.48
752.432	1549.63
752.617	1443.14
752.801	1494.33
752.985	1434.94
753.17	1492.29
753.354	1422.66
753.538	1508.67
753.722	1465.66
753.907	1340.74
754.091	1234.24
754.275	1486.14
754.459	1381.7
754.643	1238.34
754.828	1359.17
755.012	1365.31
755.196	1353.02
755.38	1451.33
755.564	1250.63
755.748	1377.6
755.932	1320.26
756.116	1254.72
756.3	1275.2
756.484	1217.86
756.668	1283.39
756.852	1148.23
757.036	1262.91
757.22	1244.48
757.404	1230.15
757.588	1207.62
757.772	1185.09
757.956	1242.43
758.14	1140.04
758.323	1189.19
758.507	1127.75
758.691	1140.04
758.875	1189.19
759.059	1183.04
759.242	1162.56
759.426	1049.93
759.61	1156.42
759.794	1008.97
759.977	1131.84
760.161	1158.47
760.345	1127.75
760.528	1088.84
760.712	1127.75
760.895	1045.83
761.079	1049.93
761.263	1133.89
761.446	1160.52
761.63	1082.69
761.813	1049.93
761.997	927.05
762.18	1021.25
762.364	1013.06
762.547	1035.59
762.731	943.43
762.914	1029.45
763.098	986.44
763.281	939.34
763.464	902.47
763.648	1086.79
763.831	992.58
764.015	970.05
764.198	935.24
764.381	931.14
764.564	951.62
764.748	986.44
764.931	986.44
765.114	976.2
765.297	943.43
765.481	861.51
765.664	935.24
765.847	888.14
766.03	918.86
766.213	898.38
766.397	927.05
766.58	908.62
766.763	900.42
766.946	935.24
767.129	869.7
767.312	888.14
767.495	845.13
767.678	871.75
767.861	861.51
768.044	912.71
768.227	849.22
768.41	838.98
768.593	800.07
768.776	931.14
768.959	773.45
769.142	881.99
769.324	873.8
769.507	820.55
769.69	861.51
769.873	992.58
770.056	855.37
770.239	767.31
770.421	810.31
770.604	812.36
770.787	863.56
770.97	845.13
771.152	730.44
771.335	763.21
771.518	730.44
771.7	798.03
771.883	810.31
772.066	822.6
772.248	722.25
772.431	746.83
772.613	830.79
772.796	691.53
772.978	691.53
773.161	791.88
773.343	673.1
773.526	736.59
773.708	669
773.891	683.34
774.073	740.68
774.256	664.91
774.438	771.4
774.621	642.38
774.803	669
774.985	593.23
775.168	732.49
775.35	576.84
775.532	742.73
775.715	707.91
775.897	685.39
776.079	636.24
776.261	607.56
776.444	609.61
776.626	666.96
776.808	632.14
776.99	605.52
777.173	640.33
777.355	623.95
777.537	720.2
777.719	578.89
777.901	591.18
778.083	564.56
778.265	539.98
778.447	632.14
778.629	619.85
778.811	554.32
778.993	552.27
779.175	585.04
779.357	503.12
779.539	566.6
779.721	552.27
779.903	548.17
780.085	476.49
780.267	591.18
780.449	529.74
780.631	634.19
780.812	501.07
780.994	513.36
781.176	513.36
781.358	521.55
781.54	484.69
781.721	521.55
781.903	509.26
782.085	503.12
782.267	507.21
782.448	415.06
782.63	542.03
782.812	388.43
782.993	396.62
783.175	501.07
783.357	509.26
783.538	488.78
783.72	535.89
783.901	419.15
784.083	542.03
784.264	484.69
784.446	439.63
784.627	423.25
784.809	396.62
784.99	492.88
785.172	361.81
785.353	396.62
785.535	378.19
785.716	435.53
785.897	345.42
786.079	421.2
786.26	394.58
786.441	365.9
786.623	441.68
786.804	333.14
786.985	470.35
787.167	419.15
787.348	337.23
787.529	402.77
787.71	427.34
787.891	370
788.073	355.66
788.254	320.85
788.435	423.25
788.616	419.15
788.797	374.1
788.978	353.62
789.159	365.9
789.34	347.47
789.522	316.75
789.703	296.27
789.884	306.51
790.065	370
790.246	312.66
790.427	353.62
790.607	312.66
790.788	320.85
790.969	365.9
791.15	329.04
791.331	337.23
791.512	312.66
791.693	296.27
791.874	255.31
792.054	386.38
792.235	386.38
792.416	296.27
792.597	263.51
792.778	300.37
792.958	322.9
793.139	257.36
793.32	359.76
793.5	283.99
793.681	306.51
793.862	292.18
794.042	243.03
794.223	218.45
794.404	288.08
794.584	279.89
794.765	271.7
794.945	212.31
795.126	357.71
795.306	218.45
795.487	245.07
795.667	322.9
795.848	245.07
796.028	259.41
796.209	279.89
796.389	234.83
796.57	308.56
796.75	255.31
796.93	306.51
797.111	157.01
797.291	243.03
797.471	279.89
797.652	257.36
797.832	253.27
798.012	200.02
798.192	283.99
798.373	210.26
798.553	216.4
798.733	134.48
798.913	216.4
799.093	243.03
799.274	247.12
799.454	222.55
799.634	187.73
799.814	304.46
799.994	245.07
800.174	269.65
800.354	210.26
800.534	173.39
800.714	247.12
800.894	222.55
801.074	292.18
801.254	255.31
801.434	240.98
801.614	234.83
801.794	124.24
801.974	777.55
802.154	263.51
802.334	226.64
802.514	183.63
802.693	134.48
802.873	206.16
803.053	236.88
803.233	253.27
803.413	183.63
803.592	189.78
803.772	200.02
803.952	218.45
804.131	173.39
804.311	218.45
804.491	208.21
804.67	220.5
804.85	206.16
805.03	292.18
805.209	157.01
805.389	238.93
805.568	152.92
805.748	177.49
805.928	177.49
806.107	163.15
806.287	230.74
806.466	111.96
806.646	212.31
806.825	173.39
807.004	247.12
807.184	261.46
807.363	138.58
807.543	187.73
807.722	118.1
807.901	240.98
808.081	144.72
808.26	208.21
808.439	181.59
808.619	167.25
808.798	206.16
808.977	118.1
809.156	191.83
809.336	148.82
809.515	175.44
809.694	124.24
809.873	103.76
810.052	206.16
810.231	271.7
810.411	191.83
810.59	191.83
810.769	116.05
810.948	144.72
811.127	103.76
811.306	107.86
811.485	146.77
811.664	183.63
811.843	54.61
812.022	157.01
812.201	146.77
812.38	134.48
812.559	87.38
812.737	146.77
812.916	85.33
813.095	152.92
813.274	134.48
813.453	116.05
813.632	189.78
813.811	214.35
813.989	175.44
814.168	132.44
814.347	87.38
814.526	140.63
814.704	173.39
814.883	148.82
815.062	99.67
815.24	95.57
815.419	46.42
815.598	140.63
815.776	118.1
815.955	36.18
816.133	99.67
816.312	116.05
816.49	111.96
816.669	148.82
816.847	83.28
817.026	220.5
817.204	165.2
817.383	109.91
817.561	68.95
817.74	142.68
817.918	97.62
818.097	107.86
818.275	116.05
818.453	91.48
818.632	68.95
818.81	34.13
818.988	97.62
819.167	95.57
819.345	128.34
819.523	91.48
819.701	138.58
819.879	60.76
820.058	152.92
820.236	109.91
820.414	120.15
820.592	11.61
820.77	93.52
820.948	140.63
821.127	95.57
821.305	60.76
821.483	116.05
821.661	85.33
821.839	50.52
822.017	142.68
822.195	46.42
822.373	195.92
822.551	54.61
822.729	54.61
822.907	138.58
823.085	68.95
823.262	165.2
823.44	114
823.618	97.62
823.796	66.9
823.974	58.71
824.152	77.14
824.329	126.29
824.507	50.52
824.685	89.43
824.863	148.82
825.04	148.82
825.218	103.76
825.396	128.34
825.574	83.28
825.751	97.62
825.929	83.28
826.107	103.76
826.284	19.8
826.462	87.38
826.639	38.23
826.817	58.71
826.994	118.1
827.172	134.48
827.349	161.11
827.527	11.61
827.704	83.28
827.882	62.8
828.059	66.9
828.237	66.9
828.414	83.28
828.591	93.52
828.769	132.44
828.946	9.56
829.124	109.91
829.301	120.15
829.478	79.19
829.655	85.33
829.833	68.95
830.01	11.61
830.187	114
830.364	89.43
830.542	79.19
830.719	187.73
830.896	124.24
831.073	107.86
831.25	91.48
831.427	40.28
831.604	46.42
831.782	11.61
831.959	114
832.136	157.01
832.313	68.95
832.49	-17.07
832.667	93.52
832.844	1.37
833.021	134.48
833.198	83.28
833.374	85.33
833.551	62.8
833.728	68.95
833.905	95.57
834.082	21.85
834.259	17.75
834.436	111.96
834.612	36.18
834.789	124.24
834.966	25.94
835.143	25.94
835.319	75.09
835.496	9.56
835.673	91.48
835.85	130.39
836.026	21.85
836.203	75.09
836.38	42.32
836.556	60.76
836.733	3.41
836.909	91.48
837.086	34.13
837.262	42.32
837.439	99.67
837.616	34.13
837.792	52.56
837.968	44.37
838.145	30.04
838.321	85.33
838.498	148.82
838.674	107.86
838.851	124.24
839.027	111.96
839.203	-10.92
839.38	42.32
839.556	36.18
839.732	126.29
839.909	93.52
840.085	38.23
840.261	77.14
840.437	34.13
840.614	-6.83
840.79	60.76
840.966	9.56
841.142	138.58
841.318	38.23
841.494	79.19
841.671	46.42
841.847	114
842.023	-0.68
842.199	73.04
842.375	73.04
842.551	-70.31
842.727	-15.02
842.903	40.28
843.079	3.41
843.255	93.52
843.431	81.24
843.607	60.76
843.783	1.37
843.959	13.65
844.134	68.95
844.31	46.42
844.486	19.8
844.662	27.99
844.838	-23.21
845.013	87.38
845.189	32.08
845.365	81.24
845.541	-19.11
845.716	75.09
845.892	75.09
846.068	19.8
846.244	-15.02
846.419	23.89
846.595	111.96
846.77	60.76
846.946	-12.97
847.122	36.18
847.297	-31.4
847.473	23.89
847.648	-19.11
847.824	46.42
847.999	-31.4
848.175	27.99
848.35	89.43
848.526	56.66
848.701	-23.21
848.876	30.04
849.052	25.94
849.227	71
849.403	75.09
849.578	58.71
849.753	60.76
849.929	7.51
850.104	-47.79
850.279	36.18
850.454	58.71
850.63	64.85
850.805	54.61
850.98	38.23
851.155	-6.83
851.33	46.42
851.505	11.61
851.681	44.37
851.856	-23.21
852.031	32.08
852.206	19.8
852.381	-17.07
852.556	23.89
852.731	56.66
852.906	60.76
853.081	71
853.256	77.14
853.431	21.85
853.606	44.37
853.781	32.08
853.956	-31.4
854.131	-29.35
854.305	3.41
854.48	-6.83
854.655	1.37
854.83	40.28
855.005	17.75
855.18	19.8
855.354	-15.02
855.529	9.56
855.704	50.52
855.879	99.67
856.053	46.42
856.228	-17.07
856.403	25.94
856.577	32.08
856.752	7.51
856.926	38.23
857.101	-4.78
857.276	17.75
857.45	42.32
857.625	103.76
857.799	54.61
857.974	13.65
858.148	-88.75
858.323	50.52
858.497	-10.92
858.672	-31.4
858.846	1.37
859.02	116.05
859.195	-23.21
859.369	50.52
859.543	17.75
859.718	66.9
859.892	48.47
860.066	30.04
860.241	9.56
860.415	36.18
860.589	1.37
860.763	-0.68
860.938	62.8
861.112	73.04
861.286	-2.73
861.46	60.76
861.634	30.04
861.808	62.8
861.982	9.56
862.157	-47.79
862.331	52.56
862.505	-6.83
862.679	-29.35
862.853	34.13
863.027	-45.74
863.201	56.66
863.375	-15.02
863.549	58.71
863.722	-0.68
863.896	17.75
864.07	-2.73
864.244	34.13
864.418	30.04
864.592	64.85
864.766	32.08
864.939	-17.07
865.113	5.46
865.287	-19.11
865.461	-6.83
865.634	60.76
865.808	44.37
865.982	25.94
866.156	21.85
866.329	17.75
866.503	32.08
866.676	7.51
866.85	15.7
867.024	11.61
867.197	36.18
867.371	75.09
867.544	44.37
867.718	-15.02
867.891	-12.97
868.065	62.8
868.238	30.04
868.412	75.09
868.585	44.37
868.759	-6.83
868.932	-19.11
869.105	17.75
869.279	34.13
869.452	34.13
869.625	-49.83
869.799	-2.73
869.972	-70.31
870.145	-12.97
870.319	34.13
870.492	-10.92
870.665	48.47
870.838	-43.69
871.011	-84.65
871.185	25.94
871.358	-98.99
871.531	-15.02
871.704	-31.4
871.877	-12.97
872.05	-4.78
872.223	-2.73
872.396	-39.59
872.569	68.95
872.742	-15.02
872.915	-8.87
873.088	-27.31
873.261	27.99
873.434	23.89
873.607	34.13
873.78	21.85
873.953	13.65
874.126	58.71
874.299	-19.11
874.471	-80.55
874.644	-19.11
874.817	71
874.99	95.57
875.163	17.75
875.335	50.52
875.508	9.56
875.681	-47.79
875.853	38.23
876.026	-39.59
876.199	-23.21
876.371	11.61
876.544	-6.83
876.717	30.04
876.889	-39.59
877.062	107.86
877.234	-39.59
877.407	-29.35
877.579	-72.36
877.752	30.04
877.924	-10.92
878.097	9.56
878.269	34.13
878.442	58.71
878.614	27.99
878.786	13.65
878.959	-23.21
879.131	-47.79
879.303	-76.46
879.476	-4.78
879.648	50.52
879.82	13.65
879.993	-62.12
880.165	-15.02
880.337	-19.11
880.509	-4.78
880.681	9.56
880.854	-55.98
881.026	9.56
881.198	-31.4
881.37	-23.21
881.542	58.71
881.714	107.86
881.886	42.32
882.058	46.42
882.23	85.33
882.402	25.94
882.574	-10.92
882.746	79.19
882.918	79.19
883.09	3.41
883.262	60.76
883.434	-23.21
883.606	17.75
883.778	-72.36
883.95	48.47
884.122	-47.79
884.293	13.65
884.465	52.56
884.637	66.9
884.809	-4.78
884.98	-27.31
885.152	-35.5
885.324	52.56
885.496	-4.78
885.667	3.41
885.839	3.41
886.011	48.47
886.182	-47.79
886.354	19.8
886.525	-47.79
886.697	-31.4
886.869	-31.4
887.04	-45.74
887.212	11.61
887.383	3.41
887.555	-17.07
887.726	27.99
887.897	40.28
888.069	-2.73
888.24	91.48
888.412	85.33
888.583	9.56
888.754	-29.35
888.926	-27.31
889.097	-39.59
889.268	3.41
889.44	25.94
889.611	-12.97
889.782	11.61
889.953	-25.26
890.125	42.32
890.296	1.37
890.467	-37.55
890.638	-8.87
890.809	-41.64
890.98	42.32
891.151	68.95
891.323	-17.07
891.494	-25.26
891.665	34.13
891.836	-23.21
892.007	5.46
892.178	5.46
892.349	54.61
892.52	25.94
892.691	34.13
892.862	-17.07
893.032	25.94
893.203	25.94
893.374	73.04
893.545	-0.68
893.716	-47.79
893.887	58.71
894.057	-31.4
894.228	25.94
894.399	-12.97
894.57	75.09
894.74	-47.79
894.911	-47.79
895.082	-25.26
895.253	-15.02
895.423	36.18
895.594	42.32
895.764	17.75
895.935	-37.55
896.106	1.37
896.276	50.52
896.447	42.32
896.617	3.41
896.788	-60.07
896.958	-80.55
897.129	25.94
897.299	-55.98
897.47	42.32
897.64	15.7
897.81	-27.31
897.981	1.37
898.151	-78.51
898.322	-6.83
898.492	-43.69
898.662	-10.92
898.832	-17.07
899.003	-23.21
899.173	81.24
899.343	-23.21
899.513	-23.21
