Data from USB4F104151__195__14-20-25-708.txt Node

Date: Thu Mar 13 14:20:25 EDT 2025
User: louis
Spectrometer: USB4F10415
Trigger mode: 4
Integration Time (sec): 2.000000E-2
Scans to average: 1
Electric dark correction enabled: true
Nonlinearity correction enabled: false
Boxcar width: 0
XAxis mode: Wavelengths
Number of Pixels in Spectrum: 3648
>>>>>Begin Spectral Data<<<<<
178.204	-105.3
178.424	-105.3
178.644	-105.3
178.864	-80.72
179.084	-133.97
179.304	13.48
179.524	-7
179.744	-23.38
179.964	-13.14
180.184	83.11
180.404	-2.9
180.624	21.67
180.844	1.19
181.064	-13.14
181.283	3.24
181.503	-113.49
181.723	50.35
181.943	-72.53
182.163	44.2
182.383	-76.63
182.602	36.01
182.822	42.15
183.042	-15.19
183.262	-43.86
183.482	-23.38
183.701	-29.52
183.921	-15.19
184.141	-11.09
184.361	27.82
184.58	-17.24
184.8	-2.9
185.02	29.87
185.239	31.91
185.459	60.59
185.679	42.15
185.898	-21.33
186.118	44.2
186.338	-0.85
186.557	89.26
186.777	-11.09
186.997	3.24
187.216	-9.05
187.436	99.5
187.655	42.15
187.875	-23.38
188.095	33.96
188.314	17.58
188.534	9.39
188.753	-72.53
188.973	76.97
189.192	36.01
189.412	42.15
189.631	66.73
189.851	21.67
190.07	66.73
190.29	44.2
190.509	17.58
190.729	1.19
190.948	107.69
191.168	111.78
191.387	23.72
191.607	-66.39
191.826	1.19
192.045	-70.48
192.265	-7
192.484	79.02
192.704	-19.29
192.923	15.53
193.142	117.93
193.362	25.77
193.581	33.96
193.8	9.39
194.02	42.15
194.239	25.77
194.458	13.48
194.678	-31.57
194.897	29.87
195.116	33.96
195.335	1.19
195.555	17.58
195.774	-64.34
195.993	29.87
196.212	3.24
196.432	-45.91
196.651	54.44
196.87	-2.9
197.089	58.54
197.308	-4.95
197.528	-7
197.747	-4.95
197.966	83.11
198.185	11.43
198.404	60.59
198.623	60.59
198.842	44.2
199.062	25.77
199.281	5.29
199.5	-25.43
199.719	68.78
199.938	42.15
200.157	29.87
200.376	-27.48
200.595	42.15
200.814	3.24
201.033	-13.14
201.252	46.25
201.471	46.25
201.69	-0.85
201.909	-7
202.128	42.15
202.347	66.73
202.566	42.15
202.785	1.19
203.004	17.58
203.223	107.69
203.442	-7
203.661	1.19
203.879	-7
204.098	44.2
204.317	-29.52
204.536	83.11
204.755	11.43
204.974	50.35
205.193	54.44
205.411	31.91
205.63	31.91
205.849	-29.52
206.068	5.29
206.287	58.54
206.505	36.01
206.724	-23.38
206.943	25.77
207.162	3.24
207.381	93.35
207.599	-33.62
207.818	58.54
208.037	60.59
208.255	31.91
208.474	21.67
208.693	-13.14
208.911	58.54
209.13	-7
209.349	-7
209.567	50.35
209.786	95.4
210.005	36.01
210.223	-15.19
210.442	-60.24
210.661	19.63
210.879	31.91
211.098	25.77
211.316	76.97
211.535	25.77
211.753	9.39
211.972	38.06
212.191	-88.92
212.409	42.15
212.628	46.25
212.846	52.39
213.065	25.77
213.283	68.78
213.502	-60.24
213.72	62.63
213.938	56.49
214.157	1.19
214.375	66.73
214.594	36.01
214.812	42.15
215.031	52.39
215.249	83.11
215.467	9.39
215.686	17.58
215.904	5.29
216.122	13.48
216.341	38.06
216.559	50.35
216.778	38.06
216.996	19.63
217.214	38.06
217.432	-68.44
217.651	13.48
217.869	3.24
218.087	21.67
218.306	17.58
218.524	46.25
218.742	17.58
218.96	44.2
219.179	-35.67
219.397	-45.91
219.615	72.87
219.833	-72.53
220.051	1.19
220.27	76.97
220.488	52.39
220.706	21.67
220.924	-2.9
221.142	-19.29
221.36	9.39
221.578	64.68
221.796	-25.43
222.015	33.96
222.233	62.63
222.451	11.43
222.669	-54.1
222.887	91.31
223.105	19.63
223.323	17.58
223.541	40.11
223.759	-7
223.977	13.48
224.195	54.44
224.413	74.92
224.631	19.63
224.849	1.19
225.067	99.5
225.285	25.77
225.503	23.72
225.721	-43.86
225.939	-19.29
226.157	44.2
226.375	101.55
226.592	-15.19
226.81	52.39
227.028	66.73
227.246	23.72
227.464	9.39
227.682	33.96
227.9	38.06
228.117	54.44
228.335	13.48
228.553	-2.9
228.771	9.39
228.989	42.15
229.206	-27.48
229.424	-19.29
229.642	5.29
229.86	46.25
230.077	105.64
230.295	-19.29
230.513	56.49
230.731	66.73
230.948	27.82
231.166	33.96
231.384	-13.14
231.601	-15.19
231.819	74.92
232.037	-23.38
232.254	-21.33
232.472	-4.95
232.689	-45.91
232.907	66.73
233.125	46.25
233.342	-31.57
233.56	83.11
233.777	9.39
233.995	9.39
234.213	76.97
234.43	93.35
234.648	21.67
234.865	25.77
235.083	-15.19
235.3	7.34
235.518	-39.76
235.735	119.98
235.953	33.96
236.17	25.77
236.388	5.29
236.605	54.44
236.822	-21.33
237.04	33.96
237.257	-4.95
237.475	1.19
237.692	97.45
237.909	89.26
238.127	11.43
238.344	33.96
238.562	5.29
238.779	17.58
238.996	-13.14
239.214	64.68
239.431	68.78
239.648	33.96
239.865	68.78
240.083	29.87
240.3	-0.85
240.517	13.48
240.735	42.15
240.952	74.92
241.169	101.55
241.386	3.24
241.603	-31.57
241.821	50.35
242.038	50.35
242.255	58.54
242.472	-23.38
242.689	44.2
242.907	-19.29
243.124	38.06
243.341	-27.48
243.558	-62.29
243.775	-15.19
243.992	-11.09
244.209	70.83
244.426	31.91
244.643	-11.09
244.86	3.24
245.078	68.78
245.295	13.48
245.512	-23.38
245.729	5.29
245.946	81.07
246.163	-19.29
246.38	68.78
246.597	7.34
246.814	31.91
247.031	38.06
247.248	-62.29
247.464	68.78
247.681	11.43
247.898	-56.15
248.115	17.58
248.332	-62.29
248.549	27.82
248.766	9.39
248.983	19.63
249.2	1.19
249.417	58.54
249.633	29.87
249.85	-21.33
250.067	-29.52
250.284	25.77
250.501	60.59
250.717	27.82
250.934	-64.34
251.151	44.2
251.368	-47.96
251.585	1.19
251.801	44.2
252.018	-95.06
252.235	19.63
252.451	5.29
252.668	58.54
252.885	58.54
253.102	-31.57
253.318	21.67
253.535	70.83
253.752	-31.57
253.968	46.25
254.185	-31.57
254.401	-29.52
254.618	-7
254.835	-0.85
255.051	40.11
255.268	91.31
255.484	33.96
255.701	89.26
255.917	74.92
256.134	-15.19
256.351	-23.38
256.567	-47.96
256.784	79.02
257	-7
257.217	42.15
257.433	21.67
257.65	42.15
257.866	48.3
258.082	11.43
258.299	25.77
258.515	17.58
258.732	72.87
258.948	-31.57
259.165	-60.24
259.381	21.67
259.597	-7
259.814	38.06
260.03	-4.95
260.246	-7
260.463	25.77
260.679	29.87
260.895	-9.05
261.112	-19.29
261.328	5.29
261.544	50.35
261.761	60.59
261.977	-7
262.193	-29.52
262.409	-11.09
262.626	9.39
262.842	44.2
263.058	-11.09
263.274	70.83
263.49	-56.15
263.707	3.24
263.923	-4.95
264.139	9.39
264.355	33.96
264.571	-2.9
264.787	52.39
265.004	1.19
265.22	42.15
265.436	68.78
265.652	62.63
265.868	17.58
266.084	-50
266.3	76.97
266.516	-11.09
266.732	50.35
266.948	-11.09
267.164	36.01
267.38	70.83
267.596	46.25
267.812	50.35
268.028	1.19
268.244	19.63
268.46	-15.19
268.676	54.44
268.892	29.87
269.108	-4.95
269.324	74.92
269.54	17.58
269.756	-70.48
269.972	15.53
270.188	25.77
270.403	17.58
270.619	-33.62
270.835	66.73
271.051	-39.76
271.267	-43.86
271.483	-2.9
271.698	70.83
271.914	36.01
272.13	-11.09
272.346	42.15
272.562	46.25
272.777	36.01
272.993	9.39
273.209	46.25
273.425	83.11
273.64	-27.48
273.856	17.58
274.072	-17.24
274.287	33.96
274.503	58.54
274.719	50.35
274.934	40.11
275.15	44.2
275.366	-31.57
275.581	-19.29
275.797	-23.38
276.012	-13.14
276.228	-23.38
276.444	-15.19
276.659	23.72
276.875	33.96
277.09	13.48
277.306	-27.48
277.521	33.96
277.737	-52.05
277.952	-31.57
278.168	36.01
278.383	74.92
278.599	60.59
278.814	54.44
279.03	-45.91
279.245	91.31
279.461	97.45
279.676	44.2
279.892	52.39
280.107	58.54
280.322	-23.38
280.538	81.07
280.753	48.3
280.969	95.4
281.184	25.77
281.399	66.73
281.615	-25.43
281.83	91.31
282.045	-13.14
282.26	27.82
282.476	-11.09
282.691	-29.52
282.906	48.3
283.122	66.73
283.337	-21.33
283.552	42.15
283.767	-13.14
283.983	99.5
284.198	-4.95
284.413	93.35
284.628	25.77
284.843	50.35
285.058	19.63
285.274	-52.05
285.489	1.19
285.704	44.2
285.919	50.35
286.134	40.11
286.349	1.19
286.564	44.2
286.779	74.92
286.995	62.63
287.21	48.3
287.425	38.06
287.64	66.73
287.855	85.16
288.07	-39.76
288.285	-9.05
288.5	-27.48
288.715	107.69
288.93	36.01
289.145	-19.29
289.36	21.67
289.575	15.53
289.79	42.15
290.004	50.35
290.219	19.63
290.434	21.67
290.649	9.39
290.864	1.19
291.079	36.01
291.294	15.53
291.509	-13.14
291.724	-15.19
291.938	25.77
292.153	46.25
292.368	-37.72
292.583	27.82
292.798	3.24
293.012	3.24
293.227	-17.24
293.442	-4.95
293.657	58.54
293.871	27.82
294.086	17.58
294.301	70.83
294.516	13.48
294.73	74.92
294.945	-37.72
295.16	15.53
295.374	1.19
295.589	101.55
295.804	-0.85
296.018	-54.1
296.233	93.35
296.447	56.49
296.662	-25.43
296.877	-7
297.091	50.35
297.306	17.58
297.52	-15.19
297.735	58.54
297.949	33.96
298.164	36.01
298.378	-27.48
298.593	-60.24
298.807	19.63
299.022	-15.19
299.236	132.26
299.451	-31.57
299.665	13.48
299.88	27.82
300.094	9.39
300.309	9.39
300.523	72.87
300.737	50.35
300.952	58.54
301.166	3.24
301.381	17.58
301.595	-27.48
301.809	11.43
302.024	36.01
302.238	31.91
302.452	9.39
302.667	25.77
302.881	58.54
303.095	21.67
303.309	72.87
303.524	1.19
303.738	25.77
303.952	60.59
304.166	33.96
304.381	-11.09
304.595	42.15
304.809	27.82
305.023	70.83
305.237	19.63
305.452	40.11
305.666	122.02
305.88	66.73
306.094	25.77
306.308	-64.34
306.522	58.54
306.736	33.96
306.95	-50
307.164	17.58
307.379	60.59
307.593	27.82
307.807	1.19
308.021	5.29
308.235	83.11
308.449	-9.05
308.663	58.54
308.877	91.31
309.091	-37.72
309.305	27.82
309.519	-11.09
309.733	109.74
309.947	5.29
310.161	52.39
310.374	17.58
310.588	-7
310.802	21.67
311.016	-23.38
311.23	81.07
311.444	50.35
311.658	3.24
311.872	81.07
312.085	50.35
312.299	93.35
312.513	42.15
312.727	58.54
312.941	21.67
313.154	-64.34
313.368	-21.33
313.582	5.29
313.796	68.78
314.009	31.91
314.223	58.54
314.437	7.34
314.651	103.59
314.864	109.74
315.078	-33.62
315.292	-15.19
315.505	81.07
315.719	13.48
315.933	-17.24
316.146	7.34
316.36	-41.81
316.573	74.92
316.787	46.25
317.001	93.35
317.214	46.25
317.428	-21.33
317.641	-54.1
317.855	-15.19
318.068	-2.9
318.282	13.48
318.495	17.58
318.709	17.58
318.922	-0.85
319.136	76.97
319.349	70.83
319.563	66.73
319.776	83.11
319.99	70.83
320.203	21.67
320.417	50.35
320.63	83.11
320.843	122.02
321.057	74.92
321.27	5.29
321.483	9.39
321.697	60.59
321.91	9.39
322.124	9.39
322.337	11.43
322.55	9.39
322.763	117.93
322.977	52.39
323.19	19.63
323.403	46.25
323.617	27.82
323.83	-7
324.043	-23.38
324.256	-7
324.469	19.63
324.683	52.39
324.896	-11.09
325.109	-29.52
325.322	3.24
325.535	136.36
325.748	15.53
325.962	9.39
326.175	60.59
326.388	36.01
326.601	46.25
326.814	42.15
327.027	48.3
327.24	70.83
327.453	-39.76
327.666	33.96
327.879	29.87
328.092	13.48
328.305	-56.15
328.518	44.2
328.731	50.35
328.944	44.2
329.157	36.01
329.37	-25.43
329.583	21.67
329.796	38.06
330.009	29.87
330.222	107.69
330.435	46.25
330.648	27.82
330.861	-80.72
331.073	46.25
331.286	74.92
331.499	44.2
331.712	-19.29
331.925	81.07
332.138	-7
332.35	38.06
332.563	60.59
332.776	25.77
332.989	31.91
333.202	-25.43
333.414	-37.72
333.627	103.59
333.84	89.26
334.053	-21.33
334.265	-35.67
334.478	74.92
334.691	111.78
334.903	3.24
335.116	31.91
335.329	-15.19
335.541	11.43
335.754	50.35
335.966	42.15
336.179	101.55
336.392	11.43
336.604	25.77
336.817	9.39
337.029	119.98
337.242	40.11
337.454	9.39
337.667	17.58
337.88	44.2
338.092	29.87
338.305	17.58
338.517	-4.95
338.729	13.48
338.942	58.54
339.154	3.24
339.367	44.2
339.579	-15.19
339.792	-11.09
340.004	99.5
340.217	93.35
340.429	76.97
340.641	27.82
340.854	9.39
341.066	13.48
341.278	79.02
341.491	66.73
341.703	25.77
341.915	-4.95
342.128	29.87
342.34	70.83
342.552	-52.05
342.764	-43.86
342.977	46.25
343.189	66.73
343.401	-11.09
343.613	50.35
343.826	36.01
344.038	-31.57
344.25	-4.95
344.462	33.96
344.674	42.15
344.886	109.74
345.099	1.19
345.311	42.15
345.523	40.11
345.735	3.24
345.947	79.02
346.159	33.96
346.371	-15.19
346.583	52.39
346.795	60.59
347.007	17.58
347.219	52.39
347.431	1.19
347.643	36.01
347.855	17.58
348.067	3.24
348.279	-70.48
348.491	-31.57
348.703	87.21
348.915	58.54
349.127	29.87
349.339	54.44
349.551	13.48
349.763	83.11
349.975	33.96
350.187	87.21
350.399	50.35
350.61	19.63
350.822	-23.38
351.034	79.02
351.246	17.58
351.458	58.54
351.669	124.07
351.881	-19.29
352.093	58.54
352.305	3.24
352.517	-33.62
352.728	48.3
352.94	5.29
353.152	-72.53
353.363	1.19
353.575	13.48
353.787	64.68
353.999	29.87
354.21	25.77
354.422	-2.9
354.633	1.19
354.845	70.83
355.057	33.96
355.268	1.19
355.48	79.02
355.692	-2.9
355.903	17.58
356.115	48.3
356.326	-45.91
356.538	72.87
356.749	-17.24
356.961	111.78
357.172	58.54
357.384	70.83
357.595	117.93
357.807	79.02
358.018	-7
358.23	25.77
358.441	64.68
358.653	21.67
358.864	19.63
359.075	44.2
359.287	1.19
359.498	89.26
359.709	9.39
359.921	31.91
360.132	1.19
360.344	38.06
360.555	11.43
360.766	46.25
360.977	38.06
361.189	74.92
361.4	48.3
361.611	64.68
361.823	60.59
362.034	36.01
362.245	-54.1
362.456	-4.95
362.667	1.19
362.879	13.48
363.09	19.63
363.301	54.44
363.512	-2.9
363.723	95.4
363.935	3.24
364.146	40.11
364.357	29.87
364.568	38.06
364.779	-52.05
364.99	85.16
365.201	-47.96
365.412	17.58
365.623	19.63
365.834	36.01
366.045	3.24
366.256	9.39
366.467	13.48
366.678	-13.14
366.889	-43.86
367.1	7.34
367.311	99.5
367.522	25.77
367.733	79.02
367.944	50.35
368.155	21.67
368.366	-11.09
368.577	5.29
368.788	152.74
368.999	-27.48
369.209	52.39
369.42	70.83
369.631	99.5
369.842	7.34
370.053	19.63
370.264	44.2
370.474	48.3
370.685	87.21
370.896	3.24
371.107	21.67
371.317	5.29
371.528	-31.57
371.739	58.54
371.95	48.3
372.16	99.5
372.371	9.39
372.582	52.39
372.792	33.96
373.003	27.82
373.214	-41.81
373.424	38.06
373.635	19.63
373.846	46.25
374.056	25.77
374.267	72.87
374.477	50.35
374.688	31.91
374.898	9.39
375.109	-4.95
375.319	85.16
375.53	48.3
375.74	52.39
375.951	91.31
376.161	58.54
376.372	97.45
376.582	27.82
376.793	44.2
377.003	-41.81
377.214	-21.33
377.424	56.49
377.635	9.39
377.845	68.78
378.055	68.78
378.266	-13.14
378.476	54.44
378.686	44.2
378.897	50.35
379.107	66.73
379.317	70.83
379.528	-23.38
379.738	33.96
379.948	21.67
380.158	91.31
380.369	19.63
380.579	27.82
380.789	21.67
380.999	9.39
381.21	66.73
381.42	72.87
381.63	68.78
381.84	19.63
382.05	66.73
382.261	87.21
382.471	76.97
382.681	89.26
382.891	81.07
383.101	19.63
383.311	46.25
383.521	-21.33
383.731	7.34
383.941	58.54
384.151	1.19
384.361	31.91
384.571	23.72
384.781	31.91
384.991	101.55
385.201	140.46
385.411	132.26
385.621	-7
385.831	50.35
386.041	107.69
386.251	-15.19
386.461	23.72
386.671	13.48
386.881	115.88
387.091	48.3
387.301	50.35
387.511	36.01
387.72	60.59
387.93	58.54
388.14	-23.38
388.35	-13.14
388.56	11.43
388.769	13.48
388.979	29.87
389.189	-13.14
389.399	9.39
389.609	68.78
389.818	68.78
390.028	11.43
390.238	58.54
390.447	66.73
390.657	58.54
390.867	66.73
391.076	101.55
391.286	68.78
391.496	3.24
391.705	29.87
391.915	109.74
392.125	87.21
392.334	74.92
392.544	66.73
392.753	91.31
392.963	21.67
393.172	93.35
393.382	130.22
393.591	76.97
393.801	87.21
394.01	115.88
394.22	17.58
394.429	72.87
394.639	97.45
394.848	44.2
395.058	109.74
395.267	-2.9
395.477	113.83
395.686	74.92
395.895	144.55
396.105	183.46
396.314	74.92
396.524	70.83
396.733	38.06
396.942	173.22
397.152	46.25
397.361	128.17
397.57	142.5
397.78	76.97
397.989	70.83
398.198	103.59
398.407	72.87
398.617	95.4
398.826	115.88
399.035	72.87
399.244	177.32
399.453	109.74
399.663	85.16
399.872	70.83
400.081	95.4
400.29	144.55
400.499	-2.9
400.708	128.17
400.917	95.4
401.127	58.54
401.336	52.39
401.545	93.35
401.754	197.8
401.963	126.12
402.172	79.02
402.381	140.46
402.59	70.83
402.799	83.11
403.008	115.88
403.217	124.07
403.426	83.11
403.635	111.78
403.844	83.11
404.053	156.84
404.262	74.92
404.471	99.5
404.68	156.84
404.888	175.27
405.097	136.36
405.306	124.07
405.515	189.61
405.724	181.42
405.933	150.7
406.142	162.98
406.35	218.28
406.559	140.46
406.768	156.84
406.977	249
407.185	263.33
407.394	201.9
407.603	175.27
407.812	251.05
408.02	222.38
408.229	185.51
408.438	201.9
408.646	142.5
408.855	249
409.064	271.53
409.272	314.53
409.481	279.72
409.69	222.38
409.898	177.32
410.107	244.9
410.315	312.49
410.524	378.02
410.733	306.34
410.941	316.58
411.15	380.07
411.358	314.53
411.567	443.56
411.775	384.16
411.984	378.02
412.192	386.21
412.401	455.84
412.609	517.28
412.818	533.67
413.026	449.7
413.234	414.88
413.443	494.76
413.651	537.76
413.86	517.28
414.068	562.34
414.276	631.97
414.485	625.83
414.693	644.26
414.901	672.93
415.11	701.6
415.318	705.7
415.526	758.94
415.734	732.32
415.943	758.94
416.151	804
416.359	828.57
416.567	806.05
416.776	795.81
416.984	910.49
417.192	1000.6
417.4	1039.51
417.608	978.08
417.817	1059.99
418.025	1066.14
418.233	1162.39
418.441	1172.63
418.649	1168.54
418.857	1197.21
419.065	1307.8
419.273	1260.7
419.481	1320.09
419.689	1414.29
419.897	1469.59
420.105	1524.88
420.313	1528.98
420.521	1651.86
420.729	1574.03
420.937	1668.24
421.145	1725.58
421.353	1754.26
421.561	1870.99
421.769	1928.33
421.977	2034.83
422.185	1995.92
422.393	2165.9
422.601	2223.24
422.809	2225.29
423.017	2202.76
423.224	2362.5
423.432	2540.68
423.64	2503.81
423.848	2641.03
424.056	2548.87
424.263	2780.29
424.471	2872.45
424.679	2811.01
424.887	3001.47
425.094	3087.48
425.302	3155.07
425.51	3228.79
425.718	3202.17
425.925	3372.15
426.133	3427.45
426.341	3658.87
426.548	3679.35
426.756	3798.13
426.964	3834.99
427.171	4181.1
427.379	4211.82
427.586	4306.02
427.794	4385.9
428.001	4547.69
428.209	4844.64
428.417	4877.41
428.624	5203.04
428.832	5178.46
429.039	4983.9
429.247	5063.77
429.454	5420.12
429.662	5866.58
429.869	5379.16
430.076	5907.54
430.284	5723.22
430.491	5930.06
430.699	6173.77
430.906	6327.37
431.114	6278.22
431.321	6583.37
431.528	6724.68
431.736	7132.22
431.943	7525.43
432.15	7164.99
432.358	7410.75
432.565	7812.15
432.772	7525.43
432.979	8068.14
433.187	8367.15
433.394	8307.76
433.601	9014.31
433.808	8805.41
434.016	8860.71
434.223	9276.45
434.43	9735.19
434.637	9554.97
434.844	10183.7
435.052	10396.68
435.259	10257.42
435.466	10390.54
435.673	10204.17
435.88	11064.32
436.087	11416.57
436.294	11426.81
436.501	11262.97
436.708	11383.8
436.915	11729.91
437.122	12327.92
437.329	12276.72
437.537	12803.05
437.743	12911.59
437.95	12796.9
438.157	13480.92
438.364	13855.7
438.571	14037.97
438.778	14146.51
438.985	15420.35
439.192	14461.9
439.399	15311.81
439.606	14812.1
439.813	15672.25
440.02	16442.29
440.227	16247.73
440.433	16118.71
440.64	16733.1
440.847	16432.05
441.054	17105.83
441.261	18281.36
441.467	17742.75
441.674	18197.4
441.881	18738.06
442.088	18535.31
442.294	18643.85
442.501	19039.11
442.708	19295.11
442.914	20153.21
443.121	20935.53
443.328	20562.8
443.534	22154.07
443.741	21402.47
443.948	20863.85
444.154	22590.29
444.361	22297.43
444.568	22817.61
444.774	22524.75
444.981	22598.48
445.187	23661.38
445.394	24574.77
445.6	24128.31
445.807	26422.04
446.013	25396.01
446.22	25744.16
446.426	26766.1
446.633	26964.75
446.839	28060.41
447.046	27013.9
447.252	28572.41
447.459	27996.93
447.665	28316.41
447.871	29397.74
448.078	30386.91
448.284	29092.59
448.491	30024.42
448.697	30876.37
448.903	31611.59
449.11	31892.16
449.316	31165.14
449.522	31867.59
449.728	32705.21
449.935	32760.5
450.141	32682.68
450.347	33663.66
450.553	32430.78
450.76	33026.74
450.966	33874.6
451.172	33841.83
451.378	34740.89
451.584	33944.23
451.791	34658.97
451.997	34423.45
452.203	35240.59
452.409	35021.46
452.615	35089.04
452.821	33768.1
453.027	33413.8
453.233	35136.15
453.44	33663.66
453.646	34081.44
453.852	34366.11
454.058	34738.84
454.264	33917.61
454.47	34634.39
454.676	33585.83
454.882	35095.19
455.088	31802.05
455.294	32178.88
455.5	32604.86
455.705	33079.99
455.911	31677.13
456.117	31056.59
456.323	30888.66
456.529	29199.09
456.735	30466.78
456.941	29565.67
457.147	29178.61
457.352	28406.52
457.558	28019.46
457.764	28275.45
457.97	27626.25
458.176	26868.5
458.381	27245.32
458.587	25742.11
458.793	25611.04
458.999	24437.56
459.204	26182.43
459.41	25183.02
459.616	23870.27
459.821	23595.84
460.027	23839.55
460.233	23262.02
460.438	22315.86
460.644	22377.3
460.85	21252.97
461.055	20882.28
461.261	21115.75
461.466	19219.33
461.672	18869.13
461.878	20040.57
462.083	18627.47
462.289	18512.78
462.494	18486.16
462.7	17722.27
462.905	17015.72
463.111	17574.81
463.316	17451.94
463.522	17134.5
463.727	17109.93
463.932	17384.35
464.138	17064.87
464.343	17007.53
464.549	16341.94
464.754	17185.7
464.959	16825.26
465.165	16917.42
465.37	16249.78
465.575	15772.6
465.781	16331.7
465.986	16589.74
466.191	15936.44
466.397	15643.58
466.602	14738.38
466.807	15289.28
467.012	15459.26
467.218	15348.67
467.423	15027.14
467.628	15242.18
467.833	15786.94
468.038	15465.41
468.244	14844.87
468.449	15510.46
468.654	14863.3
468.859	14613.45
469.064	14834.63
469.269	14214.1
469.474	14347.22
469.679	14672.84
469.885	14121.94
470.09	14306.26
470.295	14173.14
470.5	13736.92
470.705	13943.77
470.91	13548.51
471.115	13605.85
471.32	13798.36
471.525	13554.65
471.73	13220.83
471.935	13218.78
472.139	12688.36
472.344	13116.39
472.549	12788.71
472.754	12702.7
472.959	12555.24
473.164	12436.46
473.369	11987.96
473.574	12518.38
473.778	12293.1
473.983	12110.83
474.188	12162.03
474.393	11635.71
474.598	11594.75
474.802	11631.61
475.007	11611.13
475.212	11527.16
475.417	11303.93
475.621	11107.33
475.826	11222.02
476.031	10904.58
476.235	10769.41
476.44	10857.48
476.645	10638.34
476.849	10695.69
477.054	10654.73
477.259	10449.93
477.463	10404.88
477.668	10134.54
477.872	10314.77
478.077	9944.08
478.282	9671.7
478.486	9761.81
478.691	10007.57
478.895	9565.21
479.1	9663.51
479.304	9606.17
479.509	9489.43
479.713	9565.21
479.918	9253.92
480.122	9104.42
480.326	9479.19
480.531	9249.82
480.735	9292.83
480.94	9083.94
481.144	9563.16
481.348	9151.52
481.553	9040.93
481.757	8735.78
481.961	9036.83
482.166	9270.3
482.37	8832.04
482.574	8834.08
482.778	8901.67
482.983	9094.18
483.187	8850.47
483.391	9024.54
483.595	8942.63
483.8	8668.2
484.004	8866.85
484.208	8950.82
484.412	8952.87
484.616	9012.26
484.821	8944.67
485.025	8842.28
485.229	8995.87
485.433	8879.14
485.637	8956.96
485.841	8932.39
486.045	8836.13
486.249	8938.53
486.453	8805.41
486.657	8844.32
486.861	8805.41
487.065	8578.09
487.269	8873
487.473	8682.53
487.677	8948.77
487.881	9065.5
488.085	8934.43
488.289	8961.06
488.493	8971.3
488.697	9178.14
488.901	8834.08
489.105	8956.96
489.309	9178.14
489.512	8893.47
489.716	8965.15
489.92	8999.97
490.124	9008.16
490.328	9114.66
490.531	9077.79
490.735	9047.07
490.939	9149.47
491.143	9276.45
491.346	9159.71
491.55	9241.63
491.754	9389.08
491.958	9407.52
492.161	9071.65
492.365	9389.08
492.569	9255.97
492.772	9407.52
492.976	9479.19
493.18	9427.99
493.383	9589.78
493.587	9753.62
493.79	10050.58
493.994	9686.04
494.197	9724.95
494.401	9817.11
494.605	10058.77
494.808	10054.67
495.012	9966.61
495.215	10114.06
495.419	10208.27
495.622	10036.24
495.825	10282
496.029	10175.5
496.232	10490.89
496.436	10564.62
496.639	10773.51
496.843	10529.8
497.046	10886.15
497.249	11060.23
497.453	11006.98
497.656	11150.34
497.859	11174.91
498.063	11359.23
498.266	11613.18
498.469	11447.29
498.673	11492.35
498.876	11770.87
499.079	11824.12
499.282	12041.2
499.485	12407.79
499.689	12184.56
499.892	12381.17
500.095	12420.08
500.298	12704.74
500.501	12608.49
500.705	13216.74
500.908	13251.55
501.111	13353.95
501.314	13321.18
501.517	13507.55
501.72	13515.74
501.923	13528.03
502.126	13890.52
502.329	14271.44
502.532	14336.98
502.735	14263.25
502.938	14629.84
503.141	14707.66
503.344	14945.22
503.547	14853.06
503.75	14916.55
503.953	15410.11
504.156	15836.09
504.359	15674.3
504.562	15721.4
504.765	16014.26
504.968	16180.15
505.17	16374.7
505.373	16108.47
505.576	16546.73
505.779	16530.35
505.982	16704.43
506.185	17163.17
506.387	17302.43
506.59	17507.23
506.793	17652.64
506.996	17654.69
507.198	18115.48
507.401	18301.84
507.604	18330.51
507.807	18797.45
508.009	18725.77
508.212	18523.02
508.415	18994.06
508.617	18981.77
508.82	19227.53
509.022	19278.72
509.225	19907.45
509.428	19991.42
509.63	19827.58
509.833	20220.79
510.035	20642.67
510.238	20505.46
510.44	20730.73
510.643	21037.93
510.845	21271.4
511.048	21238.63
511.25	21846.88
511.453	21697.38
511.655	22221.66
511.858	22256.47
512.06	22250.33
512.262	22741.84
512.465	22770.51
512.667	23225.16
512.87	23296.84
513.072	23343.94
513.274	24044.35
513.477	23771.97
513.679	24216.38
513.881	24533.81
514.084	24423.22
514.286	24642.35
514.488	24689.46
514.69	25510.69
514.893	25559.84
515.095	25604.9
515.297	25725.73
515.499	26018.59
515.701	26362.65
515.904	26389.27
516.106	26729.23
516.308	26970.9
516.51	27065.1
516.712	27128.59
516.914	27476.74
517.116	27781.89
517.318	28115.71
517.52	28222.2
517.722	28189.44
517.925	28543.74
518.127	28973.81
518.329	29125.36
518.531	29004.53
518.733	29711.08
518.935	30155.49
519.136	29731.56
519.338	30280.41
519.54	30585.56
519.742	30530.26
519.944	30919.38
520.146	31363.79
520.348	31113.94
520.55	31535.82
520.752	31470.28
520.954	32166.59
521.155	31879.88
521.357	32694.97
521.559	32481.98
521.761	32899.76
521.963	33022.64
522.164	33409.71
522.366	33643.18
522.568	33569.45
522.77	33788.58
522.971	34185.89
523.173	34382.49
523.375	34196.13
523.576	34298.53
523.778	34685.59
523.98	35224.21
524.181	34742.94
524.383	35256.98
524.584	35998.34
524.786	35506.83
524.988	35295.89
525.189	36209.28
525.391	35738.25
525.592	35930.76
525.794	36123.27
525.995	36354.69
526.197	36354.69
526.398	36647.55
526.6	36815.48
526.801	37161.59
527.003	37323.38
527.204	37577.33
527.406	37597.8
527.607	37454.45
527.808	37759.59
528.01	37116.53
528.211	37855.85
528.412	38593.12
528.614	38113.89
528.815	38306.4
529.016	38785.63
529.218	38031.97
529.419	38394.46
529.62	38273.63
529.822	38099.56
530.023	38619.74
530.224	38550.11
530.425	38482.53
530.626	38187.62
530.828	38402.66
531.029	39191.12
531.23	38799.96
531.431	38607.45
531.632	39252.56
531.833	39072.34
532.035	38687.32
532.236	38804.06
532.437	38998.62
532.638	39105.11
532.839	39047.77
533.04	39248.47
533.241	38785.63
533.442	39322.19
533.643	39068.25
533.844	38988.38
534.045	39160.41
534.246	38339.17
534.447	39682.64
534.648	38974.04
534.849	39389.78
535.05	39357.01
535.251	39156.31
535.451	38996.57
535.652	39277.14
535.853	39168.6
536.054	39381.59
536.255	39330.39
536.456	39019.1
536.657	39391.83
536.857	38814.3
537.058	38885.98
537.259	39117.4
537.46	39119.45
537.66	38658.65
537.861	38965.85
538.062	39041.62
538.263	38978.14
538.463	38926.94
538.664	38820.44
538.865	38820.44
539.065	38963.8
539.266	38871.64
539.466	39156.31
539.667	38572.64
539.868	39291.48
540.068	38933.08
540.269	38937.18
540.469	39260.76
540.67	38990.42
540.87	38849.11
541.071	38820.44
541.271	38685.28
541.472	38703.71
541.672	38646.36
541.873	38785.63
542.073	38300.26
542.274	39434.83
542.474	38916.7
542.675	38578.78
542.875	38773.34
543.075	38949.46
543.276	38398.56
543.476	38994.52
543.676	38625.89
543.877	38765.15
544.077	38953.56
544.277	38691.42
544.478	38894.17
544.678	38478.43
544.878	38926.94
545.078	38918.74
545.279	38574.69
545.479	38449.76
545.679	38718.04
545.879	38629.98
546.079	38535.77
546.28	38451.81
546.48	37970.54
546.68	38564.45
546.88	38670.94
547.08	38546.01
547.28	38347.36
547.48	38279.78
547.68	38492.77
547.88	38122.08
548.081	38498.91
548.281	38253.15
548.481	38353.51
548.681	38754.91
548.881	38369.89
549.081	38668.89
549.28	38259.3
549.48	38416.99
549.68	38113.89
549.88	38982.23
550.08	38165.09
550.28	38687.32
550.48	38474.34
550.68	38416.99
550.88	38251.11
551.08	38290.02
551.279	38034.02
551.479	37925.48
551.679	38857.31
551.879	38191.72
552.079	38654.56
552.278	38240.87
552.478	38460
552.678	38353.51
552.878	38195.81
553.077	38019.69
553.277	37808.75
553.477	38525.53
553.676	37939.82
553.876	37853.8
554.076	37558.89
554.275	37861.99
554.475	37573.23
554.674	37950.06
554.874	37790.31
555.074	37519.98
555.273	37786.22
555.473	37960.3
555.672	37984.87
555.872	37845.61
556.071	38058.6
556.271	38255.2
556.47	38122.08
556.67	37538.41
556.869	37530.22
557.068	37882.47
557.268	37509.74
557.467	37519.98
557.667	37411.44
557.866	37388.91
558.065	37597.8
558.265	37278.32
558.464	37241.46
558.663	37548.65
558.863	37333.62
559.062	37945.96
559.261	37157.49
559.461	37794.41
559.66	37048.95
559.859	37354.1
560.058	37241.46
560.258	36876.92
560.457	36653.69
560.656	37143.16
560.855	37069.43
561.054	37433.97
561.253	36758.14
561.453	36958.84
561.652	36950.65
561.851	37069.43
562.05	36713.08
562.249	36448.89
562.448	36780.67
562.647	36227.71
562.846	36379.26
563.045	36584.06
563.244	36420.22
563.443	36637.31
563.642	36012.68
563.841	36295.3
564.04	35984.01
564.239	36289.15
564.438	35658.38
564.637	36313.73
564.836	36272.77
565.035	35805.83
565.234	36270.72
565.432	36022.92
565.631	35674.76
565.83	35805.83
566.029	35650.19
566.228	35762.82
566.427	35875.46
566.625	35224.21
566.824	35031.7
567.023	35586.7
567.222	35240.59
567.42	35388.05
567.619	35429.01
567.818	35246.74
568.016	35158.67
568.215	35279.5
568.414	35058.32
568.612	35672.71
568.811	34962.07
569.01	34781.85
569.208	34521.76
569.407	34935.45
569.605	34691.74
569.804	34814.62
570.002	34525.85
570.201	34478.75
570.4	33778.34
570.598	34298.53
570.797	33886.89
570.995	34597.53
571.193	34013.86
571.392	34384.54
571.59	33776.3
571.789	33907.37
571.987	33960.61
572.186	33579.69
572.384	33780.39
572.582	33641.13
572.781	33686.18
572.979	33184.43
573.177	33727.14
573.376	33796.77
573.574	33249.97
573.772	33286.83
573.971	33247.92
574.169	33184.43
574.367	32770.74
574.565	33006.26
574.763	32537.27
574.962	32924.34
575.16	31984.32
575.358	32785.08
575.556	32432.83
575.754	32701.11
575.952	32445.12
576.151	32645.82
576.349	32051.91
576.547	32015.04
576.745	32051.91
576.943	32225.98
577.141	31806.15
577.339	32033.47
577.537	31959.75
577.735	31732.42
577.933	31550.15
578.131	31757
578.329	31765.19
578.527	31343.31
578.725	31306.44
578.923	31789.77
579.121	31240.91
579.319	30905.04
579.516	31748.81
579.714	31343.31
579.912	30773.97
580.11	31132.37
580.308	31226.57
580.506	30917.33
580.704	30501.59
580.901	30730.97
581.099	30745.3
581.297	30776.02
581.495	30409.43
581.692	30728.92
581.89	30216.93
582.088	30556.89
582.285	30239.45
582.483	30563.03
582.681	30143.2
582.878	30059.23
583.076	29749.99
583.274	30266.08
583.471	29745.89
583.669	29993.7
583.866	29186.8
584.064	29735.65
584.262	29364.97
584.459	29801.19
584.657	29432.55
584.854	29786.85
585.052	29096.69
585.249	29233.9
585.447	29338.35
585.644	28736.24
585.841	28975.86
586.039	28918.51
586.236	28564.21
586.434	28594.93
586.631	28455.67
586.828	28863.22
587.026	28513.02
587.223	28246.78
587.42	28125.95
587.618	28476.15
587.815	28154.62
588.012	27802.37
588.21	28005.12
588.407	28134.14
588.604	27837.19
588.801	27437.83
588.999	27775.75
589.196	27822.85
589.393	27368.2
589.59	27443.98
589.787	27542.28
589.984	27353.87
590.182	27194.12
590.379	27515.65
590.576	27085.58
590.773	27364.11
590.97	26860.3
591.167	26886.93
591.364	26559.25
591.561	27091.73
591.758	26745.62
591.955	26800.91
592.152	26784.53
592.349	26632.98
592.546	26643.22
592.743	26610.45
592.94	26190.62
593.137	26131.23
593.334	26319.64
593.531	25965.34
593.727	26145.56
593.924	25955.1
594.121	25522.98
594.318	25715.49
594.515	25768.74
594.712	25979.68
594.908	25598.76
595.105	25912.1
595.302	25422.63
595.499	25670.43
595.696	25449.25
595.892	25178.92
596.089	25449.25
596.286	25215.79
596.482	24978.22
596.679	25064.24
596.876	25088.81
597.072	24777.52
597.269	24931.12
597.466	24501.04
597.662	24855.34
597.859	24455.99
598.055	24802.1
598.252	24570.68
598.448	24550.2
598.645	24267.58
598.841	24044.35
599.038	24136.51
599.234	24404.79
599.431	23819.07
599.627	23884.61
599.824	23921.47
600.02	23765.82
600.217	23726.91
600.413	23681.86
600.609	23448.39
600.806	23604.03
601.002	23700.29
601.198	23315.27
601.395	23184.2
601.591	23069.51
601.787	23178.06
601.984	23192.39
602.18	23083.85
602.376	23325.51
602.572	22913.87
602.769	23067.47
602.965	22670.16
603.161	23147.34
603.357	22674.26
603.553	22704.98
603.75	22573.91
603.946	22334.29
604.142	22395.73
604.338	21744.48
604.534	21914.46
604.73	22045.53
604.926	22319.96
605.122	22147.93
605.318	22088.54
605.514	22248.28
605.71	21853.02
605.906	21812.06
606.102	21816.16
606.298	21879.64
606.494	21633.89
606.69	21746.53
606.886	21789.53
607.082	21308.26
607.278	21549.92
607.474	21359.46
607.67	21713.76
607.866	20949.87
608.062	21508.96
608.257	21408.61
608.453	21119.85
608.649	21511.01
608.845	21156.71
609.041	20996.97
609.236	21068.65
609.432	20927.34
609.628	20880.24
609.824	20990.83
610.019	20804.46
610.215	20677.49
610.411	21111.66
610.606	20704.11
610.802	20779.89
610.998	20542.32
611.193	20892.52
611.389	20497.27
611.584	20609.9
611.78	20493.17
611.976	20657.01
612.171	20501.36
612.367	20407.16
612.562	20149.11
612.758	20202.36
612.953	19893.12
613.149	20392.82
613.344	20161.4
613.539	20611.95
613.735	20046.71
613.93	20132.73
614.126	20005.75
614.321	20317.04
614.517	20083.58
614.712	20153.21
614.907	19837.82
615.103	20243.32
615.298	19587.97
615.493	20204.41
615.688	19784.57
615.884	20376.44
616.079	19495.81
616.274	19950.46
616.47	19559.3
616.665	19655.55
616.86	19571.58
617.055	19356.55
617.25	19385.22
617.445	19729.28
617.641	19219.33
617.836	19538.82
618.031	19252.1
618.226	19104.65
618.421	18924.43
618.616	19057.54
618.811	18860.94
619.006	19241.86
619.201	18690.96
619.396	18981.77
619.591	18600.85
619.786	18858.89
619.981	18291.6
620.176	18965.39
620.371	18344.85
620.566	18596.75
620.761	18463.63
620.956	18555.79
621.151	17996.7
621.346	18350.99
621.541	17697.69
621.735	18471.82
621.93	17879.96
622.125	17871.77
622.32	17597.34
622.515	17679.26
622.709	17519.52
622.904	17429.41
623.099	17288.1
623.294	17540
623.488	17165.22
623.683	17363.87
623.878	16698.28
624.072	16982.95
624.267	17042.34
624.462	16933.8
624.656	16382.9
624.851	16671.66
625.046	16556.97
625.24	16417.71
625.435	16434.1
625.629	16063.41
625.824	16206.77
626.018	16161.72
626.213	15647.68
626.407	15991.73
626.602	15524.8
626.796	15866.81
626.991	15737.79
627.185	15422.4
627.38	15442.88
627.574	15293.38
627.768	15215.55
627.963	15297.47
628.157	15084.48
628.352	15227.84
628.546	14844.87
628.74	14953.41
628.935	14662.6
629.129	14660.55
629.323	14689.23
629.517	14453.71
629.712	14504.91
629.906	14490.57
630.1	14416.85
630.294	14472.14
630.489	14099.41
630.683	14308.3
630.877	13853.66
631.071	13921.24
631.265	14013.4
631.459	13986.77
631.653	13923.29
631.848	13648.86
632.042	13765.59
632.236	13874.13
632.43	13538.27
632.624	13745.11
632.818	13403.1
633.012	13251.55
633.206	13169.63
633.4	13407.2
633.594	13124.58
633.788	13208.55
633.982	13147.11
634.176	13122.53
634.369	12983.27
634.563	12702.7
634.757	12749.8
634.951	12698.6
635.145	12631.02
635.339	12819.43
635.533	12743.66
635.726	12628.97
635.92	12299.25
636.114	12366.83
636.308	12313.58
636.501	12262.38
636.695	12180.46
636.889	11891.7
637.083	12024.82
637.276	11897.85
637.47	11885.56
637.664	11854.84
637.857	11529.21
638.051	11615.23
638.244	11707.38
638.438	11684.86
638.632	11832.31
638.825	11414.52
639.019	11332.61
639.212	11346.94
639.406	11342.85
639.599	10935.3
639.793	11185.15
639.986	11199.49
640.18	11078.66
640.373	10945.54
640.567	10804.23
640.76	10839.05
640.954	10669.06
641.147	10789.89
641.34	10640.39
641.534	10732.55
641.727	10523.66
641.92	10576.91
642.114	10650.63
642.307	10423.31
642.5	10353.68
642.694	10044.43
642.887	10316.81
643.08	10273.81
643.273	10232.85
643.467	10148.88
643.66	10021.91
643.853	9925.65
644.046	10107.92
644.239	10015.76
644.432	9868.31
644.626	9882.64
644.819	9759.77
645.012	9733.14
645.205	9790.49
645.398	9610.26
645.591	9520.15
645.784	9497.63
645.977	9417.75
646.17	9464.86
646.363	9346.08
646.556	9397.28
646.749	9339.93
646.942	9348.12
647.135	9110.56
647.328	9020.45
647.521	9071.65
647.714	8875.04
647.907	8987.68
648.099	8801.32
648.292	8918.05
648.485	8875.04
648.678	8823.84
648.871	8660.01
649.064	8588.33
649.256	8700.97
649.449	8463.4
649.642	8438.83
649.835	8590.38
650.027	8561.7
650.22	8498.22
650.413	8350.76
650.605	8309.8
650.798	8342.57
650.991	8055.86
651.183	8520.74
651.376	8059.95
651.568	8102.96
651.761	8070.19
651.954	8047.66
652.146	8131.63
652.339	8059.95
652.531	7957.55
652.724	7871.54
652.916	7654.45
653.109	7603.25
653.301	7769.14
653.494	7883.83
653.686	7633.97
653.879	7775.28
654.071	7627.83
654.263	7492.66
654.456	7527.48
654.648	7701.56
654.84	7369.79
655.033	7349.31
655.225	7339.07
655.417	7251
655.61	7369.79
655.802	7359.55
655.994	7394.36
656.186	7175.23
656.379	7232.57
656.571	7169.09
656.763	7076.93
656.955	7115.84
657.148	7160.89
657.34	7003.2
657.532	6974.53
657.724	6931.52
657.916	6853.7
658.108	6810.69
658.3	6741.06
658.492	6761.54
658.684	6673.48
658.876	6728.77
659.068	6696
659.26	6671.43
659.452	6642.76
659.644	6521.93
659.836	6538.31
660.028	6587.46
660.22	6417.48
660.412	6464.58
660.604	6317.13
660.796	6329.42
660.988	6364.23
661.18	6175.82
661.372	6237.26
661.563	6112.33
661.755	6138.96
661.947	6169.68
662.139	6087.76
662.331	6044.75
662.522	6112.33
662.714	5981.26
662.906	5997.65
663.097	6059.09
663.289	6073.42
663.481	5878.86
663.673	6046.8
663.864	5842
664.056	5868.63
664.247	5803.09
664.439	5762.13
664.631	5739.6
664.822	5704.79
665.014	5694.55
665.205	5641.3
665.397	5489.75
665.588	5645.4
665.78	5495.89
665.971	5549.14
666.163	5436.5
666.354	5678.16
666.546	5469.27
666.737	5411.93
666.929	5448.79
667.12	5317.72
667.311	5432.41
667.503	5325.91
667.694	5407.83
667.885	5375.06
668.077	5456.98
668.268	5287
668.459	5178.46
668.651	5287
668.842	5092.44
669.033	5217.37
669.224	5055.58
669.416	5225.56
669.607	5287
669.798	5031.01
669.989	5047.39
670.18	5059.68
670.371	4963.42
670.563	4912.22
670.754	4908.13
670.945	4981.85
671.136	4824.16
671.327	4785.25
671.518	4899.94
671.709	4856.93
671.9	4959.33
672.091	4797.54
672.282	4738.15
672.473	4742.24
672.664	4801.63
672.855	4674.66
673.046	4721.76
673.237	4793.44
673.428	4613.22
673.619	4883.55
673.809	4691.04
674	4732
674.191	4672.61
674.382	4519.01
674.573	4559.97
674.764	4557.93
674.954	4580.45
675.145	4502.63
675.336	4412.52
675.527	4418.66
675.717	4465.77
675.908	4437.09
676.099	4498.53
676.289	4361.32
676.48	4351.08
676.671	4465.77
676.861	4476.01
677.052	4375.66
677.243	4387.94
677.433	4381.8
677.624	4478.05
677.814	4375.66
678.005	4220.01
678.195	4355.18
678.386	4332.65
678.576	4285.55
678.767	4232.3
678.957	4236.39
679.148	4377.7
679.338	4181.1
679.529	4213.87
679.719	4179.05
679.909	4285.55
680.1	4183.15
680.29	4086.89
680.481	4248.68
680.671	4359.27
680.861	4187.24
681.052	4244.59
681.242	4172.91
681.432	4084.84
681.622	4097.13
681.813	3978.35
682.003	4156.52
682.193	4031.6
682.383	4189.29
682.573	4113.52
682.764	4007.02
682.954	4031.6
683.144	4134
683.334	4093.04
683.524	3986.54
683.714	3998.83
683.904	4013.17
684.094	4017.26
684.284	4017.26
684.474	3996.78
684.664	3810.42
684.854	3851.38
685.044	3900.53
685.234	3859.57
685.424	3902.58
685.614	3941.49
685.804	3935.34
685.994	3771.51
686.184	3869.81
686.374	3865.71
686.564	3753.07
686.753	3695.73
686.943	3730.55
687.133	3724.4
687.323	3689.59
687.513	3724.4
687.702	3753.07
687.892	3554.42
688.082	3705.97
688.272	3656.82
688.461	3681.39
688.651	3736.69
688.841	3607.67
689.03	3628.15
689.22	3501.17
689.41	3558.52
689.599	3515.51
689.789	3544.18
689.979	3568.76
690.168	3474.55
690.358	3359.86
690.547	3515.51
690.737	3529.84
690.926	3486.84
691.116	3286.14
691.305	3529.84
691.495	3429.49
691.684	3419.25
691.874	3286.14
692.063	3437.69
692.252	3355.77
692.442	3359.86
692.631	3345.53
692.82	3167.35
693.01	3384.44
693.199	3214.46
693.388	3288.18
693.578	3282.04
693.767	3232.89
693.956	3196.03
694.146	3050.62
694.335	3116.16
694.524	3187.83
694.713	3249.27
694.902	3163.26
695.092	3138.68
695.281	3067
695.47	3064.96
695.659	3026.04
695.848	3155.07
696.037	3083.39
696.226	2919.55
696.415	3017.85
696.604	3261.56
696.793	2997.37
696.982	3118.2
697.171	3079.29
697.36	3060.86
697.549	2964.61
697.738	2851.97
697.927	2976.89
698.116	3048.57
698.305	2970.75
698.494	2884.73
698.683	2993.28
698.872	2995.32
699.061	3015.8
699.25	2903.17
699.438	2894.97
699.627	3077.24
699.816	2917.5
700.005	2964.61
700.193	2927.74
700.382	2999.42
700.571	2868.35
700.76	3019.9
700.948	3026.04
701.137	2919.55
701.326	2778.24
701.514	2911.36
701.703	2917.5
701.892	2821.25
702.08	2878.59
702.269	2864.25
702.457	2749.57
702.646	2935.93
702.834	2847.87
703.023	2739.33
703.212	2774.14
703.4	2927.74
703.589	2778.24
703.777	2886.78
703.965	2729.09
704.154	2800.77
704.342	2704.51
704.531	2770.05
704.719	2708.61
704.907	2868.35
705.096	2663.55
705.284	2663.55
705.472	2786.43
705.661	2786.43
705.849	2765.95
706.037	2815.1
706.226	2675.84
706.414	2751.62
706.602	2608.26
706.79	2724.99
706.979	2753.66
707.167	2761.86
707.355	2690.18
707.543	2731.14
707.731	2768
707.919	2671.75
708.107	2583.68
708.296	2630.79
708.484	2698.37
708.672	2632.83
708.86	2681.99
709.048	2739.33
709.236	2628.74
709.424	2638.98
709.612	2700.42
709.8	2581.64
709.988	2634.88
710.176	2720.9
710.364	2614.4
710.551	2569.35
710.739	2638.98
710.927	2534.53
711.115	2647.17
711.303	2638.98
711.491	2524.29
711.679	2532.48
711.866	2561.16
712.054	2544.77
712.242	2602.11
712.43	2645.12
712.617	2559.11
712.805	2626.69
712.993	2516.1
713.181	2585.73
713.368	2616.45
713.556	2548.87
713.744	2524.29
713.931	2561.16
714.119	2589.83
714.306	2581.64
714.494	2423.94
714.682	2491.52
714.869	2450.57
715.057	2475.14
715.244	2475.14
715.432	2659.46
715.619	2507.91
715.807	2557.06
715.994	2403.46
716.182	2454.66
716.369	2464.9
716.556	2489.48
716.744	2358.41
716.931	2663.55
717.119	2516.1
717.306	2608.26
717.493	2550.92
717.681	2491.52
717.868	2469
718.055	2491.52
718.242	2458.76
718.43	2456.71
718.617	2405.51
718.804	2499.72
718.991	2565.25
719.179	2499.72
719.366	2534.53
719.553	2507.91
719.74	2464.9
719.927	2514.05
720.114	2466.95
720.301	2413.7
720.488	2323.59
720.676	2450.57
720.863	2411.65
721.05	2434.18
721.237	2360.45
721.424	2395.27
721.611	2350.21
721.798	2425.99
721.985	2344.07
722.172	2362.5
722.358	2385.03
722.545	2280.58
722.732	2405.51
722.919	2417.8
723.106	2346.12
723.293	2491.52
723.48	2403.46
723.667	2317.45
723.853	2356.36
724.04	2313.35
724.227	2464.9
724.414	2286.73
724.6	2491.52
724.787	2339.97
724.974	2356.36
725.161	2346.12
725.347	2362.5
725.534	2264.2
725.72	2352.26
725.907	2405.51
726.094	2344.07
726.28	2378.89
726.467	2262.15
726.653	2395.27
726.84	2296.97
727.027	2331.78
727.213	2360.45
727.4	2477.19
727.586	2403.46
727.773	2286.73
727.959	2389.13
728.145	2223.24
728.332	2364.55
728.518	2307.21
728.705	2331.78
728.891	2358.41
729.077	2290.82
729.264	2266.25
729.45	2296.97
729.636	2296.97
729.823	2239.62
730.009	2274.44
730.195	2313.35
730.382	2389.13
730.568	2344.07
730.754	2286.73
730.94	2217.1
731.126	2346.12
731.313	2344.07
731.499	2282.63
731.685	2421.89
731.871	2266.25
732.057	2301.06
732.243	2333.83
732.429	2249.86
732.615	2309.26
732.801	2278.54
732.987	2225.29
733.173	2376.84
733.359	2245.77
733.545	2235.53
733.731	2243.72
733.917	2299.02
734.103	2327.69
734.289	2282.63
734.475	2188.43
734.661	2432.13
734.847	2172.04
735.033	2215.05
735.219	2247.82
735.404	2215.05
735.59	2276.49
735.776	2124.94
735.962	2176.14
736.148	2299.02
736.333	2198.67
736.519	2090.12
736.705	2157.71
736.89	2172.04
737.076	2266.25
737.262	2202.76
737.447	2102.41
737.633	2098.31
737.819	2094.22
738.004	2106.51
738.19	2180.23
738.375	2110.6
738.561	2040.97
738.747	2116.75
738.932	2180.23
739.118	2139.27
739.303	2196.62
739.489	2151.56
739.674	2126.99
739.859	2010.25
740.045	2120.84
740.23	2098.31
740.416	1961.1
740.601	2034.83
740.786	2051.21
740.972	2004.11
741.157	2057.36
741.342	2008.2
741.528	2073.74
741.713	2100.36
741.898	2077.83
742.084	2061.45
742.269	2030.73
742.454	1983.63
742.639	2073.74
742.824	1928.33
743.01	2059.4
743.195	2098.31
743.38	2012.3
743.565	2000.01
743.75	2032.78
743.935	1909.9
744.12	2016.4
744.305	1918.09
744.49	1959.05
744.675	1961.1
744.86	1868.94
745.045	1926.29
745.23	1834.13
745.415	1950.86
745.6	1846.41
745.785	1856.65
745.97	1907.85
746.155	1836.17
746.34	1858.7
746.525	1842.32
746.71	1885.33
746.895	1801.36
747.079	1762.45
747.264	1721.49
747.449	1680.53
747.634	1807.5
747.819	1789.07
748.003	1844.37
748.188	1721.49
748.373	1741.97
748.557	1662.1
748.742	1672.34
748.927	1707.15
749.111	1735.82
749.296	1625.23
749.481	1565.84
749.665	1789.07
749.85	1633.43
750.034	1623.19
750.219	1754.26
750.404	1614.99
750.588	1567.89
750.773	1721.49
750.957	1592.47
751.141	1641.62
751.326	1496.21
751.51	1510.55
751.695	1600.66
751.879	1520.79
752.064	1557.65
752.248	1479.83
752.432	1494.16
752.617	1387.67
752.801	1475.73
752.985	1387.67
753.17	1492.12
753.354	1500.31
753.538	1496.21
753.722	1324.18
753.907	1432.72
754.091	1410.2
754.275	1410.2
754.459	1318.04
754.643	1459.35
754.828	1340.57
755.012	1369.24
755.196	1395.86
755.38	1342.61
755.564	1256.6
755.748	1311.89
755.932	1238.17
756.116	1303.7
756.3	1281.18
756.484	1232.02
756.668	1201.3
756.852	1324.18
757.036	1229.98
757.22	1295.51
757.404	1199.26
757.588	1201.3
757.772	1152.15
757.956	1191.06
758.14	1221.78
758.323	1090.71
758.507	1229.98
758.691	1123.48
758.875	1139.87
759.059	1096.86
759.242	1111.19
759.426	1197.21
759.61	1057.95
759.794	1156.25
759.977	1078.43
760.161	1186.97
760.345	1125.53
760.528	1057.95
760.712	1074.33
760.895	1076.38
761.079	992.41
761.263	976.03
761.446	1055.9
761.63	1094.81
761.813	996.51
761.997	984.22
762.18	1039.51
762.364	1021.08
762.547	1010.84
762.731	906.4
762.914	1047.71
763.098	1090.71
763.281	1051.8
763.464	1021.08
763.648	945.31
763.831	1025.18
764.015	980.12
764.198	996.51
764.381	965.79
764.564	951.45
764.748	963.74
764.931	992.41
765.114	990.36
765.297	988.32
765.481	912.54
765.664	920.73
765.847	945.31
766.03	789.66
766.213	963.74
766.397	918.68
766.58	918.68
766.763	894.11
766.946	898.2
767.129	926.88
767.312	896.16
767.495	869.53
767.678	861.34
767.861	830.62
768.044	935.07
768.227	871.58
768.41	834.72
768.593	906.4
768.776	785.57
768.959	730.27
769.142	871.58
769.324	869.53
769.507	832.67
769.69	806.05
769.873	832.67
770.056	885.92
770.239	883.87
770.421	834.72
770.604	795.81
770.787	836.77
770.97	791.71
771.152	840.86
771.335	830.62
771.518	722.08
771.7	808.09
771.883	808.09
772.066	728.22
772.248	812.19
772.431	660.64
772.613	834.72
772.796	707.74
772.978	816.29
773.161	779.42
773.343	717.98
773.526	709.79
773.708	740.51
773.891	748.7
774.073	724.13
774.256	728.22
774.438	724.13
774.621	717.98
774.803	695.46
774.985	709.79
775.168	679.07
775.35	674.98
775.532	652.45
775.715	662.69
775.897	672.93
776.079	623.78
776.261	650.4
776.444	646.3
776.626	658.59
776.808	634.02
776.99	660.64
777.173	634.02
777.355	603.3
777.537	629.92
777.719	701.6
777.901	568.48
778.083	574.63
778.265	580.77
778.447	623.78
778.629	525.47
778.811	619.68
778.993	615.59
779.175	636.06
779.357	582.82
779.539	517.28
779.721	586.91
779.903	605.35
780.085	564.39
780.267	558.24
780.449	558.24
780.631	507.04
780.812	582.82
780.994	459.94
781.176	525.47
781.358	459.94
781.54	427.17
781.721	494.76
781.903	539.81
782.085	574.63
782.267	421.03
782.448	451.75
782.63	437.41
782.812	509.09
782.993	537.76
783.175	457.89
783.357	455.84
783.538	525.47
783.72	478.37
783.901	476.32
784.083	445.6
784.264	435.36
784.446	445.6
784.627	425.12
784.809	371.88
784.99	494.76
785.172	459.94
785.353	335.01
785.535	466.08
785.716	484.52
785.897	443.56
786.079	437.41
786.26	410.79
786.441	447.65
786.623	324.77
786.804	431.27
786.985	373.92
787.167	390.31
787.348	394.4
787.529	380.07
787.71	398.5
787.891	371.88
788.073	339.11
788.254	355.49
788.435	412.84
788.616	394.4
788.797	308.39
788.978	384.16
789.159	318.63
789.34	380.07
789.522	369.83
789.703	365.73
789.884	375.97
790.065	367.78
790.246	353.45
790.427	394.4
790.607	335.01
790.788	281.77
790.969	330.92
791.15	390.31
791.331	267.43
791.512	378.02
791.693	298.15
791.874	287.91
792.054	398.5
792.235	273.57
792.416	218.28
792.597	296.1
792.778	296.1
792.958	410.79
793.139	324.77
793.32	304.29
793.5	271.53
793.681	423.08
793.862	310.44
794.042	285.86
794.223	242.85
794.404	279.72
794.584	246.95
794.765	361.64
794.945	283.81
795.126	246.95
795.306	257.19
795.487	298.15
795.667	199.85
795.848	306.34
796.028	242.85
796.209	298.15
796.389	304.29
796.57	210.09
796.75	232.62
796.93	378.02
797.111	267.43
797.291	238.76
797.471	214.18
797.652	230.57
797.832	197.8
798.012	226.47
798.192	224.42
798.373	189.61
798.553	205.99
798.733	218.28
798.913	238.76
799.093	216.23
799.274	251.05
799.454	269.48
799.634	138.41
799.814	214.18
799.994	226.47
800.174	263.33
800.354	156.84
800.534	298.15
800.714	193.7
800.894	238.76
801.074	183.46
801.254	230.57
801.434	281.77
801.614	171.18
801.794	140.46
801.974	760.99
802.154	156.84
802.334	189.61
802.514	183.46
802.693	230.57
802.873	191.66
803.053	246.95
803.233	236.71
803.413	156.84
803.592	189.61
803.772	181.42
803.952	124.07
804.131	273.57
804.311	205.99
804.491	165.03
804.67	236.71
804.85	150.7
805.03	150.7
805.209	201.9
805.389	183.46
805.568	132.26
805.748	253.09
805.928	230.57
806.107	232.62
806.287	136.36
806.466	115.88
806.646	152.74
806.825	124.07
807.004	122.02
807.184	189.61
807.363	193.7
807.543	238.76
807.722	205.99
807.901	181.42
808.081	216.23
808.26	142.5
808.439	142.5
808.619	222.38
808.798	74.92
808.977	183.46
809.156	181.42
809.336	97.45
809.515	185.51
809.694	93.35
809.873	173.22
810.052	222.38
810.231	150.7
810.411	124.07
810.59	122.02
810.769	173.22
810.948	173.22
811.127	134.31
811.306	142.5
811.485	87.21
811.664	136.36
811.843	124.07
812.022	136.36
812.201	99.5
812.38	165.03
812.559	167.08
812.737	181.42
812.916	85.16
813.095	119.98
813.274	148.65
813.453	74.92
813.632	142.5
813.811	148.65
813.989	152.74
814.168	165.03
814.347	85.16
814.526	124.07
814.704	220.33
814.883	103.59
815.062	119.98
815.24	148.65
815.419	111.78
815.598	156.84
815.776	95.4
815.955	165.03
816.133	126.12
816.312	81.07
816.49	115.88
816.669	148.65
816.847	95.4
817.026	165.03
817.204	93.35
817.383	160.94
817.561	142.5
817.74	70.83
817.918	115.88
818.097	89.26
818.275	83.11
818.453	205.99
818.632	113.83
818.81	17.58
818.988	115.88
819.167	124.07
819.345	68.78
819.523	126.12
819.701	150.7
819.879	126.12
820.058	117.93
820.236	128.17
820.414	70.83
820.592	124.07
820.77	95.4
820.948	117.93
821.127	107.69
821.305	58.54
821.483	29.87
821.661	140.46
821.839	109.74
822.017	117.93
822.195	95.4
822.373	74.92
822.551	99.5
822.729	107.69
822.907	33.96
823.085	21.67
823.262	42.15
823.44	99.5
823.618	128.17
823.796	58.54
823.974	101.55
824.152	44.2
824.329	130.22
824.507	99.5
824.685	111.78
824.863	27.82
825.04	46.25
825.218	148.65
825.396	87.21
825.574	136.36
825.751	19.63
825.929	148.65
826.107	17.58
826.284	58.54
826.462	103.59
826.639	91.31
826.817	95.4
826.994	83.11
827.172	111.78
827.349	117.93
827.527	128.17
827.704	38.06
827.882	107.69
828.059	117.93
828.237	74.92
828.414	95.4
828.591	7.34
828.769	40.11
828.946	124.07
829.124	103.59
829.301	140.46
829.478	83.11
829.655	91.31
829.833	36.01
830.01	-4.95
830.187	72.87
830.364	111.78
830.542	132.26
830.719	167.08
830.896	52.39
831.073	91.31
831.25	115.88
831.427	66.73
831.604	36.01
831.782	33.96
831.959	85.16
832.136	79.02
832.313	19.63
832.49	95.4
832.667	115.88
832.844	-29.52
833.021	124.07
833.198	38.06
833.374	107.69
833.551	122.02
833.728	33.96
833.905	17.58
834.082	66.73
834.259	89.26
834.436	117.93
834.612	21.67
834.789	-7
834.966	38.06
835.143	76.97
835.319	36.01
835.496	124.07
835.673	83.11
835.85	5.29
836.026	11.43
836.203	97.45
836.38	9.39
836.556	89.26
836.733	-11.09
836.909	68.78
837.086	91.31
837.262	50.35
837.439	19.63
837.616	97.45
837.792	52.39
837.968	66.73
838.145	-7
838.321	74.92
838.498	66.73
838.674	-4.95
838.851	17.58
839.027	-2.9
839.203	-15.19
839.38	70.83
839.556	-13.14
839.732	79.02
839.909	46.25
840.085	50.35
840.261	-7
840.437	54.44
840.614	46.25
840.79	50.35
840.966	38.06
841.142	66.73
841.318	-66.39
841.494	62.63
841.671	-29.52
841.847	29.87
842.023	-27.48
842.199	83.11
842.375	25.77
842.551	31.91
842.727	52.39
842.903	44.2
843.079	17.58
843.255	101.55
843.431	-2.9
843.607	42.15
843.783	-4.95
843.959	-7
844.134	-35.67
844.31	99.5
844.486	58.54
844.662	-13.14
844.838	124.07
845.013	21.67
845.189	124.07
845.365	27.82
845.541	27.82
845.716	85.16
845.892	113.83
846.068	140.46
846.244	25.77
846.419	52.39
846.595	48.3
846.77	-39.76
846.946	64.68
847.122	-15.19
847.297	-7
847.473	189.61
847.648	27.82
847.824	60.59
847.999	-41.81
848.175	72.87
848.35	38.06
848.526	115.88
848.701	15.53
848.876	187.56
849.052	11.43
849.227	42.15
849.403	19.63
849.578	1.19
849.753	-0.85
849.929	25.77
850.104	25.77
850.279	17.58
850.454	85.16
850.63	62.63
850.805	-56.15
850.98	23.72
851.155	11.43
851.33	25.77
851.505	19.63
851.681	85.16
851.856	1.19
852.031	-21.33
852.206	5.29
852.381	17.58
852.556	1.19
852.731	50.35
852.906	11.43
853.081	62.63
853.256	87.21
853.431	48.3
853.606	40.11
853.781	7.34
853.956	-19.29
854.131	62.63
854.305	-9.05
854.48	50.35
854.655	3.24
854.83	50.35
855.005	25.77
855.18	29.87
855.354	33.96
855.529	15.53
855.704	9.39
855.879	38.06
856.053	-35.67
856.228	52.39
856.403	3.24
856.577	42.15
856.752	-80.72
856.926	13.48
857.101	3.24
857.276	58.54
857.45	64.68
857.625	-11.09
857.799	27.82
857.974	-7
858.148	-84.82
858.323	60.59
858.497	50.35
858.672	-17.24
858.846	13.48
859.02	27.82
859.195	-39.76
859.369	46.25
859.543	5.29
859.718	9.39
859.892	-15.19
860.066	38.06
860.241	-70.48
860.415	58.54
860.589	70.83
860.763	-47.96
860.938	17.58
861.112	-23.38
861.286	-62.29
861.46	25.77
861.634	-19.29
861.808	128.17
861.982	-4.95
862.157	44.2
862.331	3.24
862.505	46.25
862.679	50.35
862.853	-4.95
863.027	-19.29
863.201	38.06
863.375	-23.38
863.549	-47.96
863.722	-31.57
863.896	68.78
864.07	-58.2
864.244	21.67
864.418	-56.15
864.592	7.34
864.766	-13.14
864.939	42.15
865.113	-19.29
865.287	1.19
865.461	-23.38
865.634	-19.29
865.808	17.58
865.982	-31.57
866.156	9.39
866.329	-2.9
866.503	-0.85
866.676	5.29
866.85	83.11
867.024	5.29
867.197	25.77
867.371	33.96
867.544	-4.95
867.718	-39.76
867.891	46.25
868.065	11.43
868.238	17.58
868.412	52.39
868.585	-13.14
868.759	5.29
868.932	13.48
869.105	58.54
869.279	-7
869.452	-39.76
869.625	42.15
869.799	1.19
869.972	74.92
870.145	85.16
870.319	60.59
870.492	-35.67
870.665	-31.57
870.838	9.39
871.011	-9.05
871.185	-29.52
871.358	9.39
871.531	-15.19
871.704	58.54
871.877	-31.57
872.05	52.39
872.223	19.63
872.396	-13.14
872.569	-62.29
872.742	-31.57
872.915	42.15
873.088	42.15
873.261	17.58
873.434	42.15
873.607	3.24
873.78	-17.24
873.953	-13.14
874.126	3.24
874.299	97.45
874.471	3.24
874.644	1.19
874.817	-0.85
874.99	42.15
875.163	17.58
875.335	50.35
875.508	27.82
875.681	58.54
875.853	-31.57
876.026	33.96
876.199	-31.57
876.371	79.02
876.544	-45.91
876.717	-37.72
876.889	-21.33
877.062	42.15
877.234	-80.72
877.407	-68.44
877.579	-9.05
877.752	-21.33
877.924	58.54
878.097	-4.95
878.269	-35.67
878.442	54.44
878.614	-35.67
878.786	-13.14
878.959	19.63
879.131	1.19
879.303	-0.85
879.476	-19.29
879.648	9.39
879.82	-2.9
879.993	50.35
880.165	38.06
880.337	-105.3
880.509	17.58
880.681	-19.29
880.854	46.25
881.026	-60.24
881.198	60.59
881.37	-13.14
881.542	-29.52
881.714	-39.76
881.886	-7
882.058	19.63
882.23	17.58
882.402	-23.38
882.574	1.19
882.746	-23.38
882.918	66.73
883.09	25.77
883.262	62.63
883.434	-13.14
883.606	-58.2
883.778	7.34
883.95	52.39
884.122	-19.29
884.293	-4.95
884.465	66.73
884.637	-7
884.809	-35.67
884.98	-13.14
885.152	-19.29
885.324	-13.14
885.496	-4.95
885.667	-17.24
885.839	-19.29
886.011	83.11
886.182	27.82
886.354	-78.68
886.525	23.72
886.697	58.54
886.869	-62.29
887.04	27.82
887.212	-56.15
887.383	9.39
887.555	42.15
887.726	-39.76
887.897	27.82
888.069	-13.14
888.24	9.39
888.412	-52.05
888.583	-27.48
888.754	79.02
888.926	-13.14
889.097	-43.86
889.268	-62.29
889.44	1.19
889.611	-33.62
889.782	-62.29
889.953	-47.96
890.125	-4.95
890.296	-19.29
890.467	85.16
890.638	15.53
890.809	21.67
890.98	-29.52
891.151	54.44
891.323	1.19
891.494	54.44
891.665	1.19
891.836	-47.96
892.007	-23.38
892.178	52.39
892.349	40.11
892.52	1.19
892.691	-15.19
892.862	-15.19
893.032	-29.52
893.203	-0.85
893.374	-27.48
893.545	115.88
893.716	-29.52
893.887	23.72
894.057	52.39
894.228	33.96
894.399	-70.48
894.57	99.5
894.74	33.96
894.911	29.87
895.082	-21.33
895.253	-37.72
895.423	17.58
895.594	23.72
895.764	17.58
895.935	-19.29
896.106	-58.2
896.276	17.58
896.447	-39.76
896.617	-47.96
896.788	1.19
896.958	11.43
897.129	11.43
897.299	-31.57
897.47	-39.76
897.64	74.92
897.81	-39.76
897.981	66.73
898.151	-7
898.322	70.83
898.492	-0.85
898.662	-60.24
898.832	-56.15
899.003	38.06
899.173	9.39
899.343	-80.72
899.513	19.63
