Data from USB4F104151__251__14-22-36-861.txt Node

Date: Thu Mar 13 14:22:36 EDT 2025
User: louis
Spectrometer: USB4F10415
Trigger mode: 4
Integration Time (sec): 2.000000E-2
Scans to average: 1
Electric dark correction enabled: true
Nonlinearity correction enabled: false
Boxcar width: 0
XAxis mode: Wavelengths
Number of Pixels in Spectrum: 3648
>>>>>Begin Spectral Data<<<<<
178.204	-117.25
178.424	-117.25
178.644	-117.25
178.864	-135.68
179.084	-168.45
179.304	-57.86
179.524	-25.09
179.744	-14.85
179.964	15.87
180.184	-27.14
180.404	40.45
180.624	7.68
180.844	38.4
181.064	11.78
181.283	-16.9
181.503	-12.8
181.723	40.45
181.943	-45.57
182.163	83.45
182.383	-82.43
182.602	85.5
182.822	-0.51
183.042	50.69
183.262	91.65
183.482	26.11
183.701	32.26
183.921	-14.85
184.141	24.06
184.361	81.41
184.58	56.83
184.8	-2.56
185.02	65.02
185.239	97.79
185.459	5.63
185.679	24.06
185.898	-16.9
186.118	50.69
186.338	67.07
186.557	1.54
186.777	-14.85
186.997	-10.75
187.216	-33.28
187.436	24.06
187.655	26.11
187.875	24.06
188.095	112.13
188.314	3.58
188.534	93.69
188.753	-4.61
188.973	24.06
189.192	85.5
189.412	-6.66
189.631	73.21
189.851	11.78
190.07	15.87
190.29	-8.7
190.509	40.45
190.729	-0.51
190.948	73.21
191.168	79.36
191.387	85.5
191.607	7.68
191.826	32.26
192.045	1.54
192.265	28.16
192.484	85.5
192.704	26.11
192.923	9.73
193.142	46.59
193.362	24.06
193.581	17.92
193.8	34.3
194.02	34.3
194.239	40.45
194.458	26.11
194.678	30.21
194.897	-2.56
195.116	-20.99
195.335	17.92
195.555	-74.24
195.774	48.64
195.993	-0.51
196.212	65.02
196.432	32.26
196.651	-25.09
196.87	26.11
197.089	148.99
197.308	52.74
197.528	9.73
197.747	52.74
197.966	1.54
198.185	132.61
198.404	46.59
198.623	77.31
198.842	120.32
199.062	62.98
199.281	89.6
199.5	-39.42
199.719	42.5
199.938	79.36
200.157	65.02
200.376	24.06
200.595	48.64
200.814	7.68
201.033	7.68
201.252	60.93
201.471	-10.75
201.69	58.88
201.909	42.5
202.128	40.45
202.347	1.54
202.566	34.3
202.785	-27.14
203.004	-16.9
203.223	79.36
203.442	32.26
203.661	7.68
203.879	-45.57
204.098	81.41
204.317	-20.99
204.536	73.21
204.755	50.69
204.974	65.02
205.193	44.54
205.411	42.5
205.63	11.78
205.849	69.12
206.068	-12.8
206.287	40.45
206.505	22.02
206.724	65.02
206.943	-49.66
207.162	-53.76
207.381	7.68
207.599	48.64
207.818	44.54
208.037	67.07
208.255	-14.85
208.474	-49.66
208.693	67.07
208.911	17.92
209.13	40.45
209.349	44.54
209.567	65.02
209.786	101.89
210.005	73.21
210.223	32.26
210.442	44.54
210.661	7.68
210.879	28.16
211.098	3.58
211.316	40.45
211.535	65.02
211.753	-8.7
211.972	-25.09
212.191	-57.86
212.409	50.69
212.628	-37.38
212.846	15.87
213.065	77.31
213.283	159.23
213.502	58.88
213.72	36.35
213.938	11.78
214.157	83.45
214.375	38.4
214.594	50.69
214.812	-16.9
215.031	38.4
215.249	42.5
215.467	40.45
215.686	56.83
215.904	1.54
216.122	-0.51
216.341	-12.8
216.559	77.31
216.778	3.58
216.996	32.26
217.214	13.82
217.432	52.74
217.651	-61.95
217.869	-51.71
218.087	83.45
218.306	36.35
218.524	44.54
218.742	-0.51
218.96	9.73
219.179	36.35
219.397	83.45
219.615	52.74
219.833	56.83
220.051	-2.56
220.27	93.69
220.488	36.35
220.706	56.83
220.924	65.02
221.142	34.3
221.36	38.4
221.578	69.12
221.796	24.06
222.015	1.54
222.233	65.02
222.451	85.5
222.669	9.73
222.887	19.97
223.105	93.69
223.323	60.93
223.541	69.12
223.759	67.07
223.977	15.87
224.195	46.59
224.413	13.82
224.631	54.78
224.849	9.73
225.067	99.84
225.285	26.11
225.503	-8.7
225.721	-23.04
225.939	15.87
226.157	-37.38
226.375	58.88
226.592	7.68
226.81	-14.85
227.028	122.37
227.246	99.84
227.464	17.92
227.682	-49.66
227.9	19.97
228.117	22.02
228.335	-41.47
228.553	-12.8
228.771	36.35
228.989	15.87
229.206	-27.14
229.424	69.12
229.642	13.82
229.86	-16.9
230.077	-8.7
230.295	50.69
230.513	-0.51
230.731	26.11
230.948	67.07
231.166	97.79
231.384	-74.24
231.601	-12.8
231.819	17.92
232.037	24.06
232.254	24.06
232.472	15.87
232.689	-4.61
232.907	3.58
233.125	-39.42
233.342	3.58
233.56	28.16
233.777	-0.51
233.995	24.06
234.213	75.26
234.43	-47.62
234.648	-18.94
234.865	38.4
235.083	56.83
235.3	-2.56
235.518	60.93
235.735	110.08
235.953	9.73
236.17	-20.99
236.388	95.74
236.605	-0.51
236.822	11.78
237.04	89.6
237.257	-14.85
237.475	13.82
237.692	48.64
237.909	69.12
238.127	56.83
238.344	5.63
238.562	32.26
238.779	-49.66
238.996	7.68
239.214	3.58
239.431	73.21
239.648	15.87
239.865	71.17
240.083	58.88
240.3	11.78
240.517	-70.14
240.735	42.5
240.952	48.64
241.169	56.83
241.386	24.06
241.603	44.54
241.821	1.54
242.038	85.5
242.255	22.02
242.472	9.73
242.689	60.93
242.907	65.02
243.124	40.45
243.341	-23.04
243.558	15.87
243.775	36.35
243.992	-80.38
244.209	-25.09
244.426	114.17
244.643	56.83
244.86	58.88
245.078	-0.51
245.295	44.54
245.512	-47.62
245.729	40.45
245.946	105.98
246.163	34.3
246.38	-74.24
246.597	73.21
246.814	-16.9
247.031	15.87
247.248	42.5
247.464	1.54
247.681	36.35
247.898	-8.7
248.115	42.5
248.332	38.4
248.549	-8.7
248.766	58.88
248.983	7.68
249.2	5.63
249.417	89.6
249.633	1.54
249.85	-16.9
250.067	-61.95
250.284	17.92
250.501	65.02
250.717	65.02
250.934	-20.99
251.151	15.87
251.368	-57.86
251.585	60.93
251.801	17.92
252.018	-57.86
252.235	83.45
252.451	7.68
252.668	-12.8
252.885	93.69
253.102	-8.7
253.318	-14.85
253.535	11.78
253.752	15.87
253.968	-8.7
254.185	-12.8
254.401	7.68
254.618	15.87
254.835	52.74
255.051	73.21
255.268	67.07
255.484	91.65
255.701	19.97
255.917	3.58
256.134	15.87
256.351	99.84
256.567	19.97
256.784	34.3
257	9.73
257.217	83.45
257.433	-0.51
257.65	77.31
257.866	97.79
258.082	-8.7
258.299	-2.56
258.515	1.54
258.732	11.78
258.948	-6.66
259.165	13.82
259.381	-23.04
259.597	58.88
259.814	-33.28
260.03	42.5
260.246	15.87
260.463	-0.51
260.679	32.26
260.895	15.87
261.112	7.68
261.328	11.78
261.544	48.64
261.761	24.06
261.977	58.88
262.193	5.63
262.409	75.26
262.626	40.45
262.842	11.78
263.058	7.68
263.274	73.21
263.49	36.35
263.707	26.11
263.923	-10.75
264.139	36.35
264.355	15.87
264.571	15.87
264.787	32.26
265.004	124.41
265.22	22.02
265.436	-6.66
265.652	60.93
265.868	73.21
266.084	-16.9
266.3	36.35
266.516	-2.56
266.732	7.68
266.948	-25.09
267.164	40.45
267.38	79.36
267.596	60.93
267.812	62.98
268.028	71.17
268.244	-61.95
268.46	15.87
268.676	-0.51
268.892	65.02
269.108	-47.62
269.324	-39.42
269.54	11.78
269.756	26.11
269.972	3.58
270.188	40.45
270.403	91.65
270.619	1.54
270.835	-10.75
271.051	40.45
271.267	19.97
271.483	15.87
271.698	26.11
271.914	13.82
272.13	-4.61
272.346	32.26
272.562	52.74
272.777	28.16
272.993	83.45
273.209	36.35
273.425	-4.61
273.64	24.06
273.856	7.68
274.072	26.11
274.287	44.54
274.503	114.17
274.719	50.69
274.934	7.68
275.15	-41.47
275.366	3.58
275.581	7.68
275.797	60.93
276.012	60.93
276.228	-14.85
276.444	-6.66
276.659	58.88
276.875	48.64
277.09	32.26
277.306	-23.04
277.521	17.92
277.737	34.3
277.952	73.21
278.168	56.83
278.383	7.68
278.599	52.74
278.814	11.78
279.03	34.3
279.245	60.93
279.461	67.07
279.676	28.16
279.892	-0.51
280.107	15.87
280.322	32.26
280.538	48.64
280.753	56.83
280.969	-45.57
281.184	56.83
281.399	118.27
281.615	-53.76
281.83	42.5
282.045	-90.62
282.26	-12.8
282.476	3.58
282.691	122.37
282.906	50.69
283.122	13.82
283.337	34.3
283.552	26.11
283.767	-16.9
283.983	17.92
284.198	38.4
284.413	42.5
284.628	42.5
284.843	1.54
285.058	15.87
285.274	17.92
285.489	42.5
285.704	81.41
285.919	32.26
286.134	42.5
286.349	9.73
286.564	48.64
286.779	24.06
286.995	67.07
287.21	17.92
287.425	48.64
287.64	32.26
287.855	15.87
288.07	-16.9
288.285	-33.28
288.5	99.84
288.715	128.51
288.93	-14.85
289.145	22.02
289.36	91.65
289.575	28.16
289.79	17.92
290.004	-12.8
290.219	36.35
290.434	28.16
290.649	-82.43
290.864	-4.61
291.079	-16.9
291.294	-12.8
291.509	24.06
291.724	108.03
291.938	11.78
292.153	7.68
292.368	17.92
292.583	9.73
292.798	58.88
293.012	36.35
293.227	-39.42
293.442	62.98
293.657	5.63
293.871	73.21
294.086	52.74
294.301	62.98
294.516	110.08
294.73	-8.7
294.945	-41.47
295.16	60.93
295.374	56.83
295.589	44.54
295.804	15.87
296.018	65.02
296.233	48.64
296.447	58.88
296.662	91.65
296.877	54.78
297.091	15.87
297.306	5.63
297.52	-47.62
297.735	9.73
297.949	17.92
298.164	71.17
298.378	7.68
298.593	89.6
298.807	-23.04
299.022	-8.7
299.236	-8.7
299.451	17.92
299.665	-8.7
299.88	-16.9
300.094	52.74
300.309	-12.8
300.523	48.64
300.737	81.41
300.952	24.06
301.166	28.16
301.381	-8.7
301.595	9.73
301.809	-70.14
302.024	7.68
302.238	85.5
302.452	36.35
302.667	32.26
302.881	71.17
303.095	-10.75
303.309	24.06
303.524	7.68
303.738	38.4
303.952	-18.94
304.166	30.21
304.381	-41.47
304.595	34.3
304.809	19.97
305.023	65.02
305.237	34.3
305.452	-4.61
305.666	32.26
305.88	79.36
306.094	26.11
306.308	-20.99
306.522	46.59
306.736	34.3
306.95	7.68
307.164	65.02
307.379	15.87
307.593	122.37
307.807	3.58
308.021	32.26
308.235	65.02
308.449	-23.04
308.663	-18.94
308.877	97.79
309.091	40.45
309.305	69.12
309.519	1.54
309.733	-23.04
309.947	1.54
310.161	26.11
310.374	48.64
310.588	62.98
310.802	28.16
311.016	67.07
311.23	58.88
311.444	-20.99
311.658	50.69
311.872	52.74
312.085	79.36
312.299	26.11
312.513	30.21
312.727	-16.9
312.941	22.02
313.154	-0.51
313.368	24.06
313.582	-6.66
313.796	17.92
314.009	-20.99
314.223	114.17
314.437	32.26
314.651	3.58
314.864	58.88
315.078	1.54
315.292	-0.51
315.505	-0.51
315.719	50.69
315.933	67.07
316.146	155.13
316.36	15.87
316.573	24.06
316.787	71.17
317.001	42.5
317.214	-33.28
317.428	54.78
317.641	-25.09
317.855	65.02
318.068	-25.09
318.282	5.63
318.495	54.78
318.709	91.65
318.922	58.88
319.136	114.17
319.349	15.87
319.563	73.21
319.776	93.69
319.99	-37.38
320.203	95.74
320.417	67.07
320.63	40.45
320.843	62.98
321.057	56.83
321.27	40.45
321.483	62.98
321.697	28.16
321.91	28.16
322.124	24.06
322.337	32.26
322.55	83.45
322.763	-45.57
322.977	40.45
323.19	95.74
323.403	15.87
323.617	58.88
323.83	9.73
324.043	77.31
324.256	-8.7
324.469	13.82
324.683	30.21
324.896	-6.66
325.109	-0.51
325.322	-64
325.535	65.02
325.748	69.12
325.962	-25.09
326.175	42.5
326.388	91.65
326.601	40.45
326.814	-29.18
327.027	7.68
327.24	142.85
327.453	9.73
327.666	38.4
327.879	-10.75
328.092	48.64
328.305	34.3
328.518	-0.51
328.731	-2.56
328.944	15.87
329.157	-14.85
329.37	42.5
329.583	50.69
329.796	83.45
330.009	40.45
330.222	22.02
330.435	56.83
330.648	3.58
330.861	-8.7
331.073	116.22
331.286	62.98
331.499	36.35
331.712	67.07
331.925	-0.51
332.138	52.74
332.35	83.45
332.563	56.83
332.776	32.26
332.989	-49.66
333.202	7.68
333.414	7.68
333.627	36.35
333.84	-25.09
334.053	15.87
334.265	-31.23
334.478	-0.51
334.691	-8.7
334.903	67.07
335.116	-16.9
335.329	75.26
335.541	-14.85
335.754	11.78
335.966	28.16
336.179	40.45
336.392	40.45
336.604	-12.8
336.817	11.78
337.029	81.41
337.242	-0.51
337.454	22.02
337.667	-0.51
337.88	67.07
338.092	103.93
338.305	54.78
338.517	124.41
338.729	48.64
338.942	34.3
339.154	-55.81
339.367	-16.9
339.579	46.59
339.792	-8.7
340.004	26.11
340.217	44.54
340.429	97.79
340.641	-33.28
340.854	15.87
341.066	9.73
341.278	79.36
341.491	60.93
341.703	56.83
341.915	-37.38
342.128	60.93
342.34	87.55
342.552	1.54
342.764	60.93
342.977	48.64
343.189	-57.86
343.401	50.69
343.613	-20.99
343.826	-0.51
344.038	22.02
344.25	36.35
344.462	-4.61
344.674	7.68
344.886	24.06
345.099	9.73
345.311	40.45
345.523	42.5
345.735	1.54
345.947	7.68
346.159	65.02
346.371	67.07
346.583	-0.51
346.795	56.83
347.007	17.92
347.219	69.12
347.431	1.54
347.643	-6.66
347.855	17.92
348.067	79.36
348.279	7.68
348.491	-14.85
348.703	-37.38
348.915	15.87
349.127	32.26
349.339	71.17
349.551	32.26
349.763	71.17
349.975	32.26
350.187	56.83
350.399	38.4
350.61	28.16
350.822	81.41
351.034	65.02
351.246	52.74
351.458	56.83
351.669	75.26
351.881	110.08
352.093	-8.7
352.305	175.61
352.517	40.45
352.728	56.83
352.94	73.21
353.152	-18.94
353.363	-41.47
353.575	81.41
353.787	42.5
353.999	-16.9
354.21	36.35
354.422	7.68
354.633	-2.56
354.845	32.26
355.057	116.22
355.268	32.26
355.48	19.97
355.692	-0.51
355.903	81.41
356.115	3.58
356.326	32.26
356.538	67.07
356.749	69.12
356.961	99.84
357.172	56.83
357.384	-25.09
357.595	114.17
357.807	46.59
358.018	26.11
358.23	32.26
358.441	81.41
358.653	9.73
358.864	67.07
359.075	-12.8
359.287	9.73
359.498	-27.14
359.709	-49.66
359.921	60.93
360.132	46.59
360.344	32.26
360.555	101.89
360.766	9.73
360.977	15.87
361.189	89.6
361.4	-4.61
361.611	146.94
361.823	65.02
362.034	48.64
362.245	-12.8
362.456	26.11
362.667	77.31
362.879	13.82
363.09	105.98
363.301	26.11
363.512	-61.95
363.723	30.21
363.935	32.26
364.146	42.5
364.357	34.3
364.568	52.74
364.779	-16.9
364.99	85.5
365.201	-6.66
365.412	54.78
365.623	5.63
365.834	9.73
366.045	85.5
366.256	89.6
366.467	56.83
366.678	-33.28
366.889	9.73
367.1	114.17
367.311	19.97
367.522	44.54
367.733	15.87
367.944	34.3
368.155	34.3
368.366	42.5
368.577	-39.42
368.788	114.17
368.999	-16.9
369.209	-10.75
369.42	130.56
369.631	36.35
369.842	36.35
370.053	48.64
370.264	46.59
370.474	40.45
370.685	-20.99
370.896	32.26
371.107	34.3
371.317	48.64
371.528	1.54
371.739	81.41
371.95	-18.94
372.16	69.12
372.371	-10.75
372.582	15.87
372.792	81.41
373.003	-0.51
373.214	24.06
373.424	40.45
373.635	15.87
373.846	40.45
374.056	28.16
374.267	26.11
374.477	67.07
374.688	28.16
374.898	26.11
375.109	50.69
375.319	7.68
375.53	73.21
375.74	7.68
375.951	28.16
376.161	112.13
376.372	97.79
376.582	105.98
376.793	26.11
377.003	54.78
377.214	89.6
377.424	7.68
377.635	110.08
377.845	7.68
378.055	75.26
378.266	17.92
378.476	56.83
378.686	22.02
378.897	40.45
379.107	58.88
379.317	48.64
379.528	42.5
379.738	81.41
379.948	26.11
380.158	97.79
380.369	26.11
380.579	58.88
380.789	40.45
380.999	60.93
381.21	32.26
381.42	-29.18
381.63	-37.38
381.84	-4.61
382.05	-20.99
382.261	11.78
382.471	71.17
382.681	-18.94
382.891	9.73
383.101	-31.23
383.311	40.45
383.521	38.4
383.731	19.97
383.941	52.74
384.151	97.79
384.361	26.11
384.571	40.45
384.781	56.83
384.991	79.36
385.201	108.03
385.411	34.3
385.621	83.45
385.831	11.78
386.041	67.07
386.251	73.21
386.461	46.59
386.671	-0.51
386.881	32.26
387.091	44.54
387.301	69.12
387.511	-25.09
387.72	-4.61
387.93	73.21
388.14	54.78
388.35	159.23
388.56	32.26
388.769	36.35
388.979	46.59
389.189	19.97
389.399	60.93
389.609	24.06
389.818	114.17
390.028	30.21
390.238	120.32
390.447	-8.7
390.657	-16.9
390.867	52.74
391.076	71.17
391.286	32.26
391.496	71.17
391.705	9.73
391.915	77.31
392.125	65.02
392.334	95.74
392.544	93.69
392.753	67.07
392.963	28.16
393.172	52.74
393.382	-16.9
393.591	142.85
393.801	15.87
394.01	73.21
394.22	56.83
394.429	65.02
394.639	-12.8
394.848	77.31
395.058	38.4
395.267	77.31
395.477	87.55
395.686	24.06
395.895	110.08
396.105	138.75
396.314	38.4
396.524	15.87
396.733	44.54
396.942	97.79
397.152	19.97
397.361	42.5
397.57	142.85
397.78	42.5
397.989	56.83
398.198	101.89
398.407	77.31
398.617	81.41
398.826	108.03
399.035	77.31
399.244	73.21
399.453	-12.8
399.663	34.3
399.872	148.99
400.081	58.88
400.29	159.23
400.499	58.88
400.708	91.65
400.917	73.21
401.127	50.69
401.336	81.41
401.545	183.81
401.754	81.41
401.963	163.33
402.172	73.21
402.381	56.83
402.59	65.02
402.799	48.64
403.008	67.07
403.217	146.94
403.426	77.31
403.635	9.73
403.844	81.41
404.053	89.6
404.262	85.5
404.471	204.28
404.68	140.8
404.888	175.61
405.097	142.85
405.306	124.41
405.515	142.85
405.724	101.89
405.933	89.6
406.142	87.55
406.35	206.33
406.559	173.57
406.768	126.46
406.977	153.09
407.185	171.52
407.394	118.27
407.603	148.99
407.812	65.02
408.02	237.05
408.229	157.18
408.438	204.28
408.646	161.28
408.855	97.79
409.064	271.87
409.272	165.37
409.481	265.72
409.69	165.37
409.898	232.96
410.107	97.79
410.315	247.29
410.524	122.37
410.733	261.63
410.941	222.72
411.15	290.3
411.358	224.76
411.567	253.44
411.775	343.55
411.984	237.05
412.192	304.64
412.401	294.4
412.609	321.02
412.818	343.55
413.026	333.31
413.234	306.68
413.443	370.17
413.651	366.07
413.86	380.41
414.068	368.12
414.276	431.61
414.485	407.03
414.693	478.71
414.901	523.77
415.11	531.96
415.318	491
415.526	478.71
415.734	552.44
415.943	564.73
416.151	605.69
416.359	536.06
416.567	554.49
416.776	630.26
416.984	564.73
417.192	663.03
417.4	640.5
417.608	550.39
417.817	632.31
418.025	736.76
418.233	790
418.441	722.42
418.649	728.56
418.857	800.24
419.065	859.63
419.273	902.64
419.481	951.79
419.689	892.4
419.897	1027.57
420.105	986.61
420.313	1015.28
420.521	1033.71
420.729	1123.82
420.937	1072.62
421.145	1056.24
421.353	1211.89
421.561	1236.46
421.769	1230.32
421.977	1316.33
422.185	1345
422.393	1295.85
422.601	1457.64
422.809	1467.88
423.017	1623.53
423.224	1555.94
423.432	1625.58
423.64	1631.72
423.848	1822.18
424.056	1744.36
424.263	1811.94
424.471	1689.06
424.679	1875.43
424.887	1975.78
425.094	1994.21
425.302	2031.07
425.51	2121.18
425.718	2293.21
425.925	2213.34
426.133	2319.84
426.341	2477.53
426.548	2549.21
426.756	2575.83
426.964	2633.18
427.171	2743.77
427.379	2801.11
427.586	2799.06
427.794	2907.6
428.001	3077.59
428.209	3120.59
428.417	3040.72
428.624	3392.97
428.832	3323.34
429.039	3298.77
429.247	3206.61
429.454	3739.08
429.662	3980.74
429.869	3616.2
430.076	3777.99
430.284	3710.41
430.491	4072.9
430.699	4138.43
430.906	4142.53
431.114	4134.34
431.321	4273.6
431.528	4505.02
431.736	4767.16
431.943	4826.55
432.15	4844.98
432.358	4924.85
432.565	5105.07
432.772	5037.49
432.979	5393.84
433.187	5467.56
433.394	5324.21
433.601	5819.82
433.808	5926.31
434.016	5723.56
434.223	6079.91
434.43	6364.57
434.637	6071.72
434.844	6684.06
435.052	6692.25
435.259	6679.96
435.466	6825.37
435.673	6733.21
435.88	7126.42
436.087	7626.12
436.294	7603.6
436.501	7316.88
436.708	7413.13
436.915	7757.19
437.122	7947.65
437.329	8043.91
437.537	8430.98
437.743	8478.08
437.95	8412.54
438.157	8758.65
438.364	9094.52
438.571	9108.85
438.778	8996.21
438.985	10104.17
439.192	9553.26
439.399	9866.6
439.606	9575.79
439.813	10181.99
440.02	10841.43
440.227	10757.47
440.433	10698.08
440.64	10792.28
440.847	10716.51
441.054	11064.66
441.261	11820.36
441.467	11634
441.674	12072.26
441.881	12232.01
442.088	12346.69
442.294	12156.23
442.501	12254.53
442.708	12676.41
442.914	13190.45
443.121	13802.8
443.328	13653.3
443.534	14476.58
443.741	14034.22
443.948	13708.59
444.154	14765.34
444.361	14925.08
444.568	14740.77
444.774	14695.71
444.981	14689.57
445.187	15127.83
445.394	15998.22
445.6	15846.67
445.807	17409.27
446.013	16309.51
446.22	16803.07
446.426	17532.15
446.633	17546.48
446.839	18226.41
447.046	17505.52
447.252	18595.04
447.459	18570.47
447.665	18316.52
447.871	19264.73
448.078	20126.92
448.284	19188.96
448.491	19311.83
448.697	20427.98
448.903	20393.16
449.11	20702.4
449.316	20561.09
449.522	20899.01
449.728	21411
449.935	21458.1
450.141	21474.49
450.347	21986.48
450.553	21525.69
450.76	21695.67
450.966	22578.34
451.172	22160.56
451.378	22707.37
451.584	21937.33
451.791	22840.48
451.997	22717.61
452.203	23219.36
452.409	23329.95
452.615	22865.06
452.821	22267.05
453.027	22121.65
453.233	22955.17
453.44	22363.31
453.646	22686.89
453.852	22934.69
454.058	23262.37
454.264	22213.81
454.47	22709.41
454.676	22049.97
454.882	23053.47
455.088	21230.78
455.294	21490.87
455.5	21771.44
455.705	21927.09
455.911	20929.73
456.117	20604.1
456.323	20440.26
456.529	19442.9
456.735	20219.08
456.941	19475.67
457.147	19473.62
457.352	18883.81
457.558	18695.39
457.764	18586.85
457.97	18296.04
458.176	17908.97
458.381	18158.83
458.587	16940.29
458.793	17009.92
458.999	16205.06
459.204	17337.59
459.41	16956.67
459.616	15514.9
459.821	15803.66
460.027	15797.52
460.233	15410.45
460.438	14783.77
460.644	14986.52
460.85	14318.89
461.055	14001.45
461.261	14019.88
461.466	13110.58
461.672	12275.01
461.878	13532.47
462.083	12498.24
462.289	12082.5
462.494	12180.81
462.7	11720.01
462.905	11124.05
463.111	11734.35
463.316	11578.7
463.522	11421.01
463.727	11468.11
463.932	11414.87
464.138	11525.46
464.343	11562.32
464.549	11101.53
464.754	11128.15
464.959	11248.98
465.165	11074.9
465.37	10659.17
465.575	10425.7
465.781	10919.26
465.986	11117.91
466.191	10505.57
466.397	10616.16
466.602	9790.83
466.807	10339.68
467.012	10368.35
467.218	10163.56
467.423	9921.9
467.628	10083.69
467.833	10483.04
468.038	9962.86
468.244	9794.92
468.449	10280.29
468.654	9811.31
468.859	9766.25
469.064	9696.62
469.269	9364.85
469.474	9624.94
469.679	9790.83
469.885	9289.07
470.09	9514.35
470.295	9450.86
470.5	9153.91
470.705	9399.66
470.91	9227.64
471.115	9129.33
471.32	8859
471.525	9084.28
471.73	8940.92
471.935	8822.14
472.139	8461.69
472.344	8537.47
472.549	8445.31
472.754	8478.08
472.959	8252.8
473.164	8111.49
473.369	8183.17
473.574	8269.19
473.778	8187.27
473.983	7990.66
474.188	7988.61
474.393	7814.54
474.598	7822.73
474.802	7734.67
475.007	7716.23
475.212	7677.32
475.417	7232.91
475.621	7540.11
475.826	7411.09
476.031	7331.22
476.235	7173.52
476.44	7232.91
476.645	7112.08
476.849	7163.28
477.054	7030.16
477.259	7060.88
477.463	7003.54
477.668	6602.14
477.872	6763.93
478.077	6743.45
478.282	6589.85
478.486	6340
478.691	6516.12
478.895	6522.27
479.1	6477.21
479.304	6358.43
479.509	6145.44
479.713	6387.1
479.918	6278.56
480.122	6061.48
480.326	6239.65
480.531	6178.21
480.735	6112.67
480.94	6215.07
481.144	6294.94
481.348	5946.79
481.553	6047.14
481.757	5973.41
481.961	5975.46
482.166	5971.36
482.37	6002.08
482.574	5836.2
482.778	6028.71
482.983	5995.94
483.187	5965.22
483.391	5924.26
483.595	5930.41
483.8	5868.97
484.004	5971.36
484.208	5995.94
484.412	5963.17
484.616	5803.43
484.821	5889.45
485.025	5938.6
485.229	5997.99
485.433	5973.41
485.637	5832.1
485.841	5842.34
486.045	5881.25
486.249	5877.16
486.453	5848.49
486.657	5934.5
486.861	6071.72
487.065	5686.7
487.269	5995.94
487.473	5760.42
487.677	5969.32
487.881	5909.93
488.085	5871.01
488.289	5946.79
488.493	5864.87
488.697	5985.7
488.901	6067.62
489.105	5965.22
489.309	5795.24
489.512	6012.32
489.716	5954.98
489.92	5842.34
490.124	5948.84
490.328	6167.97
490.531	6145.44
490.735	5946.79
490.939	6106.53
491.143	5938.6
491.346	6198.69
491.55	6167.97
491.754	6147.49
491.958	6079.91
492.161	6153.63
492.365	6108.58
492.569	6210.98
492.772	6245.79
492.976	6360.48
493.18	6260.13
493.383	6301.09
493.587	6423.97
493.79	6610.33
493.994	6098.34
494.197	6415.77
494.401	6397.34
494.605	6518.17
494.808	6612.38
495.012	6659.48
495.215	6602.14
495.419	6923.67
495.622	6530.46
495.825	6890.9
496.029	6825.37
496.232	6970.77
496.436	6938.01
496.639	7071.12
496.843	6974.87
497.046	7292.3
497.249	7265.68
497.453	7357.84
497.656	7419.28
497.859	7357.84
498.063	7456.14
498.266	7576.97
498.469	7513.49
498.673	7650.7
498.876	7802.25
499.079	7792.01
499.282	7957.89
499.485	8226.18
499.689	8240.51
499.892	8258.95
500.095	8191.36
500.298	8418.69
500.501	8297.86
500.705	8572.29
500.908	8594.81
501.111	8916.34
501.314	8766.84
501.517	8799.61
501.72	8904.06
501.923	8691.07
502.126	9043.32
502.329	9274.74
502.532	9434.48
502.735	9452.91
502.938	9604.46
503.141	9340.27
503.344	9731.44
503.547	9835.88
503.75	9846.12
503.953	10079.59
504.156	10265.96
504.359	10349.92
504.562	10472.8
504.765	10501.47
504.968	10607.97
505.17	10734.94
505.373	10714.46
505.576	10986.84
505.779	10847.58
505.982	10939.74
506.185	11205.97
506.387	11267.41
506.59	11418.96
506.793	11488.59
506.996	11681.1
507.198	11871.56
507.401	12053.83
507.604	12000.58
507.807	12240.2
508.009	12385.6
508.212	12369.22
508.415	12328.26
508.617	12688.7
508.82	12846.4
509.022	12764.48
509.225	12946.75
509.428	13139.26
509.63	13204.79
509.833	13540.66
510.035	13645.1
510.238	13657.39
510.44	13940.01
510.643	14021.93
510.845	14062.89
511.048	14023.98
511.25	14312.74
511.453	14341.41
511.655	14929.18
511.858	14425.38
512.06	14845.21
512.262	14976.28
512.465	14949.66
512.667	15168.79
512.87	15181.08
513.072	15258.9
513.274	15957.26
513.477	15889.68
513.679	15779.09
513.881	16082.19
514.084	16399.62
514.286	16233.74
514.488	16424.2
514.69	16745.73
514.893	16964.86
515.095	17192.19
515.297	17165.56
515.499	17390.84
515.701	17222.91
515.904	17583.35
516.106	17865.97
516.308	17722.61
516.51	18246.89
516.712	18097.39
516.914	18443.49
517.116	18523.37
517.318	18656.48
517.52	18848.99
517.722	18904.29
517.925	19162.33
518.127	19465.43
518.329	19578.07
518.531	19506.39
518.733	19827.92
518.935	19791.06
519.136	19827.92
519.338	20145.36
519.54	20307.15
519.742	20376.78
519.944	20630.73
520.146	20993.22
520.348	20890.82
520.55	21068.99
520.752	21347.51
520.954	21621.94
521.155	21646.52
521.357	21796.02
521.559	21855.41
521.761	22547.62
521.963	21841.07
522.164	22340.78
522.366	22588.58
522.568	22703.27
522.77	22826.15
522.971	23168.16
523.173	22791.33
523.375	23233.69
523.576	23137.44
523.778	23403.67
523.98	23458.97
524.181	23536.79
524.383	23520.41
524.584	24183.95
524.786	24056.98
524.988	24026.26
525.189	24452.23
525.391	24317.07
525.592	24337.55
525.794	24654.98
525.995	25107.58
526.197	24489.1
526.398	24759.43
526.6	25296
526.801	24986.75
527.003	25173.12
527.204	25480.32
527.406	25289.85
527.607	25283.71
527.808	25640.06
528.01	25578.62
528.211	25554.04
528.412	25830.52
528.614	25830.52
528.815	25826.42
529.016	26016.88
529.218	25771.13
529.419	26143.86
529.62	26115.19
529.822	26020.98
530.023	26188.91
530.224	26326.13
530.425	25824.37
530.626	26178.67
530.828	26393.71
531.029	26725.48
531.23	26297.45
531.431	26674.28
531.632	26729.58
531.833	26387.57
532.035	26825.83
532.236	26825.83
532.437	26715.24
532.638	26952.8
532.839	26676.33
533.04	27059.3
533.241	26406
533.442	26920.04
533.643	26819.69
533.844	26975.33
534.045	27106.4
534.246	26739.82
534.447	27296.86
534.648	26735.72
534.849	26844.26
535.05	26645.61
535.251	26946.66
535.451	26879.08
535.652	26885.22
535.853	27004
536.054	26684.52
536.255	27022.44
536.456	26903.65
536.657	27333.73
536.857	26993.76
537.058	26954.85
537.259	27083.87
537.46	27157.6
537.66	26784.87
537.861	26913.89
538.062	26653.8
538.263	26698.86
538.463	26905.7
538.664	26633.32
538.865	27036.77
539.065	26956.9
539.266	26616.94
539.466	26891.37
539.667	26401.9
539.868	26983.52
540.068	26702.95
540.269	26887.27
540.469	27079.78
540.67	26543.21
540.87	26870.89
541.071	26401.9
541.271	26813.54
541.472	26455.15
541.672	26436.72
541.873	26827.88
542.073	26606.7
542.274	26991.72
542.474	26555.5
542.675	26365.04
542.875	26633.32
543.075	26590.31
543.276	26264.69
543.476	26692.71
543.676	26354.8
543.877	26680.42
544.077	26680.42
544.277	26559.59
544.478	26317.93
544.678	26612.84
544.878	26516.59
545.078	26598.51
545.279	26305.65
545.479	26342.51
545.679	26627.18
545.879	26618.99
546.079	26512.49
546.28	26297.45
546.48	26084.47
546.68	26516.59
546.88	26551.4
547.08	26713.19
547.28	26442.86
547.48	25967.73
547.68	26416.24
547.88	25926.77
548.081	26428.52
548.281	26481.77
548.481	26360.94
548.681	26260.59
548.881	26293.36
549.081	26403.95
549.28	26362.99
549.48	26295.41
549.68	26293.36
549.88	26813.54
550.08	26125.43
550.28	26643.56
550.48	26051.7
550.68	26254.45
550.88	26193.01
551.08	26420.33
551.279	26324.08
551.479	25934.96
551.679	26047.6
551.879	26111.09
552.079	26729.58
552.278	26066.03
552.478	26354.8
552.678	26512.49
552.878	26096.75
553.077	26219.63
553.277	26190.96
553.477	26231.92
553.676	26344.56
553.876	26029.17
554.076	25930.87
554.275	26274.93
554.475	25652.34
554.674	26254.45
554.874	26016.88
555.074	25875.57
555.273	26252.4
555.473	26209.39
555.672	25764.98
555.872	25908.34
556.071	26186.86
556.271	26254.45
556.47	25857.14
556.67	25255.04
556.869	25701.5
557.068	25697.4
557.268	25402.49
557.467	25660.54
557.667	25902.2
557.866	25629.82
558.065	25545.85
558.265	25396.35
558.464	25437.31
558.663	25535.61
558.863	25336.96
559.062	25805.94
559.261	25373.82
559.461	25846.9
559.66	24831.11
559.859	25300.09
560.058	25529.47
560.258	25179.26
560.457	25005.19
560.656	25312.38
560.855	25091.2
561.054	25312.38
561.253	25040
561.453	25027.71
561.652	25058.43
561.851	25453.69
562.05	25040
562.249	25052.29
562.448	24769.67
562.647	24888.45
562.846	24642.7
563.045	24923.27
563.244	24786.05
563.443	24900.74
563.642	24337.55
563.841	24351.88
564.04	24689.8
564.239	24712.33
564.438	24274.06
564.637	24253.58
564.836	24519.82
565.035	24278.16
565.234	24323.21
565.432	24200.33
565.631	24149.14
565.83	23981.2
566.029	23952.53
566.228	24032.4
566.427	23979.15
566.625	24048.79
566.824	23690.39
567.023	23882.9
567.222	23307.42
567.42	23868.56
567.619	23743.64
567.818	23698.58
568.016	23424.15
568.215	23614.62
568.414	23278.75
568.612	23483.55
568.811	23205.02
569.01	23131.3
569.208	23235.74
569.407	23352.48
569.605	23092.38
569.804	23309.47
570.002	23178.4
570.201	23143.58
570.4	22750.37
570.598	23178.4
570.797	23127.2
570.995	23028.9
571.193	22680.74
571.392	22924.45
571.59	22473.9
571.789	22625.45
571.987	22574.25
572.186	22572.2
572.384	22377.64
572.582	22351.02
572.781	22502.57
572.979	22115.5
573.177	22164.65
573.376	22480.04
573.574	22127.79
573.772	21959.86
573.971	21929.14
574.169	21740.72
574.367	21886.13
574.565	21802.16
574.763	21978.29
574.962	21945.52
575.16	21249.21
575.358	21710
575.556	21361.85
575.754	21879.99
575.952	21523.64
576.151	21761.2
576.349	21433.53
576.547	21421.24
576.745	21195.96
576.943	21374.14
577.141	21206.2
577.339	21089.47
577.537	21503.16
577.735	21155.01
577.933	20921.54
578.131	21365.95
578.329	20944.06
578.527	20741.32
578.725	20939.97
578.923	20903.11
579.121	20767.94
579.319	20655.3
579.516	20722.88
579.714	20720.84
579.912	20462.79
580.11	20421.83
580.308	20356.3
580.506	20454.6
580.704	20174.03
580.901	20415.69
581.099	20497.61
581.297	20061.39
581.495	20061.39
581.692	20100.3
581.89	20030.67
582.088	20180.17
582.285	20020.43
582.483	20122.83
582.681	19870.93
582.878	19815.63
583.076	19688.66
583.274	19889.36
583.471	19500.25
583.669	19555.54
583.866	19549.4
584.064	19651.8
584.262	19291.35
584.459	19633.36
584.657	19324.12
584.854	19342.55
585.052	19084.51
585.249	19490.01
585.447	19334.36
585.644	18939.1
585.841	19207.39
586.039	19014.88
586.236	18939.1
586.434	18904.29
586.631	18783.46
586.828	18861.28
587.026	18900.19
587.223	18867.42
587.42	18660.58
587.618	18521.32
587.815	18515.17
588.012	18373.86
588.21	18398.44
588.407	18580.71
588.604	18167.02
588.801	18126.06
588.999	18140.4
589.196	18089.2
589.393	18216.17
589.59	18062.57
589.787	17847.54
589.984	17849.58
590.182	17738.99
590.379	18005.23
590.576	17763.57
590.773	17788.14
590.97	17446.13
591.167	17589.49
591.364	17509.62
591.561	17681.65
591.758	17409.27
591.955	17585.4
592.152	17599.73
592.349	17206.52
592.546	17351.93
592.743	17267.96
592.94	16803.07
593.137	17288.44
593.334	17200.38
593.531	16930.05
593.727	17235.19
593.924	17112.31
594.121	16739.58
594.318	16887.04
594.515	16614.66
594.712	17194.23
594.908	16608.51
595.105	16610.56
595.302	16823.55
595.499	16717.06
595.696	16329.99
595.892	16657.67
596.089	16540.93
596.286	16219.4
596.482	16239.88
596.679	16129.29
596.876	16215.3
597.072	16227.59
597.269	16155.91
597.466	15967.5
597.662	16178.44
597.859	16076.04
598.055	15650.07
598.252	15815.95
598.448	16022.8
598.645	15650.07
598.841	15484.18
599.038	15701.26
599.234	15553.81
599.431	15432.98
599.627	15693.07
599.824	15557.91
600.02	15254.81
600.217	15271.19
600.413	15263
600.609	15269.14
600.806	15322.39
601.002	15211.8
601.198	15285.53
601.395	15050.01
601.591	15199.51
601.787	14941.47
601.984	14998.81
602.18	15078.68
602.376	15088.92
602.572	14771.49
602.769	14982.43
602.965	14712.1
603.161	14894.36
603.357	14640.42
603.553	14716.19
603.75	14576.93
603.946	14728.48
604.142	14689.57
604.338	14318.89
604.534	14687.52
604.73	14351.65
604.926	14443.81
605.122	14347.56
605.318	14333.22
605.514	14214.44
605.71	14267.69
605.906	14118.18
606.102	14304.55
606.298	14138.66
606.494	14071.08
606.69	14079.27
606.886	14103.85
607.082	13911.34
607.278	14069.03
607.474	13892.91
607.67	13819.18
607.866	13727.02
608.062	13729.07
608.257	13636.91
608.453	13677.87
608.649	13911.34
608.845	13655.34
609.041	13563.19
609.236	13540.66
609.432	13620.53
609.628	13600.05
609.824	13663.54
610.019	13602.1
610.215	13509.94
610.411	13647.15
610.606	13548.85
610.802	13477.17
610.998	13532.47
611.193	13319.48
611.389	13294.9
611.584	13182.26
611.78	13325.62
611.976	13270.33
612.171	13311.28
612.367	13309.24
612.562	13061.43
612.758	13083.96
612.953	13223.22
613.149	13090.1
613.344	13055.29
613.539	13362.48
613.735	13016.38
613.93	12959.03
614.126	12825.92
614.321	13057.34
614.517	12907.84
614.712	12938.55
614.907	12754.24
615.103	12959.03
615.298	12692.8
615.493	12811.58
615.688	12664.13
615.884	12991.8
616.079	12473.67
616.274	12741.95
616.47	12492.1
616.665	12838.2
616.86	12512.58
617.055	12481.86
617.25	12479.81
617.445	12801.34
617.641	12543.3
617.836	12569.92
618.031	12412.23
618.226	12582.21
618.421	12395.84
618.616	12500.29
618.811	12125.51
619.006	12244.29
619.201	12090.7
619.396	12336.45
619.591	11808.08
619.786	12211.53
619.981	11879.75
620.176	12148.04
620.371	11828.56
620.566	12033.35
620.761	12010.82
620.956	12035.4
621.151	11672.91
621.346	11711.82
621.541	11408.72
621.735	11697.49
621.93	11623.76
622.125	11541.84
622.32	11095.38
622.515	11378
622.709	11146.58
622.904	11169.11
623.099	11089.24
623.294	11445.59
623.488	10880.35
623.683	11195.73
623.878	10851.67
624.072	10866.01
624.267	10843.48
624.462	10747.23
624.656	10820.95
624.851	10949.98
625.046	10653.02
625.24	10526.05
625.435	10620.25
625.629	10431.84
625.824	10329.44
626.018	10560.86
626.213	10251.62
626.407	10337.63
626.602	10042.73
626.796	9995.62
626.991	10026.34
627.185	10104.17
627.38	9973.1
627.574	9739.63
627.768	9821.55
627.963	9964.9
628.157	9670
628.352	9809.26
628.546	9643.37
628.74	9629.04
628.935	9534.83
629.129	9563.5
629.323	9432.43
629.517	9338.23
629.712	9467.25
629.906	9567.6
630.1	9272.69
630.294	9260.4
630.489	9129.33
630.683	9297.27
630.877	9139.57
631.071	9069.94
631.265	8932.73
631.459	9102.71
631.653	8854.9
631.848	8963.45
632.042	8764.79
632.236	8789.37
632.43	8576.38
632.624	8633.72
632.818	8719.74
633.012	8646.01
633.206	8570.24
633.4	8555.9
633.594	8359.3
633.788	8496.51
633.982	8347.01
634.176	8568.19
634.369	8152.45
634.563	8158.6
634.757	8103.3
634.951	8142.21
635.145	8088.96
635.339	8080.77
635.533	8068.48
635.726	8060.29
635.92	7906.7
636.114	8031.62
636.308	7828.87
636.501	7931.27
636.695	8013.19
636.889	7611.79
637.083	7671.18
637.276	7650.7
637.47	7687.56
637.664	7626.12
637.857	7619.98
638.051	7517.58
638.244	7406.99
638.438	7402.9
638.632	7536.01
638.825	7216.53
639.019	7253.39
639.212	7212.43
639.406	7359.89
639.599	7105.94
639.793	7132.56
639.986	6946.2
640.18	7148.95
640.373	7210.39
640.567	6931.86
640.76	6974.87
640.954	7019.92
641.147	6745.5
641.34	7021.97
641.534	6911.38
641.727	6815.13
641.92	6956.44
642.114	6620.57
642.307	6643.1
642.5	6657.43
642.694	6483.36
642.887	6636.95
643.08	6716.83
643.273	6524.32
643.467	6487.45
643.66	6383.01
643.853	6245.79
644.046	6327.71
644.239	6342.05
644.432	6413.73
644.626	6198.69
644.819	6299.04
645.012	6198.69
645.205	6155.68
645.398	6215.07
645.591	5991.84
645.784	6012.32
645.977	6022.56
646.17	5883.3
646.363	5938.6
646.556	5954.98
646.749	5903.78
646.942	5852.58
647.135	5854.63
647.328	5768.62
647.521	5856.68
647.714	5727.66
647.907	5750.18
648.099	5680.55
648.292	5709.22
648.485	5594.54
648.678	5518.76
648.871	5520.81
649.064	5586.35
649.256	5686.7
649.449	5440.94
649.642	5414.32
649.835	5518.76
650.027	5442.99
650.22	5385.65
650.413	5283.25
650.605	5367.21
650.798	5424.56
650.991	5135.79
651.183	5301.68
651.376	5131.7
651.568	5195.18
651.761	5045.68
651.954	5174.71
652.146	5105.07
652.339	5086.64
652.531	5146.03
652.724	5225.9
652.916	4955.57
653.109	5072.31
653.301	5014.96
653.494	4931
653.686	4926.9
653.879	4922.8
654.071	4832.69
654.263	4765.11
654.456	4824.5
654.648	4847.03
654.84	4750.78
655.033	4711.86
655.225	4640.19
655.417	4656.57
655.61	4887.99
655.802	4703.67
655.994	4777.4
656.186	4685.24
656.379	4636.09
656.571	4492.73
656.763	4566.46
656.955	4619.71
657.148	4605.37
657.34	4472.25
657.532	4386.24
657.724	4376
657.916	4384.19
658.108	4400.57
658.3	4361.66
658.492	4232.64
658.684	4214.21
658.876	4187.58
659.068	4269.5
659.26	4408.76
659.452	4261.31
659.644	4087.23
659.836	4296.13
660.028	4312.51
660.22	4074.95
660.412	4218.3
660.604	4120
660.796	4113.86
660.988	4054.47
661.18	3898.82
661.372	4113.86
661.563	3943.88
661.755	4007.36
661.947	3972.55
662.139	3780.04
662.331	3984.84
662.522	3931.59
662.714	3915.2
662.906	3962.31
663.097	3864.01
663.289	3786.18
663.481	3898.82
663.673	3751.37
663.864	3745.22
664.056	3689.93
664.247	3726.79
664.439	3710.41
664.631	3565
664.822	3718.6
665.014	3626.44
665.205	3589.58
665.397	3653.06
665.588	3677.64
665.78	3601.87
665.971	3657.16
666.163	3757.51
666.354	3540.43
666.546	3581.39
666.737	3435.98
666.929	3556.81
667.12	3616.2
667.311	3542.47
667.503	3431.88
667.694	3478.99
667.885	3419.6
668.077	3417.55
668.268	3425.74
668.459	3579.34
668.651	3345.87
668.842	3489.23
669.033	3194.32
669.224	3358.16
669.416	3497.42
669.607	3225.04
669.798	3356.11
669.989	3417.55
670.18	3231.18
670.371	3012.05
670.563	3145.17
670.754	3274.19
670.945	3333.58
671.136	3245.52
671.327	3239.37
671.518	3284.43
671.709	3259.85
671.9	3233.23
672.091	3206.61
672.282	3124.69
672.473	3231.18
672.664	3005.91
672.855	3179.98
673.046	3159.5
673.237	3173.84
673.428	2993.62
673.619	3007.95
673.809	3141.07
674	3079.63
674.191	3028.43
674.382	2821.59
674.573	3122.64
674.764	3071.44
674.954	3222.99
675.145	2999.76
675.336	3014.1
675.527	2977.23
675.717	3014.1
675.908	3071.44
676.099	2975.19
676.289	2995.67
676.48	2946.52
676.671	2954.71
676.861	3110.35
677.052	2991.57
677.243	2928.08
677.433	2858.45
677.624	2901.46
677.814	3030.48
678.005	2926.04
678.195	2993.62
678.386	2899.41
678.576	2921.94
678.767	2915.8
678.957	2893.27
679.148	2876.88
679.338	3030.48
679.529	3042.77
679.719	2780.63
679.909	2825.68
680.1	2923.99
680.29	2917.84
680.481	2977.23
680.671	2883.03
680.861	2784.73
681.052	2854.36
681.242	2842.07
681.432	2923.99
681.622	2827.73
681.813	2833.88
682.003	2846.16
682.193	2762.2
682.383	2784.73
682.573	2776.53
682.764	2786.77
682.954	2821.59
683.144	2786.77
683.334	2835.92
683.524	2698.71
683.714	2811.35
683.904	2706.9
684.094	2629.08
684.284	2743.77
684.474	2733.53
684.664	2680.28
684.854	2751.96
685.044	2704.85
685.234	2702.81
685.424	2698.71
685.614	2713.05
685.804	2670.04
685.994	2842.07
686.184	2596.31
686.374	2678.23
686.564	2624.98
686.753	2678.23
686.943	2573.78
687.133	2672.09
687.323	2643.42
687.513	2688.47
687.702	2620.89
687.892	2688.47
688.082	2727.38
688.272	2670.04
688.461	2530.78
688.651	2565.59
688.841	2514.39
689.03	2590.17
689.22	2500.06
689.41	2518.49
689.599	2534.87
689.789	2455
689.979	2571.74
690.168	2522.59
690.358	2448.86
690.547	2412
690.737	2391.52
690.926	2459.1
691.116	2461.15
691.305	2444.76
691.495	2481.63
691.684	2287.07
691.874	2311.64
692.063	2489.82
692.252	2444.76
692.442	2383.32
692.631	2321.88
692.82	2465.24
693.01	2375.13
693.199	2239.97
693.388	2289.12
693.578	2354.65
693.767	2383.32
693.956	2229.73
694.146	2293.21
694.335	2313.69
694.524	2360.8
694.713	2278.88
694.902	2264.54
695.092	2260.45
695.281	2221.53
695.47	2260.45
695.659	2213.34
695.848	2188.77
696.037	2225.63
696.226	2239.97
696.415	2184.67
696.604	2246.11
696.793	2119.14
696.982	2176.48
697.171	2182.62
697.36	2211.29
697.549	2151.9
697.738	2139.62
697.927	2151.9
698.116	2219.49
698.305	2178.53
698.494	2131.42
698.683	2133.47
698.872	2239.97
699.061	2147.81
699.25	2133.47
699.438	2164.19
699.627	2127.33
699.816	2121.18
700.005	2055.65
700.193	2242.01
700.382	2168.29
700.571	2213.34
700.76	2080.22
700.948	2252.25
701.137	2231.77
701.326	2262.49
701.514	2051.55
701.703	2123.23
701.892	2096.61
702.08	2194.91
702.269	2178.53
702.457	2088.42
702.646	2080.22
702.834	2098.66
703.023	2145.76
703.212	2145.76
703.4	2235.87
703.589	2008.55
703.777	2162.14
703.965	2147.81
704.154	2067.94
704.342	2092.51
704.531	2033.12
704.719	1945.06
704.907	2080.22
705.096	2180.57
705.284	2164.19
705.472	2053.6
705.661	2051.55
705.849	2090.46
706.037	2162.14
706.226	2090.46
706.414	2143.71
706.602	2063.84
706.79	2129.38
706.979	1967.59
707.167	2143.71
707.355	2112.99
707.543	2053.6
707.731	2205.15
707.919	2051.55
708.107	2088.42
708.296	1943.01
708.484	2016.74
708.672	2106.85
708.86	2139.62
709.048	2102.75
709.236	2014.69
709.424	2053.6
709.612	1965.54
709.8	2047.46
709.988	1969.63
710.176	2088.42
710.364	2018.79
710.551	2024.93
710.739	2080.22
710.927	2088.42
711.115	2014.69
711.303	2047.46
711.491	2026.98
711.679	1928.67
711.866	2051.55
712.054	2074.08
712.242	1998.31
712.43	2069.98
712.617	1971.68
712.805	2006.5
712.993	2115.04
713.181	1971.68
713.368	2067.94
713.556	1971.68
713.744	2098.66
713.931	2141.66
714.119	2002.4
714.306	2047.46
714.494	2061.79
714.682	1938.91
714.869	2014.69
715.057	2063.84
715.244	1998.31
715.432	1940.96
715.619	2080.22
715.807	2020.83
715.994	2000.35
716.182	1983.97
716.369	2063.84
716.556	1988.07
716.744	2080.22
716.931	2051.55
717.119	2012.64
717.306	2041.31
717.493	2074.08
717.681	2002.4
717.868	2039.26
718.055	2133.47
718.242	1936.87
718.43	2029.03
718.617	2086.37
718.804	2035.17
718.991	2026.98
719.179	2076.13
719.366	2031.07
719.553	2078.18
719.74	1961.44
719.927	2098.66
720.114	1957.35
720.301	1992.16
720.488	1932.77
720.676	1983.97
720.863	2080.22
721.05	2016.74
721.237	2063.84
721.424	2078.18
721.611	2084.32
721.798	2039.26
721.985	2055.65
722.172	2010.59
722.358	1945.06
722.545	2010.59
722.732	1918.43
722.919	2156
723.106	2024.93
723.293	1940.96
723.48	2029.03
723.667	2039.26
723.853	2014.69
724.04	2043.36
724.227	2020.83
724.414	1994.21
724.6	2029.03
724.787	2012.64
724.974	2080.22
725.161	1904.1
725.347	1998.31
725.534	2139.62
725.72	2010.59
725.907	1979.87
726.094	2065.89
726.28	1998.31
726.467	1975.78
726.653	2006.5
726.84	2014.69
727.027	2059.74
727.213	1943.01
727.4	2051.55
727.586	1922.53
727.773	1922.53
727.959	1945.06
728.145	2067.94
728.332	1926.63
728.518	1932.77
728.705	1983.97
728.891	1983.97
729.077	2002.4
729.264	1904.1
729.45	1945.06
729.636	2100.7
729.823	1990.11
730.009	2000.35
730.195	2084.32
730.382	2008.55
730.568	2084.32
730.754	1869.28
730.94	1906.15
731.126	2100.7
731.313	2047.46
731.499	2047.46
731.685	2016.74
731.871	1943.01
732.057	1994.21
732.243	2029.03
732.429	2039.26
732.615	2010.59
732.801	2002.4
732.987	1854.95
733.173	1951.2
733.359	1996.26
733.545	2008.55
733.731	1988.07
733.917	1936.87
734.103	2014.69
734.289	2010.59
734.475	1900
734.661	2147.81
734.847	1883.62
735.033	2096.61
735.219	2008.55
735.404	1902.05
735.59	2055.65
735.776	1875.43
735.962	1871.33
736.148	1961.44
736.333	1932.77
736.519	1998.31
736.705	2026.98
736.89	1953.25
737.076	1924.58
737.262	1994.21
737.447	1953.25
737.633	1885.67
737.819	1879.52
738.004	2024.93
738.19	1992.16
738.375	1940.96
738.561	1945.06
738.747	1932.77
738.932	1869.28
739.118	1887.72
739.303	1940.96
739.489	1904.1
739.674	1852.9
739.859	1826.28
740.045	1920.48
740.23	1844.71
740.416	1818.08
740.601	1967.59
740.786	1801.7
740.972	1834.47
741.157	1809.89
741.342	1867.24
741.528	1754.6
741.713	1844.71
741.898	1752.55
742.084	1793.51
742.269	1803.75
742.454	1754.6
742.639	1766.89
742.824	1750.5
743.01	1834.47
743.195	1766.89
743.38	1721.83
743.565	1803.75
743.75	1859.04
743.935	1678.82
744.12	1750.5
744.305	1828.32
744.49	1656.29
744.675	1809.89
744.86	1795.56
745.045	1779.17
745.23	1730.02
745.415	1777.12
745.6	1705.45
745.785	1621.48
745.97	1662.44
746.155	1588.71
746.34	1631.72
746.525	1654.25
746.71	1654.25
746.895	1605.1
747.079	1598.95
747.264	1695.21
747.449	1564.14
747.634	1621.48
747.819	1668.58
748.003	1588.71
748.188	1502.7
748.373	1613.29
748.557	1545.7
748.742	1506.79
748.927	1435.11
749.111	1633.77
749.296	1566.18
749.481	1375.72
749.665	1506.79
749.85	1433.07
750.034	1388.01
750.219	1447.4
750.404	1412.59
750.588	1523.18
750.773	1420.78
750.957	1355.24
751.141	1414.63
751.326	1394.15
751.51	1347.05
751.695	1349.1
751.879	1361.39
752.064	1383.91
752.248	1328.62
752.432	1314.28
752.617	1363.44
752.801	1306.09
752.985	1318.38
753.17	1318.38
753.354	1285.61
753.538	1326.57
753.722	1304.04
753.907	1211.89
754.091	1275.37
754.275	1224.17
754.459	1230.32
754.643	1220.08
754.828	1248.75
755.012	1213.93
755.196	1146.35
755.38	1222.13
755.564	1195.5
755.748	1140.21
755.932	1189.36
756.116	1115.63
756.3	1207.79
756.484	1138.16
756.668	1160.69
756.852	1113.58
757.036	1154.54
757.22	1156.59
757.404	1158.64
757.588	1023.47
757.772	945.65
757.956	1072.62
758.14	1025.52
758.323	1015.28
758.507	1027.57
758.691	1011.18
758.875	1064.43
759.059	1093.1
759.242	1015.28
759.426	984.56
759.61	974.32
759.794	949.75
759.977	1078.77
760.161	978.42
760.345	941.55
760.528	1035.76
760.712	959.99
760.895	966.13
761.079	1002.99
761.263	902.64
761.446	912.88
761.63	921.07
761.813	1078.77
761.997	859.63
762.18	869.87
762.364	945.65
762.547	863.73
762.731	900.59
762.914	892.4
763.098	904.69
763.281	935.41
763.464	892.4
763.648	908.79
763.831	962.03
764.015	941.55
764.198	828.92
764.381	886.26
764.564	820.72
764.748	765.43
764.931	878.07
765.114	820.72
765.297	871.92
765.481	818.68
765.664	873.97
765.847	837.11
766.03	959.99
766.213	826.87
766.397	785.91
766.58	812.53
766.763	804.34
766.946	845.3
767.129	798.2
767.312	790
767.495	712.18
767.678	755.19
767.861	763.38
768.044	798.2
768.227	794.1
768.41	753.14
768.593	742.9
768.776	822.77
768.959	747
769.142	753.14
769.324	757.24
769.507	824.82
769.69	677.37
769.873	583.16
770.056	794.1
770.239	658.93
770.421	796.15
770.604	779.76
770.787	738.8
770.97	779.76
771.152	660.98
771.335	648.69
771.518	663.03
771.7	728.56
771.883	679.41
772.066	703.99
772.248	744.95
772.431	773.62
772.613	718.33
772.796	687.61
772.978	759.28
773.161	787.96
773.343	656.89
773.526	654.84
773.708	613.88
773.891	648.69
774.073	640.5
774.256	624.12
774.438	650.74
774.621	546.3
774.803	658.93
774.985	556.54
775.168	646.65
775.35	654.84
775.532	613.88
775.715	527.86
775.897	689.65
776.079	583.16
776.261	568.82
776.444	585.21
776.626	638.45
776.808	589.3
776.99	558.58
777.173	607.73
777.355	572.92
777.537	601.59
777.719	595.45
777.901	577.02
778.083	560.63
778.265	482.81
778.447	515.58
778.629	656.89
778.811	599.54
778.993	581.11
779.175	556.54
779.357	472.57
779.539	478.71
779.721	429.56
779.903	507.38
780.085	437.75
780.267	515.58
780.449	560.63
780.631	505.34
780.812	458.23
780.994	468.47
781.176	433.66
781.358	441.85
781.54	458.23
781.721	458.23
781.903	472.57
782.085	433.66
782.267	388.6
782.448	462.33
782.63	421.37
782.812	503.29
782.993	409.08
783.175	439.8
783.357	353.79
783.538	402.94
783.72	417.27
783.901	355.83
784.083	433.66
784.264	415.23
784.446	407.03
784.627	343.55
784.809	429.56
784.99	409.08
785.172	425.47
785.353	450.04
785.535	368.12
785.716	331.26
785.897	417.27
786.079	337.4
786.26	288.25
786.441	343.55
786.623	349.69
786.804	306.68
786.985	347.64
787.167	343.55
787.348	298.49
787.529	290.3
787.71	376.31
787.891	325.12
788.073	343.55
788.254	345.59
788.435	364.03
788.616	364.03
788.797	278.01
788.978	331.26
789.159	310.78
789.34	280.06
789.522	372.22
789.703	321.02
789.884	331.26
790.065	376.31
790.246	304.64
790.427	232.96
790.607	327.16
790.788	327.16
790.969	302.59
791.15	359.93
791.331	230.91
791.512	294.4
791.693	251.39
791.874	329.21
792.054	278.01
792.235	337.4
792.416	265.72
792.597	286.2
792.778	282.11
792.958	269.82
793.139	245.24
793.32	273.92
793.5	214.52
793.681	237.05
793.862	294.4
794.042	249.34
794.223	204.28
794.404	208.38
794.584	245.24
794.765	245.24
794.945	220.67
795.126	251.39
795.306	253.44
795.487	218.62
795.667	267.77
795.848	261.63
796.028	261.63
796.209	269.82
796.389	325.12
796.57	185.85
796.75	196.09
796.93	204.28
797.111	214.52
797.291	183.81
797.471	183.81
797.652	292.35
797.832	341.5
798.012	206.33
798.192	155.13
798.373	208.38
798.553	171.52
798.733	278.01
798.913	171.52
799.093	155.13
799.274	206.33
799.454	318.97
799.634	228.86
799.814	249.34
799.994	159.23
800.174	249.34
800.354	189.95
800.534	181.76
800.714	247.29
800.894	192
801.074	237.05
801.254	204.28
801.434	253.44
801.614	228.86
801.794	185.85
801.974	638.45
802.154	198.14
802.334	185.85
802.514	196.09
802.693	173.57
802.873	89.6
803.053	255.48
803.233	175.61
803.413	202.24
803.592	118.27
803.772	175.61
803.952	198.14
804.131	163.33
804.311	226.81
804.491	189.95
804.67	187.9
804.85	192
805.03	173.57
805.209	200.19
805.389	140.8
805.568	210.43
805.748	169.47
805.928	165.37
806.107	241.15
806.287	206.33
806.466	212.48
806.646	189.95
806.825	105.98
807.004	228.86
807.184	122.37
807.363	157.18
807.543	112.13
807.722	146.94
807.901	202.24
808.081	181.76
808.26	50.69
808.439	138.75
808.619	151.04
808.798	134.65
808.977	148.99
809.156	116.22
809.336	232.96
809.515	144.89
809.694	134.65
809.873	206.33
810.052	130.56
810.231	99.84
810.411	179.71
810.59	206.33
810.769	128.51
810.948	189.95
811.127	87.55
811.306	130.56
811.485	161.28
811.664	204.28
811.843	130.56
812.022	146.94
812.201	108.03
812.38	183.81
812.559	108.03
812.737	151.04
812.916	163.33
813.095	132.61
813.274	97.79
813.453	155.13
813.632	142.85
813.811	142.85
813.989	165.37
814.168	108.03
814.347	148.99
814.526	179.71
814.704	167.42
814.883	204.28
815.062	134.65
815.24	108.03
815.419	116.22
815.598	134.65
815.776	196.09
815.955	138.75
816.133	7.68
816.312	175.61
816.49	105.98
816.669	7.68
816.847	116.22
817.026	122.37
817.204	81.41
817.383	56.83
817.561	46.59
817.74	134.65
817.918	81.41
818.097	81.41
818.275	89.6
818.453	232.96
818.632	103.93
818.81	148.99
818.988	58.88
819.167	101.89
819.345	60.93
819.523	136.7
819.701	56.83
819.879	83.45
820.058	91.65
820.236	124.41
820.414	44.54
820.592	163.33
820.77	97.79
820.948	89.6
821.127	126.46
821.305	130.56
821.483	89.6
821.661	124.41
821.839	118.27
822.017	89.6
822.195	75.26
822.373	159.23
822.551	89.6
822.729	79.36
822.907	155.13
823.085	138.75
823.262	151.04
823.44	48.64
823.618	101.89
823.796	91.65
823.974	67.07
824.152	101.89
824.329	99.84
824.507	56.83
824.685	112.13
824.863	85.5
825.04	75.26
825.218	114.17
825.396	83.45
825.574	134.65
825.751	75.26
825.929	130.56
826.107	157.18
826.284	91.65
826.462	54.78
826.639	60.93
826.817	40.45
826.994	75.26
827.172	85.5
827.349	146.94
827.527	128.51
827.704	95.74
827.882	83.45
828.059	17.92
828.237	173.57
828.414	71.17
828.591	15.87
828.769	62.98
828.946	73.21
829.124	58.88
829.301	142.85
829.478	93.69
829.655	44.54
829.833	85.5
830.01	-55.81
830.187	146.94
830.364	58.88
830.542	79.36
830.719	28.16
830.896	75.26
831.073	81.41
831.25	91.65
831.427	38.4
831.604	46.59
831.782	73.21
831.959	108.03
832.136	97.79
832.313	48.64
832.49	24.06
832.667	73.21
832.844	26.11
833.021	155.13
833.198	24.06
833.374	34.3
833.551	56.83
833.728	83.45
833.905	114.17
834.082	67.07
834.259	67.07
834.436	22.02
834.612	114.17
834.789	83.45
834.966	19.97
835.143	24.06
835.319	-10.75
835.496	44.54
835.673	81.41
835.85	65.02
836.026	73.21
836.203	128.51
836.38	-2.56
836.556	89.6
836.733	67.07
836.909	112.13
837.086	77.31
837.262	-31.23
837.439	89.6
837.616	24.06
837.792	52.74
837.968	34.3
838.145	-33.28
838.321	71.17
838.498	120.32
838.674	103.93
838.851	26.11
839.027	32.26
839.203	60.93
839.38	32.26
839.556	93.69
839.732	69.12
839.909	11.78
840.085	173.57
840.261	34.3
840.437	34.3
840.614	85.5
840.79	85.5
840.966	81.41
841.142	42.5
841.318	103.93
841.494	99.84
841.671	32.26
841.847	24.06
842.023	26.11
842.199	75.26
842.375	99.84
842.551	17.92
842.727	-49.66
842.903	50.69
843.079	52.74
843.255	65.02
843.431	9.73
843.607	34.3
843.783	11.78
843.959	56.83
844.134	42.5
844.31	-33.28
844.486	7.68
844.662	42.5
844.838	91.65
845.013	89.6
845.189	24.06
845.365	-8.7
845.541	36.35
845.716	81.41
845.892	122.37
846.068	-18.94
846.244	-2.56
846.419	65.02
846.595	67.07
846.77	38.4
846.946	60.93
847.122	3.58
847.297	83.45
847.473	148.99
847.648	-23.04
847.824	28.16
847.999	48.64
848.175	32.26
848.35	24.06
848.526	114.17
848.701	32.26
848.876	22.02
849.052	-0.51
849.227	69.12
849.403	28.16
849.578	34.3
849.753	34.3
849.929	114.17
850.104	42.5
850.279	89.6
850.454	-0.51
850.63	58.88
850.805	7.68
850.98	67.07
851.155	-27.14
851.33	1.54
851.505	22.02
851.681	79.36
851.856	-41.47
852.031	26.11
852.206	73.21
852.381	26.11
852.556	-8.7
852.731	91.65
852.906	3.58
853.081	65.02
853.256	19.97
853.431	85.5
853.606	-31.23
853.781	75.26
853.956	15.87
854.131	-23.04
854.305	-12.8
854.48	65.02
854.655	83.45
854.83	-29.18
855.005	-25.09
855.18	75.26
855.354	42.5
855.529	44.54
855.704	44.54
855.879	-31.23
856.053	69.12
856.228	91.65
856.403	-23.04
856.577	7.68
856.752	9.73
856.926	42.5
857.101	46.59
857.276	15.87
857.45	40.45
857.625	60.93
857.799	34.3
857.974	-8.7
858.148	-27.14
858.323	-33.28
858.497	19.97
858.672	40.45
858.846	60.93
859.02	36.35
859.195	-33.28
859.369	58.88
859.543	48.64
859.718	-0.51
859.892	7.68
860.066	48.64
860.241	-45.57
860.415	9.73
860.589	-39.42
860.763	26.11
860.938	-8.7
861.112	-8.7
861.286	-41.47
861.46	-0.51
861.634	38.4
861.808	48.64
861.982	-18.94
862.157	13.82
862.331	-6.66
862.505	-14.85
862.679	-25.09
862.853	-2.56
863.027	-4.61
863.201	32.26
863.375	-47.62
863.549	26.11
863.722	-39.42
863.896	56.83
864.07	-41.47
864.244	15.87
864.418	-4.61
864.592	54.78
864.766	-18.94
864.939	24.06
865.113	-20.99
865.287	32.26
865.461	-0.51
865.634	56.83
865.808	58.88
865.982	46.59
866.156	54.78
866.329	40.45
866.503	52.74
866.676	89.6
866.85	65.02
867.024	-51.71
867.197	15.87
867.371	62.98
867.544	77.31
867.718	-31.23
867.891	3.58
868.065	13.82
868.238	38.4
868.412	26.11
868.585	-10.75
868.759	93.69
868.932	42.5
869.105	-0.51
869.279	7.68
869.452	34.3
869.625	89.6
869.799	-14.85
869.972	56.83
870.145	52.74
870.319	36.35
870.492	58.88
870.665	9.73
870.838	15.87
871.011	-41.47
871.185	48.64
871.358	-23.04
871.531	93.69
871.704	-12.8
871.877	40.45
872.05	-66.05
872.223	30.21
872.396	46.59
872.569	-12.8
872.742	17.92
872.915	48.64
873.088	48.64
873.261	19.97
873.434	44.54
873.607	56.83
873.78	-41.47
873.953	-29.18
874.126	-31.23
874.299	91.65
874.471	44.54
874.644	32.26
874.817	32.26
874.99	56.83
875.163	-41.47
875.335	-18.94
875.508	15.87
875.681	67.07
875.853	15.87
876.026	34.3
876.199	73.21
876.371	-8.7
876.544	19.97
876.717	73.21
876.889	-10.75
877.062	34.3
877.234	17.92
877.407	-25.09
877.579	-27.14
877.752	15.87
877.924	24.06
878.097	1.54
878.269	32.26
878.442	58.88
878.614	34.3
878.786	73.21
878.959	-18.94
879.131	22.02
879.303	-25.09
879.476	-31.23
879.648	19.97
879.82	24.06
879.993	-96.77
880.165	-49.66
880.337	-16.9
880.509	-0.51
880.681	11.78
880.854	3.58
881.026	-18.94
881.198	-8.7
881.37	13.82
881.542	105.98
881.714	24.06
881.886	3.58
882.058	-41.47
882.23	114.17
882.402	19.97
882.574	-6.66
882.746	-23.04
882.918	9.73
883.09	69.12
883.262	19.97
883.434	36.35
883.606	-49.66
883.778	9.73
883.95	28.16
884.122	77.31
884.293	42.5
884.465	28.16
884.637	40.45
884.809	-23.04
884.98	15.87
885.152	97.79
885.324	60.93
885.496	56.83
885.667	-16.9
885.839	-55.81
886.011	7.68
886.182	15.87
886.354	65.02
886.525	-33.28
886.697	19.97
886.869	9.73
887.04	-0.51
887.212	26.11
887.383	73.21
887.555	-25.09
887.726	-33.28
887.897	9.73
888.069	7.68
888.24	40.45
888.412	-23.04
888.583	7.68
888.754	81.41
888.926	-43.52
889.097	24.06
889.268	1.54
889.44	-0.51
889.611	-90.62
889.782	60.93
889.953	15.87
890.125	73.21
890.296	-25.09
890.467	42.5
890.638	-59.9
890.809	1.54
890.98	-8.7
891.151	32.26
891.323	48.64
891.494	42.5
891.665	58.88
891.836	1.54
892.007	40.45
892.178	15.87
892.349	28.16
892.52	11.78
892.691	79.36
892.862	-4.61
893.032	-33.28
893.203	11.78
893.374	85.5
893.545	26.11
893.716	-0.51
893.887	26.11
894.057	34.3
894.228	9.73
894.399	24.06
894.57	97.79
894.74	46.59
894.911	19.97
895.082	3.58
895.253	-35.33
895.423	28.16
895.594	75.26
895.764	48.64
895.935	11.78
896.106	79.36
896.276	-66.05
896.447	-12.8
896.617	1.54
896.788	-47.62
896.958	7.68
897.129	-64
897.299	36.35
897.47	-6.66
897.64	19.97
897.81	-37.38
897.981	73.21
898.151	-55.81
898.322	-37.38
898.492	-25.09
898.662	5.63
898.832	-88.57
899.003	42.5
899.173	13.82
899.343	-55.81
899.513	-27.14
