Data from USB4F104151__253__14-22-40-780.txt Node

Date: Thu Mar 13 14:22:40 EDT 2025
User: louis
Spectrometer: USB4F10415
Trigger mode: 4
Integration Time (sec): 2.000000E-2
Scans to average: 1
Electric dark correction enabled: true
Nonlinearity correction enabled: false
Boxcar width: 0
XAxis mode: Wavelengths
Number of Pixels in Spectrum: 3648
>>>>>Begin Spectral Data<<<<<
178.204	-97.28
178.424	-97.28
178.644	-97.28
178.864	-107.52
179.084	-95.23
179.304	-23.55
179.524	50.18
179.744	46.08
179.964	11.26
180.184	-46.08
180.404	-33.79
180.624	27.65
180.844	54.27
181.064	-72.7
181.283	-21.5
181.503	-60.42
181.723	68.61
181.943	-19.46
182.163	33.79
182.383	-1.02
182.602	64.51
182.822	60.42
183.042	21.5
183.262	-82.94
183.482	-31.74
183.701	1.02
183.921	11.26
184.141	1.02
184.361	1.02
184.58	25.6
184.8	97.28
185.02	17.41
185.239	60.42
185.459	41.98
185.679	52.22
185.898	17.41
186.118	19.46
186.338	107.52
186.557	78.85
186.777	-5.12
186.997	-3.07
187.216	91.13
187.436	19.46
187.655	-31.74
187.875	41.98
188.095	-11.26
188.314	44.03
188.534	80.89
188.753	19.46
188.973	52.22
189.192	-3.07
189.412	-17.41
189.631	-21.5
189.851	13.31
190.07	19.46
190.29	78.85
190.509	21.5
190.729	50.18
190.948	123.9
191.168	107.52
191.387	52.22
191.607	-31.74
191.826	-11.26
192.045	-23.55
192.265	13.31
192.484	-11.26
192.704	-23.55
192.923	-15.36
193.142	80.89
193.362	-52.22
193.581	54.27
193.8	60.42
194.02	82.94
194.239	25.6
194.458	35.84
194.678	-54.27
194.897	52.22
195.116	17.41
195.335	-1.02
195.555	23.55
195.774	-70.65
195.993	91.13
196.212	35.84
196.432	52.22
196.651	17.41
196.87	-60.42
197.089	37.89
197.308	29.7
197.528	35.84
197.747	33.79
197.966	52.22
198.185	58.37
198.404	5.12
198.623	19.46
198.842	52.22
199.062	33.79
199.281	-46.08
199.5	68.61
199.719	1.02
199.938	17.41
200.157	111.61
200.376	60.42
200.595	3.07
200.814	101.37
201.033	-29.7
201.252	-29.7
201.471	-5.12
201.69	44.03
201.909	27.65
202.128	115.71
202.347	9.22
202.566	37.89
202.785	-39.94
203.004	13.31
203.223	58.37
203.442	-7.17
203.661	-17.41
203.879	93.18
204.098	1.02
204.317	13.31
204.536	70.65
204.755	60.42
204.974	9.22
205.193	7.17
205.411	68.61
205.63	11.26
205.849	82.94
206.068	-56.32
206.287	1.02
206.505	19.46
206.724	54.27
206.943	-5.12
207.162	48.13
207.381	9.22
207.599	-41.98
207.818	70.65
208.037	-31.74
208.255	70.65
208.474	56.32
208.693	3.07
208.911	95.23
209.13	-23.55
209.349	33.79
209.567	11.26
209.786	39.94
210.005	-23.55
210.223	27.65
210.442	-48.13
210.661	11.26
210.879	64.51
211.098	-56.32
211.316	-29.7
211.535	-15.36
211.753	-23.55
211.972	50.18
212.191	76.8
212.409	29.7
212.628	25.6
212.846	-1.02
213.065	84.99
213.283	-15.36
213.502	-13.31
213.72	25.6
213.938	46.08
214.157	7.17
214.375	74.75
214.594	-52.22
214.812	21.5
215.031	46.08
215.249	41.98
215.467	50.18
215.686	-15.36
215.904	80.89
216.122	21.5
216.341	54.27
216.559	-7.17
216.778	-7.17
216.996	-15.36
217.214	13.31
217.432	70.65
217.651	-56.32
217.869	-23.55
218.087	11.26
218.306	33.79
218.524	33.79
218.742	29.7
218.96	52.22
219.179	84.99
219.397	101.37
219.615	76.8
219.833	9.22
220.051	15.36
220.27	130.05
220.488	19.46
220.706	60.42
220.924	-27.65
221.142	-33.79
221.36	-13.31
221.578	-50.18
221.796	-56.32
222.015	41.98
222.233	41.98
222.451	78.85
222.669	-11.26
222.887	11.26
223.105	3.07
223.323	78.85
223.541	1.02
223.759	44.03
223.977	7.17
224.195	48.13
224.413	84.99
224.631	-13.31
224.849	-3.07
225.067	60.42
225.285	101.37
225.503	60.42
225.721	17.41
225.939	35.84
226.157	5.12
226.375	33.79
226.592	3.07
226.81	76.8
227.028	21.5
227.246	13.31
227.464	-5.12
227.682	50.18
227.9	-39.94
228.117	19.46
228.335	3.07
228.553	19.46
228.771	-7.17
228.989	70.65
229.206	3.07
229.424	68.61
229.642	1.02
229.86	-3.07
230.077	41.98
230.295	15.36
230.513	54.27
230.731	44.03
230.948	48.13
231.166	105.47
231.384	19.46
231.601	9.22
231.819	95.23
232.037	-21.5
232.254	-33.79
232.472	-37.89
232.689	-25.6
232.907	-15.36
233.125	-52.22
233.342	-13.31
233.56	17.41
233.777	41.98
233.995	66.56
234.213	44.03
234.43	-39.94
234.648	41.98
234.865	-23.55
235.083	52.22
235.3	19.46
235.518	19.46
235.735	35.84
235.953	33.79
236.17	-39.94
236.388	11.26
236.605	-11.26
236.822	84.99
237.04	13.31
237.257	9.22
237.475	-52.22
237.692	-33.79
237.909	23.55
238.127	-31.74
238.344	27.65
238.562	5.12
238.779	-44.03
238.996	41.98
239.214	-3.07
239.431	103.42
239.648	3.07
239.865	-23.55
240.083	-27.65
240.3	50.18
240.517	46.08
240.735	41.98
240.952	70.65
241.169	125.95
241.386	-17.41
241.603	11.26
241.821	-11.26
242.038	74.75
242.255	-25.6
242.472	-31.74
242.689	58.37
242.907	-37.89
243.124	54.27
243.341	-5.12
243.558	-23.55
243.775	46.08
243.992	-23.55
244.209	1.02
244.426	101.37
244.643	76.8
244.86	-29.7
245.078	-1.02
245.295	50.18
245.512	41.98
245.729	-27.65
245.946	-15.36
246.163	13.31
246.38	35.84
246.597	-23.55
246.814	19.46
247.031	1.02
247.248	33.79
247.464	54.27
247.681	-3.07
247.898	-68.61
248.115	33.79
248.332	25.6
248.549	1.02
248.766	58.37
248.983	-13.31
249.2	-9.22
249.417	5.12
249.633	-31.74
249.85	41.98
250.067	25.6
250.284	-7.17
250.501	62.46
250.717	17.41
250.934	-7.17
251.151	-3.07
251.368	64.51
251.585	13.31
251.801	9.22
252.018	48.13
252.235	9.22
252.451	-35.84
252.668	-50.18
252.885	41.98
253.102	-39.94
253.318	19.46
253.535	70.65
253.752	21.5
253.968	-54.27
254.185	82.94
254.401	64.51
254.618	62.46
254.835	-37.89
255.051	23.55
255.268	89.09
255.484	41.98
255.701	50.18
255.917	25.6
256.134	-25.6
256.351	41.98
256.567	-80.89
256.784	-15.36
257	9.22
257.217	-46.08
257.433	13.31
257.65	-56.32
257.866	91.13
258.082	17.41
258.299	1.02
258.515	29.7
258.732	-27.65
258.948	29.7
259.165	33.79
259.381	11.26
259.597	-27.65
259.814	17.41
260.03	-19.46
260.246	3.07
260.463	78.85
260.679	66.56
260.895	54.27
261.112	29.7
261.328	1.02
261.544	-13.31
261.761	50.18
261.977	44.03
262.193	-7.17
262.409	33.79
262.626	-7.17
262.842	52.22
263.058	-3.07
263.274	93.18
263.49	80.89
263.707	58.37
263.923	87.04
264.139	39.94
264.355	-11.26
264.571	25.6
264.787	17.41
265.004	50.18
265.22	-1.02
265.436	76.8
265.652	56.32
265.868	33.79
266.084	-23.55
266.3	-21.5
266.516	-9.22
266.732	29.7
266.948	99.33
267.164	48.13
267.38	-7.17
267.596	80.89
267.812	54.27
268.028	17.41
268.244	-19.46
268.46	25.6
268.676	-7.17
268.892	68.61
269.108	-56.32
269.324	-35.84
269.54	-3.07
269.756	58.37
269.972	-97.28
270.188	-15.36
270.403	11.26
270.619	11.26
270.835	48.13
271.051	-33.79
271.267	9.22
271.483	11.26
271.698	29.7
271.914	58.37
272.13	-44.03
272.346	68.61
272.562	17.41
272.777	15.36
272.993	-11.26
273.209	58.37
273.425	-3.07
273.64	3.07
273.856	1.02
274.072	-3.07
274.287	37.89
274.503	21.5
274.719	56.32
274.934	-27.65
275.15	9.22
275.366	-13.31
275.581	-76.8
275.797	60.42
276.012	23.55
276.228	-52.22
276.444	37.89
276.659	62.46
276.875	72.7
277.09	25.6
277.306	46.08
277.521	58.37
277.737	-60.42
277.952	84.99
278.168	11.26
278.383	-31.74
278.599	54.27
278.814	-33.79
279.03	-7.17
279.245	82.94
279.461	50.18
279.676	109.57
279.892	9.22
280.107	-23.55
280.322	27.65
280.538	50.18
280.753	-23.55
280.969	35.84
281.184	58.37
281.399	-27.65
281.615	21.5
281.83	1.02
282.045	23.55
282.26	31.74
282.476	-7.17
282.691	97.28
282.906	39.94
283.122	-7.17
283.337	54.27
283.552	-3.07
283.767	50.18
283.983	101.37
284.198	-56.32
284.413	99.33
284.628	58.37
284.843	68.61
285.058	1.02
285.274	-15.36
285.489	87.04
285.704	25.6
285.919	29.7
286.134	-46.08
286.349	25.6
286.564	-13.31
286.779	58.37
286.995	13.31
287.21	-31.74
287.425	9.22
287.64	19.46
287.855	91.13
288.07	99.33
288.285	1.02
288.5	58.37
288.715	25.6
288.93	-54.27
289.145	52.22
289.36	-9.22
289.575	-19.46
289.79	41.98
290.004	3.07
290.219	-5.12
290.434	74.75
290.649	-35.84
290.864	58.37
291.079	52.22
291.294	1.02
291.509	-31.74
291.724	1.02
291.938	46.08
292.153	41.98
292.368	15.36
292.583	25.6
292.798	74.75
293.012	-46.08
293.227	19.46
293.442	1.02
293.657	35.84
293.871	13.31
294.086	-7.17
294.301	76.8
294.516	58.37
294.73	1.02
294.945	-13.31
295.16	11.26
295.374	87.04
295.589	64.51
295.804	-46.08
296.018	41.98
296.233	11.26
296.447	-35.84
296.662	50.18
296.877	41.98
297.091	-5.12
297.306	62.46
297.52	1.02
297.735	91.13
297.949	-48.13
298.164	33.79
298.378	62.46
298.593	-35.84
298.807	5.12
299.022	17.41
299.236	101.37
299.451	-31.74
299.665	58.37
299.88	39.94
300.094	23.55
300.309	74.75
300.523	-3.07
300.737	25.6
300.952	15.36
301.166	9.22
301.381	60.42
301.595	7.17
301.809	7.17
302.024	3.07
302.238	17.41
302.452	19.46
302.667	27.65
302.881	52.22
303.095	37.89
303.309	41.98
303.524	-15.36
303.738	35.84
303.952	-23.55
304.166	-62.46
304.381	-60.42
304.595	64.51
304.809	-80.89
305.023	50.18
305.237	25.6
305.452	1.02
305.666	115.71
305.88	41.98
306.094	58.37
306.308	35.84
306.522	95.23
306.736	39.94
306.95	-44.03
307.164	50.18
307.379	-44.03
307.593	50.18
307.807	13.31
308.021	70.65
308.235	-11.26
308.449	17.41
308.663	54.27
308.877	70.65
309.091	5.12
309.305	41.98
309.519	-5.12
309.733	44.03
309.947	-37.89
310.161	21.5
310.374	-1.02
310.588	166.91
310.802	25.6
311.016	58.37
311.23	-15.36
311.444	-29.7
311.658	25.6
311.872	105.47
312.085	50.18
312.299	66.56
312.513	84.99
312.727	-1.02
312.941	13.31
313.154	19.46
313.368	9.22
313.582	-5.12
313.796	33.79
314.009	-27.65
314.223	54.27
314.437	17.41
314.651	-19.46
314.864	-5.12
315.078	25.6
315.292	-17.41
315.505	-37.89
315.719	33.79
315.933	44.03
316.146	27.65
316.36	5.12
316.573	-17.41
316.787	35.84
317.001	29.7
317.214	-11.26
317.428	37.89
317.641	29.7
317.855	27.65
318.068	-15.36
318.282	29.7
318.495	60.42
318.709	17.41
318.922	50.18
319.136	78.85
319.349	117.76
319.563	-31.74
319.776	1.02
319.99	78.85
320.203	-3.07
320.417	52.22
320.63	33.79
320.843	60.42
321.057	46.08
321.27	99.33
321.483	91.13
321.697	-23.55
321.91	97.28
322.124	68.61
322.337	37.89
322.55	60.42
322.763	25.6
322.977	-7.17
323.19	48.13
323.403	66.56
323.617	111.61
323.83	41.98
324.043	15.36
324.256	50.18
324.469	-21.5
324.683	41.98
324.896	11.26
325.109	113.66
325.322	-29.7
325.535	76.8
325.748	41.98
325.962	91.13
326.175	-33.79
326.388	78.85
326.601	13.31
326.814	-7.17
327.027	52.22
327.24	-29.7
327.453	-56.32
327.666	41.98
327.879	25.6
328.092	1.02
328.305	21.5
328.518	29.7
328.731	3.07
328.944	-62.46
329.157	44.03
329.37	41.98
329.583	25.6
329.796	74.75
330.009	44.03
330.222	89.09
330.435	60.42
330.648	-48.13
330.861	-7.17
331.073	-27.65
331.286	19.46
331.499	27.65
331.712	-39.94
331.925	3.07
332.138	93.18
332.35	82.94
332.563	-46.08
332.776	107.52
332.989	-52.22
333.202	84.99
333.414	41.98
333.627	19.46
333.84	-15.36
334.053	33.79
334.265	17.41
334.478	37.89
334.691	50.18
334.903	46.08
335.116	9.22
335.329	31.74
335.541	56.32
335.754	128
335.966	3.07
336.179	-7.17
336.392	-19.46
336.604	-11.26
336.817	54.27
337.029	91.13
337.242	-31.74
337.454	15.36
337.667	68.61
337.88	87.04
338.092	29.7
338.305	33.79
338.517	11.26
338.729	17.41
338.942	72.7
339.154	37.89
339.367	9.22
339.579	-37.89
339.792	19.46
340.004	27.65
340.217	-46.08
340.429	25.6
340.641	25.6
340.854	19.46
341.066	48.13
341.278	50.18
341.491	74.75
341.703	21.5
341.915	1.02
342.128	50.18
342.34	70.65
342.552	84.99
342.764	44.03
342.977	-13.31
343.189	21.5
343.401	76.8
343.613	-35.84
343.826	76.8
344.038	-46.08
344.25	54.27
344.462	50.18
344.674	9.22
344.886	3.07
345.099	70.65
345.311	44.03
345.523	25.6
345.735	-37.89
345.947	46.08
346.159	76.8
346.371	50.18
346.583	80.89
346.795	46.08
347.007	25.6
347.219	35.84
347.431	-5.12
347.643	17.41
347.855	25.6
348.067	44.03
348.279	23.55
348.491	111.61
348.703	19.46
348.915	27.65
349.127	-3.07
349.339	52.22
349.551	13.31
349.763	82.94
349.975	95.23
350.187	68.61
350.399	76.8
350.61	54.27
350.822	66.56
351.034	99.33
351.246	17.41
351.458	41.98
351.669	68.61
351.881	91.13
352.093	3.07
352.305	25.6
352.517	50.18
352.728	134.14
352.94	-3.07
353.152	74.75
353.363	-31.74
353.575	-29.7
353.787	84.99
353.999	39.94
354.21	33.79
354.422	-15.36
354.633	41.98
354.845	33.79
355.057	-15.36
355.268	70.65
355.48	-31.74
355.692	66.56
355.903	29.7
356.115	-5.12
356.326	-29.7
356.538	107.52
356.749	37.89
356.961	44.03
357.172	35.84
357.384	58.37
357.595	70.65
357.807	66.56
358.018	33.79
358.23	-46.08
358.441	72.7
358.653	-23.55
358.864	29.7
359.075	17.41
359.287	58.37
359.498	27.65
359.709	58.37
359.921	-5.12
360.132	9.22
360.344	74.75
360.555	29.7
360.766	1.02
360.977	27.65
361.189	70.65
361.4	31.74
361.611	5.12
361.823	-23.55
362.034	54.27
362.245	-15.36
362.456	-19.46
362.667	19.46
362.879	-15.36
363.09	21.5
363.301	7.17
363.512	25.6
363.723	52.22
363.935	-23.55
364.146	3.07
364.357	21.5
364.568	48.13
364.779	66.56
364.99	17.41
365.201	-7.17
365.412	107.52
365.623	-13.31
365.834	29.7
366.045	3.07
366.256	41.98
366.467	56.32
366.678	11.26
366.889	-39.94
367.1	82.94
367.311	-9.22
367.522	7.17
367.733	52.22
367.944	35.84
368.155	93.18
368.366	13.31
368.577	31.74
368.788	58.37
368.999	-7.17
369.209	27.65
369.42	50.18
369.631	50.18
369.842	52.22
370.053	84.99
370.264	76.8
370.474	-15.36
370.685	19.46
370.896	21.5
371.107	-1.02
371.317	37.89
371.528	33.79
371.739	80.89
371.95	87.04
372.16	70.65
372.371	29.7
372.582	33.79
372.792	74.75
373.003	115.71
373.214	21.5
373.424	50.18
373.635	-17.41
373.846	93.18
374.056	35.84
374.267	68.61
374.477	48.13
374.688	11.26
374.898	15.36
375.109	84.99
375.319	60.42
375.53	82.94
375.74	66.56
375.951	58.37
376.161	-7.17
376.372	113.66
376.582	58.37
376.793	46.08
377.003	-1.02
377.214	37.89
377.424	58.37
377.635	74.75
377.845	3.07
378.055	27.65
378.266	-13.31
378.476	-5.12
378.686	-31.74
378.897	99.33
379.107	50.18
379.317	25.6
379.528	82.94
379.738	37.89
379.948	9.22
380.158	66.56
380.369	19.46
380.579	35.84
380.789	78.85
380.999	39.94
381.21	41.98
381.42	52.22
381.63	70.65
381.84	1.02
382.05	66.56
382.261	33.79
382.471	1.02
382.681	44.03
382.891	101.37
383.101	46.08
383.311	62.46
383.521	25.6
383.731	62.46
383.941	-23.55
384.151	41.98
384.361	-5.12
384.571	70.65
384.781	60.42
384.991	60.42
385.201	21.5
385.411	-13.31
385.621	60.42
385.831	9.22
386.041	82.94
386.251	-3.07
386.461	107.52
386.671	9.22
386.881	80.89
387.091	7.17
387.301	-23.55
387.511	62.46
387.72	25.6
387.93	41.98
388.14	-7.17
388.35	78.85
388.56	66.56
388.769	27.65
388.979	105.47
389.189	3.07
389.399	37.89
389.609	29.7
389.818	76.8
390.028	48.13
390.238	50.18
390.447	-15.36
390.657	68.61
390.867	13.31
391.076	46.08
391.286	39.94
391.496	68.61
391.705	21.5
391.915	66.56
392.125	58.37
392.334	74.75
392.544	72.7
392.753	33.79
392.963	-9.22
393.172	-15.36
393.382	-23.55
393.591	58.37
393.801	-15.36
394.01	130.05
394.22	105.47
394.429	117.76
394.639	115.71
394.848	76.8
395.058	41.98
395.267	60.42
395.477	33.79
395.686	89.09
395.895	78.85
396.105	97.28
396.314	37.89
396.524	64.51
396.733	44.03
396.942	41.98
397.152	62.46
397.361	66.56
397.57	119.81
397.78	117.76
397.989	62.46
398.198	156.67
398.407	29.7
398.617	-1.02
398.826	95.23
399.035	97.28
399.244	62.46
399.453	9.22
399.663	62.46
399.872	76.8
400.081	15.36
400.29	62.46
400.499	-46.08
400.708	41.98
400.917	-11.26
401.127	31.74
401.336	66.56
401.545	105.47
401.754	62.46
401.963	101.37
402.172	56.32
402.381	39.94
402.59	5.12
402.799	107.52
403.008	52.22
403.217	60.42
403.426	164.86
403.635	82.94
403.844	44.03
404.053	107.52
404.262	101.37
404.471	175.1
404.68	91.13
404.888	66.56
405.097	70.65
405.306	87.04
405.515	177.15
405.724	150.53
405.933	117.76
406.142	142.33
406.35	119.81
406.559	99.33
406.768	232.44
406.977	201.72
407.185	181.25
407.394	105.47
407.603	72.7
407.812	121.85
408.02	107.52
408.229	166.91
408.438	185.34
408.646	179.2
408.855	228.35
409.064	250.88
409.272	199.68
409.481	252.92
409.69	230.4
409.898	189.44
410.107	244.73
410.315	222.2
410.524	185.34
410.733	246.78
410.941	205.82
411.15	340.99
411.358	338.94
411.567	234.49
411.775	226.3
411.984	416.76
412.192	365.56
412.401	306.17
412.609	279.55
412.818	371.71
413.026	472.06
413.234	302.08
413.443	357.37
413.651	369.66
413.86	336.89
414.068	459.77
414.276	476.15
414.485	408.57
414.693	478.2
414.901	519.16
415.11	529.4
415.318	570.36
415.526	472.06
415.734	513.02
415.943	537.59
416.151	623.61
416.359	599.03
416.567	621.56
416.776	639.99
416.984	738.29
417.192	723.96
417.4	705.53
417.608	658.42
417.817	697.33
418.025	807.92
418.233	820.21
418.441	791.54
418.649	863.22
418.857	871.41
419.065	924.66
419.273	828.4
419.481	959.47
419.689	1074.16
419.897	1115.12
420.105	1098.74
420.313	1154.03
420.521	1225.71
420.729	1201.13
420.937	1139.69
421.145	1428.46
421.353	1317.87
421.561	1344.49
421.769	1395.69
421.977	1508.33
422.185	1395.69
422.393	1496.04
422.601	1631.21
422.809	1674.21
423.017	1686.5
423.224	1690.6
423.432	1729.51
423.64	1836
423.848	1922.02
424.056	1868.77
424.263	1928.16
424.471	1936.35
424.679	2032.61
424.887	2319.32
425.094	2245.6
425.302	2331.61
425.51	2513.88
425.718	2472.92
425.925	2434.01
426.133	2544.6
426.341	2634.71
426.548	2804.69
426.756	2716.63
426.964	2829.27
427.171	3001.3
427.379	3089.36
427.586	3091.41
427.794	3195.86
428.001	3369.93
428.209	3570.63
428.417	3492.81
428.624	3738.57
428.832	3664.84
429.039	3623.88
429.247	3713.99
429.454	4039.62
429.662	4172.74
429.869	3890.12
430.076	4355.01
430.284	4035.52
430.491	4285.37
430.699	4559.8
430.906	4623.29
431.114	4596.67
431.321	4772.79
431.528	4821.94
431.736	5290.93
431.943	5505.96
432.15	5325.74
432.358	5321.65
432.565	5634.99
432.772	5366.7
432.979	5917.61
433.187	5829.54
433.394	5950.37
433.601	6239.14
433.808	6364.06
434.016	6382.49
434.223	6624.15
434.43	7109.52
434.637	6994.84
434.844	7418.77
435.052	7312.27
435.259	7349.14
435.466	7361.42
435.673	7517.07
435.88	7943.05
436.087	8160.13
436.294	8315.78
436.501	8096.64
436.708	8278.91
436.915	8526.72
437.122	8817.53
437.329	9063.29
437.537	9198.45
437.743	9405.3
437.95	9333.62
438.157	9548.65
438.364	9896.81
438.571	10021.74
438.778	9980.78
438.985	11105.11
439.192	10515.3
439.399	10924.89
439.606	10728.28
439.813	11027.29
440.02	11909.96
440.227	11682.64
440.433	11707.21
440.64	12116.81
440.847	11815.76
441.054	12084.04
441.261	12919.61
441.467	12766.01
441.674	13044.54
441.881	13630.26
442.088	13749.04
442.294	13462.32
442.501	13955.88
442.708	14039.85
442.914	14496.55
443.121	15262.49
443.328	14746.4
443.534	15704.85
443.741	15328.02
443.948	15067.93
444.154	16354.05
444.361	16331.53
444.568	16343.81
444.774	16349.96
444.981	16636.67
445.187	16990.97
445.394	17593.08
445.6	17357.56
445.807	19112.67
446.013	17957.61
446.22	18490.09
446.426	19059.42
446.633	19344.09
446.839	20300.49
447.046	19188.44
447.252	20290.25
447.459	20247.24
447.665	20366.03
447.871	21297.85
448.078	22076.08
448.284	21011.14
448.491	21598.9
448.697	22401.71
448.903	22753.96
449.11	22669.99
449.316	22413.99
449.522	22825.64
449.728	23773.85
449.935	23415.45
450.141	23560.86
450.347	24212.11
450.553	23435.93
450.76	23720.6
450.966	24734.34
451.172	24294.03
451.378	24924.8
451.584	24355.47
451.791	25016.96
451.997	24840.84
452.203	25100.93
452.409	25451.13
452.615	25129.6
452.821	24564.36
453.027	24275.6
453.233	25205.38
453.44	24382.09
453.646	24734.34
453.852	24758.92
454.058	25461.37
454.264	24234.64
454.47	25092.74
454.676	24136.34
454.882	25188.99
455.088	23229.09
455.294	23331.48
455.5	23460.51
455.705	24027.79
455.911	22698.66
456.117	22534.82
456.323	22399.66
456.529	21187.26
456.735	22094.51
456.941	21365.43
457.147	21088.96
457.352	20466.38
457.558	20542.15
457.764	20622.02
457.97	20036.3
458.176	19602.13
458.381	19489.49
458.587	18526.95
458.793	18719.46
458.999	17468.15
459.204	19055.33
459.41	18334.44
459.616	17115.9
459.821	17173.24
460.027	17242.87
460.233	16790.27
460.438	15997.71
460.644	16251.66
460.85	15244.06
461.055	15319.83
461.261	15348.5
461.466	14115.62
461.672	13638.45
461.878	14426.92
462.083	13640.5
462.289	13339.44
462.494	13144.89
462.7	12661.57
462.905	12350.28
463.111	12884.8
463.316	12790.59
463.522	12522.3
463.727	12608.32
463.932	12475.2
464.138	12497.73
464.343	12663.61
464.549	12061.51
464.754	12565.31
464.959	12321.6
465.165	12118.86
465.37	11813.71
465.575	11518.8
465.781	11952.97
465.986	12077.9
466.191	11641.68
466.397	11273.04
466.602	10748.76
466.807	11139.93
467.012	11146.07
467.218	11029.34
467.423	10873.69
467.628	10992.47
467.833	11461.46
468.038	11144.02
468.244	10912.6
468.449	11246.42
468.654	10988.38
468.859	10799.96
469.064	10759
469.269	10492.77
469.474	10531.68
469.679	10675.04
469.885	10308.45
470.09	10281.83
470.295	10339.17
470.5	10122.09
470.705	10294.11
470.91	10029.93
471.115	9634.67
471.32	9999.21
471.525	10015.59
471.73	9538.41
471.935	9571.18
472.139	9382.77
472.344	9339.76
472.549	9485.17
472.754	9235.32
472.959	9007.99
473.164	8973.18
473.369	8784.76
473.574	9114.48
473.778	9102.2
473.983	8739.71
474.188	8944.5
474.393	8172.42
474.598	8344.45
474.802	8356.74
475.007	8496
475.212	8500.09
475.417	8123.27
475.621	8123.27
475.826	8070.02
476.031	8145.8
476.235	7926.66
476.44	7988.1
476.645	7791.5
476.849	7814.02
477.054	7738.25
477.259	7633.8
477.463	7713.67
477.668	7461.77
477.872	7353.23
478.077	7199.63
478.282	7162.77
478.486	7254.93
478.691	7162.77
478.895	7037.84
479.1	6980.5
479.304	7062.42
479.509	6812.57
479.713	6964.12
479.918	6613.92
480.122	6611.87
480.326	6849.43
480.531	6787.99
480.735	6796.18
480.94	6542.24
481.144	6783.9
481.348	6425.5
481.553	6646.68
481.757	6460.32
481.961	6564.76
482.166	6701.98
482.37	6570.91
482.574	6491.04
482.778	6429.6
482.983	6532
483.187	6693.79
483.391	6527.9
483.595	6472.61
483.8	6419.36
484.004	6474.65
484.208	6480.8
484.412	6566.81
484.616	6562.72
484.821	6474.65
485.025	6276
485.229	6523.8
485.433	6566.81
485.637	6529.95
485.841	6540.19
486.045	6411.17
486.249	6407.07
486.453	6538.14
486.657	6448.03
486.861	6474.65
487.065	6448.03
487.269	6482.85
487.473	6372.25
487.677	6595.48
487.881	6644.63
488.085	6286.24
488.289	6452.13
488.493	6577.05
488.697	6654.87
488.901	6470.56
489.105	6425.5
489.309	6464.41
489.512	6558.62
489.716	6441.89
489.92	6546.33
490.124	6591.39
490.328	6663.07
490.531	6572.96
490.735	6648.73
490.939	6734.75
491.143	6712.22
491.346	6732.7
491.55	6914.97
491.754	6753.18
491.958	6701.98
492.161	6808.47
492.365	6802.33
492.569	6724.51
492.772	6898.58
492.976	6861.72
493.18	6867.86
493.383	7005.08
493.587	6845.34
493.79	7033.75
493.994	7041.94
494.197	7234.45
494.401	7087
494.605	7326.61
494.808	7197.59
495.012	7213.97
495.215	7394.19
495.419	7488.4
495.622	7535.5
495.825	7498.64
496.029	7648.14
496.232	7742.35
496.436	7607.18
496.639	7746.44
496.843	7734.15
497.046	7910.28
497.249	7902.09
497.453	8045.45
497.656	8061.83
497.859	8088.45
498.063	8153.99
498.266	8403.84
498.469	8414.08
498.673	8373.12
498.876	8545.15
499.079	8577.92
499.282	8575.87
499.485	8999.8
499.689	8930.17
499.892	8950.65
500.095	9112.44
500.298	9325.43
500.501	9210.74
500.705	9456.5
500.908	9636.72
501.111	9716.59
501.314	9485.17
501.517	9675.63
501.72	9796.46
501.923	9784.17
502.126	9997.16
502.329	10109.8
502.532	10273.64
502.735	10310.5
502.938	10619.74
503.141	10500.96
503.344	10613.6
503.547	10642.27
503.75	10832.73
503.953	11051.86
504.156	11178.84
504.359	11064.15
504.562	11248.47
504.765	11467.6
504.968	11522.9
505.17	11625.29
505.373	11723.6
505.576	11901.77
505.779	12149.57
505.982	12327.75
506.185	12372.8
506.387	12233.54
506.59	12501.83
506.793	12733.25
506.996	12450.63
507.198	13189.94
507.401	12962.62
507.604	13181.75
507.807	13257.53
508.009	13275.96
508.212	13755.18
508.415	13880.11
508.617	13835.05
508.82	13853.48
509.022	14146.34
509.225	14369.57
509.428	14508.83
509.63	14238.5
509.833	14742.3
510.035	15033.11
510.238	14924.57
510.44	15002.4
510.643	15182.62
510.845	15538.96
511.048	15299.35
511.25	15598.35
511.453	15594.26
511.655	16055.05
511.858	16118.54
512.06	16143.11
512.262	16528.13
512.465	16343.81
512.667	16673.54
512.87	16755.46
513.072	16890.62
513.274	17150.71
513.477	17238.78
513.679	17396.47
513.881	17570.55
514.084	17974
514.286	17631.99
514.488	17910.51
514.69	18567.91
514.893	18168.55
515.095	18393.83
515.297	18660.07
515.499	18698.98
515.701	18932.45
515.904	19063.52
516.106	19208.92
516.308	19491.54
516.51	19804.88
516.712	20050.64
516.914	20048.59
517.116	20280.01
517.318	20552.39
517.52	20376.27
517.722	20368.07
517.925	20710.08
518.127	21037.76
518.329	21164.73
518.531	20910.78
518.733	21508.79
518.935	21559.99
519.136	21172.92
519.338	21856.95
519.54	22158
519.742	22375.08
519.944	22532.78
520.146	22626.98
520.348	22598.31
520.55	22825.64
520.752	22940.32
520.954	23573.14
521.155	23171.74
521.357	23323.29
521.559	23794.32
521.761	24087.18
521.963	24062.61
522.164	24074.9
522.366	24046.23
522.568	24654.47
522.77	24640.14
522.971	24994.43
523.173	24775.3
523.375	24707.72
523.576	25037.44
523.778	24939.14
523.98	25426.56
524.181	25473.66
524.383	25584.25
524.584	26106.48
524.786	25787
524.988	25666.17
525.189	25930.36
525.391	25799.29
525.592	26468.97
525.794	26458.73
525.995	26296.94
526.197	26479.21
526.398	26704.49
526.6	26919.53
526.801	27157.09
527.003	27124.32
527.204	27191.91
527.406	27226.72
527.607	27167.33
527.808	27679.32
528.01	27091.55
528.211	27533.92
528.412	28303.95
528.614	27636.31
528.815	27937.37
529.016	27882.07
529.218	27507.29
529.419	27646.55
529.62	27947.61
529.822	28074.58
530.023	27875.93
530.224	27992.66
530.425	28430.93
530.626	28203.6
530.828	27837.02
531.029	28940.87
531.23	28209.75
531.431	28396.11
531.632	28461.65
531.833	28734.03
532.035	28609.1
532.236	28494.41
532.437	28779.08
532.638	28523.08
532.839	28795.46
533.04	28635.72
533.241	28703.31
533.442	29141.57
533.643	28928.58
533.844	29069.89
534.045	28801.61
534.246	28555.85
534.447	28643.91
534.648	28500.56
534.849	28641.87
535.05	28070.48
535.251	28578.38
535.451	28707.4
535.652	28680.78
535.853	28703.31
536.054	28779.08
536.255	29022.79
536.456	28453.45
536.657	28963.4
536.857	28486.22
537.058	28496.46
537.259	28811.85
537.46	29024.84
537.66	28639.82
537.861	28639.82
538.062	28545.61
538.263	28963.4
538.463	28314.19
538.664	28758.6
538.865	28695.11
539.065	28895.82
539.266	28576.33
539.466	28641.87
539.667	28473.93
539.868	28813.9
540.068	28596.81
540.269	28414.54
540.469	28648.01
540.67	28217.94
540.87	28701.26
541.071	28387.92
541.271	28318.29
541.472	28500.56
541.672	28361.3
541.873	28293.71
542.073	28252.75
542.274	28820.04
542.474	28353.1
542.675	28273.23
542.875	28701.26
543.075	28488.27
543.276	28424.78
543.476	28650.06
543.676	28367.44
543.877	28349.01
544.077	28420.69
544.277	28480.08
544.478	28357.2
544.678	28287.57
544.878	28330.58
545.078	28340.82
545.279	28011.09
545.479	28367.44
545.679	28088.92
545.879	28367.44
546.079	28420.69
546.28	28170.83
546.48	28424.78
546.68	28463.69
546.88	28254.8
547.08	28498.51
547.28	28527.18
547.48	27957.85
547.68	28303.95
547.88	27957.85
548.081	28209.75
548.281	28521.04
548.481	28109.4
548.681	28248.66
548.881	28037.72
549.081	28316.24
549.28	27718.23
549.48	28389.97
549.68	27996.76
549.88	28078.68
550.08	28170.83
550.28	28095.06
550.48	27755.1
550.68	28228.18
550.88	28021.33
551.08	28097.11
551.279	27951.7
551.479	27873.88
551.679	28160.59
551.879	27626.07
552.079	28269.14
552.278	27783.77
552.478	28160.59
552.678	27794.01
552.878	28109.4
553.077	27961.94
553.277	27574.88
553.477	28279.38
553.676	28019.28
553.876	27748.95
554.076	27791.96
554.275	28066.39
554.475	27656.79
554.674	27806.3
554.874	27605.59
555.074	27327.07
555.273	27908.69
555.473	27716.19
555.672	27652.7
555.872	27886.17
556.071	27576.92
556.271	28039.76
556.47	27355.74
556.67	27570.78
556.869	27302.5
557.068	27466.33
557.268	27574.88
557.467	27380.32
557.667	27507.29
557.866	27099.75
558.065	27286.11
558.265	26901.09
558.464	27081.31
558.663	27552.35
558.863	26888.81
559.062	27277.92
559.261	26956.39
559.461	27167.33
559.66	27036.26
559.859	26913.38
560.058	26858.09
560.258	26960.48
560.457	26831.46
560.656	27224.67
560.855	26618.47
561.054	26972.77
561.253	26722.92
561.453	26792.55
561.652	26604.14
561.851	26944.1
562.05	26440.3
562.249	26587.75
562.448	26743.4
562.647	26538.6
562.846	26423.92
563.045	26407.53
563.244	26172.02
563.443	26630.76
563.642	26106.48
563.841	26362.48
564.04	25780.85
564.239	26487.4
564.438	26083.95
564.637	26200.69
564.836	26112.63
565.035	25836.15
565.234	26251.89
565.432	26298.99
565.631	25680.5
565.83	25821.81
566.029	25582.2
566.228	25799.29
566.427	25821.81
566.625	25348.73
566.824	25248.38
567.023	25574.01
567.222	25471.61
567.42	25637.5
567.619	25395.84
567.818	25379.45
568.016	25258.62
568.215	25469.56
568.414	25193.09
568.612	25602.68
568.811	25031.3
569.01	24744.58
569.208	24683.14
569.407	25096.83
569.605	24779.4
569.804	24881.8
570.002	24707.72
570.201	24918.66
570.4	24660.62
570.598	24423.05
570.797	24521.35
570.995	24552.07
571.193	24232.59
571.392	24590.98
571.59	24058.51
571.789	24359.56
571.987	24298.13
572.186	24167.06
572.384	24289.93
572.582	24091.28
572.781	23992.98
572.979	24085.14
573.177	23812.76
573.376	24203.92
573.574	23669.4
573.772	23874.2
573.971	23952.02
574.169	23962.26
574.367	23628.44
574.565	23519.9
574.763	23798.42
574.962	23429.79
575.16	23319.2
575.358	23331.48
575.556	22909.6
575.754	23442.07
575.952	22807.2
576.151	23034.53
576.349	22774.44
576.547	22649.51
576.745	22923.94
576.943	22952.61
577.141	22751.91
577.339	22975.14
577.537	22842.02
577.735	22471.34
577.933	22524.58
578.131	22756
578.329	22610.6
578.527	22434.47
578.725	22457
578.923	22405.8
579.121	22364.84
579.319	22448.81
579.516	22244.01
579.714	22153.9
579.912	21996.21
580.11	21805.75
580.308	21936.82
580.506	22067.89
580.704	21678.77
580.901	21775.03
581.099	21951.15
581.297	21531.32
581.495	21381.82
581.692	21758.64
581.89	21336.76
582.088	21631.67
582.285	21191.36
582.483	21557.94
582.681	21586.61
582.878	21336.76
583.076	21172.92
583.274	21316.28
583.471	21043.9
583.669	21224.12
583.866	20767.43
584.064	21222.08
584.262	20658.88
584.459	20939.46
584.657	20742.85
584.854	21265.08
585.052	20576.97
585.249	20570.82
585.447	21019.33
585.644	20464.33
585.841	20474.57
586.039	21000.9
586.236	20497.1
586.434	20194
586.631	20284.11
586.828	20277.96
587.026	20441.8
587.223	20380.36
587.42	20263.63
587.618	19938
587.815	19966.67
588.012	19956.43
588.21	19985.1
588.407	20157.13
588.604	19487.45
588.801	19796.69
588.999	19667.67
589.196	19643.09
589.393	19602.13
589.59	19589.85
589.787	19331.8
589.984	19325.66
590.182	19237.59
590.379	19339.99
590.576	19319.51
590.773	19088.09
590.97	19286.75
591.167	19139.29
591.364	18858.72
591.561	19032.8
591.758	18909.92
591.955	18772.71
592.152	19057.37
592.349	18739.94
592.546	18924.26
592.743	18719.46
592.94	18379.5
593.137	18490.09
593.334	18746.08
593.531	18279.15
593.727	18494.18
593.924	18359.02
594.121	18256.62
594.318	18451.17
594.515	18189.03
594.712	18221.8
594.908	17926.89
595.105	18281.19
595.302	18002.67
595.499	18055.92
595.696	18033.39
595.892	17711.86
596.089	17834.74
596.286	17875.7
596.482	17941.23
596.679	17857.26
596.876	17842.93
597.072	17470.2
597.269	17629.94
597.466	17449.72
597.662	17337.08
597.859	17390.33
598.055	17419
598.252	17343.22
598.448	17384.18
598.645	17285.88
598.841	17220.35
599.038	16978.68
599.234	17042.17
599.431	16861.95
599.627	16952.06
599.824	17042.17
600.02	16671.49
600.217	16780.03
600.413	16616.19
600.609	16714.5
600.806	16608
601.002	16913.15
601.198	16458.5
601.395	16392.97
601.591	16364.29
601.787	16249.61
601.984	16311.05
602.18	16298.76
602.376	16071.43
602.572	15956.75
602.769	16171.79
602.965	15854.35
603.161	16067.34
603.357	15977.23
603.553	15932.17
603.75	16001.8
603.946	15893.26
604.142	15999.76
604.338	15520.53
604.534	15700.75
604.73	15280.92
604.926	15221.53
605.122	15766.29
605.318	15770.38
605.514	15330.07
605.71	15502.1
605.906	15287.06
606.102	15436.56
606.298	15090.46
606.494	15115.03
606.69	15352.6
606.886	15246.1
607.082	15004.44
607.278	15311.64
607.474	15151.9
607.67	15014.68
607.866	14795.55
608.062	14834.46
608.257	14863.13
608.453	14869.28
608.649	14934.81
608.845	14887.71
609.041	15047.45
609.236	14900
609.432	14832.41
609.628	14525.22
609.824	14787.36
610.019	14527.27
610.215	14744.35
610.411	14803.74
610.606	14533.41
610.802	14469.92
610.998	14584.61
611.193	14717.73
611.389	14453.54
611.584	14490.4
611.78	14412.58
611.976	14467.88
612.171	14312.23
612.367	14234.41
612.562	14431.01
612.758	14172.97
612.953	14183.21
613.149	14068.52
613.344	14203.69
613.539	14885.66
613.735	14461.73
613.93	14134.06
614.126	14306.09
614.321	14107.43
614.517	14361.38
614.712	14330.66
614.907	13804.33
615.103	13878.06
615.298	13833
615.493	14183.21
615.688	13642.54
615.884	13998.89
616.079	13839.15
616.274	14060.33
616.47	13726.51
616.665	13964.07
616.86	13869.87
617.055	13699.89
617.25	13658.93
617.445	13730.61
617.641	13722.41
617.836	13912.88
618.031	13396.79
618.226	13736.75
618.421	13419.32
618.616	13294.39
618.811	13493.04
619.006	13542.19
619.201	13181.75
619.396	13189.94
619.591	12989.24
619.786	13378.36
619.981	13042.49
620.176	13228.85
620.371	13052.73
620.566	12792.64
620.761	13050.68
620.956	12895.04
621.151	12577.6
621.346	12788.54
621.541	12614.46
621.735	12831.55
621.93	12661.57
622.125	12460.87
622.32	12333.89
622.515	12665.66
622.709	12213.06
622.904	12114.76
623.099	11961.16
623.294	12153.67
623.488	11957.07
623.683	12149.57
623.878	11789.13
624.072	11807.56
624.267	11789.13
624.462	11756.36
624.656	11518.8
624.851	11680.59
625.046	11510.61
625.24	11469.65
625.435	11395.92
625.629	11338.58
625.824	11391.83
626.018	11371.35
626.213	11062.1
626.407	11230.04
626.602	10904.41
626.796	10996.57
626.991	11035.48
627.185	10892.12
627.38	10787.68
627.574	10812.25
627.768	10806.11
627.963	10658.65
628.157	10627.93
628.352	10728.28
628.546	10455.9
628.74	10541.92
628.935	10257.25
629.129	10249.06
629.323	10287.97
629.517	10314.59
629.712	10158.95
629.906	10040.17
630.1	10023.78
630.294	10031.97
630.489	9984.87
630.683	9937.77
630.877	9851.75
631.071	9968.49
631.265	9735.02
631.459	9718.64
631.653	9536.37
631.848	9458.54
632.042	9542.51
632.236	9481.07
632.43	9454.45
632.624	9464.69
632.818	9397.1
633.012	9108.34
633.206	9333.62
633.4	9155.44
633.594	9010.04
633.788	9014.13
633.982	9030.52
634.176	9077.62
634.369	8811.39
634.563	9151.35
634.757	8749.95
634.951	8950.65
635.145	8807.29
635.339	8784.76
635.533	8713.08
635.726	8743.8
635.92	8582.01
636.114	8563.58
636.308	8631.16
636.501	8473.47
636.695	8465.28
636.889	8237.95
637.083	8397.7
637.276	8131.46
637.47	8143.75
637.664	8117.12
637.857	8299.39
638.051	8151.94
638.244	7984.01
638.438	8176.52
638.632	8172.42
638.825	7897.99
639.019	8113.03
639.212	7826.31
639.406	7963.53
639.599	7660.43
639.793	7738.25
639.986	7617.42
640.18	7687.05
640.373	7674.76
640.567	7564.17
640.76	7635.85
640.954	7406.48
641.147	7259.03
641.34	7431.05
641.534	7420.81
641.727	7283.6
641.92	7394.19
642.114	7152.53
642.307	7181.2
642.5	7111.57
642.694	7115.67
642.887	7091.09
643.08	7162.77
643.273	7162.77
643.467	7087
643.66	7050.13
643.853	6939.54
644.046	7041.94
644.239	6849.43
644.432	6802.33
644.626	6765.46
644.819	6831
645.012	6724.51
645.205	6685.59
645.398	6753.18
645.591	6552.48
645.784	6644.63
645.977	6572.96
646.17	6638.49
646.363	6370.21
646.556	6390.69
646.749	6415.26
646.942	6505.37
647.135	6343.58
647.328	6472.61
647.521	6368.16
647.714	6054.82
647.907	6284.19
648.099	6030.24
648.292	6249.38
648.485	6112.16
648.678	6079.4
648.871	6024.1
649.064	6050.72
649.256	6063.01
649.449	6013.86
649.642	5913.51
649.835	5944.23
650.027	5942.18
650.22	5841.83
650.413	5811.11
650.605	5645.23
650.798	5764.01
650.991	5632.94
651.183	5854.12
651.376	5585.83
651.568	5727.14
651.761	5817.26
651.954	5591.98
652.146	5557.16
652.339	5602.22
652.531	5526.44
652.724	5485.48
652.916	5274.54
653.109	5540.78
653.301	5350.32
653.494	5383.09
653.686	5319.6
653.879	5247.92
654.071	5329.84
654.263	5239.73
654.456	5352.37
654.648	5180.34
654.84	5252.02
655.033	5120.95
655.225	5215.15
655.417	4920.24
655.61	4969.4
655.802	4914.1
655.994	5039.03
656.186	4981.68
656.379	4869.05
656.571	4811.7
656.763	4885.43
656.955	4969.4
657.148	5006.26
657.34	4932.53
657.532	4807.61
657.724	4916.15
657.916	4660.15
658.108	4807.61
658.3	4662.2
658.492	4895.67
658.684	4506.56
658.876	4563.9
659.068	4678.58
659.26	4533.18
659.452	4572.09
659.644	4645.82
659.836	4500.41
660.028	4498.36
660.22	4619.19
660.412	4535.23
660.604	4383.68
660.796	4475.84
660.988	4363.2
661.18	4312
661.372	4318.14
661.563	4410.3
661.755	4486.08
661.947	4385.73
662.139	4336.57
662.331	4334.53
662.522	4260.8
662.714	4221.89
662.906	4236.22
663.097	4127.68
663.289	4115.39
663.481	4107.2
663.673	4029.38
663.864	4146.11
664.056	4064.19
664.247	3992.52
664.439	4068.29
664.631	4080.58
664.822	4086.72
665.014	3959.75
665.205	4047.81
665.397	3873.73
665.588	3877.83
665.78	3820.49
665.971	3939.27
666.163	3933.12
666.354	3816.39
666.546	3834.82
666.737	3728.33
666.929	3689.42
667.12	3849.16
667.311	3625.93
667.503	3603.4
667.694	3908.55
667.885	3763.14
668.077	3623.88
668.268	3673.03
668.459	3642.31
668.651	3572.68
668.842	3730.38
669.033	3552.2
669.224	3541.96
669.416	3535.82
669.607	3736.52
669.798	3603.4
669.989	3670.98
670.18	3531.72
670.371	3453.9
670.563	3486.67
670.754	3519.43
670.945	3322.83
671.136	3589.07
671.327	3380.17
671.518	3576.78
671.709	3410.89
671.9	3445.71
672.091	3537.87
672.282	3380.17
672.473	3408.84
672.664	3492.81
672.855	3388.36
673.046	3388.36
673.237	3326.93
673.428	3333.07
673.619	3394.51
673.809	3267.53
674	3371.98
674.191	3265.49
674.382	3302.35
674.573	3320.78
674.764	3130.32
674.954	3167.18
675.145	3204.05
675.336	3187.66
675.527	3224.53
675.717	3234.77
675.908	3189.71
676.099	3158.99
676.289	3197.9
676.48	3132.37
676.671	3064.79
676.861	3206.1
677.052	3175.38
677.243	3122.13
677.433	3118.03
677.624	3212.24
677.814	3107.79
678.005	3138.51
678.195	3081.17
678.386	3038.16
678.576	3107.79
678.767	2982.87
678.957	3077.07
679.148	3113.94
679.338	3044.31
679.529	3048.4
679.719	3044.31
679.909	3038.16
680.1	3001.3
680.29	2991.06
680.481	2962.39
680.671	3113.94
680.861	3060.69
681.052	3044.31
681.242	2952.15
681.432	2903
681.622	2950.1
681.813	2986.96
682.003	2917.33
682.193	2853.84
682.383	3093.46
682.573	2864.08
682.764	2931.67
682.954	3007.44
683.144	2925.52
683.334	2989.01
683.524	2819.03
683.714	2937.81
683.904	2778.07
684.094	2843.6
684.284	2829.27
684.474	2995.15
684.664	2839.51
684.854	2755.54
685.044	2870.23
685.234	2892.76
685.424	2837.46
685.614	2862.04
685.804	2909.14
685.994	2798.55
686.184	2835.41
686.374	2874.32
686.564	2847.7
686.753	2673.62
686.943	2659.29
687.133	2726.87
687.323	2671.58
687.513	2802.65
687.702	2812.89
687.892	2714.58
688.082	2704.34
688.272	2722.77
688.461	2593.75
688.651	2747.35
688.841	2565.08
689.03	2667.48
689.22	2585.56
689.41	2624.47
689.599	2632.66
689.789	2718.68
689.979	2683.86
690.168	2466.78
690.358	2374.62
690.547	2608.09
690.737	2599.9
690.926	2454.49
691.116	2454.49
691.305	2560.98
691.495	2507.74
691.684	2540.51
691.874	2368.48
692.063	2434.01
692.252	2581.46
692.442	2405.34
692.631	2444.25
692.82	2290.65
693.01	2431.96
693.199	2409.44
693.388	2376.67
693.578	2343.9
693.767	2354.14
693.956	2302.94
694.146	2319.32
694.335	2354.14
694.524	2335.71
694.713	2247.65
694.902	2237.41
695.092	2311.13
695.281	2249.69
695.47	2206.69
695.659	2276.32
695.848	2352.09
696.037	2335.71
696.226	2270.17
696.415	2208.73
696.604	2348
696.793	2335.71
696.982	2196.45
697.171	2307.04
697.36	2214.88
697.549	2290.65
697.738	2124.77
697.927	2221.02
698.116	2188.25
698.305	2255.84
698.494	2089.95
698.683	2194.4
698.872	2212.83
699.061	2163.68
699.25	2069.47
699.438	2206.69
699.627	2196.45
699.816	2089.95
700.005	2126.82
700.193	2130.91
700.382	2198.49
700.571	2098.14
700.76	2108.38
700.948	2165.73
701.137	2169.82
701.326	2161.63
701.514	2128.86
701.703	2178.01
701.892	2128.86
702.08	2184.16
702.269	2204.64
702.457	2143.2
702.646	2143.2
702.834	2106.34
703.023	2094.05
703.212	2175.97
703.4	2171.87
703.589	2051.04
703.777	2108.38
703.965	2018.27
704.154	2089.95
704.342	2108.38
704.531	2003.94
704.719	2067.42
704.907	2159.58
705.096	2051.04
705.284	2124.77
705.472	2106.34
705.661	2192.35
705.849	2155.49
706.037	2178.01
706.226	2149.34
706.414	2067.42
706.602	2130.91
706.79	2077.66
706.979	2065.38
707.167	2028.51
707.355	2118.62
707.543	2135.01
707.731	2026.47
707.919	2030.56
708.107	2073.57
708.296	2206.69
708.484	2094.05
708.672	1969.12
708.86	1999.84
709.048	2053.09
709.236	2055.14
709.424	2098.14
709.612	2057.18
709.8	1917.92
709.988	2028.51
710.176	2087.9
710.364	2182.11
710.551	2071.52
710.739	2057.18
710.927	2110.43
711.115	2001.89
711.303	1995.75
711.491	1999.84
711.679	1934.31
711.866	2026.47
712.054	2003.94
712.242	1950.69
712.43	2028.51
712.617	2106.34
712.805	1905.63
712.993	2083.81
713.181	1995.75
713.368	2071.52
713.556	2032.61
713.744	1889.25
713.931	2012.13
714.119	1965.03
714.306	2087.9
714.494	1983.46
714.682	1979.36
714.869	1952.74
715.057	2044.9
715.244	1958.88
715.432	2042.85
715.619	2067.42
715.807	1948.64
715.994	1977.31
716.182	1938.4
716.369	1934.31
716.556	2092
716.744	1965.03
716.931	1946.59
717.119	1989.6
717.306	1969.12
717.493	1983.46
717.681	1993.7
717.868	1991.65
718.055	1954.79
718.242	1997.79
718.43	2167.77
718.617	2081.76
718.804	1954.79
718.991	2100.19
719.179	1975.27
719.366	2032.61
719.553	1967.07
719.74	1969.12
719.927	1979.36
720.114	1962.98
720.301	1969.12
720.488	1999.84
720.676	1862.63
720.863	2059.23
721.05	2005.99
721.237	1948.64
721.424	2042.85
721.611	2016.23
721.798	1915.87
721.985	1936.35
722.172	1924.07
722.358	2010.08
722.545	2057.18
722.732	1979.36
722.919	2137.06
723.106	1967.07
723.293	1903.59
723.48	1942.5
723.667	1907.68
723.853	1889.25
724.04	2044.9
724.227	2016.23
724.414	1864.68
724.6	1969.12
724.787	1975.27
724.974	2053.09
725.161	1973.22
725.347	1971.17
725.534	1907.68
725.72	1950.69
725.907	1938.4
726.094	1979.36
726.28	1903.59
726.467	2022.37
726.653	2075.62
726.84	1979.36
727.027	1909.73
727.213	1893.35
727.4	1895.4
727.586	1899.49
727.773	1934.31
727.959	1897.44
728.145	1911.78
728.332	2036.7
728.518	1934.31
728.705	1866.72
728.891	1950.69
729.077	2005.99
729.264	1831.91
729.45	1954.79
729.636	1903.59
729.823	1854.44
730.009	1891.3
730.195	1856.48
730.382	1973.22
730.568	2018.27
730.754	1926.11
730.94	1962.98
731.126	1956.83
731.313	1954.79
731.499	1895.4
731.685	1975.27
731.871	1926.11
732.057	1903.59
732.243	2028.51
732.429	1922.02
732.615	1872.87
732.801	2040.8
732.987	1932.26
733.173	1905.63
733.359	1944.55
733.545	1881.06
733.731	1885.16
733.917	1991.65
734.103	1944.55
734.289	1876.96
734.475	1833.96
734.661	1919.97
734.847	1860.58
735.033	1860.58
735.219	1879.01
735.404	1854.44
735.59	1889.25
735.776	1836
735.962	1971.17
736.148	1854.44
736.333	1893.35
736.519	1909.73
736.705	1795.04
736.89	1946.59
737.076	1903.59
737.262	1950.69
737.447	1893.35
737.633	1946.59
737.819	1901.54
738.004	1838.05
738.19	1868.77
738.375	1811.43
738.561	1887.2
738.747	1819.62
738.932	1866.72
739.118	1901.54
739.303	1752.04
739.489	1858.53
739.674	1840.1
739.859	1811.43
740.045	1827.81
740.23	1831.91
740.416	1782.76
740.601	1901.54
740.786	1881.06
740.972	1772.52
741.157	1795.04
741.342	1657.83
741.528	1776.61
741.713	1790.95
741.898	1754.09
742.084	1799.14
742.269	1733.61
742.454	1788.9
742.639	1668.07
742.824	1739.75
743.01	1780.71
743.195	1807.33
743.38	1668.07
743.565	1674.21
743.75	1696.74
743.935	1643.49
744.12	1725.41
744.305	1629.16
744.49	1688.55
744.675	1623.02
744.86	1717.22
745.045	1715.17
745.23	1709.03
745.415	1565.67
745.6	1772.52
745.785	1516.52
745.97	1643.49
746.155	1715.17
746.34	1668.07
746.525	1608.68
746.71	1680.36
746.895	1549.29
747.079	1600.49
747.264	1528.81
747.449	1459.18
747.634	1469.42
747.819	1541.1
748.003	1483.75
748.188	1410.03
748.373	1590.25
748.557	1559.53
748.742	1534.95
748.927	1541.1
749.111	1467.37
749.296	1444.84
749.481	1397.74
749.665	1373.16
749.85	1426.41
750.034	1436.65
750.219	1489.9
750.404	1403.88
750.588	1444.84
750.773	1412.07
750.957	1336.3
751.141	1442.79
751.326	1356.78
751.51	1336.3
751.695	1233.9
751.879	1295.34
752.064	1309.68
752.248	1209.33
752.432	1412.07
752.617	1258.48
752.801	1244.14
752.985	1240.05
753.17	1166.32
753.354	1268.72
753.538	1295.34
753.722	1133.55
753.907	1287.15
754.091	1219.57
754.275	1209.33
754.459	1182.7
754.643	1233.9
754.828	1264.62
755.012	1229.81
755.196	1213.42
755.38	1131.5
755.564	1127.41
755.748	1115.12
755.932	1143.79
756.116	1106.93
756.3	1106.93
756.484	1051.63
756.668	1131.5
756.852	1020.91
757.036	1084.4
757.22	998.38
757.404	1016.82
757.588	967.67
757.772	1059.82
757.956	1022.96
758.14	1012.72
758.323	1057.78
758.507	1051.63
758.691	932.85
758.875	979.95
759.059	1133.55
759.242	979.95
759.426	1000.43
759.61	977.91
759.794	889.84
759.977	1000.43
760.161	979.95
760.345	943.09
760.528	971.76
760.712	922.61
760.895	959.47
761.079	967.67
761.263	969.71
761.446	951.28
761.63	898.03
761.813	926.71
761.997	920.56
762.18	795.64
762.364	930.8
762.547	834.55
762.731	834.55
762.914	873.46
763.098	900.08
763.281	848.88
763.464	844.79
763.648	863.22
763.831	889.84
764.015	836.6
764.198	805.88
764.381	893.94
764.564	803.83
764.748	807.92
764.931	766.96
765.114	803.83
765.297	781.3
765.481	748.53
765.664	830.45
765.847	744.44
766.03	746.48
766.213	680.95
766.397	828.4
766.58	676.85
766.763	926.71
766.946	818.16
767.129	715.77
767.312	723.96
767.495	807.92
767.678	766.96
767.861	820.21
768.044	779.25
768.227	812.02
768.41	771.06
768.593	717.81
768.776	676.85
768.959	730.1
769.142	726
769.324	717.81
769.507	754.68
769.69	685.05
769.873	672.76
770.056	773.11
770.239	726
770.421	723.96
770.604	699.38
770.787	685.05
770.97	738.29
771.152	664.57
771.335	639.99
771.518	631.8
771.7	650.23
771.883	721.91
772.066	568.31
772.248	650.23
772.431	683
772.613	740.34
772.796	680.95
772.978	633.85
773.161	639.99
773.343	594.93
773.526	570.36
773.708	658.42
773.891	611.32
774.073	687.09
774.256	666.61
774.438	654.33
774.621	721.91
774.803	631.8
774.985	586.74
775.168	558.07
775.35	576.5
775.532	601.08
775.715	562.17
775.897	639.99
776.079	592.89
776.261	666.61
776.444	498.68
776.626	574.46
776.808	494.58
776.99	545.78
777.173	558.07
777.355	467.96
777.537	568.31
777.719	506.87
777.901	478.2
778.083	508.92
778.265	623.61
778.447	476.15
778.629	500.73
778.811	601.08
778.993	570.36
779.175	504.82
779.357	439.29
779.539	476.15
779.721	508.92
779.903	533.5
780.085	545.78
780.267	517.11
780.449	420.86
780.631	504.82
780.812	535.54
780.994	504.82
781.176	556.02
781.358	504.82
781.54	355.32
781.721	529.4
781.903	414.71
782.085	396.28
782.267	492.54
782.448	418.81
782.63	386.04
782.812	394.23
782.993	412.67
783.175	451.58
783.357	383.99
783.538	396.28
783.72	379.9
783.901	439.29
784.083	427
784.264	394.23
784.446	347.13
784.627	402.43
784.809	388.09
784.99	318.46
785.172	365.56
785.353	357.37
785.535	412.67
785.716	297.98
785.897	310.27
786.079	365.56
786.26	287.74
786.441	359.42
786.623	316.41
786.804	328.7
786.985	314.36
787.167	363.51
787.348	316.41
787.529	361.47
787.71	410.62
787.891	283.64
788.073	293.88
788.254	338.94
788.435	386.04
788.616	336.89
788.797	367.61
788.978	269.31
789.159	236.54
789.34	275.45
789.522	349.18
789.703	263.16
789.884	304.12
790.065	271.36
790.246	375.8
790.427	287.74
790.607	300.03
790.788	300.03
790.969	297.98
791.15	322.56
791.331	308.22
791.512	242.68
791.693	267.26
791.874	263.16
792.054	261.12
792.235	291.84
792.416	254.97
792.597	279.55
792.778	246.78
792.958	254.97
793.139	232.44
793.32	205.82
793.5	267.26
793.681	295.93
793.862	289.79
794.042	287.74
794.223	226.3
794.404	287.74
794.584	185.34
794.765	218.11
794.945	234.49
795.126	254.97
795.306	287.74
795.487	214.01
795.667	250.88
795.848	257.02
796.028	216.06
796.209	193.53
796.389	269.31
796.57	238.59
796.75	216.06
796.93	175.1
797.111	279.55
797.291	275.45
797.471	232.44
797.652	257.02
797.832	214.01
798.012	207.87
798.192	189.44
798.373	275.45
798.553	254.97
798.733	201.72
798.913	209.92
799.093	218.11
799.274	257.02
799.454	214.01
799.634	273.4
799.814	158.72
799.994	189.44
800.174	181.25
800.354	242.68
800.534	234.49
800.714	164.86
800.894	150.53
801.074	214.01
801.254	138.24
801.434	191.49
801.614	173.05
801.794	119.81
801.974	639.99
802.154	152.57
802.334	230.4
802.514	224.25
802.693	222.2
802.873	152.57
803.053	271.36
803.233	101.37
803.413	189.44
803.592	93.18
803.772	177.15
803.952	207.87
804.131	205.82
804.311	138.24
804.491	230.4
804.67	175.1
804.85	191.49
805.03	150.53
805.209	164.86
805.389	189.44
805.568	140.29
805.748	158.72
805.928	125.95
806.107	164.86
806.287	128
806.466	156.67
806.646	156.67
806.825	197.63
807.004	82.94
807.184	164.86
807.363	136.19
807.543	150.53
807.722	230.4
807.901	197.63
808.081	232.44
808.26	152.57
808.439	177.15
808.619	156.67
808.798	132.09
808.977	140.29
809.156	214.01
809.336	183.29
809.515	148.48
809.694	119.81
809.873	117.76
810.052	136.19
810.231	205.82
810.411	193.53
810.59	115.71
810.769	134.14
810.948	199.68
811.127	44.03
811.306	214.01
811.485	140.29
811.664	121.85
811.843	78.85
812.022	181.25
812.201	123.9
812.38	119.81
812.559	115.71
812.737	107.52
812.916	25.6
813.095	136.19
813.274	115.71
813.453	179.2
813.632	99.33
813.811	113.66
813.989	132.09
814.168	197.63
814.347	89.09
814.526	70.65
814.704	99.33
814.883	144.38
815.062	82.94
815.24	156.67
815.419	78.85
815.598	103.42
815.776	82.94
815.955	185.34
816.133	68.61
816.312	117.76
816.49	107.52
816.669	50.18
816.847	52.22
817.026	132.09
817.204	142.33
817.383	33.79
817.561	78.85
817.74	109.57
817.918	111.61
818.097	48.13
818.275	82.94
818.453	148.48
818.632	146.43
818.81	58.37
818.988	58.37
819.167	121.85
819.345	93.18
819.523	111.61
819.701	160.77
819.879	109.57
820.058	119.81
820.236	66.56
820.414	95.23
820.592	117.76
820.77	103.42
820.948	95.23
821.127	11.26
821.305	152.57
821.483	76.8
821.661	138.24
821.839	66.56
822.017	84.99
822.195	-23.55
822.373	99.33
822.551	-33.79
822.729	91.13
822.907	39.94
823.085	50.18
823.262	46.08
823.44	84.99
823.618	95.23
823.796	136.19
823.974	113.66
824.152	29.7
824.329	39.94
824.507	35.84
824.685	107.52
824.863	158.72
825.04	46.08
825.218	95.23
825.396	17.41
825.574	91.13
825.751	132.09
825.929	82.94
826.107	84.99
826.284	128
826.462	25.6
826.639	33.79
826.817	44.03
826.994	117.76
827.172	89.09
827.349	95.23
827.527	68.61
827.704	150.53
827.882	70.65
828.059	21.5
828.237	76.8
828.414	99.33
828.591	99.33
828.769	60.42
828.946	41.98
829.124	68.61
829.301	35.84
829.478	62.46
829.655	121.85
829.833	29.7
830.01	84.99
830.187	64.51
830.364	17.41
830.542	25.6
830.719	76.8
830.896	99.33
831.073	27.65
831.25	17.41
831.427	84.99
831.604	115.71
831.782	17.41
831.959	78.85
832.136	54.27
832.313	25.6
832.49	44.03
832.667	101.37
832.844	54.27
833.021	93.18
833.198	21.5
833.374	121.85
833.551	128
833.728	99.33
833.905	97.28
834.082	91.13
834.259	29.7
834.436	82.94
834.612	132.09
834.789	109.57
834.966	84.99
835.143	103.42
835.319	74.75
835.496	66.56
835.673	82.94
835.85	87.04
836.026	50.18
836.203	33.79
836.38	62.46
836.556	82.94
836.733	9.22
836.909	101.37
837.086	7.17
837.262	91.13
837.439	-52.22
837.616	17.41
837.792	-37.89
837.968	41.98
838.145	-27.65
838.321	60.42
838.498	48.13
838.674	93.18
838.851	60.42
839.027	78.85
839.203	111.61
839.38	3.07
839.556	17.41
839.732	54.27
839.909	70.65
840.085	99.33
840.261	9.22
840.437	58.37
840.614	41.98
840.79	41.98
840.966	154.62
841.142	99.33
841.318	5.12
841.494	60.42
841.671	27.65
841.847	35.84
842.023	1.02
842.199	3.07
842.375	58.37
842.551	7.17
842.727	64.51
842.903	78.85
843.079	50.18
843.255	52.22
843.431	-15.36
843.607	37.89
843.783	60.42
843.959	62.46
844.134	54.27
844.31	27.65
844.486	68.61
844.662	37.89
844.838	-7.17
845.013	87.04
845.189	117.76
845.365	25.6
845.541	35.84
845.716	21.5
845.892	97.28
846.068	29.7
846.244	-93.18
846.419	27.65
846.595	35.84
846.77	21.5
846.946	-1.02
847.122	-39.94
847.297	41.98
847.473	93.18
847.648	-9.22
847.824	33.79
847.999	25.6
848.175	66.56
848.35	31.74
848.526	56.32
848.701	-7.17
848.876	-27.65
849.052	66.56
849.227	17.41
849.403	-17.41
849.578	54.27
849.753	9.22
849.929	-31.74
850.104	-23.55
850.279	-23.55
850.454	11.26
850.63	72.7
850.805	-105.47
850.98	33.79
851.155	-60.42
851.33	25.6
851.505	9.22
851.681	44.03
851.856	-29.7
852.031	52.22
852.206	-31.74
852.381	46.08
852.556	68.61
852.731	23.55
852.906	21.5
853.081	21.5
853.256	35.84
853.431	1.02
853.606	27.65
853.781	3.07
853.956	-5.12
854.131	74.75
854.305	-19.46
854.48	68.61
854.655	-17.41
854.83	82.94
855.005	48.13
855.18	52.22
855.354	39.94
855.529	25.6
855.704	39.94
855.879	52.22
856.053	3.07
856.228	107.52
856.403	25.6
856.577	70.65
856.752	-52.22
856.926	58.37
857.101	-25.6
857.276	33.79
857.45	-54.27
857.625	27.65
857.799	33.79
857.974	-19.46
858.148	-56.32
858.323	11.26
858.497	-13.31
858.672	41.98
858.846	-54.27
859.02	-13.31
859.195	-54.27
859.369	33.79
859.543	3.07
859.718	35.84
859.892	5.12
860.066	31.74
860.241	-23.55
860.415	48.13
860.589	9.22
860.763	44.03
860.938	-31.74
861.112	41.98
861.286	50.18
861.46	17.41
861.634	41.98
861.808	80.89
861.982	-5.12
862.157	62.46
862.331	-25.6
862.505	31.74
862.679	-5.12
862.853	70.65
863.027	-31.74
863.201	103.42
863.375	5.12
863.549	58.37
863.722	-19.46
863.896	-7.17
864.07	31.74
864.244	19.46
864.418	54.27
864.592	58.37
864.766	25.6
864.939	17.41
865.113	-23.55
865.287	76.8
865.461	-17.41
865.634	29.7
865.808	19.46
865.982	-17.41
866.156	-1.02
866.329	-31.74
866.503	-7.17
866.676	33.79
866.85	-5.12
867.024	35.84
867.197	31.74
867.371	37.89
867.544	5.12
867.718	-19.46
867.891	25.6
868.065	9.22
868.238	82.94
868.412	74.75
868.585	-37.89
868.759	70.65
868.932	72.7
869.105	-52.22
869.279	29.7
869.452	-7.17
869.625	93.18
869.799	-7.17
869.972	-46.08
870.145	68.61
870.319	5.12
870.492	-7.17
870.665	44.03
870.838	-7.17
871.011	-39.94
871.185	7.17
871.358	17.41
871.531	72.7
871.704	9.22
871.877	-23.55
872.05	-23.55
872.223	21.5
872.396	39.94
872.569	66.56
872.742	-21.5
872.915	41.98
873.088	84.99
873.261	-19.46
873.434	-19.46
873.607	37.89
873.78	7.17
873.953	39.94
874.126	3.07
874.299	-7.17
874.471	9.22
874.644	-23.55
874.817	52.22
874.99	84.99
875.163	-35.84
875.335	5.12
875.508	-37.89
875.681	82.94
875.853	21.5
876.026	29.7
876.199	33.79
876.371	74.75
876.544	29.7
876.717	74.75
876.889	-3.07
877.062	60.42
877.234	-44.03
877.407	-29.7
877.579	13.31
877.752	9.22
877.924	31.74
878.097	89.09
878.269	-19.46
878.442	-3.07
878.614	-21.5
878.786	-13.31
878.959	-7.17
879.131	46.08
879.303	-15.36
879.476	50.18
879.648	-9.22
879.82	25.6
879.993	1.02
880.165	-9.22
880.337	-48.13
880.509	29.7
880.681	23.55
880.854	-21.5
881.026	27.65
881.198	68.61
881.37	-27.65
881.542	-21.5
881.714	-66.56
881.886	-5.12
882.058	1.02
882.23	-31.74
882.402	-44.03
882.574	44.03
882.746	3.07
882.918	80.89
883.09	-31.74
883.262	-76.8
883.434	66.56
883.606	-7.17
883.778	19.46
883.95	68.61
884.122	66.56
884.293	60.42
884.465	-11.26
884.637	-27.65
884.809	-99.33
884.98	-7.17
885.152	15.36
885.324	-21.5
885.496	-21.5
885.667	-5.12
885.839	-29.7
886.011	-3.07
886.182	-3.07
886.354	9.22
886.525	-19.46
886.697	-27.65
886.869	9.22
887.04	-3.07
887.212	52.22
887.383	-27.65
887.555	19.46
887.726	-78.85
887.897	50.18
888.069	11.26
888.24	3.07
888.412	-5.12
888.583	60.42
888.754	-46.08
888.926	17.41
889.097	44.03
889.268	29.7
889.44	76.8
889.611	-44.03
889.782	5.12
889.953	-72.7
890.125	50.18
890.296	-5.12
890.467	37.89
890.638	-46.08
890.809	33.79
890.98	-72.7
891.151	-5.12
891.323	-9.22
891.494	-48.13
891.665	62.46
891.836	27.65
892.007	7.17
892.178	44.03
892.349	-19.46
892.52	-15.36
892.691	-23.55
892.862	3.07
893.032	-48.13
893.203	-44.03
893.374	9.22
893.545	-3.07
893.716	-52.22
893.887	91.13
894.057	-7.17
894.228	-35.84
894.399	-19.46
894.57	-23.55
894.74	-13.31
894.911	25.6
895.082	-1.02
895.253	-68.61
895.423	1.02
895.594	5.12
895.764	-3.07
895.935	25.6
896.106	19.46
896.276	39.94
896.447	27.65
896.617	-7.17
896.788	-46.08
896.958	52.22
897.129	5.12
897.299	-7.17
897.47	66.56
897.64	21.5
897.81	-21.5
897.981	33.79
898.151	29.7
898.322	41.98
898.492	-3.07
898.662	-46.08
898.832	-52.22
899.003	3.07
899.173	58.37
899.343	-21.5
899.513	-68.61
