Data from USB4F104151__98__14-18-01-619.txt Node

Date: Thu Mar 13 14:18:01 EDT 2025
User: louis
Spectrometer: USB4F10415
Trigger mode: 4
Integration Time (sec): 2.000000E-2
Scans to average: 1
Electric dark correction enabled: true
Nonlinearity correction enabled: false
Boxcar width: 0
XAxis mode: Wavelengths
Number of Pixels in Spectrum: 3648
>>>>>Begin Spectral Data<<<<<
178.204	-98.3
178.424	-98.3
178.644	-98.3
178.864	-137.21
179.084	-180.22
179.304	-40.96
179.524	24.58
179.744	30.72
179.964	-12.29
180.184	65.54
180.404	16.38
180.624	36.86
180.844	-2.05
181.064	-49.15
181.283	-16.38
181.503	-22.53
181.723	-30.72
181.943	-49.15
182.163	20.48
182.383	57.34
182.602	18.43
182.822	40.96
183.042	38.91
183.262	-4.1
183.482	-49.15
183.701	10.24
183.921	10.24
184.141	-40.96
184.361	18.43
184.58	-8.19
184.8	34.82
185.02	-40.96
185.239	45.06
185.459	36.86
185.679	71.68
185.898	-55.3
186.118	10.24
186.338	-8.19
186.557	-53.25
186.777	-49.15
186.997	-8.19
187.216	24.58
187.436	69.63
187.655	18.43
187.875	32.77
188.095	-14.34
188.314	34.82
188.534	38.91
188.753	40.96
188.973	16.38
189.192	20.48
189.412	34.82
189.631	-53.25
189.851	49.15
190.07	-40.96
190.29	-16.38
190.509	10.24
190.729	-40.96
190.948	53.25
191.168	67.58
191.387	65.54
191.607	-69.63
191.826	-30.72
192.045	-40.96
192.265	28.67
192.484	51.2
192.704	77.82
192.923	8.19
193.142	59.39
193.362	14.34
193.581	-6.14
193.8	81.92
194.02	-6.14
194.239	-40.96
194.458	-98.3
194.678	12.29
194.897	-16.38
195.116	51.2
195.335	0
195.555	26.62
195.774	12.29
195.993	38.91
196.212	49.15
196.432	-67.58
196.651	-14.34
196.87	8.19
197.089	145.41
197.308	43.01
197.528	12.29
197.747	45.06
197.966	-32.77
198.185	12.29
198.404	22.53
198.623	34.82
198.842	49.15
199.062	4.1
199.281	90.11
199.5	-12.29
199.719	79.87
199.938	16.38
200.157	59.39
200.376	57.34
200.595	98.3
200.814	67.58
201.033	-16.38
201.252	-24.58
201.471	-20.48
201.69	106.49
201.909	-30.72
202.128	-40.96
202.347	34.82
202.566	2.05
202.785	8.19
203.004	14.34
203.223	122.88
203.442	10.24
203.661	-49.15
203.879	-4.1
204.098	18.43
204.317	-8.19
204.536	45.06
204.755	83.97
204.974	16.38
205.193	36.86
205.411	51.2
205.63	24.58
205.849	6.14
206.068	-30.72
206.287	-32.77
206.505	24.58
206.724	24.58
206.943	-16.38
207.162	-26.62
207.381	57.34
207.599	-8.19
207.818	-38.91
208.037	20.48
208.255	45.06
208.474	-30.72
208.693	14.34
208.911	32.77
209.13	49.15
209.349	8.19
209.567	40.96
209.786	36.86
210.005	10.24
210.223	-16.38
210.442	20.48
210.661	18.43
210.879	75.77
211.098	-24.58
211.316	-47.1
211.535	43.01
211.753	-36.86
211.972	47.1
212.191	-8.19
212.409	-18.43
212.628	43.01
212.846	0
213.065	-4.1
213.283	57.34
213.502	-30.72
213.72	-16.38
213.938	-10.24
214.157	77.82
214.375	88.06
214.594	0
214.812	26.62
215.031	24.58
215.249	-6.14
215.467	18.43
215.686	-40.96
215.904	43.01
216.122	0
216.341	40.96
216.559	55.3
216.778	67.58
216.996	57.34
217.214	-81.92
217.432	71.68
217.651	32.77
217.869	26.62
218.087	67.58
218.306	86.01
218.524	88.06
218.742	59.39
218.96	20.48
219.179	-18.43
219.397	28.67
219.615	98.3
219.833	55.3
220.051	67.58
220.27	77.82
220.488	16.38
220.706	-40.96
220.924	53.25
221.142	-61.44
221.36	40.96
221.578	47.1
221.796	32.77
222.015	110.59
222.233	45.06
222.451	-10.24
222.669	-16.38
222.887	20.48
223.105	-77.82
223.323	-32.77
223.541	-38.91
223.759	-26.62
223.977	32.77
224.195	65.54
224.413	61.44
224.631	45.06
224.849	81.92
225.067	-14.34
225.285	88.06
225.503	79.87
225.721	-98.3
225.939	2.05
226.157	-4.1
226.375	12.29
226.592	-20.48
226.81	-16.38
227.028	18.43
227.246	49.15
227.464	73.73
227.682	26.62
227.9	34.82
228.117	43.01
228.335	-4.1
228.553	16.38
228.771	20.48
228.989	18.43
229.206	14.34
229.424	6.14
229.642	-55.3
229.86	-43.01
230.077	102.4
230.295	-24.58
230.513	-2.05
230.731	32.77
230.948	63.49
231.166	49.15
231.384	40.96
231.601	77.82
231.819	53.25
232.037	24.58
232.254	8.19
232.472	38.91
232.689	26.62
232.907	4.1
233.125	43.01
233.342	-14.34
233.56	-36.86
233.777	-57.34
233.995	-63.49
234.213	65.54
234.43	12.29
234.648	49.15
234.865	16.38
235.083	90.11
235.3	-10.24
235.518	24.58
235.735	73.73
235.953	86.01
236.17	-16.38
236.388	51.2
236.605	8.19
236.822	49.15
237.04	0
237.257	-32.77
237.475	8.19
237.692	59.39
237.909	-26.62
238.127	49.15
238.344	-8.19
238.562	26.62
238.779	135.17
238.996	22.53
239.214	36.86
239.431	102.4
239.648	2.05
239.865	59.39
240.083	40.96
240.3	67.58
240.517	10.24
240.735	26.62
240.952	4.1
241.169	77.82
241.386	-18.43
241.603	43.01
241.821	0
242.038	45.06
242.255	51.2
242.472	-47.1
242.689	34.82
242.907	4.1
243.124	77.82
243.341	20.48
243.558	53.25
243.775	51.2
243.992	-2.05
244.209	34.82
244.426	102.4
244.643	38.91
244.86	86.01
245.078	40.96
245.295	90.11
245.512	34.82
245.729	-12.29
245.946	57.34
246.163	57.34
246.38	57.34
246.597	14.34
246.814	0
247.031	2.05
247.248	-4.1
247.464	2.05
247.681	67.58
247.898	65.54
248.115	40.96
248.332	57.34
248.549	67.58
248.766	79.87
248.983	90.11
249.2	67.58
249.417	43.01
249.633	-30.72
249.85	69.63
250.067	73.73
250.284	-12.29
250.501	69.63
250.717	36.86
250.934	-45.06
251.151	6.14
251.368	34.82
251.585	53.25
251.801	34.82
252.018	45.06
252.235	65.54
252.451	-14.34
252.668	40.96
252.885	40.96
253.102	45.06
253.318	12.29
253.535	-2.05
253.752	8.19
253.968	45.06
254.185	-8.19
254.401	53.25
254.618	40.96
254.835	133.12
255.051	20.48
255.268	-14.34
255.484	-30.72
255.701	59.39
255.917	-8.19
256.134	36.86
256.351	-32.77
256.567	20.48
256.784	73.73
257	-14.34
257.217	6.14
257.433	-24.58
257.65	65.54
257.866	94.21
258.082	2.05
258.299	12.29
258.515	83.97
258.732	43.01
258.948	24.58
259.165	-32.77
259.381	-8.19
259.597	26.62
259.814	18.43
260.03	38.91
260.246	8.19
260.463	79.87
260.679	40.96
260.895	2.05
261.112	75.77
261.328	20.48
261.544	-28.67
261.761	71.68
261.977	-20.48
262.193	-18.43
262.409	124.93
262.626	59.39
262.842	34.82
263.058	-73.73
263.274	-24.58
263.49	2.05
263.707	63.49
263.923	-6.14
264.139	-14.34
264.355	51.2
264.571	-2.05
264.787	-22.53
265.004	81.92
265.22	26.62
265.436	-8.19
265.652	24.58
265.868	-45.06
266.084	-12.29
266.3	16.38
266.516	10.24
266.732	10.24
266.948	32.77
267.164	-32.77
267.38	40.96
267.596	-16.38
267.812	100.35
268.028	16.38
268.244	40.96
268.46	51.2
268.676	43.01
268.892	-12.29
269.108	22.53
269.324	-32.77
269.54	-30.72
269.756	-6.14
269.972	4.1
270.188	-14.34
270.403	-22.53
270.619	0
270.835	-10.24
271.051	57.34
271.267	-12.29
271.483	2.05
271.698	14.34
271.914	-28.67
272.13	-8.19
272.346	40.96
272.562	-45.06
272.777	6.14
272.993	49.15
273.209	-40.96
273.425	53.25
273.64	20.48
273.856	43.01
274.072	67.58
274.287	51.2
274.503	-36.86
274.719	100.35
274.934	8.19
275.15	-28.67
275.366	-10.24
275.581	10.24
275.797	-2.05
276.012	10.24
276.228	77.82
276.444	2.05
276.659	2.05
276.875	49.15
277.09	96.25
277.306	-36.86
277.521	92.16
277.737	32.77
277.952	8.19
278.168	-30.72
278.383	-24.58
278.599	-12.29
278.814	2.05
279.03	40.96
279.245	16.38
279.461	20.48
279.676	18.43
279.892	-40.96
280.107	18.43
280.322	18.43
280.538	86.01
280.753	-18.43
280.969	49.15
281.184	30.72
281.399	40.96
281.615	-20.48
281.83	92.16
282.045	8.19
282.26	40.96
282.476	18.43
282.691	106.49
282.906	2.05
283.122	32.77
283.337	28.67
283.552	94.21
283.767	10.24
283.983	10.24
284.198	2.05
284.413	59.39
284.628	-22.53
284.843	-45.06
285.058	20.48
285.274	57.34
285.489	49.15
285.704	10.24
285.919	79.87
286.134	43.01
286.349	34.82
286.564	-30.72
286.779	59.39
286.995	-4.1
287.21	49.15
287.425	106.49
287.64	2.05
287.855	90.11
288.07	-24.58
288.285	57.34
288.5	45.06
288.715	77.82
288.93	-30.72
289.145	71.68
289.36	75.77
289.575	-2.05
289.79	20.48
290.004	-40.96
290.219	83.97
290.434	0
290.649	0
290.864	4.1
291.079	-36.86
291.294	51.2
291.509	4.1
291.724	0
291.938	57.34
292.153	49.15
292.368	114.69
292.583	61.44
292.798	32.77
293.012	100.35
293.227	22.53
293.442	16.38
293.657	32.77
293.871	98.3
294.086	47.1
294.301	59.39
294.516	-22.53
294.73	114.69
294.945	24.58
295.16	49.15
295.374	118.78
295.589	40.96
295.804	-24.58
296.018	10.24
296.233	28.67
296.447	-28.67
296.662	36.86
296.877	71.68
297.091	2.05
297.306	-47.1
297.52	-32.77
297.735	65.54
297.949	65.54
298.164	81.92
298.378	-24.58
298.593	26.62
298.807	28.67
299.022	32.77
299.236	49.15
299.451	18.43
299.665	2.05
299.88	77.82
300.094	4.1
300.309	2.05
300.523	20.48
300.737	43.01
300.952	8.19
301.166	12.29
301.381	20.48
301.595	4.1
301.809	36.86
302.024	4.1
302.238	-2.05
302.452	14.34
302.667	0
302.881	124.93
303.095	32.77
303.309	-22.53
303.524	47.1
303.738	-40.96
303.952	34.82
304.166	88.06
304.381	16.38
304.595	49.15
304.809	90.11
305.023	79.87
305.237	-10.24
305.452	57.34
305.666	4.1
305.88	92.16
306.094	32.77
306.308	12.29
306.522	61.44
306.736	16.38
306.95	57.34
307.164	-57.34
307.379	4.1
307.593	81.92
307.807	94.21
308.021	16.38
308.235	18.43
308.449	0
308.663	-12.29
308.877	43.01
309.091	20.48
309.305	106.49
309.519	8.19
309.733	118.78
309.947	4.1
310.161	65.54
310.374	67.58
310.588	75.77
310.802	14.34
311.016	92.16
311.23	30.72
311.444	59.39
311.658	98.3
311.872	24.58
312.085	-8.19
312.299	77.82
312.513	-6.14
312.727	86.01
312.941	4.1
313.154	-8.19
313.368	49.15
313.582	26.62
313.796	-16.38
314.009	-14.34
314.223	90.11
314.437	8.19
314.651	20.48
314.864	51.2
315.078	-57.34
315.292	90.11
315.505	-8.19
315.719	75.77
315.933	-20.48
316.146	-51.2
316.36	16.38
316.573	124.93
316.787	55.3
317.001	79.87
317.214	4.1
317.428	18.43
317.641	40.96
317.855	-16.38
318.068	81.92
318.282	24.58
318.495	110.59
318.709	24.58
318.922	67.58
319.136	63.49
319.349	0
319.563	34.82
319.776	32.77
319.99	40.96
320.203	71.68
320.417	88.06
320.63	36.86
320.843	51.2
321.057	-32.77
321.27	-12.29
321.483	61.44
321.697	77.82
321.91	69.63
322.124	-4.1
322.337	-20.48
322.55	67.58
322.763	10.24
322.977	124.93
323.19	-36.86
323.403	-53.25
323.617	45.06
323.83	73.73
324.043	45.06
324.256	32.77
324.469	10.24
324.683	75.77
324.896	65.54
325.109	45.06
325.322	20.48
325.535	75.77
325.748	32.77
325.962	14.34
326.175	40.96
326.388	124.93
326.601	26.62
326.814	18.43
327.027	-12.29
327.24	114.69
327.453	-63.49
327.666	45.06
327.879	49.15
328.092	51.2
328.305	-8.19
328.518	8.19
328.731	0
328.944	40.96
329.157	32.77
329.37	20.48
329.583	96.25
329.796	67.58
330.009	16.38
330.222	53.25
330.435	32.77
330.648	20.48
330.861	-16.38
331.073	22.53
331.286	18.43
331.499	57.34
331.712	24.58
331.925	-30.72
332.138	-6.14
332.35	73.73
332.563	90.11
332.776	106.49
332.989	8.19
333.202	0
333.414	8.19
333.627	24.58
333.84	53.25
334.053	75.77
334.265	51.2
334.478	28.67
334.691	57.34
334.903	43.01
335.116	38.91
335.329	-18.43
335.541	118.78
335.754	18.43
335.966	-40.96
336.179	-24.58
336.392	-40.96
336.604	45.06
336.817	20.48
337.029	77.82
337.242	49.15
337.454	57.34
337.667	75.77
337.88	67.58
338.092	-30.72
338.305	114.69
338.517	45.06
338.729	98.3
338.942	73.73
339.154	61.44
339.367	24.58
339.579	73.73
339.792	-6.14
340.004	77.82
340.217	16.38
340.429	2.05
340.641	-12.29
340.854	-8.19
341.066	57.34
341.278	32.77
341.491	83.97
341.703	57.34
341.915	-30.72
342.128	45.06
342.34	-32.77
342.552	59.39
342.764	-16.38
342.977	18.43
343.189	57.34
343.401	-8.19
343.613	32.77
343.826	36.86
344.038	-16.38
344.25	131.07
344.462	59.39
344.674	55.3
344.886	79.87
345.099	73.73
345.311	10.24
345.523	45.06
345.735	0
345.947	49.15
346.159	-6.14
346.371	0
346.583	28.67
346.795	77.82
347.007	38.91
347.219	12.29
347.431	53.25
347.643	59.39
347.855	49.15
348.067	182.27
348.279	24.58
348.491	-12.29
348.703	86.01
348.915	28.67
349.127	8.19
349.339	8.19
349.551	4.1
349.763	59.39
349.975	22.53
350.187	106.49
350.399	24.58
350.61	40.96
350.822	-2.05
351.034	34.82
351.246	-4.1
351.458	73.73
351.669	73.73
351.881	53.25
352.093	94.21
352.305	79.87
352.517	69.63
352.728	8.19
352.94	49.15
353.152	8.19
353.363	90.11
353.575	36.86
353.787	124.93
353.999	116.73
354.21	88.06
354.422	40.96
354.633	2.05
354.845	53.25
355.057	49.15
355.268	26.62
355.48	86.01
355.692	77.82
355.903	43.01
356.115	26.62
356.326	12.29
356.538	83.97
356.749	32.77
356.961	75.77
357.172	0
357.384	45.06
357.595	102.4
357.807	98.3
358.018	47.1
358.23	32.77
358.441	49.15
358.653	77.82
358.864	10.24
359.075	65.54
359.287	-20.48
359.498	57.34
359.709	49.15
359.921	94.21
360.132	-10.24
360.344	16.38
360.555	36.86
360.766	24.58
360.977	83.97
361.189	45.06
361.4	-8.19
361.611	77.82
361.823	92.16
362.034	65.54
362.245	30.72
362.456	77.82
362.667	0
362.879	18.43
363.09	28.67
363.301	114.69
363.512	-16.38
363.723	81.92
363.935	133.12
364.146	77.82
364.357	6.14
364.568	10.24
364.779	-4.1
364.99	90.11
365.201	40.96
365.412	53.25
365.623	30.72
365.834	69.63
366.045	18.43
366.256	118.78
366.467	59.39
366.678	55.3
366.889	32.77
367.1	73.73
367.311	73.73
367.522	-2.05
367.733	67.58
367.944	57.34
368.155	57.34
368.366	36.86
368.577	61.44
368.788	16.38
368.999	10.24
369.209	51.2
369.42	98.3
369.631	36.86
369.842	98.3
370.053	24.58
370.264	59.39
370.474	73.73
370.685	-10.24
370.896	43.01
371.107	75.77
371.317	90.11
371.528	24.58
371.739	67.58
371.95	53.25
372.16	75.77
372.371	8.19
372.582	67.58
372.792	71.68
373.003	65.54
373.214	28.67
373.424	36.86
373.635	83.97
373.846	88.06
374.056	59.39
374.267	45.06
374.477	59.39
374.688	40.96
374.898	36.86
375.109	34.82
375.319	51.2
375.53	53.25
375.74	26.62
375.951	51.2
376.161	81.92
376.372	90.11
376.582	34.82
376.793	36.86
377.003	6.14
377.214	-12.29
377.424	40.96
377.635	57.34
377.845	26.62
378.055	114.69
378.266	-20.48
378.476	73.73
378.686	59.39
378.897	118.78
379.107	75.77
379.317	86.01
379.528	10.24
379.738	71.68
379.948	-28.67
380.158	114.69
380.369	36.86
380.579	75.77
380.789	45.06
380.999	67.58
381.21	10.24
381.42	81.92
381.63	20.48
381.84	61.44
382.05	61.44
382.261	86.01
382.471	120.83
382.681	20.48
382.891	65.54
383.101	67.58
383.311	114.69
383.521	65.54
383.731	20.48
383.941	67.58
384.151	155.65
384.361	24.58
384.571	16.38
384.781	65.54
384.991	30.72
385.201	118.78
385.411	2.05
385.621	43.01
385.831	88.06
386.041	16.38
386.251	83.97
386.461	57.34
386.671	116.73
386.881	100.35
387.091	45.06
387.301	4.1
387.511	73.73
387.72	122.88
387.93	147.45
388.14	81.92
388.35	79.87
388.56	73.73
388.769	73.73
388.979	65.54
389.189	-28.67
389.399	129.02
389.609	118.78
389.818	90.11
390.028	88.06
390.238	165.89
390.447	49.15
390.657	8.19
390.867	96.25
391.076	79.87
391.286	108.54
391.496	65.54
391.705	20.48
391.915	49.15
392.125	83.97
392.334	61.44
392.544	-6.14
392.753	20.48
392.963	112.64
393.172	81.92
393.382	73.73
393.591	155.65
393.801	118.78
394.01	141.31
394.22	16.38
394.429	116.73
394.639	98.3
394.848	102.4
395.058	71.68
395.267	92.16
395.477	53.25
395.686	137.21
395.895	147.45
396.105	184.32
396.314	100.35
396.524	92.16
396.733	118.78
396.942	69.63
397.152	155.65
397.361	139.26
397.57	135.17
397.78	108.54
397.989	118.78
398.198	145.41
398.407	77.82
398.617	53.25
398.826	81.92
399.035	32.77
399.244	129.02
399.453	90.11
399.663	133.12
399.872	126.97
400.081	133.12
400.29	188.41
400.499	79.87
400.708	217.08
400.917	104.45
401.127	43.01
401.336	75.77
401.545	159.74
401.754	110.59
401.963	147.45
402.172	124.93
402.381	86.01
402.59	135.17
402.799	165.89
403.008	225.28
403.217	169.98
403.426	221.18
403.635	114.69
403.844	90.11
404.053	139.26
404.262	184.32
404.471	157.69
404.68	114.69
404.888	139.26
405.097	192.51
405.306	223.23
405.515	217.08
405.724	139.26
405.933	147.45
406.142	233.47
406.35	194.56
406.559	124.93
406.768	178.17
406.977	233.47
407.185	264.19
407.394	303.1
407.603	227.32
407.812	237.56
408.02	323.58
408.229	266.24
408.438	245.76
408.646	225.28
408.855	253.95
409.064	335.87
409.272	335.87
409.481	385.02
409.69	307.2
409.898	245.76
410.107	393.21
410.315	380.92
410.524	368.63
410.733	337.91
410.941	464.89
411.15	419.83
411.358	409.59
411.567	475.13
411.775	450.55
411.984	538.62
412.192	452.6
412.401	475.13
412.609	540.66
412.818	628.73
413.026	626.68
413.234	532.47
413.443	577.53
413.651	598.01
413.86	634.87
414.068	718.84
414.276	790.52
414.485	712.69
414.693	710.65
414.901	888.82
415.11	870.39
415.318	833.52
415.526	851.96
415.734	907.25
415.943	876.53
416.151	903.15
416.359	958.45
416.567	978.93
416.776	1034.22
416.984	1130.48
417.192	1167.34
417.4	1163.25
417.608	1161.2
417.817	1279.98
418.025	1327.08
418.233	1427.43
418.441	1355.76
418.649	1396.71
418.857	1492.97
419.065	1613.8
419.273	1556.46
419.481	1630.18
419.689	1656.81
419.897	1679.33
420.105	1769.45
420.313	1853.41
420.521	1834.98
420.729	1888.23
420.937	2103.26
421.145	1990.63
421.353	2176.99
421.561	2179.04
421.769	2297.82
421.977	2385.88
422.185	2457.56
422.393	2559.96
422.601	2752.47
422.809	2711.51
423.017	2676.7
423.224	2787.29
423.432	2852.82
423.64	2951.12
423.848	3178.45
424.056	3061.71
424.263	3448.78
424.471	3366.86
424.679	3301.33
424.887	3596.23
425.094	3858.37
425.302	3688.39
425.51	3872.71
425.718	4046.79
425.925	4087.75
426.133	4220.86
426.341	4534.2
426.548	4743.1
426.756	4526.01
426.964	4683.7
427.171	4980.66
427.379	5126.07
427.586	5253.04
427.794	5377.97
428.001	5384.11
428.209	5736.36
428.417	5875.62
428.624	6014.88
428.832	6225.83
429.039	6006.69
429.247	6150.05
429.454	6586.27
429.662	7143.32
429.869	6725.53
430.076	7104.4
430.284	6836.12
430.491	7126.93
430.699	7694.22
430.906	7634.83
431.114	7692.17
431.321	8136.58
431.528	8044.42
431.736	8599.42
431.943	9252.72
432.15	8753.02
432.358	9019.25
432.565	9308.02
432.772	9332.59
432.979	9789.29
433.187	10125.16
433.394	9920.36
433.601	10839.9
433.808	10848.09
434.016	10745.69
434.223	11067.22
434.43	11685.71
434.637	11507.54
434.844	12263.24
435.052	12646.21
435.259	12486.47
435.466	12447.55
435.673	12539.71
435.88	13240.12
436.087	13940.52
436.294	14090.02
436.501	13524.79
436.708	14016.3
436.915	14399.27
437.122	15060.76
437.329	14880.54
437.537	15499.03
437.743	15589.14
437.95	15664.91
438.157	16219.91
438.364	16752.38
438.571	16776.96
438.778	16813.82
438.985	18626.28
439.192	18009.84
439.399	18351.85
439.606	17835.76
439.813	19103.45
440.02	20123.34
440.227	19834.58
440.433	19732.18
440.64	20029.13
440.847	19982.03
441.054	20405.96
441.261	21657.27
441.467	21718.71
441.674	21999.28
441.881	22605.48
442.088	22660.77
442.294	22419.11
442.501	23109.28
442.708	23561.88
442.914	24407.69
443.121	25335.42
443.328	24682.12
443.534	26433.13
443.741	25988.72
443.948	25351.81
444.154	27170.4
444.361	27068
444.568	27258.46
444.774	27262.56
444.981	27647.58
445.187	28401.23
445.394	29597.24
445.6	29435.45
445.807	32239.12
446.013	30809.64
446.22	30953
446.426	32486.93
446.633	32521.74
446.839	33695.23
447.046	31942.17
447.252	34051.58
447.459	33672.7
447.665	33908.22
447.871	35345.89
448.078	36988.36
448.284	35229.16
448.491	36337.11
448.697	37135.82
448.903	38270.39
449.11	38323.64
449.316	37633.47
449.522	38268.34
449.728	39234.99
449.935	39591.33
450.141	39323.05
450.347	40443.29
450.553	39097.77
450.76	39644.58
450.966	41391.5
451.172	40656.28
451.378	41522.57
451.584	40770.96
451.791	41719.17
451.997	41588.1
452.203	42292.6
452.409	42319.23
452.615	41764.23
452.821	40723.86
453.027	39982.49
453.233	42208.64
453.44	40551.83
453.646	41053.58
453.852	41207.18
454.058	41799.04
454.264	40734.1
454.47	41878.91
454.676	40422.81
454.882	41794.95
455.088	38092.22
455.294	38540.72
455.5	39878.05
455.705	39914.91
455.911	38428.09
456.117	37105.1
456.323	37103.05
456.529	35145.19
456.735	37004.75
456.941	35827.17
457.147	35237.35
457.352	34260.47
457.558	33797.63
457.764	33746.43
457.97	33056.26
458.176	32349.71
458.381	32579.09
458.587	30979.62
458.793	30852.65
458.999	29840.95
459.204	31460.9
459.41	30731.82
459.616	28517.96
459.821	28917.32
460.027	28419.66
460.233	28073.56
460.438	26783.34
460.644	26975.84
460.85	25468.54
461.055	24977.03
461.261	25429.63
461.466	23344.8
461.672	22744.74
461.878	24125.07
462.083	22716.07
462.289	22052.53
462.494	21935.79
462.7	21108.41
462.905	20580.04
463.111	21321.4
463.316	21524.15
463.522	20709.06
463.727	20805.31
463.932	20983.49
464.138	20547.27
464.343	20659.91
464.549	20285.13
464.754	20606.66
464.959	20616.9
465.165	20328.14
465.37	19640.02
465.575	19257.05
465.781	20025.04
465.986	19867.34
466.191	19222.23
466.397	18841.31
466.602	17743.6
466.807	18878.18
467.012	18697.95
467.218	18632.42
467.423	18190.06
467.628	18386.66
467.833	19085.02
468.038	18222.83
468.244	18005.74
468.449	18708.19
468.654	18159.34
468.859	17927.92
469.064	17866.48
469.269	17301.24
469.474	17346.3
469.679	17624.82
469.885	17032.96
470.09	17405.69
470.295	17176.31
470.5	16770.82
470.705	16985.85
470.91	16709.38
471.115	16412.42
471.32	16807.68
471.525	16531.2
471.73	16166.67
471.935	16181
472.139	15447.83
472.344	15838.99
472.549	15484.69
472.754	15322.9
472.959	15052.57
473.164	14610.21
473.369	14520.1
473.574	15148.82
473.778	14923.55
473.983	14858.01
474.188	14815.01
474.393	14098.22
474.598	14280.49
474.802	13944.62
475.007	13803.31
475.212	13979.43
475.417	13567.79
475.621	13668.14
475.826	13637.42
476.031	13199.16
476.235	13141.82
476.44	13354.8
476.645	12965.69
476.849	12994.36
477.054	12908.35
477.259	12539.71
477.463	12683.07
477.668	12361.54
477.872	12412.74
478.077	12048.2
478.282	12058.44
478.486	11886.41
478.691	11720.53
478.895	12011.34
479.1	11704.14
479.304	11652.94
479.509	11505.49
479.713	11671.37
479.918	11286.36
480.122	11208.53
480.326	11415.38
480.531	11304.79
480.735	10946.39
480.94	10983.26
481.144	11439.95
481.348	10903.39
481.553	11095.89
481.757	10815.32
481.961	10760.03
482.166	11267.92
482.37	11110.23
482.574	10823.51
482.778	10946.39
482.983	10891.1
483.187	10989.4
483.391	10866.52
483.595	11032.41
483.8	10780.51
484.004	10993.5
484.208	10989.4
484.412	10942.3
484.616	10839.9
484.821	10839.9
485.025	10641.25
485.229	10948.44
485.433	10725.21
485.637	11007.83
485.841	10674.01
486.045	10741.6
486.249	10805.08
486.453	10698.59
486.657	10800.99
486.861	10936.15
487.065	10774.36
487.269	10714.97
487.473	10616.67
487.677	10831.71
487.881	10782.56
488.085	10776.41
488.289	10823.51
488.493	10917.72
488.697	10909.53
488.901	10884.95
489.105	10731.36
489.309	10882.91
489.512	11026.26
489.716	11079.51
489.92	10821.47
490.124	11011.93
490.328	11044.7
490.531	11059.03
490.735	11104.09
490.939	11126.61
491.143	10934.11
491.346	11120.47
491.55	11243.35
491.754	11364.18
491.958	11290.45
492.161	11296.6
492.365	11212.63
492.569	11341.65
492.772	11296.6
492.976	11505.49
493.18	11544.4
493.383	11566.93
493.587	11718.48
493.79	11917.13
493.994	11634.51
494.197	11906.89
494.401	12005.19
494.605	12300.1
494.808	12134.21
495.012	12056.39
495.215	12205.89
495.419	12422.98
495.622	12328.77
495.825	12607.3
496.029	12449.6
496.232	12932.92
496.436	12435.27
496.639	13010.75
496.843	12896.06
497.046	13428.53
497.249	13377.33
497.453	13305.65
497.656	13696.82
497.859	13573.94
498.063	13754.16
498.266	14157.61
498.469	14075.69
498.673	14194.47
498.876	14284.58
499.079	14663.46
499.282	14647.07
499.485	14841.63
499.689	14993.18
499.892	15058.71
500.095	15167.26
500.298	15714.06
500.501	15378.2
500.705	15935.24
500.908	16035.6
501.111	16154.38
501.314	16301.83
501.517	16414.47
501.72	16649.99
501.923	16494.34
502.126	17047.29
502.329	17293.05
502.532	17321.72
502.735	17293.05
502.938	17647.35
503.141	17897.2
503.344	17991.41
503.547	18030.32
503.75	18355.94
503.953	18671.33
504.156	18642.66
504.359	18904.8
504.562	18976.48
504.765	19611.35
504.968	19445.46
505.17	19693.27
505.373	19965.65
505.576	20233.93
505.779	20178.64
505.982	20446.92
506.185	20633.29
506.387	21042.88
506.59	21077.69
506.793	21456.57
506.996	21374.65
507.198	22302.38
507.401	21814.96
507.604	22185.65
507.807	22634.15
508.009	22697.64
508.212	23131.81
508.415	23275.16
508.617	23553.69
508.82	23701.14
509.022	23553.69
509.225	24415.88
509.428	24467.08
509.63	24469.13
509.833	24368.78
510.035	25396.86
510.238	25083.52
510.44	25509.5
510.643	26046.07
510.845	25818.74
511.048	25841.27
511.25	26302.06
511.453	26488.43
511.655	27102.82
511.858	26943.08
512.06	27151.97
512.262	27506.27
512.465	27403.87
512.667	28169.81
512.87	28257.87
513.072	28218.96
513.274	28982.85
513.477	29062.72
513.679	29427.26
513.881	29617.72
514.084	30107.19
514.286	29881.91
514.488	30228.02
514.69	31198.76
514.893	31155.75
515.095	31102.5
515.297	31520.29
515.499	31479.33
515.701	31780.38
515.904	32069.14
516.106	32536.08
516.308	32986.63
516.51	32976.39
516.712	33084.94
516.914	33531.39
517.116	34115.06
517.318	34166.26
517.52	34592.24
517.722	34645.49
517.925	34885.1
518.127	35175.91
518.329	35548.64
518.531	35304.93
518.733	35929.56
518.935	36296.15
519.136	36396.5
519.338	36871.63
519.54	36885.97
519.742	37549.51
519.944	37180.87
520.146	38342.07
520.348	38340.02
520.55	38497.72
520.752	38139.32
520.954	39202.22
521.155	38940.08
521.357	39581.09
521.559	39785.89
521.761	40504.73
521.963	40463.77
522.164	40377.75
522.366	40705.43
522.568	41145.74
522.77	40908.18
522.971	41684.36
523.173	41708.93
523.375	41985.41
523.576	42087.81
523.778	42237.31
523.98	42696.05
524.181	42636.66
524.383	43029.87
524.584	43021.68
524.786	43044.21
524.988	43570.54
525.189	43830.63
525.391	44047.71
525.592	43965.79
525.794	44070.24
525.995	44346.72
526.197	44698.97
526.398	44371.29
526.6	44633.43
526.801	45188.43
527.003	45327.69
527.204	45344.08
527.406	45753.67
527.607	45741.38
527.808	46017.86
528.01	44969.3
528.211	45681.99
528.412	46574.91
528.614	46458.17
528.815	46370.11
529.016	46718.26
529.218	46218.56
529.419	46574.91
529.62	47015.22
529.822	46732.6
530.023	46918.96
530.224	46716.22
530.425	47082.8
530.626	46667.06
530.828	46525.75
531.029	47125.81
531.23	47060.27
531.431	46898.48
531.632	47410.48
531.833	47625.51
532.035	47574.31
532.236	47582.51
532.437	47732.01
532.638	46835
532.839	48051.49
533.04	47572.27
533.241	47557.93
533.442	48207.14
533.643	47883.56
533.844	47920.42
534.045	47547.69
534.246	47234.35
534.447	47895.85
534.648	47510.83
534.849	48241.95
535.05	47488.3
535.251	47609.13
535.451	47746.34
535.652	47942.95
535.853	48143.65
536.054	47961.38
536.255	47904.04
536.456	47559.98
536.657	48407.84
536.857	47613.23
537.058	48010.53
537.259	48256.29
537.46	48137.51
537.66	47992.1
537.861	47861.03
538.062	47959.33
538.263	48194.85
538.463	47541.55
538.664	47836.45
538.865	47752.49
539.065	47838.5
539.266	47412.52
539.466	48403.74
539.667	47447.34
539.868	48338.21
540.068	47912.23
540.269	47539.5
540.469	47957.28
540.67	47682.86
540.87	47744.3
541.071	47686.95
541.271	48080.16
541.472	47605.03
541.672	47275.31
541.873	47740.2
542.073	47463.72
542.274	47979.81
542.474	47691.05
542.675	47228.21
542.875	47793.45
543.075	47797.54
543.276	47000.88
543.476	47576.36
543.676	47484.2
543.877	47832.36
544.077	47748.39
544.277	47723.82
544.478	47412.52
544.678	47551.79
544.878	47346.99
545.078	47320.37
545.279	47543.59
545.479	47136.05
545.679	47326.51
545.879	47428.91
546.079	47205.68
546.28	47453.48
546.48	46984.5
546.68	47703.34
546.88	47605.03
547.08	47285.55
547.28	47238.45
547.48	47123.76
547.68	47424.81
547.88	46937.4
548.081	47992.1
548.281	47689
548.481	46826.81
548.681	47572.27
548.881	47367.47
549.081	46738.74
549.28	47332.65
549.48	47342.89
549.68	47183.15
549.88	47613.23
550.08	47056.18
550.28	46914.87
550.48	46779.7
550.68	47658.28
550.88	46961.97
551.08	46951.73
551.279	47080.75
551.479	46642.49
551.679	46847.29
551.879	47207.73
552.079	47154.48
552.278	46855.48
552.478	46941.49
552.678	46726.45
552.878	46681.4
553.077	46837.05
553.277	46357.82
553.477	47068.47
553.676	46763.32
553.876	47076.66
554.076	46820.66
554.275	46312.77
554.475	46118.21
554.674	46353.72
554.874	46724.41
555.074	46349.63
555.273	46632.25
555.473	47142.19
555.672	46587.19
555.872	46357.82
556.071	46454.08
556.271	46902.58
556.47	46376.25
556.67	45915.46
556.869	46449.98
557.068	46589.24
557.268	46247.23
557.467	46026.05
557.667	46085.44
557.866	46048.58
558.065	46146.88
558.265	45552.97
558.464	45733.19
558.663	46224.7
558.863	45571.4
559.062	46406.97
559.261	45811.01
559.461	46167.36
559.66	45673.8
559.859	45847.88
560.058	45569.35
560.258	45331.79
560.457	44891.47
560.656	45151.57
560.855	45370.7
561.054	45421.9
561.253	45051.22
561.453	44993.87
561.652	45505.87
561.851	44909.91
562.05	44647.77
562.249	44686.68
562.448	44938.58
562.647	44602.71
562.846	44752.21
563.045	44731.73
563.244	44418.39
563.443	45200.72
563.642	44086.62
563.841	44205.41
564.04	44266.84
564.239	44424.54
564.438	44119.39
564.637	44436.83
564.836	44162.4
565.035	43820.39
565.234	44242.27
565.432	44242.27
565.631	43699.56
565.83	44244.32
566.029	43384.17
566.228	43634.02
566.427	43787.62
566.625	43326.83
566.824	43165.04
567.023	43298.16
567.222	43107.69
567.42	43627.88
567.619	43283.82
567.818	42937.71
568.016	43232.62
568.215	43390.31
568.414	43101.55
568.612	43167.09
568.811	42362.23
569.01	42974.58
569.208	42163.58
569.407	42702.2
569.605	41993.6
569.804	42485.11
570.002	41899.39
570.201	42376.57
570.4	42378.62
570.598	41846.15
570.797	41739.65
570.995	41979.26
571.193	41545.09
571.392	42096
571.59	41127.31
571.789	41774.47
571.987	41532.81
572.186	41170.32
572.384	41278.86
572.582	41352.58
572.781	41346.44
572.979	40758.67
573.177	40871.31
573.376	40811.92
573.574	40586.64
573.772	40465.81
573.971	40408.47
574.169	40316.31
574.367	40228.25
574.565	40480.15
574.763	40019.36
574.962	40363.42
575.16	40017.31
575.358	40312.22
575.556	39255.46
575.754	40150.43
575.952	39421.35
576.151	39663.01
576.349	39157.16
576.547	39343.53
576.745	39265.7
576.943	39097.77
577.141	39417.25
577.339	39228.84
577.537	39097.77
577.735	38958.51
577.933	38651.31
578.131	38651.31
578.329	38522.29
578.527	38213.05
578.725	38432.18
578.923	38385.08
579.121	38194.62
579.319	37940.67
579.516	38178.23
579.714	38297.02
579.912	37991.87
580.11	37864.89
580.308	37615.04
580.506	38010.3
580.704	37510.6
580.901	37549.51
581.099	37881.28
581.297	37115.34
581.495	37270.98
581.692	37371.33
581.89	36636.11
582.088	37193.16
582.285	36888.01
582.483	37211.59
582.681	36732.37
582.878	36855.25
583.076	36363.73
583.274	36683.22
583.471	36122.07
583.669	36390.36
583.866	36216.28
584.064	36455.89
584.262	35722.72
584.459	36081.11
584.657	35747.29
584.854	35866.08
585.052	35626.46
585.249	35939.8
585.447	35501.54
585.644	35431.91
585.841	35192.29
586.039	35945.95
586.236	34770.41
586.434	34954.73
586.631	35057.13
586.828	34979.31
587.026	34606.58
587.223	34766.32
587.42	34764.27
587.618	34766.32
587.815	34326
588.012	34391.54
588.21	34379.25
588.407	34231.8
588.604	33959.42
588.801	33435.14
588.999	33951.23
589.196	33742.33
589.393	33773.05
589.59	33232.39
589.787	33564.16
589.984	33078.79
590.182	33338.88
590.379	33279.49
590.576	32734.73
590.773	33435.14
590.97	32984.58
591.167	33244.68
591.364	32638.48
591.561	32785.93
591.758	32458.26
591.955	32353.81
592.152	33011.21
592.349	32693.77
592.546	32333.33
592.743	32523.79
592.94	31708.7
593.137	31995.42
593.334	32206.36
593.531	31725.08
593.727	31764
593.924	31610.4
594.121	31335.97
594.318	31512.1
594.515	31129.12
594.712	31438.37
594.908	31065.64
595.105	31188.52
595.302	30768.68
595.499	31077.93
595.696	30699.05
595.892	30414.38
596.089	30998.06
596.286	30862.89
596.482	30240.31
596.679	30639.66
596.876	30275.12
597.072	30555.69
597.269	30582.32
597.466	30006.84
597.662	30133.81
597.859	29871.67
598.055	29892.15
598.252	29763.13
598.448	29996.6
598.645	29552.19
598.841	29552.19
599.038	29593.15
599.234	29513.28
599.431	29005.38
599.627	29017.67
599.824	29165.12
600.02	28747.34
600.217	29292.1
600.413	29150.79
600.609	28497.49
600.806	28651.08
601.002	28913.22
601.198	28270.16
601.395	28567.12
601.591	28399.18
601.787	28327.5
601.984	28087.89
602.18	28194.39
602.376	27872.85
602.572	27766.36
602.769	27704.92
602.965	27723.35
603.161	27670.11
603.357	27393.63
603.553	27506.27
603.75	27268.7
603.946	27178.59
604.142	27350.62
604.338	26818.15
604.534	27184.74
604.73	27108.96
604.926	26959.46
605.122	27098.72
605.318	26877.54
605.514	26769
605.71	26478.19
605.906	26519.15
606.102	26660.46
606.298	26521.2
606.494	26332.78
606.69	26250.86
606.886	26543.72
607.082	26285.68
607.278	26181.23
607.474	26025.59
607.67	26138.23
607.866	25800.31
608.062	26062.45
608.257	26289.77
608.453	26062.45
608.649	26023.54
608.845	25734.78
609.041	25632.38
609.236	25699.96
609.432	25704.06
609.628	25691.77
609.824	25259.65
610.019	25091.71
610.215	25321.09
610.411	25534.07
610.606	25290.37
610.802	25319.04
610.998	25149.06
611.193	25245.31
611.389	24997.51
611.584	24934.02
611.78	24647.3
611.976	25050.75
612.171	25032.32
612.367	24600.2
612.562	24854.15
612.758	24190.61
612.953	24254.09
613.149	24692.36
613.344	24497.8
613.539	24446.6
613.735	24450.7
613.93	24465.03
614.126	24368.78
614.321	24458.89
614.517	24401.55
614.712	24336.01
614.907	24159.89
615.103	24256.14
615.298	24200.85
615.493	24338.06
615.688	23508.63
615.884	24223.37
616.079	23785.11
616.274	23901.84
616.47	23881.36
616.665	24008.34
616.86	23582.36
617.055	23635.61
617.25	23758.49
617.445	23660.18
617.641	23365.28
617.836	23721.62
618.031	23580.31
618.226	23789.2
618.421	23346.84
618.616	23479.96
618.811	23162.53
619.006	23203.49
619.201	22732.45
619.396	22820.52
619.591	22648.49
619.786	22775.46
619.981	22541.99
620.176	22742.69
620.371	22144.69
620.566	22554.28
620.761	22154.93
620.956	22357.67
621.151	22001.33
621.346	22183.6
621.541	21905.07
621.735	21943.99
621.93	21687.99
622.125	21614.26
622.32	21231.29
622.515	21388.99
622.709	21300.92
622.904	21071.55
623.099	21169.85
623.294	21096.13
623.488	20432.58
623.683	20747.97
623.878	20225.74
624.072	20577.99
624.267	20410.06
624.462	20506.31
624.656	19828.43
624.851	20299.47
625.046	19957.46
625.24	19842.77
625.435	19443.42
625.629	19703.51
625.824	19363.54
626.018	19543.77
626.213	19085.02
626.407	19429.08
626.602	18755.3
626.796	19058.4
626.991	19019.49
627.185	18962.14
627.38	18630.37
627.574	18841.31
627.768	18620.13
627.963	18628.32
628.157	18433.77
628.352	18452.2
628.546	18243.31
628.74	18147.05
628.935	18009.84
629.129	17901.29
629.323	17657.59
629.517	18022.12
629.712	17876.72
629.906	17301.24
630.1	17227.51
630.294	17317.62
630.489	17383.16
630.683	17526.52
630.877	17041.15
631.071	17168.12
631.265	17067.77
631.459	16760.58
631.653	16971.52
631.848	16736
632.042	16574.21
632.236	16482.05
632.43	16215.82
632.624	16457.48
632.818	16236.3
633.012	16060.17
633.206	16105.23
633.4	16004.88
633.594	15755.02
633.788	15892.24
633.982	15945.48
634.176	15482.64
634.369	15617.81
634.563	15396.63
634.757	15435.54
634.951	15689.49
635.145	15539.99
635.339	15316.76
635.533	14888.73
635.726	15214.36
635.92	15150.87
636.114	14913.31
636.308	14817.05
636.501	14819.1
636.695	14858.01
636.889	14722.85
637.083	14477.09
637.276	14577.44
637.47	14309.16
637.664	14401.32
637.857	14284.58
638.051	14272.29
638.244	14118.7
638.438	14053.16
638.632	14001.96
638.825	13803.31
639.019	13821.74
639.212	13649.71
639.406	13647.66
639.599	13627.18
639.793	13573.94
639.986	13369.14
640.18	13354.8
640.373	13334.32
640.567	13201.21
640.76	13283.13
640.954	12992.31
641.147	12941.11
641.34	12922.68
641.534	13111.1
641.727	12932.92
641.92	12808
642.114	12797.76
642.307	12775.23
642.5	12533.57
642.694	12318.53
642.887	12402.5
643.08	12361.54
643.273	12298.05
643.467	12502.85
643.66	12076.87
643.853	12054.34
644.046	11937.61
644.239	12166.98
644.432	11745.1
644.626	11947.85
644.819	11749.2
645.012	11773.77
645.205	11706.19
645.398	11550.54
645.591	11540.3
645.784	11542.35
645.977	11415.38
646.17	11415.38
646.363	11419.47
646.556	11052.89
646.749	11304.79
646.942	11067.22
647.135	11099.99
647.328	11054.94
647.521	11022.17
647.714	10973.02
647.907	10755.93
648.099	11026.26
648.292	10862.43
648.485	10874.71
648.678	10508.13
648.871	10600.29
649.064	10413.92
649.256	10651.49
649.449	10510.18
649.642	10289
649.835	10454.88
650.027	10192.74
650.22	10112.87
650.413	10274.66
650.605	10237.8
650.798	10057.57
650.991	9781.1
651.183	9983.85
651.376	9957.22
651.568	9824.11
651.761	9901.93
651.954	9785.19
652.146	9512.81
652.339	9627.5
652.531	9580.4
652.724	9647.98
652.916	9398.13
653.109	9541.49
653.301	9299.83
653.494	9570.16
653.686	9119.6
653.879	9363.31
654.071	9142.13
654.263	9095.03
654.456	9109.36
654.648	9226.1
654.84	8802.17
655.033	8855.42
655.225	8949.62
655.417	8986.49
655.61	8914.81
655.802	8851.32
655.994	8699.77
656.186	8724.35
656.379	8628.09
656.571	8535.93
656.763	8652.67
656.955	8382.34
657.148	8556.41
657.34	8380.29
657.532	8265.6
657.724	8273.79
657.916	8312.71
658.108	8263.55
658.3	8206.21
658.492	8085.38
658.684	7958.41
658.876	8036.23
659.068	8071.04
659.26	8030.09
659.452	7800.71
659.644	7921.54
659.836	7847.82
660.028	7935.88
660.22	7853.96
660.412	7694.22
660.604	7681.93
660.796	7581.58
660.988	7755.66
661.18	7452.56
661.372	7446.41
661.563	7567.24
661.755	7526.29
661.947	7389.07
662.139	7505.81
662.331	7434.13
662.522	7153.55
662.714	7331.73
662.906	7137.17
663.097	7118.74
663.289	7266.19
663.481	7145.36
663.673	7196.56
663.864	7139.22
664.056	7049.11
664.247	6979.48
664.439	6971.29
664.631	7096.21
664.822	6948.76
665.014	6791.06
665.205	6918.04
665.397	6838.17
665.588	6885.27
665.78	6776.73
665.971	6752.15
666.163	6612.89
666.354	6584.22
666.546	6649.75
666.737	6561.69
666.929	6590.36
667.12	6563.74
667.311	6469.53
667.503	6293.41
667.694	6469.53
667.885	6463.39
668.077	6317.98
668.268	6498.2
668.459	6209.44
668.651	6254.5
668.842	6266.78
669.033	6176.67
669.224	6274.98
669.416	6178.72
669.607	6344.61
669.798	5965.73
669.989	6234.02
670.18	5984.16
670.371	5930.92
670.563	6021.03
670.754	6104.99
670.945	5812.14
671.136	5996.45
671.327	5908.39
671.518	5951.4
671.709	5855.14
671.9	6082.47
672.091	5922.73
672.282	5828.52
672.473	5752.74
672.664	5838.76
672.855	5629.87
673.046	5703.59
673.237	5736.36
673.428	5666.73
673.619	5590.95
673.809	5676.97
674	5603.24
674.191	5605.29
674.382	5535.66
674.573	5547.95
674.764	5334.96
674.954	5502.89
675.145	5566.38
675.336	5437.36
675.527	5496.75
675.717	5406.64
675.908	5423.02
676.099	5586.86
676.289	5332.91
676.48	5216.18
676.671	5332.91
676.861	5185.46
677.052	5226.42
677.243	5296.05
677.433	5201.84
677.624	5181.36
677.814	5175.22
678.005	5238.7
678.195	5275.57
678.386	5087.15
678.576	5083.06
678.767	5263.28
678.957	5038
679.148	5119.92
679.338	5101.49
679.529	5091.25
679.719	5140.4
679.909	5128.11
680.1	4853.69
680.29	4999.09
680.481	5066.67
680.671	5078.96
680.861	4892.6
681.052	5013.43
681.242	4999.09
681.432	5056.43
681.622	4868.02
681.813	4863.93
682.003	4865.97
682.193	4804.53
682.383	4886.45
682.573	4808.63
682.764	4829.11
682.954	4878.26
683.144	4808.63
683.334	4743.1
683.524	4767.67
683.714	4743.1
683.904	4671.42
684.094	4736.95
684.284	4700.09
684.474	4833.21
684.664	4614.07
684.854	4878.26
685.044	4718.52
685.234	4620.22
685.424	4534.2
685.614	4591.55
685.804	4646.84
685.994	4548.54
686.184	4691.9
686.374	4491.2
686.564	4530.11
686.753	4562.87
686.943	4548.54
687.133	4540.35
687.323	4435.9
687.513	4528.06
687.702	4427.71
687.892	4382.65
688.082	4323.26
688.272	4169.66
688.461	4483
688.651	4444.09
688.841	4284.35
689.03	4339.65
689.22	4425.66
689.41	4163.52
689.599	4263.87
689.789	4210.62
689.979	4087.75
690.168	4233.15
690.358	4059.07
690.547	4032.45
690.737	4073.41
690.926	4100.03
691.116	4063.17
691.305	4014.02
691.495	3987.4
691.684	3932.1
691.874	4212.67
692.063	4143.04
692.252	4016.07
692.442	3923.91
692.631	3940.29
692.82	3948.48
693.01	3866.57
693.199	3973.06
693.388	3874.76
693.578	3841.99
693.767	3866.57
693.956	3809.22
694.146	3876.8
694.335	3737.54
694.524	3796.93
694.713	3715.02
694.902	3835.85
695.092	3717.06
695.281	3676.1
695.47	3760.07
695.659	3649.48
695.848	3690.44
696.037	3588.04
696.226	3817.41
696.415	3762.12
696.604	3663.82
696.793	3606.47
696.982	3801.03
697.171	3667.91
697.36	3665.86
697.549	3721.16
697.738	3743.69
697.927	3629
698.116	3637.19
698.305	3469.26
698.494	3563.47
698.683	3618.76
698.872	3592.14
699.061	3534.79
699.25	3493.83
699.438	3672.01
699.627	3557.32
699.816	3506.12
700.005	3555.27
700.193	3438.54
700.382	3641.29
700.571	3383.24
700.76	3528.65
700.948	3444.68
701.137	3330
701.326	3538.89
701.514	3385.29
701.703	3514.31
701.892	3442.64
702.08	3407.82
702.269	3467.21
702.457	3221.45
702.646	3401.68
702.834	3327.95
703.023	3416.01
703.212	3399.63
703.4	3325.9
703.589	3383.24
703.777	3360.72
703.965	3391.44
704.154	3469.26
704.342	3270.61
704.531	3397.58
704.719	3344.33
704.907	3375.05
705.096	3289.04
705.284	3309.52
705.472	3379.15
705.661	3389.39
705.849	3385.29
706.037	3246.03
706.226	3149.78
706.414	3325.9
706.602	3282.89
706.79	3301.33
706.979	3262.41
707.167	3213.26
707.355	3264.46
707.543	3227.6
707.731	3172.3
707.919	3137.49
708.107	3256.27
708.296	3096.53
708.484	3205.07
708.672	3219.41
708.86	3131.34
709.048	3164.11
709.236	3092.43
709.424	3237.84
709.612	3321.81
709.8	3153.87
709.988	3098.58
710.176	3039.19
710.364	3055.57
710.551	3063.76
710.739	3045.33
710.927	3071.95
711.115	3033.04
711.303	3184.59
711.491	3094.48
711.679	2920.4
711.866	3035.09
712.054	3114.96
712.242	3010.51
712.43	3104.72
712.617	3076.05
712.805	2957.27
712.993	3026.9
713.181	2955.22
713.368	2930.64
713.556	2959.31
713.744	2998.23
713.931	2924.5
714.119	2998.23
714.306	3059.67
714.494	3047.38
714.682	3006.42
714.869	2951.12
715.057	2965.46
715.244	2893.78
715.432	3069.91
715.619	3047.38
715.807	2998.23
715.994	2981.84
716.182	2998.23
716.369	2889.68
716.556	2963.41
716.744	2908.12
716.931	3014.61
717.119	2965.46
717.306	3022.8
717.493	2846.68
717.681	2940.88
717.868	2889.68
718.055	2908.12
718.242	2934.74
718.43	2895.83
718.617	2910.16
718.804	2760.66
718.991	2854.87
719.179	2861.01
719.366	2887.64
719.553	2822.1
719.74	2856.92
719.927	2926.55
720.114	2727.89
720.301	2879.44
720.488	2932.69
720.676	2889.68
720.863	2801.62
721.05	2990.03
721.237	2899.92
721.424	2809.81
721.611	2781.14
721.798	2852.82
721.985	2768.85
722.172	2762.71
722.358	2736.09
722.545	2768.85
722.732	2699.22
722.919	2729.94
723.106	2703.32
723.293	2834.39
723.48	2711.51
723.667	2715.61
723.853	2785.24
724.04	2791.38
724.227	2688.98
724.414	2746.33
724.6	2709.46
724.787	2793.43
724.974	2600.92
725.161	2740.18
725.347	2635.74
725.534	2850.77
725.72	2760.66
725.907	2719.7
726.094	2740.18
726.28	2631.64
726.467	2752.47
726.653	2719.7
726.84	2707.41
727.027	2811.86
727.213	2623.45
727.4	2648.02
727.586	2650.07
727.773	2645.98
727.959	2662.36
728.145	2582.49
728.332	2609.11
728.518	2568.15
728.705	2658.26
728.891	2719.7
729.077	2801.62
729.264	2600.92
729.45	2514.91
729.636	2576.34
729.823	2650.07
730.009	2568.15
730.195	2557.91
730.382	2666.46
730.568	2531.29
730.754	2639.83
730.94	2637.78
731.126	2678.74
731.313	2666.46
731.499	2559.96
731.685	2623.45
731.871	2615.26
732.057	2576.34
732.243	2607.06
732.429	2672.6
732.615	2715.61
732.801	2486.23
732.987	2568.15
733.173	2494.43
733.359	2582.49
733.545	2623.45
733.731	2617.3
733.917	2596.82
734.103	2641.88
734.289	2523.1
734.475	2551.77
734.661	2648.02
734.847	2582.49
735.033	2619.35
735.219	2418.65
735.404	2457.56
735.59	2432.99
735.776	2539.48
735.962	2502.62
736.148	2465.75
736.333	2441.18
736.519	2539.48
736.705	2523.1
736.89	2387.93
737.076	2445.27
737.262	2394.08
737.447	2559.96
737.633	2449.37
737.819	2424.8
738.004	2445.27
738.19	2543.58
738.375	2437.08
738.561	2545.63
738.747	2432.99
738.932	2342.88
739.118	2502.62
739.303	2453.47
739.489	2312.16
739.674	2432.99
739.859	2295.77
740.045	2314.2
740.23	2383.84
740.416	2240.48
740.601	2361.31
740.786	2222.05
740.972	2269.15
741.157	2406.36
741.342	2361.31
741.528	2303.96
741.713	2367.45
741.898	2215.9
742.084	2297.82
742.269	2187.23
742.454	2228.19
742.639	2160.61
742.824	2252.77
743.01	2277.34
743.195	2213.85
743.38	2220
743.565	2244.57
743.75	2146.27
743.935	2207.71
744.12	2162.66
744.305	2150.37
744.49	2150.37
744.675	2138.08
744.86	2101.22
745.045	2187.23
745.23	2117.6
745.415	2000.87
745.6	2105.31
745.785	2041.82
745.97	2066.4
746.155	2121.7
746.34	2035.68
746.525	2045.92
746.71	2119.65
746.895	1949.67
747.079	1947.62
747.264	1992.67
747.449	1968.1
747.634	1974.24
747.819	1824.74
748.003	1916.9
748.188	1898.47
748.373	1902.56
748.557	1970.15
748.742	1804.26
748.927	1859.56
749.111	1804.26
749.296	1759.21
749.481	1861.6
749.665	1794.02
749.85	1818.6
750.034	1964
750.219	1826.79
750.404	1660.9
750.588	1746.92
750.773	1744.87
750.957	1789.92
751.141	1744.87
751.326	1720.29
751.51	1695.72
751.695	1701.86
751.879	1605.61
752.064	1681.38
752.248	1679.33
752.432	1732.58
752.617	1687.53
752.801	1630.18
752.985	1626.09
753.17	1591.27
753.354	1527.78
753.538	1552.36
753.722	1468.39
753.907	1556.46
754.091	1593.32
754.275	1525.74
754.459	1476.59
754.643	1523.69
754.828	1474.54
755.012	1441.77
755.196	1411.05
755.38	1488.87
755.564	1495.02
755.748	1511.4
755.932	1452.01
756.116	1445.87
756.3	1472.49
756.484	1409
756.668	1273.84
756.852	1325.04
757.036	1335.28
757.22	1353.71
757.404	1335.28
757.588	1427.43
757.772	1372.14
757.956	1314.8
758.14	1353.71
758.323	1255.4
758.507	1263.6
758.691	1302.51
758.875	1306.6
759.059	1374.19
759.242	1253.36
759.426	1220.59
759.61	1230.83
759.794	1245.17
759.977	1198.06
760.161	1257.45
760.345	1214.45
760.528	1310.7
760.712	1150.96
760.895	1202.16
761.079	1110
761.263	1204.21
761.446	1196.01
761.63	1155.05
761.813	1159.15
761.997	1142.77
762.18	1132.53
762.364	1105.9
762.547	1163.25
762.731	1196.01
762.914	1142.77
763.098	1034.22
763.281	1130.48
763.464	1163.25
763.648	1161.2
763.831	1079.28
764.015	1046.51
764.198	999.41
764.381	1038.32
764.564	1032.18
764.748	1075.18
764.931	993.26
765.114	974.83
765.297	1118.19
765.481	1126.38
765.664	1009.65
765.847	966.64
766.03	1056.75
766.213	1015.79
766.397	1034.22
766.58	972.79
766.763	991.22
766.946	1011.7
767.129	1007.6
767.312	974.83
767.495	1015.79
767.678	931.83
767.861	1007.6
768.044	987.12
768.227	1017.84
768.41	1048.56
768.593	917.49
768.776	868.34
768.959	921.59
769.142	942.07
769.324	860.15
769.507	919.54
769.69	903.15
769.873	884.72
770.056	956.4
770.239	845.81
770.421	962.55
770.604	901.11
770.787	925.68
770.97	917.49
771.152	911.35
771.335	811
771.518	884.72
771.7	804.85
771.883	831.48
772.066	868.34
772.248	880.63
772.431	876.53
772.613	851.96
772.796	833.52
772.978	921.59
773.161	952.31
773.343	788.47
773.526	843.76
773.708	813.04
773.891	776.18
774.073	782.32
774.256	821.24
774.438	780.28
774.621	716.79
774.803	761.84
774.985	802.8
775.168	829.43
775.35	780.28
775.532	747.51
775.715	638.97
775.897	876.53
776.079	782.32
776.261	720.89
776.444	696.31
776.626	829.43
776.808	718.84
776.99	679.93
777.173	684.02
777.355	690.17
777.537	749.56
777.719	778.23
777.901	716.79
778.083	751.6
778.265	620.53
778.447	626.68
778.629	634.87
778.811	679.93
778.993	675.83
779.175	649.21
779.357	698.36
779.539	557.05
779.721	608.25
779.903	647.16
780.085	714.74
780.267	595.96
780.449	655.35
780.631	608.25
780.812	610.29
780.994	598.01
781.176	456.7
781.358	598.01
781.54	600.05
781.721	634.87
781.903	540.66
782.085	536.57
782.267	538.62
782.448	589.82
782.63	505.85
782.812	552.95
782.993	557.05
783.175	614.39
783.357	501.75
783.538	491.51
783.72	526.33
783.901	520.18
784.083	507.9
784.264	493.56
784.446	471.03
784.627	495.61
784.809	425.98
784.99	464.89
785.172	495.61
785.353	411.64
785.535	491.51
785.716	493.56
785.897	503.8
786.079	497.66
786.26	425.98
786.441	421.88
786.623	442.36
786.804	452.6
786.985	466.94
787.167	520.18
787.348	438.27
787.529	450.55
787.71	475.13
787.891	409.59
788.073	440.31
788.254	440.31
788.435	405.5
788.616	446.46
788.797	354.3
788.978	436.22
789.159	382.97
789.34	397.31
789.522	346.11
789.703	356.35
789.884	393.21
790.065	405.5
790.246	405.5
790.427	354.3
790.607	432.12
790.788	417.79
790.969	352.25
791.15	348.15
791.331	346.11
791.512	370.68
791.693	292.86
791.874	333.82
792.054	323.58
792.235	305.15
792.416	319.48
792.597	395.26
792.778	393.21
792.958	352.25
793.139	333.82
793.32	282.62
793.5	354.3
793.681	419.83
793.862	278.52
794.042	356.35
794.223	274.43
794.404	327.68
794.584	284.67
794.765	260.09
794.945	370.68
795.126	313.34
795.306	331.77
795.487	288.76
795.667	282.62
795.848	212.99
796.028	270.33
796.209	288.76
796.389	272.38
796.57	352.25
796.75	235.52
796.93	290.81
797.111	233.47
797.291	288.76
797.471	333.82
797.652	241.66
797.832	274.43
798.012	321.53
798.192	161.79
798.373	305.15
798.553	311.29
798.733	251.9
798.913	243.71
799.093	292.86
799.274	329.72
799.454	348.15
799.634	327.68
799.814	206.84
799.994	264.19
800.174	272.38
800.354	258.04
800.534	241.66
800.714	249.85
800.894	221.18
801.074	169.98
801.254	241.66
801.434	262.14
801.614	286.72
801.794	221.18
801.974	819.19
802.154	217.08
802.334	221.18
802.514	233.47
802.693	260.09
802.873	219.13
803.053	266.24
803.233	292.86
803.413	184.32
803.592	229.37
803.772	139.26
803.952	174.08
804.131	192.51
804.311	178.17
804.491	212.99
804.67	264.19
804.85	212.99
805.03	294.91
805.209	163.84
805.389	180.22
805.568	182.27
805.748	147.45
805.928	217.08
806.107	190.46
806.287	188.41
806.466	190.46
806.646	180.22
806.825	200.7
807.004	233.47
807.184	256
807.363	202.75
807.543	196.61
807.722	155.65
807.901	231.42
808.081	270.33
808.26	108.54
808.439	241.66
808.619	182.27
808.798	249.85
808.977	120.83
809.156	251.9
809.336	200.7
809.515	215.04
809.694	225.28
809.873	206.84
810.052	172.03
810.231	200.7
810.411	151.55
810.59	182.27
810.769	163.84
810.948	202.75
811.127	129.02
811.306	57.34
811.485	204.8
811.664	155.65
811.843	135.17
812.022	217.08
812.201	102.4
812.38	149.5
812.559	180.22
812.737	188.41
812.916	86.01
813.095	98.3
813.274	198.65
813.453	221.18
813.632	172.03
813.811	221.18
813.989	147.45
814.168	126.97
814.347	196.61
814.526	151.55
814.704	98.3
814.883	180.22
815.062	157.69
815.24	155.65
815.419	172.03
815.598	139.26
815.776	147.45
815.955	106.49
816.133	92.16
816.312	98.3
816.49	172.03
816.669	116.73
816.847	131.07
817.026	169.98
817.204	163.84
817.383	172.03
817.561	149.5
817.74	92.16
817.918	108.54
818.097	145.41
818.275	161.79
818.453	126.97
818.632	122.88
818.81	100.35
818.988	92.16
819.167	106.49
819.345	184.32
819.523	174.08
819.701	139.26
819.879	133.12
820.058	61.44
820.236	94.21
820.414	114.69
820.592	106.49
820.77	131.07
820.948	106.49
821.127	122.88
821.305	153.6
821.483	110.59
821.661	139.26
821.839	2.05
822.017	182.27
822.195	147.45
822.373	133.12
822.551	116.73
822.729	131.07
822.907	16.38
823.085	143.36
823.262	108.54
823.44	90.11
823.618	155.65
823.796	141.31
823.974	43.01
824.152	151.55
824.329	65.54
824.507	116.73
824.685	81.92
824.863	163.84
825.04	73.73
825.218	174.08
825.396	100.35
825.574	118.78
825.751	143.36
825.929	67.58
826.107	18.43
826.284	100.35
826.462	122.88
826.639	67.58
826.817	-22.53
826.994	163.84
827.172	73.73
827.349	65.54
827.527	161.79
827.704	57.34
827.882	88.06
828.059	22.53
828.237	108.54
828.414	108.54
828.591	92.16
828.769	90.11
828.946	83.97
829.124	108.54
829.301	100.35
829.478	90.11
829.655	6.14
829.833	120.83
830.01	24.58
830.187	92.16
830.364	45.06
830.542	69.63
830.719	108.54
830.896	145.41
831.073	88.06
831.25	106.49
831.427	90.11
831.604	53.25
831.782	90.11
831.959	71.68
832.136	49.15
832.313	65.54
832.49	30.72
832.667	59.39
832.844	-14.34
833.021	155.65
833.198	26.62
833.374	110.59
833.551	83.97
833.728	10.24
833.905	108.54
834.082	49.15
834.259	-40.96
834.436	81.92
834.612	18.43
834.789	75.77
834.966	73.73
835.143	122.88
835.319	83.97
835.496	188.41
835.673	75.77
835.85	73.73
836.026	16.38
836.203	40.96
836.38	63.49
836.556	57.34
836.733	-24.58
836.909	151.55
837.086	-45.06
837.262	-32.77
837.439	-8.19
837.616	55.3
837.792	26.62
837.968	67.58
838.145	57.34
838.321	79.87
838.498	57.34
838.674	131.07
838.851	26.62
839.027	90.11
839.203	28.67
839.38	65.54
839.556	22.53
839.732	86.01
839.909	69.63
840.085	86.01
840.261	69.63
840.437	63.49
840.614	110.59
840.79	124.93
840.966	24.58
841.142	149.5
841.318	20.48
841.494	116.73
841.671	116.73
841.847	24.58
842.023	32.77
842.199	92.16
842.375	155.65
842.551	-32.77
842.727	34.82
842.903	81.92
843.079	79.87
843.255	79.87
843.431	65.54
843.607	73.73
843.783	51.2
843.959	-24.58
844.134	69.63
844.31	116.73
844.486	71.68
844.662	75.77
844.838	102.4
845.013	86.01
845.189	38.91
845.365	-6.14
845.541	67.58
845.716	73.73
845.892	63.49
846.068	45.06
846.244	-4.1
846.419	34.82
846.595	49.15
846.77	-98.3
846.946	57.34
847.122	55.3
847.297	-14.34
847.473	81.92
847.648	12.29
847.824	57.34
847.999	-32.77
848.175	-10.24
848.35	155.65
848.526	28.67
848.701	98.3
848.876	112.64
849.052	108.54
849.227	30.72
849.403	2.05
849.578	49.15
849.753	81.92
849.929	83.97
850.104	57.34
850.279	47.1
850.454	131.07
850.63	73.73
850.805	51.2
850.98	8.19
851.155	-12.29
851.33	108.54
851.505	-22.53
851.681	4.1
851.856	16.38
852.031	47.1
852.206	-55.3
852.381	-16.38
852.556	-20.48
852.731	24.58
852.906	43.01
853.081	30.72
853.256	12.29
853.431	-30.72
853.606	-22.53
853.781	65.54
853.956	8.19
854.131	16.38
854.305	75.77
854.48	32.77
854.655	137.21
854.83	86.01
855.005	28.67
855.18	34.82
855.354	-6.14
855.529	34.82
855.704	4.1
855.879	-22.53
856.053	-63.49
856.228	-14.34
856.403	-30.72
856.577	81.92
856.752	28.67
856.926	67.58
857.101	16.38
857.276	-30.72
857.45	24.58
857.625	73.73
857.799	36.86
857.974	32.77
858.148	-8.19
858.323	73.73
858.497	-24.58
858.672	-8.19
858.846	34.82
859.02	-43.01
859.195	28.67
859.369	-24.58
859.543	67.58
859.718	30.72
859.892	32.77
860.066	69.63
860.241	-49.15
860.415	59.39
860.589	-32.77
860.763	26.62
860.938	-16.38
861.112	14.34
861.286	16.38
861.46	-4.1
861.634	24.58
861.808	112.64
861.982	40.96
862.157	59.39
862.331	-53.25
862.505	40.96
862.679	32.77
862.853	-8.19
863.027	18.43
863.201	65.54
863.375	12.29
863.549	32.77
863.722	0
863.896	75.77
864.07	43.01
864.244	49.15
864.418	-57.34
864.592	20.48
864.766	16.38
864.939	-38.91
865.113	79.87
865.287	32.77
865.461	28.67
865.634	-16.38
865.808	-12.29
865.982	-16.38
866.156	24.58
866.329	2.05
866.503	-16.38
866.676	45.06
866.85	65.54
867.024	65.54
867.197	24.58
867.371	-6.14
867.544	28.67
867.718	40.96
867.891	77.82
868.065	18.43
868.238	86.01
868.412	-24.58
868.585	-8.19
868.759	18.43
868.932	10.24
869.105	-36.86
869.279	-22.53
869.452	8.19
869.625	81.92
869.799	32.77
869.972	0
870.145	-14.34
870.319	79.87
870.492	57.34
870.665	-88.06
870.838	-59.39
871.011	69.63
871.185	0
871.358	-36.86
871.531	65.54
871.704	-49.15
871.877	-10.24
872.05	67.58
872.223	-57.34
872.396	-20.48
872.569	40.96
872.742	45.06
872.915	18.43
873.088	40.96
873.261	-36.86
873.434	22.53
873.607	20.48
873.78	-30.72
873.953	-16.38
874.126	51.2
874.299	24.58
874.471	-40.96
874.644	-32.77
874.817	-47.1
874.99	49.15
875.163	16.38
875.335	-2.05
875.508	-47.1
875.681	28.67
875.853	12.29
876.026	24.58
876.199	45.06
876.371	-8.19
876.544	-12.29
876.717	57.34
876.889	16.38
877.062	-16.38
877.234	-53.25
877.407	10.24
877.579	65.54
877.752	24.58
877.924	24.58
878.097	28.67
878.269	-43.01
878.442	4.1
878.614	49.15
878.786	-57.34
878.959	28.67
879.131	-69.63
879.303	-14.34
879.476	-38.91
879.648	-30.72
879.82	16.38
879.993	2.05
880.165	0
880.337	-65.53
880.509	12.29
880.681	38.91
880.854	40.96
881.026	-40.96
881.198	124.93
881.37	-47.1
881.542	16.38
881.714	22.53
881.886	18.43
882.058	-6.14
882.23	0
882.402	26.62
882.574	-26.62
882.746	34.82
882.918	-32.77
883.09	26.62
883.262	26.62
883.434	69.63
883.606	-28.67
883.778	-32.77
883.95	8.19
884.122	-4.1
884.293	73.73
884.465	-57.34
884.637	24.58
884.809	-51.2
884.98	8.19
885.152	57.34
885.324	-28.67
885.496	4.1
885.667	-38.91
885.839	-24.58
886.011	34.82
886.182	40.96
886.354	51.2
886.525	-6.14
886.697	-63.49
886.869	-18.43
887.04	-67.58
887.212	-26.62
887.383	53.25
887.555	28.67
887.726	61.44
887.897	4.1
888.069	34.82
888.24	-47.1
888.412	-12.29
888.583	45.06
888.754	40.96
888.926	-40.96
889.097	2.05
889.268	-38.91
889.44	43.01
889.611	-104.45
889.782	43.01
889.953	-43.01
890.125	90.11
890.296	-79.87
890.467	24.58
890.638	100.35
890.809	-12.29
890.98	-47.1
891.151	8.19
891.323	24.58
891.494	-45.06
891.665	57.34
891.836	-20.48
892.007	-55.3
892.178	-6.14
892.349	-28.67
892.52	16.38
892.691	-20.48
892.862	-61.44
893.032	-26.62
893.203	-114.69
893.374	8.19
893.545	40.96
893.716	-65.53
893.887	16.38
894.057	49.15
894.228	-6.14
894.399	12.29
894.57	63.49
894.74	40.96
894.911	75.77
895.082	12.29
895.253	63.49
895.423	0
895.594	43.01
895.764	24.58
895.935	16.38
896.106	20.48
896.276	-47.1
896.447	-6.14
896.617	32.77
896.788	-8.19
896.958	-4.1
897.129	-55.3
897.299	-22.53
897.47	-47.1
897.64	-8.19
897.81	-8.19
897.981	40.96
898.151	4.1
898.322	2.05
898.492	40.96
898.662	-24.58
898.832	-69.63
899.003	4.1
899.173	2.05
899.343	-24.58
899.513	-90.11
