Data from USB4F104151__33__14-16-33-911.txt Node

Date: Thu Mar 13 14:16:33 EDT 2025
User: louis
Spectrometer: USB4F10415
Trigger mode: 4
Integration Time (sec): 2.000000E-2
Scans to average: 1
Electric dark correction enabled: true
Nonlinearity correction enabled: false
Boxcar width: 0
XAxis mode: Wavelengths
Number of Pixels in Spectrum: 3648
>>>>>Begin Spectral Data<<<<<
178.204	-43.69
178.424	-43.69
178.644	-43.69
178.864	-133.8
179.084	-123.56
179.304	-51.88
179.524	23.89
179.744	5.46
179.964	32.08
180.184	-41.64
180.404	17.75
180.624	13.65
180.844	23.89
181.064	21.85
181.283	38.23
181.503	-27.31
181.723	-55.98
181.943	-51.88
182.163	161.11
182.383	54.61
182.602	46.42
182.822	-19.11
183.042	21.85
183.262	-2.73
183.482	-55.98
183.701	23.89
183.921	48.47
184.141	-2.73
184.361	38.23
184.58	38.23
184.8	48.47
185.02	27.99
185.239	120.15
185.459	71
185.679	111.96
185.898	-15.02
186.118	99.67
186.338	46.42
186.557	34.13
186.777	50.52
186.997	-4.78
187.216	27.99
187.436	107.86
187.655	21.85
187.875	60.76
188.095	30.04
188.314	1.37
188.534	30.04
188.753	-27.31
188.973	7.51
189.192	79.19
189.412	58.71
189.631	73.04
189.851	46.42
190.07	42.32
190.29	5.46
190.509	60.76
190.729	-2.73
190.948	-2.73
191.168	64.85
191.387	42.32
191.607	3.41
191.826	56.66
192.045	-45.74
192.265	34.13
192.484	83.28
192.704	5.46
192.923	-0.68
193.142	81.24
193.362	99.67
193.581	83.28
193.8	46.42
194.02	105.81
194.239	38.23
194.458	-2.73
194.678	15.7
194.897	64.85
195.116	99.67
195.335	118.1
195.555	62.8
195.774	25.94
195.993	118.1
196.212	13.65
196.432	46.42
196.651	105.81
196.87	46.42
197.089	34.13
197.308	81.24
197.528	71
197.747	19.8
197.966	30.04
198.185	163.15
198.404	42.32
198.623	36.18
198.842	89.43
199.062	66.9
199.281	71
199.5	56.66
199.719	40.28
199.938	120.15
200.157	27.99
200.376	54.61
200.595	1.37
200.814	32.08
201.033	34.13
201.252	15.7
201.471	128.34
201.69	68.95
201.909	5.46
202.128	25.94
202.347	148.82
202.566	13.65
202.785	-10.92
203.004	-15.02
203.223	87.38
203.442	-29.35
203.661	32.08
203.879	15.7
204.098	89.43
204.317	30.04
204.536	17.75
204.755	11.61
204.974	75.09
205.193	52.56
205.411	50.52
205.63	48.47
205.849	-41.64
206.068	50.52
206.287	9.56
206.505	136.53
206.724	50.52
206.943	32.08
207.162	58.71
207.381	60.76
207.599	-17.07
207.818	79.19
208.037	56.66
208.255	3.41
208.474	64.85
208.693	118.1
208.911	15.7
209.13	48.47
209.349	79.19
209.567	58.71
209.786	118.1
210.005	13.65
210.223	-15.02
210.442	58.71
210.661	44.37
210.879	79.19
211.098	32.08
211.316	116.05
211.535	13.65
211.753	11.61
211.972	3.41
212.191	-39.59
212.409	-6.83
212.628	46.42
212.846	54.61
213.065	-2.73
213.283	109.91
213.502	-10.92
213.72	21.85
213.938	-8.87
214.157	52.56
214.375	87.38
214.594	-27.31
214.812	34.13
215.031	71
215.249	5.46
215.467	-10.92
215.686	58.71
215.904	91.48
216.122	111.96
216.341	120.15
216.559	60.76
216.778	97.62
216.996	32.08
217.214	81.24
217.432	87.38
217.651	-8.87
217.869	38.23
218.087	62.8
218.306	-21.16
218.524	30.04
218.742	34.13
218.96	30.04
219.179	9.56
219.397	48.47
219.615	138.58
219.833	15.7
220.051	9.56
220.27	46.42
220.488	116.05
220.706	42.32
220.924	-2.73
221.142	48.47
221.36	32.08
221.578	56.66
221.796	38.23
222.015	75.09
222.233	5.46
222.451	79.19
222.669	34.13
222.887	21.85
223.105	13.65
223.323	1.37
223.541	-39.59
223.759	89.43
223.977	30.04
224.195	124.24
224.413	99.67
224.631	-4.78
224.849	60.76
225.067	132.44
225.285	3.41
225.503	50.52
225.721	56.66
225.939	54.61
226.157	42.32
226.375	136.53
226.592	17.75
226.81	30.04
227.028	99.67
227.246	122.2
227.464	54.61
227.682	50.52
227.9	71
228.117	56.66
228.335	-15.02
228.553	56.66
228.771	32.08
228.989	107.86
229.206	89.43
229.424	56.66
229.642	66.9
229.86	46.42
230.077	5.46
230.295	97.62
230.513	5.46
230.731	71
230.948	124.24
231.166	30.04
231.384	54.61
231.601	-2.73
231.819	36.18
232.037	15.7
232.254	-27.31
232.472	62.8
232.689	54.61
232.907	9.56
233.125	75.09
233.342	40.28
233.56	27.99
233.777	111.96
233.995	9.56
234.213	46.42
234.43	7.51
234.648	56.66
234.865	-19.11
235.083	48.47
235.3	27.99
235.518	71
235.735	189.78
235.953	60.76
236.17	64.85
236.388	40.28
236.605	38.23
236.822	48.47
237.04	54.61
237.257	-0.68
237.475	40.28
237.692	50.52
237.909	34.13
238.127	62.8
238.344	44.37
238.562	42.32
238.779	9.56
238.996	73.04
239.214	79.19
239.431	62.8
239.648	32.08
239.865	95.57
240.083	79.19
240.3	21.85
240.517	58.71
240.735	77.14
240.952	13.65
241.169	48.47
241.386	42.32
241.603	30.04
241.821	38.23
242.038	11.61
242.255	54.61
242.472	54.61
242.689	-10.92
242.907	40.28
243.124	40.28
243.341	42.32
243.558	40.28
243.775	62.8
243.992	-10.92
244.209	89.43
244.426	66.9
244.643	93.52
244.86	54.61
245.078	81.24
245.295	1.37
245.512	42.32
245.729	109.91
245.946	54.61
246.163	-55.98
246.38	27.99
246.597	32.08
246.814	7.51
247.031	15.7
247.248	9.56
247.464	71
247.681	13.65
247.898	48.47
248.115	71
248.332	19.8
248.549	23.89
248.766	60.76
248.983	128.34
249.2	5.46
249.417	91.48
249.633	85.33
249.85	64.85
250.067	5.46
250.284	40.28
250.501	62.8
250.717	42.32
250.934	11.61
251.151	34.13
251.368	91.48
251.585	71
251.801	-64.17
252.018	97.62
252.235	7.51
252.451	-2.73
252.668	-2.73
252.885	19.8
253.102	-76.46
253.318	44.37
253.535	-23.21
253.752	-2.73
253.968	-23.21
254.185	-27.31
254.401	-49.83
254.618	40.28
254.835	89.43
255.051	71
255.268	30.04
255.484	71
255.701	5.46
255.917	122.2
256.134	54.61
256.351	38.23
256.567	27.99
256.784	9.56
257	79.19
257.217	56.66
257.433	-10.92
257.65	62.8
257.866	83.28
258.082	30.04
258.299	-2.73
258.515	-6.83
258.732	19.8
258.948	-19.11
259.165	71
259.381	23.89
259.597	62.8
259.814	23.89
260.03	13.65
260.246	13.65
260.463	95.57
260.679	56.66
260.895	40.28
261.112	105.81
261.328	7.51
261.544	46.42
261.761	60.76
261.977	-31.4
262.193	17.75
262.409	68.95
262.626	32.08
262.842	38.23
263.058	34.13
263.274	32.08
263.49	-10.92
263.707	7.51
263.923	75.09
264.139	-17.07
264.355	109.91
264.571	105.81
264.787	32.08
265.004	79.19
265.22	71
265.436	44.37
265.652	38.23
265.868	23.89
266.084	40.28
266.3	56.66
266.516	34.13
266.732	-0.68
266.948	60.76
267.164	-0.68
267.38	42.32
267.596	52.56
267.812	95.57
268.028	30.04
268.244	79.19
268.46	48.47
268.676	1.37
268.892	46.42
269.108	30.04
269.324	32.08
269.54	34.13
269.756	87.38
269.972	-45.74
270.188	9.56
270.403	38.23
270.619	-31.4
270.835	-4.78
271.051	-8.87
271.267	-62.12
271.483	-19.11
271.698	-21.16
271.914	54.61
272.13	13.65
272.346	48.47
272.562	66.9
272.777	97.62
272.993	21.85
273.209	62.8
273.425	89.43
273.64	-10.92
273.856	66.9
274.072	-12.97
274.287	30.04
274.503	71
274.719	73.04
274.934	99.67
275.15	38.23
275.366	30.04
275.581	71
275.797	73.04
276.012	17.75
276.228	30.04
276.444	23.89
276.659	46.42
276.875	15.7
277.09	-6.83
277.306	-12.97
277.521	109.91
277.737	23.89
277.952	91.48
278.168	32.08
278.383	97.62
278.599	21.85
278.814	-4.78
279.03	-58.03
279.245	73.04
279.461	60.76
279.676	116.05
279.892	30.04
280.107	79.19
280.322	54.61
280.538	62.8
280.753	52.56
280.969	30.04
281.184	17.75
281.399	87.38
281.615	-23.21
281.83	15.7
282.045	-29.35
282.26	79.19
282.476	32.08
282.691	114
282.906	46.42
283.122	62.8
283.337	5.46
283.552	40.28
283.767	56.66
283.983	62.8
284.198	-15.02
284.413	54.61
284.628	21.85
284.843	13.65
285.058	87.38
285.274	-123.56
285.489	54.61
285.704	60.76
285.919	23.89
286.134	-51.88
286.349	122.2
286.564	23.89
286.779	56.66
286.995	34.13
287.21	-0.68
287.425	87.38
287.64	64.85
287.855	62.8
288.07	15.7
288.285	38.23
288.5	56.66
288.715	62.8
288.93	5.46
289.145	36.18
289.36	81.24
289.575	27.99
289.79	-2.73
290.004	46.42
290.219	25.94
290.434	91.48
290.649	-0.68
290.864	58.71
291.079	71
291.294	81.24
291.509	5.46
291.724	114
291.938	11.61
292.153	38.23
292.368	-74.41
292.583	25.94
292.798	-10.92
293.012	-0.68
293.227	1.37
293.442	42.32
293.657	62.8
293.871	169.3
294.086	30.04
294.301	23.89
294.516	9.56
294.73	75.09
294.945	-4.78
295.16	-15.02
295.374	132.44
295.589	120.15
295.804	23.89
296.018	-10.92
296.233	58.71
296.447	-12.97
296.662	46.42
296.877	105.81
297.091	52.56
297.306	71
297.52	3.41
297.735	81.24
297.949	81.24
298.164	13.65
298.378	-31.4
298.593	32.08
298.807	7.51
299.022	32.08
299.236	87.38
299.451	7.51
299.665	64.85
299.88	103.76
300.094	23.89
300.309	15.7
300.523	48.47
300.737	21.85
300.952	15.7
301.166	62.8
301.381	32.08
301.595	40.28
301.809	38.23
302.024	-15.02
302.238	58.71
302.452	157.01
302.667	66.9
302.881	3.41
303.095	40.28
303.309	64.85
303.524	30.04
303.738	46.42
303.952	-21.16
304.166	48.47
304.381	11.61
304.595	25.94
304.809	81.24
305.023	13.65
305.237	58.71
305.452	46.42
305.666	15.7
305.88	-6.83
306.094	21.85
306.308	87.38
306.522	95.57
306.736	99.67
306.95	46.42
307.164	95.57
307.379	34.13
307.593	75.09
307.807	54.61
308.021	7.51
308.235	105.81
308.449	38.23
308.663	23.89
308.877	89.43
309.091	87.38
309.305	116.05
309.519	46.42
309.733	91.48
309.947	11.61
310.161	97.62
310.374	13.65
310.588	136.53
310.802	21.85
311.016	83.28
311.23	1.37
311.444	19.8
311.658	48.47
311.872	64.85
312.085	23.89
312.299	103.76
312.513	85.33
312.727	-4.78
312.941	17.75
313.154	71
313.368	-15.02
313.582	97.62
313.796	52.56
314.009	77.14
314.223	-25.26
314.437	32.08
314.651	83.28
314.864	46.42
315.078	30.04
315.292	52.56
315.505	17.75
315.719	75.09
315.933	11.61
316.146	21.85
316.36	-33.45
316.573	64.85
316.787	-8.87
317.001	101.72
317.214	79.19
317.428	-29.35
317.641	-49.83
317.855	-35.5
318.068	-19.11
318.282	62.8
318.495	116.05
318.709	66.9
318.922	5.46
319.136	68.95
319.349	46.42
319.563	77.14
319.776	54.61
319.99	71
320.203	32.08
320.417	-19.11
320.63	58.71
320.843	46.42
321.057	-2.73
321.27	77.14
321.483	-10.92
321.697	62.8
321.91	9.56
322.124	71
322.337	75.09
322.55	81.24
322.763	50.52
322.977	11.61
323.19	13.65
323.403	81.24
323.617	60.76
323.83	21.85
324.043	32.08
324.256	71
324.469	85.33
324.683	93.52
324.896	75.09
325.109	58.71
325.322	48.47
325.535	79.19
325.748	89.43
325.962	23.89
326.175	52.56
326.388	105.81
326.601	40.28
326.814	64.85
327.027	15.7
327.24	105.81
327.453	-25.26
327.666	25.94
327.879	101.72
328.092	52.56
328.305	58.71
328.518	-4.78
328.731	38.23
328.944	52.56
329.157	-2.73
329.37	1.37
329.583	58.71
329.796	66.9
330.009	-55.98
330.222	64.85
330.435	93.52
330.648	99.67
330.861	73.04
331.073	32.08
331.286	38.23
331.499	79.19
331.712	-37.55
331.925	97.62
332.138	79.19
332.35	105.81
332.563	44.37
332.776	62.8
332.989	50.52
333.202	3.41
333.414	66.9
333.627	48.47
333.84	77.14
334.053	38.23
334.265	42.32
334.478	79.19
334.691	38.23
334.903	17.75
335.116	73.04
335.329	134.48
335.541	75.09
335.754	71
335.966	-2.73
336.179	103.76
336.392	34.13
336.604	-6.83
336.817	58.71
337.029	79.19
337.242	-23.21
337.454	91.48
337.667	21.85
337.88	60.76
338.092	27.99
338.305	140.63
338.517	-33.45
338.729	114
338.942	107.86
339.154	3.41
339.367	-31.4
339.579	5.46
339.792	48.47
340.004	54.61
340.217	-2.73
340.429	38.23
340.641	64.85
340.854	71
341.066	11.61
341.278	87.38
341.491	21.85
341.703	58.71
341.915	-45.74
342.128	71
342.34	118.1
342.552	48.47
342.764	38.23
342.977	15.7
343.189	-35.5
343.401	-10.92
343.613	-35.5
343.826	62.8
344.038	-33.45
344.25	154.96
344.462	46.42
344.674	17.75
344.886	73.04
345.099	93.52
345.311	109.91
345.523	44.37
345.735	-0.68
345.947	105.81
346.159	95.57
346.371	13.65
346.583	50.52
346.795	144.72
347.007	77.14
347.219	42.32
347.431	71
347.643	89.43
347.855	58.71
348.067	30.04
348.279	17.75
348.491	42.32
348.703	114
348.915	116.05
349.127	34.13
349.339	58.71
349.551	32.08
349.763	44.37
349.975	23.89
350.187	89.43
350.399	54.61
350.61	120.15
350.822	32.08
351.034	38.23
351.246	21.85
351.458	50.52
351.669	-19.11
351.881	62.8
352.093	109.91
352.305	97.62
352.517	36.18
352.728	101.72
352.94	87.38
353.152	95.57
353.363	-2.73
353.575	66.9
353.787	111.96
353.999	66.9
354.21	34.13
354.422	30.04
354.633	34.13
354.845	128.34
355.057	-4.78
355.268	-27.31
355.48	38.23
355.692	21.85
355.903	64.85
356.115	44.37
356.326	48.47
356.538	79.19
356.749	40.28
356.961	124.24
357.172	89.43
357.384	42.32
357.595	83.28
357.807	71
358.018	9.56
358.23	75.09
358.441	66.9
358.653	62.8
358.864	62.8
359.075	103.76
359.287	103.76
359.498	105.81
359.709	68.95
359.921	21.85
360.132	9.56
360.344	87.38
360.555	25.94
360.766	105.81
360.977	32.08
361.189	83.28
361.4	60.76
361.611	17.75
361.823	7.51
362.034	64.85
362.245	27.99
362.456	30.04
362.667	114
362.879	56.66
363.09	30.04
363.301	111.96
363.512	11.61
363.723	91.48
363.935	13.65
364.146	79.19
364.357	-2.73
364.568	48.47
364.779	-19.11
364.99	91.48
365.201	75.09
365.412	101.72
365.623	23.89
365.834	66.9
366.045	13.65
366.256	107.86
366.467	68.95
366.678	32.08
366.889	54.61
367.1	23.89
367.311	97.62
367.522	120.15
367.733	128.34
367.944	58.71
368.155	34.13
368.366	46.42
368.577	64.85
368.788	7.51
368.999	75.09
369.209	73.04
369.42	130.39
369.631	58.71
369.842	103.76
370.053	38.23
370.264	95.57
370.474	36.18
370.685	87.38
370.896	79.19
371.107	60.76
371.317	71
371.528	40.28
371.739	9.56
371.95	75.09
372.16	46.42
372.371	36.18
372.582	23.89
372.792	38.23
373.003	40.28
373.214	48.47
373.424	130.39
373.635	128.34
373.846	116.05
374.056	64.85
374.267	23.89
374.477	103.76
374.688	38.23
374.898	97.62
375.109	-10.92
375.319	46.42
375.53	103.76
375.74	44.37
375.951	-10.92
376.161	138.58
376.372	97.62
376.582	30.04
376.793	87.38
377.003	15.7
377.214	152.91
377.424	21.85
377.635	93.52
377.845	79.19
378.055	95.57
378.266	23.89
378.476	5.46
378.686	56.66
378.897	32.08
379.107	21.85
379.317	124.24
379.528	64.85
379.738	34.13
379.948	50.52
380.158	71
380.369	101.72
380.579	66.9
380.789	77.14
380.999	73.04
381.21	75.09
381.42	64.85
381.63	32.08
381.84	15.7
382.05	148.82
382.261	95.57
382.471	79.19
382.681	-2.73
382.891	111.96
383.101	21.85
383.311	11.61
383.521	48.47
383.731	126.29
383.941	97.62
384.151	93.52
384.361	-2.73
384.571	83.28
384.781	-31.4
384.991	91.48
385.201	101.72
385.411	44.37
385.621	120.15
385.831	105.81
386.041	81.24
386.251	48.47
386.461	54.61
386.671	66.9
386.881	130.39
387.091	71
387.301	13.65
387.511	87.38
387.72	34.13
387.93	38.23
388.14	66.9
388.35	34.13
388.56	97.62
388.769	95.57
388.979	122.2
389.189	64.85
389.399	103.76
389.609	73.04
389.818	64.85
390.028	116.05
390.238	56.66
390.447	91.48
390.657	50.52
390.867	73.04
391.076	-0.68
391.286	34.13
391.496	27.99
391.705	77.14
391.915	81.24
392.125	48.47
392.334	97.62
392.544	114
392.753	-10.92
392.963	87.38
393.172	56.66
393.382	75.09
393.591	87.38
393.801	-6.83
394.01	30.04
394.22	95.57
394.429	132.44
394.639	44.37
394.848	62.8
395.058	62.8
395.267	146.77
395.477	62.8
395.686	161.11
395.895	163.15
396.105	81.24
396.314	105.81
396.524	81.24
396.733	122.2
396.942	138.58
397.152	46.42
397.361	148.82
397.57	-0.68
397.78	111.96
397.989	89.43
398.198	142.68
398.407	42.32
398.617	87.38
398.826	79.19
399.035	62.8
399.244	54.61
399.453	32.08
399.663	52.56
399.872	179.54
400.081	140.63
400.29	220.5
400.499	87.38
400.708	138.58
400.917	116.05
401.127	171.35
401.336	124.24
401.545	165.2
401.754	150.87
401.963	93.52
402.172	148.82
402.381	71
402.59	132.44
402.799	122.2
403.008	185.68
403.217	105.81
403.426	197.97
403.635	128.34
403.844	157.01
404.053	124.24
404.262	144.72
404.471	210.26
404.68	150.87
404.888	157.01
405.097	103.76
405.306	179.54
405.515	161.11
405.724	152.91
405.933	189.78
406.142	185.68
406.35	163.15
406.559	218.45
406.768	189.78
406.977	238.93
407.185	126.29
407.394	259.41
407.603	197.97
407.812	249.17
408.02	263.51
408.229	161.11
408.438	187.73
408.646	185.68
408.855	251.22
409.064	212.31
409.272	310.61
409.481	314.7
409.69	283.98
409.898	283.98
410.107	286.03
410.315	308.56
410.524	343.38
410.733	365.9
410.941	359.76
411.15	329.04
411.358	415.05
411.567	415.05
411.775	398.67
411.984	386.38
412.192	392.53
412.401	441.68
412.609	470.35
412.818	515.41
413.026	529.74
413.234	519.5
413.443	546.12
413.651	537.93
413.86	611.66
414.068	621.9
414.276	740.68
414.485	626
414.693	712.01
414.901	734.54
415.11	619.85
415.318	640.33
415.526	775.5
415.734	759.11
415.943	800.07
416.151	826.7
416.359	861.51
416.567	851.27
416.776	855.37
416.984	982.34
417.192	884.04
417.4	951.62
417.608	931.14
417.817	1031.49
418.025	1144.13
418.233	1209.67
418.441	1084.74
418.649	1131.84
418.857	1224
419.065	1203.52
419.273	1221.95
419.481	1269.06
419.689	1451.33
419.897	1523.01
420.105	1408.32
420.313	1547.58
420.521	1559.87
420.729	1615.16
420.937	1604.92
421.145	1568.06
421.353	1832.25
421.561	1865.02
421.769	1946.94
421.977	1975.61
422.185	2022.71
422.393	2043.19
422.601	2067.77
422.809	2196.79
423.017	2159.92
423.224	2397.49
423.432	2397.49
423.64	2444.59
423.848	2561.33
424.056	2422.06
424.263	2727.21
424.471	2700.59
424.679	2823.47
424.887	2940.2
425.094	3058.98
425.302	3013.93
425.51	3167.52
425.718	3308.83
425.925	3400.99
426.133	3341.6
426.341	3597.6
426.548	3683.61
426.756	3671.33
426.964	3841.31
427.171	3994.9
427.379	4117.78
427.586	4283.67
427.794	4300.05
428.001	4535.57
428.209	4756.75
428.417	4668.69
428.624	4844.81
428.832	4832.52
429.039	4883.72
429.247	4977.93
429.454	5371.14
429.662	5801.21
429.869	5360.9
430.076	5922.04
430.284	5643.52
430.491	5784.83
430.699	6175.99
430.906	6186.23
431.114	6239.48
431.321	6561.01
431.528	6593.78
431.736	7083.24
431.943	7464.16
432.15	7224.55
432.358	7361.76
432.565	7697.63
432.772	7574.75
432.979	8058.07
433.187	7982.3
433.394	8221.91
433.601	8848.59
433.808	8684.75
434.016	8660.18
434.223	9043.15
434.43	9540.8
434.637	9389.25
434.844	10015.93
435.052	10196.15
435.259	10165.43
435.466	10247.35
435.673	10112.19
435.88	10896.56
436.087	11367.59
436.294	11410.6
436.501	10984.62
436.708	11162.8
436.915	11637.92
437.122	12180.64
437.329	12090.52
437.537	12539.03
437.743	12678.29
437.95	12661.91
438.157	13261.96
438.364	13747.33
438.571	13704.32
438.778	13517.96
438.985	15086.7
439.192	14457.98
439.399	14910.58
439.606	14464.12
439.813	15490.15
440.02	16383.07
440.227	16026.72
440.433	15813.73
440.64	16442.46
440.847	16100.45
441.054	16637.02
441.261	17871.94
441.467	17800.26
441.674	18033.73
441.881	18607.16
442.088	18459.71
442.294	18342.97
442.501	18877.49
442.708	18842.68
442.914	20067.36
443.121	20556.83
443.328	20204.58
443.534	21621.77
443.741	21197.84
443.948	20765.72
444.154	22322.18
444.361	22205.44
444.568	22574.08
444.774	22330.37
444.981	22418.43
445.187	23202.8
445.394	24019.94
445.6	23880.68
445.807	25914.31
446.013	25109.46
446.22	25138.13
446.426	26256.32
446.633	26799.04
446.839	27440.05
447.046	26340.29
447.252	27909.04
447.459	28076.97
447.665	27782.06
447.871	28830.62
448.078	30462.85
448.284	28754.85
448.491	29928.33
448.697	30837.63
448.903	31460.21
449.11	31527.8
449.316	30780.29
449.522	31615.86
449.728	32254.83
449.935	32457.57
450.141	32121.71
450.347	33342.3
450.553	32017.26
450.76	32652.13
450.966	33860.43
451.172	33080.16
451.378	34044.75
451.584	33635.16
451.791	34370.38
451.997	34177.87
452.203	34577.22
452.409	34632.52
452.615	34458.44
452.821	32861.02
453.027	32711.52
453.233	34390.86
453.44	33297.24
453.646	33960.78
453.852	34016.08
454.058	34388.81
454.264	33096.54
454.47	34018.13
454.676	33141.6
454.882	34313.03
455.088	31363.96
455.294	31433.59
455.5	32150.38
455.705	32387.94
455.911	31069.05
456.117	30372.74
456.323	30329.73
456.529	28461.99
456.735	30186.38
456.941	28797.85
457.147	28806.05
457.352	27915.18
457.558	27583.41
457.764	27726.77
457.97	27202.49
458.176	26555.33
458.381	26203.08
458.587	25514.96
458.793	25295.83
458.999	23958.5
459.204	25897.93
459.41	24982.49
459.616	23102.45
459.821	23256.05
460.027	23385.07
460.233	22561.79
460.438	21734.41
460.644	22039.56
460.85	21343.25
461.055	20503.58
461.261	20556.83
461.466	18904.12
461.672	18443.32
461.878	19645.48
462.083	18609.21
462.289	17939.52
462.494	17912.9
462.7	17216.59
462.905	16786.52
463.111	17439.82
463.316	17421.39
463.522	16925.78
463.727	16778.33
463.932	17089.62
464.138	16956.5
464.343	17167.44
464.549	16141.41
464.754	17038.42
464.959	16944.21
465.165	16305.24
465.37	15733.86
465.575	15621.22
465.781	16288.86
465.986	16299.1
466.191	15400.04
466.397	15463.53
466.602	14531.7
466.807	15254.64
467.012	15174.77
467.218	15240.3
467.423	14847.09
467.628	15000.69
467.833	15400.04
468.038	14912.63
468.244	14621.81
468.449	15211.63
468.654	14595.19
468.859	14707.83
469.064	14531.7
469.269	13935.74
469.474	13980.8
469.679	14185.6
469.885	14044.29
470.09	14138.49
470.295	13972.61
470.5	13743.24
470.705	13991.04
470.91	13573.25
471.115	13268.11
471.32	13540.49
471.525	13462.66
471.73	13231.24
471.935	13198.48
472.139	12752.02
472.344	12969.1
472.549	12559.51
472.754	12428.44
472.959	12334.23
473.164	11881.63
473.369	11924.64
473.574	12244.12
473.778	12180.64
473.983	12102.81
474.188	12004.51
474.393	11574.44
474.598	11582.63
474.802	11402.41
475.007	11404.46
475.212	11541.67
475.417	10871.98
475.621	11054.25
475.826	11011.25
476.031	10781.87
476.235	10745.01
476.44	10779.82
476.645	10433.72
476.849	10513.59
477.054	10419.38
477.259	10370.23
477.463	10310.84
477.668	9938.11
477.872	10286.26
478.077	9950.4
478.282	9686.21
478.486	9665.73
478.691	9682.11
478.895	9569.48
479.1	9622.72
479.304	9553.09
479.509	9215.18
479.713	9585.86
479.918	9254.09
480.122	9000.14
480.326	9333.96
480.531	9356.49
480.735	9231.56
480.94	9037
481.144	9194.7
481.348	8834.25
481.553	9213.13
481.757	8854.73
481.961	9000.14
482.166	9088.2
482.37	9106.63
482.574	8832.21
482.778	8836.3
482.983	9008.33
483.187	8987.85
483.391	8950.99
483.595	8965.32
483.8	8914.13
484.004	9110.73
484.208	8813.77
484.412	8885.45
484.616	8910.03
484.821	9024.72
485.025	8627.41
485.229	8934.6
485.433	8803.53
485.637	8877.26
485.841	8756.43
486.045	8762.58
486.249	8705.23
486.453	8781.01
486.657	8957.13
486.861	8930.51
487.065	8680.66
487.269	8824.01
487.473	8791.25
487.677	8950.99
487.881	8936.65
488.085	8764.62
488.289	8864.97
488.493	8996.04
488.697	8895.69
488.901	8918.22
489.105	8975.56
489.309	8920.27
489.512	9057.48
489.716	8932.56
489.92	8817.87
490.124	8844.49
490.328	9180.36
490.531	8942.8
490.735	9045.2
490.939	9057.48
491.143	9045.2
491.346	9157.83
491.55	9059.53
491.754	9170.12
491.958	9469.12
492.161	9333.96
492.365	9516.23
492.569	9352.39
492.772	9184.46
492.976	9213.13
493.18	9362.63
493.383	9614.53
493.587	9592
493.79	9891.01
493.994	9788.61
494.197	9794.75
494.401	9657.54
494.605	9798.85
494.808	10101.95
495.012	9948.35
495.215	10120.38
495.419	10208.44
495.622	10591.41
495.825	10065.08
496.029	10368.18
496.232	10597.56
496.436	10589.36
496.639	11031.72
496.843	10642.61
497.046	10958
497.249	10908.85
497.453	11152.56
497.656	11261.1
497.859	11361.45
498.063	11426.98
498.266	11457.7
498.469	11574.44
498.673	11599.01
498.876	11875.49
499.079	11918.5
499.282	11904.16
499.485	12520.6
499.689	12194.97
499.892	12397.72
500.095	12305.56
500.298	12932.24
500.501	12647.57
500.705	12899.47
500.908	13005.97
501.111	13204.62
501.314	13237.39
501.517	13368.46
501.72	13892.74
501.923	13622.41
502.126	13833.35
502.329	14285.95
502.532	14167.17
502.735	14126.21
502.938	14496.89
503.141	14603.38
503.344	14685.3
503.547	14963.82
503.75	15418.47
503.953	15469.67
504.156	15414.38
504.359	15942.75
504.562	15662.18
504.765	16180.32
504.968	16159.84
505.17	16364.64
505.373	16360.54
505.576	16780.37
505.779	17071.18
505.982	16843.86
506.185	17218.64
506.387	17421.39
506.59	17548.36
506.793	17777.73
506.996	17806.41
507.198	18367.55
507.401	17957.96
507.604	18420.8
507.807	18762.81
508.009	18766.9
508.212	19170.35
508.415	19078.19
508.617	19358.77
508.82	19631.15
509.022	19579.95
509.225	20141.09
509.428	20075.56
509.63	20302.88
509.833	20526.11
510.035	21117.97
510.238	21228.56
510.44	21228.56
510.643	21437.45
510.845	21883.91
511.048	21548.04
511.25	21814.28
511.453	22285.31
511.655	22934.52
511.858	22533.12
512.06	22842.36
512.262	22868.98
512.465	23190.52
512.667	23473.14
512.87	23749.61
513.072	23843.82
513.274	24191.97
513.477	24431.58
513.679	24525.79
513.881	24718.3
514.084	25363.41
514.286	25025.5
514.488	25273.3
514.69	25850.83
514.893	26192.84
515.095	26100.68
515.297	26190.79
515.499	26768.32
515.701	27046.84
515.904	27274.17
516.106	27147.19
516.308	27517.87
516.51	28029.87
516.712	27892.65
516.914	28255.14
517.116	28683.17
517.318	28699.55
517.52	28830.62
517.722	29252.5
517.925	29275.03
518.127	29965.2
518.329	29842.32
518.531	29827.98
518.733	30712.7
518.935	30641.03
519.136	31060.86
519.338	31263.61
519.54	31443.83
519.742	31714.16
519.944	31818.61
520.146	32670.56
520.348	32729.95
520.55	32805.73
520.752	32699.23
520.954	33473.37
521.155	33368.92
521.357	33835.86
521.559	34044.75
521.761	34448.2
521.963	34470.73
522.164	34536.26
522.366	34444.1
522.568	34833.22
522.77	34831.17
522.971	35597.11
523.173	35314.49
523.375	35969.84
523.576	35883.83
523.778	35879.73
523.98	36274.99
524.181	36639.53
524.383	36688.68
524.584	37112.61
524.786	37102.37
524.988	36893.47
525.189	37657.37
525.391	37987.09
525.592	37745.43
525.794	38277.9
525.995	37968.66
526.197	38486.79
526.398	37974.8
526.6	38224.65
526.801	38789.89
527.003	38908.68
527.204	38673.16
527.406	39187.2
527.607	39338.75
527.808	39396.09
528.01	38638.34
528.211	38931.2
528.412	40266.48
528.614	39807.73
528.815	39252.73
529.016	39803.64
529.218	39973.62
529.419	39990
529.62	40332.01
529.822	39983.86
530.023	40258.29
530.224	40223.47
530.425	40162.03
530.626	40112.88
530.828	40045.3
531.029	41110.24
531.23	40381.17
531.431	40354.54
531.632	40432.36
531.833	40766.18
532.035	40579.82
532.236	40354.54
532.437	40913.64
532.638	40645.35
532.839	40907.49
533.04	41163.49
533.241	40329.97
533.442	41157.35
533.643	41122.53
533.844	40710.89
534.045	40946.4
534.246	40741.61
534.447	41138.91
534.648	41122.53
534.849	40970.98
535.05	40729.32
535.251	40717.03
535.451	40788.71
535.652	41108.19
535.853	40973.03
536.054	41028.32
536.255	41259.74
536.456	40882.92
536.657	41360.09
536.857	41222.88
537.058	40979.17
537.259	41253.6
537.46	40889.06
537.66	40561.39
537.861	41351.9
538.062	40997.6
538.263	40852.2
538.463	40893.16
538.664	40846.05
538.865	40950.5
539.065	41034.47
539.266	40821.48
539.466	40985.32
539.667	40794.85
539.868	41163.49
540.068	41073.38
540.269	40686.31
540.469	41091.81
540.67	40594.15
540.87	41155.3
541.071	40932.07
541.271	41018.08
541.472	40684.26
541.672	40555.24
541.873	40336.11
542.073	40037.11
542.274	40735.46
542.474	40499.95
542.675	40268.53
542.875	41120.48
543.075	40444.65
543.276	40289.01
543.476	40983.27
543.676	40473.32
543.877	40561.39
544.077	40639.21
544.277	40807.14
544.478	40545
544.678	40538.86
544.878	40413.93
545.078	40532.71
545.279	40432.36
545.479	40485.61
545.679	40669.93
545.879	40899.3
546.079	40467.18
546.28	40358.64
546.48	40291.05
546.68	40645.35
546.88	40307.44
547.08	40403.69
547.28	40198.9
547.48	40041.2
547.68	40469.23
547.88	40299.25
548.081	40454.89
548.281	40252.14
548.481	40493.8
548.681	40704.74
548.881	40375.02
549.081	40227.57
549.28	40342.25
549.48	40532.71
549.68	40332.01
549.88	40907.49
550.08	39887.6
550.28	40213.23
550.48	40076.02
550.68	40536.81
550.88	40194.8
551.08	40100.59
551.279	40395.5
551.479	40078.07
551.679	40422.12
551.879	39885.56
552.079	40045.3
552.278	39994.1
552.478	40209.14
552.678	40102.64
552.878	40276.72
553.077	40088.31
553.277	39975.67
553.477	40651.5
553.676	40088.31
553.876	40033.01
554.076	39949.04
554.275	40325.87
554.475	39529.21
554.674	40108.79
554.874	39805.69
555.074	39701.24
555.273	39932.66
555.473	40116.98
555.672	39594.75
555.872	39783.16
556.071	39711.48
556.271	40137.46
556.47	39707.38
556.67	39420.67
556.869	39564.03
557.068	39547.64
557.268	39512.83
557.467	39654.14
557.667	39529.21
557.866	39828.21
558.065	39684.86
558.265	39105.28
558.464	39203.58
558.663	39422.72
558.863	38796.04
559.062	39557.88
559.261	38808.33
559.461	39516.92
559.66	38935.3
559.859	39267.07
560.058	38818.56
560.258	39344.89
560.457	38593.29
560.656	39518.97
560.855	38863.62
561.054	39123.71
561.253	38585.1
561.453	38753.03
561.652	38904.58
561.851	39310.08
562.05	38806.28
562.249	38253.33
562.448	38640.39
562.647	38525.71
562.846	38523.66
563.045	38398.73
563.244	37929.75
563.443	38503.18
563.642	38036.24
563.841	38007.57
564.04	38222.61
564.239	38482.7
564.438	37747.48
564.637	38298.38
564.836	38011.67
565.035	37907.22
565.234	37929.75
565.432	37888.79
565.631	37272.35
565.83	37884.69
566.029	37694.23
566.228	37276.44
566.427	37419.8
566.625	37290.78
566.824	37042.98
567.023	37354.27
567.222	36735.78
567.42	36942.63
567.619	36887.33
567.818	37104.42
568.016	37178.14
568.215	36825.89
568.414	36750.12
568.612	37331.74
568.811	36455.21
569.01	36727.59
569.208	35980.08
569.407	36799.27
569.605	36584.23
569.804	36586.28
570.002	36027.18
570.201	36293.42
570.4	36248.36
570.598	35857.2
570.797	35873.59
570.995	36311.85
571.193	35265.34
571.392	35646.26
571.59	35093.31
571.789	35490.62
571.987	35224.38
572.186	35294.01
572.384	35384.12
572.582	35578.68
572.781	35216.19
572.979	34786.11
573.177	35058.49
573.376	34966.34
573.574	35005.25
573.772	34884.42
573.971	34861.89
574.169	34538.31
574.367	34091.85
574.565	34612.04
574.763	34116.43
574.962	34476.87
575.16	33864.53
575.358	34345.8
575.556	33452.89
575.754	34216.78
575.952	33764.18
576.151	33792.85
576.349	33618.77
576.547	33667.92
576.745	33428.31
576.943	33583.96
577.141	33057.63
577.339	33231.71
577.537	33096.54
577.735	33067.87
577.933	32807.78
578.131	33121.12
578.329	32881.5
578.527	32523.11
578.725	32783.2
578.923	32928.61
579.121	32486.25
579.319	32506.73
579.516	32658.27
579.714	32578.4
579.912	32428.9
580.11	32187.24
580.308	32297.83
580.506	31939.44
580.704	31570.8
580.901	32056.17
581.099	31939.44
581.297	31775.6
581.495	31951.73
581.692	31718.26
581.89	31073.15
582.088	31974.25
582.285	30983.04
582.483	31472.5
582.681	31175.55
582.878	31429.49
583.076	30999.42
583.274	31173.5
583.471	30604.16
583.669	30862.21
583.866	30331.78
584.064	30808.96
584.262	29899.66
584.459	30471.04
584.657	30245.77
584.854	30665.6
585.052	29842.32
585.249	30180.23
585.447	30204.81
585.644	29914
585.841	29932.43
586.039	30258.06
586.236	29754.26
586.434	29510.55
586.631	29494.16
586.828	29731.73
587.026	29672.34
587.223	29363.09
587.42	29279.13
587.618	29465.49
587.815	29156.25
588.012	28844.96
588.21	28609.44
588.407	28984.22
588.604	29105.05
588.801	28902.3
588.999	28797.85
589.196	28564.39
589.393	28562.34
589.59	28214.18
589.787	28031.91
589.984	28052.39
590.182	27823.02
590.379	28662.69
590.576	27739.05
590.773	28005.29
590.97	27765.68
591.167	27814.83
591.364	27179.96
591.561	27798.45
591.758	27241.4
591.955	27417.52
592.152	27657.14
592.349	27327.41
592.546	26926.01
592.743	27130.81
592.94	26913.72
593.137	27155.38
593.334	27171.77
593.531	26657.73
593.727	26680.25
593.924	26858.43
594.121	26567.62
594.318	26553.28
594.515	26442.69
594.712	26848.19
594.908	26411.97
595.105	26547.14
595.302	26153.93
595.499	26151.88
595.696	25938.89
595.892	25914.31
596.089	26024.9
596.286	25828.3
596.482	26014.66
596.679	25734.09
596.876	25752.52
597.072	25553.87
597.269	25619.41
597.466	25414.61
597.662	25246.68
597.859	25285.59
598.055	25218
598.252	25230.29
598.448	25015.26
598.645	25168.85
598.841	24710.11
599.038	24796.12
599.234	24765.4
599.431	24902.62
599.627	24585.18
599.824	24585.18
600.02	24595.42
600.217	24398.82
600.413	24402.91
600.609	24069.09
600.806	24280.03
601.002	24171.49
601.198	24036.33
601.395	23976.94
601.591	24191.97
601.787	23868.39
601.984	23704.56
602.18	24005.61
602.376	23684.08
602.572	23505.9
602.769	23655.4
602.965	23510
603.161	23774.19
603.357	23331.83
603.553	23563.25
603.75	23235.57
603.946	23131.12
604.142	23098.36
604.338	22739.96
604.534	23008.25
604.73	23084.02
604.926	22830.07
605.122	22959.1
605.318	22567.93
605.514	22627.32
605.71	22313.98
605.906	22696.96
606.102	22297.6
606.298	22260.74
606.494	22053.89
606.69	22297.6
606.886	22252.55
607.082	22066.18
607.278	22397.95
607.474	21951.49
607.67	22084.61
607.866	21767.18
608.062	22098.95
608.257	21801.99
608.453	21957.64
608.649	22041.6
608.845	21486.61
609.041	21955.59
609.236	21498.89
609.432	21457.93
609.628	21462.03
609.824	21804.04
610.019	21400.59
610.215	21580.81
610.411	21431.31
610.606	21308.43
610.802	21632.01
610.998	21107.73
611.193	21402.64
611.389	21216.27
611.584	21220.37
611.78	20845.59
611.976	21001.24
612.171	21107.73
612.367	21138.45
612.562	21070.87
612.758	20612.12
612.953	20829.21
613.149	20843.54
613.344	20548.64
613.539	20917.27
613.735	20878.36
613.93	20601.88
614.126	20491.29
614.321	20859.93
614.517	20720.67
614.712	20919.32
614.907	20370.46
615.103	20464.67
615.298	20198.43
615.493	20558.88
615.688	20235.3
615.884	20773.91
616.079	20014.12
616.274	20354.08
616.47	20358.17
616.665	20384.8
616.86	19899.43
617.055	20153.38
617.25	20061.22
617.445	20223.01
617.641	19657.77
617.836	20001.83
618.031	19571.75
618.226	19899.43
618.421	19518.51
618.616	19823.65
618.811	19416.11
619.006	19883.05
619.201	19172.4
619.396	19524.65
619.591	19272.75
619.786	19239.98
619.981	19250.22
620.176	19055.67
620.371	18926.64
620.566	19117.11
620.761	18969.65
620.956	18736.18
621.151	18461.76
621.346	18639.93
621.541	18521.15
621.735	18580.54
621.93	18209.86
622.125	18297.92
622.32	18183.23
622.515	18154.56
622.709	17972.29
622.904	17902.66
623.099	17636.42
623.294	17839.17
623.488	17652.81
623.683	17878.08
623.878	17648.71
624.072	17749.06
624.267	17353.8
624.462	17362
624.656	17050.71
624.851	17058.9
625.046	16888.92
625.24	17146.96
625.435	16809.04
625.629	16641.11
625.824	16850
626.018	16477.27
626.213	16360.54
626.407	16061.54
626.602	16184.41
626.796	16448.6
626.991	16299.1
627.185	16155.74
627.38	16061.54
627.574	15637.61
627.768	15582.31
627.963	15664.23
628.157	15586.41
628.352	15441
628.546	15252.59
628.74	15174.77
628.935	15395.95
629.129	15193.2
629.323	14965.87
629.517	15064.18
629.712	14988.4
629.906	14847.09
630.1	14703.73
630.294	14802.04
630.489	14730.36
630.683	14613.62
630.877	14267.52
631.071	14376.06
631.265	14392.44
631.459	14271.61
631.653	14208.12
631.848	14177.4
632.042	14040.19
632.236	14126.21
632.43	14038.14
632.624	13976.7
632.818	13956.22
633.012	13610.12
633.206	13538.44
633.4	13663.36
633.594	13382.79
633.788	13534.34
633.982	13581.45
634.176	13235.34
634.369	13356.17
634.563	13163.66
634.757	13008.01
634.951	13085.84
635.145	13061.26
635.339	13112.46
635.533	12797.07
635.726	13087.89
635.92	12878.99
636.114	12842.13
636.308	12557.46
636.501	12506.26
636.695	12557.46
636.889	12651.67
637.083	12401.82
637.276	12268.7
637.47	12174.49
637.664	12256.41
637.857	12186.78
638.051	12240.03
638.244	11869.34
638.438	11992.22
638.632	11691.17
638.825	11805.86
639.019	11654.31
639.212	11513
639.406	11680.93
639.599	11627.68
639.793	11469.99
639.986	11383.98
640.18	11357.35
640.373	11281.58
640.567	11127.98
640.76	11297.96
640.954	10974.38
641.147	10908.85
641.34	11093.16
641.534	11087.02
641.727	10943.66
641.92	10871.98
642.114	10890.42
642.307	10728.63
642.5	10845.36
642.694	10462.39
642.887	10546.36
643.08	10413.24
643.273	10452.15
643.467	10169.53
643.66	10163.39
643.853	10138.81
644.046	10149.05
644.239	10245.31
644.432	10212.54
644.626	10099.9
644.819	10040.51
645.012	10097.85
645.205	10001.6
645.398	10036.41
645.591	9759.94
645.784	9800.9
645.977	9688.26
646.17	9749.7
646.363	9729.22
646.556	9481.41
646.749	9467.08
646.942	9426.12
647.135	9354.44
647.328	9290.95
647.521	9268.42
647.714	9303.24
647.907	9317.58
648.099	9163.98
648.292	9301.19
648.485	8942.8
648.678	8783.06
648.871	8670.42
649.064	8877.26
649.256	8963.28
649.449	8805.58
649.642	8893.65
649.835	8721.62
650.027	8559.83
650.22	8697.04
650.413	8639.7
650.605	8574.16
650.798	8475.86
650.991	8387.8
651.183	8342.74
651.376	8363.22
651.568	8324.31
651.761	8322.26
651.954	8359.13
652.146	8068.31
652.339	8172.76
652.531	8090.84
652.724	8070.36
652.916	8115.42
653.109	8035.55
653.301	7984.35
653.494	7961.82
653.686	7773.41
653.879	7754.98
654.071	7853.28
654.263	7509.22
654.456	7746.78
654.648	7714.02
654.84	7515.36
655.033	7650.53
655.225	7619.81
655.417	7607.52
655.61	7673.06
655.802	7333.09
655.994	7386.34
656.186	7445.73
656.379	7353.57
656.571	7130.34
656.763	7027.95
656.955	7132.39
657.148	7245.03
657.34	7156.97
657.532	7085.29
657.724	7103.72
657.916	7087.34
658.108	6952.17
658.3	6804.72
658.492	6935.79
658.684	6786.29
658.876	6780.14
659.068	6806.77
659.26	6653.17
659.452	6870.25
659.644	6515.95
659.836	6524.15
660.028	6759.66
660.22	6632.69
660.412	6575.34
660.604	6423.8
660.796	6395.12
660.988	6546.67
661.18	6378.74
661.372	6255.86
661.563	6407.41
661.755	6126.84
661.947	6210.81
662.139	6300.92
662.331	6231.29
662.522	6132.98
662.714	6059.26
662.906	5891.32
663.097	6049.02
663.289	5893.37
663.481	6018.3
663.673	5993.72
663.864	5922.04
664.056	5879.04
664.247	5817.6
664.439	5764.35
664.631	5862.65
664.822	5928.19
665.014	5684.48
665.205	5725.44
665.397	5752.06
665.588	5723.39
665.78	5637.38
665.971	5741.82
666.163	5586.18
666.354	5557.5
666.546	5575.94
666.737	5616.9
666.929	5551.36
667.12	5520.64
667.311	5408
667.503	5360.9
667.694	5526.78
667.885	5346.56
668.077	5465.35
668.268	5285.12
668.459	5276.93
668.651	5365
668.842	5321.99
669.033	5186.82
669.224	5291.27
669.416	5242.12
669.607	5186.82
669.798	5145.86
669.989	5152.01
670.18	5174.53
670.371	5014.79
670.563	5061.9
670.754	5039.37
670.945	4914.44
671.136	5117.19
671.327	5070.09
671.518	4826.38
671.709	4838.67
671.9	5006.6
672.091	4857.1
672.282	4902.15
672.473	4908.3
672.664	4773.13
672.855	4842.76
673.046	4928.78
673.237	4943.11
673.428	4719.89
673.619	4881.67
673.809	4746.51
674	4711.69
674.191	4805.9
674.382	4785.42
674.573	4592.91
674.764	4728.08
674.954	4773.13
675.145	4533.52
675.336	4670.73
675.527	4715.79
675.717	4590.86
675.908	4527.38
676.099	4523.28
676.289	4584.72
676.48	4633.87
676.671	4480.27
676.861	4599.06
677.052	4515.09
677.243	4408.59
677.433	4388.11
677.624	4367.63
677.814	4347.15
678.005	4543.76
678.195	4433.17
678.386	4459.79
678.576	4332.82
678.767	4314.39
678.957	4152.6
679.148	4332.82
679.338	4379.92
679.529	4310.29
679.719	4398.35
679.909	4398.35
680.1	4287.76
680.29	4318.48
680.481	4300.05
680.671	4304.15
680.861	4271.38
681.052	4265.24
681.242	4193.56
681.432	4238.61
681.622	4216.09
681.813	4207.89
682.003	4207.89
682.193	4138.26
682.383	4293.91
682.573	4068.63
682.764	4191.51
682.954	4252.95
683.144	4195.61
683.334	4152.6
683.524	4044.06
683.714	4011.29
683.904	4209.94
684.094	4085.01
684.284	4140.31
684.474	4121.88
684.664	4037.91
684.854	4130.07
685.044	3888.41
685.234	3900.7
685.424	3988.76
685.614	4025.62
685.804	3986.71
685.994	3906.84
686.184	4123.93
686.374	3937.56
686.564	3925.27
686.753	4019.48
686.943	3962.14
687.133	3826.97
687.323	3921.18
687.513	3775.77
687.702	3818.78
687.892	3861.79
688.082	3915.03
688.272	3769.63
688.461	3751.2
688.651	3831.07
688.841	3736.86
689.03	3775.77
689.22	3820.83
689.41	3679.52
689.599	3683.61
689.789	3665.18
689.979	3599.65
690.168	3603.74
690.358	3607.84
690.547	3659.04
690.737	3591.45
690.926	3745.05
691.116	3556.64
691.305	3511.58
691.495	3595.55
691.684	3484.96
691.874	3450.14
692.063	3491.1
692.252	3265.83
692.442	3609.89
692.631	3425.57
692.82	3398.95
693.01	3386.66
693.199	3446.05
693.388	3464.48
693.578	3556.64
693.767	3329.31
693.956	3427.62
694.146	3403.04
694.335	3308.83
694.524	3306.79
694.713	3355.94
694.902	3265.83
695.092	3317.03
695.281	3271.97
695.47	3222.82
695.659	3310.88
695.848	3159.33
696.037	3376.42
696.226	3370.27
696.415	3284.26
696.604	3306.79
696.793	3276.07
696.982	3292.45
697.171	3265.83
697.36	3228.96
697.549	3218.72
697.738	3157.29
697.927	3257.64
698.116	3151.14
698.305	3233.06
698.494	3116.33
698.683	3267.88
698.872	3104.04
699.061	3210.53
699.25	3265.83
699.438	3112.23
699.627	3063.08
699.816	3224.87
700.005	3173.67
700.193	3265.83
700.382	3224.87
700.571	3097.89
700.76	3034.41
700.948	3130.66
701.137	3073.32
701.326	3126.57
701.514	3061.03
701.703	3208.48
701.892	3024.17
702.08	3159.33
702.269	3132.71
702.457	3077.41
702.646	3095.85
702.834	3081.51
703.023	3106.09
703.212	3091.75
703.4	3124.52
703.589	3122.47
703.777	3085.61
703.965	3073.32
704.154	2983.21
704.342	2995.5
704.531	3081.51
704.719	3034.41
704.907	2966.82
705.096	3085.61
705.284	3028.26
705.472	3054.89
705.661	2997.54
705.849	3018.02
706.037	2964.78
706.226	2907.43
706.414	3013.93
706.602	3005.74
706.79	3020.07
706.979	3036.45
707.167	2889
707.355	2868.52
707.543	2905.39
707.731	2968.87
707.919	2958.63
708.107	2866.47
708.296	2917.67
708.484	2979.11
708.672	2841.9
708.86	2792.75
709.048	2878.76
709.236	2817.32
709.424	3042.6
709.612	2854.19
709.8	2891.05
709.988	2884.91
710.176	2864.43
710.364	2923.82
710.551	2962.73
710.739	2962.73
710.927	2899.24
711.115	2948.39
711.303	2942.25
711.491	2704.68
711.679	2868.52
711.866	2796.84
712.054	2868.52
712.242	2858.28
712.43	2737.45
712.617	2932.01
712.805	2766.12
712.993	2727.21
713.181	2762.03
713.368	2757.93
713.556	2862.38
713.744	2727.21
713.931	2960.68
714.119	2884.91
714.306	2686.25
714.494	2800.94
714.682	2788.65
714.869	2790.7
715.057	2815.27
715.244	2729.26
715.432	2792.75
715.619	2774.31
715.807	2710.83
715.994	2778.41
716.182	2776.36
716.369	2692.4
716.556	2776.36
716.744	2780.46
716.931	2749.74
717.119	2686.25
717.306	2667.82
717.493	2608.43
717.681	2692.4
717.868	2680.11
718.055	2809.13
718.242	2692.4
718.43	2692.4
718.617	2585.9
718.804	2645.29
718.991	2614.57
719.179	2555.18
719.366	2653.48
719.553	2633.01
719.74	2610.48
719.927	2651.44
720.114	2673.96
720.301	2676.01
720.488	2610.48
720.676	2528.56
720.863	2571.57
721.05	2635.05
721.237	2516.27
721.424	2633.01
721.611	2610.48
721.798	2637.1
721.985	2559.28
722.172	2503.98
722.358	2409.78
722.545	2555.18
722.732	2585.9
722.919	2602.29
723.106	2633.01
723.293	2436.4
723.48	2610.48
723.667	2344.24
723.853	2571.57
724.04	2540.85
724.227	2510.13
724.414	2432.3
724.6	2409.78
724.787	2499.89
724.974	2602.29
725.161	2479.41
725.347	2491.7
725.534	2538.8
725.72	2637.1
725.907	2579.76
726.094	2571.57
726.28	2516.27
726.467	2366.77
726.653	2358.58
726.84	2415.92
727.027	2524.46
727.213	2446.64
727.4	2499.89
727.586	2440.5
727.773	2364.72
727.959	2430.26
728.145	2411.82
728.332	2532.65
728.518	2487.6
728.705	2364.72
728.891	2411.82
729.077	2374.96
729.264	2405.68
729.45	2364.72
729.636	2540.85
729.823	2397.49
730.009	2266.42
730.195	2424.11
730.382	2364.72
730.568	2290.99
730.754	2342.19
730.94	2438.45
731.126	2344.24
731.313	2452.78
731.499	2460.98
731.685	2323.76
731.871	2426.16
732.057	2364.72
732.243	2325.81
732.429	2372.91
732.615	2250.03
732.801	2475.31
732.987	2286.9
733.173	2323.76
733.359	2301.23
733.545	2354.48
733.731	2336.05
733.917	2356.53
734.103	2325.81
734.289	2307.38
734.475	2282.8
734.661	2379.06
734.847	2313.52
735.033	2274.61
735.219	2241.84
735.404	2321.71
735.59	2196.79
735.776	2235.7
735.962	2377.01
736.148	2315.57
736.333	2309.43
736.519	2245.94
736.705	2250.03
736.89	2245.94
737.076	2151.73
737.262	2123.06
737.447	2180.4
737.633	2211.12
737.819	2131.25
738.004	2192.69
738.19	2247.99
738.375	2260.27
738.561	2250.03
738.747	2102.58
738.932	2272.56
739.118	2241.84
739.303	2200.88
739.489	2186.55
739.674	2118.96
739.859	2094.39
740.045	2118.96
740.23	2053.43
740.416	2037.05
740.601	2155.83
740.786	1979.7
740.972	2086.2
741.157	2114.87
741.342	2069.81
741.528	2096.44
741.713	1965.37
741.898	2096.44
742.084	2022.71
742.269	2102.58
742.454	2004.28
742.639	2090.29
742.824	1914.17
743.01	2012.47
743.195	2028.85
743.38	2014.52
743.565	1975.61
743.75	2039.09
743.935	1951.03
744.12	2014.52
744.305	1963.32
744.49	1856.82
744.675	2037.05
744.86	1977.66
745.045	2022.71
745.23	1918.26
745.415	1848.63
745.6	2008.37
745.785	1815.87
745.97	1944.89
746.155	1922.36
746.34	1910.07
746.525	1774.91
746.71	1858.87
746.895	1846.59
747.079	1838.39
747.264	1873.21
747.449	1840.44
747.634	1871.16
747.819	1832.25
748.003	1783.1
748.188	1766.71
748.373	1762.62
748.557	1695.04
748.742	1662.27
748.927	1676.6
749.111	1670.46
749.296	1729.85
749.481	1643.84
749.665	1580.35
749.85	1525.05
750.034	1625.4
750.219	1557.82
750.404	1692.99
750.588	1582.4
750.773	1631.55
750.957	1553.73
751.141	1496.38
751.326	1545.53
751.51	1549.63
751.695	1471.81
751.879	1496.38
752.064	1498.43
752.248	1559.87
752.432	1447.23
752.617	1555.77
752.801	1525.05
752.985	1492.29
753.17	1480
753.354	1439.04
753.538	1414.46
753.722	1371.46
753.907	1381.7
754.091	1355.07
754.275	1422.66
754.459	1377.6
754.643	1344.83
754.828	1385.79
755.012	1408.32
755.196	1295.68
755.38	1377.6
755.564	1275.2
755.748	1348.93
755.932	1350.98
756.116	1301.83
756.3	1312.07
756.484	1215.81
756.668	1199.43
756.852	1172.8
757.036	1250.63
757.22	1275.2
757.404	1262.91
757.588	1197.38
757.772	1181
757.956	1193.28
758.14	1224
758.323	1117.51
758.507	1262.91
758.691	1088.84
758.875	1127.75
759.059	1178.95
759.242	1015.11
759.426	1203.52
759.61	1076.55
759.794	1119.56
759.977	1162.56
760.161	1086.79
760.345	1070.4
760.528	1140.04
760.712	1117.51
760.895	1054.02
761.079	1080.64
761.263	1054.02
761.446	1070.4
761.63	1064.26
761.813	1121.6
761.997	1056.07
762.18	1058.12
762.364	1234.24
762.547	949.57
762.731	978.25
762.914	1080.64
763.098	1006.92
763.281	1037.64
763.464	1006.92
763.648	976.2
763.831	955.72
764.015	955.72
764.198	1041.73
764.381	1023.3
764.564	986.44
764.748	879.94
764.931	994.63
765.114	976.2
765.297	1023.3
765.481	881.99
765.664	902.47
765.847	908.62
766.03	1035.59
766.213	898.38
766.397	916.81
766.58	898.38
766.763	929.1
766.946	859.46
767.129	898.38
767.312	947.53
767.495	857.42
767.678	849.22
767.861	824.65
768.044	871.75
768.227	828.74
768.41	884.04
768.593	890.18
768.776	857.42
768.959	918.86
769.142	824.65
769.324	871.75
769.507	890.18
769.69	875.85
769.873	832.84
770.056	853.32
770.239	836.94
770.421	849.22
770.604	816.46
770.787	767.31
770.97	800.07
771.152	865.61
771.335	787.79
771.518	769.35
771.7	785.74
771.883	851.27
772.066	720.2
772.248	734.54
772.431	755.02
772.613	783.69
772.796	732.49
772.978	785.74
773.161	709.96
773.343	744.78
773.526	734.54
773.708	648.52
773.891	658.76
774.073	775.5
774.256	679.24
774.438	726.35
774.621	709.96
774.803	750.92
774.985	716.11
775.168	800.07
775.35	689.48
775.532	759.11
775.715	664.91
775.897	681.29
776.079	695.63
776.261	712.01
776.444	746.83
776.626	712.01
776.808	695.63
776.99	673.1
777.173	687.43
777.355	599.37
777.537	718.15
777.719	687.43
777.901	673.1
778.083	666.96
778.265	685.39
778.447	648.52
778.629	544.08
778.811	570.7
778.993	595.28
779.175	570.7
779.357	585.04
779.539	554.32
779.721	509.26
779.903	550.22
780.085	509.26
780.267	562.51
780.449	529.74
780.631	601.42
780.812	623.95
780.994	482.64
781.176	537.93
781.358	490.83
781.54	564.56
781.721	484.69
781.903	582.99
782.085	529.74
782.267	558.41
782.448	537.93
782.63	488.78
782.812	537.93
782.993	468.3
783.175	468.3
783.357	462.16
783.538	513.36
783.72	451.92
783.901	564.56
784.083	488.78
784.264	482.64
784.446	480.59
784.627	464.21
784.809	509.26
784.99	505.17
785.172	507.21
785.353	453.97
785.535	423.25
785.716	423.25
785.897	529.74
786.079	472.4
786.26	392.53
786.441	394.58
786.623	390.48
786.804	456.01
786.985	374.1
787.167	408.91
787.348	458.06
787.529	413.01
787.71	324.94
787.891	496.97
788.073	384.34
788.254	406.86
788.435	423.25
788.616	343.38
788.797	406.86
788.978	468.3
789.159	447.82
789.34	468.3
789.522	316.75
789.703	365.9
789.884	345.42
790.065	345.42
790.246	292.18
790.427	398.67
790.607	335.18
790.788	384.34
790.969	318.8
791.15	423.25
791.331	333.14
791.512	261.46
791.693	326.99
791.874	345.42
792.054	435.53
792.235	357.71
792.416	294.22
792.597	337.23
792.778	382.29
792.958	310.61
793.139	361.81
793.32	415.05
793.5	353.62
793.681	326.99
793.862	277.84
794.042	357.71
794.223	206.16
794.404	349.52
794.584	279.89
794.765	210.26
794.945	292.18
795.126	308.56
795.306	257.36
795.487	347.47
795.667	267.6
795.848	324.94
796.028	249.17
796.209	335.18
796.389	271.7
796.57	351.57
796.75	286.03
796.93	308.56
797.111	277.84
797.291	290.13
797.471	288.08
797.652	222.55
797.832	206.16
798.012	296.27
798.192	308.56
798.373	275.79
798.553	302.42
798.733	230.74
798.913	288.08
799.093	245.07
799.274	318.8
799.454	255.31
799.634	238.93
799.814	302.42
799.994	247.12
800.174	277.84
800.354	283.98
800.534	144.72
800.714	257.36
800.894	220.5
801.074	245.07
801.254	185.68
801.434	238.93
801.614	210.26
801.794	243.03
801.974	664.91
802.154	253.27
802.334	245.07
802.514	193.87
802.693	224.59
802.873	161.11
803.053	267.6
803.233	204.11
803.413	206.16
803.592	173.39
803.772	140.63
803.952	292.18
804.131	181.59
804.311	238.93
804.491	267.6
804.67	140.63
804.85	259.41
805.03	283.98
805.209	206.16
805.389	185.68
805.568	177.49
805.748	120.15
805.928	236.88
806.107	171.35
806.287	210.26
806.466	208.21
806.646	144.72
806.825	185.68
807.004	177.49
807.184	210.26
807.363	230.74
807.543	218.45
807.722	220.5
807.901	185.68
808.081	230.74
808.26	140.63
808.439	179.54
808.619	152.91
808.798	163.15
808.977	210.26
809.156	277.84
809.336	220.5
809.515	171.35
809.694	218.45
809.873	193.87
810.052	165.2
810.231	185.68
810.411	191.83
810.59	189.78
810.769	181.59
810.948	197.97
811.127	191.83
811.306	126.29
811.485	136.53
811.664	214.35
811.843	197.97
812.022	146.77
812.201	173.39
812.38	210.26
812.559	126.29
812.737	134.48
812.916	136.53
813.095	210.26
813.274	161.11
813.453	111.96
813.632	181.59
813.811	148.82
813.989	161.11
814.168	202.07
814.347	105.81
814.526	169.3
814.704	214.35
814.883	181.59
815.062	116.05
815.24	220.5
815.419	114
815.598	212.31
815.776	122.2
815.955	150.87
816.133	167.25
816.312	148.82
816.49	161.11
816.669	179.54
816.847	107.86
817.026	128.34
817.204	128.34
817.383	128.34
817.561	177.49
817.74	148.82
817.918	34.13
818.097	140.63
818.275	105.81
818.453	95.57
818.632	200.02
818.81	171.35
818.988	140.63
819.167	81.24
819.345	159.06
819.523	95.57
819.701	58.71
819.879	124.24
820.058	81.24
820.236	107.86
820.414	152.91
820.592	111.96
820.77	120.15
820.948	73.04
821.127	93.52
821.305	120.15
821.483	124.24
821.661	95.57
821.839	99.67
822.017	128.34
822.195	144.72
822.373	171.35
822.551	171.35
822.729	107.86
822.907	95.57
823.085	111.96
823.262	157.01
823.44	130.39
823.618	27.99
823.796	116.05
823.974	99.67
824.152	105.81
824.329	54.61
824.507	83.28
824.685	103.76
824.863	144.72
825.04	89.43
825.218	195.92
825.396	73.04
825.574	138.58
825.751	97.62
825.929	107.86
826.107	85.33
826.284	81.24
826.462	136.53
826.639	107.86
826.817	73.04
826.994	132.44
827.172	32.08
827.349	167.25
827.527	128.34
827.704	89.43
827.882	204.11
828.059	89.43
828.237	165.2
828.414	157.01
828.591	83.28
828.769	99.67
828.946	114
829.124	77.14
829.301	107.86
829.478	54.61
829.655	87.38
829.833	1.37
830.01	5.46
830.187	58.71
830.364	30.04
830.542	103.76
830.719	120.15
830.896	124.24
831.073	138.58
831.25	89.43
831.427	163.15
831.604	79.19
831.782	38.23
831.959	87.38
832.136	44.37
832.313	124.24
832.49	30.04
832.667	101.72
832.844	130.39
833.021	136.53
833.198	85.33
833.374	64.85
833.551	87.38
833.728	71
833.905	146.77
834.082	91.48
834.259	19.8
834.436	48.47
834.612	81.24
834.789	83.28
834.966	95.57
835.143	25.94
835.319	85.33
835.496	87.38
835.673	87.38
835.85	132.44
836.026	83.28
836.203	99.67
836.38	21.85
836.556	148.82
836.733	-8.87
836.909	52.56
837.086	34.13
837.262	7.51
837.439	105.81
837.616	99.67
837.792	109.91
837.968	54.61
838.145	42.32
838.321	7.51
838.498	15.7
838.674	120.15
838.851	97.62
839.027	36.18
839.203	32.08
839.38	58.71
839.556	62.8
839.732	111.96
839.909	44.37
840.085	73.04
840.261	71
840.437	79.19
840.614	42.32
840.79	71
840.966	93.52
841.142	62.8
841.318	40.28
841.494	42.32
841.671	58.71
841.847	-4.78
842.023	77.14
842.199	144.72
842.375	30.04
842.551	9.56
842.727	71
842.903	91.48
843.079	30.04
843.255	87.38
843.431	99.67
843.607	71
843.783	25.94
843.959	30.04
844.134	87.38
844.31	60.76
844.486	-31.4
844.662	36.18
844.838	19.8
845.013	56.66
845.189	-47.79
845.365	48.47
845.541	42.32
845.716	7.51
845.892	73.04
846.068	13.65
846.244	38.23
846.419	54.61
846.595	21.85
846.77	40.28
846.946	132.44
847.122	99.67
847.297	21.85
847.473	40.28
847.648	30.04
847.824	103.76
847.999	50.52
848.175	40.28
848.35	62.8
848.526	64.85
848.701	13.65
848.876	62.8
849.052	116.05
849.227	42.32
849.403	21.85
849.578	48.47
849.753	75.09
849.929	32.08
850.104	99.67
850.279	58.71
850.454	128.34
850.63	-25.26
850.805	97.62
850.98	54.61
851.155	52.56
851.33	107.86
851.505	46.42
851.681	120.15
851.856	42.32
852.031	54.61
852.206	-15.02
852.381	62.8
852.556	-17.07
852.731	46.42
852.906	52.56
853.081	93.52
853.256	50.52
853.431	13.65
853.606	-88.75
853.781	46.42
853.956	-19.11
854.131	56.66
854.305	19.8
854.48	-27.31
854.655	-58.03
854.83	17.75
855.005	7.51
855.18	81.24
855.354	13.65
855.529	66.9
855.704	48.47
855.879	5.46
856.053	77.14
856.228	124.24
856.403	52.56
856.577	23.89
856.752	5.46
856.926	60.76
857.101	13.65
857.276	17.75
857.45	-23.21
857.625	81.24
857.799	-17.07
857.974	77.14
858.148	71
858.323	73.04
858.497	32.08
858.672	50.52
858.846	68.95
859.02	73.04
859.195	-2.73
859.369	13.65
859.543	19.8
859.718	17.75
859.892	46.42
860.066	38.23
860.241	-51.88
860.415	-23.21
860.589	-25.26
860.763	-51.88
860.938	71
861.112	13.65
861.286	38.23
861.46	58.71
861.634	-55.98
861.808	56.66
861.982	-17.07
862.157	5.46
862.331	19.8
862.505	-10.92
862.679	38.23
862.853	7.51
863.027	-19.11
863.201	-6.83
863.375	21.85
863.549	64.85
863.722	15.7
863.896	56.66
864.07	-0.68
864.244	-8.87
864.418	40.28
864.592	19.8
864.766	42.32
864.939	77.14
865.113	30.04
865.287	-2.73
865.461	-27.31
865.634	50.52
865.808	42.32
865.982	32.08
866.156	13.65
866.329	-10.92
866.503	-43.69
866.676	46.42
866.85	-8.87
867.024	62.8
867.197	79.19
867.371	30.04
867.544	5.46
867.718	-23.21
867.891	3.41
868.065	23.89
868.238	48.47
868.412	30.04
868.585	54.61
868.759	89.43
868.932	36.18
869.105	5.46
869.279	114
869.452	54.61
869.625	71
869.799	-0.68
869.972	58.71
870.145	-4.78
870.319	111.96
870.492	-25.26
870.665	27.99
870.838	38.23
871.011	-43.69
871.185	40.28
871.358	-17.07
871.531	56.66
871.704	-8.87
871.877	34.13
872.05	54.61
872.223	-2.73
872.396	54.61
872.569	134.48
872.742	7.51
872.915	15.7
873.088	-12.97
873.261	71
873.434	42.32
873.607	-25.26
873.78	46.42
873.953	-27.31
874.126	34.13
874.299	27.99
874.471	5.46
874.644	1.37
874.817	56.66
874.99	130.39
875.163	52.56
875.335	38.23
875.508	7.51
875.681	87.38
875.853	-41.64
876.026	50.52
876.199	114
876.371	52.56
876.544	21.85
876.717	-10.92
876.889	34.13
877.062	30.04
877.234	-19.11
877.407	15.7
877.579	122.2
877.752	81.24
877.924	42.32
878.097	73.04
878.269	-6.83
878.442	38.23
878.614	32.08
878.786	19.8
878.959	34.13
879.131	11.61
879.303	34.13
879.476	5.46
879.648	77.14
879.82	-27.31
879.993	-27.31
880.165	44.37
880.337	-10.92
880.509	54.61
880.681	-2.73
880.854	114
881.026	60.76
881.198	23.89
881.37	1.37
881.542	46.42
881.714	1.37
881.886	-47.79
882.058	23.89
882.23	62.8
882.402	87.38
882.574	-2.73
882.746	46.42
882.918	54.61
883.09	32.08
883.262	30.04
883.434	-17.07
883.606	73.04
883.778	-2.73
883.95	30.04
884.122	-2.73
884.293	89.43
884.465	-64.17
884.637	89.43
884.809	-96.94
884.98	-17.07
885.152	13.65
885.324	-6.83
885.496	46.42
885.667	-10.92
885.839	-6.83
886.011	107.86
886.182	38.23
886.354	46.42
886.525	-35.5
886.697	-23.21
886.869	-35.5
887.04	66.9
887.212	44.37
887.383	48.47
887.555	-35.5
887.726	30.04
887.897	30.04
888.069	30.04
888.24	62.8
888.412	21.85
888.583	38.23
888.754	30.04
888.926	-47.79
889.097	87.38
889.268	-27.31
889.44	5.46
889.611	44.37
889.782	-31.4
889.953	5.46
890.125	13.65
890.296	34.13
890.467	-10.92
890.638	27.99
890.809	1.37
890.98	56.66
891.151	17.75
891.323	75.09
891.494	-17.07
891.665	25.94
891.836	25.94
892.007	-15.02
892.178	48.47
892.349	-19.11
892.52	-8.87
892.691	-23.21
892.862	13.65
893.032	-21.16
893.203	-10.92
893.374	-0.68
893.545	30.04
893.716	40.28
893.887	-12.97
894.057	-37.55
894.228	21.85
894.399	-33.45
894.57	21.85
894.74	46.42
894.911	-55.98
895.082	-27.31
895.253	-19.11
895.423	7.51
895.594	21.85
895.764	79.19
895.935	-55.98
896.106	73.04
896.276	9.56
896.447	30.04
896.617	-10.92
896.788	-51.88
896.958	23.89
897.129	40.28
897.299	40.28
897.47	-6.83
897.64	42.32
897.81	56.66
897.981	89.43
898.151	48.47
898.322	9.56
898.492	-6.83
898.662	7.51
898.832	38.23
899.003	66.9
899.173	50.52
899.343	-21.16
899.513	-66.22
