Data from USB4F104151__99__14-18-01-959.txt Node

Date: Thu Mar 13 14:18:01 EDT 2025
User: louis
Spectrometer: USB4F10415
Trigger mode: 4
Integration Time (sec): 2.000000E-2
Scans to average: 1
Electric dark correction enabled: true
Nonlinearity correction enabled: false
Boxcar width: 0
XAxis mode: Wavelengths
Number of Pixels in Spectrum: 3648
>>>>>Begin Spectral Data<<<<<
178.204	-92.67
178.424	-92.67
178.644	-92.67
178.864	-145.92
179.084	-131.58
179.304	-29.18
179.524	-4.61
179.744	26.11
179.964	9.73
180.184	24.06
180.404	-31.23
180.624	9.73
180.844	-6.66
181.064	-10.75
181.283	1.54
181.503	-25.09
181.723	36.35
181.943	-53.76
182.163	67.07
182.383	24.06
182.602	34.3
182.822	28.16
183.042	17.92
183.262	99.84
183.482	17.92
183.701	-4.61
183.921	54.78
184.141	-29.18
184.361	46.59
184.58	1.54
184.8	67.07
185.02	1.54
185.239	42.5
185.459	30.21
185.679	69.12
185.898	-43.52
186.118	-18.94
186.338	-39.42
186.557	65.02
186.777	5.63
186.997	26.11
187.216	32.26
187.436	28.16
187.655	26.11
187.875	93.69
188.095	69.12
188.314	58.88
188.534	56.83
188.753	44.54
188.973	69.12
189.192	110.08
189.412	56.83
189.631	9.73
189.851	46.59
190.07	38.4
190.29	69.12
190.509	34.3
190.729	-2.56
190.948	-4.61
191.168	122.37
191.387	52.74
191.607	13.82
191.826	19.97
192.045	52.74
192.265	50.69
192.484	67.07
192.704	83.45
192.923	50.69
193.142	69.12
193.362	13.82
193.581	118.27
193.8	28.16
194.02	140.8
194.239	-4.61
194.458	38.4
194.678	30.21
194.897	89.6
195.116	-86.53
195.335	58.88
195.555	60.93
195.774	1.54
195.993	42.5
196.212	50.69
196.432	17.92
196.651	48.64
196.87	13.82
197.089	30.21
197.308	52.74
197.528	3.58
197.747	-51.71
197.966	62.98
198.185	81.41
198.404	5.63
198.623	52.74
198.842	-4.61
199.062	22.02
199.281	46.59
199.5	83.45
199.719	26.11
199.938	-10.75
200.157	105.98
200.376	-2.56
200.595	36.35
200.814	28.16
201.033	-2.56
201.252	50.69
201.471	-23.04
201.69	44.54
201.909	28.16
202.128	58.88
202.347	42.5
202.566	-20.99
202.785	-39.42
203.004	62.98
203.223	132.61
203.442	48.64
203.661	77.31
203.879	71.17
204.098	38.4
204.317	30.21
204.536	30.21
204.755	48.64
204.974	56.83
205.193	42.5
205.411	58.88
205.63	3.58
205.849	58.88
206.068	73.21
206.287	28.16
206.505	77.31
206.724	50.69
206.943	13.82
207.162	13.82
207.381	36.35
207.599	-41.47
207.818	-8.7
208.037	28.16
208.255	22.02
208.474	19.97
208.693	1.54
208.911	-43.52
209.13	-10.75
209.349	87.55
209.567	11.78
209.786	42.5
210.005	75.26
210.223	30.21
210.442	50.69
210.661	83.45
210.879	46.59
211.098	81.41
211.316	11.78
211.535	19.97
211.753	67.07
211.972	99.84
212.191	11.78
212.409	-12.8
212.628	9.73
212.846	-51.71
213.065	17.92
213.283	73.21
213.502	-57.86
213.72	75.26
213.938	-14.85
214.157	42.5
214.375	-23.04
214.594	-2.56
214.812	118.27
215.031	36.35
215.249	1.54
215.467	7.68
215.686	5.63
215.904	148.99
216.122	30.21
216.341	60.93
216.559	9.73
216.778	34.3
216.996	40.45
217.214	38.4
217.432	-23.04
217.651	56.83
217.869	3.58
218.087	13.82
218.306	-57.86
218.524	36.35
218.742	17.92
218.96	34.3
219.179	19.97
219.397	71.17
219.615	89.6
219.833	-10.75
220.051	19.97
220.27	60.93
220.488	40.45
220.706	-6.66
220.924	65.02
221.142	3.58
221.36	89.6
221.578	-23.04
221.796	56.83
222.015	22.02
222.233	58.88
222.451	81.41
222.669	36.35
222.887	22.02
223.105	46.59
223.323	22.02
223.541	30.21
223.759	17.92
223.977	24.06
224.195	159.23
224.413	1.54
224.631	75.26
224.849	-2.56
225.067	75.26
225.285	71.17
225.503	28.16
225.721	-18.94
225.939	26.11
226.157	42.5
226.375	151.04
226.592	15.87
226.81	-12.8
227.028	46.59
227.246	17.92
227.464	-8.7
227.682	52.74
227.9	3.58
228.117	34.3
228.335	67.07
228.553	9.73
228.771	-6.66
228.989	-6.66
229.206	52.74
229.424	-25.09
229.642	62.98
229.86	34.3
230.077	103.93
230.295	62.98
230.513	19.97
230.731	79.36
230.948	-43.52
231.166	52.74
231.384	7.68
231.601	3.58
231.819	101.89
232.037	17.92
232.254	22.02
232.472	1.54
232.689	9.73
232.907	50.69
233.125	48.64
233.342	71.17
233.56	26.11
233.777	42.5
233.995	50.69
234.213	13.82
234.43	112.13
234.648	34.3
234.865	79.36
235.083	32.26
235.3	44.54
235.518	101.89
235.735	36.35
235.953	58.88
236.17	-18.94
236.388	101.89
236.605	28.16
236.822	3.58
237.04	40.45
237.257	-14.85
237.475	58.88
237.692	116.22
237.909	38.4
238.127	-18.94
238.344	-39.42
238.562	26.11
238.779	69.12
238.996	3.58
239.214	118.27
239.431	79.36
239.648	83.45
239.865	99.84
240.083	52.74
240.3	60.93
240.517	34.3
240.735	54.78
240.952	-45.57
241.169	9.73
241.386	79.36
241.603	81.41
241.821	-25.09
242.038	132.61
242.255	19.97
242.472	-64
242.689	30.21
242.907	110.08
243.124	42.5
243.341	62.98
243.558	-31.23
243.775	62.98
243.992	-78.33
244.209	79.36
244.426	30.21
244.643	56.83
244.86	54.78
245.078	93.69
245.295	11.78
245.512	-14.85
245.729	-25.09
245.946	52.74
246.163	71.17
246.38	60.93
246.597	30.21
246.814	38.4
247.031	11.78
247.248	54.78
247.464	22.02
247.681	91.65
247.898	-6.66
248.115	87.55
248.332	38.4
248.549	91.65
248.766	105.98
248.983	73.21
249.2	85.5
249.417	-29.18
249.633	58.88
249.85	40.45
250.067	-55.81
250.284	17.92
250.501	42.5
250.717	26.11
250.934	44.54
251.151	26.11
251.368	-25.09
251.585	105.98
251.801	3.58
252.018	50.69
252.235	81.41
252.451	-41.47
252.668	34.3
252.885	60.93
253.102	-4.61
253.318	11.78
253.535	22.02
253.752	48.64
253.968	-31.23
254.185	-23.04
254.401	36.35
254.618	28.16
254.835	9.73
255.051	58.88
255.268	-23.04
255.484	15.87
255.701	50.69
255.917	62.98
256.134	-59.9
256.351	-23.04
256.567	-14.85
256.784	58.88
257	36.35
257.217	91.65
257.433	-14.85
257.65	112.13
257.866	108.03
258.082	-14.85
258.299	-12.8
258.515	32.26
258.732	-33.28
258.948	52.74
259.165	50.69
259.381	75.26
259.597	81.41
259.814	42.5
260.03	62.98
260.246	38.4
260.463	132.61
260.679	91.65
260.895	81.41
261.112	58.88
261.328	-16.9
261.544	50.69
261.761	46.59
261.977	-31.23
262.193	34.3
262.409	34.3
262.626	7.68
262.842	28.16
263.058	-18.94
263.274	67.07
263.49	34.3
263.707	-6.66
263.923	-51.71
264.139	28.16
264.355	-47.62
264.571	105.98
264.787	30.21
265.004	34.3
265.22	-20.99
265.436	71.17
265.652	22.02
265.868	71.17
266.084	1.54
266.3	36.35
266.516	-4.61
266.732	-29.18
266.948	-2.56
267.164	71.17
267.38	44.54
267.596	9.73
267.812	97.79
268.028	60.93
268.244	-4.61
268.46	50.69
268.676	38.4
268.892	-14.85
269.108	28.16
269.324	19.97
269.54	48.64
269.756	99.84
269.972	1.54
270.188	42.5
270.403	30.21
270.619	7.68
270.835	13.82
271.051	32.26
271.267	17.92
271.483	1.54
271.698	9.73
271.914	5.63
272.13	46.59
272.346	-35.33
272.562	15.87
272.777	38.4
272.993	38.4
273.209	19.97
273.425	9.73
273.64	116.22
273.856	42.5
274.072	60.93
274.287	65.02
274.503	75.26
274.719	69.12
274.934	56.83
275.15	52.74
275.366	75.26
275.581	3.58
275.797	83.45
276.012	22.02
276.228	67.07
276.444	1.54
276.659	50.69
276.875	42.5
277.09	11.78
277.306	19.97
277.521	19.97
277.737	-31.23
277.952	36.35
278.168	17.92
278.383	65.02
278.599	42.5
278.814	65.02
279.03	-2.56
279.245	50.69
279.461	11.78
279.676	-4.61
279.892	-0.51
280.107	75.26
280.322	-31.23
280.538	71.17
280.753	30.21
280.969	-31.23
281.184	40.45
281.399	17.92
281.615	58.88
281.83	62.98
282.045	-4.61
282.26	87.55
282.476	108.03
282.691	73.21
282.906	65.02
283.122	15.87
283.337	1.54
283.552	71.17
283.767	-27.14
283.983	67.07
284.198	67.07
284.413	-55.81
284.628	65.02
284.843	42.5
285.058	40.45
285.274	-45.57
285.489	-14.85
285.704	75.26
285.919	40.45
286.134	81.41
286.349	40.45
286.564	65.02
286.779	114.17
286.995	50.69
287.21	42.5
287.425	62.98
287.64	-33.28
287.855	3.58
288.07	36.35
288.285	44.54
288.5	54.78
288.715	99.84
288.93	62.98
289.145	-8.7
289.36	22.02
289.575	60.93
289.79	79.36
290.004	58.88
290.219	85.5
290.434	-31.23
290.649	28.16
290.864	5.63
291.079	62.98
291.294	5.63
291.509	5.63
291.724	-12.8
291.938	-0.51
292.153	71.17
292.368	1.54
292.583	42.5
292.798	-6.66
293.012	58.88
293.227	46.59
293.442	60.93
293.657	110.08
293.871	28.16
294.086	50.69
294.301	75.26
294.516	85.5
294.73	67.07
294.945	-25.09
295.16	-6.66
295.374	83.45
295.589	54.78
295.804	26.11
296.018	13.82
296.233	101.89
296.447	83.45
296.662	42.5
296.877	11.78
297.091	95.74
297.306	34.3
297.52	60.93
297.735	11.78
297.949	128.51
298.164	110.08
298.378	-2.56
298.593	-72.19
298.807	-27.14
299.022	5.63
299.236	19.97
299.451	97.79
299.665	-31.23
299.88	30.21
300.094	9.73
300.309	58.88
300.523	81.41
300.737	-10.75
300.952	-2.56
301.166	79.36
301.381	38.4
301.595	32.26
301.809	56.83
302.024	118.27
302.238	38.4
302.452	91.65
302.667	67.07
302.881	93.69
303.095	17.92
303.309	91.65
303.524	79.36
303.738	54.78
303.952	-20.99
304.166	32.26
304.381	9.73
304.595	75.26
304.809	91.65
305.023	22.02
305.237	71.17
305.452	46.59
305.666	71.17
305.88	65.02
306.094	73.21
306.308	112.13
306.522	62.98
306.736	56.83
306.95	38.4
307.164	9.73
307.379	22.02
307.593	-10.75
307.807	32.26
308.021	-20.99
308.235	-12.8
308.449	32.26
308.663	52.74
308.877	91.65
309.091	1.54
309.305	52.74
309.519	9.73
309.733	52.74
309.947	26.11
310.161	83.45
310.374	95.74
310.588	118.27
310.802	69.12
311.016	26.11
311.23	50.69
311.444	-4.61
311.658	17.92
311.872	-18.94
312.085	140.8
312.299	75.26
312.513	81.41
312.727	-14.85
312.941	-37.38
313.154	38.4
313.368	38.4
313.582	50.69
313.796	38.4
314.009	79.36
314.223	83.45
314.437	58.88
314.651	-35.33
314.864	34.3
315.078	46.59
315.292	-31.23
315.505	9.73
315.719	67.07
315.933	91.65
316.146	9.73
316.36	-76.29
316.573	26.11
316.787	142.85
317.001	5.63
317.214	38.4
317.428	38.4
317.641	19.97
317.855	38.4
318.068	56.83
318.282	-4.61
318.495	26.11
318.709	75.26
318.922	26.11
319.136	50.69
319.349	54.78
319.563	26.11
319.776	75.26
319.99	22.02
320.203	-6.66
320.417	62.98
320.63	19.97
320.843	9.73
321.057	42.5
321.27	-6.66
321.483	62.98
321.697	50.69
321.91	13.82
322.124	52.74
322.337	28.16
322.55	116.22
322.763	34.3
322.977	58.88
323.19	26.11
323.403	46.59
323.617	91.65
323.83	89.6
324.043	62.98
324.256	36.35
324.469	52.74
324.683	112.13
324.896	42.5
325.109	52.74
325.322	15.87
325.535	112.13
325.748	67.07
325.962	32.26
326.175	26.11
326.388	42.5
326.601	122.37
326.814	-10.75
327.027	15.87
327.24	75.26
327.453	17.92
327.666	58.88
327.879	91.65
328.092	108.03
328.305	99.84
328.518	95.74
328.731	-51.71
328.944	40.45
329.157	58.88
329.37	34.3
329.583	3.58
329.796	36.35
330.009	-10.75
330.222	-47.62
330.435	19.97
330.648	-6.66
330.861	99.84
331.073	67.07
331.286	38.4
331.499	52.74
331.712	1.54
331.925	67.07
332.138	44.54
332.35	81.41
332.563	46.59
332.776	124.41
332.989	40.45
333.202	-14.85
333.414	105.98
333.627	99.84
333.84	95.74
334.053	34.3
334.265	58.88
334.478	79.36
334.691	36.35
334.903	1.54
335.116	19.97
335.329	50.69
335.541	42.5
335.754	81.41
335.966	52.74
336.179	58.88
336.392	50.69
336.604	28.16
336.817	85.5
337.029	124.41
337.242	71.17
337.454	71.17
337.667	73.21
337.88	138.75
338.092	75.26
338.305	140.8
338.517	58.88
338.729	69.12
338.942	42.5
339.154	132.61
339.367	22.02
339.579	62.98
339.792	65.02
340.004	144.89
340.217	36.35
340.429	44.54
340.641	34.3
340.854	79.36
341.066	-31.23
341.278	79.36
341.491	48.64
341.703	26.11
341.915	48.64
342.128	95.74
342.34	19.97
342.552	97.79
342.764	-29.18
342.977	110.08
343.189	140.8
343.401	99.84
343.613	-8.7
343.826	30.21
344.038	11.78
344.25	-31.23
344.462	-31.23
344.674	103.93
344.886	79.36
345.099	1.54
345.311	36.35
345.523	40.45
345.735	5.63
345.947	105.98
346.159	38.4
346.371	34.3
346.583	81.41
346.795	142.85
347.007	-4.61
347.219	118.27
347.431	1.54
347.643	83.45
347.855	36.35
348.067	108.03
348.279	-43.52
348.491	103.93
348.703	77.31
348.915	58.88
349.127	50.69
349.339	15.87
349.551	52.74
349.763	-14.85
349.975	75.26
350.187	93.69
350.399	101.89
350.61	38.4
350.822	1.54
351.034	26.11
351.246	52.74
351.458	34.3
351.669	54.78
351.881	142.85
352.093	67.07
352.305	11.78
352.517	22.02
352.728	159.23
352.94	60.93
353.152	73.21
353.363	3.58
353.575	62.98
353.787	136.7
353.999	87.55
354.21	17.92
354.422	54.78
354.633	42.5
354.845	95.74
355.057	83.45
355.268	26.11
355.48	60.93
355.692	19.97
355.903	38.4
356.115	67.07
356.326	28.16
356.538	60.93
356.749	108.03
356.961	75.26
357.172	83.45
357.384	54.78
357.595	-0.51
357.807	44.54
358.018	-6.66
358.23	56.83
358.441	138.75
358.653	91.65
358.864	42.5
359.075	26.11
359.287	22.02
359.498	42.5
359.709	93.69
359.921	28.16
360.132	50.69
360.344	1.54
360.555	30.21
360.766	58.88
360.977	99.84
361.189	58.88
361.4	17.92
361.611	79.36
361.823	36.35
362.034	87.55
362.245	-8.7
362.456	17.92
362.667	44.54
362.879	95.74
363.09	46.59
363.301	3.58
363.512	67.07
363.723	89.6
363.935	87.55
364.146	77.31
364.357	22.02
364.568	50.69
364.779	91.65
364.99	97.79
365.201	-31.23
365.412	93.69
365.623	22.02
365.834	58.88
366.045	85.5
366.256	91.65
366.467	44.54
366.678	36.35
366.889	46.59
367.1	60.93
367.311	99.84
367.522	17.92
367.733	87.55
367.944	95.74
368.155	71.17
368.366	46.59
368.577	83.45
368.788	142.85
368.999	116.22
369.209	-10.75
369.42	87.55
369.631	124.41
369.842	140.8
370.053	36.35
370.264	101.89
370.474	28.16
370.685	81.41
370.896	85.5
371.107	58.88
371.317	26.11
371.528	-39.42
371.739	75.26
371.95	67.07
372.16	48.64
372.371	85.5
372.582	1.54
372.792	-6.66
373.003	22.02
373.214	75.26
373.424	60.93
373.635	-2.56
373.846	116.22
374.056	60.93
374.267	17.92
374.477	75.26
374.688	89.6
374.898	42.5
375.109	9.73
375.319	28.16
375.53	58.88
375.74	91.65
375.951	75.26
376.161	30.21
376.372	142.85
376.582	67.07
376.793	85.5
377.003	-12.8
377.214	38.4
377.424	46.59
377.635	48.64
377.845	52.74
378.055	99.84
378.266	54.78
378.476	91.65
378.686	69.12
378.897	-4.61
379.107	67.07
379.317	46.59
379.528	26.11
379.738	93.69
379.948	36.35
380.158	95.74
380.369	-14.85
380.579	151.04
380.789	58.88
380.999	50.69
381.21	77.31
381.42	161.28
381.63	34.3
381.84	69.12
382.05	15.87
382.261	26.11
382.471	93.69
382.681	-33.28
382.891	69.12
383.101	75.26
383.311	22.02
383.521	48.64
383.731	5.63
383.941	22.02
384.151	30.21
384.361	1.54
384.571	-4.61
384.781	58.88
384.991	126.46
385.201	153.09
385.411	79.36
385.621	52.74
385.831	116.22
386.041	50.69
386.251	42.5
386.461	87.55
386.671	19.97
386.881	87.55
387.091	-18.94
387.301	101.89
387.511	26.11
387.72	7.68
387.93	77.31
388.14	-6.66
388.35	42.5
388.56	42.5
388.769	91.65
388.979	134.65
389.189	79.36
389.399	69.12
389.609	93.69
389.818	126.46
390.028	34.3
390.238	52.74
390.447	118.27
390.657	136.7
390.867	73.21
391.076	46.59
391.286	75.26
391.496	89.6
391.705	54.78
391.915	120.32
392.125	134.65
392.334	79.36
392.544	128.51
392.753	87.55
392.963	93.69
393.172	114.17
393.382	142.85
393.591	148.99
393.801	11.78
394.01	148.99
394.22	110.08
394.429	108.03
394.639	52.74
394.848	83.45
395.058	77.31
395.267	136.7
395.477	151.04
395.686	146.94
395.895	151.04
396.105	136.7
396.314	177.66
396.524	58.88
396.733	142.85
396.942	157.18
397.152	128.51
397.361	67.07
397.57	83.45
397.78	108.03
397.989	93.69
398.198	173.57
398.407	142.85
398.617	17.92
398.826	110.08
399.035	71.17
399.244	97.79
399.453	167.42
399.663	87.55
399.872	159.23
400.081	17.92
400.29	177.66
400.499	77.31
400.708	138.75
400.917	185.85
401.127	140.8
401.336	108.03
401.545	120.32
401.754	153.09
401.963	112.13
402.172	62.98
402.381	128.51
402.59	136.7
402.799	151.04
403.008	206.33
403.217	148.99
403.426	165.37
403.635	173.57
403.844	167.42
404.053	181.76
404.262	112.13
404.471	214.52
404.68	144.89
404.888	263.68
405.097	208.38
405.306	173.57
405.515	196.09
405.724	214.52
405.933	132.61
406.142	235
406.35	208.38
406.559	140.8
406.768	259.58
406.977	290.3
407.185	222.72
407.394	278.01
407.603	206.33
407.812	298.49
408.02	321.02
408.229	208.38
408.438	353.79
408.646	290.3
408.855	255.48
409.064	312.83
409.272	288.25
409.481	298.49
409.69	280.06
409.898	296.44
410.107	411.13
410.315	345.59
410.524	370.17
410.733	392.7
410.941	445.95
411.15	427.51
411.358	460.28
411.567	534.01
411.775	464.38
411.984	519.67
412.192	509.43
412.401	517.62
412.609	566.78
412.818	615.93
413.026	650.74
413.234	609.78
413.443	638.45
413.651	759.28
413.86	681.46
414.068	667.13
414.276	775.67
414.485	744.95
414.693	724.47
414.901	790
415.11	820.72
415.318	806.39
415.526	921.07
415.734	921.07
415.943	845.3
416.151	1025.52
416.359	1009.14
416.567	1046
416.776	1066.48
416.984	1234.41
417.192	1258.99
417.4	1181.17
417.608	1183.21
417.817	1258.99
418.025	1385.96
418.233	1289.71
418.441	1338.86
418.649	1484.27
418.857	1545.7
419.065	1607.14
419.273	1568.23
419.481	1512.94
419.689	1658.34
419.897	1809.89
420.105	1775.08
420.313	1857
420.521	1936.87
420.729	1824.23
420.937	1938.91
421.145	2106.85
421.353	2131.42
421.561	2268.64
421.769	2334.17
421.977	2301.4
422.185	2330.08
422.393	2655.7
422.601	2774.49
422.809	2688.47
423.017	2655.7
423.224	2794.97
423.432	2786.77
423.64	2977.23
423.848	3251.66
424.056	3231.18
424.263	3352.01
424.471	3362.25
424.679	3571.15
424.887	3577.29
425.094	3816.9
425.302	3718.6
425.51	3855.81
425.718	4050.37
425.925	4171.2
426.133	4156.86
426.341	4396.48
426.548	4533.69
426.756	4771.26
426.964	4660.66
427.171	5090.74
427.379	5273.01
427.586	5033.4
427.794	5361.07
428.001	5412.27
428.209	5836.2
428.417	5795.24
428.624	6063.52
428.832	6047.14
429.039	6108.58
429.247	6133.15
429.454	6737.31
429.662	6991.25
429.869	6477.21
430.076	7056.79
430.284	6884.76
430.491	7095.7
430.699	7722.38
430.906	7652.75
431.114	7685.51
431.321	8045.96
431.528	8304
431.736	8650.11
431.943	9139.57
432.15	8752.51
432.358	8918.39
432.565	9604.46
432.772	9368.95
432.979	9846.12
433.187	9866.6
433.394	9938.28
433.601	10743.13
433.808	10945.88
434.016	10837.34
434.223	11058.52
434.43	11760.97
434.637	11785.55
434.844	12375.36
435.052	12643.65
435.259	12475.71
435.466	12729.66
435.673	12576.06
435.88	13157.69
436.087	13778.22
436.294	13843.76
436.501	13673.78
436.708	13774.13
436.915	14306.6
437.122	15138.07
437.329	15019.29
437.537	15287.57
437.743	15863.05
437.95	15537.43
438.157	16409.86
438.364	17202.43
438.571	17020.16
438.778	16798.98
438.985	18646.24
439.192	17786.1
439.399	18593
439.606	17884.4
439.813	18920.67
440.02	19995.85
440.227	19809.49
440.433	19588.31
440.64	20034.77
440.847	20249.8
441.054	20581.57
441.261	21912.75
441.467	21718.2
441.674	21759.16
441.881	22830.24
442.088	22729.89
442.294	22389.93
442.501	22977.7
442.708	23510.17
442.914	24599.69
443.121	25625.72
443.328	24747.14
443.534	26739.82
443.741	26121.33
443.948	25173.12
444.154	27587.68
444.361	27360.35
444.568	27001.96
444.774	27663.45
444.981	27688.03
445.187	28652.62
445.394	29680.7
445.6	29131.84
445.807	31867.93
446.013	30723.12
446.22	31083.56
446.426	32095.25
446.633	32812.04
446.839	33782.78
447.046	32459.79
447.252	34395.12
447.459	33993.72
447.665	33838.08
447.871	35496.93
448.078	37141.45
448.284	35204.07
448.491	36398.04
448.697	37374.92
448.903	38364.09
449.11	38151.1
449.316	37919.68
449.522	38230.97
449.728	39422.89
449.935	39556
450.141	39306.15
450.347	40909.71
450.553	39556
450.76	40031.13
450.966	40999.82
451.172	40579.99
451.378	41249.67
451.584	40872.85
451.791	41597.83
451.997	41526.15
452.203	42539.89
452.409	42597.24
452.615	42101.63
452.821	40721.3
453.027	39910.3
453.233	42570.61
453.44	40561.56
453.646	41005.97
453.852	41157.52
454.058	42232.7
454.264	40588.18
454.47	41825.15
454.676	40444.82
454.882	41431.94
455.088	38233.02
455.294	38558.64
455.5	39603.11
455.705	40068
455.911	38183.87
456.117	37579.71
456.323	37405.64
456.529	35324.9
456.735	36862.93
456.941	35998.68
457.147	35376.1
457.352	34350.07
457.558	34081.78
457.764	34368.5
457.97	33227.78
458.176	32879.63
458.381	32658.45
458.587	31104.04
458.793	30575.66
458.999	29213.76
459.204	31892.51
459.41	30825.51
459.616	28798.02
459.821	28851.27
460.027	28632.14
460.233	27862.1
460.438	26811.49
460.644	26958.95
460.85	25615.48
461.055	25150.59
461.261	25406.59
461.466	23454.87
461.672	22758.56
461.878	24302.73
462.083	23026.85
462.289	22185.13
462.494	22199.47
462.7	21216.44
462.905	20487.37
463.111	21351.61
463.316	21296.32
463.522	20853.95
463.727	20810.95
463.932	20999.36
464.138	20516.04
464.343	20565.19
464.549	20077.77
464.754	20772.04
464.959	20571.33
465.165	20319.43
465.37	19682.52
465.575	18986.21
465.781	19786.96
465.986	20120.78
466.191	19258.59
466.397	18842.85
466.602	18097.39
466.807	18679.01
467.012	19197.15
467.218	18584.8
467.423	18361.58
467.628	18636
467.833	19129.56
468.038	18472.17
468.244	17859.82
468.449	18611.43
468.654	17888.5
468.859	18134.25
469.064	17997.04
469.269	17212.67
469.474	17298.68
469.679	17777.9
469.885	17214.71
470.09	17370.36
470.295	17106.17
470.5	16794.88
470.705	16903.42
470.91	16735.49
471.115	16575.75
471.32	16633.09
471.525	16467.2
471.73	16041.23
471.935	16334.09
472.139	15586.58
472.344	15805.71
472.549	15543.57
472.754	15363.35
472.959	15240.47
473.164	14800.16
473.369	14877.98
473.574	15209.75
473.778	14857.5
473.983	14988.57
474.188	15088.92
474.393	14185.77
474.598	14333.22
474.802	14212.39
475.007	13780.27
475.212	14038.31
475.417	13499.7
475.621	13417.78
475.826	13458.74
476.031	13440.31
476.235	12907.84
476.44	13288.76
476.645	13047.1
476.849	13126.97
477.054	12954.94
477.259	12600.64
477.463	12735.81
477.668	12371.27
477.872	12584.26
478.077	12416.32
478.282	11793.74
478.486	11998.54
478.691	11707.73
478.895	11703.63
479.1	11691.34
479.304	11806.03
479.509	11441.49
479.713	11763.02
479.918	11314.52
480.122	11087.19
480.326	11384.15
480.531	11476.3
480.735	11191.64
480.94	11033.94
481.144	11531.6
481.348	10839.39
481.553	11060.57
481.757	10636.64
481.961	10849.63
482.166	11132.25
482.37	11126.1
482.574	10595.68
482.778	10868.06
482.983	11052.38
483.187	11015.51
483.391	10622.3
483.595	10904.92
483.8	10767.71
484.004	10931.55
484.208	10786.14
484.412	10876.25
484.616	10978.65
484.821	10941.79
485.025	10628.45
485.229	10675.55
485.433	10696.03
485.637	10732.89
485.841	10782.04
486.045	10794.33
486.249	11015.51
486.453	10581.34
486.657	10851.67
486.861	10716.51
487.065	10583.39
487.269	10906.97
487.473	10530.14
487.677	10747.23
487.881	11162.97
488.085	10700.12
488.289	10921.31
488.493	10700.12
488.697	10755.42
488.901	10745.18
489.105	10814.81
489.309	10980.7
489.512	11115.86
489.716	10980.7
489.92	11158.87
490.124	10823
490.328	11144.53
490.531	11273.56
490.735	11101.53
490.939	11224.4
491.143	11113.81
491.346	11171.16
491.55	11316.56
491.754	11238.74
491.958	11537.74
492.161	11525.46
492.365	11421.01
492.569	11316.56
492.772	11281.75
492.976	11490.64
493.18	11453.78
493.383	11670.86
493.587	11912.52
493.79	11695.44
493.994	11576.66
494.197	11883.85
494.401	12252.49
494.605	11822.41
494.808	12031.3
495.012	12295.49
495.215	12432.71
495.419	12401.99
495.622	12289.35
495.825	12703.04
496.029	12414.27
496.232	12862.78
496.436	12772.67
496.639	12993.85
496.843	12967.23
497.046	13133.11
497.249	13288.76
497.453	13311.28
497.656	13542.71
497.859	13483.31
498.063	14034.22
498.266	13925.68
498.469	14103.85
498.673	14144.81
498.876	14589.22
499.079	14671.14
499.282	14345.51
499.485	14996.76
499.689	14615.84
499.892	15240.47
500.095	15140.12
500.298	15580.43
500.501	15412.5
500.705	15660.31
500.908	15992.08
501.111	15987.98
501.314	16377.09
501.517	16618.75
501.72	16743.68
501.923	16506.12
502.126	17116.41
502.329	17427.7
502.532	17124.6
502.735	17247.48
502.938	17593.59
503.141	17831.15
503.344	18169.07
503.547	18130.16
503.75	18285.8
503.953	18803.94
504.156	18795.75
504.359	18994.4
504.562	19029.21
504.765	19698.9
504.968	19596.5
505.17	19764.43
505.373	19864.78
505.576	20147.4
505.779	20432.07
505.982	20491.46
506.185	20878.53
506.387	21009.6
506.59	21210.3
506.793	21443.77
506.996	21693.62
507.198	22029.49
507.401	22035.63
507.604	22250.67
507.807	22602.92
508.009	22850.72
508.212	22981.79
508.415	23104.67
508.617	23704.73
508.82	23831.7
509.022	23407.77
509.225	24036.5
509.428	24546.44
509.63	24251.53
509.833	24597.64
510.035	25207.94
510.238	25117.82
510.44	25482.36
510.643	25992.31
510.845	25957.49
511.048	25797.75
511.25	26504.3
511.453	26475.63
511.655	27188.32
511.858	26991.72
512.06	27528.28
512.262	27612.25
512.465	27425.89
512.667	28089.43
512.87	28415.05
513.072	28460.11
513.274	29035.59
513.477	29189.19
513.679	29484.09
513.881	29744.19
514.084	30055.48
514.286	29899.83
514.488	30145.59
514.69	30901.29
514.893	31095.85
515.095	31310.88
515.297	31534.11
515.499	31568.93
515.701	32035.86
515.904	32195.6
516.106	32594.96
516.308	33014.79
516.51	32750.6
516.712	33252.36
516.914	33661.95
517.116	34014.2
517.318	34130.94
517.52	34505.71
517.722	34319.35
517.925	34933.74
518.127	35372
518.329	35437.54
518.531	35273.7
518.733	35922.91
518.935	36344.79
519.136	36174.81
519.338	37065.67
519.54	36764.62
519.742	37485.51
519.944	37342.15
520.146	38183.87
520.348	38386.61
520.55	38474.68
520.752	38507.44
520.954	39027.63
521.155	39136.17
521.357	39267.24
521.559	39635.88
521.761	40321.94
521.963	40205.21
522.164	40651.67
522.366	40653.72
522.568	41292.68
522.77	41077.65
522.971	41802.63
523.173	41356.17
523.375	41970.56
523.576	42138.49
523.778	42326.91
523.98	43015.02
524.181	42720.12
524.383	42900.34
524.584	43332.46
524.786	43436.91
524.988	43082.61
525.189	44082.02
525.391	43914.08
525.592	44252
525.794	44340.06
525.995	44360.54
526.197	44587.86
526.398	44682.07
526.6	44972.88
526.801	45431.63
527.003	45409.1
527.204	45368.14
527.406	45665.1
527.607	45757.25
527.808	46357.31
528.01	45624.14
528.211	45749.06
528.412	46887.73
528.614	46457.66
528.815	46234.43
529.016	47256.37
529.218	46658.36
529.419	47121.2
529.62	46709.56
529.822	46971.7
530.023	46895.92
530.224	46760.76
530.425	47452.97
530.626	46873.4
530.828	46867.25
531.029	47766.31
531.23	46867.25
531.431	47127.34
531.632	47469.36
531.833	47364.91
532.035	47852.33
532.236	47362.86
532.437	48050.98
532.638	47481.64
532.839	47960.87
533.04	48190.24
533.241	47158.06
533.442	48065.31
533.643	48077.6
533.844	47696.68
534.045	47864.61
534.246	47268.65
534.447	47991.59
534.648	47954.72
534.849	47938.34
535.05	47741.74
535.251	47545.13
535.451	47715.11
535.652	48044.83
535.853	48067.36
536.054	48192.29
536.255	48255.78
536.456	47717.16
536.657	48624.41
536.857	47817.51
537.058	47831.85
537.259	48462.62
537.46	47745.83
537.66	47921.96
537.861	48114.47
538.062	47811.37
538.263	47917.86
538.463	47596.33
538.664	47919.91
538.865	48061.22
539.065	48364.32
539.266	47493.93
539.466	48569.11
539.667	47948.58
539.868	48218.91
540.068	47895.33
540.269	48012.07
540.469	47825.7
540.67	47940.39
540.87	47698.73
541.071	47969.06
541.271	48016.16
541.472	48075.55
541.672	47651.62
541.873	47491.88
542.073	47547.18
542.274	48220.96
542.474	47696.68
542.675	47563.56
542.875	48257.82
543.075	48018.21
543.276	47207.22
543.476	48188.19
543.676	47291.18
543.877	47878.95
544.077	47602.47
544.277	47487.79
544.478	48018.21
544.678	47684.39
544.878	47364.91
545.078	47889.19
545.279	47346.48
545.479	47002.42
545.679	47618.86
545.879	47502.12
546.079	47946.53
546.28	47522.6
546.48	47266.61
546.68	47883.05
546.88	47825.7
547.08	47475.5
547.28	47104.82
547.48	47108.91
547.68	47463.21
547.88	46928.69
548.081	47338.29
548.281	47672.1
548.481	47080.24
548.681	47743.78
548.881	47729.45
549.081	47291.18
549.28	46953.27
549.48	47538.99
549.68	46719.8
549.88	47940.39
550.08	46811.96
550.28	47692.58
550.48	46914.36
550.68	47700.78
550.88	47031.09
551.08	47270.7
551.279	47176.5
551.479	46701.37
551.679	47115.06
551.879	46727.99
552.079	47801.13
552.278	46969.65
552.478	46895.92
552.678	47127.34
552.878	47348.53
553.077	46803.77
553.277	46646.07
553.477	47438.64
553.676	46676.79
553.876	46568.25
554.076	46943.03
554.275	46480.19
554.475	46416.7
554.674	46914.36
554.874	46848.82
555.074	46570.3
555.273	46988.08
555.473	46762.81
555.672	46164.8
555.872	46451.52
556.071	46345.02
556.271	46865.2
556.47	46287.68
556.67	46168.9
556.869	46560.06
557.068	46328.64
557.268	46535.48
557.467	46242.62
557.667	46111.55
557.866	46236.48
558.065	46189.38
558.265	45638.47
558.464	46193.47
558.663	46226.24
558.863	45624.14
559.062	46412.6
559.261	45890.37
559.461	46111.55
559.66	45196.11
559.859	45478.73
560.058	45781.83
560.258	45644.62
560.457	45830.98
560.656	45474.63
560.855	45359.95
561.054	45792.07
561.253	44944.21
561.453	45450.06
561.652	45314.89
561.851	45718.34
562.05	44731.22
562.249	45065.04
562.448	45355.85
562.647	44936.02
562.846	45142.86
563.045	44972.88
563.244	44262.24
563.443	44985.17
563.642	44356.44
563.841	44702.55
564.04	44340.06
564.239	45101.9
564.438	44112.73
564.637	44137.31
564.836	44434.27
565.035	44014.43
565.234	44417.88
565.432	44137.31
565.631	43598.69
565.83	44030.82
566.029	43989.86
566.228	43711.33
566.427	43672.42
566.625	43371.37
566.824	42898.29
567.023	43563.88
567.222	42845.04
567.42	43572.07
567.619	43316.08
567.818	43520.87
568.016	43053.94
568.215	43338.6
568.414	42673.01
568.612	43340.65
568.811	43129.71
569.01	43043.7
569.208	42433.4
569.407	42933.1
569.605	42156.92
569.804	42636.15
570.002	42144.64
570.201	42183.55
570.4	41843.59
570.598	42244.99
570.797	41728.9
570.995	42367.87
571.193	41446.28
571.392	41857.92
571.59	41710.47
571.789	41581.45
571.987	41466.76
572.186	41524.1
572.384	40981.39
572.582	41444.23
572.781	41161.61
572.979	40391.58
573.177	41061.26
573.376	41321.35
573.574	40983.44
573.772	41055.12
573.971	40655.76
574.169	40688.53
574.367	40219.55
574.565	40666
574.763	40223.64
574.962	39713.7
575.16	39617.44
575.358	40090.52
575.556	39699.36
575.754	40074.14
575.952	39549.86
576.151	40074.14
576.349	39615.4
576.547	39740.32
576.745	39556
576.943	39240.62
577.141	39166.89
577.339	39312.3
577.537	39007.15
577.735	39195.56
577.933	38583.22
578.131	39060.4
578.329	38585.27
578.527	38579.12
578.725	38425.53
578.923	38546.36
579.121	38024.12
579.319	38175.67
579.516	38640.56
579.714	38403
579.912	38093.75
580.11	38001.6
580.308	37735.36
580.506	37770.18
580.704	37544.9
580.901	37657.54
581.099	38040.51
581.297	37221.32
581.495	37200.84
581.692	37522.37
581.89	37147.59
582.088	37188.55
582.285	36672.46
582.483	37239.75
582.681	36959.18
582.878	36826.06
583.076	36269.01
583.274	36754.38
583.471	35898.33
583.669	36701.14
583.866	35937.24
584.064	36684.75
584.262	35800.03
584.459	36303.83
584.657	36043.74
584.854	36166.62
585.052	35757.02
585.249	35757.02
585.447	35705.82
585.644	35623.9
585.841	35337.19
586.039	35769.31
586.236	35273.7
586.434	35236.84
586.631	35140.58
586.828	35199.97
587.026	34866.16
587.223	35165.16
587.42	34489.33
587.618	34636.78
587.815	34239.48
588.012	34108.41
588.21	34147.32
588.407	34286.58
588.604	33948.67
588.801	33868.8
588.999	34049.02
589.196	33772.54
589.393	33780.73
589.59	33676.29
589.787	33627.13
589.984	33453.06
590.182	33387.52
590.379	33352.71
590.576	33321.99
590.773	32990.22
590.97	33010.7
591.167	33213.45
591.364	32705.55
591.561	33047.56
591.758	32390.16
591.955	32506.9
592.152	32705.55
592.349	32420.88
592.546	32238.61
592.743	32347.15
592.94	31648.8
593.137	31978.52
593.334	32609.29
593.531	31652.89
593.727	31558.69
593.924	31689.76
594.121	31274.02
594.318	31587.36
594.515	31038.5
594.712	31636.51
594.908	30944.3
595.105	30989.35
595.302	30788.65
595.499	31239.2
595.696	30745.64
595.892	30612.52
596.089	30802.99
596.286	30850.09
596.482	30684.2
596.679	30356.53
596.876	30503.98
597.072	30256.18
597.269	30385.2
597.466	29875.26
597.662	30014.52
597.859	30506.03
598.055	29908.02
598.252	29670.46
598.448	29944.89
598.645	29850.68
598.841	29316.16
599.038	29324.35
599.234	29664.32
599.431	29168.71
599.627	29252.67
599.824	29248.58
600.02	29230.15
600.217	29103.17
600.413	28898.38
600.609	28875.85
600.806	28763.21
601.002	28857.42
601.198	28546.12
601.395	28417.1
601.591	28202.07
601.787	28365.9
601.984	28079.19
602.18	28441.68
602.376	28118.1
602.572	27860.05
602.769	27984.98
602.965	27528.28
603.161	27853.91
603.357	27622.49
603.553	27626.59
603.75	27397.21
603.946	27417.69
604.142	27450.46
604.338	26899.56
604.534	26977.38
604.73	26854.5
604.926	26954.85
605.122	27139.17
605.318	26872.93
605.514	27096.16
605.71	26567.79
605.906	26418.28
606.102	26829.93
606.298	26520.68
606.494	26383.47
606.69	26494.06
606.886	26610.79
607.082	26055.79
607.278	26463.34
607.474	26086.51
607.67	26408.05
607.866	25787.51
608.062	26381.42
608.257	25799.8
608.453	25703.54
608.649	25885.81
608.845	25810.04
609.041	25437.31
609.236	25685.11
609.432	25681.02
609.628	25578.62
609.824	25582.71
610.019	25289.85
610.215	25328.77
610.411	25529.47
610.606	25126.02
610.802	25271.42
610.998	25226.37
611.193	25220.22
611.389	25205.89
611.584	24929.41
611.78	24941.7
611.976	24845.44
612.171	24659.08
612.367	24614.02
612.562	24589.45
612.758	24638.6
612.953	24478.86
613.149	24927.36
613.344	24163.47
613.539	24949.89
613.735	24644.74
613.93	24503.43
614.126	24429.71
614.321	24396.94
614.517	24343.69
614.712	24272.01
614.907	23846.04
615.103	24331.4
615.298	23651.48
615.493	24411.28
615.688	23729.3
615.884	24355.98
616.079	23946.39
616.274	23952.53
616.47	24022.16
616.665	23907.48
616.86	23901.33
617.055	23653.53
617.25	23764.12
617.445	23952.53
617.641	23159.97
617.836	23450.78
618.031	23092.38
618.226	23620.76
618.421	23288.99
618.616	23180.45
618.811	23065.76
619.006	23354.52
619.201	22863.01
619.396	23065.76
619.591	22582.44
619.786	22893.73
619.981	22351.02
620.176	22574.25
620.371	22336.68
620.566	22621.35
620.761	22267.05
620.956	22377.64
621.151	22113.45
621.346	22150.32
621.541	21824.69
621.735	21931.19
621.93	21521.59
622.125	21720.24
622.32	21480.63
622.515	21597.37
622.709	21226.68
622.904	21150.91
623.099	20985.02
623.294	21075.13
623.488	20778.18
623.683	21023.94
623.878	20505.8
624.072	20536.52
624.267	20391.11
624.462	20643.01
624.656	20073.68
624.851	20131.02
625.046	19963.09
625.24	19829.97
625.435	19604.69
625.629	19897.55
625.824	19709.14
626.018	19678.42
626.213	19113.18
626.407	19449.05
626.602	19098.84
626.796	19279.07
626.991	18996.45
627.185	18969.82
627.38	18857.18
627.574	18762.98
627.768	18566.37
627.963	18496.74
628.157	18410.73
628.352	18472.17
628.546	18162.92
628.74	18216.17
628.935	17974.51
629.129	17982.7
629.323	17988.85
629.517	17628.4
629.712	17796.34
629.906	17847.54
630.1	17370.36
630.294	17321.21
630.489	17384.69
630.683	17360.12
630.877	16880.89
631.071	16993.53
631.265	17149.18
631.459	16764.16
631.653	16809.22
631.848	16649.47
632.042	16852.22
632.236	16807.17
632.43	16428.29
632.624	16352.52
632.818	16362.76
633.012	16217.35
633.206	16180.49
633.4	16139.53
633.594	15852.81
633.788	15758.61
633.982	15912.21
634.176	15918.35
634.369	15688.98
634.563	15781.14
634.757	15426.84
634.951	15596.82
635.145	15285.53
635.339	15303.96
635.533	15078.68
635.726	15263
635.92	14976.28
636.114	14947.61
636.308	14957.85
636.501	14716.19
636.695	14615.84
636.889	14638.37
637.083	14484.77
637.276	14466.34
637.47	14175.53
637.664	14607.65
637.857	14398.76
638.051	14294.31
638.244	14009.64
638.438	14120.23
638.632	13884.72
638.825	13874.48
639.019	13978.92
639.212	13763.89
639.406	13698.35
639.599	13591.86
639.793	13348.15
639.986	13602.1
640.18	13532.47
640.373	13557.04
640.567	13200.69
640.76	13129.02
640.954	13202.74
641.147	13053.24
641.34	13014.33
641.534	12756.29
641.727	12885.31
641.92	12973.37
642.114	12590.4
642.307	13006.14
642.5	12764.48
642.694	12506.43
642.887	12670.27
643.08	12666.17
643.273	12553.54
643.467	12301.64
643.66	12281.16
643.853	12129.61
644.046	12078.41
644.239	12045.64
644.432	11978.06
644.626	11793.74
644.819	11470.16
645.012	11644.24
645.205	11842.89
645.398	11849.04
645.591	11390.29
645.784	11494.74
645.977	11568.46
646.17	11421.01
646.363	11365.71
646.556	11130.2
646.749	11175.25
646.942	11365.71
647.135	11136.34
647.328	11201.88
647.521	11128.15
647.714	10866.01
647.907	11013.46
648.099	10906.97
648.292	10829.15
648.485	10782.04
648.678	10528.1
648.871	10524
649.064	10749.28
649.256	10634.59
649.449	10683.74
649.642	10540.38
649.835	10374.5
650.027	10358.11
650.22	10138.98
650.413	10306.91
650.605	9964.9
650.798	9966.95
650.991	9946.47
651.183	9899.37
651.376	10052.97
651.568	10085.73
651.761	9655.66
651.954	9792.87
652.146	9670
652.339	9889.13
652.531	9553.26
652.724	9479.54
652.916	9475.44
653.109	9481.58
653.301	9411.95
653.494	9467.25
653.686	9407.86
653.879	9444.72
654.071	9260.4
654.263	9356.66
654.456	9147.76
654.648	9358.71
654.84	9121.14
655.033	9053.56
655.225	8971.64
655.417	8838.52
655.61	8736.12
655.802	9037.17
655.994	8781.18
656.186	8744.31
656.379	8699.26
656.571	8662.4
656.763	8514.94
656.955	8588.67
657.148	8568.19
657.34	8643.96
657.532	8355.2
657.724	8502.65
657.916	8295.81
658.108	8291.71
658.3	8365.44
658.492	8217.99
658.684	7886.22
658.876	8117.64
659.068	8193.41
659.26	8148.36
659.452	8240.51
659.644	8015.24
659.836	8029.57
660.028	8021.38
660.22	7749
660.412	8041.86
660.604	7726.47
660.796	7902.6
660.988	7662.99
661.18	7632.27
661.372	7628.17
661.563	7558.54
661.755	7386.51
661.947	7558.54
662.139	7396.75
662.331	7531.92
662.522	7253.39
662.714	7357.84
662.906	7366.03
663.097	7116.18
663.289	7161.23
663.481	7071.12
663.673	7202.19
663.864	6981.01
664.056	6913.43
664.247	6878.62
664.439	7050.64
664.631	7005.59
664.822	6892.95
665.014	6835.61
665.205	7028.12
665.397	6804.89
665.588	6825.37
665.78	6651.29
665.971	6665.63
666.163	6860.18
666.354	6708.63
666.546	6557.08
666.737	6727.07
666.929	6538.65
667.12	6520.22
667.311	6563.23
667.503	6354.34
667.694	6475.17
667.885	6407.58
668.077	6413.73
668.268	6360.48
668.459	6368.67
668.651	6182.31
668.842	6335.9
669.033	6262.18
669.224	6301.09
669.416	6323.62
669.607	6202.79
669.798	6274.46
669.989	6225.31
670.18	6038.95
670.371	6108.58
670.563	6000.04
670.754	6045.09
670.945	5975.46
671.136	5930.41
671.327	6063.52
671.518	5997.99
671.709	5879.21
671.9	5871.01
672.091	5840.29
672.282	5735.85
672.473	5694.89
672.664	5746.09
672.855	5668.27
673.046	5860.77
673.237	5741.99
673.428	5719.46
673.619	5655.98
673.809	5598.63
674	5621.16
674.191	5678.51
674.382	5361.07
674.573	5510.57
674.764	5469.61
674.954	5621.16
675.145	5524.91
675.336	5561.77
675.527	5440.94
675.717	5442.99
675.908	5361.07
676.099	5381.55
676.289	5350.83
676.48	5338.54
676.671	5174.71
676.861	5170.61
677.052	5236.14
677.243	5207.47
677.433	5236.14
677.624	5268.91
677.814	5301.68
678.005	5242.29
678.195	5141.94
678.386	5318.06
678.576	5084.59
678.767	5041.59
678.957	5109.17
679.148	5109.17
679.338	5100.98
679.529	5199.28
679.719	5180.85
679.909	5189.04
680.1	5109.17
680.29	4994.48
680.481	4943.28
680.671	5164.47
680.861	5055.92
681.052	4988.34
681.242	4875.7
681.432	4949.43
681.622	4861.37
681.813	4810.17
682.003	4971.96
682.193	4804.02
682.383	5129.65
682.573	4900.28
682.764	4797.88
682.954	4726.2
683.144	4865.46
683.334	4662.71
683.524	4851.13
683.714	4761.02
683.904	4818.36
684.094	4806.07
684.284	4715.96
684.474	4738.49
684.664	4713.91
684.854	4783.54
685.044	4806.07
685.234	4556.22
685.424	4623.8
685.614	4617.66
685.804	4656.57
685.994	4699.58
686.184	4625.85
686.374	4615.61
686.564	4548.03
686.753	4550.07
686.943	4429.24
687.133	4640.19
687.323	4453.82
687.513	4447.68
687.702	4294.08
687.892	4468.16
688.082	4390.33
688.272	4392.38
688.461	4392.38
688.651	4263.36
688.841	4281.79
689.03	4410.81
689.22	4240.83
689.41	4238.78
689.599	4193.73
689.789	4183.49
689.979	4277.69
690.168	4236.74
690.358	4122.05
690.547	4163.01
690.737	4085.19
690.926	4068.8
691.116	4023.75
691.305	4175.3
691.495	4068.8
691.684	3913.16
691.874	3978.69
692.063	4072.9
692.252	4074.95
692.442	4074.95
692.631	3878.34
692.82	3896.77
693.01	4015.55
693.199	4003.27
693.388	3892.68
693.578	3960.26
693.767	3839.43
693.956	4015.55
694.146	3716.55
694.335	3794.37
694.524	3767.75
694.713	3706.31
694.902	3786.18
695.092	3839.43
695.281	3728.84
695.47	3804.61
695.659	3894.72
695.848	3597.77
696.037	3603.91
696.226	3743.17
696.415	3868.1
696.604	3608.01
696.793	3823.05
696.982	3782.09
697.171	3589.58
697.36	3753.41
697.549	3784.13
697.738	3499.47
697.927	3579.34
698.116	3624.39
698.305	3499.47
698.494	3554.76
698.683	3427.79
698.872	3610.06
699.061	3587.53
699.25	3591.63
699.438	3675.59
699.627	3515.85
699.816	3556.81
700.005	3542.47
700.193	3581.39
700.382	3642.82
700.571	3438.03
700.76	3548.62
700.948	3603.91
701.137	3605.96
701.326	3515.85
701.514	3450.32
701.703	3421.64
701.892	3347.92
702.08	3435.98
702.269	3423.69
702.457	3253.71
702.646	3384.78
702.834	3460.56
703.023	3474.89
703.212	3384.78
703.4	3472.84
703.589	3237.33
703.777	3524.04
703.965	3327.44
704.154	3335.63
704.342	3423.69
704.531	3239.37
704.719	3368.4
704.907	3395.02
705.096	3323.34
705.284	3321.29
705.472	3112.4
705.661	3403.21
705.849	3311.05
706.037	3259.85
706.226	3298.77
706.414	3470.8
706.602	3274.19
706.79	3331.53
706.979	3257.81
707.167	3343.82
707.355	3302.86
707.543	3376.59
707.731	3341.77
707.919	3255.76
708.107	3200.46
708.296	3229.13
708.484	3286.48
708.672	3153.36
708.86	3233.23
709.048	3182.03
709.236	3175.89
709.424	3253.71
709.612	3141.07
709.8	3177.94
709.988	3149.26
710.176	3147.22
710.364	3298.77
710.551	3171.79
710.739	3155.41
710.927	3118.54
711.115	3149.26
711.303	3175.89
711.491	3089.87
711.679	3065.3
711.866	2942.42
712.054	3249.61
712.242	3096.02
712.43	3116.5
712.617	3022.29
712.805	3147.22
712.993	2995.67
713.181	2934.23
713.368	3012.05
713.556	2969.04
713.744	3032.53
713.931	3151.31
714.119	3059.15
714.306	3163.6
714.494	3116.5
714.682	3005.91
714.869	2934.23
715.057	3081.68
715.244	2958.8
715.432	2954.71
715.619	2983.38
715.807	3053.01
715.994	2862.55
716.182	3114.45
716.369	3046.87
716.556	3048.91
716.744	2915.8
716.931	2928.08
717.119	3065.3
717.306	2837.97
717.493	2983.38
717.681	3016.15
717.868	3034.58
718.055	3028.43
718.242	2878.93
718.43	2923.99
718.617	2999.76
718.804	2934.23
718.991	2854.36
719.179	2821.59
719.366	2852.31
719.553	2874.84
719.74	2786.77
719.927	2868.69
720.114	2856.4
720.301	2909.65
720.488	2751.96
720.676	2799.06
720.863	2944.47
721.05	2764.25
721.237	2764.25
721.424	2911.7
721.611	2819.54
721.798	2737.62
721.985	2794.97
722.172	3026.39
722.358	2788.82
722.545	2827.73
722.732	2903.51
722.919	2778.58
723.106	2762.2
723.293	2672.09
723.48	2872.79
723.667	2676.18
723.853	2856.4
724.04	2870.74
724.227	2696.66
724.414	2663.9
724.6	2766.29
724.787	2778.58
724.974	2837.97
725.161	2786.77
725.347	2674.14
725.534	2672.09
725.72	2704.85
725.907	2731.48
726.094	2741.72
726.28	2770.39
726.467	2690.52
726.653	2645.46
726.84	2647.51
727.027	2756.05
727.213	2778.58
727.4	2694.61
727.586	2639.32
727.773	2727.38
727.959	2584.02
728.145	2618.84
728.332	2661.85
728.518	2635.22
728.705	2614.74
728.891	2641.37
729.077	2627.03
729.264	2754.01
729.45	2629.08
729.636	2637.27
729.823	2508.25
730.009	2647.51
730.195	2657.75
730.382	2690.52
730.568	2692.57
730.754	2678.23
730.94	2581.98
731.126	2614.74
731.313	2600.41
731.499	2561.5
731.685	2569.69
731.871	2592.22
732.057	2643.42
732.243	2680.28
732.429	2573.78
732.615	2608.6
732.801	2532.83
732.987	2483.67
733.173	2602.46
733.359	2551.26
733.545	2754.01
733.731	2584.02
733.917	2541.02
734.103	2663.9
734.289	2561.5
734.475	2555.35
734.661	2690.52
734.847	2543.07
735.033	2512.35
735.219	2516.44
735.404	2639.32
735.59	2491.87
735.776	2534.87
735.962	2444.76
736.148	2522.59
736.333	2696.66
736.519	2610.65
736.705	2430.43
736.89	2522.59
737.076	2502.11
737.262	2444.76
737.447	2424.28
737.633	2418.14
737.819	2516.44
738.004	2459.1
738.19	2414.04
738.375	2412
738.561	2545.11
738.747	2401.76
738.932	2405.85
739.118	2506.2
739.303	2502.11
739.489	2516.44
739.674	2350.56
739.859	2262.49
740.045	2340.32
740.23	2416.09
740.416	2305.5
740.601	2532.83
740.786	2414.04
740.972	2272.73
741.157	2233.82
741.342	2328.03
741.528	2244.06
741.713	2328.03
741.898	2278.88
742.084	2225.63
742.269	2303.45
742.454	2264.54
742.639	2299.36
742.824	2192.86
743.01	2262.49
743.195	2133.47
743.38	2164.19
743.565	2258.4
743.75	2291.17
743.935	2123.23
744.12	2242.01
744.305	2115.04
744.49	2180.57
744.675	2131.42
744.86	2135.52
745.045	2098.66
745.23	2051.55
745.415	2086.37
745.6	2139.62
745.785	2041.31
745.97	2131.42
746.155	2022.88
746.34	2076.13
746.525	2057.7
746.71	2024.93
746.895	2000.35
747.079	1983.97
747.264	1951.2
747.449	1957.35
747.634	1951.2
747.819	1863.14
748.003	1977.83
748.188	1953.25
748.373	2018.79
748.557	1938.91
748.742	1928.67
748.927	1943.01
749.111	1897.96
749.296	1930.72
749.481	1732.07
749.665	1836.52
749.85	1805.8
750.034	1832.42
750.219	1805.8
750.404	1881.57
750.588	1779.17
750.773	1699.3
750.957	1805.8
751.141	1717.73
751.326	1809.89
751.51	1715.69
751.695	1721.83
751.879	1637.86
752.064	1742.31
752.248	1633.77
752.432	1734.12
752.617	1660.39
752.801	1666.53
752.985	1615.34
753.17	1680.87
753.354	1551.85
753.538	1652.2
753.722	1596.9
753.907	1568.23
754.091	1564.14
754.275	1623.53
754.459	1492.46
754.643	1553.9
754.828	1492.46
755.012	1689.06
755.196	1480.17
755.38	1435.11
755.564	1484.27
755.748	1422.83
755.932	1603.05
756.116	1420.78
756.3	1402.35
756.484	1439.21
756.668	1418.73
756.852	1347.05
757.036	1375.72
757.22	1396.2
757.404	1377.77
757.588	1314.28
757.772	1410.54
757.956	1293.8
758.14	1347.05
758.323	1213.93
758.507	1295.85
758.691	1213.93
758.875	1365.48
759.059	1295.85
759.242	1289.71
759.426	1230.32
759.61	1287.66
759.794	1304.04
759.977	1189.36
760.161	1289.71
760.345	1310.19
760.528	1218.03
760.712	1166.83
760.895	1181.17
761.079	1230.32
761.263	1144.3
761.446	1123.82
761.63	1226.22
761.813	1238.51
761.997	1162.73
762.18	1168.88
762.364	1107.44
762.547	1142.25
762.731	1181.17
762.914	1095.15
763.098	1086.96
763.281	1160.69
763.464	1084.91
763.648	1160.69
763.831	1025.52
764.015	1117.68
764.198	1113.58
764.381	1121.77
764.564	1101.3
764.748	1072.62
764.931	1046
765.114	1078.77
765.297	1103.34
765.481	986.61
765.664	1009.14
765.847	1025.52
766.03	1041.9
766.213	943.6
766.397	1058.29
766.58	949.75
766.763	1123.82
766.946	1062.38
767.129	955.89
767.312	937.46
767.495	955.89
767.678	978.42
767.861	1035.76
768.044	968.18
768.227	1009.14
768.41	1052.14
768.593	929.27
768.776	1025.52
768.959	910.83
769.142	984.56
769.324	951.79
769.507	937.46
769.69	968.18
769.873	908.79
770.056	988.66
770.239	968.18
770.421	964.08
770.604	941.55
770.787	953.84
770.97	882.16
771.152	855.54
771.335	1043.95
771.518	873.97
771.7	943.6
771.883	982.51
772.066	828.92
772.248	892.4
772.431	951.79
772.613	931.31
772.796	910.83
772.978	828.92
773.161	783.86
773.343	849.4
773.526	781.81
773.708	790
773.891	783.86
774.073	861.68
774.256	691.7
774.438	802.29
774.621	712.18
774.803	818.68
774.985	738.8
775.168	853.49
775.35	798.2
775.532	790
775.715	732.66
775.897	740.85
776.079	726.52
776.261	771.57
776.444	706.04
776.626	814.58
776.808	656.89
776.99	675.32
777.173	732.66
777.355	783.86
777.537	734.71
777.719	691.7
777.901	728.56
778.083	607.73
778.265	609.78
778.447	691.7
778.629	656.89
778.811	652.79
778.993	663.03
779.175	728.56
779.357	648.69
779.539	570.87
779.721	630.26
779.903	589.3
780.085	681.46
780.267	581.11
780.449	607.73
780.631	642.55
780.812	726.52
780.994	593.4
781.176	587.26
781.358	681.46
781.54	517.62
781.721	540.15
781.903	634.36
782.085	587.26
782.267	611.83
782.448	499.19
782.63	513.53
782.812	562.68
782.993	525.82
783.175	593.4
783.357	538.1
783.538	513.53
783.72	497.14
783.901	601.59
784.083	521.72
784.264	527.86
784.446	570.87
784.627	452.09
784.809	558.58
784.99	460.28
785.172	482.81
785.353	429.56
785.535	484.86
785.716	536.06
785.897	427.51
786.079	513.53
786.26	433.66
786.441	488.95
786.623	402.94
786.804	431.61
786.985	468.47
787.167	421.37
787.348	411.13
787.529	464.38
787.71	421.37
787.891	427.51
788.073	421.37
788.254	427.51
788.435	454.14
788.616	435.71
788.797	415.23
788.978	378.36
789.159	419.32
789.34	435.71
789.522	396.79
789.703	396.79
789.884	388.6
790.065	390.65
790.246	503.29
790.427	353.79
790.607	378.36
790.788	359.93
790.969	321.02
791.15	431.61
791.331	394.75
791.512	364.03
791.693	300.54
791.874	347.64
792.054	396.79
792.235	374.27
792.416	386.55
792.597	333.31
792.778	364.03
792.958	347.64
793.139	325.12
793.32	364.03
793.5	355.83
793.681	364.03
793.862	306.68
794.042	294.4
794.223	306.68
794.404	357.88
794.584	318.97
794.765	357.88
794.945	376.31
795.126	345.59
795.306	409.08
795.487	314.88
795.667	345.59
795.848	345.59
796.028	296.44
796.209	321.02
796.389	345.59
796.57	331.26
796.75	292.35
796.93	304.64
797.111	321.02
797.291	331.26
797.471	355.83
797.652	245.24
797.832	243.2
798.012	222.72
798.192	228.86
798.373	218.62
798.553	259.58
798.733	329.21
798.913	206.33
799.093	222.72
799.274	329.21
799.454	335.35
799.634	265.72
799.814	290.3
799.994	269.82
800.174	296.44
800.354	302.59
800.534	271.87
800.714	267.77
800.894	263.68
801.074	232.96
801.254	255.48
801.434	267.77
801.614	159.23
801.794	165.37
801.974	841.2
802.154	247.29
802.334	224.76
802.514	189.95
802.693	222.72
802.873	232.96
803.053	259.58
803.233	259.58
803.413	214.52
803.592	251.39
803.772	173.57
803.952	165.37
804.131	232.96
804.311	243.2
804.491	255.48
804.67	267.77
804.85	128.51
805.03	194.05
805.209	161.28
805.389	249.34
805.568	261.63
805.748	263.68
805.928	214.52
806.107	257.53
806.287	216.57
806.466	181.76
806.646	255.48
806.825	265.72
807.004	173.57
807.184	181.76
807.363	173.57
807.543	210.43
807.722	167.42
807.901	208.38
808.081	239.1
808.26	189.95
808.439	108.03
808.619	118.27
808.798	185.85
808.977	167.42
809.156	183.81
809.336	144.89
809.515	194.05
809.694	157.18
809.873	177.66
810.052	189.95
810.231	144.89
810.411	134.65
810.59	228.86
810.769	222.72
810.948	153.09
811.127	237.05
811.306	159.23
811.485	118.27
811.664	173.57
811.843	206.33
812.022	181.76
812.201	151.04
812.38	257.53
812.559	198.14
812.737	163.33
812.916	122.37
813.095	169.47
813.274	148.99
813.453	218.62
813.632	241.15
813.811	161.28
813.989	122.37
814.168	140.8
814.347	167.42
814.526	206.33
814.704	200.19
814.883	126.46
815.062	181.76
815.24	247.29
815.419	177.66
815.598	175.61
815.776	103.93
815.955	185.85
816.133	120.32
816.312	126.46
816.49	124.41
816.669	126.46
816.847	83.45
817.026	187.9
817.204	187.9
817.383	134.65
817.561	130.56
817.74	177.66
817.918	99.84
818.097	140.8
818.275	134.65
818.453	198.14
818.632	206.33
818.81	177.66
818.988	142.85
819.167	91.65
819.345	173.57
819.523	69.12
819.701	95.74
819.879	212.48
820.058	128.51
820.236	122.37
820.414	151.04
820.592	89.6
820.77	124.41
820.948	62.98
821.127	77.31
821.305	189.95
821.483	116.22
821.661	95.74
821.839	58.88
822.017	93.69
822.195	165.37
822.373	132.61
822.551	73.21
822.729	192
822.907	103.93
823.085	75.26
823.262	185.85
823.44	128.51
823.618	95.74
823.796	58.88
823.974	159.23
824.152	101.89
824.329	128.51
824.507	120.32
824.685	136.7
824.863	194.05
825.04	114.17
825.218	153.09
825.396	87.55
825.574	134.65
825.751	128.51
825.929	120.32
826.107	85.5
826.284	202.24
826.462	91.65
826.639	161.28
826.817	79.36
826.994	118.27
827.172	71.17
827.349	202.24
827.527	128.51
827.704	108.03
827.882	167.42
828.059	79.36
828.237	85.5
828.414	151.04
828.591	50.69
828.769	120.32
828.946	159.23
829.124	103.93
829.301	50.69
829.478	42.5
829.655	54.78
829.833	62.98
830.01	26.11
830.187	128.51
830.364	40.45
830.542	87.55
830.719	67.07
830.896	134.65
831.073	89.6
831.25	50.69
831.427	159.23
831.604	91.65
831.782	60.93
831.959	126.46
832.136	3.58
832.313	77.31
832.49	95.74
832.667	108.03
832.844	60.93
833.021	110.08
833.198	65.02
833.374	148.99
833.551	19.97
833.728	34.3
833.905	46.59
834.082	58.88
834.259	130.56
834.436	103.93
834.612	34.3
834.789	136.7
834.966	58.88
835.143	67.07
835.319	83.45
835.496	46.59
835.673	134.65
835.85	206.33
836.026	120.32
836.203	99.84
836.38	89.6
836.556	71.17
836.733	77.31
836.909	140.8
837.086	77.31
837.262	52.74
837.439	91.65
837.616	60.93
837.792	89.6
837.968	128.51
838.145	13.82
838.321	120.32
838.498	112.13
838.674	46.59
838.851	11.78
839.027	114.17
839.203	69.12
839.38	50.69
839.556	65.02
839.732	69.12
839.909	58.88
840.085	58.88
840.261	101.89
840.437	9.73
840.614	48.64
840.79	69.12
840.966	54.78
841.142	30.21
841.318	-45.57
841.494	118.27
841.671	138.75
841.847	-2.56
842.023	83.45
842.199	155.13
842.375	95.74
842.551	73.21
842.727	19.97
842.903	161.28
843.079	17.92
843.255	101.89
843.431	5.63
843.607	83.45
843.783	40.45
843.959	116.22
844.134	28.16
844.31	116.22
844.486	77.31
844.662	75.26
844.838	77.31
845.013	110.08
845.189	124.41
845.365	44.54
845.541	48.64
845.716	136.7
845.892	28.16
846.068	46.59
846.244	69.12
846.419	54.78
846.595	34.3
846.77	24.06
846.946	54.78
847.122	56.83
847.297	22.02
847.473	124.41
847.648	58.88
847.824	52.74
847.999	11.78
848.175	-33.28
848.35	3.58
848.526	83.45
848.701	128.51
848.876	46.59
849.052	69.12
849.227	44.54
849.403	101.89
849.578	54.78
849.753	-0.51
849.929	87.55
850.104	52.74
850.279	-10.75
850.454	19.97
850.63	124.41
850.805	69.12
850.98	103.93
851.155	44.54
851.33	112.13
851.505	13.82
851.681	42.5
851.856	13.82
852.031	67.07
852.206	118.27
852.381	28.16
852.556	32.26
852.731	-8.7
852.906	7.68
853.081	60.93
853.256	52.74
853.431	44.54
853.606	77.31
853.781	13.82
853.956	26.11
854.131	108.03
854.305	44.54
854.48	40.45
854.655	-0.51
854.83	22.02
855.005	3.58
855.18	69.12
855.354	118.27
855.529	79.36
855.704	75.26
855.879	36.35
856.053	-0.51
856.228	34.3
856.403	42.5
856.577	32.26
856.752	75.26
856.926	124.41
857.101	13.82
857.276	22.02
857.45	34.3
857.625	71.17
857.799	26.11
857.974	101.89
858.148	50.69
858.323	7.68
858.497	34.3
858.672	22.02
858.846	71.17
859.02	103.93
859.195	13.82
859.369	69.12
859.543	60.93
859.718	19.97
859.892	85.5
860.066	-2.56
860.241	-43.52
860.415	-59.9
860.589	-8.7
860.763	1.54
860.938	22.02
861.112	58.88
861.286	65.02
861.46	79.36
861.634	22.02
861.808	44.54
861.982	13.82
862.157	-20.99
862.331	38.4
862.505	28.16
862.679	67.07
862.853	34.3
863.027	-4.61
863.201	54.78
863.375	19.97
863.549	13.82
863.722	71.17
863.896	112.13
864.07	116.22
864.244	7.68
864.418	87.55
864.592	7.68
864.766	60.93
864.939	7.68
865.113	42.5
865.287	118.27
865.461	5.63
865.634	24.06
865.808	-43.52
865.982	3.58
866.156	11.78
866.329	5.63
866.503	-12.8
866.676	75.26
866.85	95.74
867.024	54.78
867.197	32.26
867.371	-72.19
867.544	36.35
867.718	13.82
867.891	71.17
868.065	13.82
868.238	34.3
868.412	114.17
868.585	-14.85
868.759	73.21
868.932	85.5
869.105	50.69
869.279	-20.99
869.452	-23.04
869.625	-37.38
869.799	22.02
869.972	36.35
870.145	50.69
870.319	22.02
870.492	-47.62
870.665	-53.76
870.838	5.63
871.011	-12.8
871.185	65.02
871.358	-51.71
871.531	30.21
871.704	-41.47
871.877	103.93
872.05	3.58
872.223	1.54
872.396	-0.51
872.569	-25.09
872.742	-35.33
872.915	9.73
873.088	75.26
873.261	13.82
873.434	19.97
873.607	19.97
873.78	28.16
873.953	-4.61
874.126	77.31
874.299	17.92
874.471	11.78
874.644	54.78
874.817	9.73
874.99	3.58
875.163	-20.99
875.335	44.54
875.508	44.54
875.681	-4.61
875.853	-18.94
876.026	7.68
876.199	-37.38
876.371	77.31
876.544	58.88
876.717	50.69
876.889	-31.23
877.062	32.26
877.234	-29.18
877.407	44.54
877.579	-18.94
877.752	13.82
877.924	11.78
878.097	17.92
878.269	-51.71
878.442	-20.99
878.614	67.07
878.786	22.02
878.959	95.74
879.131	9.73
879.303	-55.81
879.476	-10.75
879.648	42.5
879.82	17.92
879.993	34.3
880.165	34.3
880.337	46.59
880.509	44.54
880.681	9.73
880.854	-23.04
881.026	-23.04
881.198	108.03
881.37	-25.09
881.542	36.35
881.714	-12.8
881.886	30.21
882.058	-43.52
882.23	30.21
882.402	-23.04
882.574	26.11
882.746	99.84
882.918	67.07
883.09	-37.38
883.262	58.88
883.434	28.16
883.606	1.54
883.778	58.88
883.95	-4.61
884.122	-55.81
884.293	17.92
884.465	-4.61
884.637	58.88
884.809	-8.7
884.98	67.07
885.152	77.31
885.324	-43.52
885.496	-4.61
885.667	13.82
885.839	1.54
886.011	34.3
886.182	3.58
886.354	42.5
886.525	1.54
886.697	50.69
886.869	-18.94
887.04	-55.81
887.212	69.12
887.383	91.65
887.555	26.11
887.726	75.26
887.897	108.03
888.069	26.11
888.24	71.17
888.412	40.45
888.583	15.87
888.754	19.97
888.926	-43.52
889.097	9.73
889.268	-35.33
889.44	36.35
889.611	5.63
889.782	7.68
889.953	30.21
890.125	140.8
890.296	-10.75
890.467	-12.8
890.638	17.92
890.809	58.88
890.98	46.59
891.151	-6.66
891.323	-43.52
891.494	24.06
891.665	22.02
891.836	-14.85
892.007	-31.23
892.178	-4.61
892.349	71.17
892.52	-43.52
892.691	28.16
892.862	-33.28
893.032	50.69
893.203	-37.38
893.374	22.02
893.545	99.84
893.716	69.12
893.887	42.5
894.057	101.89
894.228	58.88
894.399	-55.81
894.57	19.97
894.74	79.36
894.911	85.5
895.082	30.21
895.253	19.97
895.423	13.82
895.594	-6.66
895.764	-23.04
895.935	-4.61
896.106	-31.23
896.276	-33.28
896.447	36.35
896.617	30.21
896.788	-45.57
896.958	17.92
897.129	26.11
897.299	-12.8
897.47	38.4
897.64	-2.56
897.81	77.31
897.981	9.73
898.151	-14.85
898.322	17.92
898.492	58.88
898.662	15.87
898.832	-23.04
899.003	44.54
899.173	44.54
899.343	-6.66
899.513	-31.23
