Data from USB4F104151__169__14-19-53-140.txt Node

Date: Thu Mar 13 14:19:53 EDT 2025
User: louis
Spectrometer: USB4F10415
Trigger mode: 4
Integration Time (sec): 2.000000E-2
Scans to average: 1
Electric dark correction enabled: true
Nonlinearity correction enabled: false
Boxcar width: 0
XAxis mode: Wavelengths
Number of Pixels in Spectrum: 3648
>>>>>Begin Spectral Data<<<<<
178.204	-200.19
178.424	-200.19
178.644	-200.19
178.864	-118.27
179.084	-120.32
179.304	-3.58
179.524	-13.82
179.744	-9.73
179.964	61.95
180.184	68.09
180.404	-5.63
180.624	25.09
180.844	12.8
181.064	-71.17
181.283	14.85
181.503	-99.84
181.723	20.99
181.943	-24.06
182.163	51.71
182.383	12.8
182.602	-1.54
182.822	59.9
183.042	10.75
183.262	25.09
183.482	23.04
183.701	-22.02
183.921	86.53
184.141	43.52
184.361	4.61
184.58	-5.63
184.8	51.71
185.02	119.29
185.239	86.53
185.459	-11.78
185.679	23.04
185.898	39.42
186.118	18.94
186.338	33.28
186.557	4.61
186.777	55.81
186.997	-3.58
187.216	35.33
187.436	47.62
187.655	51.71
187.875	51.71
188.095	-17.92
188.314	72.19
188.534	59.9
188.753	-46.59
188.973	-48.64
189.192	31.23
189.412	61.95
189.631	23.04
189.851	31.23
190.07	72.19
190.29	18.94
190.509	53.76
190.729	88.57
190.948	86.53
191.168	82.43
191.387	86.53
191.607	-62.98
191.826	76.29
192.045	37.38
192.265	12.8
192.484	39.42
192.704	-34.3
192.923	39.42
193.142	111.1
193.362	20.99
193.581	104.96
193.8	76.29
194.02	59.9
194.239	76.29
194.458	4.61
194.678	59.9
194.897	6.66
195.116	78.33
195.335	20.99
195.555	35.33
195.774	-26.11
195.993	-44.54
196.212	37.38
196.432	-52.74
196.651	51.71
196.87	4.61
197.089	18.94
197.308	94.72
197.528	37.38
197.747	-40.45
197.966	27.14
198.185	27.14
198.404	-75.26
198.623	-65.02
198.842	64
199.062	12.8
199.281	4.61
199.5	25.09
199.719	70.14
199.938	-30.21
200.157	119.29
200.376	59.9
200.595	6.66
200.814	86.53
201.033	84.48
201.252	78.33
201.471	70.14
201.69	94.72
201.909	23.04
202.128	45.57
202.347	23.04
202.566	51.71
202.785	-54.78
203.004	-13.82
203.223	59.9
203.442	20.99
203.661	59.9
203.879	66.05
204.098	18.94
204.317	-5.63
204.536	94.72
204.755	-15.87
204.974	68.09
205.193	-13.82
205.411	133.63
205.63	0.51
205.849	27.14
206.068	14.85
206.287	-30.21
206.505	115.2
206.724	45.57
206.943	0.51
207.162	68.09
207.381	35.33
207.599	20.99
207.818	-69.12
208.037	-7.68
208.255	10.75
208.474	76.29
208.693	18.94
208.911	43.52
209.13	14.85
209.349	-52.74
209.567	-19.97
209.786	59.9
210.005	29.18
210.223	23.04
210.442	-38.4
210.661	59.9
210.879	-17.92
211.098	-54.78
211.316	20.99
211.535	39.42
211.753	27.14
211.972	33.28
212.191	-30.21
212.409	35.33
212.628	-38.4
212.846	59.9
213.065	76.29
213.283	43.52
213.502	-24.06
213.72	92.67
213.938	68.09
214.157	61.95
214.375	43.52
214.594	27.14
214.812	27.14
215.031	23.04
215.249	4.61
215.467	76.29
215.686	35.33
215.904	76.29
216.122	80.38
216.341	55.81
216.559	-13.82
216.778	61.95
216.996	43.52
217.214	78.33
217.432	47.62
217.651	-5.63
217.869	57.86
218.087	18.94
218.306	-17.92
218.524	72.19
218.742	14.85
218.96	43.52
219.179	51.71
219.397	53.76
219.615	18.94
219.833	51.71
220.051	-3.58
220.27	61.95
220.488	59.9
220.706	6.66
220.924	0.51
221.142	18.94
221.36	-28.16
221.578	4.61
221.796	43.52
222.015	35.33
222.233	78.33
222.451	55.81
222.669	4.61
222.887	57.86
223.105	-1.54
223.323	45.57
223.541	-30.21
223.759	-46.59
223.977	12.8
224.195	-3.58
224.413	-40.45
224.631	84.48
224.849	84.48
225.067	29.18
225.285	-9.73
225.503	31.23
225.721	-36.35
225.939	6.66
226.157	29.18
226.375	125.44
226.592	-13.82
226.81	2.56
227.028	59.9
227.246	47.62
227.464	51.71
227.682	49.66
227.9	6.66
228.117	53.76
228.335	18.94
228.553	74.24
228.771	35.33
228.989	47.62
229.206	-13.82
229.424	127.49
229.642	23.04
229.86	33.28
230.077	37.38
230.295	37.38
230.513	-38.4
230.731	10.75
230.948	117.25
231.166	125.44
231.384	-60.93
231.601	76.29
231.819	43.52
232.037	23.04
232.254	-30.21
232.472	74.24
232.689	23.04
232.907	-22.02
233.125	4.61
233.342	18.94
233.56	-15.87
233.777	-24.06
233.995	-9.73
234.213	10.75
234.43	64
234.648	2.56
234.865	23.04
235.083	-17.92
235.3	-9.73
235.518	92.67
235.735	51.71
235.953	61.95
236.17	-1.54
236.388	12.8
236.605	31.23
236.822	20.99
237.04	18.94
237.257	20.99
237.475	-3.58
237.692	100.86
237.909	-19.97
238.127	45.57
238.344	20.99
238.562	10.75
238.779	-71.17
238.996	-32.26
239.214	-28.16
239.431	33.28
239.648	6.66
239.865	18.94
240.083	-26.11
240.3	39.42
240.517	84.48
240.735	4.61
240.952	14.85
241.169	-17.92
241.386	-28.16
241.603	-46.59
241.821	-36.35
242.038	23.04
242.255	72.19
242.472	29.18
242.689	8.7
242.907	61.95
243.124	-1.54
243.341	64
243.558	59.9
243.775	51.71
243.992	23.04
244.209	10.75
244.426	64
244.643	-22.02
244.86	47.62
245.078	31.23
245.295	76.29
245.512	2.56
245.729	2.56
245.946	68.09
246.163	68.09
246.38	117.25
246.597	-5.63
246.814	-28.16
247.031	10.75
247.248	64
247.464	-5.63
247.681	51.71
247.898	66.05
248.115	-5.63
248.332	-13.82
248.549	-9.73
248.766	61.95
248.983	31.23
249.2	100.86
249.417	76.29
249.633	53.76
249.85	-3.58
250.067	-58.88
250.284	29.18
250.501	109.05
250.717	31.23
250.934	64
251.151	121.34
251.368	20.99
251.585	37.38
251.801	-9.73
252.018	-32.26
252.235	-30.21
252.451	0.51
252.668	25.09
252.885	27.14
253.102	-34.3
253.318	51.71
253.535	4.61
253.752	-5.63
253.968	27.14
254.185	-30.21
254.401	-62.98
254.618	-5.63
254.835	18.94
255.051	76.29
255.268	18.94
255.484	35.33
255.701	68.09
255.917	61.95
256.134	4.61
256.351	59.9
256.567	-9.73
256.784	6.66
257	39.42
257.217	53.76
257.433	66.05
257.65	55.81
257.866	12.8
258.082	49.66
258.299	-9.73
258.515	-1.54
258.732	2.56
258.948	-60.93
259.165	59.9
259.381	-15.87
259.597	82.43
259.814	4.61
260.03	39.42
260.246	-22.02
260.463	84.48
260.679	113.15
260.895	39.42
261.112	0.51
261.328	-26.11
261.544	37.38
261.761	102.91
261.977	53.76
262.193	37.38
262.409	88.57
262.626	43.52
262.842	59.9
263.058	6.66
263.274	61.95
263.49	0.51
263.707	76.29
263.923	39.42
264.139	43.52
264.355	-1.54
264.571	66.05
264.787	76.29
265.004	72.19
265.22	8.7
265.436	43.52
265.652	23.04
265.868	92.67
266.084	-22.02
266.3	8.7
266.516	2.56
266.732	43.52
266.948	61.95
267.164	117.25
267.38	27.14
267.596	-1.54
267.812	45.57
268.028	33.28
268.244	-9.73
268.46	51.71
268.676	55.81
268.892	66.05
269.108	27.14
269.324	-52.74
269.54	59.9
269.756	59.9
269.972	-17.92
270.188	-30.21
270.403	76.29
270.619	33.28
270.835	88.57
271.051	66.05
271.267	43.52
271.483	23.04
271.698	29.18
271.914	43.52
272.13	100.86
272.346	74.24
272.562	39.42
272.777	82.43
272.993	4.61
273.209	80.38
273.425	-15.87
273.64	49.66
273.856	68.09
274.072	43.52
274.287	-9.73
274.503	82.43
274.719	84.48
274.934	20.99
275.15	23.04
275.366	78.33
275.581	59.9
275.797	86.53
276.012	33.28
276.228	4.61
276.444	35.33
276.659	39.42
276.875	2.56
277.09	27.14
277.306	35.33
277.521	10.75
277.737	6.66
277.952	43.52
278.168	92.67
278.383	16.9
278.599	14.85
278.814	59.9
279.03	43.52
279.245	61.95
279.461	78.33
279.676	45.57
279.892	27.14
280.107	68.09
280.322	-9.73
280.538	18.94
280.753	-9.73
280.969	68.09
281.184	35.33
281.399	70.14
281.615	-28.16
281.83	-11.78
282.045	35.33
282.26	25.09
282.476	0.51
282.691	66.05
282.906	39.42
283.122	-28.16
283.337	43.52
283.552	92.67
283.767	86.53
283.983	-22.02
284.198	31.23
284.413	76.29
284.628	-13.82
284.843	76.29
285.058	18.94
285.274	-11.78
285.489	-13.82
285.704	141.82
285.919	39.42
286.134	18.94
286.349	35.33
286.564	-13.82
286.779	35.33
286.995	59.9
287.21	104.96
287.425	29.18
287.64	2.56
287.855	-28.16
288.07	10.75
288.285	-13.82
288.5	51.71
288.715	57.86
288.93	35.33
289.145	-11.78
289.36	92.67
289.575	18.94
289.79	23.04
290.004	29.18
290.219	2.56
290.434	61.95
290.649	55.81
290.864	-13.82
291.079	45.57
291.294	78.33
291.509	41.47
291.724	72.19
291.938	12.8
292.153	2.56
292.368	18.94
292.583	12.8
292.798	-22.02
293.012	61.95
293.227	39.42
293.442	-7.68
293.657	-30.21
293.871	-5.63
294.086	29.18
294.301	166.4
294.516	-11.78
294.73	51.71
294.945	84.48
295.16	66.05
295.374	55.81
295.589	35.33
295.804	61.95
296.018	35.33
296.233	68.09
296.447	68.09
296.662	29.18
296.877	64
297.091	25.09
297.306	-28.16
297.52	-38.4
297.735	10.75
297.949	-5.63
298.164	90.62
298.378	-38.4
298.593	-22.02
298.807	-3.58
299.022	127.49
299.236	53.76
299.451	27.14
299.665	14.85
299.88	-50.69
300.094	84.48
300.309	39.42
300.523	10.75
300.737	74.24
300.952	-44.54
301.166	102.91
301.381	55.81
301.595	86.53
301.809	27.14
302.024	-19.97
302.238	2.56
302.452	86.53
302.667	49.66
302.881	43.52
303.095	90.62
303.309	25.09
303.524	109.05
303.738	-38.4
303.952	76.29
304.166	55.81
304.381	-19.97
304.595	100.86
304.809	55.81
305.023	51.71
305.237	-13.82
305.452	4.61
305.666	84.48
305.88	53.76
306.094	4.61
306.308	-3.58
306.522	-36.35
306.736	31.23
306.95	10.75
307.164	68.09
307.379	27.14
307.593	57.86
307.807	51.71
308.021	70.14
308.235	133.63
308.449	-5.63
308.663	2.56
308.877	80.38
309.091	102.91
309.305	2.56
309.519	-19.97
309.733	20.99
309.947	37.38
310.161	14.85
310.374	-28.16
310.588	27.14
310.802	39.42
311.016	-19.97
311.23	20.99
311.444	27.14
311.658	25.09
311.872	94.72
312.085	51.71
312.299	12.8
312.513	-1.54
312.727	51.71
312.941	31.23
313.154	2.56
313.368	78.33
313.582	72.19
313.796	-5.63
314.009	-42.5
314.223	109.05
314.437	-5.63
314.651	84.48
314.864	27.14
315.078	53.76
315.292	20.99
315.505	45.57
315.719	51.71
315.933	102.91
316.146	23.04
316.36	-1.54
316.573	31.23
316.787	27.14
317.001	14.85
317.214	37.38
317.428	78.33
317.641	74.24
317.855	-13.82
318.068	74.24
318.282	59.9
318.495	12.8
318.709	96.77
318.922	100.86
319.136	82.43
319.349	25.09
319.563	90.62
319.776	47.62
319.99	6.66
320.203	55.81
320.417	59.9
320.63	-17.92
320.843	59.9
321.057	92.67
321.27	45.57
321.483	-9.73
321.697	45.57
321.91	-5.63
322.124	74.24
322.337	4.61
322.55	59.9
322.763	-26.11
322.977	53.76
323.19	64
323.403	29.18
323.617	18.94
323.83	59.9
324.043	35.33
324.256	51.71
324.469	-36.35
324.683	92.67
324.896	25.09
325.109	61.95
325.322	35.33
325.535	35.33
325.748	47.62
325.962	51.71
326.175	64
326.388	127.49
326.601	18.94
326.814	68.09
327.027	76.29
327.24	53.76
327.453	35.33
327.666	35.33
327.879	88.57
328.092	64
328.305	18.94
328.518	45.57
328.731	39.42
328.944	-1.54
329.157	20.99
329.37	64
329.583	104.96
329.796	27.14
330.009	-24.06
330.222	-11.78
330.435	53.76
330.648	31.23
330.861	47.62
331.073	51.71
331.286	29.18
331.499	39.42
331.712	88.57
331.925	35.33
332.138	-1.54
332.35	147.97
332.563	57.86
332.776	84.48
332.989	37.38
333.202	-11.78
333.414	109.05
333.627	27.14
333.84	37.38
334.053	14.85
334.265	-5.63
334.478	47.62
334.691	31.23
334.903	20.99
335.116	57.86
335.329	-9.73
335.541	66.05
335.754	10.75
335.966	18.94
336.179	51.71
336.392	90.62
336.604	6.66
336.817	66.05
337.029	2.56
337.242	90.62
337.454	109.05
337.667	51.71
337.88	6.66
338.092	31.23
338.305	51.71
338.517	-42.5
338.729	92.67
338.942	49.66
339.154	47.62
339.367	-17.92
339.579	2.56
339.792	47.62
340.004	84.48
340.217	78.33
340.429	158.21
340.641	-19.97
340.854	39.42
341.066	-11.78
341.278	78.33
341.491	29.18
341.703	29.18
341.915	-32.26
342.128	61.95
342.34	45.57
342.552	-19.97
342.764	27.14
342.977	-24.06
343.189	70.14
343.401	10.75
343.613	4.61
343.826	59.9
344.038	-48.64
344.25	27.14
344.462	10.75
344.674	80.38
344.886	23.04
345.099	92.67
345.311	109.05
345.523	20.99
345.735	-60.93
345.947	10.75
346.159	49.66
346.371	-11.78
346.583	64
346.795	29.18
347.007	-15.87
347.219	109.05
347.431	35.33
347.643	49.66
347.855	14.85
348.067	84.48
348.279	-36.35
348.491	72.19
348.703	55.81
348.915	10.75
349.127	-1.54
349.339	76.29
349.551	55.81
349.763	49.66
349.975	14.85
350.187	78.33
350.399	45.57
350.61	53.76
350.822	33.28
351.034	61.95
351.246	53.76
351.458	78.33
351.669	-58.88
351.881	43.52
352.093	64
352.305	109.05
352.517	117.25
352.728	86.53
352.94	14.85
353.152	55.81
353.363	-22.02
353.575	84.48
353.787	82.43
353.999	76.29
354.21	88.57
354.422	2.56
354.633	51.71
354.845	2.56
355.057	2.56
355.268	41.47
355.48	10.75
355.692	72.19
355.903	-1.54
356.115	51.71
356.326	6.66
356.538	80.38
356.749	27.14
356.961	82.43
357.172	14.85
357.384	-9.73
357.595	115.2
357.807	35.33
358.018	-38.4
358.23	88.57
358.441	41.47
358.653	57.86
358.864	31.23
359.075	-5.63
359.287	107.01
359.498	35.33
359.709	74.24
359.921	129.53
360.132	-26.11
360.344	61.95
360.555	0.51
360.766	92.67
360.977	27.14
361.189	-42.5
361.4	119.29
361.611	59.9
361.823	92.67
362.034	59.9
362.245	43.52
362.456	45.57
362.667	16.9
362.879	51.71
363.09	-15.87
363.301	35.33
363.512	70.14
363.723	37.38
363.935	53.76
364.146	10.75
364.357	27.14
364.568	96.77
364.779	72.19
364.99	61.95
365.201	-5.63
365.412	92.67
365.623	43.52
365.834	43.52
366.045	53.76
366.256	20.99
366.467	98.81
366.678	18.94
366.889	29.18
367.1	23.04
367.311	59.9
367.522	35.33
367.733	-13.82
367.944	76.29
368.155	-1.54
368.366	59.9
368.577	96.77
368.788	47.62
368.999	92.67
369.209	10.75
369.42	100.86
369.631	102.91
369.842	96.77
370.053	2.56
370.264	82.43
370.474	59.9
370.685	12.8
370.896	53.76
371.107	18.94
371.317	59.9
371.528	25.09
371.739	12.8
371.95	88.57
372.16	18.94
372.371	-5.63
372.582	-9.73
372.792	35.33
373.003	55.81
373.214	23.04
373.424	129.53
373.635	14.85
373.846	35.33
374.056	84.48
374.267	27.14
374.477	86.53
374.688	-30.21
374.898	70.14
375.109	-1.54
375.319	-48.64
375.53	64
375.74	123.39
375.951	68.09
376.161	125.44
376.372	61.95
376.582	27.14
376.793	84.48
377.003	29.18
377.214	70.14
377.424	-26.11
377.635	18.94
377.845	16.9
378.055	14.85
378.266	88.57
378.476	-24.06
378.686	-52.74
378.897	109.05
379.107	25.09
379.317	76.29
379.528	84.48
379.738	94.72
379.948	29.18
380.158	86.53
380.369	55.81
380.579	76.29
380.789	-13.82
380.999	135.68
381.21	84.48
381.42	113.15
381.63	-26.11
381.84	27.14
382.05	10.75
382.261	43.52
382.471	35.33
382.681	16.9
382.891	109.05
383.101	39.42
383.311	45.57
383.521	18.94
383.731	-34.3
383.941	64
384.151	2.56
384.361	80.38
384.571	70.14
384.781	109.05
384.991	68.09
385.201	61.95
385.411	57.86
385.621	107.01
385.831	2.56
386.041	49.66
386.251	119.29
386.461	76.29
386.671	35.33
386.881	66.05
387.091	94.72
387.301	104.96
387.511	84.48
387.72	109.05
387.93	80.38
388.14	39.42
388.35	51.71
388.56	68.09
388.769	117.25
388.979	64
389.189	70.14
389.399	-9.73
389.609	61.95
389.818	55.81
390.028	-1.54
390.238	86.53
390.447	88.57
390.657	84.48
390.867	-9.73
391.076	92.67
391.286	35.33
391.496	47.62
391.705	12.8
391.915	68.09
392.125	100.86
392.334	121.34
392.544	45.57
392.753	59.9
392.963	47.62
393.172	35.33
393.382	51.71
393.591	139.77
393.801	92.67
394.01	72.19
394.22	92.67
394.429	18.94
394.639	59.9
394.848	100.86
395.058	68.09
395.267	92.67
395.477	86.53
395.686	119.29
395.895	47.62
396.105	100.86
396.314	154.11
396.524	31.23
396.733	109.05
396.942	127.49
397.152	131.58
397.361	109.05
397.57	70.14
397.78	84.48
397.989	70.14
398.198	141.82
398.407	64
398.617	72.19
398.826	55.81
399.035	117.25
399.244	109.05
399.453	49.66
399.663	121.34
399.872	104.96
400.081	35.33
400.29	78.33
400.499	84.48
400.708	129.53
400.917	117.25
401.127	27.14
401.336	88.57
401.545	160.25
401.754	129.53
401.963	59.9
402.172	35.33
402.381	76.29
402.59	195.07
402.799	117.25
403.008	70.14
403.217	104.96
403.426	111.1
403.635	117.25
403.844	47.62
404.053	78.33
404.262	64
404.471	135.68
404.68	102.91
404.888	152.06
405.097	135.68
405.306	84.48
405.515	121.34
405.724	190.97
405.933	174.59
406.142	170.49
406.35	190.97
406.559	123.39
406.768	164.35
406.977	211.45
407.185	158.21
407.394	242.17
407.603	174.59
407.812	240.12
408.02	168.45
408.229	150.01
408.438	182.78
408.646	227.84
408.855	238.08
409.064	291.32
409.272	162.3
409.481	264.7
409.69	231.93
409.898	205.31
410.107	324.09
410.315	305.66
410.524	313.85
410.733	356.86
410.941	305.66
411.15	387.58
411.358	293.37
411.567	248.32
411.775	416.25
411.984	334.33
412.192	416.25
412.401	365.05
412.609	428.54
412.818	494.07
413.026	489.98
413.234	403.96
413.443	457.21
413.651	528.89
413.86	420.35
414.068	524.79
414.276	559.61
414.485	485.88
414.693	596.47
414.901	543.22
415.11	639.48
415.318	553.46
415.526	602.61
415.734	731.64
415.943	698.87
416.151	743.92
416.359	717.3
416.567	768.5
416.776	803.32
416.984	821.75
417.192	879.09
417.4	899.57
417.608	815.6
417.817	844.28
418.025	1004.02
418.233	1026.54
418.441	1012.21
418.649	981.49
418.857	1104.37
419.065	1200.62
419.273	1194.48
419.481	1194.48
419.689	1290.73
419.897	1288.68
420.105	1296.88
420.313	1300.97
420.521	1327.6
420.729	1452.52
420.937	1487.34
421.145	1608.17
421.353	1569.26
421.561	1667.56
421.769	1767.91
421.977	1774.05
422.185	1812.96
422.393	1954.27
422.601	1898.98
422.809	2071.01
423.017	2050.53
423.224	2017.76
423.432	2093.54
423.64	2169.31
423.848	2453.98
424.056	2214.37
424.263	2419.16
424.471	2507.23
424.679	2552.28
424.887	2607.58
425.094	2656.73
425.302	2791.89
425.51	2795.99
425.718	2990.55
425.925	2992.59
426.133	3027.41
426.341	3217.87
426.548	3402.19
426.756	3377.61
426.964	3492.3
427.171	3598.79
427.379	3688.9
427.586	3805.64
427.794	4016.58
428.001	4090.31
428.209	4243.9
428.417	4073.92
428.624	4516.28
428.832	4495.8
429.039	4397.5
429.247	4495.8
429.454	4923.83
429.662	5077.43
429.869	4821.43
430.076	5249.46
430.284	4960.69
430.491	5333.42
430.699	5458.35
430.906	5570.99
431.114	5642.67
431.321	5880.23
431.528	6037.92
431.736	6441.37
431.943	6601.12
432.15	6369.69
432.358	6451.61
432.565	6818.2
432.772	6820.25
432.979	7149.97
433.187	7453.07
433.394	7309.71
433.601	7833.99
433.808	7928.2
434.016	7772.55
434.223	8206.72
434.43	8589.69
434.637	8518.01
434.844	9023.86
435.052	9066.87
435.259	9199.99
435.466	9062.77
435.673	9064.82
435.88	9664.88
436.087	9988.46
436.294	10062.18
436.501	10002.79
436.708	10047.85
436.915	10377.57
437.122	10914.14
437.329	11053.4
437.537	11311.44
437.743	11405.65
437.95	11151.7
438.157	11987.27
438.364	12360
438.571	12271.94
438.778	12382.53
438.985	13343.03
439.192	13003.07
439.399	13467.95
439.606	13007.16
439.813	13879.6
440.02	14504.23
440.227	14450.98
440.433	14498.08
440.64	14870.81
440.847	14786.85
441.054	15147.29
441.261	15905.04
441.467	15472.92
441.674	16183.56
441.881	16609.54
442.088	16654.59
442.294	16548.1
442.501	16836.86
442.708	17193.21
442.914	18026.73
443.121	18757.86
443.328	18200.81
443.534	19509.46
443.741	18839.78
443.948	18647.27
444.154	20132.04
444.361	19611.86
444.568	19863.76
444.774	20287.69
444.981	20461.77
445.187	20861.12
445.394	21751.99
445.6	21516.47
445.807	23290.01
446.013	22552.74
446.22	23009.44
446.426	23392.41
446.633	23890.07
446.839	24873.09
447.046	23509.15
447.252	25206.91
447.459	25163.9
447.665	25149.57
447.871	25921.65
448.078	27240.54
448.284	25835.64
448.491	26830.95
448.697	27748.44
448.903	27971.67
449.11	28172.37
449.316	27492.44
449.522	28092.5
449.728	29163.59
449.935	28950.6
450.141	29501.5
450.347	29702.2
450.553	29073.48
450.76	29227.07
450.966	30462
451.172	29560.89
451.378	30713.9
451.584	30013.49
451.791	30887.98
451.997	30693.42
452.203	31258.66
452.409	31164.45
452.615	30965.8
452.821	29833.27
453.027	29739.07
453.233	31359.01
453.44	29931.58
453.646	30292.02
453.852	30414.9
454.058	31166.5
454.264	29970.49
454.47	30357.55
454.676	29855.8
454.882	30744.62
455.088	28242
455.294	28858.44
455.5	29134.92
455.705	29438.01
455.911	28344.4
456.117	27891.8
456.323	27285.6
456.529	25800.82
456.735	27088.99
456.941	26456.17
457.147	25864.31
457.352	25057.41
457.558	24584.33
457.764	24828.04
457.97	24606.86
458.176	23926.93
458.381	23789.72
458.587	22823.08
458.793	22943.91
458.999	21565.62
459.204	23021.73
459.41	22589.61
459.616	21164.22
459.821	21313.72
460.027	21098.69
460.233	20779.2
460.438	19656.92
460.644	19581.14
460.85	18665.7
461.055	18882.78
461.261	18430.18
461.466	17160.44
461.672	16912.64
461.878	18092.27
462.083	16552.2
462.289	16435.46
462.494	16208.14
462.7	15458.58
462.905	15116.57
463.111	15497.49
463.316	15399.19
463.522	15198.49
463.727	15313.17
463.932	15296.79
464.138	15317.27
464.343	15372.57
464.549	14887.2
464.754	15135
464.959	15046.94
465.165	15079.71
465.37	14453.03
465.575	13938.99
465.781	14739.74
465.986	14629.15
466.191	14192.94
466.397	13824.3
466.602	13429.04
466.807	13596.98
467.012	13617.46
467.218	13742.38
467.423	13306.16
467.628	13537.59
467.833	13920.56
468.038	13574.45
468.244	13101.37
468.449	13609.26
468.654	13152.57
468.859	13127.99
469.064	13084.98
469.269	12519.74
469.474	12761.41
469.679	12861.76
469.885	12298.56
470.09	12667.2
470.295	12620.1
470.5	12517.7
470.705	12380.48
470.91	12347.72
471.115	12118.34
471.32	12192.07
471.525	11995.46
471.73	11753.8
471.935	11776.33
472.139	11366.74
472.344	11503.95
472.549	11428.18
472.754	11286.87
472.959	11067.74
473.164	10854.75
473.369	10770.78
473.574	10965.34
473.778	10926.43
473.983	10879.32
474.188	10850.65
474.393	10185.06
474.598	10506.59
474.802	10512.74
475.007	10160.48
475.212	10316.13
475.417	9939.3
475.621	10074.47
475.826	9843.05
476.031	9849.19
476.235	9324.91
476.44	9687.4
476.645	9474.42
476.849	9455.98
477.054	9365.87
477.259	9271.67
477.463	9302.39
477.668	9044.34
477.872	9202.04
478.077	8972.66
478.282	8778.11
478.486	8571.26
478.691	8573.31
478.895	8817.02
479.1	8518.01
479.304	8616.32
479.509	8335.74
479.713	8563.07
479.918	8305.03
480.122	8247.68
480.326	8440.19
480.531	8210.82
480.735	8149.38
480.94	8137.09
481.144	8302.98
481.348	7977.35
481.553	8112.52
481.757	7948.68
481.961	8151.43
482.166	8032.65
482.37	8044.93
482.574	7836.04
482.778	8114.56
482.983	8128.9
483.187	8030.6
483.391	7954.82
483.595	8026.5
483.8	7782.79
484.004	7948.68
484.208	8239.49
484.412	8022.41
484.616	8104.32
484.821	7893.38
485.025	7829.9
485.229	8169.86
485.433	7874.95
485.637	7879.05
485.841	7872.9
486.045	7854.47
486.249	8151.43
486.453	7821.7
486.657	7895.43
486.861	7963.01
487.065	7674.25
487.269	7975.3
487.473	7852.42
487.677	8087.94
487.881	8030.6
488.085	7901.58
488.289	8018.31
488.493	7788.94
488.697	7934.34
488.901	8067.46
489.105	7883.14
489.309	7991.69
489.512	8022.41
489.716	8014.21
489.92	7948.68
490.124	7989.64
490.328	8251.78
490.531	8104.32
490.735	8073.6
490.939	8356.22
491.143	8106.37
491.346	8251.78
491.55	8333.7
491.754	8163.72
491.958	8339.84
492.161	8309.12
492.365	8284.55
492.569	8485.25
492.772	8442.24
492.976	8395.14
493.18	8499.58
493.383	8712.57
493.587	8647.04
493.79	8798.59
493.994	8769.91
494.197	8698.24
494.401	8720.76
494.605	8796.54
494.808	8892.79
495.012	8917.37
495.215	8972.66
495.419	9087.35
495.622	9118.07
495.825	8991.09
496.029	9390.45
496.232	9306.48
496.436	9390.45
496.639	9589.1
496.843	9752.94
497.046	9658.73
497.249	9779.56
497.453	9740.65
497.656	10086.76
497.859	10047.85
498.063	10119.53
498.266	10295.65
498.469	10230.12
498.673	10350.95
498.876	10596.7
499.079	10733.92
499.282	10535.26
499.485	10867.03
499.689	10985.82
499.892	11135.32
500.095	11104.6
500.298	11268.44
500.501	11397.46
500.705	11632.97
500.908	11675.98
501.111	11759.95
501.314	11972.94
501.517	11999.56
501.72	12165.45
501.923	12149.06
502.126	12300.61
502.329	12618.05
502.532	12708.16
502.735	12745.02
502.938	13177.14
503.141	12988.73
503.344	13336.88
503.547	13261.11
503.75	13474.1
503.953	13769.01
504.156	13691.18
504.359	13986.09
504.562	14205.22
504.765	14184.74
504.968	14446.88
505.17	14637.34
505.373	14543.14
505.576	14915.87
505.779	14731.55
505.982	14940.44
506.185	15335.7
506.387	15567.12
506.59	15395.09
506.793	15919.37
506.996	15761.68
507.198	16283.91
507.401	16091.4
507.604	16224.52
507.807	16605.44
508.009	16781.57
508.212	16742.66
508.415	16994.56
508.617	17273.08
508.82	17316.09
509.022	17367.29
509.225	17686.77
509.428	17993.97
509.63	17862.9
509.833	17946.86
510.035	18587.88
510.238	18065.64
510.44	18585.83
510.643	18702.56
510.845	19204.31
511.048	19091.68
511.25	19126.49
511.453	19372.25
511.655	20474.06
511.858	19798.23
512.06	20007.12
512.262	20402.38
512.465	20310.22
512.667	20680.9
512.87	20730.05
513.072	20918.46
513.274	21338.3
513.477	21545.14
513.679	21321.91
513.881	21956.78
514.084	21858.48
514.286	22165.68
514.488	22079.66
514.69	22778.02
514.893	22960.29
515.095	22915.23
515.297	23025.82
515.499	23509.15
515.701	23386.27
515.904	23529.62
516.106	23933.07
516.308	24391.82
516.51	24707.21
516.712	24322.19
516.914	24762.5
517.116	25108.61
517.318	25071.75
517.52	25161.86
517.722	25397.37
517.925	26093.68
518.127	26097.78
518.329	26081.39
518.531	26083.44
518.733	26718.31
518.935	26931.3
519.136	27172.96
519.338	26976.36
519.54	27279.46
519.742	27617.37
519.944	27424.86
520.146	28086.36
520.348	28133.46
520.55	28502.09
520.752	28526.67
520.954	29155.4
521.155	28690.51
521.357	29395.01
521.559	29345.86
521.761	29870.14
521.963	29962.29
522.164	30128.18
522.366	30093.36
522.568	30216.24
522.77	30457.9
522.971	30765.1
523.173	30502.96
523.375	30951.46
523.576	30814.25
523.778	30963.75
523.98	31615.01
524.181	31715.36
524.383	31711.26
524.584	32165.91
524.786	31959.06
524.988	31772.7
525.189	32288.79
525.391	32426
525.592	33009.67
525.794	32684.05
525.995	32841.74
526.197	33228.8
526.398	33165.32
526.6	33273.86
526.801	33263.62
527.003	33474.56
527.204	33550.34
527.406	33955.83
527.607	33792
527.808	34293.75
528.01	33607.68
528.211	33810.43
528.412	34564.08
528.614	34293.75
528.815	34621.42
529.016	34766.83
529.218	34275.32
529.419	34691.05
529.62	34699.25
529.822	34586.61
530.023	34858.99
530.224	34752.49
530.425	34627.57
530.626	34535.41
530.828	34404.34
531.029	35086.31
531.23	34904.04
531.431	34971.63
531.632	35000.3
531.833	35067.88
532.035	35330.02
532.236	35264.49
532.437	35543.01
532.638	35076.07
532.839	35383.27
533.04	35477.47
533.241	35121.13
533.442	35469.28
533.643	35284.97
533.844	35606.5
534.045	35086.31
534.246	35370.98
534.447	35825.63
534.648	35510.24
534.849	35825.63
535.05	35407.84
535.251	35573.73
535.451	35373.03
535.652	35375.08
535.853	35139.56
536.054	35469.28
536.255	35522.53
536.456	35332.07
536.657	35559.39
536.857	35416.04
537.058	35252.2
537.259	35661.79
537.46	35647.46
537.66	35684.32
537.861	35753.95
538.062	35293.16
538.263	35672.03
538.463	35254.25
538.664	35237.86
538.865	35581.92
539.065	35770.33
539.266	35330.02
539.466	35829.73
539.667	34856.94
539.868	35778.53
540.068	35162.09
540.269	35557.35
540.469	35702.75
540.67	35182.57
540.87	35596.26
541.071	35391.46
541.271	35604.45
541.472	35506.15
541.672	35428.32
541.873	35063.78
542.073	34922.48
542.274	36089.82
542.474	35053.55
542.675	35028.97
542.875	35680.22
543.075	35164.14
543.276	34574.32
543.476	35293.16
543.676	34967.53
543.877	35276.77
544.077	35157.99
544.277	35092.46
544.478	35131.37
544.678	35274.73
544.878	34973.67
545.078	34834.41
545.279	35026.92
545.479	35211.24
545.679	35188.71
545.879	35061.74
546.079	35069.93
546.28	34858.99
546.48	34906.09
546.68	34932.71
546.88	35436.52
547.08	35244.01
547.28	35092.46
547.48	34772.97
547.68	35049.45
547.88	34758.64
548.081	35196.9
548.281	35178.47
548.481	34562.03
548.681	34775.02
548.881	35063.78
549.081	35129.32
549.28	34625.52
549.48	34854.89
549.68	35086.31
549.88	35192.81
550.08	34680.81
550.28	34983.91
550.48	35031.02
550.68	35280.87
550.88	34781.17
551.08	34920.43
551.279	34748.4
551.479	34875.37
551.679	34879.47
551.879	34856.94
552.079	34938.86
552.278	34619.38
552.478	34629.62
552.678	34965.48
552.878	34723.82
553.077	34863.08
553.277	34322.42
553.477	35112.94
553.676	34535.41
553.876	34732.01
554.076	34299.89
554.275	34443.25
554.475	34111.48
554.674	34496.5
554.874	34994.15
555.074	34441.2
555.273	34629.62
555.473	34684.91
555.672	34351.09
555.872	34572.27
556.071	34611.18
556.271	34502.64
556.47	34357.24
556.67	34271.22
556.869	34084.86
557.068	34353.14
557.268	34293.75
557.467	34209.78
557.667	33841.15
557.866	34095.1
558.065	34215.93
558.265	34070.52
558.464	33675.26
558.663	34291.7
558.863	33953.79
559.062	34248.69
559.261	33257.48
559.461	34037.75
559.66	33931.26
559.859	33902.59
560.058	33757.18
560.258	33708.03
560.457	33556.48
560.656	33906.68
560.855	33382.4
561.054	33820.67
561.253	33355.78
561.453	33808.38
561.652	33599.49
561.851	33576.96
562.05	33464.32
562.249	33171.46
562.448	33560.58
562.647	33124.36
562.846	33306.63
563.045	33583.1
563.244	32917.51
563.443	33374.21
563.642	32770.06
563.841	32948.23
564.04	32819.21
564.239	33038.34
564.438	32968.71
564.637	32976.9
564.836	32491.54
565.035	32262.16
565.234	32430.1
565.432	32440.34
565.631	32237.59
565.83	32571.41
566.029	32247.83
566.228	31909.91
566.427	32426
566.625	32245.78
566.824	31893.53
567.023	32098.33
567.222	31334.43
567.42	32380.95
567.619	31801.37
567.818	31942.68
568.016	31879.19
568.215	31932.44
568.414	31334.43
568.612	31803.42
568.811	31311.91
569.01	31627.29
569.208	31426.59
569.407	31533.09
569.605	30826.54
569.804	31176.74
570.002	30832.68
570.201	31260.71
570.4	30885.93
570.598	31006.76
570.797	30982.18
570.995	30941.22
571.193	30722.09
571.392	31000.61
571.59	30435.38
571.789	30447.66
571.987	30711.85
572.186	30468.14
572.384	30322.74
572.582	30494.77
572.781	30394.42
572.979	30064.69
573.177	30414.9
573.376	30279.73
573.574	29775.93
573.772	30228.53
573.971	29833.27
574.169	29706.3
574.367	29571.13
574.565	29876.28
574.763	29464.64
574.962	29511.74
575.16	29087.81
575.358	29575.23
575.556	28999.75
575.754	29841.46
575.952	29313.09
576.151	29505.6
576.349	28969.03
576.547	29024.33
576.745	28682.31
576.943	29128.77
577.141	28885.06
577.339	29012.04
577.537	28840.01
577.735	28657.74
577.933	28639.31
578.131	28403.79
578.329	28471.37
578.527	28127.31
578.725	28325.97
578.923	28117.07
579.121	28244.05
579.319	28248.14
579.516	28225.62
579.714	28029.01
579.912	27912.28
580.11	27828.31
580.308	27713.63
580.506	27983.96
580.704	27273.31
580.901	27955.29
581.099	27838.55
581.297	27541.6
581.495	27498.59
581.692	27437.15
581.89	27304.03
582.088	27580.51
582.285	27195.49
582.483	27021.41
582.681	27199.58
582.878	27078.75
583.076	26529.9
583.274	26927.21
583.471	26341.49
583.669	26493.04
583.866	26626.15
584.064	26417.26
584.262	26273.9
584.459	27009.12
584.657	26425.45
584.854	26609.77
585.052	25907.32
585.249	26359.92
585.447	26179.7
585.644	26058.87
585.841	25849.97
586.039	26089.59
586.236	25899.12
586.434	26304.62
586.631	25714.81
586.828	25624.7
587.026	25862.26
587.223	25751.67
587.42	25282.69
587.618	25374.84
587.815	25266.3
588.012	25174.14
588.21	25176.19
588.407	25522.3
588.604	25061.51
588.801	25182.34
588.999	24912
589.196	25090.18
589.393	24516.75
589.59	24725.64
589.787	24656.01
589.984	24219.79
590.182	24445.07
590.379	24594.57
590.576	24541.32
590.773	24320.14
590.97	24330.38
591.167	24426.64
591.364	24137.87
591.561	24369.29
591.758	24117.39
591.955	23672.98
592.152	24160.4
592.349	23621.78
592.546	23666.84
592.743	23900.31
592.94	23627.93
593.137	23802
593.334	23492.76
593.531	23136.41
593.727	23482.52
593.924	23330.97
594.121	22761.64
594.318	23236.77
594.515	22741.16
594.712	23156.89
594.908	22966.43
595.105	22814.88
595.302	22450.35
595.499	22872.23
595.696	22665.38
595.892	22511.78
596.089	22560.94
596.286	22515.88
596.482	22450.35
596.679	22491.3
596.876	22460.59
597.072	22194.35
597.269	22393
597.466	21907.63
597.662	22204.59
597.859	21950.64
598.055	22243.5
598.252	22063.28
598.448	21819.57
598.645	21821.62
598.841	21608.63
599.038	21952.69
599.234	21698.74
599.431	21594.29
599.627	21369.02
599.824	21698.74
600.02	21139.65
600.217	21412.03
600.413	21250.24
600.609	21252.28
600.806	20897.99
601.002	20916.42
601.198	20816.07
601.395	20938.94
601.591	20973.76
601.787	20940.99
601.984	20783.3
602.18	20842.69
602.376	20502.73
602.572	20738.24
602.769	20592.84
602.965	20367.56
603.161	20478.15
603.357	20179.15
603.553	20357.32
603.75	20279.5
603.946	20150.48
604.142	20195.53
604.338	20244.68
604.534	20162.76
604.73	19636.44
604.926	19828.95
605.122	19982.54
605.318	19603.67
605.514	19527.89
605.71	19687.64
605.906	19933.39
606.102	19673.3
606.298	19642.58
606.494	19636.44
606.69	19427.54
606.886	19495.13
607.082	19036.38
607.278	19349.72
607.474	19071.2
607.67	19144.92
607.866	18972.89
608.062	19212.51
608.257	19015.9
608.453	19089.63
608.649	19269.85
608.845	19001.57
609.041	18974.94
609.236	18968.8
609.432	18952.41
609.628	18962.65
609.824	18829.54
610.019	18694.37
610.215	18665.7
610.411	18800.87
610.606	18397.42
610.802	18733.28
610.998	18802.91
611.193	18794.72
611.389	18297.06
611.584	18557.16
611.78	18254.06
611.976	18417.89
612.171	18565.35
612.367	18626.79
612.562	18221.29
612.758	17916.14
612.953	17948.91
613.149	18331.88
613.344	17834.22
613.539	18239.72
613.735	17975.53
613.93	18053.36
614.126	17797.36
614.321	18231.53
614.517	18020.59
614.712	18188.52
614.907	17805.55
615.103	18106.6
615.298	17973.49
615.493	17959.15
615.688	17559.8
615.884	17746.16
616.079	17635.57
616.274	17885.42
616.47	17785.07
616.665	17527.03
616.86	17545.46
617.055	17596.66
617.25	17256.7
617.445	17797.36
617.641	17338.62
617.836	17633.52
618.031	17127.67
618.226	17361.14
618.421	17035.52
618.616	16961.79
618.811	16896.25
619.006	16931.07
619.201	16853.25
619.396	17088.76
619.591	16742.66
619.786	16838.91
619.981	16578.82
620.176	16767.23
620.371	16533.76
620.566	16521.48
620.761	16380.17
620.956	16548.1
621.151	16285.96
621.346	16425.22
621.541	15923.47
621.735	16161.03
621.93	15884.56
622.125	16167.18
622.32	15780.11
622.515	16152.84
622.709	15716.62
622.904	15718.67
623.099	15837.45
623.294	15503.64
623.488	15280.41
623.683	15479.06
623.878	15079.71
624.072	15202.58
624.267	15309.08
624.462	15192.34
624.656	14995.74
624.851	15051.03
625.046	14852.38
625.24	14768.41
625.435	14725.41
625.629	14758.17
625.824	14473.51
626.018	14412.07
626.213	14346.53
626.407	14246.18
626.602	14250.28
626.796	14235.94
626.991	13977.9
627.185	14045.48
627.38	13908.27
627.574	13703.47
627.768	13623.6
627.963	13613.36
628.157	13574.45
628.352	13691.18
628.546	13209.91
628.74	13478.19
628.935	13449.52
629.129	13429.04
629.323	13087.03
629.517	13242.68
629.712	13058.36
629.906	13154.62
630.1	12716.35
630.294	12896.57
630.489	12880.19
630.683	12919.1
630.877	12534.08
631.071	12570.94
631.265	12429.63
631.459	12327.24
631.653	12233.03
631.848	12343.62
632.042	12323.14
632.236	12210.5
632.43	12017.99
632.624	12101.96
632.818	12120.39
633.012	11729.23
633.206	11987.27
633.4	11938.12
633.594	11747.66
633.788	11950.41
633.982	11684.17
634.176	11817.29
634.369	11563.34
634.563	11624.78
634.757	11522.38
634.951	11440.47
635.145	11250
635.339	11387.22
635.533	11131.22
635.726	11028.82
635.92	11135.32
636.114	11002.2
636.308	11131.22
636.501	11237.72
636.695	10846.55
636.889	10801.5
637.083	10735.96
637.276	10766.68
637.47	10594.65
637.664	10631.52
637.857	10695
638.051	10484.06
638.244	10385.76
638.438	10377.57
638.632	10355.04
638.825	10447.2
639.019	10307.94
639.212	10068.33
639.406	10180.96
639.599	10137.96
639.793	10273.12
639.986	9881.96
640.18	9836.91
640.373	9875.82
640.567	9597.29
640.76	9935.21
640.954	9681.26
641.147	9517.42
641.34	9453.94
641.534	9478.51
641.727	9423.22
641.92	9462.13
642.114	9591.15
642.307	9343.35
642.5	9359.73
642.694	9128.31
642.887	9357.68
643.08	9150.84
643.273	9267.57
643.467	9054.58
643.66	8931.7
643.853	8874.36
644.046	8817.02
644.239	8976.76
644.432	8808.83
644.626	8771.96
644.819	8587.64
645.012	8587.64
645.205	8735.1
645.398	8755.58
645.591	8571.26
645.784	8663.42
645.977	8235.39
646.17	8477.05
646.363	8325.5
646.556	8216.96
646.749	8444.29
646.942	8309.12
647.135	8399.23
647.328	8202.63
647.521	8102.28
647.714	8139.14
647.907	8167.81
648.099	8092.04
648.292	7917.96
648.485	7877
648.678	7938.44
648.871	7760.27
649.064	7602.57
649.256	7776.65
649.449	7772.55
649.642	7698.83
649.835	7729.55
650.027	7592.33
650.22	7504.27
650.413	7608.72
650.605	7559.56
650.798	7311.76
650.991	7440.78
651.183	7434.64
651.376	7430.54
651.568	7379.34
651.761	7246.23
651.954	7223.7
652.146	7217.55
652.339	7274.9
652.531	7221.65
652.724	6912.41
652.916	6945.17
653.109	6875.54
653.301	6936.98
653.494	7135.64
653.686	6906.26
653.879	6902.17
654.071	6887.83
654.263	6728.09
654.456	6822.3
654.648	6900.12
654.84	6658.46
655.033	6648.22
655.225	6556.06
655.417	6754.71
655.61	6541.72
655.802	6689.18
655.994	6574.49
656.186	6523.29
656.379	6488.48
656.571	6521.24
656.763	6359.45
656.955	6392.22
657.148	6427.04
657.34	6336.93
657.532	6230.43
657.724	6125.99
657.916	6240.67
658.108	6076.84
658.3	6031.78
658.492	6199.71
658.684	6136.23
658.876	6197.67
659.068	5943.72
659.26	5863.85
659.452	6103.46
659.644	5822.89
659.836	5861.8
660.028	6007.2
660.22	5790.12
660.412	5810.6
660.604	5618.09
660.796	5697.96
660.988	5607.85
661.18	5495.21
661.372	5745.06
661.563	5630.38
661.755	5409.2
661.947	5478.83
662.139	5527.98
662.331	5499.31
662.522	5476.78
662.714	5491.12
662.906	5441.96
663.097	5284.27
663.289	5462.44
663.481	5472.68
663.673	5151.15
663.864	5271.98
664.056	5202.35
664.247	5294.51
664.439	5278.13
664.631	5290.42
664.822	5188.02
665.014	5196.21
665.205	5071.28
665.397	5087.67
665.588	5048.75
665.78	4960.69
665.971	5054.9
666.163	5097.91
666.354	4905.4
666.546	4899.25
666.737	4925.88
666.929	4878.77
667.12	5018.04
667.311	4860.34
667.503	4940.21
667.694	4948.4
667.885	4854.2
668.077	4827.57
668.268	4817.33
668.459	4665.78
668.651	4678.07
668.842	4766.14
669.033	4745.66
669.224	4747.7
669.416	4778.42
669.607	4602.3
669.798	4569.53
669.989	4620.73
670.18	4602.3
670.371	4487.61
670.563	4559.29
670.754	4430.27
670.945	4428.22
671.136	4497.85
671.327	4458.94
671.518	4401.6
671.709	4616.63
671.9	4368.83
672.091	4458.94
672.282	4356.54
672.473	4268.48
672.664	4383.17
672.855	4336.06
673.046	4270.53
673.237	4286.91
673.428	4082.11
673.619	4239.81
673.809	4174.27
674	4329.92
674.191	4245.95
674.382	4161.98
674.573	4188.61
674.764	4207.04
674.954	4245.95
675.145	4041.15
675.336	4168.13
675.527	4295.1
675.717	4164.03
675.908	4037.06
676.099	4125.12
676.289	4032.96
676.48	3955.14
676.671	4094.4
676.861	4051.39
677.052	4000.19
677.243	3852.74
677.433	4035.01
677.624	4166.08
677.814	3969.48
678.005	4078.02
678.195	3918.28
678.386	4014.53
678.576	3887.56
678.767	3942.85
678.957	3965.38
679.148	3903.94
679.338	3920.32
679.529	3905.99
679.719	3932.61
679.909	4004.29
680.1	3740.1
680.29	3994.05
680.481	3746.25
680.671	3819.97
680.861	3895.75
681.052	3975.62
681.242	3828.17
681.432	3772.87
681.622	3815.88
681.813	3787.21
682.003	3764.68
682.193	3834.31
682.383	3801.54
682.573	3791.3
682.764	3760.58
682.954	3760.58
683.144	3713.48
683.334	3664.33
683.524	3713.48
683.714	3693
683.904	3635.66
684.094	3738.05
684.284	3559.88
684.474	3639.75
684.664	3660.23
684.854	3733.96
685.044	3600.84
685.234	3598.79
685.424	3656.14
685.614	3527.11
685.804	3647.94
685.994	3647.94
686.184	3551.69
686.374	3598.79
686.564	3654.09
686.753	3654.09
686.943	3447.24
687.133	3455.44
687.323	3508.68
687.513	3504.59
687.702	3443.15
687.892	3570.12
688.082	3406.28
688.272	3451.34
688.461	3404.24
688.651	3365.32
688.841	3287.5
689.03	3340.75
689.22	3381.71
689.41	3326.41
689.599	3166.67
689.789	3314.13
689.979	3269.07
690.168	3226.06
690.358	3340.75
690.547	3303.89
690.737	3224.01
690.926	3215.82
691.116	3088.85
691.305	3238.35
691.495	3164.62
691.684	3051.99
691.874	3185.1
692.063	3183.06
692.252	3168.72
692.442	3103.18
692.631	2978.26
692.82	3043.79
693.01	3115.47
693.199	3076.56
693.388	3101.14
693.578	2896.34
693.767	3008.98
693.956	2961.87
694.146	2902.48
694.335	2957.78
694.524	2929.11
694.713	2834.9
694.902	2886.1
695.092	3043.79
695.281	2781.65
695.47	3000.79
695.659	2861.52
695.848	2939.35
696.037	2845.14
696.226	2898.39
696.415	2832.85
696.604	2746.84
696.793	2820.56
696.982	2908.63
697.171	2857.43
697.36	2961.87
697.549	2623.96
697.738	2752.98
697.927	2730.45
698.116	2730.45
698.305	2853.33
698.494	2816.47
698.683	2757.08
698.872	2689.49
699.061	2755.03
699.25	2660.82
699.438	2775.51
699.627	2644.44
699.816	2726.36
700.005	2587.1
700.193	2769.37
700.382	2722.26
700.571	2697.69
700.76	2771.41
700.948	2632.15
701.137	2699.73
701.326	2705.88
701.514	2748.89
701.703	2585.05
701.892	2630.1
702.08	2623.96
702.269	2697.69
702.457	2542.04
702.646	2601.43
702.834	2558.42
703.023	2626.01
703.212	2613.72
703.4	2632.15
703.589	2671.06
703.777	2654.68
703.965	2664.92
704.154	2617.82
704.342	2599.38
704.531	2652.63
704.719	2609.62
704.907	2642.39
705.096	2593.24
705.284	2685.4
705.472	2626.01
705.661	2566.62
705.849	2591.19
706.037	2527.71
706.226	2640.34
706.414	2585.05
706.602	2558.42
706.79	2587.1
706.979	2603.48
707.167	2550.23
707.355	2621.91
707.543	2486.75
707.731	2558.42
707.919	2542.04
708.107	2542.04
708.296	2525.66
708.484	2539.99
708.672	2361.82
708.86	2376.16
709.048	2634.2
709.236	2531.8
709.424	2429.4
709.612	2406.88
709.8	2552.28
709.988	2570.71
710.176	2472.41
710.364	2478.55
710.551	2535.9
710.739	2421.21
710.927	2560.47
711.115	2447.83
711.303	2537.95
711.491	2435.55
711.679	2468.31
711.866	2525.66
712.054	2456.03
712.242	2474.46
712.43	2478.55
712.617	2447.83
712.805	2509.27
712.993	2437.59
713.181	2427.35
713.368	2437.59
713.556	2464.22
713.744	2433.5
713.931	2492.89
714.119	2470.36
714.306	2343.39
714.494	2419.16
714.682	2415.07
714.869	2437.59
715.057	2521.56
715.244	2259.42
715.432	2453.98
715.619	2511.32
715.807	2535.9
715.994	2427.35
716.182	2429.4
716.369	2439.64
716.556	2527.71
716.744	2382.3
716.931	2421.21
717.119	2447.83
717.306	2474.46
717.493	2435.55
717.681	2361.82
717.868	2394.59
718.055	2337.24
718.242	2494.94
718.43	2456.03
718.617	2472.41
718.804	2435.55
718.991	2451.93
719.179	2419.16
719.366	2496.99
719.553	2460.12
719.74	2427.35
719.927	2394.59
720.114	2480.6
720.301	2372.06
720.488	2402.78
720.676	2449.88
720.863	2345.44
721.05	2396.64
721.237	2345.44
721.424	2499.03
721.611	2370.01
721.798	2324.96
721.985	2261.47
722.172	2357.72
722.358	2370.01
722.545	2410.97
722.732	2290.14
722.919	2449.88
723.106	2353.63
723.293	2361.82
723.48	2435.55
723.667	2429.4
723.853	2308.57
724.04	2374.11
724.227	2320.86
724.414	2374.11
724.6	2449.88
724.787	2378.2
724.974	2370.01
725.161	2370.01
725.347	2439.64
725.534	2286.05
725.72	2435.55
725.907	2339.29
726.094	2378.2
726.28	2269.66
726.467	2404.83
726.653	2337.24
726.84	2402.78
727.027	2453.98
727.213	2281.95
727.4	2329.05
727.586	2423.26
727.773	2347.48
727.959	2361.82
728.145	2286.05
728.332	2333.15
728.518	2370.01
728.705	2419.16
728.891	2353.63
729.077	2337.24
729.264	2335.2
729.45	2410.97
729.636	2378.2
729.823	2404.83
730.009	2460.12
730.195	2478.55
730.382	2374.11
730.568	2347.48
730.754	2284
730.94	2337.24
731.126	2480.6
731.313	2365.92
731.499	2298.33
731.685	2419.16
731.871	2277.85
732.057	2318.81
732.243	2357.72
732.429	2345.44
732.615	2279.9
732.801	2296.28
732.987	2370.01
733.173	2339.29
733.359	2353.63
733.545	2320.86
733.731	2273.76
733.917	2343.39
734.103	2357.72
734.289	2382.3
734.475	2302.43
734.661	2445.79
734.847	2404.83
735.033	2279.9
735.219	2232.8
735.404	2329.05
735.59	2359.77
735.776	2296.28
735.962	2218.46
736.148	2353.63
736.333	2302.43
736.519	2288.09
736.705	2284
736.89	2214.37
737.076	2243.04
737.262	2136.54
737.447	2302.43
737.633	2329.05
737.819	2249.18
738.004	2238.94
738.19	2339.29
738.375	2243.04
738.561	2376.16
738.747	2296.28
738.932	2267.61
739.118	2361.82
739.303	2206.17
739.489	2255.33
739.674	2206.17
739.859	2197.98
740.045	2271.71
740.23	2183.65
740.416	2197.98
740.601	2167.26
740.786	2208.22
740.972	2169.31
741.157	2167.26
741.342	2163.17
741.528	2154.98
741.713	2306.52
741.898	2167.26
742.084	2183.65
742.269	2140.64
742.454	2253.28
742.639	2169.31
742.824	2214.37
743.01	2060.77
743.195	2220.51
743.38	2157.02
743.565	2101.73
743.75	2036.19
743.935	2062.82
744.12	2099.68
744.305	2003.43
744.49	2122.21
744.675	1968.61
744.86	2011.62
745.045	2066.91
745.23	1989.09
745.415	1919.46
745.6	2071.01
745.785	1995.23
745.97	1993.19
746.155	2038.24
746.34	1997.28
746.525	1964.51
746.71	2009.57
746.895	1880.55
747.079	1935.84
747.264	1763.81
747.449	1944.03
747.634	1862.12
747.819	1939.94
748.003	1763.81
748.188	1800.68
748.373	1812.96
748.557	1782.24
748.742	1894.88
748.927	1747.43
749.111	1804.77
749.296	1835.49
749.481	1853.92
749.665	1653.22
749.85	1788.39
750.034	1757.67
750.219	1706.47
750.404	1675.75
750.588	1626.6
750.773	1673.7
750.957	1722.85
751.141	1700.33
751.326	1645.03
751.51	1636.84
751.695	1608.17
751.879	1718.76
752.064	1624.55
752.248	1477.1
752.432	1577.45
752.617	1608.17
752.801	1620.46
752.985	1661.41
753.17	1538.54
753.354	1507.82
753.538	1585.64
753.722	1446.38
753.907	1464.81
754.091	1530.34
754.275	1507.82
754.459	1460.71
754.643	1497.58
754.828	1356.27
755.012	1391.08
755.196	1405.42
755.38	1364.46
755.564	1374.7
755.748	1333.74
755.932	1427.95
756.116	1364.46
756.3	1374.7
756.484	1296.88
756.668	1313.26
756.852	1290.73
757.036	1266.16
757.22	1331.69
757.404	1309.16
757.588	1214.96
757.772	1284.59
757.956	1378.79
758.14	1235.44
758.323	1178.09
758.507	1348.08
758.691	1239.53
758.875	1237.49
759.059	1233.39
759.242	1280.49
759.426	1198.57
759.61	1190.38
759.794	1163.76
759.977	1194.48
760.161	1352.17
760.345	1141.23
760.528	1184.24
760.712	1206.77
760.895	1067.5
761.079	1073.65
761.263	1049.07
761.446	1219.05
761.63	1100.27
761.813	1108.46
761.997	1047.02
762.18	1036.78
762.364	1081.84
762.547	1065.46
762.731	1075.7
762.914	1008.11
763.098	989.68
763.281	1055.22
763.464	1065.46
763.648	1139.18
763.831	1083.89
764.015	1044.98
764.198	1094.13
764.381	1012.21
764.564	1059.31
764.748	1073.65
764.931	1106.42
765.114	1026.54
765.297	1055.22
765.481	858.61
765.664	989.68
765.847	915.95
766.03	1020.4
766.213	936.43
766.397	971.25
766.58	928.24
766.763	922.1
766.946	854.51
767.129	952.82
767.312	936.43
767.495	938.48
767.678	952.82
767.861	1004.02
768.044	829.94
768.227	920.05
768.41	860.66
768.593	895.47
768.776	909.81
768.959	846.32
769.142	952.82
769.324	891.38
769.507	911.86
769.69	911.86
769.873	850.42
770.056	938.48
770.239	872.95
770.421	883.19
770.604	815.6
770.787	874.99
770.97	846.32
771.152	975.35
771.335	864.75
771.518	870.9
771.7	879.09
771.883	782.84
772.066	852.47
772.248	797.17
772.431	868.85
772.613	901.62
772.796	879.09
772.978	766.45
773.161	799.22
773.343	815.6
773.526	756.21
773.708	782.84
773.891	784.88
774.073	778.74
774.256	743.92
774.438	739.83
774.621	834.04
774.803	748.02
774.985	680.44
775.168	780.79
775.35	629.24
775.532	748.02
775.715	694.77
775.897	764.4
776.079	754.16
776.261	676.34
776.444	707.06
776.626	670.2
776.808	715.25
776.99	662.01
777.173	672.25
777.355	674.29
777.537	612.85
777.719	612.85
777.901	643.57
778.083	594.42
778.265	645.62
778.447	616.95
778.629	602.61
778.811	575.99
778.993	510.46
779.175	723.44
779.357	584.18
779.539	578.04
779.721	621.05
779.903	629.24
780.085	584.18
780.267	553.46
780.449	541.18
780.631	621.05
780.812	635.38
780.994	578.04
781.176	518.65
781.358	584.18
781.54	537.08
781.721	510.46
781.903	553.46
782.085	504.31
782.267	539.13
782.448	479.74
782.63	487.93
782.812	487.93
782.993	492.02
783.175	479.74
783.357	547.32
783.538	553.46
783.72	444.92
783.901	453.11
784.083	571.9
784.264	512.5
784.446	412.15
784.627	496.12
784.809	399.87
784.99	453.11
785.172	506.36
785.353	363
785.535	440.83
785.716	463.35
785.897	383.48
786.079	512.5
786.26	453.11
786.441	449.02
786.623	461.3
786.804	440.83
786.985	389.63
787.167	387.58
787.348	414.2
787.529	393.72
787.71	461.3
787.891	391.67
788.073	340.47
788.254	395.77
788.435	426.49
788.616	393.72
788.797	346.62
788.978	373.24
789.159	330.23
789.34	358.91
789.522	377.34
789.703	412.15
789.884	432.63
790.065	387.58
790.246	344.57
790.427	291.32
790.607	307.71
790.788	453.11
790.969	371.19
791.15	379.39
791.331	324.09
791.512	412.15
791.693	348.67
791.874	272.89
792.054	363
792.235	332.28
792.416	315.9
792.597	317.95
792.778	305.66
792.958	348.67
793.139	330.23
793.32	322.04
793.5	276.99
793.681	313.85
793.862	363
794.042	342.52
794.223	256.51
794.404	281.08
794.584	281.08
794.765	221.69
794.945	266.75
795.126	354.81
795.306	348.67
795.487	313.85
795.667	305.66
795.848	313.85
796.028	342.52
796.209	276.99
796.389	281.08
796.57	338.43
796.75	233.98
796.93	322.04
797.111	326.14
797.291	322.04
797.471	250.36
797.652	289.28
797.832	256.51
798.012	274.94
798.192	223.74
798.373	160.25
798.553	274.94
798.733	215.55
798.913	215.55
799.093	281.08
799.274	225.79
799.454	256.51
799.634	373.24
799.814	305.66
799.994	246.27
800.174	236.03
800.354	217.6
800.534	201.21
800.714	219.64
800.894	258.56
801.074	203.26
801.254	207.36
801.434	244.22
801.614	223.74
801.794	143.87
801.974	784.88
802.154	223.74
802.334	217.6
802.514	141.82
802.693	256.51
802.873	195.07
803.053	170.49
803.233	268.8
803.413	223.74
803.592	162.3
803.772	264.7
803.952	190.97
804.131	123.39
804.311	250.36
804.491	260.6
804.67	174.59
804.85	215.55
805.03	168.45
805.209	236.03
805.389	137.73
805.568	143.87
805.748	184.83
805.928	170.49
806.107	182.78
806.287	219.64
806.466	266.75
806.646	168.45
806.825	121.34
807.004	150.01
807.184	193.02
807.363	207.36
807.543	193.02
807.722	156.16
807.901	199.16
808.081	225.79
808.26	195.07
808.439	244.22
808.619	182.78
808.798	117.25
808.977	252.41
809.156	152.06
809.336	160.25
809.515	233.98
809.694	199.16
809.873	166.4
810.052	143.87
810.231	256.51
810.411	256.51
810.59	170.49
810.769	137.73
810.948	248.32
811.127	107.01
811.306	197.12
811.485	125.44
811.664	127.49
811.843	166.4
812.022	209.4
812.201	193.02
812.38	219.64
812.559	141.82
812.737	162.3
812.916	156.16
813.095	145.92
813.274	178.69
813.453	160.25
813.632	160.25
813.811	143.87
813.989	129.53
814.168	182.78
814.347	166.4
814.526	125.44
814.704	207.36
814.883	219.64
815.062	166.4
815.24	182.78
815.419	113.15
815.598	152.06
815.776	170.49
815.955	170.49
816.133	117.25
816.312	96.77
816.49	109.05
816.669	92.67
816.847	94.72
817.026	190.97
817.204	131.58
817.383	125.44
817.561	113.15
817.74	129.53
817.918	117.25
818.097	104.96
818.275	223.74
818.453	154.11
818.632	139.77
818.81	100.86
818.988	45.57
819.167	100.86
819.345	158.21
819.523	145.92
819.701	55.81
819.879	133.63
820.058	102.91
820.236	150.01
820.414	80.38
820.592	70.14
820.77	51.71
820.948	86.53
821.127	104.96
821.305	117.25
821.483	129.53
821.661	109.05
821.839	96.77
822.017	43.52
822.195	135.68
822.373	92.67
822.551	205.31
822.729	70.14
822.907	147.97
823.085	123.39
823.262	102.91
823.44	27.14
823.618	158.21
823.796	119.29
823.974	98.81
824.152	150.01
824.329	107.01
824.507	27.14
824.685	125.44
824.863	72.19
825.04	88.57
825.218	150.01
825.396	119.29
825.574	92.67
825.751	29.18
825.929	115.2
826.107	61.95
826.284	199.16
826.462	96.77
826.639	31.23
826.817	51.71
826.994	123.39
827.172	92.67
827.349	162.3
827.527	125.44
827.704	84.48
827.882	104.96
828.059	100.86
828.237	61.95
828.414	117.25
828.591	6.66
828.769	182.78
828.946	70.14
829.124	27.14
829.301	76.29
829.478	125.44
829.655	84.48
829.833	184.83
830.01	59.9
830.187	10.75
830.364	51.71
830.542	109.05
830.719	111.1
830.896	96.77
831.073	72.19
831.25	88.57
831.427	109.05
831.604	127.49
831.782	53.76
831.959	141.82
832.136	20.99
832.313	90.62
832.49	-26.11
832.667	92.67
832.844	111.1
833.021	92.67
833.198	70.14
833.374	117.25
833.551	55.81
833.728	88.57
833.905	109.05
834.082	33.28
834.259	86.53
834.436	125.44
834.612	-13.82
834.789	84.48
834.966	59.9
835.143	88.57
835.319	25.09
835.496	78.33
835.673	76.29
835.85	78.33
836.026	109.05
836.203	82.43
836.38	29.18
836.556	90.62
836.733	80.38
836.909	94.72
837.086	64
837.262	47.62
837.439	43.52
837.616	68.09
837.792	20.99
837.968	20.99
838.145	-22.02
838.321	72.19
838.498	86.53
838.674	59.9
838.851	-17.92
839.027	59.9
839.203	57.86
839.38	70.14
839.556	27.14
839.732	23.04
839.909	68.09
840.085	51.71
840.261	61.95
840.437	92.67
840.614	37.38
840.79	109.05
840.966	14.85
841.142	86.53
841.318	64
841.494	10.75
841.671	92.67
841.847	57.86
842.023	39.42
842.199	72.19
842.375	47.62
842.551	-36.35
842.727	31.23
842.903	76.29
843.079	113.15
843.255	92.67
843.431	35.33
843.607	109.05
843.783	-42.5
843.959	129.53
844.134	45.57
844.31	135.68
844.486	6.66
844.662	55.81
844.838	35.33
845.013	51.71
845.189	55.81
845.365	158.21
845.541	16.9
845.716	84.48
845.892	72.19
846.068	59.9
846.244	18.94
846.419	131.58
846.595	45.57
846.77	96.77
846.946	29.18
847.122	64
847.297	14.85
847.473	55.81
847.648	-13.82
847.824	43.52
847.999	23.04
848.175	41.47
848.35	78.33
848.526	84.48
848.701	55.81
848.876	125.44
849.052	55.81
849.227	12.8
849.403	27.14
849.578	59.9
849.753	53.76
849.929	70.14
850.104	51.71
850.279	104.96
850.454	64
850.63	20.99
850.805	31.23
850.98	14.85
851.155	-19.97
851.33	113.15
851.505	43.52
851.681	154.11
851.856	27.14
852.031	111.1
852.206	55.81
852.381	109.05
852.556	12.8
852.731	-1.54
852.906	100.86
853.081	18.94
853.256	29.18
853.431	18.94
853.606	70.14
853.781	-22.02
853.956	-7.68
854.131	2.56
854.305	-11.78
854.48	18.94
854.655	2.56
854.83	59.9
855.005	10.75
855.18	53.76
855.354	55.81
855.529	6.66
855.704	-13.82
855.879	18.94
856.053	29.18
856.228	55.81
856.403	8.7
856.577	33.28
856.752	53.76
856.926	102.91
857.101	29.18
857.276	4.61
857.45	-26.11
857.625	90.62
857.799	6.66
857.974	35.33
858.148	-3.58
858.323	2.56
858.497	55.81
858.672	2.56
858.846	43.52
859.02	23.04
859.195	20.99
859.369	39.42
859.543	84.48
859.718	-13.82
859.892	74.24
860.066	109.05
860.241	59.9
860.415	35.33
860.589	45.57
860.763	53.76
860.938	-9.73
861.112	-22.02
861.286	-60.93
861.46	2.56
861.634	-3.58
861.808	-19.97
861.982	-3.58
862.157	53.76
862.331	70.14
862.505	14.85
862.679	-30.21
862.853	-11.78
863.027	33.28
863.201	37.38
863.375	-19.97
863.549	-38.4
863.722	29.18
863.896	59.9
864.07	-22.02
864.244	-22.02
864.418	-7.68
864.592	31.23
864.766	43.52
864.939	-11.78
865.113	-17.92
865.287	10.75
865.461	2.56
865.634	6.66
865.808	59.9
865.982	64
866.156	-58.88
866.329	10.75
866.503	-5.63
866.676	51.71
866.85	0.51
867.024	27.14
867.197	76.29
867.371	68.09
867.544	61.95
867.718	68.09
867.891	16.9
868.065	23.04
868.238	-62.98
868.412	76.29
868.585	-1.54
868.759	47.62
868.932	14.85
869.105	4.61
869.279	35.33
869.452	6.66
869.625	43.52
869.799	4.61
869.972	-30.21
870.145	-5.63
870.319	45.57
870.492	-9.73
870.665	-13.82
870.838	-19.97
871.011	-9.73
871.185	-36.35
871.358	47.62
871.531	31.23
871.704	0.51
871.877	-5.63
872.05	33.28
872.223	78.33
872.396	10.75
872.569	6.66
872.742	4.61
872.915	12.8
873.088	55.81
873.261	70.14
873.434	-5.63
873.607	57.86
873.78	35.33
873.953	64
874.126	10.75
874.299	27.14
874.471	-30.21
874.644	29.18
874.817	-32.26
874.99	43.52
875.163	-22.02
875.335	68.09
875.508	39.42
875.681	41.47
875.853	57.86
876.026	23.04
876.199	-24.06
876.371	12.8
876.544	4.61
876.717	-28.16
876.889	-44.54
877.062	0.51
877.234	2.56
877.407	31.23
877.579	10.75
877.752	2.56
877.924	23.04
878.097	43.52
878.269	4.61
878.442	-28.16
878.614	31.23
878.786	33.28
878.959	12.8
879.131	-26.11
879.303	18.94
879.476	64
879.648	18.94
879.82	53.76
879.993	31.23
880.165	35.33
880.337	-22.02
880.509	80.38
880.681	-71.17
880.854	-22.02
881.026	-40.45
881.198	43.52
881.37	2.56
881.542	76.29
881.714	31.23
881.886	27.14
882.058	10.75
882.23	-42.5
882.402	27.14
882.574	55.81
882.746	72.19
882.918	20.99
883.09	20.99
883.262	27.14
883.434	-13.82
883.606	23.04
883.778	-46.59
883.95	-30.21
884.122	8.7
884.293	51.71
884.465	-30.21
884.637	35.33
884.809	-9.73
884.98	39.42
885.152	68.09
885.324	61.95
885.496	-3.58
885.667	20.99
885.839	-34.3
886.011	23.04
886.182	43.52
886.354	-19.97
886.525	47.62
886.697	27.14
886.869	-7.68
887.04	-46.59
887.212	35.33
887.383	72.19
887.555	64
887.726	-3.58
887.897	20.99
888.069	-3.58
888.24	39.42
888.412	-13.82
888.583	-67.07
888.754	-40.45
888.926	-17.92
889.097	-71.17
889.268	-40.45
889.44	-36.35
889.611	14.85
889.782	-46.59
889.953	-52.74
890.125	47.62
890.296	-32.26
890.467	2.56
890.638	-40.45
890.809	4.61
890.98	-19.97
891.151	-44.54
891.323	2.56
891.494	10.75
891.665	-19.97
891.836	-17.92
892.007	-38.4
892.178	2.56
892.349	68.09
892.52	20.99
892.691	10.75
892.862	-54.78
893.032	-22.02
893.203	16.9
893.374	-62.98
893.545	-13.82
893.716	-11.78
893.887	-30.21
894.057	-5.63
894.228	-9.73
894.399	14.85
894.57	68.09
894.74	4.61
894.911	76.29
895.082	-19.97
895.253	-26.11
895.423	-79.36
895.594	45.57
895.764	37.38
895.935	-52.74
896.106	2.56
896.276	4.61
896.447	-67.07
896.617	-5.63
896.788	-5.63
896.958	20.99
897.129	-11.78
897.299	-42.5
897.47	-9.73
897.64	47.62
897.81	6.66
897.981	-19.97
898.151	-30.21
898.322	27.14
898.492	47.62
898.662	-77.31
898.832	-3.58
899.003	39.42
899.173	6.66
899.343	-52.74
899.513	-46.59
