Data from USB4F104151__164__14-19-43-363.txt Node

Date: Thu Mar 13 14:19:43 EDT 2025
User: louis
Spectrometer: USB4F10415
Trigger mode: 4
Integration Time (sec): 2.000000E-2
Scans to average: 1
Electric dark correction enabled: true
Nonlinearity correction enabled: false
Boxcar width: 0
XAxis mode: Wavelengths
Number of Pixels in Spectrum: 3648
>>>>>Begin Spectral Data<<<<<
178.204	-82.43
178.424	-82.43
178.644	-82.43
178.864	-88.57
179.084	-43.52
179.304	-64
179.524	-84.48
179.744	1.54
179.964	62.98
180.184	-14.85
180.404	3.58
180.624	48.64
180.844	11.78
181.064	-70.14
181.283	81.41
181.503	19.97
181.723	3.58
181.943	-45.57
182.163	65.02
182.383	44.54
182.602	15.87
182.822	56.83
183.042	38.4
183.262	-49.66
183.482	3.58
183.701	-2.56
183.921	9.73
184.141	13.82
184.361	58.88
184.58	60.93
184.8	1.54
185.02	-45.57
185.239	62.98
185.459	-8.7
185.679	11.78
185.898	-18.94
186.118	99.84
186.338	65.02
186.557	19.97
186.777	-66.05
186.997	15.87
187.216	-6.66
187.436	38.4
187.655	40.45
187.875	24.06
188.095	-4.61
188.314	-16.9
188.534	32.26
188.753	7.68
188.973	38.4
189.192	24.06
189.412	7.68
189.631	116.22
189.851	-6.66
190.07	-10.75
190.29	-61.95
190.509	58.88
190.729	77.31
190.948	58.88
191.168	87.55
191.387	50.69
191.607	15.87
191.826	15.87
192.045	-47.62
192.265	56.83
192.484	15.87
192.704	3.58
192.923	-12.8
193.142	36.35
193.362	116.22
193.581	15.87
193.8	-14.85
194.02	56.83
194.239	-23.04
194.458	48.64
194.678	48.64
194.897	-6.66
195.116	40.45
195.335	-41.47
195.555	-4.61
195.774	24.06
195.993	54.78
196.212	-4.61
196.432	11.78
196.651	17.92
196.87	65.02
197.089	50.69
197.308	15.87
197.528	-39.42
197.747	15.87
197.966	11.78
198.185	24.06
198.404	34.3
198.623	-8.7
198.842	-8.7
199.062	62.98
199.281	30.21
199.5	-66.05
199.719	-53.76
199.938	-61.95
200.157	73.21
200.376	-0.51
200.595	3.58
200.814	-14.85
201.033	36.35
201.252	75.26
201.471	15.87
201.69	-10.75
201.909	85.5
202.128	32.26
202.347	40.45
202.566	19.97
202.785	-41.47
203.004	-12.8
203.223	32.26
203.442	71.17
203.661	11.78
203.879	13.82
204.098	-16.9
204.317	-37.38
204.536	-4.61
204.755	36.35
204.974	81.41
205.193	30.21
205.411	24.06
205.63	-74.24
205.849	32.26
206.068	-51.71
206.287	1.54
206.505	46.59
206.724	40.45
206.943	22.02
207.162	-20.99
207.381	5.63
207.599	40.45
207.818	15.87
208.037	26.11
208.255	48.64
208.474	50.69
208.693	75.26
208.911	-20.99
209.13	50.69
209.349	81.41
209.567	38.4
209.786	89.6
210.005	65.02
210.223	19.97
210.442	-6.66
210.661	-2.56
210.879	40.45
211.098	-6.66
211.316	-0.51
211.535	36.35
211.753	-70.14
211.972	58.88
212.191	-0.51
212.409	52.74
212.628	-39.42
212.846	-14.85
213.065	36.35
213.283	75.26
213.502	24.06
213.72	-25.09
213.938	60.93
214.157	7.68
214.375	93.69
214.594	-8.7
214.812	24.06
215.031	15.87
215.249	-55.81
215.467	-20.99
215.686	22.02
215.904	9.73
216.122	-12.8
216.341	15.87
216.559	-27.14
216.778	24.06
216.996	32.26
217.214	-33.28
217.432	-8.7
217.651	-6.66
217.869	-12.8
218.087	-23.04
218.306	-16.9
218.524	15.87
218.742	-8.7
218.96	62.98
219.179	-41.47
219.397	-6.66
219.615	101.89
219.833	46.59
220.051	34.3
220.27	85.5
220.488	32.26
220.706	11.78
220.924	-12.8
221.142	71.17
221.36	42.5
221.578	-14.85
221.796	85.5
222.015	95.74
222.233	48.64
222.451	67.07
222.669	28.16
222.887	26.11
223.105	130.56
223.323	52.74
223.541	-82.43
223.759	118.27
223.977	3.58
224.195	40.45
224.413	30.21
224.631	26.11
224.849	42.5
225.067	11.78
225.285	-16.9
225.503	11.78
225.721	11.78
225.939	42.5
226.157	9.73
226.375	52.74
226.592	11.78
226.81	44.54
227.028	-10.75
227.246	65.02
227.464	-41.47
227.682	22.02
227.9	40.45
228.117	81.41
228.335	36.35
228.553	7.68
228.771	24.06
228.989	40.45
229.206	75.26
229.424	-43.52
229.642	17.92
229.86	42.5
230.077	15.87
230.295	-2.56
230.513	50.69
230.731	32.26
230.948	73.21
231.166	40.45
231.384	-49.66
231.601	-20.99
231.819	40.45
232.037	-6.66
232.254	26.11
232.472	13.82
232.689	5.63
232.907	5.63
233.125	-47.62
233.342	77.31
233.56	-14.85
233.777	97.79
233.995	32.26
234.213	26.11
234.43	46.59
234.648	32.26
234.865	69.12
235.083	65.02
235.3	15.87
235.518	65.02
235.735	52.74
235.953	32.26
236.17	34.3
236.388	1.54
236.605	17.92
236.822	-0.51
237.04	15.87
237.257	67.07
237.475	-18.94
237.692	50.69
237.909	40.45
238.127	146.94
238.344	42.5
238.562	-45.57
238.779	-43.52
238.996	-49.66
239.214	-31.23
239.431	118.27
239.648	48.64
239.865	42.5
240.083	60.93
240.3	-27.14
240.517	-8.7
240.735	-0.51
240.952	32.26
241.169	48.64
241.386	40.45
241.603	-33.28
241.821	-0.51
242.038	46.59
242.255	22.02
242.472	81.41
242.689	67.07
242.907	65.02
243.124	36.35
243.341	34.3
243.558	1.54
243.775	-27.14
243.992	-29.18
244.209	26.11
244.426	93.69
244.643	50.69
244.86	-4.61
245.078	28.16
245.295	30.21
245.512	-0.51
245.729	26.11
245.946	83.45
246.163	24.06
246.38	67.07
246.597	-35.33
246.814	24.06
247.031	-25.09
247.248	89.6
247.464	-39.42
247.681	62.98
247.898	15.87
248.115	48.64
248.332	40.45
248.549	103.93
248.766	56.83
248.983	-2.56
249.2	-8.7
249.417	50.69
249.633	-29.18
249.85	15.87
250.067	3.58
250.284	24.06
250.501	7.68
250.717	40.45
250.934	-25.09
251.151	54.78
251.368	30.21
251.585	40.45
251.801	-12.8
252.018	-2.56
252.235	-12.8
252.451	11.78
252.668	26.11
252.885	40.45
253.102	50.69
253.318	-29.18
253.535	52.74
253.752	50.69
253.968	32.26
254.185	7.68
254.401	-0.51
254.618	75.26
254.835	17.92
255.051	56.83
255.268	32.26
255.484	9.73
255.701	24.06
255.917	11.78
256.134	-8.7
256.351	44.54
256.567	26.11
256.784	-70.14
257	42.5
257.217	67.07
257.433	-23.04
257.65	-23.04
257.866	75.26
258.082	-53.76
258.299	-6.66
258.515	-0.51
258.732	83.45
258.948	13.82
259.165	44.54
259.381	-10.75
259.597	-25.09
259.814	-45.57
260.03	32.26
260.246	-4.61
260.463	-14.85
260.679	75.26
260.895	52.74
261.112	56.83
261.328	-27.14
261.544	48.64
261.761	126.46
261.977	-0.51
262.193	15.87
262.409	7.68
262.626	-16.9
262.842	1.54
263.058	71.17
263.274	-47.62
263.49	46.59
263.707	75.26
263.923	7.68
264.139	48.64
264.355	38.4
264.571	93.69
264.787	32.26
265.004	19.97
265.22	36.35
265.436	7.68
265.652	-37.38
265.868	28.16
266.084	65.02
266.3	1.54
266.516	34.3
266.732	19.97
266.948	11.78
267.164	38.4
267.38	24.06
267.596	-8.7
267.812	81.41
268.028	56.83
268.244	32.26
268.46	40.45
268.676	17.92
268.892	-33.28
269.108	26.11
269.324	-31.23
269.54	-47.62
269.756	140.8
269.972	17.92
270.188	-6.66
270.403	60.93
270.619	30.21
270.835	48.64
271.051	-4.61
271.267	-4.61
271.483	24.06
271.698	36.35
271.914	48.64
272.13	60.93
272.346	15.87
272.562	-66.05
272.777	77.31
272.993	-8.7
273.209	17.92
273.425	69.12
273.64	-74.24
273.856	124.41
274.072	1.54
274.287	13.82
274.503	87.55
274.719	-14.85
274.934	3.58
275.15	40.45
275.366	65.02
275.581	-23.04
275.797	81.41
276.012	32.26
276.228	32.26
276.444	-29.18
276.659	38.4
276.875	-14.85
277.09	56.83
277.306	15.87
277.521	-27.14
277.737	-47.62
277.952	65.02
278.168	17.92
278.383	9.73
278.599	79.36
278.814	58.88
279.03	28.16
279.245	73.21
279.461	-23.04
279.676	-37.38
279.892	-20.99
280.107	48.64
280.322	17.92
280.538	9.73
280.753	-8.7
280.969	42.5
281.184	17.92
281.399	19.97
281.615	48.64
281.83	-55.81
282.045	-39.42
282.26	32.26
282.476	11.78
282.691	58.88
282.906	9.73
283.122	65.02
283.337	-94.72
283.552	28.16
283.767	26.11
283.983	-23.04
284.198	62.98
284.413	48.64
284.628	-41.47
284.843	65.02
285.058	24.06
285.274	40.45
285.489	48.64
285.704	34.3
285.919	26.11
286.134	46.59
286.349	89.6
286.564	-29.18
286.779	-6.66
286.995	24.06
287.21	-18.94
287.425	1.54
287.64	22.02
287.855	56.83
288.07	-29.18
288.285	19.97
288.5	-0.51
288.715	65.02
288.93	7.68
289.145	62.98
289.36	50.69
289.575	-33.28
289.79	-6.66
290.004	65.02
290.219	-16.9
290.434	-27.14
290.649	30.21
290.864	-33.28
291.079	32.26
291.294	-2.56
291.509	58.88
291.724	-0.51
291.938	75.26
292.153	67.07
292.368	17.92
292.583	58.88
292.798	32.26
293.012	77.31
293.227	91.65
293.442	-2.56
293.657	56.83
293.871	83.45
294.086	60.93
294.301	58.88
294.516	19.97
294.73	24.06
294.945	46.59
295.16	1.54
295.374	81.41
295.589	67.07
295.804	-8.7
296.018	28.16
296.233	9.73
296.447	-8.7
296.662	1.54
296.877	73.21
297.091	34.3
297.306	7.68
297.52	54.78
297.735	30.21
297.949	-8.7
298.164	11.78
298.378	58.88
298.593	9.73
298.807	52.74
299.022	34.3
299.236	114.17
299.451	1.54
299.665	50.69
299.88	26.11
300.094	58.88
300.309	-57.86
300.523	54.78
300.737	60.93
300.952	-2.56
301.166	17.92
301.381	-0.51
301.595	34.3
301.809	54.78
302.024	40.45
302.238	-0.51
302.452	134.65
302.667	19.97
302.881	48.64
303.095	24.06
303.309	-25.09
303.524	48.64
303.738	-4.61
303.952	-6.66
304.166	32.26
304.381	15.87
304.595	38.4
304.809	-18.94
305.023	1.54
305.237	50.69
305.452	85.5
305.666	69.12
305.88	71.17
306.094	69.12
306.308	34.3
306.522	-16.9
306.736	54.78
306.95	32.26
307.164	69.12
307.379	75.26
307.593	124.41
307.807	50.69
308.021	52.74
308.235	-47.62
308.449	-98.81
308.663	7.68
308.877	136.7
309.091	62.98
309.305	89.6
309.519	83.45
309.733	56.83
309.947	-45.57
310.161	5.63
310.374	48.64
310.588	120.32
310.802	46.59
311.016	5.63
311.23	-55.81
311.444	11.78
311.658	50.69
311.872	32.26
312.085	95.74
312.299	42.5
312.513	89.6
312.727	62.98
312.941	110.08
313.154	42.5
313.368	26.11
313.582	60.93
313.796	11.78
314.009	7.68
314.223	87.55
314.437	-2.56
314.651	24.06
314.864	38.4
315.078	11.78
315.292	77.31
315.505	38.4
315.719	44.54
315.933	1.54
316.146	-43.52
316.36	36.35
316.573	67.07
316.787	38.4
317.001	3.58
317.214	-39.42
317.428	26.11
317.641	-16.9
317.855	-35.33
318.068	-12.8
318.282	65.02
318.495	60.93
318.709	81.41
318.922	103.93
319.136	46.59
319.349	32.26
319.563	-6.66
319.776	60.93
319.99	1.54
320.203	146.94
320.417	73.21
320.63	-12.8
320.843	89.6
321.057	15.87
321.27	1.54
321.483	81.41
321.697	83.45
321.91	19.97
322.124	48.64
322.337	97.79
322.55	48.64
322.763	73.21
322.977	75.26
323.19	15.87
323.403	40.45
323.617	83.45
323.83	42.5
324.043	40.45
324.256	52.74
324.469	32.26
324.683	73.21
324.896	-33.28
325.109	65.02
325.322	-86.53
325.535	105.98
325.748	-37.38
325.962	1.54
326.175	-6.66
326.388	7.68
326.601	15.87
326.814	-2.56
327.027	69.12
327.24	83.45
327.453	-39.42
327.666	67.07
327.879	91.65
328.092	69.12
328.305	-0.51
328.518	38.4
328.731	81.41
328.944	3.58
329.157	-29.18
329.37	3.58
329.583	40.45
329.796	97.79
330.009	-35.33
330.222	91.65
330.435	15.87
330.648	15.87
330.861	50.69
331.073	-6.66
331.286	34.3
331.499	11.78
331.712	-6.66
331.925	32.26
332.138	42.5
332.35	26.11
332.563	-0.51
332.776	19.97
332.989	-0.51
333.202	56.83
333.414	50.69
333.627	-31.23
333.84	7.68
334.053	56.83
334.265	19.97
334.478	50.69
334.691	42.5
334.903	77.31
335.116	93.69
335.329	17.92
335.541	-14.85
335.754	67.07
335.966	-25.09
336.179	-20.99
336.392	15.87
336.604	67.07
336.817	-4.61
337.029	87.55
337.242	5.63
337.454	58.88
337.667	48.64
337.88	60.93
338.092	36.35
338.305	24.06
338.517	-16.9
338.729	48.64
338.942	83.45
339.154	15.87
339.367	36.35
339.579	60.93
339.792	32.26
340.004	101.89
340.217	40.45
340.429	44.54
340.641	83.45
340.854	34.3
341.066	28.16
341.278	56.83
341.491	56.83
341.703	67.07
341.915	22.02
342.128	38.4
342.34	42.5
342.552	69.12
342.764	48.64
342.977	40.45
343.189	93.69
343.401	40.45
343.613	-0.51
343.826	-23.04
344.038	5.63
344.25	28.16
344.462	19.97
344.674	30.21
344.886	3.58
345.099	28.16
345.311	99.84
345.523	-10.75
345.735	9.73
345.947	15.87
346.159	1.54
346.371	52.74
346.583	71.17
346.795	65.02
347.007	11.78
347.219	85.5
347.431	7.68
347.643	32.26
347.855	30.21
348.067	75.26
348.279	40.45
348.491	40.45
348.703	40.45
348.915	24.06
349.127	28.16
349.339	42.5
349.551	34.3
349.763	15.87
349.975	-12.8
350.187	40.45
350.399	44.54
350.61	91.65
350.822	7.68
351.034	48.64
351.246	-23.04
351.458	75.26
351.669	-41.47
351.881	91.65
352.093	93.69
352.305	-8.7
352.517	52.74
352.728	142.85
352.94	112.13
353.152	-31.23
353.363	15.87
353.575	73.21
353.787	17.92
353.999	-23.04
354.21	108.03
354.422	42.5
354.633	15.87
354.845	67.07
355.057	38.4
355.268	48.64
355.48	128.51
355.692	11.78
355.903	60.93
356.115	7.68
356.326	-47.62
356.538	120.32
356.749	-20.99
356.961	50.69
357.172	13.82
357.384	42.5
357.595	93.69
357.807	105.98
358.018	89.6
358.23	48.64
358.441	101.89
358.653	114.17
358.864	24.06
359.075	83.45
359.287	48.64
359.498	89.6
359.709	67.07
359.921	28.16
360.132	-6.66
360.344	52.74
360.555	71.17
360.766	42.5
360.977	7.68
361.189	42.5
361.4	5.63
361.611	15.87
361.823	138.75
362.034	112.13
362.245	-8.7
362.456	81.41
362.667	79.36
362.879	11.78
363.09	65.02
363.301	65.02
363.512	32.26
363.723	-74.24
363.935	-8.7
364.146	17.92
364.357	97.79
364.568	15.87
364.779	34.3
364.99	105.98
365.201	7.68
365.412	7.68
365.623	40.45
365.834	1.54
366.045	19.97
366.256	122.37
366.467	81.41
366.678	15.87
366.889	-23.04
367.1	105.98
367.311	32.26
367.522	89.6
367.733	-8.7
367.944	42.5
368.155	69.12
368.366	73.21
368.577	81.41
368.788	-10.75
368.999	22.02
369.209	42.5
369.42	93.69
369.631	19.97
369.842	42.5
370.053	62.98
370.264	58.88
370.474	56.83
370.685	52.74
370.896	81.41
371.107	40.45
371.317	62.98
371.528	36.35
371.739	56.83
371.95	60.93
372.16	22.02
372.371	28.16
372.582	9.73
372.792	11.78
373.003	-16.9
373.214	91.65
373.424	67.07
373.635	38.4
373.846	97.79
374.056	83.45
374.267	97.79
374.477	95.74
374.688	50.69
374.898	81.41
375.109	38.4
375.319	58.88
375.53	52.74
375.74	99.84
375.951	32.26
376.161	67.07
376.372	58.88
376.582	-8.7
376.793	9.73
377.003	-6.66
377.214	-10.75
377.424	105.98
377.635	93.69
377.845	40.45
378.055	87.55
378.266	40.45
378.476	89.6
378.686	44.54
378.897	85.5
379.107	26.11
379.317	32.26
379.528	89.6
379.738	15.87
379.948	22.02
380.158	48.64
380.369	7.68
380.579	112.13
380.789	5.63
380.999	99.84
381.21	126.46
381.42	103.93
381.63	89.6
381.84	34.3
382.05	42.5
382.261	118.27
382.471	58.88
382.681	1.54
382.891	77.31
383.101	30.21
383.311	50.69
383.521	-20.99
383.731	97.79
383.941	19.97
384.151	7.68
384.361	120.32
384.571	87.55
384.781	40.45
384.991	44.54
385.201	114.17
385.411	85.5
385.621	75.26
385.831	73.21
386.041	75.26
386.251	60.93
386.461	58.88
386.671	71.17
386.881	50.69
387.091	24.06
387.301	50.69
387.511	110.08
387.72	95.74
387.93	65.02
388.14	44.54
388.35	-8.7
388.56	177.66
388.769	97.79
388.979	32.26
389.189	93.69
389.399	40.45
389.609	34.3
389.818	3.58
390.028	108.03
390.238	69.12
390.447	56.83
390.657	42.5
390.867	101.89
391.076	65.02
391.286	9.73
391.496	83.45
391.705	7.68
391.915	89.6
392.125	95.74
392.334	105.98
392.544	159.23
392.753	73.21
392.963	28.16
393.172	81.41
393.382	75.26
393.591	183.81
393.801	101.89
394.01	112.13
394.22	93.69
394.429	67.07
394.639	93.69
394.848	73.21
395.058	118.27
395.267	9.73
395.477	108.03
395.686	101.89
395.895	157.18
396.105	69.12
396.314	28.16
396.524	58.88
396.733	26.11
396.942	108.03
397.152	148.99
397.361	56.83
397.57	93.69
397.78	179.71
397.989	122.37
398.198	173.57
398.407	146.94
398.617	122.37
398.826	169.47
399.035	85.5
399.244	124.41
399.453	136.7
399.663	140.8
399.872	159.23
400.081	112.13
400.29	163.33
400.499	93.69
400.708	165.37
400.917	130.56
401.127	60.93
401.336	163.33
401.545	280.06
401.754	105.98
401.963	192
402.172	116.22
402.381	85.5
402.59	105.98
402.799	196.09
403.008	171.52
403.217	171.52
403.426	187.9
403.635	122.37
403.844	179.71
404.053	60.93
404.262	148.99
404.471	216.57
404.68	212.48
404.888	206.33
405.097	130.56
405.306	284.16
405.515	187.9
405.724	198.14
405.933	204.28
406.142	253.44
406.35	269.82
406.559	269.82
406.768	275.96
406.977	318.97
407.185	222.72
407.394	230.91
407.603	267.77
407.812	212.48
408.02	263.68
408.229	388.6
408.438	310.78
408.646	310.78
408.855	347.64
409.064	278.01
409.272	345.59
409.481	437.75
409.69	318.97
409.898	359.93
410.107	380.41
410.315	429.56
410.524	427.51
410.733	536.06
410.941	466.42
411.15	525.82
411.358	564.73
411.567	552.44
411.775	546.3
411.984	570.87
412.192	556.54
412.401	568.82
412.609	732.66
412.818	679.41
413.026	691.7
413.234	703.99
413.443	744.95
413.651	753.14
413.86	771.57
414.068	828.92
414.276	853.49
414.485	810.48
414.693	794.1
414.901	931.31
415.11	880.11
415.318	994.8
415.526	986.61
415.734	1068.53
415.943	1068.53
416.151	1080.82
416.359	1177.07
416.567	1246.7
416.776	1277.42
416.984	1299.95
417.192	1269.23
417.4	1312.24
417.608	1310.19
417.817	1478.12
418.025	1560.04
418.233	1652.2
418.441	1670.63
418.649	1668.58
418.857	1725.93
419.065	1914.34
419.273	1850.85
419.481	1922.53
419.689	1959.39
419.897	2067.94
420.105	2129.38
420.313	2229.73
420.521	2330.08
420.729	2401.76
420.937	2348.51
421.145	2483.67
421.353	2620.89
421.561	2708.95
421.769	2780.63
421.977	3069.39
422.185	2739.67
422.393	3104.21
422.601	3261.9
422.809	3331.53
423.017	3130.83
423.224	3415.5
423.432	3472.84
423.64	3669.45
423.848	3898.82
424.056	3702.22
424.263	4089.28
424.471	3933.64
424.679	3943.88
424.887	4287.93
425.094	4341.18
425.302	4505.02
425.51	4539.83
425.718	4818.36
425.925	4849.08
426.133	4992.44
426.341	5246.38
426.548	5447.08
426.756	5520.81
426.964	5537.2
427.171	5895.59
427.379	6094.24
427.586	6118.82
427.794	6395.29
428.001	6462.88
428.209	6864.28
428.417	6743.45
428.624	7355.79
428.832	7194
429.039	7185.81
429.247	7351.7
429.454	8048.01
429.662	8326.53
429.869	7898.5
430.076	8242.56
430.284	8125.83
430.491	8609.15
430.699	9026.93
430.906	8916.34
431.114	9090.42
431.321	9418.1
431.528	9639.28
431.736	10071.4
431.943	10728.8
432.15	10460.51
432.358	10679.65
432.565	10945.88
432.772	11134.29
432.979	11605.33
433.187	11713.87
433.394	11779.4
433.601	12682.56
433.808	12647.74
434.016	12457.28
434.223	13139.26
434.43	14177.58
434.637	13579.57
434.844	14597.41
435.052	14757.15
435.259	14943.52
435.466	14791.97
435.673	14806.3
435.88	15265.05
436.087	16360.71
436.294	16387.33
436.501	16178.44
436.708	16538.88
436.915	17075.45
437.122	17720.56
437.329	17714.42
437.537	18330.86
437.743	18709.73
437.95	18283.75
438.157	19191
438.364	19625.17
438.571	19825.87
438.778	19971.28
438.985	21716.15
439.192	20872.39
439.399	21836.98
439.606	21312.7
439.813	22381.74
440.02	23747.73
440.227	23198.88
440.433	22680.74
440.64	23911.57
440.847	23379.1
441.054	24251.53
441.261	25889.91
441.467	25554.04
441.674	26016.88
441.881	27012.2
442.088	26748.01
442.294	26573.93
442.501	27167.84
442.708	27812.95
442.914	28771.4
443.121	30006.33
443.328	28914.76
443.534	31261.73
443.741	30331.95
443.948	30180.4
444.154	32099.35
444.361	31730.72
444.568	32060.44
444.774	32236.56
444.981	32338.96
445.187	33254.4
445.394	34591.73
445.6	34499.57
445.807	37489.6
446.013	35677.15
446.22	36834.25
446.426	37598.15
446.633	38243.26
446.839	39359.4
447.046	37950.4
447.252	40004.51
447.459	40008.61
447.665	39908.26
447.871	41593.73
448.078	42959.73
448.284	40960.91
448.491	42371.96
448.697	43697
448.903	44731.22
449.11	45026.13
449.316	44120.93
449.522	45040.46
449.728	45728.58
449.935	46134.08
450.141	46265.15
450.347	47328.05
450.553	45378.38
450.76	46422.84
450.966	47942.44
451.172	47448.88
451.378	48769.82
451.584	47313.71
451.791	48988.95
451.997	48556.83
452.203	49277.71
452.409	48950.04
452.615	49130.26
452.821	47334.19
453.027	47041.33
453.233	49292.05
453.44	47346.48
453.646	48175.9
453.852	48331.55
454.058	49087.25
454.264	47764.26
454.47	48554.78
454.676	47342.38
454.882	48962.32
455.088	44821.33
455.294	45679.43
455.5	45964.1
455.705	46863.16
455.911	44569.43
456.117	43959.14
456.323	42920.82
456.529	41530.25
456.735	42853.23
456.941	41880.45
457.147	41186.19
457.352	39699.36
457.558	39605.16
457.764	39467.94
457.97	38624.18
458.176	37798.85
458.381	38636.47
458.587	36135.9
458.793	36449.24
458.999	34401.27
459.204	36940.75
459.41	35711.97
459.616	33512.45
459.821	34169.85
460.027	33283.08
460.233	32726.03
460.438	31409.18
460.644	31820.83
460.85	30137.4
461.055	29774.91
461.261	29606.97
461.466	27348.06
461.672	26645.61
461.878	28529.74
462.083	26637.42
462.289	26053.75
462.494	25777.27
462.7	24876.16
462.905	23852.18
463.111	25001.09
463.316	24919.17
463.522	24186
463.727	24210.57
463.932	24001.68
464.138	24108.18
464.343	23977.11
464.549	23166.11
464.754	24554.63
464.959	24034.45
465.165	23778.45
465.37	22973.6
465.575	22348.97
465.781	23579.8
465.986	23338.14
466.191	22297.77
466.397	21742.77
466.602	20978.88
466.807	21642.42
467.012	21535.93
467.218	21650.61
467.423	21558.46
467.628	21367.99
467.833	22441.13
468.038	21388.47
468.244	20835.52
468.449	21810.36
468.654	21116.09
468.859	20858.05
469.064	20810.95
469.269	20151.5
469.474	20182.22
469.679	20520.13
469.885	19909.84
470.09	19934.42
470.295	20008.14
470.5	19545.3
470.705	19436.76
470.91	19037.41
471.115	19043.55
471.32	19178.72
471.525	19240.15
471.73	18662.63
471.935	18799.84
472.139	17958.13
472.344	18275.56
472.549	18113.77
472.754	17954.03
472.959	17616.12
473.164	17071.36
473.369	16751.87
473.574	17698.03
473.778	17351.93
473.983	17325.3
474.188	16956.67
474.393	16446.73
474.598	16588.03
474.802	16049.42
475.007	16317.7
475.212	16317.7
475.417	15633.68
475.621	15596.82
475.826	15711.5
476.031	15285.53
476.235	15136.03
476.44	15377.69
476.645	15129.88
476.849	14744.86
477.054	14802.21
477.259	14548.26
477.463	14648.61
477.668	14302.5
477.872	14503.2
478.077	14179.62
478.282	13862.19
478.486	13763.89
478.691	13700.4
478.895	13573.42
479.1	13583.66
479.304	13534.51
479.509	12987.71
479.713	13258.04
479.918	13053.24
480.122	12744
480.326	13036.86
480.531	13083.96
480.735	12768.57
480.94	12631.36
481.144	13116.73
481.348	12494.15
481.553	12594.5
481.757	12258.63
481.961	12617.02
482.166	12614.98
482.37	12496.19
482.574	12395.84
482.778	12393.79
482.983	12657.98
483.187	12451.14
483.391	12707.13
483.595	12332.36
483.8	12205.38
484.004	12608.83
484.208	12647.74
484.412	12571.97
484.616	12592.45
484.821	12520.77
485.025	12270.92
485.229	12369.22
485.433	12301.64
485.637	12567.87
485.841	12123.46
486.045	12168.52
486.249	12205.38
486.453	12322.12
486.657	12371.27
486.861	12533.06
487.065	12205.38
487.269	12369.22
487.473	12158.28
487.677	12404.03
487.881	12442.95
488.085	12406.08
488.289	12348.74
488.493	12318.02
488.697	12528.96
488.901	12385.6
489.105	12483.91
489.309	12444.99
489.512	12623.17
489.716	12447.04
489.92	12528.96
490.124	12475.71
490.328	12676.41
490.531	12709.18
490.735	12481.86
490.939	12725.57
491.143	12682.56
491.346	12373.32
491.55	13045.05
491.754	12899.64
491.958	13141.3
492.161	12811.58
492.365	13026.62
492.569	12873.02
492.772	12918.07
492.976	13036.86
493.18	13110.58
493.383	13307.19
493.587	13237.56
493.79	13360.44
493.994	13290.81
494.197	13561.14
494.401	13532.47
494.605	13772.08
494.808	13745.45
495.012	13802.8
495.215	13933.87
495.419	14054.7
495.622	14062.89
495.825	14165.29
496.029	14148.9
496.232	14433.57
496.436	14425.38
496.639	14697.76
496.843	14751.01
497.046	14845.21
497.249	14882.08
497.453	15336.73
497.656	15363.35
497.859	15301.91
498.063	15629.59
498.266	15926.54
498.469	15668.5
498.673	15920.4
498.876	16436.49
499.079	16301.32
499.282	16080.14
499.485	16794.88
499.689	16882.94
499.892	16948.48
500.095	16884.99
500.298	17755.38
500.501	17159.42
500.705	17665.27
500.908	18087.15
501.111	18058.48
501.314	18091.24
501.517	18504.93
501.72	18652.39
501.923	18652.39
502.126	19246.3
502.329	19360.98
502.532	19571.93
502.735	19516.63
502.938	19840.21
503.141	19997.9
503.344	20327.63
503.547	20563.14
503.75	20444.36
503.953	20802.75
504.156	21019.84
504.359	21112
504.562	21150.91
504.765	21746.87
504.968	21963.95
505.17	22260.91
505.373	22283.44
505.576	22602.92
505.779	22854.82
505.982	22906.02
506.185	23524.51
506.387	23516.31
506.59	23764.12
506.793	24177.81
506.996	24171.66
507.198	24722.57
507.401	24472.71
507.604	24786.05
507.807	25371.77
508.009	25457.79
508.212	25584.76
508.415	26113.14
508.617	26369.13
508.82	26266.74
509.022	26027.12
509.225	27212.9
509.428	26917.99
509.63	26975.33
509.833	27454.56
510.035	27884.63
510.238	27925.59
510.44	28351.57
510.643	28720.2
510.845	28881.99
511.048	28599.37
511.25	29004.87
511.453	29559.87
511.655	30772.27
511.858	29488.19
512.06	30157.88
512.262	30757.93
512.465	30870.57
512.667	31390.75
512.87	31411.23
513.072	31591.45
513.274	31876.12
513.477	32302.1
513.679	32406.55
513.881	32834.57
514.084	33037.32
514.286	33182.73
514.488	33610.75
514.69	34370.55
514.893	34225.14
515.095	34540.53
515.297	34743.28
515.499	34730.99
515.701	35111.91
515.904	36068.31
516.106	36170.71
516.308	36219.86
516.51	36735.95
516.712	36568.02
516.914	37131.21
517.116	37905.34
517.318	37839.81
517.52	37886.91
517.722	38214.58
517.925	38480.82
518.127	38929.33
518.329	39343.02
518.531	38914.99
518.733	39947.17
518.935	39934.88
519.136	39938.97
519.338	40907.66
519.54	40573.84
519.742	41411.46
519.944	41311.11
520.146	41972.61
520.348	42005.38
520.55	42365.82
520.752	42472.31
520.954	43201.39
521.155	42795.89
521.357	43320.17
521.559	43830.12
521.761	44051.3
521.963	43965.28
522.164	44159.84
522.366	44911.44
522.568	44874.58
522.77	45554.5
522.971	46156.61
523.173	45570.89
523.375	45861.7
523.576	46000.96
523.778	46015.3
523.98	46803.77
524.181	46949.17
524.383	46691.13
524.584	47559.47
524.786	47647.53
524.988	47205.17
525.189	47735.59
525.391	47926.05
525.592	48106.27
525.794	48616.22
525.995	48139.04
526.197	48446.24
526.398	48493.34
526.6	48847.64
526.801	48902.93
527.003	49638.15
527.204	49507.08
527.406	49341.2
527.607	49603.34
527.808	49916.68
528.01	49304.34
528.211	50017.03
528.412	51092.21
528.614	50152.19
528.815	50379.52
529.016	50803.45
529.218	50369.28
529.419	50539.26
529.62	50256.64
529.822	50756.35
530.023	50584.32
530.224	50819.83
530.425	51192.56
530.626	50578.17
530.828	50664.19
531.029	51497.71
531.23	51387.12
531.431	51081.97
531.632	50858.74
531.833	51352.3
532.035	50977.53
532.236	51548.91
532.437	51794.67
532.638	51270.39
532.839	51704.56
533.04	51809
533.241	51043.06
533.442	52292.32
533.643	51495.66
533.844	51704.56
534.045	51673.84
534.246	50916.09
534.447	51983.08
534.648	51905.26
534.849	51579.63
535.05	51170.04
535.251	51612.4
535.451	51510
535.652	51802.86
535.853	51378.93
536.054	51579.63
536.255	51931.88
536.456	51051.25
536.657	51679.98
536.857	51706.6
537.058	51434.22
537.259	51636.97
537.46	51428.08
537.66	51364.59
537.861	51483.37
538.062	51376.88
538.263	51368.69
538.463	51264.24
538.664	51286.77
538.865	51540.72
539.065	51673.84
539.266	51098.36
539.466	51899.11
539.667	50801.4
539.868	51964.65
540.068	51401.46
540.269	51323.63
540.469	51804.91
540.67	51276.53
540.87	51086.07
541.071	51180.28
541.271	51759.85
541.472	51213.04
541.672	50934.52
541.873	50965.24
542.073	50387.71
542.274	51217.14
542.474	51362.54
542.675	51385.07
542.875	51466.99
543.075	50916.09
543.276	50844.41
543.476	51495.66
543.676	50713.34
543.877	51442.42
544.077	50750.2
544.277	51139.32
544.478	50772.73
544.678	51008.25
544.878	50699
545.078	50391.81
545.279	50785.02
545.479	50756.35
545.679	51008.25
545.879	51180.28
546.079	50850.55
546.28	50350.85
546.48	50266.88
546.68	50731.77
546.88	50795.26
547.08	50402.05
547.28	50819.83
547.48	50148.1
547.68	50739.96
547.88	50385.66
548.081	50436.86
548.281	50660.09
548.481	50139.91
548.681	51041.01
548.881	50467.58
549.081	50529.02
549.28	49771.27
549.48	50948.85
549.68	50066.18
549.88	50879.22
550.08	49644.3
550.28	50436.86
550.48	50055.94
550.68	50258.69
550.88	49994.5
551.08	50010.88
551.279	50328.32
551.479	49863.43
551.679	49943.3
551.879	49998.6
552.079	50322.18
552.278	49840.9
552.478	49781.51
552.678	49779.46
552.878	49910.53
553.077	49994.5
553.277	49476.37
553.477	50393.86
553.676	49466.13
553.876	49652.49
554.076	49457.93
554.275	49335.06
554.475	49042.2
554.674	49433.36
554.874	49525.52
555.074	49363.73
555.273	49703.69
555.473	49902.34
555.672	49472.27
555.872	49124.11
556.071	49361.68
556.271	49445.65
556.47	49058.58
556.67	48868.12
556.869	49081.11
557.068	49541.9
557.268	49038.1
557.467	49152.79
557.667	48984.85
557.866	48937.75
558.065	49212.18
558.265	49144.59
558.464	48458.52
558.663	49007.38
558.863	48263.97
559.062	49081.11
559.261	48292.64
559.461	48868.12
559.66	48171.81
559.859	48608.03
560.058	48315.17
560.258	48304.93
560.457	48073.51
560.656	48673.56
560.855	48032.55
561.054	48288.54
561.253	47618.86
561.453	48401.18
561.652	48188.19
561.851	48409.37
562.05	47788.84
562.249	47569.71
562.448	47768.36
562.647	47735.59
562.846	47756.07
563.045	47557.42
563.244	47278.89
563.443	47557.42
563.642	46826.29
563.841	47270.7
564.04	46805.81
564.239	47434.54
564.438	46863.16
564.637	47024.95
564.836	47362.86
565.035	46854.97
565.234	47133.49
565.432	46576.44
565.631	46719.8
565.83	46570.3
566.029	46322.49
566.228	46500.67
566.427	46398.27
566.625	46048.07
566.824	45775.69
567.023	45880.13
567.222	45681.48
567.42	46019.39
567.619	45830.98
567.818	45751.11
568.016	45396.81
568.215	45673.29
568.414	45511.5
568.612	45925.19
568.811	45228.88
569.01	45757.25
569.208	45058.9
569.407	45192.01
569.605	45036.37
569.804	45163.34
570.002	44610.39
570.201	45204.3
570.4	45028.18
570.598	44434.27
570.797	44733.27
570.995	44659.54
571.193	43922.27
571.392	44548.95
571.59	44262.24
571.789	44231.52
571.987	44100.45
572.186	43922.27
572.384	43907.94
572.582	44186.46
572.781	44127.07
572.979	43391.85
573.177	43606.89
573.376	43406.19
573.574	43107.18
573.772	43653.99
573.971	43086.7
574.169	43094.89
574.367	42859.38
574.565	43092.85
574.763	43213.68
574.962	43168.62
575.16	42240.89
575.358	42691.44
575.556	41986.94
575.754	42834.8
575.952	42290.04
576.151	42339.19
576.349	42007.42
576.547	42398.59
576.745	42171.26
576.943	41874.31
577.141	41880.45
577.339	42068.86
577.537	41636.74
577.735	42023.81
577.933	41284.49
578.131	41440.14
578.329	41227.15
578.527	40782.74
578.725	41048.97
578.923	41040.78
579.121	40833.94
579.319	40700.82
579.516	40895.38
579.714	40817.55
579.912	40840.08
580.11	40592.28
580.308	40201.11
580.506	40209.31
580.704	40022.94
580.901	40307.61
581.099	40405.91
581.297	39791.52
581.495	39838.62
581.692	39584.68
581.89	39609.25
582.088	40127.39
582.285	39271.34
582.483	39795.62
582.681	39490.47
582.878	39121.84
583.076	38908.85
583.274	39379.88
583.471	38771.63
583.669	38499.25
583.866	38636.47
584.064	39119.79
584.262	38321.08
584.459	38742.96
584.657	38087.61
584.854	38708.15
585.052	37790.66
585.249	38290.36
585.447	37968.83
585.644	37809.09
585.841	37721.02
586.039	37815.23
586.236	37573.57
586.434	37718.98
586.631	37026.76
586.828	37059.53
587.026	37395.4
587.223	37086.15
587.42	36819.92
587.618	37268.42
587.815	36441.04
588.012	36729.81
588.21	36656.08
588.407	37010.38
588.604	36467.67
588.801	36150.23
588.999	36035.55
589.196	36293.59
589.393	36234.2
589.59	36047.83
589.787	35660.77
589.984	35890.14
590.182	35578.85
590.379	35892.19
590.576	35378.15
590.773	35652.58
590.97	35281.89
591.167	35005.42
591.364	34690.03
591.561	35302.37
591.758	34698.22
591.955	34276.34
592.152	35048.43
592.349	34657.26
592.546	34558.96
592.743	34745.33
592.94	33911.8
593.137	34540.53
593.334	34345.97
593.531	33670.14
593.727	34313.2
593.924	33707.01
594.121	33381.38
594.318	33815.55
594.515	33471.49
594.712	33917.95
594.908	33360.9
595.105	33684.48
595.302	33074.18
595.499	33195.01
595.696	33129.48
595.892	32619.53
596.089	32916.49
596.286	33162.25
596.482	32611.34
596.679	32760.84
596.876	32764.94
597.072	32437.27
597.269	32615.44
597.466	32162.84
597.662	31992.86
597.859	32082.97
598.055	32336.91
598.252	31745.05
598.448	32306.2
598.645	31845.4
598.841	31673.37
599.038	31527.97
599.234	31372.32
599.431	30915.62
599.627	31271.97
599.824	31319.07
600.02	30788.65
600.217	31015.97
600.413	31095.85
600.609	30676.01
600.806	30575.66
601.002	30807.08
601.198	30475.31
601.395	30135.35
601.591	30434.35
601.787	30422.06
601.984	30123.06
602.18	30788.65
602.376	29654.08
602.572	29971.51
602.769	30250.03
602.965	29584.44
603.161	29785.15
603.357	29391.94
603.553	29701.18
603.75	29535.29
603.946	29258.82
604.142	29555.77
604.338	28775.5
604.534	29041.73
604.73	28896.33
604.926	28795.98
605.122	28695.63
605.318	28460.11
605.514	28333.14
605.71	28390.48
605.906	28640.33
606.102	28552.27
606.298	28437.58
606.494	28191.83
606.69	28243.03
606.886	28388.43
607.082	28019.8
607.278	28154.96
607.474	27923.54
607.67	27413.6
607.866	27376.73
608.062	28034.13
608.257	27542.62
608.453	27655.26
608.649	27491.42
608.845	27610.2
609.041	27450.46
609.236	27382.88
609.432	27237.47
609.628	27530.33
609.824	27094.11
610.019	27030.63
610.215	27004
610.411	27075.68
610.606	27083.87
610.802	26969.19
610.998	27049.06
611.193	26782.82
611.389	26852.45
611.584	26788.97
611.78	26561.64
611.976	26489.96
612.171	26651.75
612.367	26551.4
612.562	26410.09
612.758	25967.73
612.953	26156.14
613.149	26367.09
613.344	26049.65
613.539	26512.49
613.735	26219.63
613.93	26324.08
614.126	26035.31
614.321	26285.17
614.517	26061.94
614.712	26057.84
614.907	25934.96
615.103	25947.25
615.298	25836.66
615.493	26334.32
615.688	25351.29
615.884	25963.64
616.079	25375.87
616.274	25582.71
616.47	25576.57
616.665	25846.9
616.86	25566.33
617.055	25398.4
617.25	25316.48
617.445	25422.97
617.641	24956.04
617.836	25128.06
618.031	24691.85
618.226	24882.31
618.421	24464.52
618.616	24935.56
618.811	24515.72
619.006	24882.31
619.201	24202.38
619.396	24851.59
619.591	24214.67
619.786	24464.52
619.981	24224.91
620.176	24388.75
620.371	23925.91
620.566	23837.84
620.761	23788.69
620.956	23837.84
621.151	23432.35
621.346	23755.93
621.541	23207.07
621.735	23198.88
621.93	23071.9
622.125	23153.82
622.32	22721.7
622.515	23078.05
622.709	22584.49
622.904	22650.02
623.099	22482.09
623.294	22516.9
623.488	22359.21
623.683	22289.58
623.878	22119.6
624.072	21976.24
624.267	21900.47
624.462	21648.57
624.656	21634.23
624.851	21335.23
625.046	21443.77
625.24	21281.98
625.435	21025.98
625.629	21054.65
625.824	21103.81
626.018	20735.17
626.213	20462.79
626.407	20749.51
626.602	19967.18
626.796	20520.13
626.991	20573.38
627.185	20174.03
627.38	19967.18
627.574	19690.71
627.768	19754.19
627.963	19576.02
628.157	19219.67
628.352	19705.04
628.546	19250.39
628.74	19307.74
628.935	19115.23
629.129	19100.89
629.323	19195.1
629.517	18865.38
629.712	18554.08
629.906	18715.87
630.1	18177.26
630.294	18486.5
630.489	18234.6
630.683	18361.58
630.877	18033.9
631.071	17841.39
631.265	17925.36
631.459	18017.52
631.653	17554.68
631.848	17767.66
632.042	17720.56
632.236	17556.72
632.43	17267.96
632.624	17288.44
632.818	17171.71
633.012	17095.93
633.206	17122.55
633.4	17018.11
633.594	16637.19
633.788	16903.42
633.982	16725.25
634.176	16637.19
634.369	16555.27
634.563	16479.49
634.757	16329.99
634.951	16295.18
635.145	16155.91
635.339	16117
635.533	15867.15
635.726	16178.44
635.92	15562
636.114	15959.31
636.308	15525.14
636.501	15654.16
636.695	15607.06
636.889	15519
637.083	15308.05
637.276	15361.3
637.47	15400.21
637.664	15191.32
637.857	15111.45
638.051	15211.8
638.244	14791.97
638.438	14943.52
638.632	14658.85
638.825	14621.98
639.019	14603.55
639.212	14503.2
639.406	14581.03
639.599	14251.3
639.793	14343.46
639.986	14153
640.18	14009.64
640.373	14196.01
640.567	13741.36
640.76	14116.14
640.954	13786.41
641.147	13925.68
641.34	13851.95
641.534	13532.47
641.727	13585.71
641.92	13448.5
642.114	13364.53
642.307	13475.12
642.5	13323.57
642.694	13071.67
642.887	13094.2
643.08	13403.44
643.273	12971.32
643.467	12985.66
643.66	12891.45
643.853	12641.6
644.046	12541.25
644.239	12852.54
644.432	12617.02
644.626	12633.41
644.819	12377.41
645.012	12401.99
645.205	12698.94
645.398	12307.78
645.591	12158.28
645.784	12086.6
645.977	12174.66
646.17	11922.76
646.363	11973.96
646.556	11861.32
646.749	11844.94
646.942	11728.21
647.135	11744.59
647.328	11697.49
647.521	11679.05
647.714	11666.77
647.907	11373.91
648.099	11478.35
648.292	11306.32
648.485	11490.64
648.678	11273.56
648.871	11167.06
649.064	11035.99
649.256	11275.6
649.449	10970.46
649.642	11044.18
649.835	10814.81
650.027	10894.68
650.22	10927.45
650.413	10798.43
650.605	10605.92
650.798	10667.36
650.991	10421.6
651.183	10581.34
651.376	10384.74
651.568	10476.9
651.761	10366.31
651.954	10419.55
652.146	10169.7
652.339	10376.55
652.531	10181.99
652.724	9915.75
652.916	9782.63
653.109	10040.68
653.301	9741.68
653.494	10020.2
653.686	9710.96
653.879	10071.4
654.071	9647.47
654.263	9727.34
654.456	9616.75
654.648	9676.14
654.84	9366.9
655.033	9446.77
655.225	9583.98
655.417	9366.9
655.61	9299.31
655.802	9321.84
655.994	9233.78
656.186	9334.13
656.379	9291.12
656.571	9031.03
656.763	9006.45
656.955	8856.95
657.148	9078.13
657.34	8985.97
657.532	8809.85
657.724	8777.08
657.916	8781.18
658.108	8742.27
658.3	8684.92
658.492	8850.81
658.684	8480.13
658.876	8613.24
659.068	8576.38
659.26	8600.96
659.452	8510.85
659.644	8195.46
659.836	8283.52
660.028	8281.47
660.22	8160.64
660.412	8152.45
660.604	8060.29
660.796	8463.74
660.988	8039.81
661.18	8123.78
661.372	7740.81
661.563	7855.5
661.755	7908.74
661.947	7855.5
662.139	7830.92
662.331	7822.73
662.522	7605.64
662.714	7617.93
662.906	7691.66
663.097	7691.66
663.289	7505.29
663.481	7519.63
663.673	7523.73
663.864	7286.16
664.056	7456.14
664.247	7384.46
664.439	7325.07
664.631	7462.29
664.822	7349.65
665.014	7202.19
665.205	7167.38
665.397	7032.21
665.588	7200.15
665.78	7048.6
665.971	7122.32
666.163	7071.12
666.354	6813.08
666.546	6989.21
666.737	6997.4
666.929	6931.86
667.12	6923.67
667.311	6821.27
667.503	6669.72
667.694	6923.67
667.885	6661.53
668.077	6700.44
668.268	6669.72
668.459	6618.52
668.651	6647.19
668.842	6442.4
669.033	6454.69
669.224	6366.62
669.416	6497.69
669.607	6440.35
669.798	6313.38
669.989	6376.86
670.18	6260.13
670.371	6161.83
670.563	6356.38
670.754	6249.89
670.945	6063.52
671.136	6241.7
671.327	6198.69
671.518	6016.42
671.709	6084
671.9	5889.45
672.091	6098.34
672.282	6147.49
672.473	5889.45
672.664	6022.56
672.855	5895.59
673.046	5858.73
673.237	5815.72
673.428	5692.84
673.619	5825.96
673.809	5744.04
674	5733.8
674.191	5846.44
674.382	5639.59
674.573	5647.79
674.764	5748.14
674.954	5486
675.145	5651.88
675.336	5625.26
675.527	5408.17
675.717	5399.98
675.908	5615.02
676.099	5533.1
676.289	5508.52
676.48	5408.17
676.671	5406.13
676.861	5391.79
677.052	5199.28
677.243	5451.18
677.433	5369.26
677.624	5377.45
677.814	5316.01
678.005	5324.21
678.195	5365.17
678.386	5205.42
678.576	5078.45
678.767	5219.76
678.957	5170.61
679.148	5137.84
679.338	5137.84
679.529	5139.89
679.719	5107.12
679.909	5176.75
680.1	5100.98
680.29	5152.18
680.481	4908.47
680.671	5039.54
680.861	5008.82
681.052	5113.27
681.242	4949.43
681.432	5027.25
681.622	4808.12
681.813	5045.68
682.003	4955.57
682.193	4947.38
682.383	4867.51
682.573	4793.78
682.764	4947.38
682.954	4857.27
683.144	4718.01
683.334	4697.53
683.524	4648.38
683.714	4814.26
683.904	4765.11
684.094	4791.73
684.284	4832.69
684.474	4636.09
684.664	4545.98
684.854	4580.79
685.044	4748.73
685.234	4517.31
685.424	4564.41
685.614	4521.4
685.804	4545.98
685.994	4480.44
686.184	4492.73
686.374	4451.77
686.564	4548.03
686.753	4451.77
686.943	4357.57
687.133	4357.57
687.323	4332.99
687.513	4392.38
687.702	4246.98
687.892	4269.5
688.082	4113.86
688.272	4302.27
688.461	4242.88
688.651	4263.36
688.841	4120
689.03	4185.54
689.22	4201.92
689.41	4230.59
689.599	4095.43
689.789	4253.12
689.979	4074.95
690.168	4060.61
690.358	4017.6
690.547	4060.61
690.737	4079.04
690.926	4099.52
691.116	4070.85
691.305	3859.91
691.495	3999.17
691.684	4013.51
691.874	3980.74
692.063	3956.16
692.252	3853.77
692.442	3950.02
692.631	3792.33
692.82	3835.33
693.01	3847.62
693.199	3702.22
693.388	3841.48
693.578	3677.64
693.767	3876.29
693.956	3886.53
694.146	3677.64
694.335	3685.83
694.524	3687.88
694.713	3775.94
694.902	3720.65
695.092	3751.37
695.281	3579.34
695.47	3640.78
695.659	3628.49
695.848	3468.75
696.037	3651.02
696.226	3714.5
696.415	3526.09
696.604	3599.82
696.793	3554.76
696.982	3589.58
697.171	3481.03
697.36	3597.77
697.549	3472.84
697.738	3339.73
697.927	3388.88
698.116	3417.55
698.305	3403.21
698.494	3302.86
698.683	3395.02
698.872	3526.09
699.061	3358.16
699.25	3317.2
699.438	3280.33
699.627	3343.82
699.816	3347.92
700.005	3247.57
700.193	3485.13
700.382	3466.7
700.571	3313.1
700.76	3304.91
700.948	3329.49
701.137	3270.09
701.326	3345.87
701.514	3235.28
701.703	3390.92
701.892	3284.43
702.08	3360.2
702.269	3225.04
702.457	3255.76
702.646	3276.24
702.834	3081.68
703.023	3231.18
703.212	3202.51
703.4	3229.13
703.589	3063.25
703.777	3128.78
703.965	3284.43
704.154	3087.82
704.342	3048.91
704.531	3145.17
704.719	3096.02
704.907	3120.59
705.096	3055.06
705.284	3053.01
705.472	2975.19
705.661	2993.62
705.849	3186.13
706.037	3083.73
706.226	3091.92
706.414	3050.96
706.602	3050.96
706.79	3128.78
706.979	2987.47
707.167	2977.23
707.355	3079.63
707.543	2966.99
707.731	2928.08
707.919	2977.23
708.107	2964.95
708.296	2999.76
708.484	3081.68
708.672	3048.91
708.86	3001.81
709.048	2913.75
709.236	3032.53
709.424	2903.51
709.612	2934.23
709.8	2923.99
709.988	2831.83
710.176	2915.8
710.364	2817.49
710.551	2917.84
710.739	2844.12
710.927	2821.59
711.115	2727.38
711.303	2729.43
711.491	2784.73
711.679	2764.25
711.866	2694.61
712.054	2821.59
712.242	2815.45
712.43	2776.53
712.617	2840.02
712.805	2807.25
712.993	2803.16
713.181	2788.82
713.368	2717.14
713.556	2672.09
713.744	2682.33
713.931	2719.19
714.119	2663.9
714.306	2614.74
714.494	2719.19
714.682	2721.24
714.869	2694.61
715.057	2719.19
715.244	2588.12
715.432	2715.09
715.619	2655.7
715.807	2586.07
715.994	2604.5
716.182	2579.93
716.369	2694.61
716.556	2612.7
716.744	2586.07
716.931	2477.53
717.119	2498.01
717.306	2553.31
717.493	2653.66
717.681	2643.42
717.868	2567.64
718.055	2461.15
718.242	2502.11
718.43	2581.98
718.617	2588.12
718.804	2541.02
718.991	2571.74
719.179	2639.32
719.366	2571.74
719.553	2563.54
719.74	2434.52
719.927	2432.47
720.114	2631.13
720.301	2416.09
720.488	2420.19
720.676	2424.28
720.863	2473.43
721.05	2356.7
721.237	2418.14
721.424	2491.87
721.611	2493.91
721.798	2239.97
721.985	2244.06
722.172	2389.47
722.358	2442.71
722.545	2407.9
722.732	2328.03
722.919	2317.79
723.106	2495.96
723.293	2338.27
723.48	2276.83
723.667	2362.84
723.853	2227.68
724.04	2342.36
724.227	2436.57
724.414	2285.02
724.6	2280.93
724.787	2389.47
724.974	2264.54
725.161	2285.02
725.347	2285.02
725.534	2336.22
725.72	2250.21
725.907	2319.84
726.094	2166.24
726.28	2260.45
726.467	2287.07
726.653	2203.1
726.84	2260.45
727.027	2268.64
727.213	2129.38
727.4	2176.48
727.586	2182.62
727.773	2174.43
727.959	2207.2
728.145	2235.87
728.332	2123.23
728.518	2196.96
728.705	2194.91
728.891	2166.24
729.077	2209.25
729.264	2213.34
729.45	2149.86
729.636	2352.6
729.823	2194.91
730.009	2072.03
730.195	2104.8
730.382	2063.84
730.568	2162.14
730.754	2174.43
730.94	2221.53
731.126	2166.24
731.313	2137.57
731.499	2158.05
731.685	2086.37
731.871	2166.24
732.057	2121.18
732.243	2121.18
732.429	1983.97
732.615	2162.14
732.801	2092.51
732.987	2055.65
733.173	2069.98
733.359	2043.36
733.545	2088.42
733.731	2008.55
733.917	2164.19
734.103	2192.86
734.289	2051.55
734.475	1996.26
734.661	2010.59
734.847	1986.02
735.033	1979.87
735.219	1936.87
735.404	2153.95
735.59	1916.39
735.776	1940.96
735.962	2084.32
736.148	1953.25
736.333	1979.87
736.519	1934.82
736.705	1887.72
736.89	1971.68
737.076	2086.37
737.262	1881.57
737.447	1967.59
737.633	1801.7
737.819	1912.29
738.004	1951.2
738.19	1850.85
738.375	1805.8
738.561	1981.92
738.747	1928.67
738.932	1820.13
739.118	1975.78
739.303	1920.48
739.489	1916.39
739.674	1951.2
739.859	1785.32
740.045	1912.29
740.23	1852.9
740.416	1752.55
740.601	1773.03
740.786	1859.04
740.972	1859.04
741.157	1838.56
741.342	1744.36
741.528	1783.27
741.713	1869.28
741.898	1879.52
742.084	1783.27
742.269	1811.94
742.454	1891.81
742.639	1758.69
742.824	1697.25
743.01	1766.89
743.195	1727.97
743.38	1760.74
743.565	1723.88
743.75	1783.27
743.935	1744.36
744.12	1658.34
744.305	1629.67
744.49	1592.81
744.675	1727.97
744.86	1580.52
745.045	1590.76
745.23	1672.68
745.415	1543.66
745.6	1664.49
745.785	1531.37
745.97	1629.67
746.155	1580.52
746.34	1580.52
746.525	1566.18
746.71	1584.62
746.895	1453.55
747.079	1551.85
747.264	1527.27
747.449	1588.71
747.634	1510.89
747.819	1510.89
748.003	1494.51
748.188	1426.92
748.373	1484.27
748.557	1486.31
748.742	1435.11
748.927	1512.94
749.111	1457.64
749.296	1322.48
749.481	1400.3
749.665	1469.93
749.85	1433.07
750.034	1371.63
750.219	1297.9
750.404	1302
750.588	1424.87
750.773	1406.44
750.957	1383.91
751.141	1353.2
751.326	1234.41
751.51	1345
751.695	1334.76
751.879	1250.8
752.064	1416.68
752.248	1367.53
752.432	1312.24
752.617	1316.33
752.801	1269.23
752.985	1183.21
753.17	1287.66
753.354	1234.41
753.538	1232.37
753.722	1076.72
753.907	1232.37
754.091	1404.39
754.275	1222.13
754.459	1205.74
754.643	1220.08
754.828	1148.4
755.012	1240.56
755.196	1082.86
755.38	1127.92
755.564	1168.88
755.748	1211.89
755.932	1064.43
756.116	1150.45
756.3	1175.02
756.484	1050.1
756.668	1148.4
756.852	1162.73
757.036	1015.28
757.22	1074.67
757.404	1052.14
757.588	990.7
757.772	1072.62
757.956	1009.14
758.14	1062.38
758.323	910.83
758.507	1046
758.691	990.7
758.875	964.08
759.059	994.8
759.242	970.23
759.426	916.98
759.61	1070.58
759.794	1027.57
759.977	892.4
760.161	990.7
760.345	1033.71
760.528	1023.47
760.712	906.74
760.895	937.46
761.079	941.55
761.263	916.98
761.446	925.17
761.63	908.79
761.813	859.63
761.997	806.39
762.18	892.4
762.364	984.56
762.547	908.79
762.731	992.75
762.914	876.02
763.098	785.91
763.281	859.63
763.464	863.73
763.648	859.63
763.831	828.92
764.015	855.54
764.198	859.63
764.381	861.68
764.564	763.38
764.748	749.04
764.931	847.35
765.114	806.39
765.297	847.35
765.481	935.41
765.664	822.77
765.847	867.83
766.03	783.86
766.213	771.57
766.397	787.96
766.58	865.78
766.763	859.63
766.946	679.41
767.129	722.42
767.312	806.39
767.495	769.52
767.678	736.76
767.861	828.92
768.044	779.76
768.227	802.29
768.41	820.72
768.593	769.52
768.776	740.85
768.959	787.96
769.142	742.9
769.324	812.53
769.507	779.76
769.69	726.52
769.873	695.8
770.056	790
770.239	703.99
770.421	794.1
770.604	767.48
770.787	710.13
770.97	804.34
771.152	730.61
771.335	703.99
771.518	656.89
771.7	638.45
771.883	693.75
772.066	785.91
772.248	728.56
772.431	738.8
772.613	761.33
772.796	669.17
772.978	753.14
773.161	617.97
773.343	714.23
773.526	615.93
773.708	638.45
773.891	581.11
774.073	654.84
774.256	556.54
774.438	642.55
774.621	660.98
774.803	720.37
774.985	634.36
775.168	681.46
775.35	687.61
775.532	640.5
775.715	636.41
775.897	640.5
776.079	603.64
776.261	599.54
776.444	591.35
776.626	663.03
776.808	642.55
776.99	605.69
777.173	574.97
777.355	605.69
777.537	548.34
777.719	585.21
777.901	574.97
778.083	517.62
778.265	507.38
778.447	491
778.629	589.3
778.811	581.11
778.993	472.57
779.175	470.52
779.357	550.39
779.539	439.8
779.721	437.75
779.903	536.06
780.085	534.01
780.267	503.29
780.449	534.01
780.631	464.38
780.812	466.42
780.994	480.76
781.176	499.19
781.358	447.99
781.54	482.81
781.721	427.51
781.903	531.96
782.085	531.96
782.267	507.38
782.448	486.9
782.63	384.51
782.812	458.23
782.993	470.52
783.175	468.47
783.357	417.27
783.538	423.42
783.72	441.85
783.901	359.93
784.083	415.23
784.264	402.94
784.446	427.51
784.627	364.03
784.809	474.62
784.99	335.35
785.172	409.08
785.353	327.16
785.535	435.71
785.716	337.4
785.897	321.02
786.079	425.47
786.26	423.42
786.441	386.55
786.623	458.23
786.804	394.75
786.985	417.27
787.167	376.31
787.348	400.89
787.529	327.16
787.71	337.4
787.891	409.08
788.073	359.93
788.254	257.53
788.435	407.03
788.616	400.89
788.797	316.92
788.978	296.44
789.159	380.41
789.34	339.45
789.522	376.31
789.703	329.21
789.884	296.44
790.065	290.3
790.246	310.78
790.427	325.12
790.607	361.98
790.788	368.12
790.969	259.58
791.15	218.62
791.331	343.55
791.512	273.92
791.693	247.29
791.874	284.16
792.054	402.94
792.235	288.25
792.416	296.44
792.597	275.96
792.778	325.12
792.958	331.26
793.139	327.16
793.32	214.52
793.5	278.01
793.681	347.64
793.862	304.64
794.042	280.06
794.223	243.2
794.404	212.48
794.584	269.82
794.765	286.2
794.945	235
795.126	312.83
795.306	282.11
795.487	280.06
795.667	220.67
795.848	247.29
796.028	175.61
796.209	286.2
796.389	249.34
796.57	237.05
796.75	247.29
796.93	216.57
797.111	253.44
797.291	167.42
797.471	228.86
797.652	214.52
797.832	263.68
798.012	255.48
798.192	157.18
798.373	230.91
798.553	202.24
798.733	249.34
798.913	200.19
799.093	323.07
799.274	206.33
799.454	198.14
799.634	292.35
799.814	261.63
799.994	220.67
800.174	220.67
800.354	255.48
800.534	189.95
800.714	241.15
800.894	269.82
801.074	183.81
801.254	218.62
801.434	175.61
801.614	153.09
801.794	146.94
801.974	802.29
802.154	243.2
802.334	206.33
802.514	124.41
802.693	146.94
802.873	101.89
803.053	155.13
803.233	202.24
803.413	196.09
803.592	163.33
803.772	163.33
803.952	208.38
804.131	237.05
804.311	216.57
804.491	204.28
804.67	220.67
804.85	220.67
805.03	120.32
805.209	208.38
805.389	159.23
805.568	155.13
805.748	196.09
805.928	124.41
806.107	171.52
806.287	159.23
806.466	173.57
806.646	151.04
806.825	146.94
807.004	220.67
807.184	138.75
807.363	112.13
807.543	155.13
807.722	196.09
807.901	165.37
808.081	165.37
808.26	108.03
808.439	196.09
808.619	126.46
808.798	165.37
808.977	97.79
809.156	189.95
809.336	159.23
809.515	130.56
809.694	26.11
809.873	200.19
810.052	153.09
810.231	214.52
810.411	173.57
810.59	159.23
810.769	87.55
810.948	171.52
811.127	24.06
811.306	130.56
811.485	183.81
811.664	179.71
811.843	134.65
812.022	112.13
812.201	159.23
812.38	167.42
812.559	173.57
812.737	130.56
812.916	159.23
813.095	101.89
813.274	171.52
813.453	167.42
813.632	110.08
813.811	97.79
813.989	105.98
814.168	181.76
814.347	73.21
814.526	97.79
814.704	114.17
814.883	71.17
815.062	67.07
815.24	75.26
815.419	116.22
815.598	155.13
815.776	99.84
815.955	87.55
816.133	71.17
816.312	97.79
816.49	110.08
816.669	73.21
816.847	132.61
817.026	89.6
817.204	105.98
817.383	140.8
817.561	42.5
817.74	192
817.918	151.04
818.097	44.54
818.275	83.45
818.453	32.26
818.632	50.69
818.81	93.69
818.988	95.74
819.167	32.26
819.345	81.41
819.523	126.46
819.701	42.5
819.879	163.33
820.058	101.89
820.236	161.28
820.414	194.05
820.592	146.94
820.77	56.83
820.948	71.17
821.127	130.56
821.305	155.13
821.483	69.12
821.661	124.41
821.839	97.79
822.017	130.56
822.195	32.26
822.373	126.46
822.551	24.06
822.729	3.58
822.907	69.12
823.085	91.65
823.262	87.55
823.44	101.89
823.618	42.5
823.796	56.83
823.974	-47.62
824.152	67.07
824.329	167.42
824.507	163.33
824.685	58.88
824.863	89.6
825.04	52.74
825.218	81.41
825.396	65.02
825.574	48.64
825.751	-0.51
825.929	28.16
826.107	56.83
826.284	179.71
826.462	148.99
826.639	130.56
826.817	-10.75
826.994	114.17
827.172	85.5
827.349	56.83
827.527	81.41
827.704	81.41
827.882	58.88
828.059	44.54
828.237	67.07
828.414	167.42
828.591	32.26
828.769	91.65
828.946	75.26
829.124	85.5
829.301	83.45
829.478	58.88
829.655	138.75
829.833	1.54
830.01	52.74
830.187	83.45
830.364	65.02
830.542	73.21
830.719	101.89
830.896	99.84
831.073	91.65
831.25	108.03
831.427	40.45
831.604	67.07
831.782	58.88
831.959	136.7
832.136	-6.66
832.313	87.55
832.49	26.11
832.667	95.74
832.844	52.74
833.021	69.12
833.198	-4.61
833.374	44.54
833.551	167.42
833.728	40.45
833.905	44.54
834.082	54.78
834.259	81.41
834.436	105.98
834.612	32.26
834.789	71.17
834.966	28.16
835.143	108.03
835.319	11.78
835.496	48.64
835.673	97.79
835.85	103.93
836.026	93.69
836.203	13.82
836.38	-64
836.556	89.6
836.733	36.35
836.909	56.83
837.086	54.78
837.262	34.3
837.439	65.02
837.616	26.11
837.792	-18.94
837.968	81.41
838.145	-33.28
838.321	-18.94
838.498	105.98
838.674	122.37
838.851	85.5
839.027	140.8
839.203	9.73
839.38	52.74
839.556	-8.7
839.732	75.26
839.909	1.54
840.085	1.54
840.261	44.54
840.437	19.97
840.614	73.21
840.79	48.64
840.966	65.02
841.142	42.5
841.318	48.64
841.494	19.97
841.671	99.84
841.847	73.21
842.023	1.54
842.199	89.6
842.375	40.45
842.551	67.07
842.727	1.54
842.903	75.26
843.079	7.68
843.255	89.6
843.431	81.41
843.607	124.41
843.783	24.06
843.959	65.02
844.134	34.3
844.31	75.26
844.486	-25.09
844.662	-16.9
844.838	-18.94
845.013	50.69
845.189	97.79
845.365	48.64
845.541	9.73
845.716	3.58
845.892	52.74
846.068	48.64
846.244	105.98
846.419	85.5
846.595	-14.85
846.77	-18.94
846.946	50.69
847.122	73.21
847.297	-41.47
847.473	24.06
847.648	15.87
847.824	15.87
847.999	-23.04
848.175	34.3
848.35	44.54
848.526	-23.04
848.701	108.03
848.876	15.87
849.052	38.4
849.227	-16.9
849.403	13.82
849.578	60.93
849.753	89.6
849.929	22.02
850.104	-0.51
850.279	-12.8
850.454	1.54
850.63	48.64
850.805	-16.9
850.98	-16.9
851.155	-53.76
851.33	28.16
851.505	28.16
851.681	48.64
851.856	34.3
852.031	40.45
852.206	-29.18
852.381	-2.56
852.556	67.07
852.731	32.26
852.906	36.35
853.081	65.02
853.256	130.56
853.431	48.64
853.606	3.58
853.781	-23.04
853.956	-27.14
854.131	65.02
854.305	28.16
854.48	-16.9
854.655	26.11
854.83	32.26
855.005	105.98
855.18	34.3
855.354	19.97
855.529	-0.51
855.704	56.83
855.879	44.54
856.053	26.11
856.228	89.6
856.403	-4.61
856.577	38.4
856.752	40.45
856.926	-0.51
857.101	3.58
857.276	-27.14
857.45	28.16
857.625	15.87
857.799	36.35
857.974	24.06
858.148	-8.7
858.323	42.5
858.497	56.83
858.672	-18.94
858.846	-23.04
859.02	83.45
859.195	11.78
859.369	-0.51
859.543	-33.28
859.718	-8.7
859.892	-20.99
860.066	-4.61
860.241	-2.56
860.415	50.69
860.589	24.06
860.763	22.02
860.938	-25.09
861.112	5.63
861.286	50.69
861.46	7.68
861.634	32.26
861.808	40.45
861.982	15.87
862.157	-55.81
862.331	-53.76
862.505	24.06
862.679	-33.28
862.853	28.16
863.027	-16.9
863.201	46.59
863.375	-35.33
863.549	32.26
863.722	9.73
863.896	3.58
864.07	-8.7
864.244	13.82
864.418	-37.38
864.592	36.35
864.766	-8.7
864.939	9.73
865.113	32.26
865.287	24.06
865.461	-35.33
865.634	52.74
865.808	-0.51
865.982	24.06
866.156	7.68
866.329	7.68
866.503	28.16
866.676	-25.09
866.85	15.87
867.024	56.83
867.197	83.45
867.371	79.36
867.544	48.64
867.718	-49.66
867.891	24.06
868.065	28.16
868.238	44.54
868.412	-14.85
868.585	-16.9
868.759	15.87
868.932	15.87
869.105	40.45
869.279	-20.99
869.452	-49.66
869.625	50.69
869.799	11.78
869.972	-20.99
870.145	48.64
870.319	-0.51
870.492	-14.85
870.665	-25.09
870.838	26.11
871.011	58.88
871.185	-16.9
871.358	1.54
871.531	36.35
871.704	7.68
871.877	-64
872.05	-14.85
872.223	-57.86
872.396	56.83
872.569	15.87
872.742	-23.04
872.915	24.06
873.088	-6.66
873.261	-55.81
873.434	32.26
873.607	-4.61
873.78	73.21
873.953	-14.85
874.126	-35.33
874.299	36.35
874.471	-41.47
874.644	28.16
874.817	15.87
874.99	-27.14
875.163	38.4
875.335	-20.99
875.508	17.92
875.681	7.68
875.853	-29.18
876.026	-16.9
876.199	-14.85
876.371	-47.62
876.544	-37.38
876.717	-10.75
876.889	-8.7
877.062	11.78
877.234	15.87
877.407	-18.94
877.579	24.06
877.752	26.11
877.924	-18.94
878.097	24.06
878.269	42.5
878.442	-68.09
878.614	67.07
878.786	-14.85
878.959	30.21
879.131	26.11
879.303	-43.52
879.476	34.3
879.648	34.3
879.82	-41.47
879.993	5.63
880.165	-12.8
880.337	-70.14
880.509	-16.9
880.681	-57.86
880.854	-14.85
881.026	-2.56
881.198	36.35
881.37	48.64
881.542	-90.62
881.714	30.21
881.886	-23.04
882.058	-16.9
882.23	-25.09
882.402	-8.7
882.574	26.11
882.746	-47.62
882.918	50.69
883.09	-16.9
883.262	60.93
883.434	3.58
883.606	34.3
883.778	3.58
883.95	7.68
884.122	-57.86
884.293	-6.66
884.465	-57.86
884.637	-25.09
884.809	-23.04
884.98	28.16
885.152	-23.04
885.324	89.6
885.496	-53.76
885.667	56.83
885.839	3.58
886.011	15.87
886.182	-47.62
886.354	-49.66
886.525	7.68
886.697	-35.33
886.869	-4.61
887.04	-33.28
887.212	17.92
887.383	-33.28
887.555	-33.28
887.726	9.73
887.897	-25.09
888.069	-8.7
888.24	-16.9
888.412	-0.51
888.583	-45.57
888.754	-6.66
888.926	-61.95
889.097	22.02
889.268	32.26
889.44	65.02
889.611	-25.09
889.782	-23.04
889.953	-98.81
890.125	26.11
890.296	-66.05
890.467	34.3
890.638	-53.76
890.809	-41.47
890.98	-12.8
891.151	15.87
891.323	56.83
891.494	48.64
891.665	-12.8
891.836	26.11
892.007	28.16
892.178	-12.8
892.349	15.87
892.52	24.06
892.691	46.59
892.862	-10.75
893.032	-23.04
893.203	11.78
893.374	34.3
893.545	-0.51
893.716	28.16
893.887	-70.14
894.057	-27.14
894.228	-16.9
894.399	26.11
894.57	-0.51
894.74	32.26
894.911	42.5
895.082	101.89
895.253	-39.42
895.423	-125.44
895.594	22.02
895.764	22.02
895.935	9.73
896.106	48.64
896.276	7.68
896.447	-49.66
896.617	-37.38
896.788	-14.85
896.958	-98.81
897.129	-37.38
897.299	-12.8
897.47	-33.28
897.64	40.45
897.81	-74.24
897.981	-8.7
898.151	-35.33
898.322	-6.66
898.492	-16.9
898.662	-18.94
898.832	-43.52
899.003	-64
899.173	-0.51
899.343	-20.99
899.513	-53.76
