Data from USB4F104151__100__14-18-06-318.txt Node

Date: Thu Mar 13 14:18:06 EDT 2025
User: louis
Spectrometer: USB4F10415
Trigger mode: 4
Integration Time (sec): 2.000000E-2
Scans to average: 1
Electric dark correction enabled: true
Nonlinearity correction enabled: false
Boxcar width: 0
XAxis mode: Wavelengths
Number of Pixels in Spectrum: 3648
>>>>>Begin Spectral Data<<<<<
178.204	-29.18
178.424	-29.18
178.644	-29.18
178.864	-102.91
179.084	-111.1
179.304	-10.75
179.524	22.02
179.744	-53.76
179.964	38.4
180.184	-27.14
180.404	81.41
180.624	-43.52
180.844	-12.8
181.064	-49.66
181.283	32.26
181.503	-45.57
181.723	69.12
181.943	3.58
182.163	11.78
182.383	36.35
182.602	93.69
182.822	38.4
183.042	110.08
183.262	93.69
183.482	-6.66
183.701	91.65
183.921	62.98
184.141	11.78
184.361	112.13
184.58	44.54
184.8	87.55
185.02	22.02
185.239	69.12
185.459	69.12
185.679	114.17
185.898	-20.99
186.118	38.4
186.338	75.26
186.557	128.51
186.777	-14.85
186.997	-4.61
187.216	75.26
187.436	105.98
187.655	48.64
187.875	87.55
188.095	77.31
188.314	44.54
188.534	144.89
188.753	3.58
188.973	112.13
189.192	93.69
189.412	126.46
189.631	-20.99
189.851	69.12
190.07	116.22
190.29	3.58
190.509	62.98
190.729	60.93
190.948	122.37
191.168	161.28
191.387	136.7
191.607	65.02
191.826	110.08
192.045	36.35
192.265	-8.7
192.484	11.78
192.704	69.12
192.923	46.59
193.142	136.7
193.362	124.41
193.581	120.32
193.8	58.88
194.02	69.12
194.239	77.31
194.458	87.55
194.678	5.63
194.897	73.21
195.116	77.31
195.335	77.31
195.555	108.03
195.774	11.78
195.993	97.79
196.212	101.89
196.432	124.41
196.651	15.87
196.87	62.98
197.089	40.45
197.308	89.6
197.528	81.41
197.747	24.06
197.966	126.46
198.185	77.31
198.404	56.83
198.623	77.31
198.842	103.93
199.062	60.93
199.281	48.64
199.5	103.93
199.719	32.26
199.938	79.36
200.157	110.08
200.376	87.55
200.595	87.55
200.814	77.31
201.033	93.69
201.252	110.08
201.471	46.59
201.69	-25.09
201.909	114.17
202.128	101.89
202.347	101.89
202.566	85.5
202.785	89.6
203.004	69.12
203.223	148.99
203.442	132.61
203.661	69.12
203.879	46.59
204.098	103.93
204.317	56.83
204.536	77.31
204.755	77.31
204.974	34.3
205.193	105.98
205.411	146.94
205.63	56.83
205.849	110.08
206.068	19.97
206.287	71.17
206.505	38.4
206.724	91.65
206.943	44.54
207.162	13.82
207.381	52.74
207.599	67.07
207.818	79.36
208.037	69.12
208.255	62.98
208.474	140.8
208.693	58.88
208.911	62.98
209.13	144.89
209.349	81.41
209.567	13.82
209.786	108.03
210.005	11.78
210.223	26.11
210.442	-43.52
210.661	77.31
210.879	62.98
211.098	85.5
211.316	116.22
211.535	79.36
211.753	73.21
211.972	81.41
212.191	-6.66
212.409	87.55
212.628	-4.61
212.846	32.26
213.065	81.41
213.283	116.22
213.502	46.59
213.72	77.31
213.938	36.35
214.157	114.17
214.375	93.69
214.594	40.45
214.812	52.74
215.031	128.51
215.249	46.59
215.467	40.45
215.686	85.5
215.904	60.93
216.122	69.12
216.341	122.37
216.559	89.6
216.778	91.65
216.996	87.55
217.214	-33.28
217.432	42.5
217.651	36.35
217.869	44.54
218.087	17.92
218.306	32.26
218.524	77.31
218.742	85.5
218.96	46.59
219.179	87.55
219.397	89.6
219.615	183.81
219.833	28.16
220.051	101.89
220.27	48.64
220.488	87.55
220.706	81.41
220.924	13.82
221.142	77.31
221.36	67.07
221.578	114.17
221.796	89.6
222.015	85.5
222.233	128.51
222.451	105.98
222.669	52.74
222.887	95.74
223.105	118.27
223.323	24.06
223.541	28.16
223.759	69.12
223.977	48.64
224.195	79.36
224.413	110.08
224.631	93.69
224.849	105.98
225.067	87.55
225.285	52.74
225.503	34.3
225.721	15.87
225.939	52.74
226.157	-4.61
226.375	128.51
226.592	85.5
226.81	54.78
227.028	93.69
227.246	136.7
227.464	120.32
227.682	79.36
227.9	118.27
228.117	40.45
228.335	44.54
228.553	101.89
228.771	48.64
228.989	153.09
229.206	46.59
229.424	120.32
229.642	85.5
229.86	128.51
230.077	52.74
230.295	103.93
230.513	48.64
230.731	101.89
230.948	101.89
231.166	77.31
231.384	112.13
231.601	183.81
231.819	46.59
232.037	62.98
232.254	36.35
232.472	134.65
232.689	46.59
232.907	140.8
233.125	-23.04
233.342	101.89
233.56	40.45
233.777	67.07
233.995	132.61
234.213	110.08
234.43	167.42
234.648	62.98
234.865	22.02
235.083	32.26
235.3	48.64
235.518	60.93
235.735	93.69
235.953	153.09
236.17	75.26
236.388	56.83
236.605	69.12
236.822	34.3
237.04	153.09
237.257	79.36
237.475	73.21
237.692	52.74
237.909	101.89
238.127	24.06
238.344	112.13
238.562	122.37
238.779	30.21
238.996	87.55
239.214	-27.14
239.431	97.79
239.648	103.93
239.865	77.31
240.083	52.74
240.3	120.32
240.517	28.16
240.735	32.26
240.952	11.78
241.169	77.31
241.386	85.5
241.603	83.45
241.821	56.83
242.038	85.5
242.255	136.7
242.472	65.02
242.689	85.5
242.907	46.59
243.124	83.45
243.341	130.56
243.558	19.97
243.775	69.12
243.992	54.78
244.209	34.3
244.426	112.13
244.643	69.12
244.86	19.97
245.078	54.78
245.295	126.46
245.512	75.26
245.729	26.11
245.946	161.28
246.163	79.36
246.38	114.17
246.597	83.45
246.814	28.16
247.031	65.02
247.248	151.04
247.464	40.45
247.681	32.26
247.898	110.08
248.115	73.21
248.332	46.59
248.549	99.84
248.766	89.6
248.983	48.64
249.2	52.74
249.417	38.4
249.633	-8.7
249.85	44.54
250.067	17.92
250.284	36.35
250.501	110.08
250.717	24.06
250.934	69.12
251.151	103.93
251.368	11.78
251.585	118.27
251.801	73.21
252.018	5.63
252.235	48.64
252.451	19.97
252.668	13.82
252.885	108.03
253.102	28.16
253.318	28.16
253.535	58.88
253.752	67.07
253.968	134.65
254.185	38.4
254.401	128.51
254.618	79.36
254.835	58.88
255.051	75.26
255.268	28.16
255.484	69.12
255.701	-12.8
255.917	95.74
256.134	77.31
256.351	99.84
256.567	30.21
256.784	77.31
257	15.87
257.217	87.55
257.433	120.32
257.65	65.02
257.866	71.17
258.082	75.26
258.299	-0.51
258.515	134.65
258.732	81.41
258.948	44.54
259.165	11.78
259.381	73.21
259.597	32.26
259.814	87.55
260.03	32.26
260.246	58.88
260.463	73.21
260.679	19.97
260.895	93.69
261.112	97.79
261.328	65.02
261.544	7.68
261.761	110.08
261.977	81.41
262.193	-33.28
262.409	79.36
262.626	79.36
262.842	93.69
263.058	134.65
263.274	87.55
263.49	77.31
263.707	167.42
263.923	85.5
264.139	52.74
264.355	110.08
264.571	110.08
264.787	62.98
265.004	151.04
265.22	11.78
265.436	36.35
265.652	77.31
265.868	136.7
266.084	130.56
266.3	73.21
266.516	56.83
266.732	83.45
266.948	52.74
267.164	159.23
267.38	30.21
267.596	134.65
267.812	28.16
268.028	81.41
268.244	34.3
268.46	118.27
268.676	28.16
268.892	128.51
269.108	91.65
269.324	24.06
269.54	77.31
269.756	60.93
269.972	97.79
270.188	79.36
270.403	81.41
270.619	62.98
270.835	67.07
271.051	44.54
271.267	89.6
271.483	60.93
271.698	77.31
271.914	71.17
272.13	101.89
272.346	28.16
272.562	46.59
272.777	87.55
272.993	67.07
273.209	81.41
273.425	101.89
273.64	81.41
273.856	56.83
274.072	77.31
274.287	60.93
274.503	36.35
274.719	69.12
274.934	65.02
275.15	62.98
275.366	144.89
275.581	122.37
275.797	114.17
276.012	22.02
276.228	60.93
276.444	77.31
276.659	118.27
276.875	40.45
277.09	134.65
277.306	87.55
277.521	151.04
277.737	48.64
277.952	30.21
278.168	46.59
278.383	101.89
278.599	91.65
278.814	93.69
279.03	110.08
279.245	77.31
279.461	122.37
279.676	50.69
279.892	34.3
280.107	95.74
280.322	114.17
280.538	81.41
280.753	67.07
280.969	87.55
281.184	65.02
281.399	159.23
281.615	52.74
281.83	52.74
282.045	-47.62
282.26	26.11
282.476	58.88
282.691	126.46
282.906	34.3
283.122	108.03
283.337	112.13
283.552	134.65
283.767	-29.18
283.983	-25.09
284.198	52.74
284.413	93.69
284.628	114.17
284.843	75.26
285.058	116.22
285.274	22.02
285.489	65.02
285.704	44.54
285.919	56.83
286.134	62.98
286.349	99.84
286.564	46.59
286.779	81.41
286.995	36.35
287.21	75.26
287.425	87.55
287.64	65.02
287.855	60.93
288.07	7.68
288.285	19.97
288.5	93.69
288.715	101.89
288.93	114.17
289.145	65.02
289.36	110.08
289.575	118.27
289.79	69.12
290.004	73.21
290.219	93.69
290.434	81.41
290.649	32.26
290.864	62.98
291.079	85.5
291.294	101.89
291.509	71.17
291.724	101.89
291.938	103.93
292.153	75.26
292.368	71.17
292.583	48.64
292.798	144.89
293.012	83.45
293.227	3.58
293.442	-2.56
293.657	87.55
293.871	167.42
294.086	65.02
294.301	140.8
294.516	79.36
294.73	167.42
294.945	110.08
295.16	69.12
295.374	67.07
295.589	167.42
295.804	50.69
296.018	118.27
296.233	120.32
296.447	50.69
296.662	79.36
296.877	77.31
297.091	34.3
297.306	71.17
297.52	50.69
297.735	69.12
297.949	69.12
298.164	126.46
298.378	60.93
298.593	-35.33
298.807	95.74
299.022	75.26
299.236	77.31
299.451	32.26
299.665	30.21
299.88	65.02
300.094	97.79
300.309	71.17
300.523	52.74
300.737	89.6
300.952	11.78
301.166	38.4
301.381	95.74
301.595	60.93
301.809	112.13
302.024	26.11
302.238	46.59
302.452	122.37
302.667	36.35
302.881	169.47
303.095	73.21
303.309	44.54
303.524	101.89
303.738	56.83
303.952	32.26
304.166	44.54
304.381	-4.61
304.595	65.02
304.809	38.4
305.023	128.51
305.237	81.41
305.452	101.89
305.666	101.89
305.88	54.78
306.094	79.36
306.308	69.12
306.522	44.54
306.736	52.74
306.95	58.88
307.164	95.74
307.379	38.4
307.593	167.42
307.807	32.26
308.021	101.89
308.235	103.93
308.449	62.98
308.663	69.12
308.877	52.74
309.091	-8.7
309.305	93.69
309.519	87.55
309.733	101.89
309.947	44.54
310.161	153.09
310.374	101.89
310.588	101.89
310.802	22.02
311.016	93.69
311.23	75.26
311.444	101.89
311.658	75.26
311.872	83.45
312.085	110.08
312.299	153.09
312.513	67.07
312.727	60.93
312.941	26.11
313.154	52.74
313.368	77.31
313.582	77.31
313.796	85.5
314.009	56.83
314.223	91.65
314.437	142.85
314.651	19.97
314.864	60.93
315.078	77.31
315.292	19.97
315.505	36.35
315.719	58.88
315.933	30.21
316.146	77.31
316.36	34.3
316.573	165.37
316.787	97.79
317.001	69.12
317.214	54.78
317.428	40.45
317.641	122.37
317.855	120.32
318.068	13.82
318.282	87.55
318.495	87.55
318.709	93.69
318.922	71.17
319.136	83.45
319.349	81.41
319.563	13.82
319.776	87.55
319.99	97.79
320.203	46.59
320.417	122.37
320.63	101.89
320.843	118.27
321.057	179.71
321.27	34.3
321.483	134.65
321.697	81.41
321.91	60.93
322.124	77.31
322.337	36.35
322.55	142.85
322.763	130.56
322.977	112.13
323.19	22.02
323.403	-18.94
323.617	85.5
323.83	38.4
324.043	42.5
324.256	-35.33
324.469	110.08
324.683	97.79
324.896	93.69
325.109	93.69
325.322	138.75
325.535	93.69
325.748	159.23
325.962	134.65
326.175	11.78
326.388	58.88
326.601	28.16
326.814	54.78
327.027	97.79
327.24	118.27
327.453	67.07
327.666	62.98
327.879	116.22
328.092	120.32
328.305	136.7
328.518	130.56
328.731	87.55
328.944	44.54
329.157	97.79
329.37	52.74
329.583	151.04
329.796	105.98
330.009	15.87
330.222	112.13
330.435	179.71
330.648	81.41
330.861	130.56
331.073	159.23
331.286	99.84
331.499	112.13
331.712	50.69
331.925	77.31
332.138	110.08
332.35	134.65
332.563	36.35
332.776	112.13
332.989	38.4
333.202	105.98
333.414	118.27
333.627	155.13
333.84	142.85
334.053	69.12
334.265	28.16
334.478	30.21
334.691	62.98
334.903	89.6
335.116	101.89
335.329	67.07
335.541	159.23
335.754	126.46
335.966	91.65
336.179	93.69
336.392	93.69
336.604	155.13
336.817	134.65
337.029	79.36
337.242	67.07
337.454	110.08
337.667	58.88
337.88	153.09
338.092	103.93
338.305	48.64
338.517	89.6
338.729	91.65
338.942	97.79
339.154	54.78
339.367	13.82
339.579	91.65
339.792	95.74
340.004	126.46
340.217	58.88
340.429	54.78
340.641	19.97
340.854	126.46
341.066	126.46
341.278	110.08
341.491	151.04
341.703	148.99
341.915	167.42
342.128	44.54
342.34	38.4
342.552	46.59
342.764	73.21
342.977	130.56
343.189	101.89
343.401	71.17
343.613	22.02
343.826	65.02
344.038	48.64
344.25	108.03
344.462	105.98
344.674	87.55
344.886	36.35
345.099	56.83
345.311	93.69
345.523	89.6
345.735	56.83
345.947	-18.94
346.159	58.88
346.371	62.98
346.583	153.09
346.795	161.28
347.007	134.65
347.219	185.85
347.431	40.45
347.643	132.61
347.855	120.32
348.067	77.31
348.279	36.35
348.491	124.41
348.703	169.47
348.915	69.12
349.127	54.78
349.339	48.64
349.551	85.5
349.763	28.16
349.975	95.74
350.187	124.41
350.399	155.13
350.61	50.69
350.822	36.35
351.034	71.17
351.246	79.36
351.458	99.84
351.669	30.21
351.881	138.75
352.093	202.24
352.305	112.13
352.517	83.45
352.728	85.5
352.94	112.13
353.152	120.32
353.363	81.41
353.575	167.42
353.787	103.93
353.999	69.12
354.21	151.04
354.422	40.45
354.633	97.79
354.845	93.69
355.057	89.6
355.268	52.74
355.48	142.85
355.692	112.13
355.903	69.12
356.115	26.11
356.326	34.3
356.538	134.65
356.749	167.42
356.961	130.56
357.172	130.56
357.384	46.59
357.595	144.89
357.807	69.12
358.018	87.55
358.23	67.07
358.441	99.84
358.653	101.89
358.864	103.93
359.075	65.02
359.287	79.36
359.498	77.31
359.709	83.45
359.921	60.93
360.132	85.5
360.344	71.17
360.555	69.12
360.766	101.89
360.977	77.31
361.189	112.13
361.4	73.21
361.611	112.13
361.823	36.35
362.034	110.08
362.245	44.54
362.456	93.69
362.667	144.89
362.879	124.41
363.09	69.12
363.301	62.98
363.512	103.93
363.723	151.04
363.935	130.56
364.146	169.47
364.357	81.41
364.568	126.46
364.779	11.78
364.99	105.98
365.201	114.17
365.412	87.55
365.623	34.3
365.834	126.46
366.045	112.13
366.256	208.38
366.467	58.88
366.678	60.93
366.889	73.21
367.1	142.85
367.311	38.4
367.522	77.31
367.733	73.21
367.944	103.93
368.155	52.74
368.366	134.65
368.577	95.74
368.788	65.02
368.999	69.12
369.209	97.79
369.42	77.31
369.631	208.38
369.842	97.79
370.053	67.07
370.264	89.6
370.474	73.21
370.685	69.12
370.896	103.93
371.107	44.54
371.317	159.23
371.528	42.5
371.739	60.93
371.95	89.6
372.16	69.12
372.371	22.02
372.582	85.5
372.792	83.45
373.003	97.79
373.214	77.31
373.424	108.03
373.635	36.35
373.846	110.08
374.056	159.23
374.267	105.98
374.477	54.78
374.688	85.5
374.898	81.41
375.109	77.31
375.319	50.69
375.53	138.75
375.74	71.17
375.951	163.33
376.161	105.98
376.372	81.41
376.582	71.17
376.793	89.6
377.003	93.69
377.214	73.21
377.424	126.46
377.635	103.93
377.845	30.21
378.055	126.46
378.266	71.17
378.476	36.35
378.686	36.35
378.897	87.55
379.107	40.45
379.317	210.43
379.528	97.79
379.738	77.31
379.948	26.11
380.158	85.5
380.369	58.88
380.579	134.65
380.789	26.11
380.999	101.89
381.21	128.51
381.42	153.09
381.63	116.22
381.84	194.05
382.05	50.69
382.261	110.08
382.471	134.65
382.681	28.16
382.891	79.36
383.101	97.79
383.311	122.37
383.521	101.89
383.731	103.93
383.941	83.45
384.151	65.02
384.361	71.17
384.571	69.12
384.781	87.55
384.991	42.5
385.201	116.22
385.411	105.98
385.621	95.74
385.831	85.5
386.041	153.09
386.251	144.89
386.461	167.42
386.671	40.45
386.881	77.31
387.091	38.4
387.301	159.23
387.511	58.88
387.72	175.61
387.93	60.93
388.14	128.51
388.35	71.17
388.56	120.32
388.769	185.85
388.979	85.5
389.189	17.92
389.399	105.98
389.609	120.32
389.818	185.85
390.028	44.54
390.238	101.89
390.447	46.59
390.657	124.41
390.867	161.28
391.076	85.5
391.286	136.7
391.496	101.89
391.705	69.12
391.915	204.28
392.125	120.32
392.334	173.57
392.544	167.42
392.753	87.55
392.963	87.55
393.172	126.46
393.382	93.69
393.591	52.74
393.801	122.37
394.01	153.09
394.22	97.79
394.429	153.09
394.639	153.09
394.848	136.7
395.058	134.65
395.267	83.45
395.477	187.9
395.686	69.12
395.895	142.85
396.105	118.27
396.314	122.37
396.524	93.69
396.733	77.31
396.942	142.85
397.152	99.84
397.361	183.81
397.57	120.32
397.78	163.33
397.989	89.6
398.198	202.24
398.407	118.27
398.617	273.92
398.826	171.52
399.035	103.93
399.244	169.47
399.453	124.41
399.663	118.27
399.872	167.42
400.081	151.04
400.29	171.52
400.499	175.61
400.708	138.75
400.917	175.61
401.127	110.08
401.336	112.13
401.545	171.52
401.754	210.43
401.963	148.99
402.172	136.7
402.381	93.69
402.59	224.76
402.799	144.89
403.008	241.15
403.217	155.13
403.426	167.42
403.635	167.42
403.844	167.42
404.053	122.37
404.262	175.61
404.471	241.15
404.68	183.81
404.888	232.96
405.097	179.71
405.306	259.58
405.515	183.81
405.724	161.28
405.933	249.34
406.142	243.2
406.35	261.63
406.559	173.57
406.768	255.48
406.977	355.83
407.185	316.92
407.394	306.68
407.603	167.42
407.812	292.35
408.02	374.27
408.229	359.93
408.438	241.15
408.646	325.12
408.855	278.01
409.064	329.21
409.272	376.31
409.481	331.26
409.69	331.26
409.898	282.11
410.107	306.68
410.315	396.79
410.524	339.45
410.733	409.08
410.941	421.37
411.15	450.04
411.358	531.96
411.567	513.53
411.775	478.71
411.984	458.23
412.192	617.97
412.401	517.62
412.609	564.73
412.818	529.91
413.026	568.82
413.234	650.74
413.443	634.36
413.651	683.51
413.86	685.56
414.068	675.32
414.276	773.62
414.485	712.18
414.693	783.86
414.901	857.59
415.11	880.11
415.318	863.73
415.526	847.35
415.734	972.27
415.943	910.83
416.151	1031.66
416.359	929.27
416.567	1035.76
416.776	1117.68
416.984	1035.76
417.192	1185.26
417.4	1129.97
417.608	1125.87
417.817	1183.21
418.025	1261.04
418.233	1496.55
418.441	1355.24
418.649	1404.39
418.857	1428.97
419.065	1469.93
419.273	1394.15
419.481	1484.27
419.689	1617.38
419.897	1670.63
420.105	1773.03
420.313	1748.45
420.521	1924.58
420.729	1928.67
420.937	2006.5
421.145	2008.55
421.353	2014.69
421.561	2231.77
421.769	2153.95
421.977	2268.64
422.185	2274.78
422.393	2352.6
422.601	2581.98
422.809	2663.9
423.017	2567.64
423.224	2797.01
423.432	2672.09
423.64	2862.55
423.848	3010
424.056	2880.98
424.263	3218.89
424.471	3124.69
424.679	3286.48
424.887	3374.54
425.094	3671.5
425.302	3665.35
425.51	3724.74
425.718	3904.96
425.925	3831.24
426.133	4003.27
426.341	4281.79
426.548	4419
426.756	4535.74
426.964	4521.4
427.171	4640.19
427.379	4801.97
427.586	5045.68
427.794	5103.03
428.001	5328.3
428.209	5565.87
428.417	5430.7
428.624	5774.76
428.832	5750.18
429.039	5887.4
429.247	5873.06
429.454	6493.6
429.662	6598.04
429.869	6266.27
430.076	6858.14
430.284	6593.95
430.491	6870.42
430.699	7251.35
430.906	7286.16
431.114	7388.56
431.321	7515.53
431.528	7935.37
431.736	8287.62
431.943	8516.99
432.15	8449.41
432.358	8387.97
432.565	8869.24
432.772	8918.39
432.979	9303.41
433.187	9489.78
433.394	9516.4
433.601	10384.74
433.808	10210.66
434.016	10233.19
434.223	10526.05
434.43	11332.95
434.637	10972.5
434.844	11693.39
435.052	11928.91
435.259	11773.26
435.466	11746.64
435.673	11930.95
435.88	12541.25
436.087	12979.51
436.294	13036.86
436.501	12999.99
436.708	13151.54
436.915	13610.29
437.122	14189.86
437.329	14118.18
437.537	14724.38
437.743	14761.25
437.95	14720.29
438.157	15285.53
438.364	15930.64
438.571	16069.9
438.778	16012.56
438.985	17716.47
439.192	16739.58
439.399	17288.44
439.606	16960.77
439.813	17954.03
440.02	19141.85
440.227	18652.39
440.433	18463.97
440.64	19100.89
440.847	18877.66
441.054	19279.07
441.261	20581.57
441.467	20419.78
441.674	21009.6
441.881	21556.41
442.088	21476.54
442.294	21304.51
442.501	21662.9
442.708	22301.87
442.914	23340.19
443.121	24155.28
443.328	23477.4
443.534	25140.35
443.741	24433.8
443.948	23895.19
444.154	25851
444.361	25670.78
444.568	25889.91
444.774	25869.43
444.981	26156.14
445.187	26633.32
445.394	27989.08
445.6	27749.46
445.807	30501.93
446.013	29115.46
446.22	29248.58
446.426	30440.5
446.633	30581.81
446.839	31974.42
447.046	30514.22
447.252	31970.33
447.459	32304.15
447.665	32162.84
447.871	33541.12
448.078	35042.28
448.284	33367.04
448.491	34292.72
448.697	36031.45
448.903	36232.15
449.11	35918.81
449.316	35804.13
449.522	36461.52
449.728	37493.7
449.935	37782.46
450.141	37522.37
450.347	38581.17
450.553	37442.5
450.76	37878.72
450.966	39144.36
451.172	38308.79
451.378	39648.16
451.584	38611.89
451.791	39873.44
451.997	39560.1
452.203	40317.85
452.409	40287.13
452.615	40256.41
452.821	38589.36
453.027	38353.85
453.233	40305.56
453.44	38765.49
453.646	38773.68
453.852	38978.48
454.058	39705.51
454.264	38269.88
454.47	39941.02
454.676	38532.02
454.882	39529.38
455.088	36314.07
455.294	36785.1
455.5	37501.89
455.705	38085.56
455.911	36459.48
456.117	35705.82
456.323	35343.33
456.529	33500.16
456.735	35128.3
456.941	34118.65
457.147	33799.16
457.352	32623.63
457.558	32015.38
457.764	32121.88
457.97	31822.87
458.176	31159.33
458.381	30770.22
458.587	29557.82
458.793	29488.19
458.999	28105.81
459.204	30157.88
459.41	29375.55
459.616	27296.86
459.821	27110.5
460.027	26987.62
460.233	26846.31
460.438	25595
460.644	25787.51
460.85	24679.56
461.055	24157.33
461.261	24003.73
461.466	22295.72
461.672	21460.15
461.878	23100.58
462.083	21724.34
462.289	21097.66
462.494	21208.25
462.7	20288.71
462.905	19610.84
463.111	20290.76
463.316	20636.87
463.522	19885.26
463.727	19793.11
463.932	19860.69
464.138	19741.91
464.343	19553.49
464.549	18912.48
464.754	19889.36
464.959	19623.12
465.165	19412.18
465.37	18656.48
465.575	18267.37
465.781	19289.31
465.986	19209.43
466.191	18238.7
466.397	18173.16
466.602	17104.12
466.807	17886.45
467.012	17734.9
467.218	17462.52
467.423	17677.55
467.628	17597.68
467.833	18365.67
468.038	17519.86
468.244	17065.21
468.449	17738.99
468.654	17210.62
468.859	16950.53
469.064	17014.01
469.269	16278.79
469.474	16483.59
469.679	16807.17
469.885	16432.39
470.09	16571.65
470.295	16301.32
470.5	15801.61
470.705	16346.37
470.91	15674.64
471.115	15842.57
471.32	16014.6
471.525	15731.98
471.73	15357.21
471.935	15168.79
472.139	15000.86
472.344	15136.03
472.549	14785.82
472.754	14642.46
472.959	14867.74
473.164	14114.09
473.369	13841.71
473.574	14396.71
473.778	14286.12
473.983	14159.14
474.188	14175.53
474.393	13528.37
474.598	13636.91
474.802	13530.42
475.007	13376.82
475.212	13358.39
475.417	12823.87
475.621	12969.27
475.826	13096.25
476.031	12346.69
476.235	12385.6
476.44	12739.9
476.645	12397.89
476.849	12547.39
477.054	12469.57
477.259	12168.52
477.463	12199.24
477.668	11861.32
477.872	11930.95
478.077	11732.3
478.282	11380.05
478.486	11439.44
478.691	11261.27
478.895	11246.93
479.1	11238.74
479.304	11326.8
479.509	10872.15
479.713	11144.53
479.918	10917.21
480.122	10591.58
480.326	10835.29
480.531	11021.66
480.735	10591.58
480.94	10614.11
481.144	11177.3
481.348	10382.69
481.553	10556.77
481.757	10331.49
481.961	10415.46
482.166	10739.04
482.37	10569.05
482.574	10411.36
482.778	10472.8
482.983	10679.65
483.187	10405.22
483.391	10345.83
483.595	10282.34
483.8	10300.77
484.004	10448.22
484.208	10628.45
484.412	10487.14
484.616	10376.55
484.821	10378.59
485.025	10311.01
485.229	10517.86
485.433	10327.39
485.637	10341.73
485.841	10507.62
486.045	10231.14
486.249	10368.35
486.453	10134.89
486.657	10480.99
486.861	10354.02
487.065	10040.68
487.269	10313.06
487.473	10202.47
487.677	10550.62
487.881	10474.85
488.085	10356.07
488.289	10333.54
488.493	10511.71
488.697	10519.9
488.901	10521.95
489.105	10390.88
489.309	10626.4
489.512	10577.25
489.716	10710.36
489.92	10612.06
490.124	10489.18
490.328	10628.45
490.531	10489.18
490.735	10667.36
490.939	10655.07
491.143	10837.34
491.346	10732.89
491.55	10980.7
491.754	10984.79
491.958	10788.19
492.161	10837.34
492.365	10968.41
492.569	10925.4
492.772	10900.83
492.976	10958.17
493.18	11019.61
493.383	11302.23
493.587	11414.87
493.79	11173.21
493.994	11244.88
494.197	11447.63
494.401	11713.87
494.605	11459.92
494.808	11539.79
495.012	11681.1
495.215	11705.68
495.419	11883.85
495.622	11748.68
495.825	11900.23
496.029	12205.38
496.232	12619.07
496.436	12408.13
496.639	12717.37
496.843	12389.7
497.046	12909.88
497.249	12850.49
497.453	12879.16
497.656	12815.68
497.859	13045.05
498.063	13393.2
498.266	13661.49
498.469	13317.43
498.673	13522.23
498.876	13980.97
499.079	14118.18
499.282	13710.64
499.485	14187.82
499.689	14198.06
499.892	14464.29
500.095	14558.5
500.298	15029.53
500.501	14806.3
500.705	15062.3
500.908	15236.38
501.111	15699.22
501.314	15592.72
501.517	15711.5
501.72	15852.81
501.923	15920.4
502.126	16192.78
502.329	16430.34
502.532	16348.42
502.735	16817.41
502.938	16995.58
503.141	17052.92
503.344	17315.06
503.547	17409.27
503.75	17718.51
503.953	18066.67
504.156	18078.96
504.359	18257.13
504.562	18019.57
504.765	18734.31
504.968	18746.59
505.17	18808.03
505.373	18863.33
505.576	19320.03
505.779	19242.2
505.982	19467.48
506.185	20303.05
506.387	20178.12
506.59	20409.54
506.793	20520.13
506.996	20610.25
507.198	21230.78
507.401	21308.6
507.604	21580.98
507.807	21900.47
508.009	22064.3
508.212	22191.28
508.415	22305.96
508.617	22480.04
508.82	22803.62
509.022	22635.69
509.225	23080.1
509.428	23344.28
509.63	23686.29
509.833	23680.15
510.035	24134.8
510.238	23932.05
510.44	24378.51
510.643	24681.61
510.845	25023.62
511.048	24990.85
511.25	25531.51
511.453	25179.26
511.655	26258.54
511.858	26152.05
512.06	26190.96
512.262	26715.24
512.465	26512.49
512.667	27139.17
512.87	27559
513.072	27337.82
513.274	28081.24
513.477	28081.24
513.679	28367.95
513.881	28771.4
514.084	28677.19
514.286	28935.24
514.488	28933.19
514.69	29985.85
514.893	29850.68
515.095	29985.85
515.297	30247.99
515.499	30716.97
515.701	31069.22
515.904	31179.81
516.106	31239.2
516.308	31296.55
516.51	31978.52
516.712	31652.89
516.914	32371.73
517.116	33100.81
517.318	33057.8
517.52	32713.74
517.722	33199.11
517.925	33672.19
518.127	33854.46
518.329	34259.96
518.531	34407.41
518.733	35259.37
518.935	35060.71
519.136	35099.62
519.338	35730.4
519.54	35851.23
519.742	35982.3
519.944	36123.61
520.146	36506.58
520.348	36961.23
520.55	37127.11
520.752	37211.08
520.954	37813.18
521.155	37442.5
521.357	38165.43
521.559	38491.06
521.761	38773.68
521.963	38859.7
522.164	39150.51
522.366	39252.91
522.568	39459.75
522.77	39721.89
522.971	40518.55
523.173	39844.77
523.375	40309.66
523.576	40616.85
523.778	40692.63
523.98	40817.55
524.181	41581.45
524.383	41782.15
524.584	41796.48
524.786	41769.86
524.988	41755.52
525.189	42066.81
525.391	42457.98
525.592	43105.13
525.794	42875.76
525.995	42789.75
526.197	42689.4
526.398	43055.98
526.6	43500.39
526.801	44221.28
527.003	43383.66
527.204	43955.04
527.406	43907.94
527.607	44055.39
527.808	44266.33
528.01	43670.37
528.211	44376.92
528.412	44981.07
528.614	44594.01
528.815	44591.96
529.016	45114.19
529.218	44872.53
529.419	45271.89
529.62	44970.83
529.822	44600.15
530.023	45394.76
530.224	45335.37
530.425	45169.49
530.626	45046.61
530.828	44612.44
531.029	45955.91
531.23	45376.33
531.431	45331.28
531.632	45255.5
531.833	45675.34
532.035	46084.93
532.236	45867.84
532.437	46121.79
532.638	45761.35
532.839	46086.98
533.04	45661
533.241	45564.74
533.442	46443.32
533.643	46117.7
533.844	45974.34
534.045	46330.69
534.246	45814.6
534.447	46457.66
534.648	46009.15
534.849	46420.8
535.05	46056.26
535.251	46527.29
535.451	46027.59
535.652	46170.94
535.853	46236.48
536.054	46572.35
536.255	46408.51
536.456	46377.79
536.657	47055.67
536.857	46498.62
537.058	45996.87
537.259	46785.33
537.46	46629.69
537.66	45980.48
537.861	46134.08
538.062	46465.85
538.263	46072.64
538.463	46154.56
538.664	46525.24
538.865	46588.73
539.065	46279.49
539.266	45892.42
539.466	46803.77
539.667	45554.5
539.868	46836.53
540.068	46498.62
540.269	45998.91
540.469	46742.33
540.67	46048.07
540.87	46115.65
541.071	46152.51
541.271	46560.06
541.472	45990.72
541.672	45880.13
541.873	45796.17
542.073	45628.23
542.274	46283.58
542.474	46009.15
542.675	45617.99
542.875	46240.57
543.075	45927.24
543.276	45355.85
543.476	46232.38
543.676	45720.39
543.877	46230.33
544.077	46046.02
544.277	46244.67
544.478	45661
544.678	46021.44
544.878	45847.36
545.078	45867.84
545.279	45617.99
545.479	45949.76
545.679	45701.96
545.879	45859.65
546.079	45966.15
546.28	45693.77
546.48	45630.28
546.68	45706.05
546.88	45529.93
547.08	45962.05
547.28	45566.79
547.48	45321.04
547.68	45960
547.88	45353.8
548.081	45409.1
548.281	45894.47
548.481	45591.37
548.681	45933.38
548.881	46046.02
549.081	45710.15
549.28	45275.98
549.48	45919.04
549.68	45460.3
549.88	46052.16
550.08	45800.26
550.28	45556.55
550.48	45433.67
550.68	45761.35
550.88	45392.72
551.08	45376.33
551.279	45728.58
551.479	45448.01
551.679	45566.79
551.879	45329.23
552.079	45646.66
552.278	45546.31
552.478	45650.76
552.678	45337.42
552.878	45855.56
553.077	45357.9
553.277	45151.06
553.477	45761.35
553.676	45382.48
553.876	45183.82
554.076	45114.19
554.275	45374.28
554.475	44886.87
554.674	45198.16
554.874	45163.34
555.074	44901.2
555.273	45187.92
555.473	45005.65
555.672	44720.98
555.872	45091.66
556.071	45243.21
556.271	45026.13
556.47	44680.02
556.67	44471.13
556.869	44841.81
557.068	44778.32
557.268	44587.86
557.467	44544.86
557.667	44628.82
557.866	44573.53
558.065	44485.47
558.265	44360.54
558.464	44348.25
558.663	45116.24
558.863	44278.62
559.062	45224.78
559.261	44178.27
559.461	44503.9
559.66	44065.63
559.859	44718.93
560.058	44057.44
560.258	44346.2
560.457	43645.8
560.656	44198.75
560.855	44200.8
561.054	44106.59
561.253	43842.4
561.453	43676.52
561.652	44401.5
561.851	44202.85
562.05	43688.81
562.249	43469.67
562.448	44014.43
562.647	43418.47
562.846	43395.95
563.045	43305.84
563.244	42754.93
563.443	43346.79
563.642	43045.74
563.841	43479.91
564.04	42818.42
564.239	43172.72
564.438	42849.14
564.637	43092.85
564.836	43027.31
565.035	42636.15
565.234	42769.27
565.432	42566.52
565.631	42804.08
565.83	42666.87
566.029	42423.16
566.228	42781.56
566.427	42222.46
566.625	42158.97
566.824	41890.69
567.023	42300.28
567.222	41378.7
567.42	42316.67
567.619	41894.78
567.818	41821.06
568.016	41714.56
568.215	41943.94
568.414	41372.55
568.612	41880.45
568.811	41663.36
569.01	41470.86
569.208	40962.96
569.407	41468.81
569.605	40666
569.804	41413.51
570.002	40967.05
570.201	41507.72
570.4	40770.45
570.598	40551.32
570.797	40596.37
570.995	40541.08
571.193	40203.16
571.392	40967.05
571.59	40444.82
571.789	40407.96
571.987	40080.28
572.186	40174.49
572.384	39900.06
572.582	40016.8
572.781	40092.57
572.979	39490.47
573.177	39904.16
573.376	39816.1
573.574	39480.23
573.772	39560.1
573.971	39525.28
574.169	39183.27
574.367	39019.44
574.565	39451.56
574.763	39154.6
574.962	39121.84
575.16	38730.67
575.358	39138.22
575.556	38316.98
575.754	39091.12
575.952	38501.3
576.151	38767.54
576.349	38243.26
576.547	38759.34
576.745	38214.58
576.943	38089.66
577.141	38255.54
577.339	37839.81
577.537	37745.6
577.735	37565.38
577.933	37553.09
578.131	38155.19
578.329	37528.52
578.527	37372.87
578.725	37376.97
578.923	37462.98
579.121	37059.53
579.319	37008.33
579.516	37102.54
579.714	37262.28
579.912	36817.87
580.11	36989.9
580.308	37028.81
580.506	36705.23
580.704	36293.59
580.901	36774.86
581.099	36602.83
581.297	36201.43
581.495	36123.61
581.692	36162.52
581.89	35945.44
582.088	36336.6
582.285	35908.57
582.483	36381.65
582.681	35836.89
582.878	35994.59
583.076	35288.04
583.274	35865.56
583.471	35089.38
583.669	35562.47
583.866	34911.21
584.064	35390.44
584.262	35183.59
584.459	35148.78
584.657	34864.11
584.854	35189.74
585.052	34692.08
585.249	34495.47
585.447	34989.03
585.644	34343.92
585.841	34536.43
586.039	34653.17
586.236	34085.88
586.434	34028.54
586.631	33866.75
586.828	34120.7
587.026	34100.22
587.223	33582.08
587.42	33424.39
587.618	33786.88
587.815	33356.8
588.012	33412.1
588.21	32949.26
588.407	33301.51
588.604	33264.64
588.801	33084.42
588.999	32963.59
589.196	33123.33
589.393	32900.11
589.59	32529.42
589.787	32707.6
589.984	32150.55
590.182	32154.65
590.379	32543.76
590.576	31933.46
590.773	32564.24
590.97	32027.67
591.167	32328.72
591.364	31648.8
591.561	32023.58
591.758	31673.37
591.955	31521.82
592.152	31669.28
592.349	31298.59
592.546	31439.9
592.743	31253.54
592.94	31177.76
593.137	31411.23
593.334	31245.35
593.531	30866.47
593.727	31210.53
593.924	30895.14
594.121	30448.69
594.318	30925.86
594.515	30211.12
594.712	30684.2
594.908	30278.71
595.105	30405.68
595.302	30032.95
595.499	30493.74
595.696	29912.12
595.892	29838.39
596.089	30084.15
596.286	29936.7
596.482	29871.16
596.679	29713.47
596.876	29656.12
597.072	29576.25
597.269	29563.96
597.466	29299.78
597.662	28982.34
597.859	29150.28
598.055	29240.39
598.252	29133.89
598.448	29121.6
598.645	28732.49
598.841	28929.09
599.038	28552.27
599.234	28775.5
599.431	28335.18
599.627	28361.81
599.824	28318.8
600.02	28154.96
600.217	28300.37
600.413	28136.53
600.609	28257.36
600.806	27892.82
601.002	27851.86
601.198	27489.37
601.395	27583.58
601.591	27642.97
601.787	27444.32
601.984	27415.65
602.18	27747.42
602.376	27292.77
602.572	27233.38
602.769	27102.31
602.965	26829.93
603.161	26885.22
603.357	27018.34
603.553	27044.96
603.75	26793.06
603.946	27028.58
604.142	26670.19
604.338	26440.81
604.534	26391.66
604.73	26186.86
604.926	26156.14
605.122	26371.18
605.318	26068.08
605.514	26221.68
605.71	25947.25
605.906	25945.2
606.102	25990.26
606.298	25687.16
606.494	25603.19
606.69	25676.92
606.886	25906.29
607.082	25300.09
607.278	25605.24
607.474	25363.58
607.67	25597.05
607.866	25097.35
608.062	25355.39
608.257	25105.54
608.453	25330.81
608.649	24986.75
608.845	24863.88
609.041	24951.94
609.236	24972.42
609.432	25005.19
609.628	25101.44
609.824	24919.17
610.019	24571.02
610.215	24624.26
610.411	24697.99
610.606	24474.76
610.802	24837.25
610.998	24546.44
611.193	24585.35
611.389	24693.9
611.584	24108.18
611.78	24308.88
611.976	24239.25
612.171	24364.17
612.367	24165.52
612.562	24095.89
612.758	23684.25
612.953	23893.14
613.149	24153.23
613.344	23555.22
613.539	24474.76
613.735	23776.41
613.93	24138.9
614.126	23846.04
614.321	24007.83
614.517	23778.45
614.712	23526.55
614.907	23651.48
615.103	23923.86
615.298	23307.42
615.493	23354.52
615.688	23276.7
615.884	23864.47
616.079	23270.56
616.274	23237.79
616.47	22992.03
616.665	23307.42
616.86	22922.4
617.055	23139.49
617.25	23088.29
617.445	23198.88
617.641	22531.24
617.836	22985.89
618.031	22250.67
618.226	23000.23
618.421	22703.27
618.616	22713.51
618.811	22146.22
619.006	22918.31
619.201	22064.3
619.396	22203.57
619.591	21877.94
619.786	22457.51
619.981	21669.05
620.176	22131.89
620.371	21566.65
620.566	22133.93
620.761	21970.1
620.956	21892.27
621.151	21245.12
621.346	21425.34
621.541	20987.07
621.735	21146.81
621.93	20950.21
622.125	21144.77
622.32	20765.89
622.515	20827.33
622.709	20745.41
622.904	20370.63
623.099	20337.87
623.294	20511.94
623.488	20073.68
623.683	20327.63
623.878	20018.38
624.072	19887.31
624.267	19950.8
624.462	19533.01
624.656	19709.14
624.851	19680.47
625.046	19471.57
625.24	19279.07
625.435	19074.27
625.629	19453.14
625.824	19367.13
626.018	18959.58
626.213	18435.3
626.407	18898.14
626.602	18498.79
626.796	18707.68
626.991	18691.3
627.185	18451.69
627.38	18398.44
627.574	18197.74
627.768	18246.89
627.963	18066.67
628.157	17831.15
628.352	17614.07
628.546	17480.95
628.74	18007.28
628.935	17437.94
629.129	17542.39
629.323	17186.04
629.517	17306.87
629.712	17190.14
629.906	17097.98
630.1	16923.9
630.294	16897.28
630.489	16809.22
630.683	16866.56
630.877	16518.4
631.071	16549.12
631.265	16614.66
631.459	16291.08
631.653	16323.85
631.848	16016.65
632.042	15994.12
632.236	16092.43
632.43	15830.29
632.624	15967.5
632.818	15584.53
633.012	15568.15
633.206	15770.9
633.4	15674.64
633.594	15422.74
633.788	15355.16
633.982	15441.17
634.176	15111.45
634.369	15193.37
634.563	15125.79
634.757	15068.44
634.951	14994.72
635.145	14943.52
635.339	14710.05
635.533	14613.79
635.726	14687.52
635.92	14456.1
636.114	14513.44
636.308	14400.8
636.501	14488.87
636.695	14322.98
636.889	14177.58
637.083	14054.7
637.276	14116.14
637.47	13784.37
637.664	13851.95
637.857	13774.13
638.051	13630.77
638.244	13579.57
638.438	13546.8
638.632	13565.23
638.825	13454.64
639.019	13182.26
639.212	13274.42
639.406	13110.58
639.599	13149.5
639.793	13131.06
639.986	12993.85
640.18	13145.4
640.373	13053.24
640.567	12791.1
640.76	12647.74
640.954	12680.51
641.147	12545.34
641.34	12350.79
641.534	12537.15
641.727	12416.32
641.92	12307.78
642.114	12186.95
642.307	12211.53
642.5	12176.71
642.694	11976.01
642.887	12127.56
643.08	12119.37
643.273	12076.36
643.467	11908.43
643.66	11730.25
643.853	11595.09
644.046	11574.61
644.239	11709.77
644.432	11443.54
644.626	11478.35
644.819	11322.71
645.012	11488.59
645.205	11308.37
645.398	11304.28
645.591	11097.43
645.784	10849.63
645.977	11021.66
646.17	11062.62
646.363	11005.27
646.556	10775.9
646.749	10831.19
646.942	10808.67
647.135	10753.37
647.328	10696.03
647.521	10450.27
647.714	10544.48
647.907	10788.19
648.099	10452.32
648.292	10362.21
648.485	10362.21
648.678	10141.03
648.871	10399.07
649.064	10255.72
649.256	10218.85
649.449	10038.63
649.642	10161.51
649.835	9989.48
650.027	9985.38
650.22	9942.38
650.413	9751.92
650.605	9885.03
650.798	9776.49
650.991	9520.49
651.183	9502.06
651.376	9690.48
651.568	9483.63
651.761	9368.95
651.954	9416.05
652.146	9522.54
652.339	9354.61
652.531	9301.36
652.724	9186.68
652.916	9014.65
653.109	9059.7
653.301	9039.22
653.494	8973.69
653.686	8871.29
653.879	9071.99
654.071	8850.81
654.263	8709.5
654.456	8703.36
654.648	8822.14
654.84	8535.42
655.033	8689.02
655.225	8725.88
655.417	8498.56
655.61	8412.54
655.802	8351.1
655.994	8322.43
656.186	8416.64
656.379	8254.85
656.571	8260.99
656.763	8181.12
656.955	8277.38
657.148	8260.99
657.34	8320.39
657.532	8144.26
657.724	8039.81
657.916	8080.77
658.108	7875.98
658.3	7925.13
658.492	7992.71
658.684	7994.76
658.876	7804.3
659.068	7673.23
659.26	7687.56
659.452	7761.29
659.644	7789.96
659.836	7673.23
660.028	7626.12
660.22	7392.66
660.412	7320.98
660.604	7261.59
660.796	7495.05
660.988	7277.97
661.18	7155.09
661.372	7341.46
661.563	7314.83
661.755	7163.28
661.947	7056.79
662.139	7138.71
662.331	7302.54
662.522	7181.71
662.714	7024.02
662.906	6974.87
663.097	6821.27
663.289	6811.03
663.481	6841.75
663.673	6751.64
663.864	6768.02
664.056	6712.73
664.247	6847.9
664.439	6569.37
664.631	6839.7
664.822	6651.29
665.014	6704.54
665.205	6542.75
665.397	6555.04
665.588	6501.79
665.78	6450.59
665.971	6430.11
666.163	6428.06
666.354	6337.95
666.546	6278.56
666.737	6354.34
666.929	6276.51
667.12	6266.27
667.311	6233.5
667.503	6116.77
667.694	6272.42
667.885	6192.55
668.077	6163.87
668.268	6041
668.459	6219.17
668.651	6043.04
668.842	5979.56
669.033	6073.76
669.224	5963.17
669.416	6086.05
669.607	5885.35
669.798	5989.8
669.989	6024.61
670.18	5832.1
670.371	5864.87
670.563	5877.16
670.754	5813.67
670.945	5541.29
671.136	5660.07
671.327	5680.55
671.518	5627.31
671.709	5639.59
671.9	5741.99
672.091	5586.35
672.282	5569.96
672.473	5625.26
672.664	5504.43
672.855	5584.3
673.046	5410.22
673.237	5838.25
673.428	5293.49
673.619	5567.92
673.809	5412.27
674	5291.44
674.191	5252.53
674.382	5297.58
674.573	5322.16
674.764	5391.79
674.954	5404.08
675.145	5205.42
675.336	5033.4
675.527	5193.14
675.717	5205.42
675.908	5221.81
676.099	5131.7
676.289	5256.62
676.48	5186.99
676.671	5115.31
676.861	5115.31
677.052	5049.78
677.243	5012.92
677.433	4967.86
677.624	5033.4
677.814	5086.64
678.005	5078.45
678.195	5115.31
678.386	4926.9
678.576	4885.94
678.767	4832.69
678.957	4773.3
679.148	4963.76
679.338	4855.22
679.529	4906.42
679.719	4713.91
679.909	4969.91
680.1	4724.15
680.29	4988.34
680.481	4894.13
680.671	4607.42
680.861	4822.45
681.052	4867.51
681.242	4603.32
681.432	4853.17
681.622	4722.1
681.813	4775.35
682.003	4783.54
682.193	4609.47
682.383	4711.86
682.573	4640.19
682.764	4584.89
682.954	4607.42
683.144	4621.75
683.334	4586.94
683.524	4578.75
683.714	4758.97
683.904	4652.47
684.094	4552.12
684.284	4484.54
684.474	4588.99
684.664	4584.89
684.854	4607.42
685.044	4582.84
685.234	4478.4
685.424	4398.52
685.614	4376
685.804	4570.55
685.994	4509.12
686.184	4482.49
686.374	4353.47
686.564	4351.42
686.753	4289.98
686.943	4404.67
687.133	4429.24
687.323	4255.17
687.513	4464.06
687.702	4345.28
687.892	4502.97
688.082	4275.65
688.272	4304.32
688.461	4181.44
688.651	4390.33
688.841	4269.5
689.03	4095.43
689.22	4355.52
689.41	4109.76
689.599	4079.04
689.789	4132.29
689.979	4029.89
690.168	3929.54
690.358	3972.55
690.547	3952.07
690.737	3984.84
690.926	4103.62
691.116	3978.69
691.305	3960.26
691.495	4025.79
691.684	3943.88
691.874	4021.7
692.063	3968.45
692.252	3919.3
692.442	3997.12
692.631	3923.4
692.82	3870.15
693.01	3935.68
693.199	3696.07
693.388	3763.65
693.578	3765.7
693.767	3833.29
693.956	3808.71
694.146	3632.58
694.335	3708.36
694.524	3751.37
694.713	3866.05
694.902	3614.15
695.092	3603.91
695.281	3653.06
695.47	3651.02
695.659	3550.67
695.848	3485.13
696.037	3681.74
696.226	3597.77
696.415	3616.2
696.604	3608.01
696.793	3521.99
696.982	3575.24
697.171	3612.1
697.36	3538.38
697.549	3610.06
697.738	3593.67
697.927	3440.08
698.116	3601.87
698.305	3526.09
698.494	3382.73
698.683	3456.46
698.872	3577.29
699.061	3544.52
699.25	3405.26
699.438	3409.36
699.627	3460.56
699.816	3517.9
700.005	3411.4
700.193	3374.54
700.382	3507.66
700.571	3325.39
700.76	3524.04
700.948	3372.49
701.137	3386.83
701.326	3403.21
701.514	3440.08
701.703	3403.21
701.892	3325.39
702.08	3388.88
702.269	3347.92
702.457	3323.34
702.646	3362.25
702.834	3306.96
703.023	3231.18
703.212	3298.77
703.4	3306.96
703.589	3306.96
703.777	3302.86
703.965	3349.96
704.154	3247.57
704.342	3184.08
704.531	3272.14
704.719	3190.22
704.907	3282.38
705.096	3157.46
705.284	3413.45
705.472	3153.36
705.661	3167.7
705.849	3266
706.037	3093.97
706.226	3143.12
706.414	3192.27
706.602	3110.35
706.79	3255.76
706.979	3104.21
707.167	3075.54
707.355	3016.15
707.543	3110.35
707.731	3167.7
707.919	3106.26
708.107	3165.65
708.296	2985.43
708.484	2987.47
708.672	3165.65
708.86	3001.81
709.048	3108.3
709.236	3087.82
709.424	3091.92
709.612	3059.15
709.8	2973.14
709.988	3005.91
710.176	2905.56
710.364	3020.24
710.551	3100.11
710.739	2921.94
710.927	3085.78
711.115	3057.11
711.303	2985.43
711.491	3012.05
711.679	2942.42
711.866	3036.63
712.054	3022.29
712.242	2872.79
712.43	2907.6
712.617	2913.75
712.805	2784.73
712.993	2891.22
713.181	2837.97
713.368	2928.08
713.556	2897.36
713.744	2944.47
713.931	3036.63
714.119	2887.12
714.306	2854.36
714.494	2809.3
714.682	2848.21
714.869	2866.64
715.057	2858.45
715.244	2831.83
715.432	2866.64
715.619	2889.17
715.807	2764.25
715.994	2835.92
716.182	2706.9
716.369	2844.12
716.556	2954.71
716.744	2698.71
716.931	2856.4
717.119	2938.32
717.306	2899.41
717.493	2794.97
717.681	2846.16
717.868	2905.56
718.055	2737.62
718.242	2758.1
718.43	2729.43
718.617	2797.01
718.804	2645.46
718.991	2872.79
719.179	2803.16
719.366	2764.25
719.553	2829.78
719.74	2692.57
719.927	2616.79
720.114	2690.52
720.301	2547.16
720.488	2618.84
720.676	2768.34
720.863	2739.67
721.05	2649.56
721.237	2723.29
721.424	2676.18
721.611	2522.59
721.798	2643.42
721.985	2667.99
722.172	2504.15
722.358	2700.76
722.545	2567.64
722.732	2698.71
722.919	2551.26
723.106	2584.02
723.293	2354.65
723.48	2526.68
723.667	2477.53
723.853	2498.01
724.04	2637.27
724.227	2579.93
724.414	2563.54
724.6	2518.49
724.787	2616.79
724.974	2618.84
725.161	2602.46
725.347	2485.72
725.534	2518.49
725.72	2594.26
725.907	2520.54
726.094	2477.53
726.28	2436.57
726.467	2530.78
726.653	2485.72
726.84	2500.06
727.027	2555.35
727.213	2477.53
727.4	2512.35
727.586	2532.83
727.773	2506.2
727.959	2567.64
728.145	2434.52
728.332	2461.15
728.518	2364.89
728.705	2483.67
728.891	2391.52
729.077	2399.71
729.264	2338.27
729.45	2391.52
729.636	2444.76
729.823	2330.08
730.009	2385.37
730.195	2461.15
730.382	2500.06
730.568	2420.19
730.754	2444.76
730.94	2446.81
731.126	2461.15
731.313	2461.15
731.499	2366.94
731.685	2354.65
731.871	2471.39
732.057	2485.72
732.243	2436.57
732.429	2256.35
732.615	2479.58
732.801	2323.93
732.987	2336.22
733.173	2391.52
733.359	2346.46
733.545	2371.04
733.731	2479.58
733.917	2373.08
734.103	2375.13
734.289	2381.28
734.475	2280.93
734.661	2403.8
734.847	2325.98
735.033	2385.37
735.219	2293.21
735.404	2338.27
735.59	2368.99
735.776	2235.87
735.962	2287.07
736.148	2393.56
736.333	2319.84
736.519	2250.21
736.705	2299.36
736.89	2231.77
737.076	2192.86
737.262	2282.97
737.447	2313.69
737.633	2164.19
737.819	2276.83
738.004	2137.57
738.19	2203.1
738.375	2186.72
738.561	2141.66
738.747	2184.67
738.932	2129.38
739.118	2256.35
739.303	2194.91
739.489	2325.98
739.674	2182.62
739.859	2129.38
740.045	2133.47
740.23	2145.76
740.416	2231.77
740.601	2145.76
740.786	2104.8
740.972	2104.8
741.157	2170.33
741.342	2045.41
741.528	2092.51
741.713	2135.52
741.898	2067.94
742.084	2162.14
742.269	2090.46
742.454	2094.56
742.639	1973.73
742.824	1990.11
743.01	2170.33
743.195	2121.18
743.38	2080.22
743.565	2039.26
743.75	2002.4
743.935	1904.1
744.12	1897.96
744.305	1945.06
744.49	1912.29
744.675	1940.96
744.86	2014.69
745.045	1879.52
745.23	1848.8
745.415	1830.37
745.6	1887.72
745.785	1883.62
745.97	1969.63
746.155	1887.72
746.34	1871.33
746.525	1920.48
746.71	1842.66
746.895	1707.49
747.079	1916.39
747.264	1768.93
747.449	1846.76
747.634	1848.8
747.819	1768.93
748.003	1740.26
748.188	1674.73
748.373	1699.3
748.557	1838.56
748.742	1797.6
748.927	1734.12
749.111	1805.8
749.296	1689.06
749.481	1670.63
749.665	1598.95
749.85	1736.17
750.034	1760.74
750.219	1658.34
750.404	1619.43
750.588	1674.73
750.773	1617.38
750.957	1578.47
751.141	1568.23
751.326	1617.38
751.51	1603.05
751.695	1570.28
751.879	1564.14
752.064	1514.98
752.248	1543.66
752.432	1582.57
752.617	1531.37
752.801	1547.75
752.985	1455.59
753.17	1531.37
753.354	1398.25
753.538	1551.85
753.722	1414.63
753.907	1486.31
754.091	1435.11
754.275	1521.13
754.459	1367.53
754.643	1414.63
754.828	1396.2
755.012	1379.82
755.196	1340.91
755.38	1381.87
755.564	1345
755.748	1375.72
755.932	1349.1
756.116	1412.59
756.3	1297.9
756.484	1238.51
756.668	1322.48
756.852	1240.56
757.036	1281.52
757.22	1279.47
757.404	1191.41
757.588	1256.94
757.772	1275.37
757.956	1154.54
758.14	1224.17
758.323	1170.93
758.507	1218.03
758.691	1185.26
758.875	1162.73
759.059	1203.69
759.242	1234.41
759.426	1107.44
759.61	1138.16
759.794	1172.97
759.977	1275.37
760.161	1187.31
760.345	1172.97
760.528	1191.41
760.712	1183.21
760.895	1103.34
761.079	1193.45
761.263	1113.58
761.446	1179.12
761.63	1039.86
761.813	1095.15
761.997	1076.72
762.18	980.47
762.364	1076.72
762.547	1076.72
762.731	1050.1
762.914	1013.23
763.098	1072.62
763.281	1035.76
763.464	1086.96
763.648	1054.19
763.831	953.84
764.015	1078.77
764.198	1037.81
764.381	1035.76
764.564	916.98
764.748	912.88
764.931	1002.99
765.114	988.66
765.297	955.89
765.481	1011.18
765.664	980.47
765.847	986.61
766.03	972.27
766.213	986.61
766.397	998.9
766.58	947.7
766.763	980.47
766.946	892.4
767.129	949.75
767.312	923.12
767.495	972.27
767.678	988.66
767.861	890.35
768.044	978.42
768.227	947.7
768.41	902.64
768.593	923.12
768.776	945.65
768.959	890.35
769.142	876.02
769.324	839.16
769.507	871.92
769.69	818.68
769.873	904.69
770.056	830.96
770.239	839.16
770.421	849.4
770.604	796.15
770.787	943.6
770.97	822.77
771.152	851.44
771.335	900.59
771.518	841.2
771.7	732.66
771.883	787.96
772.066	777.72
772.248	824.82
772.431	820.72
772.613	857.59
772.796	790
772.978	777.72
773.161	818.68
773.343	759.28
773.526	781.81
773.708	822.77
773.891	732.66
774.073	749.04
774.256	742.9
774.438	804.34
774.621	761.33
774.803	732.66
774.985	685.56
775.168	726.52
775.35	751.09
775.532	747
775.715	660.98
775.897	718.33
776.079	765.43
776.261	757.24
776.444	687.61
776.626	769.52
776.808	695.8
776.99	626.17
777.173	656.89
777.355	636.41
777.537	650.74
777.719	642.55
777.901	663.03
778.083	654.84
778.265	636.41
778.447	652.79
778.629	611.83
778.811	644.6
778.993	687.61
779.175	654.84
779.357	677.37
779.539	701.94
779.721	603.64
779.903	568.82
780.085	558.58
780.267	593.4
780.449	617.97
780.631	638.45
780.812	593.4
780.994	495.1
781.176	558.58
781.358	593.4
781.54	570.87
781.721	585.21
781.903	601.59
782.085	577.02
782.267	519.67
782.448	470.52
782.63	554.49
782.812	536.06
782.993	503.29
783.175	552.44
783.357	503.29
783.538	554.49
783.72	556.54
783.901	464.38
784.083	572.92
784.264	658.93
784.446	349.69
784.627	501.24
784.809	474.62
784.99	456.19
785.172	552.44
785.353	454.14
785.535	458.23
785.716	486.9
785.897	427.51
786.079	470.52
786.26	458.23
786.441	505.34
786.623	384.51
786.804	486.9
786.985	488.95
787.167	413.18
787.348	366.07
787.529	445.95
787.71	472.57
787.891	447.99
788.073	501.24
788.254	429.56
788.435	482.81
788.616	318.97
788.797	396.79
788.978	343.55
789.159	357.88
789.34	417.27
789.522	413.18
789.703	470.52
789.884	396.79
790.065	357.88
790.246	382.46
790.427	445.95
790.607	400.89
790.788	415.23
790.969	419.32
791.15	372.22
791.331	384.51
791.512	429.56
791.693	345.59
791.874	314.88
792.054	470.52
792.235	366.07
792.416	388.6
792.597	355.83
792.778	366.07
792.958	407.03
793.139	380.41
793.32	427.51
793.5	355.83
793.681	419.32
793.862	333.31
794.042	366.07
794.223	316.92
794.404	298.49
794.584	228.86
794.765	380.41
794.945	286.2
795.126	372.22
795.306	308.73
795.487	261.63
795.667	249.34
795.848	327.16
796.028	331.26
796.209	415.23
796.389	325.12
796.57	323.07
796.75	314.88
796.93	308.73
797.111	290.3
797.291	290.3
797.471	280.06
797.652	302.59
797.832	298.49
798.012	349.69
798.192	306.68
798.373	282.11
798.553	265.72
798.733	271.87
798.913	298.49
799.093	288.25
799.274	257.53
799.454	314.88
799.634	314.88
799.814	298.49
799.994	290.3
800.174	335.35
800.354	241.15
800.534	210.43
800.714	323.07
800.894	243.2
801.074	257.53
801.254	232.96
801.434	265.72
801.614	249.34
801.794	179.71
801.974	806.39
802.154	263.68
802.334	220.67
802.514	151.04
802.693	278.01
802.873	183.81
803.053	296.44
803.233	278.01
803.413	232.96
803.592	224.76
803.772	269.82
803.952	288.25
804.131	245.24
804.311	271.87
804.491	278.01
804.67	237.05
804.85	218.62
805.03	312.83
805.209	290.3
805.389	210.43
805.568	204.28
805.748	183.81
805.928	251.39
806.107	200.19
806.287	255.48
806.466	235
806.646	175.61
806.825	245.24
807.004	155.13
807.184	278.01
807.363	271.87
807.543	179.71
807.722	249.34
807.901	216.57
808.081	235
808.26	136.7
808.439	144.89
808.619	208.38
808.798	273.92
808.977	226.81
809.156	224.76
809.336	157.18
809.515	290.3
809.694	212.48
809.873	210.43
810.052	159.23
810.231	165.37
810.411	216.57
810.59	247.29
810.769	167.42
810.948	189.95
811.127	177.66
811.306	278.01
811.485	196.09
811.664	196.09
811.843	120.32
812.022	226.81
812.201	148.99
812.38	181.76
812.559	151.04
812.737	157.18
812.916	177.66
813.095	171.52
813.274	204.28
813.453	196.09
813.632	212.48
813.811	196.09
813.989	91.65
814.168	159.23
814.347	171.52
814.526	153.09
814.704	177.66
814.883	275.96
815.062	101.89
815.24	175.61
815.419	120.32
815.598	159.23
815.776	155.13
815.955	177.66
816.133	142.85
816.312	144.89
816.49	136.7
816.669	146.94
816.847	148.99
817.026	153.09
817.204	151.04
817.383	93.69
817.561	200.19
817.74	155.13
817.918	163.33
818.097	189.95
818.275	173.57
818.453	179.71
818.632	153.09
818.81	153.09
818.988	144.89
819.167	165.37
819.345	146.94
819.523	146.94
819.701	208.38
819.879	155.13
820.058	114.17
820.236	136.7
820.414	202.24
820.592	101.89
820.77	83.45
820.948	126.46
821.127	175.61
821.305	118.27
821.483	120.32
821.661	155.13
821.839	155.13
822.017	87.55
822.195	126.46
822.373	183.81
822.551	167.42
822.729	167.42
822.907	95.74
823.085	153.09
823.262	169.47
823.44	134.65
823.618	146.94
823.796	128.51
823.974	144.89
824.152	138.75
824.329	85.5
824.507	146.94
824.685	163.33
824.863	105.98
825.04	189.95
825.218	110.08
825.396	159.23
825.574	189.95
825.751	122.37
825.929	179.71
826.107	105.98
826.284	120.32
826.462	103.93
826.639	153.09
826.817	97.79
826.994	110.08
827.172	128.51
827.349	169.47
827.527	142.85
827.704	151.04
827.882	177.66
828.059	159.23
828.237	69.12
828.414	93.69
828.591	40.45
828.769	103.93
828.946	173.57
829.124	142.85
829.301	146.94
829.478	79.36
829.655	114.17
829.833	65.02
830.01	87.55
830.187	95.74
830.364	126.46
830.542	93.69
830.719	77.31
830.896	140.8
831.073	110.08
831.25	151.04
831.427	159.23
831.604	118.27
831.782	118.27
831.959	105.98
832.136	89.6
832.313	81.41
832.49	136.7
832.667	118.27
832.844	108.03
833.021	79.36
833.198	108.03
833.374	138.75
833.551	101.89
833.728	85.5
833.905	56.83
834.082	52.74
834.259	122.37
834.436	118.27
834.612	101.89
834.789	140.8
834.966	110.08
835.143	89.6
835.319	56.83
835.496	83.45
835.673	83.45
835.85	103.93
836.026	60.93
836.203	110.08
836.38	73.21
836.556	128.51
836.733	65.02
836.909	93.69
837.086	95.74
837.262	95.74
837.439	110.08
837.616	105.98
837.792	79.36
837.968	71.17
838.145	65.02
838.321	36.35
838.498	122.37
838.674	56.83
838.851	103.93
839.027	44.54
839.203	122.37
839.38	44.54
839.556	130.56
839.732	159.23
839.909	175.61
840.085	95.74
840.261	69.12
840.437	140.8
840.614	97.79
840.79	71.17
840.966	73.21
841.142	79.36
841.318	110.08
841.494	81.41
841.671	65.02
841.847	32.26
842.023	114.17
842.199	130.56
842.375	60.93
842.551	65.02
842.727	118.27
842.903	120.32
843.079	56.83
843.255	83.45
843.431	126.46
843.607	167.42
843.783	-2.56
843.959	105.98
844.134	130.56
844.31	101.89
844.486	54.78
844.662	36.35
844.838	69.12
845.013	128.51
845.189	81.41
845.365	85.5
845.541	89.6
845.716	85.5
845.892	93.69
846.068	56.83
846.244	44.54
846.419	136.7
846.595	11.78
846.77	77.31
846.946	108.03
847.122	89.6
847.297	134.65
847.473	95.74
847.648	73.21
847.824	89.6
847.999	30.21
848.175	167.42
848.35	101.89
848.526	108.03
848.701	120.32
848.876	60.93
849.052	91.65
849.227	85.5
849.403	85.5
849.578	93.69
849.753	89.6
849.929	50.69
850.104	136.7
850.279	81.41
850.454	48.64
850.63	26.11
850.805	28.16
850.98	110.08
851.155	38.4
851.33	93.69
851.505	32.26
851.681	128.51
851.856	69.12
852.031	167.42
852.206	44.54
852.381	15.87
852.556	71.17
852.731	108.03
852.906	60.93
853.081	105.98
853.256	130.56
853.431	105.98
853.606	40.45
853.781	83.45
853.956	36.35
854.131	138.75
854.305	77.31
854.48	122.37
854.655	120.32
854.83	32.26
855.005	58.88
855.18	65.02
855.354	79.36
855.529	85.5
855.704	71.17
855.879	69.12
856.053	58.88
856.228	65.02
856.403	60.93
856.577	87.55
856.752	44.54
856.926	89.6
857.101	69.12
857.276	38.4
857.45	85.5
857.625	85.5
857.799	85.5
857.974	67.07
858.148	5.63
858.323	112.13
858.497	44.54
858.672	32.26
858.846	73.21
859.02	118.27
859.195	44.54
859.369	101.89
859.543	67.07
859.718	7.68
859.892	54.78
860.066	75.26
860.241	-8.7
860.415	73.21
860.589	46.59
860.763	30.21
860.938	79.36
861.112	44.54
861.286	44.54
861.46	101.89
861.634	85.5
861.808	22.02
861.982	17.92
862.157	13.82
862.331	48.64
862.505	34.3
862.679	77.31
862.853	-0.51
863.027	-4.61
863.201	110.08
863.375	28.16
863.549	101.89
863.722	54.78
863.896	151.04
864.07	65.02
864.244	95.74
864.418	112.13
864.592	71.17
864.766	22.02
864.939	93.69
865.113	7.68
865.287	144.89
865.461	-25.09
865.634	60.93
865.808	77.31
865.982	60.93
866.156	48.64
866.329	-8.7
866.503	46.59
866.676	62.98
866.85	-18.94
867.024	99.84
867.197	103.93
867.371	112.13
867.544	56.83
867.718	46.59
867.891	77.31
868.065	110.08
868.238	77.31
868.412	77.31
868.585	32.26
868.759	-39.42
868.932	73.21
869.105	54.78
869.279	52.74
869.452	32.26
869.625	77.31
869.799	28.16
869.972	9.73
870.145	56.83
870.319	30.21
870.492	44.54
870.665	-2.56
870.838	36.35
871.011	36.35
871.185	60.93
871.358	52.74
871.531	85.5
871.704	-20.99
871.877	28.16
872.05	46.59
872.223	79.36
872.396	112.13
872.569	73.21
872.742	3.58
872.915	19.97
873.088	77.31
873.261	40.45
873.434	99.84
873.607	36.35
873.78	79.36
873.953	97.79
874.126	52.74
874.299	54.78
874.471	36.35
874.644	81.41
874.817	67.07
874.99	126.46
875.163	9.73
875.335	44.54
875.508	32.26
875.681	105.98
875.853	58.88
876.026	17.92
876.199	69.12
876.371	103.93
876.544	42.5
876.717	93.69
876.889	56.83
877.062	89.6
877.234	22.02
877.407	11.78
877.579	-37.38
877.752	65.02
877.924	22.02
878.097	40.45
878.269	40.45
878.442	155.13
878.614	114.17
878.786	67.07
878.959	36.35
879.131	44.54
879.303	-68.09
879.476	67.07
879.648	75.26
879.82	44.54
879.993	85.5
880.165	69.12
880.337	69.12
880.509	60.93
880.681	38.4
880.854	69.12
881.026	54.78
881.198	177.66
881.37	114.17
881.542	130.56
881.714	87.55
881.886	15.87
882.058	69.12
882.23	46.59
882.402	85.5
882.574	77.31
882.746	36.35
882.918	79.36
883.09	11.78
883.262	15.87
883.434	60.93
883.606	99.84
883.778	-55.81
883.95	99.84
884.122	81.41
884.293	36.35
884.465	32.26
884.637	77.31
884.809	-33.28
884.98	-29.18
885.152	-33.28
885.324	48.64
885.496	30.21
885.667	81.41
885.839	36.35
886.011	50.69
886.182	69.12
886.354	87.55
886.525	-29.18
886.697	62.98
886.869	-59.9
887.04	62.98
887.212	151.04
887.383	108.03
887.555	11.78
887.726	46.59
887.897	69.12
888.069	30.21
888.24	87.55
888.412	44.54
888.583	44.54
888.754	15.87
888.926	22.02
889.097	54.78
889.268	52.74
889.44	28.16
889.611	9.73
889.782	38.4
889.953	65.02
890.125	108.03
890.296	79.36
890.467	34.3
890.638	22.02
890.809	54.78
890.98	52.74
891.151	89.6
891.323	24.06
891.494	58.88
891.665	28.16
891.836	77.31
892.007	77.31
892.178	95.74
892.349	105.98
892.52	-78.33
892.691	79.36
892.862	3.58
893.032	24.06
893.203	105.98
893.374	97.79
893.545	44.54
893.716	15.87
893.887	38.4
894.057	-6.66
894.228	77.31
894.399	-6.66
894.57	28.16
894.74	32.26
894.911	91.65
895.082	-18.94
895.253	32.26
895.423	-8.7
895.594	17.92
895.764	24.06
895.935	77.31
896.106	22.02
896.276	54.78
896.447	38.4
896.617	-4.61
896.788	44.54
896.958	48.64
897.129	-33.28
897.299	-10.75
897.47	77.31
897.64	69.12
897.81	22.02
897.981	79.36
898.151	-4.61
898.322	99.84
898.492	56.83
898.662	36.35
898.832	46.59
899.003	30.21
899.173	58.88
899.343	-4.61
899.513	52.74
