Data from USB4F104151__122__14-18-53-961.txt Node

Date: Thu Mar 13 14:18:53 EDT 2025
User: louis
Spectrometer: USB4F10415
Trigger mode: 4
Integration Time (sec): 2.000000E-2
Scans to average: 1
Electric dark correction enabled: true
Nonlinearity correction enabled: false
Boxcar width: 0
XAxis mode: Wavelengths
Number of Pixels in Spectrum: 3648
>>>>>Begin Spectral Data<<<<<
178.204	-132.78
178.424	-132.78
178.644	-132.78
178.864	-153.26
179.084	-128.68
179.304	-42.67
179.524	31.06
179.744	-3.75
179.964	39.25
180.184	8.53
180.404	39.25
180.624	-52.91
180.844	63.83
181.064	-44.71
181.283	-11.95
181.503	-38.57
181.723	12.63
181.943	-22.19
182.163	26.96
182.383	14.68
182.602	12.63
182.822	51.54
183.042	51.54
183.262	-34.47
183.482	37.2
183.701	51.54
183.921	12.63
184.141	-69.29
184.361	26.96
184.58	53.59
184.8	2.39
185.02	-28.33
185.239	45.4
185.459	26.96
185.679	74.07
185.898	41.3
186.118	31.06
186.338	-38.57
186.557	29.01
186.777	-11.95
186.997	45.4
187.216	86.36
187.436	86.36
187.655	29.01
187.875	-11.95
188.095	-5.8
188.314	61.78
188.534	76.12
188.753	-36.52
188.973	10.58
189.192	-26.28
189.412	-38.57
189.631	-5.8
189.851	-9.9
190.07	57.68
190.29	31.06
190.509	55.64
190.729	-9.9
190.948	125.27
191.168	117.08
191.387	84.31
191.607	-13.99
191.826	69.97
192.045	108.88
192.265	-30.38
192.484	-36.52
192.704	-20.14
192.923	2.39
193.142	141.65
193.362	35.16
193.581	18.77
193.8	12.63
194.02	92.5
194.239	39.25
194.458	33.11
194.678	16.73
194.897	-3.75
195.116	18.77
195.335	57.68
195.555	63.83
195.774	43.35
195.993	76.12
196.212	35.16
196.432	-5.8
196.651	6.49
196.87	-3.75
197.089	90.45
197.308	6.49
197.528	-30.38
197.747	-38.57
197.966	61.78
198.185	31.06
198.404	18.77
198.623	2.39
198.842	37.2
199.062	12.63
199.281	102.74
199.5	45.4
199.719	-34.47
199.938	12.63
200.157	45.4
200.376	-44.71
200.595	55.64
200.814	-18.09
201.033	-46.76
201.252	-13.99
201.471	-30.38
201.69	26.96
201.909	29.01
202.128	18.77
202.347	-5.8
202.566	-1.71
202.785	-5.8
203.004	55.64
203.223	84.31
203.442	2.39
203.661	35.16
203.879	108.88
204.098	84.31
204.317	51.54
204.536	51.54
204.755	51.54
204.974	-50.86
205.193	76.12
205.411	92.5
205.63	-38.57
205.849	41.3
206.068	-13.99
206.287	-38.57
206.505	55.64
206.724	2.39
206.943	-28.33
207.162	-69.29
207.381	82.26
207.599	51.54
207.818	-5.8
208.037	37.2
208.255	0.34
208.474	35.16
208.693	-5.8
208.911	26.96
209.13	-44.71
209.349	18.77
209.567	-44.71
209.786	100.69
210.005	61.78
210.223	-5.8
210.442	-13.99
210.661	-22.19
210.879	33.11
211.098	-1.71
211.316	106.84
211.535	51.54
211.753	26.96
211.972	-30.38
212.191	-26.28
212.409	20.82
212.628	72.02
212.846	-11.95
213.065	-28.33
213.283	51.54
213.502	-28.33
213.72	51.54
213.938	-44.71
214.157	29.01
214.375	43.35
214.594	2.39
214.812	119.12
215.031	-38.57
215.249	-22.19
215.467	6.49
215.686	-5.8
215.904	10.58
216.122	6.49
216.341	29.01
216.559	49.49
216.778	80.21
216.996	-26.28
217.214	22.87
217.432	20.82
217.651	35.16
217.869	-52.91
218.087	20.82
218.306	12.63
218.524	6.49
218.742	69.97
218.96	29.01
219.179	-11.95
219.397	63.83
219.615	47.44
219.833	92.5
220.051	-13.99
220.27	26.96
220.488	26.96
220.706	76.12
220.924	-30.38
221.142	31.06
221.36	2.39
221.578	-30.38
221.796	6.49
222.015	31.06
222.233	12.63
222.451	-18.09
222.669	-22.19
222.887	26.96
223.105	10.58
223.323	45.4
223.541	49.49
223.759	35.16
223.977	33.11
224.195	29.01
224.413	4.44
224.631	18.77
224.849	49.49
225.067	84.31
225.285	67.92
225.503	63.83
225.721	-16.04
225.939	20.82
226.157	-5.8
226.375	51.54
226.592	43.35
226.81	45.4
227.028	-24.23
227.246	12.63
227.464	-67.24
227.682	-9.9
227.9	45.4
228.117	22.87
228.335	33.11
228.553	35.16
228.771	20.82
228.989	57.68
229.206	76.12
229.424	20.82
229.642	51.54
229.86	-13.99
230.077	10.58
230.295	33.11
230.513	22.87
230.731	45.4
230.948	10.58
231.166	18.77
231.384	18.77
231.601	10.58
231.819	26.96
232.037	-5.8
232.254	-16.04
232.472	-38.57
232.689	22.87
232.907	-5.8
233.125	29.01
233.342	-5.8
233.56	100.69
233.777	4.44
233.995	-5.8
234.213	49.49
234.43	18.77
234.648	43.35
234.865	43.35
235.083	63.83
235.3	43.35
235.518	-1.71
235.735	49.49
235.953	26.96
236.17	35.16
236.388	69.97
236.605	26.96
236.822	59.73
237.04	37.2
237.257	29.01
237.475	4.44
237.692	29.01
237.909	-28.33
238.127	102.74
238.344	18.77
238.562	35.16
238.779	43.35
238.996	-3.75
239.214	-7.85
239.431	2.39
239.648	45.4
239.865	8.53
240.083	55.64
240.3	14.68
240.517	-1.71
240.735	18.77
240.952	59.73
241.169	6.49
241.386	12.63
241.603	67.92
241.821	-3.75
242.038	86.36
242.255	78.16
242.472	-30.38
242.689	47.44
242.907	53.59
243.124	10.58
243.341	-13.99
243.558	-7.85
243.775	-13.99
243.992	12.63
244.209	8.53
244.426	76.12
244.643	-22.19
244.86	18.77
245.078	-32.43
245.295	55.64
245.512	-11.95
245.729	-26.28
245.946	35.16
246.163	10.58
246.38	10.58
246.597	82.26
246.814	47.44
247.031	-42.67
247.248	51.54
247.464	63.83
247.681	-20.14
247.898	18.77
248.115	61.78
248.332	-26.28
248.549	4.44
248.766	123.22
248.983	82.26
249.2	10.58
249.417	39.25
249.633	35.16
249.85	45.4
250.067	2.39
250.284	43.35
250.501	33.11
250.717	-34.47
250.934	16.73
251.151	-34.47
251.368	10.58
251.585	51.54
251.801	67.92
252.018	53.59
252.235	84.31
252.451	31.06
252.668	-9.9
252.885	8.53
253.102	76.12
253.318	-5.8
253.535	-69.29
253.752	8.53
253.968	-13.99
254.185	-50.86
254.401	-26.28
254.618	-1.71
254.835	6.49
255.051	129.36
255.268	39.25
255.484	-24.23
255.701	33.11
255.917	16.73
256.134	10.58
256.351	51.54
256.567	86.36
256.784	-54.95
257	-18.09
257.217	63.83
257.433	35.16
257.65	72.02
257.866	92.5
258.082	2.39
258.299	35.16
258.515	45.4
258.732	61.78
258.948	-26.28
259.165	18.77
259.381	-13.99
259.597	51.54
259.814	43.35
260.03	10.58
260.246	18.77
260.463	33.11
260.679	59.73
260.895	35.16
261.112	26.96
261.328	35.16
261.544	47.44
261.761	2.39
261.977	47.44
262.193	-38.57
262.409	43.35
262.626	29.01
262.842	18.77
263.058	-5.8
263.274	24.92
263.49	-30.38
263.707	92.5
263.923	-11.95
264.139	-63.15
264.355	12.63
264.571	53.59
264.787	24.92
265.004	-30.38
265.22	51.54
265.436	39.25
265.652	-46.76
265.868	18.77
266.084	10.58
266.3	67.92
266.516	-77.48
266.732	-5.8
266.948	-18.09
267.164	43.35
267.38	10.58
267.596	47.44
267.812	67.92
268.028	20.82
268.244	10.58
268.46	-26.28
268.676	35.16
268.892	100.69
269.108	2.39
269.324	-22.19
269.54	39.25
269.756	84.31
269.972	63.83
270.188	41.3
270.403	-9.9
270.619	22.87
270.835	76.12
271.051	-11.95
271.267	-20.14
271.483	72.02
271.698	59.73
271.914	43.35
272.13	22.87
272.346	20.82
272.562	0.34
272.777	69.97
272.993	-42.67
273.209	22.87
273.425	24.92
273.64	43.35
273.856	26.96
274.072	43.35
274.287	-34.47
274.503	35.16
274.719	10.58
274.934	43.35
275.15	12.63
275.366	0.34
275.581	-16.04
275.797	45.4
276.012	22.87
276.228	-3.75
276.444	110.93
276.659	61.78
276.875	-3.75
277.09	-13.99
277.306	-1.71
277.521	51.54
277.737	29.01
277.952	69.97
278.168	37.2
278.383	16.73
278.599	41.3
278.814	14.68
279.03	18.77
279.245	24.92
279.461	69.97
279.676	76.12
279.892	-44.71
280.107	26.96
280.322	104.79
280.538	61.78
280.753	59.73
280.969	18.77
281.184	-9.9
281.399	18.77
281.615	6.49
281.83	59.73
282.045	16.73
282.26	104.79
282.476	37.2
282.691	31.06
282.906	24.92
283.122	-20.14
283.337	33.11
283.552	137.56
283.767	20.82
283.983	108.88
284.198	6.49
284.413	-13.99
284.628	-5.8
284.843	10.58
285.058	55.64
285.274	-30.38
285.489	22.87
285.704	26.96
285.919	-3.75
286.134	-28.33
286.349	-30.38
286.564	-18.09
286.779	43.35
286.995	-1.71
287.21	-22.19
287.425	31.06
287.64	0.34
287.855	-5.8
288.07	61.78
288.285	158.03
288.5	2.39
288.715	-18.09
288.93	26.96
289.145	-46.76
289.36	16.73
289.575	29.01
289.79	67.92
290.004	98.64
290.219	-11.95
290.434	-3.75
290.649	-28.33
290.864	4.44
291.079	2.39
291.294	61.78
291.509	33.11
291.724	-22.19
291.938	18.77
292.153	26.96
292.368	-50.86
292.583	0.34
292.798	4.44
293.012	8.53
293.227	37.2
293.442	37.2
293.657	-1.71
293.871	51.54
294.086	12.63
294.301	76.12
294.516	92.5
294.73	35.16
294.945	-9.9
295.16	43.35
295.374	29.01
295.589	51.54
295.804	-69.29
296.018	37.2
296.233	86.36
296.447	61.78
296.662	-52.91
296.877	39.25
297.091	49.49
297.306	2.39
297.52	4.44
297.735	10.58
297.949	12.63
298.164	-20.14
298.378	-5.8
298.593	65.88
298.807	26.96
299.022	63.83
299.236	51.54
299.451	47.44
299.665	-54.95
299.88	-36.52
300.094	-50.86
300.309	18.77
300.523	-5.8
300.737	-18.09
300.952	-18.09
301.166	51.54
301.381	-34.47
301.595	76.12
301.809	10.58
302.024	26.96
302.238	59.73
302.452	59.73
302.667	2.39
302.881	-20.14
303.095	98.64
303.309	72.02
303.524	-102.06
303.738	57.68
303.952	43.35
304.166	76.12
304.381	31.06
304.595	37.2
304.809	-11.95
305.023	31.06
305.237	-44.71
305.452	37.2
305.666	26.96
305.88	43.35
306.094	6.49
306.308	26.96
306.522	22.87
306.736	-3.75
306.95	-26.28
307.164	76.12
307.379	12.63
307.593	84.31
307.807	59.73
308.021	78.16
308.235	31.06
308.449	2.39
308.663	-13.99
308.877	69.97
309.091	18.77
309.305	37.2
309.519	-36.52
309.733	63.83
309.947	-11.95
310.161	-11.95
310.374	29.01
310.588	18.77
310.802	6.49
311.016	49.49
311.23	26.96
311.444	33.11
311.658	29.01
311.872	59.73
312.085	33.11
312.299	20.82
312.513	20.82
312.727	43.35
312.941	24.92
313.154	49.49
313.368	43.35
313.582	67.92
313.796	31.06
314.009	-34.47
314.223	31.06
314.437	61.78
314.651	88.4
314.864	51.54
315.078	-54.95
315.292	6.49
315.505	59.73
315.719	-5.8
315.933	104.79
316.146	51.54
316.36	-30.38
316.573	20.82
316.787	78.16
317.001	57.68
317.214	53.59
317.428	88.4
317.641	-73.39
317.855	-34.47
318.068	-46.76
318.282	4.44
318.495	24.92
318.709	78.16
318.922	59.73
319.136	12.63
319.349	88.4
319.563	12.63
319.776	63.83
319.99	51.54
320.203	-16.04
320.417	80.21
320.63	35.16
320.843	24.92
321.057	26.96
321.27	84.31
321.483	35.16
321.697	35.16
321.91	72.02
322.124	20.82
322.337	-46.76
322.55	53.59
322.763	10.58
322.977	16.73
323.19	14.68
323.403	-24.23
323.617	61.78
323.83	78.16
324.043	51.54
324.256	100.69
324.469	35.16
324.683	88.4
324.896	41.3
325.109	0.34
325.322	72.02
325.535	43.35
325.748	-30.38
325.962	-5.8
326.175	-38.57
326.388	51.54
326.601	26.96
326.814	39.25
327.027	22.87
327.24	43.35
327.453	26.96
327.666	-5.8
327.879	43.35
328.092	82.26
328.305	59.73
328.518	20.82
328.731	4.44
328.944	18.77
329.157	61.78
329.37	59.73
329.583	49.49
329.796	26.96
330.009	-30.38
330.222	127.32
330.435	-5.8
330.648	-22.19
330.861	67.92
331.073	10.58
331.286	100.69
331.499	10.58
331.712	29.01
331.925	78.16
332.138	6.49
332.35	88.4
332.563	-22.19
332.776	61.78
332.989	12.63
333.202	74.07
333.414	18.77
333.627	-5.8
333.84	90.45
334.053	43.35
334.265	-69.29
334.478	20.82
334.691	-13.99
334.903	55.64
335.116	-3.75
335.329	33.11
335.541	72.02
335.754	55.64
335.966	20.82
336.179	55.64
336.392	4.44
336.604	84.31
336.817	18.77
337.029	12.63
337.242	57.68
337.454	47.44
337.667	39.25
337.88	86.36
338.092	57.68
338.305	8.53
338.517	-36.52
338.729	18.77
338.942	59.73
339.154	4.44
339.367	-22.19
339.579	39.25
339.792	-38.57
340.004	43.35
340.217	-38.57
340.429	20.82
340.641	-28.33
340.854	18.77
341.066	35.16
341.278	29.01
341.491	96.6
341.703	55.64
341.915	-61.1
342.128	24.92
342.34	-13.99
342.552	57.68
342.764	29.01
342.977	16.73
343.189	10.58
343.401	51.54
343.613	26.96
343.826	18.77
344.038	29.01
344.25	10.58
344.462	57.68
344.674	55.64
344.886	96.6
345.099	43.35
345.311	-1.71
345.523	100.69
345.735	29.01
345.947	-11.95
346.159	22.87
346.371	-38.57
346.583	-13.99
346.795	63.83
347.007	-100.01
347.219	49.49
347.431	84.31
347.643	26.96
347.855	37.2
348.067	153.94
348.279	12.63
348.491	18.77
348.703	53.59
348.915	112.98
349.127	4.44
349.339	26.96
349.551	69.97
349.763	26.96
349.975	12.63
350.187	26.96
350.399	10.58
350.61	94.55
350.822	-34.47
351.034	18.77
351.246	55.64
351.458	72.02
351.669	18.77
351.881	39.25
352.093	22.87
352.305	92.5
352.517	10.58
352.728	14.68
352.94	59.73
353.152	67.92
353.363	-38.57
353.575	74.07
353.787	112.98
353.999	43.35
354.21	115.03
354.422	8.53
354.633	100.69
354.845	35.16
355.057	76.12
355.268	47.44
355.48	10.58
355.692	10.58
355.903	-28.33
356.115	24.92
356.326	26.96
356.538	18.77
356.749	14.68
356.961	51.54
357.172	-26.28
357.384	-20.14
357.595	98.64
357.807	39.25
358.018	4.44
358.23	47.44
358.441	117.08
358.653	45.4
358.864	4.44
359.075	39.25
359.287	39.25
359.498	53.59
359.709	-18.09
359.921	55.64
360.132	26.96
360.344	18.77
360.555	29.01
360.766	67.92
360.977	24.92
361.189	80.21
361.4	22.87
361.611	69.97
361.823	55.64
362.034	18.77
362.245	-16.04
362.456	26.96
362.667	14.68
362.879	29.01
363.09	72.02
363.301	10.58
363.512	-40.62
363.723	16.73
363.935	-11.95
364.146	10.58
364.357	45.4
364.568	84.31
364.779	-18.09
364.99	69.97
365.201	-5.8
365.412	57.68
365.623	88.4
365.834	14.68
366.045	-3.75
366.256	72.02
366.467	-5.8
366.678	104.79
366.889	-34.47
367.1	45.4
367.311	69.97
367.522	-46.76
367.733	-13.99
367.944	92.5
368.155	10.58
368.366	51.54
368.577	51.54
368.788	61.78
368.999	-44.71
369.209	45.4
369.42	63.83
369.631	127.32
369.842	102.74
370.053	76.12
370.264	57.68
370.474	59.73
370.685	76.12
370.896	57.68
371.107	98.64
371.317	14.68
371.528	10.58
371.739	43.35
371.95	102.74
372.16	55.64
372.371	-30.38
372.582	18.77
372.792	51.54
373.003	67.92
373.214	51.54
373.424	4.44
373.635	2.39
373.846	67.92
374.056	-30.38
374.267	37.2
374.477	26.96
374.688	67.92
374.898	59.73
375.109	45.4
375.319	26.96
375.53	51.54
375.74	4.44
375.951	100.69
376.161	45.4
376.372	-1.71
376.582	-26.28
376.793	20.82
377.003	-42.67
377.214	41.3
377.424	67.92
377.635	61.78
377.845	31.06
378.055	53.59
378.266	-30.38
378.476	61.78
378.686	65.88
378.897	24.92
379.107	18.77
379.317	29.01
379.528	18.77
379.738	45.4
379.948	35.16
380.158	4.44
380.369	18.77
380.579	33.11
380.789	43.35
380.999	82.26
381.21	86.36
381.42	141.65
381.63	-20.14
381.84	76.12
382.05	61.78
382.261	53.59
382.471	12.63
382.681	53.59
382.891	106.84
383.101	69.97
383.311	31.06
383.521	12.63
383.731	110.93
383.941	110.93
384.151	-52.91
384.361	49.49
384.571	76.12
384.781	18.77
384.991	72.02
385.201	117.08
385.411	86.36
385.621	59.73
385.831	24.92
386.041	12.63
386.251	63.83
386.461	78.16
386.671	74.07
386.881	112.98
387.091	-13.99
387.301	108.88
387.511	-79.53
387.72	61.78
387.93	41.3
388.14	37.2
388.35	-42.67
388.56	94.55
388.769	41.3
388.979	94.55
389.189	-20.14
389.399	78.16
389.609	10.58
389.818	26.96
390.028	100.69
390.238	29.01
390.447	-1.71
390.657	69.97
390.867	16.73
391.076	67.92
391.286	51.54
391.496	53.59
391.705	59.73
391.915	59.73
392.125	49.49
392.334	61.78
392.544	69.97
392.753	55.64
392.963	31.06
393.172	76.12
393.382	-13.99
393.591	141.65
393.801	18.77
394.01	96.6
394.22	53.59
394.429	51.54
394.639	51.54
394.848	123.22
395.058	123.22
395.267	84.31
395.477	55.64
395.686	43.35
395.895	90.45
396.105	84.31
396.314	135.51
396.524	94.55
396.733	47.44
396.942	26.96
397.152	39.25
397.361	76.12
397.57	53.59
397.78	8.53
397.989	53.59
398.198	178.51
398.407	69.97
398.617	24.92
398.826	10.58
399.035	76.12
399.244	112.98
399.453	43.35
399.663	110.93
399.872	63.83
400.081	123.22
400.29	2.39
400.499	53.59
400.708	88.4
400.917	69.97
401.127	78.16
401.336	96.6
401.545	115.03
401.754	41.3
401.963	100.69
402.172	117.08
402.381	43.35
402.59	76.12
402.799	125.27
403.008	86.36
403.217	72.02
403.426	196.95
403.635	2.39
403.844	80.21
404.053	61.78
404.262	92.5
404.471	84.31
404.68	43.35
404.888	121.17
405.097	121.17
405.306	170.32
405.515	106.84
405.724	88.4
405.933	180.56
406.142	133.46
406.35	151.89
406.559	203.09
406.768	98.64
406.977	237.91
407.185	149.84
407.394	264.53
407.603	78.16
407.812	127.32
408.02	192.85
408.229	158.03
408.438	117.08
408.646	223.57
408.855	174.42
409.064	190.8
409.272	176.47
409.481	264.53
409.69	194.9
409.898	260.43
410.107	231.76
410.315	274.77
410.524	272.72
410.733	239.95
410.941	231.76
411.15	256.34
411.358	280.91
411.567	323.92
411.775	276.82
411.984	330.06
412.192	272.72
412.401	389.46
412.609	397.65
412.818	383.31
413.026	371.02
413.234	291.15
413.443	416.08
413.651	477.52
413.86	379.22
414.068	459.09
414.276	475.47
414.485	432.46
414.693	457.04
414.901	551.24
415.11	553.29
415.318	479.57
415.526	579.92
415.734	543.05
415.943	604.49
416.151	627.02
416.359	633.16
416.567	674.12
416.776	702.79
416.984	788.81
417.192	700.75
417.4	715.08
417.608	788.81
417.817	786.76
418.025	788.81
418.233	956.74
418.441	846.15
418.649	895.3
418.857	1018.18
419.065	995.65
419.273	975.17
419.481	1007.94
419.689	1108.29
419.897	1046.85
420.105	1182.02
420.313	1241.41
420.521	1091.91
420.729	1284.42
420.937	1202.5
421.145	1208.64
421.353	1335.62
421.561	1378.62
421.769	1413.44
421.977	1395.01
422.185	1638.72
422.393	1595.71
422.601	1784.12
422.809	1747.26
423.017	1608
423.224	1739.07
423.432	1855.8
423.64	1911.1
423.848	2011.45
424.056	1995.06
424.263	2148.66
424.471	2036.02
424.679	2173.24
424.887	2320.69
425.094	2273.59
425.302	2418.99
425.51	2466.1
425.718	2511.15
425.925	2435.38
426.133	2629.93
426.341	2838.83
426.548	2963.75
426.756	2935.08
426.964	2924.84
427.171	3064.1
427.379	3182.88
427.586	3201.32
427.794	3262.76
428.001	3467.55
428.209	3649.82
428.417	3528.99
428.624	3868.95
428.832	3911.96
429.039	3914.01
429.247	3791.13
429.454	4378.9
429.662	4557.07
429.869	4186.39
430.076	4532.5
430.284	4358.42
430.491	4581.65
430.699	4630.8
430.906	4765.96
431.114	4718.86
431.321	4868.36
431.528	5001.48
431.736	5466.37
431.943	5636.35
432.15	5568.77
432.358	5607.68
432.565	5820.67
432.772	5822.72
432.979	6326.52
433.187	6293.75
433.394	6322.42
433.601	6736.11
433.808	6562.03
434.016	6646
434.223	6928.62
434.43	7545.06
434.637	7489.76
434.844	7938.27
435.052	7928.03
435.259	7796.96
435.466	7753.95
435.673	7762.14
435.88	8288.47
436.087	8747.22
436.294	8853.71
436.501	8388.82
436.708	8788.18
436.915	8931.53
437.122	9504.96
437.329	9216.2
437.537	9756.86
437.743	9765.06
437.95	9801.92
438.157	10307.77
438.364	10467.51
438.571	10500.28
438.778	10516.66
438.985	11722.91
439.192	11147.44
439.399	11511.97
439.606	11274.41
439.813	11909.28
440.02	12640.4
440.227	12298.39
440.433	12302.49
440.64	12671.12
440.847	12486.81
441.054	12828.82
441.261	13746.31
441.467	13576.33
441.674	13834.37
441.881	14293.12
442.088	14237.82
442.294	14059.65
442.501	14680.18
442.708	14782.58
442.914	15446.12
443.121	15935.59
443.328	15706.21
443.534	16586.84
443.741	16167.01
443.948	16074.85
444.154	17152.08
444.361	16980.05
444.568	17199.18
444.774	17420.36
444.981	17412.17
445.187	17834.05
445.394	18860.09
445.6	18372.67
445.807	20289.57
446.013	19662.89
446.22	19609.64
446.426	20371.49
446.633	20699.16
446.839	21233.68
447.046	20461.6
447.252	21825.54
447.459	21471.25
447.665	21370.9
447.871	22587.39
448.078	23267.31
448.284	22323.2
448.491	22794.23
448.697	23609.33
448.903	24393.7
449.11	24227.81
449.316	23797.74
449.522	24193
449.728	25012.18
449.935	25104.34
450.141	24985.56
450.347	25391.06
450.553	24778.72
450.76	25176.02
450.966	26138.57
451.172	26091.46
451.378	26554.3
451.584	26003.4
451.791	26650.56
451.997	26726.33
452.203	26738.62
452.409	27158.45
452.615	26982.33
452.821	25978.82
453.027	25833.42
453.233	27011
453.44	26154.95
453.646	26253.25
453.852	26609.6
454.058	27221.94
454.264	25821.13
454.47	26838.97
454.676	25917.39
454.882	26795.96
455.088	24643.55
455.294	24973.27
455.5	25540.56
455.705	25806.8
455.911	24412.13
456.117	24123.37
456.323	23980.01
456.529	22441.98
456.735	23717.87
456.941	23031.8
457.147	22566.91
457.352	21909.51
457.558	21907.46
457.764	21669.9
457.97	21293.07
458.176	20887.57
458.381	20774.94
458.587	19597.35
458.793	20111.39
458.999	18937.91
459.204	20367.39
459.41	19800.1
459.616	18470.97
459.821	18577.47
460.027	18282.56
460.233	18004.03
460.438	17322.06
460.644	17164.37
460.85	16738.39
461.055	16222.3
461.261	16287.84
461.466	15226.99
461.672	14657.65
461.878	15884.39
462.083	14520.44
462.289	14123.13
462.494	14149.76
462.7	13701.25
462.905	13291.66
463.111	13805.7
463.316	13883.52
463.522	13551.75
463.727	13183.12
463.932	13228.17
464.138	13303.95
464.343	13254.8
464.549	12671.12
464.754	13125.77
464.959	13291.66
465.165	12933.26
465.37	12722.32
465.575	12144.8
465.781	12796.05
465.986	12744.85
466.191	12167.32
466.397	12021.92
466.602	11333.8
466.807	11954.33
467.012	11905.18
467.218	11962.53
467.423	11837.6
467.628	11954.33
467.833	12077.21
468.038	12021.92
468.244	11360.42
468.449	11954.33
468.654	11495.59
468.859	11389.1
469.064	11468.97
469.269	10881.2
469.474	11294.89
469.679	11206.83
469.885	10848.43
470.09	11092.14
470.295	11059.37
470.5	10660.02
470.705	10647.73
470.91	10520.76
471.115	10526.9
471.32	10531
471.525	10672.31
471.73	10363.06
471.935	10275
472.139	9877.69
472.344	10105.02
472.549	10019
472.754	9953.47
472.959	9617.6
473.164	9445.57
473.369	9365.7
473.574	9705.67
473.778	9556.16
473.983	9586.88
474.188	9455.81
474.393	8988.88
474.598	9320.65
474.802	9197.77
475.007	9060.56
475.212	9050.32
475.417	8720.59
475.621	8634.58
475.826	8741.07
476.031	8544.47
476.235	8349.91
476.44	8513.75
476.645	8292.57
476.849	8327.38
477.054	8325.33
477.259	8231.13
477.463	8018.14
477.668	7944.41
477.872	7876.83
478.077	7604.45
478.282	7639.26
478.486	7637.22
478.691	7848.16
478.895	7553.25
479.1	7174.38
479.304	7583.97
479.509	7229.67
479.713	7491.81
479.918	7233.77
480.122	7080.17
480.326	7211.24
480.531	7268.58
480.735	7086.31
480.94	7065.83
481.144	7309.54
481.348	7033.07
481.553	6783.21
481.757	6824.17
481.961	7010.54
482.166	7155.94
482.37	6932.72
482.574	6781.17
482.778	6842.6
482.983	7063.79
483.187	6918.38
483.391	7092.46
483.595	6873.32
483.8	6793.45
484.004	6936.81
484.208	6992.11
484.412	6867.18
484.616	6940.91
484.821	6916.33
485.025	6858.99
485.229	6953.2
485.433	6801.65
485.637	6928.62
485.841	6867.18
486.045	6818.03
486.249	6973.67
486.453	6861.04
486.657	7018.73
486.861	6971.63
487.065	6605.04
487.269	6893.8
487.473	6842.6
487.677	6918.38
487.881	6916.33
488.085	6947.05
488.289	6793.45
488.493	6867.18
488.697	6809.84
488.901	6971.63
489.105	7074.03
489.309	6938.86
489.512	6985.96
489.716	6889.71
489.92	6928.62
490.124	7061.74
490.328	7141.61
490.531	7010.54
490.735	6983.91
490.939	7090.41
491.143	7033.07
491.346	7090.41
491.55	7317.73
491.754	7147.75
491.958	7295.21
492.161	7362.79
492.365	7262.44
492.569	7297.25
492.772	7407.84
492.976	7080.17
493.18	7303.4
493.383	7332.07
493.587	7434.47
493.79	7393.51
493.994	7479.52
494.197	7596.26
494.401	7522.53
494.605	7653.6
494.808	7952.6
495.012	7864.54
495.215	7571.68
495.419	7743.71
495.622	7747.81
495.825	7944.41
496.029	7874.78
496.232	8059.1
496.436	8190.17
496.639	8532.18
496.843	8298.71
497.046	8333.53
497.249	8505.56
497.453	8513.75
497.656	8544.47
497.859	8562.9
498.063	8614.1
498.266	8751.31
498.469	8986.83
498.673	8947.92
498.876	9179.34
499.079	9275.59
499.282	9050.32
499.485	9515.2
499.689	9459.91
499.892	9533.64
500.095	9494.72
500.298	9859.26
500.501	9603.27
500.705	9953.47
500.908	10358.97
501.111	10131.64
501.314	10336.44
501.517	10387.64
501.72	10473.65
501.923	10344.63
502.126	10639.54
502.329	10834.1
502.532	10979.5
502.735	10961.07
502.938	11204.78
503.141	11178.15
503.344	11516.07
503.547	11411.62
503.75	11548.84
503.953	11634.85
504.156	11706.53
504.359	11960.48
504.562	12126.36
504.765	12329.11
504.968	12159.13
505.17	12603.54
505.373	12443.8
505.576	12744.85
505.779	12783.76
505.982	12898.45
506.185	13158.54
506.387	13258.89
506.59	13217.93
506.793	13662.34
506.996	13682.82
507.198	14135.42
507.401	13879.43
507.604	14313.59
507.807	14375.03
508.009	14348.41
508.212	14379.13
508.415	14755.96
508.617	14618.74
508.82	14653.56
509.022	15116.4
509.225	15323.24
509.428	15429.74
509.63	15435.88
509.833	15560.81
510.035	16089.18
510.238	15927.39
510.44	16386.14
510.643	16480.35
510.845	16474.2
511.048	16353.37
511.25	16918.61
511.453	16789.59
511.655	17289.29
511.858	17172.56
512.06	17410.12
512.262	17580.11
512.465	17616.97
512.667	17901.64
512.87	18057.28
513.072	17813.57
513.274	18458.68
513.477	18579.51
513.679	18681.91
513.881	19038.26
514.084	19189.81
514.286	19056.69
514.488	19312.69
514.69	19843.11
514.893	19822.63
515.095	19736.62
515.297	20070.44
515.499	20264.99
515.701	20205.6
515.904	20344.86
516.106	20910.1
516.308	20815.9
516.51	21190.67
516.712	21125.14
516.914	21235.73
517.116	21774.35
517.318	21430.29
517.52	22118.4
517.722	21921.8
517.925	22534.14
518.127	22454.27
518.329	22878.2
518.531	22681.6
518.733	23107.57
518.935	23058.42
519.136	23781.35
519.338	23547.89
519.54	23961.58
519.742	23855.08
519.944	24016.87
520.146	24778.72
520.348	24633.31
520.55	24463.33
520.752	24758.24
520.954	25214.93
521.155	25171.93
521.357	25462.74
521.559	25657.29
521.761	25880.52
521.963	25645.01
522.164	25831.37
522.366	26261.44
522.568	26165.19
522.77	26474.43
522.971	27035.58
523.173	26900.41
523.375	27125.69
523.576	27277.24
523.778	27221.94
523.98	27324.34
524.181	27676.59
524.383	27809.71
524.584	28186.54
524.786	27611.06
524.988	28071.85
525.189	28151.72
525.391	28575.65
525.592	28706.72
525.794	28759.97
525.995	28932
526.197	28635.04
526.398	28759.97
526.6	28940.19
526.801	29042.59
527.003	29413.27
527.204	29259.67
527.406	29413.27
527.607	29505.43
527.808	30099.34
528.01	29187.99
528.211	29880.21
528.412	30392.2
528.614	30224.26
528.815	30539.65
529.016	30678.91
529.218	30521.22
529.419	30529.41
529.62	30531.46
529.822	30422.92
530.023	30349.19
530.224	30693.25
530.425	30545.8
530.626	30551.94
530.828	30388.1
531.029	30984.06
531.23	30721.92
531.431	30654.34
531.632	30842.75
531.833	31061.88
532.035	30558.08
532.236	30994.3
532.437	31100.79
532.638	30707.58
532.839	31154.04
533.04	31502.2
533.241	30814.08
533.442	31453.05
533.643	31151.99
533.844	31057.79
534.045	31164.28
534.246	31090.55
534.447	31641.46
534.648	31551.35
534.849	31575.92
535.05	30812.03
535.251	31332.22
535.451	31188.86
535.652	31532.92
535.853	31154.04
536.054	31481.72
536.255	31324.02
536.456	31281.02
536.657	31750
536.857	31377.27
537.058	31164.28
537.259	31336.31
537.46	31487.86
537.66	31272.82
537.861	31532.92
538.062	31367.03
538.263	31332.22
538.463	30926.72
538.664	30951.29
538.865	31565.68
539.065	31524.72
539.266	31170.43
539.466	31127.42
539.667	30691.2
539.868	31778.67
540.068	31446.9
540.269	31303.54
540.469	31373.17
540.67	31121.27
540.87	31117.18
541.071	31141.75
541.271	31461.24
541.472	31258.49
541.672	31276.92
541.873	31022.97
542.073	30855.04
542.274	31451
542.474	30826.37
542.675	31033.21
542.875	31295.35
543.075	30746.5
543.276	31125.37
543.476	31151.99
543.676	30816.13
543.877	30822.27
544.077	30850.94
544.277	31074.17
544.478	30711.68
544.678	31154.04
544.878	31278.97
545.078	31227.77
545.279	30621.57
545.479	30736.26
545.679	30883.71
545.879	31186.81
546.079	30852.99
546.28	30838.65
546.48	30781.31
546.68	31227.77
546.88	31240.06
547.08	30963.58
547.28	30961.53
547.48	30517.12
547.68	30955.39
547.88	31031.16
548.081	30713.73
548.281	30904.19
548.481	30992.25
548.681	31051.64
548.881	31057.79
549.081	30777.22
549.28	30871.42
549.48	31158.14
549.68	30881.66
549.88	31305.59
550.08	30672.77
550.28	30881.66
550.48	30422.92
550.68	31115.13
550.88	30478.21
551.08	30738.3
551.279	30801.79
551.479	30637.95
551.679	30379.91
551.879	30857.09
552.079	30408.58
552.278	30775.17
552.478	30406.53
552.678	30390.15
552.878	30689.15
553.077	30836.61
553.277	30289.8
553.477	30994.3
553.676	30631.81
553.876	30752.64
554.076	30496.64
554.275	30500.74
554.475	30035.85
554.674	30488.45
554.874	30939.01
555.074	30166.92
555.273	30467.97
555.473	30494.6
555.672	30326.66
555.872	30437.25
556.071	30429.06
556.271	30506.88
556.47	30322.57
556.67	29890.45
556.869	30023.56
557.068	30336.9
557.268	30140.3
557.467	29937.55
557.667	30009.23
557.866	30080.91
558.065	29663.12
558.265	29908.88
558.464	29634.45
558.663	30078.86
558.863	29654.93
559.062	29728.66
559.261	29310.87
559.461	30062.47
559.66	29482.9
559.859	29915.02
560.058	29333.4
560.258	29357.97
560.457	29333.4
560.656	29824.91
560.855	29376.41
561.054	29724.56
561.253	29364.12
561.453	29335.45
561.652	29448.08
561.851	29130.65
562.05	29388.69
562.249	29147.03
562.448	29558.67
562.647	29151.13
562.846	29290.39
563.045	28856.22
563.244	28522.4
563.443	28925.85
563.642	28618.66
563.841	29042.59
564.04	28692.38
564.239	28956.57
564.438	28520.35
564.637	28444.58
564.836	28649.38
565.035	28411.81
565.234	28405.67
565.432	28612.51
565.631	28399.52
565.83	28538.79
566.029	28241.83
566.228	28413.86
566.427	28180.39
566.625	28067.75
566.824	28231.59
567.023	28317.61
567.222	27772.85
567.42	28071.85
567.619	28059.56
567.818	27709.36
568.016	27965.35
568.215	28061.61
568.414	27670.45
568.612	28018.6
568.811	27588.53
569.01	27791.28
569.208	27453.36
569.407	27463.6
569.605	27037.62
569.804	27463.6
570.002	26967.99
570.201	27201.46
570.4	27117.5
570.598	26900.41
570.797	26683.33
570.995	26949.56
571.193	26636.22
571.392	27137.98
571.59	26793.92
571.789	26712
571.987	26642.37
572.186	26417.09
572.384	26456
572.582	26664.89
572.781	26929.08
572.979	26253.25
573.177	26496.96
573.376	26490.82
573.574	26185.67
573.772	26275.78
573.971	25968.59
574.169	26064.84
574.367	25704.4
574.565	26044.36
574.763	26036.17
574.962	25726.92
575.16	25341.91
575.358	25554.9
575.556	25397.2
575.754	25935.82
575.952	25724.88
576.151	25427.92
576.349	25169.88
576.547	25458.64
576.745	25210.84
576.943	25323.47
577.141	25077.72
577.339	25290.71
577.537	24913.88
577.735	24868.83
577.933	24842.2
578.131	25014.23
578.329	24956.89
578.527	24717.28
578.725	24563.68
578.923	25176.02
579.121	24557.53
579.319	24553.44
579.516	24696.8
579.714	24805.34
579.912	24362.98
580.11	24074.21
580.308	24387.55
580.506	24242.15
580.704	23717.87
580.901	24035.3
581.099	24207.33
581.297	23963.62
581.495	23738.35
581.692	24002.54
581.89	23508.97
582.088	23807.98
582.285	23629.8
582.483	23816.17
582.681	23758.83
582.878	23730.16
583.076	23590.89
583.274	23687.15
583.471	23285.75
583.669	23281.65
583.866	23234.55
584.064	23283.7
584.262	22966.26
584.459	23027.7
584.657	22837.24
584.854	23138.29
585.052	22722.55
585.249	23150.58
585.447	22900.73
585.644	22630.4
585.841	22695.93
586.039	23064.57
586.236	22382.59
586.434	22366.21
586.631	22603.77
586.828	22480.89
587.026	22458.37
587.223	22429.7
587.42	22157.32
587.618	21983.24
587.815	22052.87
588.012	21940.23
588.21	21942.28
588.407	22079.49
588.604	21936.13
588.801	21647.37
588.999	21594.12
589.196	21710.86
589.393	21671.95
589.59	21538.83
589.787	21659.66
589.984	21432.33
590.182	21147.67
590.379	21235.73
590.576	21374.99
590.773	21284.88
590.97	21223.44
591.167	21162
591.364	21170.19
591.561	21059.6
591.758	20926.49
591.955	20989.97
592.152	20793.37
592.349	20674.59
592.546	20850.71
592.743	20815.9
592.94	20670.49
593.137	20535.32
593.334	20672.54
593.531	20099.11
593.727	20330.53
593.924	20322.34
594.121	20068.39
594.318	20310.05
594.515	20226.08
594.712	20140.07
594.908	20041.76
595.105	19826.73
595.302	19712.04
595.499	19974.18
595.696	19654.7
595.892	19478.57
596.089	19779.62
596.286	19781.67
596.482	19826.73
596.679	19501.1
596.876	19423.28
597.072	19597.35
597.269	19611.69
597.466	19167.28
597.662	19460.14
597.859	19298.35
598.055	19148.85
598.252	19187.76
598.448	18915.38
598.645	18995.25
598.841	18917.43
599.038	18622.52
599.234	19015.73
599.431	18526.27
599.627	18872.37
599.824	18884.66
600.02	18286.65
600.217	18643
600.413	18532.41
600.609	18331.71
600.806	18241.6
601.002	18520.12
601.198	18239.55
601.395	18116.67
601.591	17995.84
601.787	18153.54
601.984	18024.51
602.18	18077.76
602.376	17991.75
602.572	17936.45
602.769	17809.48
602.965	17772.61
603.161	17674.31
603.357	17666.12
603.553	17631.3
603.75	17825.86
603.946	17614.92
604.142	17485.9
604.338	17348.68
604.534	17354.83
604.73	17158.22
604.926	17266.77
605.122	17178.7
605.318	17084.5
605.514	17057.87
605.71	17096.78
605.906	16943.19
606.102	17094.74
606.298	17018.96
606.494	17023.06
606.69	16984.15
606.886	16871.51
607.082	16836.69
607.278	16672.85
607.474	16646.23
607.67	16578.65
607.866	16535.64
608.062	16789.59
608.257	16445.53
608.453	16445.53
608.649	16554.07
608.845	16306.27
609.041	16265.31
609.236	16240.73
609.432	16343.13
609.628	16242.78
609.824	16330.84
610.019	16242.78
610.215	16279.64
610.411	16298.08
610.606	16185.44
610.802	16240.73
610.998	15997.03
611.193	16312.41
611.389	16042.08
611.584	16140.38
611.78	16027.74
611.976	15698.02
612.171	15855.72
612.367	16050.27
612.562	15575.14
612.758	15595.62
612.953	15673.45
613.149	15726.69
613.344	15673.45
613.539	15941.73
613.735	15962.21
613.93	15964.26
614.126	15470.7
614.321	15454.31
614.517	15640.68
614.712	15550.57
614.907	15454.31
615.103	15689.83
615.298	15577.19
615.493	15437.93
615.688	15280.24
615.884	15575.14
616.079	15159.41
616.274	15243.37
616.47	15239.28
616.665	15192.17
616.86	14698.61
617.055	15100.01
617.25	15079.54
617.445	15290.48
617.641	14694.52
617.836	15413.35
618.031	14850.16
618.226	15054.96
618.421	14678.13
618.616	14913.65
618.811	14637.17
619.006	14706.8
619.201	14692.47
619.396	14553.21
619.591	14370.94
619.786	14616.69
619.981	14375.03
620.176	14444.66
620.371	14422.14
620.566	14260.35
620.761	14192.76
620.956	14325.88
621.151	13856.9
621.346	13867.14
621.541	13897.86
621.735	14100.61
621.93	13830.27
622.125	13895.81
622.32	13746.31
622.515	13590.66
622.709	13416.58
622.904	13478.02
623.099	13660.29
623.294	13361.29
623.488	13224.08
623.683	13361.29
623.878	13019.28
624.072	13185.16
624.267	12986.51
624.462	12961.94
624.656	12810.39
624.851	12963.98
625.046	12953.74
625.24	12837.01
625.435	12597.4
625.629	12591.25
625.824	12613.78
626.018	12417.18
626.213	12196
626.407	12447.9
626.602	12245.15
626.796	12445.85
626.991	12126.36
627.185	12253.34
627.38	11892.9
627.574	11927.71
627.768	11800.74
627.963	11802.79
628.157	11667.62
628.352	11626.66
628.546	11491.49
628.74	11552.93
628.935	11387.05
629.129	11438.25
629.323	11331.75
629.517	11417.77
629.712	11372.71
629.906	11385
630.1	11153.58
630.294	11366.57
630.489	10893.49
630.683	10973.36
630.877	11018.41
631.071	10907.82
631.265	10965.17
631.459	10809.52
631.653	10537.14
631.848	10827.95
632.042	10545.33
632.236	10627.25
632.43	10332.34
632.624	10625.2
632.818	10498.23
633.012	10266.81
633.206	10266.81
633.4	10404.02
633.594	10086.59
633.788	10178.75
633.982	10201.27
634.176	9994.43
634.369	9990.33
634.563	9857.21
634.757	9789.63
634.951	9873.6
635.145	9810.11
635.339	9676.99
635.533	9756.86
635.726	9597.12
635.92	9656.51
636.114	9398.47
636.308	9476.29
636.501	9640.13
636.695	9353.41
636.889	9205.96
637.083	9244.87
637.276	9310.41
637.47	9277.64
637.664	8902.86
637.857	9074.89
638.051	9062.6
638.244	9201.86
638.438	9109.71
638.632	9074.89
638.825	8769.74
639.019	8769.74
639.212	8816.85
639.406	8718.54
639.599	8720.59
639.793	8610
639.986	8554.71
640.18	8599.76
640.373	8587.47
640.567	8317.14
640.76	8364.25
640.954	8296.66
641.147	8415.44
641.34	8386.77
641.534	8382.68
641.727	8272.09
641.92	8227.03
642.114	7882.97
642.307	8243.42
642.5	8057.05
642.694	7993.56
642.887	7932.12
643.08	8048.86
643.273	7858.4
643.467	7999.71
643.66	7825.63
643.853	7747.81
644.046	7581.92
644.239	7647.46
644.432	7710.94
644.626	7473.38
644.819	7530.72
645.012	7629.02
645.205	7561.44
645.398	7432.42
645.591	7481.57
645.784	7543.01
645.977	7344.36
646.17	7278.82
646.363	7215.34
646.556	7258.34
646.749	7149.8
646.942	7170.28
647.135	7141.61
647.328	7067.88
647.521	6979.82
647.714	7084.27
647.907	7112.94
648.099	6949.1
648.292	6957.29
648.485	6926.57
648.678	6824.17
648.871	6938.86
649.064	6783.21
649.256	6844.65
649.449	6637.81
649.642	6435.06
649.835	6615.28
650.027	6590.7
650.22	6605.04
650.413	6531.31
650.605	6598.9
650.798	6445.3
650.991	6430.96
651.183	6385.91
651.376	6285.56
651.568	6129.91
651.761	6306.04
651.954	6242.55
652.146	6166.78
652.339	6244.6
652.531	6291.7
652.724	6125.82
652.916	5935.35
653.109	6031.61
653.301	6064.38
653.494	6097.14
653.686	5925.11
653.879	5974.27
654.071	6025.47
654.263	5910.78
654.456	5820.67
654.648	5867.77
654.84	5761.28
655.033	5851.39
655.225	5779.71
655.417	5615.87
655.61	5744.89
655.802	5697.79
655.994	5558.53
656.186	5581.06
656.379	5576.96
656.571	5579.01
656.763	5374.21
656.955	5511.43
657.148	5525.76
657.34	5484.8
657.532	5484.8
657.724	5519.62
657.916	5224.71
658.108	5384.45
658.3	5370.12
658.492	5341.44
658.684	5085.45
658.876	5153.03
659.068	5171.46
659.26	5036.3
659.452	5048.58
659.644	5138.69
659.836	5157.13
660.028	5269.76
660.22	4991.24
660.412	4987.15
660.604	4788.49
660.796	4892.94
660.988	4888.84
661.18	4737.29
661.372	4813.07
661.563	5007.62
661.755	4868.36
661.947	4682
662.139	4794.64
662.331	4794.64
662.522	4647.18
662.714	4745.48
662.906	4684.05
663.097	4657.42
663.289	4641.04
663.481	4507.92
663.673	4583.7
663.864	4575.5
664.056	4540.69
664.247	4536.59
664.439	4569.36
664.631	4505.87
664.822	4344.08
665.014	4493.58
665.205	4286.74
665.397	4339.99
665.588	4350.23
665.78	4288.79
665.971	4464.91
666.163	4311.32
666.354	4180.25
666.546	4122.9
666.737	4163.86
666.929	4274.45
667.12	4251.92
667.311	4149.53
667.503	4188.44
667.694	3957.02
667.885	4188.44
668.077	4157.72
668.268	4075.8
668.459	4106.52
668.651	4075.8
668.842	4131.09
669.033	3985.69
669.224	3977.5
669.416	4049.18
669.607	3911.96
669.798	3967.26
669.989	3938.59
670.18	3860.76
670.371	3922.2
670.563	3780.89
670.754	3799.32
670.945	3813.66
671.136	3746.08
671.327	3791.13
671.518	3864.86
671.709	3856.67
671.9	3797.28
672.091	3737.88
672.282	3635.49
672.473	3557.66
672.664	3690.78
672.855	3483.94
673.046	3625.25
673.237	3627.29
673.428	3465.5
673.619	3590.43
673.809	3504.42
674	3553.57
674.191	3506.46
674.382	3623.2
674.573	3641.63
674.764	3442.98
674.954	3467.55
675.145	3426.59
675.336	3361.06
675.527	3479.84
675.717	3520.8
675.908	3354.91
676.099	3369.25
676.289	3381.54
676.48	3320.1
676.671	3393.83
676.861	3445.02
677.052	3277.09
677.243	3344.67
677.433	3170.6
677.624	3311.91
677.814	3295.52
678.005	3279.14
678.195	3402.02
678.386	3256.61
678.576	3086.63
678.767	3129.64
678.957	3322.15
679.148	3307.81
679.338	3129.64
679.529	3232.04
679.719	3125.54
679.909	3172.64
680.1	3232.04
680.29	3172.64
680.481	3107.11
680.671	3141.93
680.861	3082.53
681.052	3107.11
681.242	3209.51
681.432	3107.11
681.622	3094.82
681.813	3098.92
682.003	2994.47
682.193	2978.09
682.383	2969.9
682.573	2969.9
682.764	3002.66
682.954	3086.63
683.144	3010.86
683.334	2963.75
683.524	2949.42
683.714	3060.01
683.904	2935.08
684.094	2939.18
684.284	2924.84
684.474	2988.33
684.664	2957.61
684.854	2924.84
685.044	2894.12
685.234	2976.04
685.424	2713.9
685.614	2812.2
685.804	2943.27
685.994	2767.15
686.184	2754.86
686.374	2697.52
686.564	2758.96
686.753	2781.48
686.943	2842.92
687.133	2754.86
687.323	2763.05
687.513	2887.98
687.702	2795.82
687.892	2699.56
688.082	2871.59
688.272	2789.67
688.461	2730.28
688.651	2801.96
688.841	2648.36
689.03	2720.04
689.22	2494.77
689.41	2705.71
689.599	2683.18
689.789	2664.75
689.979	2672.94
690.168	2556.21
690.358	2560.3
690.547	2627.89
690.737	2566.45
690.926	2517.29
691.116	2472.24
691.305	2574.64
691.495	2380.08
691.684	2433.33
691.874	2429.23
692.063	2462
692.252	2394.42
692.442	2435.38
692.631	2470.19
692.82	2398.51
693.01	2353.46
693.199	2306.35
693.388	2335.03
693.578	2437.42
693.767	2365.75
693.956	2347.31
694.146	2230.58
694.335	2316.59
694.524	2337.07
694.713	2287.92
694.902	2322.74
695.092	2246.96
695.281	2263.35
695.47	2423.09
695.659	2310.45
695.848	2289.97
696.037	2306.35
696.226	2287.92
696.415	2210.1
696.604	2263.35
696.793	2296.11
696.982	2306.35
697.171	2242.87
697.36	2292.02
697.549	2230.58
697.738	2267.44
697.927	2091.32
698.116	2165.04
698.305	2210.1
698.494	2189.62
698.683	2128.18
698.872	2185.52
699.061	2144.56
699.25	2093.37
699.438	2191.67
699.627	2246.96
699.816	2173.24
700.005	2148.66
700.193	2140.47
700.382	2158.9
700.571	2109.75
700.76	2152.76
700.948	2201.91
701.137	2111.8
701.326	2140.47
701.514	1976.63
701.703	2251.06
701.892	2058.55
702.08	2181.43
702.269	2138.42
702.457	2148.66
702.646	2076.98
702.834	2103.61
703.023	2087.22
703.212	2068.79
703.4	1984.82
703.589	2054.45
703.777	2066.74
703.965	1990.97
704.154	2072.89
704.342	2097.46
704.531	2111.8
704.719	2060.6
704.907	2070.84
705.096	2070.84
705.284	1964.34
705.472	2027.83
705.661	2087.22
705.849	2152.76
706.037	2005.3
706.226	2021.69
706.414	2042.17
706.602	2036.02
706.79	2081.08
706.979	2019.64
707.167	2099.51
707.355	1993.01
707.543	2027.83
707.731	2011.45
707.919	1921.34
708.107	2064.69
708.296	2038.07
708.484	1964.34
708.672	1902.9
708.86	1958.2
709.048	1929.53
709.236	2099.51
709.424	2023.73
709.612	2023.73
709.8	1984.82
709.988	2003.25
710.176	1976.63
710.364	2050.36
710.551	1984.82
710.739	1980.73
710.927	2017.59
711.115	1943.86
711.303	2015.54
711.491	1902.9
711.679	1952.06
711.866	2029.88
712.054	1866.04
712.242	2021.69
712.43	1921.34
712.617	1947.96
712.805	1888.57
712.993	2079.03
713.181	1919.29
713.368	2046.26
713.556	1874.23
713.744	1947.96
713.931	1943.86
714.119	1904.95
714.306	1966.39
714.494	1878.33
714.682	1943.86
714.869	1939.77
715.057	1814.84
715.244	1937.72
715.432	1900.86
715.619	1952.06
715.807	1978.68
715.994	1806.65
716.182	1902.9
716.369	1995.06
716.556	1890.62
716.744	1909.05
716.931	1845.56
717.119	1911.1
717.306	1931.58
717.493	1927.48
717.681	1837.37
717.868	1962.3
718.055	1919.29
718.242	1929.53
718.43	1833.27
718.617	1898.81
718.804	1857.85
718.991	1917.24
719.179	1874.23
719.366	1866.04
719.553	1827.13
719.74	1837.37
719.927	1919.29
720.114	1829.18
720.301	1847.61
720.488	1743.16
720.676	1925.43
720.863	1896.76
721.05	1833.27
721.237	1960.25
721.424	1870.14
721.611	1829.18
721.798	1784.12
721.985	1884.47
722.172	1853.75
722.358	1780.03
722.545	1886.52
722.732	1880.38
722.919	1825.08
723.106	1849.66
723.293	1831.23
723.48	1857.85
723.667	1861.94
723.853	1773.88
724.04	1808.7
724.227	1790.27
724.414	1820.99
724.6	1816.89
724.787	1837.37
724.974	1859.9
725.161	1827.13
725.347	1855.8
725.534	1710.4
725.72	1751.35
725.907	1829.18
726.094	1804.6
726.28	1812.79
726.467	1726.78
726.653	1837.37
726.84	1812.79
727.027	1771.83
727.213	1837.37
727.4	1784.12
727.586	1798.46
727.773	1837.37
727.959	1841.47
728.145	1886.52
728.332	1730.87
728.518	1798.46
728.705	1796.41
728.891	1900.86
729.077	1771.83
729.264	1829.18
729.45	1747.26
729.636	1884.47
729.823	1808.7
730.009	1782.07
730.195	1763.64
730.382	1765.69
730.568	1755.45
730.754	1792.31
730.94	1829.18
731.126	1790.27
731.313	1745.21
731.499	1691.96
731.685	1831.23
731.871	1683.77
732.057	1759.55
732.243	1698.11
732.429	1741.11
732.615	1771.83
732.801	1675.58
732.987	1681.72
733.173	1784.12
733.359	1706.3
733.545	1777.98
733.731	1759.55
733.917	1788.22
734.103	1753.4
734.289	1775.93
734.475	1820.99
734.661	1780.03
734.847	1681.72
735.033	1761.59
735.219	1827.13
735.404	1681.72
735.59	1800.51
735.776	1706.3
735.962	1880.38
736.148	1763.64
736.333	1722.68
736.519	1661.24
736.705	1661.24
736.89	1665.34
737.076	1726.78
737.262	1671.48
737.447	1661.24
737.633	1681.72
737.819	1706.3
738.004	1653.05
738.19	1546.56
738.375	1710.4
738.561	1651
738.747	1743.16
738.932	1737.02
739.118	1780.03
739.303	1675.58
739.489	1689.92
739.674	1671.48
739.859	1567.04
740.045	1603.9
740.23	1591.61
740.416	1579.33
740.601	1651
740.786	1571.13
740.972	1612.09
741.157	1644.86
741.342	1571.13
741.528	1517.89
741.713	1689.92
741.898	1618.24
742.084	1532.22
742.269	1575.23
742.454	1651
742.639	1651
742.824	1644.86
743.01	1446.21
743.195	1542.46
743.38	1534.27
743.565	1470.78
743.75	1511.74
743.935	1548.61
744.12	1528.13
744.305	1476.93
744.49	1407.3
744.675	1493.31
744.86	1526.08
745.045	1489.21
745.23	1460.54
745.415	1423.68
745.6	1468.73
745.785	1489.21
745.97	1548.61
746.155	1366.34
746.34	1380.67
746.525	1403.2
746.71	1519.93
746.895	1276.23
747.079	1343.81
747.264	1454.4
747.449	1448.26
747.634	1460.54
747.819	1384.77
748.003	1296.71
748.188	1368.38
748.373	1319.23
748.557	1325.38
748.742	1313.09
748.927	1343.81
749.111	1304.9
749.296	1272.13
749.481	1364.29
749.665	1214.79
749.85	1290.56
750.034	1259.84
750.219	1276.23
750.404	1315.14
750.588	1274.18
750.773	1116.48
750.957	1190.21
751.141	1290.56
751.326	1136.96
751.51	1139.01
751.695	1165.64
751.879	1188.16
752.064	1298.75
752.248	1134.92
752.432	1194.31
752.617	1222.98
752.801	1139.01
752.985	1063.24
753.17	1073.48
753.354	1143.11
753.538	1161.54
753.722	1069.38
753.907	1034.57
754.091	1077.57
754.275	1096
754.459	1096
754.643	1034.57
754.828	1063.24
755.012	1120.58
755.196	954.69
755.38	1050.95
755.564	1038.66
755.748	1081.67
755.932	1018.18
756.116	1020.23
756.3	979.27
756.484	930.12
756.668	969.03
756.852	983.37
757.036	948.55
757.22	1024.33
757.404	907.59
757.588	911.69
757.772	899.4
757.956	956.74
758.14	1009.99
758.323	952.65
758.507	915.78
758.691	878.92
758.875	973.13
759.059	930.12
759.242	901.45
759.426	919.88
759.61	876.87
759.794	797
759.977	936.26
760.161	1020.23
760.345	846.15
760.528	905.54
760.712	862.54
760.895	794.95
761.079	948.55
761.263	805.19
761.446	887.11
761.63	799.05
761.813	819.53
761.997	797
762.18	831.82
762.364	784.71
762.547	731.47
762.731	727.37
762.914	790.86
763.098	749.9
763.281	788.81
763.464	805.19
763.648	811.34
763.831	780.62
764.015	721.23
764.198	831.82
764.381	741.71
764.564	725.32
764.748	772.43
764.931	790.86
765.114	831.82
765.297	768.33
765.481	751.95
765.664	786.76
765.847	749.9
766.03	713.03
766.213	749.9
766.397	807.24
766.58	717.13
766.763	788.81
766.946	751.95
767.129	784.71
767.312	731.47
767.495	739.66
767.678	715.08
767.861	659.79
768.044	674.12
768.227	735.56
768.41	700.75
768.593	710.99
768.776	731.47
768.959	710.99
769.142	694.6
769.324	606.54
769.507	661.84
769.69	651.6
769.873	641.36
770.056	715.08
770.239	643.4
770.421	661.84
770.604	737.61
770.787	688.46
770.97	645.45
771.152	653.64
771.335	706.89
771.518	584.01
771.7	715.08
771.883	733.51
772.066	665.93
772.248	573.77
772.431	629.07
772.613	596.3
772.796	641.36
772.978	680.27
773.161	686.41
773.343	616.78
773.526	612.68
773.708	606.54
773.891	618.83
774.073	534.86
774.256	506.19
774.438	620.88
774.621	500.05
774.803	676.17
774.985	471.37
775.168	608.59
775.35	547.15
775.532	610.64
775.715	504.14
775.897	524.62
776.079	534.86
776.261	547.15
776.444	545.1
776.626	551.24
776.808	469.33
776.99	618.83
777.173	477.52
777.355	567.63
777.537	543.05
777.719	545.1
777.901	479.57
778.083	493.9
778.265	559.44
778.447	516.43
778.629	481.61
778.811	477.52
778.993	526.67
779.175	504.14
779.357	543.05
779.539	395.6
779.721	416.08
779.903	477.52
780.085	422.22
780.267	446.8
780.449	510.29
780.631	469.33
780.812	446.8
780.994	493.9
781.176	444.75
781.358	356.69
781.54	473.42
781.721	452.94
781.903	504.14
782.085	414.03
782.267	387.41
782.448	366.93
782.63	405.84
782.812	463.18
782.993	379.22
783.175	469.33
783.357	301.39
783.538	350.54
783.72	432.46
783.901	354.64
784.083	393.55
784.264	436.56
784.446	289.1
784.627	377.17
784.809	358.74
784.99	340.3
785.172	379.22
785.353	362.83
785.535	325.97
785.716	379.22
785.897	381.26
786.079	379.22
786.26	319.82
786.441	334.16
786.623	256.34
786.804	387.41
786.985	334.16
787.167	352.59
787.348	366.93
787.529	317.78
787.71	414.03
787.891	346.45
788.073	319.82
788.254	239.95
788.435	350.54
788.616	256.34
788.797	340.3
788.978	272.72
789.159	321.87
789.34	270.67
789.522	260.43
789.703	330.06
789.884	307.54
790.065	266.58
790.246	297.3
790.427	231.76
790.607	289.1
790.788	280.91
790.969	198.99
791.15	274.77
791.331	309.58
791.512	205.14
791.693	215.38
791.874	176.47
792.054	297.3
792.235	260.43
792.416	313.68
792.597	225.62
792.778	280.91
792.958	301.39
793.139	307.54
793.32	250.19
793.5	272.72
793.681	338.26
793.862	246.1
794.042	248.15
794.223	268.63
794.404	198.99
794.584	192.85
794.765	174.42
794.945	246.1
795.126	297.3
795.306	252.24
795.487	192.85
795.667	258.39
795.848	219.47
796.028	174.42
796.209	215.38
796.389	258.39
796.57	272.72
796.75	172.37
796.93	186.71
797.111	174.42
797.291	258.39
797.471	219.47
797.652	174.42
797.832	153.94
798.012	149.84
798.192	256.34
798.373	125.27
798.553	190.8
798.733	174.42
798.913	190.8
799.093	233.81
799.274	174.42
799.454	198.99
799.634	223.57
799.814	244.05
799.994	272.72
800.174	205.14
800.354	198.99
800.534	129.36
800.714	229.71
800.894	168.27
801.074	239.95
801.254	170.32
801.434	198.99
801.614	174.42
801.794	178.51
801.974	729.42
802.154	172.37
802.334	182.61
802.514	186.71
802.693	76.12
802.873	145.75
803.053	203.09
803.233	125.27
803.413	182.61
803.592	110.93
803.772	184.66
803.952	239.95
804.131	215.38
804.311	201.04
804.491	125.27
804.67	190.8
804.85	125.27
805.03	125.27
805.209	207.19
805.389	162.13
805.568	115.03
805.748	145.75
805.928	127.32
806.107	141.65
806.287	137.56
806.466	174.42
806.646	145.75
806.825	115.03
807.004	145.75
807.184	170.32
807.363	147.8
807.543	112.98
807.722	127.32
807.901	194.9
808.081	217.43
808.26	57.68
808.439	125.27
808.619	135.51
808.798	133.46
808.977	151.89
809.156	108.88
809.336	141.65
809.515	176.47
809.694	53.59
809.873	155.99
810.052	211.28
810.231	141.65
810.411	139.6
810.59	133.46
810.769	242
810.948	141.65
811.127	135.51
811.306	59.73
811.485	117.08
811.664	72.02
811.843	61.78
812.022	125.27
812.201	78.16
812.38	133.46
812.559	102.74
812.737	174.42
812.916	121.17
813.095	137.56
813.274	115.03
813.453	184.66
813.632	86.36
813.811	106.84
813.989	88.4
814.168	67.92
814.347	86.36
814.526	63.83
814.704	104.79
814.883	67.92
815.062	98.64
815.24	219.47
815.419	84.31
815.598	35.16
815.776	51.54
815.955	104.79
816.133	88.4
816.312	72.02
816.49	22.87
816.669	145.75
816.847	65.88
817.026	149.84
817.204	106.84
817.383	92.5
817.561	96.6
817.74	131.41
817.918	194.9
818.097	102.74
818.275	94.55
818.453	119.12
818.632	20.82
818.81	92.5
818.988	67.92
819.167	96.6
819.345	43.35
819.523	0.34
819.701	33.11
819.879	102.74
820.058	110.93
820.236	115.03
820.414	82.26
820.592	100.69
820.77	125.27
820.948	63.83
821.127	39.25
821.305	104.79
821.483	65.88
821.661	133.46
821.839	100.69
822.017	112.98
822.195	51.54
822.373	110.93
822.551	104.79
822.729	88.4
822.907	37.2
823.085	76.12
823.262	67.92
823.44	106.84
823.618	82.26
823.796	76.12
823.974	18.77
824.152	125.27
824.329	88.4
824.507	4.44
824.685	84.31
824.863	22.87
825.04	98.64
825.218	125.27
825.396	100.69
825.574	117.08
825.751	18.77
825.929	61.78
826.107	41.3
826.284	22.87
826.462	-30.38
826.639	61.78
826.817	145.75
826.994	39.25
827.172	20.82
827.349	127.32
827.527	84.31
827.704	10.58
827.882	92.5
828.059	67.92
828.237	16.73
828.414	39.25
828.591	94.55
828.769	51.54
828.946	22.87
829.124	108.88
829.301	135.51
829.478	112.98
829.655	45.4
829.833	125.27
830.01	-3.75
830.187	92.5
830.364	43.35
830.542	137.56
830.719	117.08
830.896	59.73
831.073	84.31
831.25	59.73
831.427	78.16
831.604	67.92
831.782	29.01
831.959	16.73
832.136	117.08
832.313	47.44
832.49	4.44
832.667	98.64
832.844	76.12
833.021	67.92
833.198	29.01
833.374	67.92
833.551	-3.75
833.728	59.73
833.905	69.97
834.082	55.64
834.259	125.27
834.436	119.12
834.612	18.77
834.789	72.02
834.966	39.25
835.143	8.53
835.319	37.2
835.496	104.79
835.673	29.01
835.85	76.12
836.026	-30.38
836.203	102.74
836.38	41.3
836.556	67.92
836.733	39.25
836.909	92.5
837.086	96.6
837.262	14.68
837.439	31.06
837.616	72.02
837.792	-52.91
837.968	37.2
838.145	98.64
838.321	49.49
838.498	108.88
838.674	72.02
838.851	35.16
839.027	2.39
839.203	-5.8
839.38	110.93
839.556	-1.71
839.732	84.31
839.909	55.64
840.085	26.96
840.261	29.01
840.437	24.92
840.614	10.58
840.79	-18.09
840.966	102.74
841.142	26.96
841.318	90.45
841.494	94.55
841.671	-48.81
841.847	-1.71
842.023	-9.9
842.199	86.36
842.375	53.59
842.551	8.53
842.727	35.16
842.903	45.4
843.079	-22.19
843.255	100.69
843.431	2.39
843.607	26.96
843.783	37.2
843.959	76.12
844.134	59.73
844.31	53.59
844.486	59.73
844.662	-61.1
844.838	45.4
845.013	72.02
845.189	-26.28
845.365	72.02
845.541	-3.75
845.716	51.54
845.892	-22.19
846.068	-46.76
846.244	72.02
846.419	12.63
846.595	39.25
846.77	51.54
846.946	98.64
847.122	45.4
847.297	-34.47
847.473	-13.99
847.648	-30.38
847.824	-26.28
847.999	-13.99
848.175	100.69
848.35	121.17
848.526	80.21
848.701	55.64
848.876	33.11
849.052	100.69
849.227	31.06
849.403	61.78
849.578	18.77
849.753	47.44
849.929	10.58
850.104	-52.91
850.279	76.12
850.454	65.88
850.63	51.54
850.805	88.4
850.98	-1.71
851.155	26.96
851.33	10.58
851.505	67.92
851.681	82.26
851.856	6.49
852.031	29.01
852.206	18.77
852.381	20.82
852.556	18.77
852.731	63.83
852.906	-52.91
853.081	53.59
853.256	102.74
853.431	2.39
853.606	-5.8
853.781	-7.85
853.956	-20.14
854.131	43.35
854.305	18.77
854.48	43.35
854.655	-22.19
854.83	-44.71
855.005	14.68
855.18	-22.19
855.354	59.73
855.529	55.64
855.704	-5.8
855.879	39.25
856.053	-11.95
856.228	-28.33
856.403	10.58
856.577	-11.95
856.752	-46.76
856.926	24.92
857.101	-26.28
857.276	67.92
857.45	35.16
857.625	24.92
857.799	-5.8
857.974	51.54
858.148	2.39
858.323	49.49
858.497	-30.38
858.672	26.96
858.846	-38.57
859.02	35.16
859.195	-1.71
859.369	61.78
859.543	-3.75
859.718	10.58
859.892	86.36
860.066	55.64
860.241	18.77
860.415	2.39
860.589	-11.95
860.763	45.4
860.938	14.68
861.112	18.77
861.286	-1.71
861.46	26.96
861.634	78.16
861.808	82.26
861.982	18.77
862.157	26.96
862.331	-1.71
862.505	-26.28
862.679	-9.9
862.853	-1.71
863.027	-44.71
863.201	33.11
863.375	55.64
863.549	10.58
863.722	18.77
863.896	33.11
864.07	-34.47
864.244	0.34
864.418	-9.9
864.592	-52.91
864.766	14.68
864.939	74.07
865.113	-44.71
865.287	94.55
865.461	-42.67
865.634	-50.86
865.808	-61.1
865.982	-26.28
866.156	-28.33
866.329	-18.09
866.503	33.11
866.676	10.58
866.85	47.44
867.024	29.01
867.197	43.35
867.371	-20.14
867.544	-32.43
867.718	14.68
867.891	35.16
868.065	26.96
868.238	20.82
868.412	51.54
868.585	-22.19
868.759	-30.38
868.932	-61.1
869.105	-18.09
869.279	14.68
869.452	76.12
869.625	51.54
869.799	39.25
869.972	-52.91
870.145	-20.14
870.319	29.01
870.492	51.54
870.665	-20.14
870.838	-20.14
871.011	29.01
871.185	10.58
871.358	-5.8
871.531	45.4
871.704	43.35
871.877	61.78
872.05	33.11
872.223	-18.09
872.396	29.01
872.569	22.87
872.742	-20.14
872.915	65.88
873.088	-63.15
873.261	55.64
873.434	-13.99
873.607	-9.9
873.78	4.44
873.953	-9.9
874.126	59.73
874.299	43.35
874.471	-59.05
874.644	4.44
874.817	0.34
874.99	74.07
875.163	-3.75
875.335	-38.57
875.508	-16.04
875.681	10.58
875.853	53.59
876.026	-3.75
876.199	20.82
876.371	-50.86
876.544	-5.8
876.717	35.16
876.889	6.49
877.062	43.35
877.234	2.39
877.407	53.59
877.579	-5.8
877.752	78.16
877.924	20.82
878.097	80.21
878.269	-52.91
878.442	8.53
878.614	33.11
878.786	-32.43
878.959	29.01
879.131	-75.43
879.303	-50.86
879.476	20.82
879.648	110.93
879.82	20.82
879.993	43.35
880.165	-26.28
880.337	2.39
880.509	-13.99
880.681	12.63
880.854	-24.23
881.026	33.11
881.198	61.78
881.37	18.77
881.542	18.77
881.714	-61.1
881.886	22.87
882.058	-5.8
882.23	4.44
882.402	-34.47
882.574	-1.71
882.746	-30.38
882.918	69.97
883.09	-36.52
883.262	-104.11
883.434	-18.09
883.606	2.39
883.778	-3.75
883.95	-9.9
884.122	2.39
884.293	43.35
884.465	-46.76
884.637	18.77
884.809	-42.67
884.98	125.27
885.152	35.16
885.324	55.64
885.496	-1.71
885.667	-34.47
885.839	-13.99
886.011	26.96
886.182	-5.8
886.354	-13.99
886.525	108.88
886.697	6.49
886.869	-24.23
887.04	-7.85
887.212	63.83
887.383	20.82
887.555	-22.19
887.726	18.77
887.897	-5.8
888.069	-61.1
888.24	35.16
888.412	20.82
888.583	-20.14
888.754	-38.57
888.926	-30.38
889.097	26.96
889.268	-13.99
889.44	-5.8
889.611	10.58
889.782	20.82
889.953	6.49
890.125	76.12
890.296	-30.38
890.467	16.73
890.638	-77.48
890.809	61.78
890.98	-11.95
891.151	-46.76
891.323	61.78
891.494	-13.99
891.665	-26.28
891.836	35.16
892.007	-9.9
892.178	-11.95
892.349	37.2
892.52	4.44
892.691	22.87
892.862	29.01
893.032	-26.28
893.203	57.68
893.374	-13.99
893.545	26.96
893.716	18.77
893.887	4.44
894.057	59.73
894.228	61.78
894.399	-38.57
894.57	-3.75
894.74	80.21
894.911	10.58
895.082	20.82
895.253	-63.15
895.423	33.11
895.594	74.07
895.764	-13.99
895.935	-30.38
896.106	4.44
896.276	2.39
896.447	76.12
896.617	-1.71
896.788	-30.38
896.958	-38.57
897.129	-18.09
897.299	-46.76
897.47	-48.81
897.64	-42.67
897.81	-38.57
897.981	-11.95
898.151	-42.67
898.322	-11.95
898.492	43.35
898.662	6.49
898.832	-26.28
899.003	14.68
899.173	4.44
899.343	-26.28
899.513	-9.9
