Data from USB4F104151__189__14-20-20-030.txt Node

Date: Thu Mar 13 14:20:20 EDT 2025
User: louis
Spectrometer: USB4F10415
Trigger mode: 4
Integration Time (sec): 2.000000E-2
Scans to average: 1
Electric dark correction enabled: true
Nonlinearity correction enabled: false
Boxcar width: 0
XAxis mode: Wavelengths
Number of Pixels in Spectrum: 3648
>>>>>Begin Spectral Data<<<<<
178.204	-94.89
178.424	-94.89
178.644	-94.89
178.864	-133.8
179.084	-58.03
179.304	-49.83
179.524	58.71
179.744	-2.73
179.964	56.66
180.184	-8.87
180.404	-12.97
180.624	-27.31
180.844	21.84
181.064	3.41
181.283	3.41
181.503	21.84
181.723	-64.17
181.943	60.76
182.163	81.24
182.383	-21.16
182.602	36.18
182.822	3.41
183.042	44.37
183.262	46.42
183.482	11.61
183.701	60.76
183.921	-21.16
184.141	-2.73
184.361	15.7
184.58	1.37
184.8	32.08
185.02	-76.46
185.239	77.14
185.459	-10.92
185.679	83.28
185.898	-17.07
186.118	56.66
186.338	103.76
186.557	23.89
186.777	25.94
186.997	5.46
187.216	93.52
187.436	23.89
187.655	30.04
187.875	15.7
188.095	34.13
188.314	64.85
188.534	23.89
188.753	5.46
188.973	79.19
189.192	116.05
189.412	30.04
189.631	48.47
189.851	-0.68
190.07	60.76
190.29	7.51
190.509	-4.78
190.729	-12.97
190.948	64.85
191.168	118.1
191.387	89.43
191.607	44.37
191.826	34.13
192.045	34.13
192.265	-2.73
192.484	71
192.704	38.23
192.923	13.65
193.142	87.38
193.362	52.56
193.581	103.76
193.8	71
194.02	105.81
194.239	44.37
194.458	89.43
194.678	-4.78
194.897	-12.97
195.116	52.56
195.335	19.8
195.555	48.47
195.774	7.51
195.993	-0.68
196.212	1.37
196.432	-8.87
196.651	11.61
196.87	11.61
197.089	109.91
197.308	122.2
197.528	46.42
197.747	3.41
197.966	-2.73
198.185	120.15
198.404	101.72
198.623	52.56
198.842	40.28
199.062	68.95
199.281	130.39
199.5	85.33
199.719	7.51
199.938	23.89
200.157	30.04
200.376	54.61
200.595	101.72
200.814	34.13
201.033	32.08
201.252	40.28
201.471	91.48
201.69	36.18
201.909	44.37
202.128	64.85
202.347	85.33
202.566	87.38
202.785	-2.73
203.004	5.46
203.223	146.77
203.442	-4.78
203.661	19.8
203.879	52.56
204.098	44.37
204.317	27.99
204.536	19.8
204.755	40.28
204.974	44.37
205.193	56.66
205.411	130.39
205.63	71
205.849	71
206.068	40.28
206.287	62.8
206.505	-37.55
206.724	-4.78
206.943	77.14
207.162	-4.78
207.381	-35.5
207.599	44.37
207.818	-8.87
208.037	58.71
208.255	-0.68
208.474	68.95
208.693	60.76
208.911	56.66
209.13	54.61
209.349	-0.68
209.567	-27.31
209.786	60.76
210.005	-33.45
210.223	68.95
210.442	-31.4
210.661	17.75
210.879	79.19
211.098	15.7
211.316	83.28
211.535	38.23
211.753	52.56
211.972	23.89
212.191	23.89
212.409	68.95
212.628	21.84
212.846	27.99
213.065	27.99
213.283	44.37
213.502	-33.45
213.72	21.84
213.938	27.99
214.157	60.76
214.375	34.13
214.594	68.95
214.812	38.23
215.031	114
215.249	19.8
215.467	5.46
215.686	73.04
215.904	60.76
216.122	52.56
216.341	114
216.559	64.85
216.778	27.99
216.996	118.1
217.214	30.04
217.432	-68.27
217.651	-8.87
217.869	32.08
218.087	52.56
218.306	56.66
218.524	73.04
218.742	11.61
218.96	36.18
219.179	71
219.397	60.76
219.615	85.33
219.833	27.99
220.051	-19.11
220.27	7.51
220.488	-2.73
220.706	-15.02
220.924	38.23
221.142	23.89
221.36	36.18
221.578	17.75
221.796	56.66
222.015	85.33
222.233	111.96
222.451	44.37
222.669	-19.11
222.887	114
223.105	5.46
223.323	15.7
223.541	15.7
223.759	60.76
223.977	-6.83
224.195	56.66
224.413	23.89
224.631	50.52
224.849	-84.65
225.067	54.61
225.285	27.99
225.503	-17.07
225.721	21.84
225.939	34.13
226.157	1.37
226.375	68.95
226.592	25.94
226.81	73.04
227.028	97.62
227.246	109.91
227.464	-31.4
227.682	154.96
227.9	134.48
228.117	52.56
228.335	15.7
228.553	109.91
228.771	93.52
228.989	83.28
229.206	66.9
229.424	42.32
229.642	11.61
229.86	52.56
230.077	19.8
230.295	99.67
230.513	46.42
230.731	-27.31
230.948	97.62
231.166	85.33
231.384	13.65
231.601	52.56
231.819	87.38
232.037	36.18
232.254	40.28
232.472	9.56
232.689	-19.11
232.907	118.1
233.125	44.37
233.342	40.28
233.56	17.75
233.777	21.84
233.995	23.89
234.213	27.99
234.43	89.43
234.648	11.61
234.865	60.76
235.083	21.84
235.3	13.65
235.518	75.09
235.735	27.99
235.953	150.87
236.17	95.57
236.388	30.04
236.605	-74.41
236.822	71
237.04	157.01
237.257	64.85
237.475	68.95
237.692	46.42
237.909	38.23
238.127	-0.68
238.344	105.81
238.562	38.23
238.779	30.04
238.996	11.61
239.214	89.43
239.431	77.14
239.648	-17.07
239.865	36.18
240.083	111.96
240.3	19.8
240.517	105.81
240.735	50.52
240.952	34.13
241.169	21.84
241.386	60.76
241.603	27.99
241.821	17.75
242.038	73.04
242.255	85.33
242.472	71
242.689	27.99
242.907	68.95
243.124	93.52
243.341	44.37
243.558	1.37
243.775	-12.97
243.992	9.56
244.209	30.04
244.426	62.8
244.643	83.28
244.86	-4.78
245.078	48.47
245.295	30.04
245.512	27.99
245.729	64.85
245.946	111.96
246.163	15.7
246.38	30.04
246.597	54.61
246.814	13.65
247.031	46.42
247.248	87.38
247.464	46.42
247.681	64.85
247.898	32.08
248.115	83.28
248.332	3.41
248.549	27.99
248.766	36.18
248.983	111.96
249.2	44.37
249.417	40.28
249.633	19.8
249.85	68.95
250.067	60.76
250.284	105.81
250.501	130.39
250.717	48.47
250.934	48.47
251.151	40.28
251.368	46.42
251.585	68.95
251.801	44.37
252.018	48.47
252.235	52.56
252.451	-21.16
252.668	-4.78
252.885	118.1
253.102	60.76
253.318	5.46
253.535	-0.68
253.752	-29.35
253.968	15.7
254.185	46.42
254.401	58.71
254.618	25.94
254.835	7.51
255.051	122.2
255.268	58.71
255.484	109.91
255.701	56.66
255.917	85.33
256.134	107.86
256.351	64.85
256.567	3.41
256.784	19.8
257	32.08
257.217	-39.59
257.433	83.28
257.65	40.28
257.866	89.43
258.082	32.08
258.299	58.71
258.515	101.72
258.732	-12.97
258.948	19.8
259.165	5.46
259.381	11.61
259.597	48.47
259.814	134.48
260.03	3.41
260.246	105.81
260.463	13.65
260.679	40.28
260.895	-8.87
261.112	140.63
261.328	40.28
261.544	-6.83
261.761	89.43
261.977	64.85
262.193	-35.5
262.409	87.38
262.626	91.48
262.842	93.52
263.058	-41.64
263.274	114
263.49	38.23
263.707	21.84
263.923	60.76
264.139	-2.73
264.355	46.42
264.571	122.2
264.787	64.85
265.004	17.75
265.22	27.99
265.436	46.42
265.652	30.04
265.868	54.61
266.084	-8.87
266.3	52.56
266.516	19.8
266.732	60.76
266.948	46.42
267.164	77.14
267.38	68.95
267.596	-0.68
267.812	64.85
268.028	27.99
268.244	21.84
268.46	36.18
268.676	5.46
268.892	19.8
269.108	81.24
269.324	60.76
269.54	7.51
269.756	81.24
269.972	-21.16
270.188	-2.73
270.403	56.66
270.619	15.7
270.835	91.48
271.051	30.04
271.267	-12.97
271.483	91.48
271.698	36.18
271.914	-12.97
272.13	79.19
272.346	60.76
272.562	-23.21
272.777	87.38
272.993	38.23
273.209	11.61
273.425	75.09
273.64	44.37
273.856	48.47
274.072	-8.87
274.287	68.95
274.503	38.23
274.719	9.56
274.934	44.37
275.15	3.41
275.366	109.91
275.581	128.34
275.797	-8.87
276.012	46.42
276.228	62.8
276.444	36.18
276.659	36.18
276.875	23.89
277.09	54.61
277.306	7.51
277.521	48.47
277.737	-35.5
277.952	52.56
278.168	5.46
278.383	126.29
278.599	3.41
278.814	64.85
279.03	44.37
279.245	83.28
279.461	54.61
279.676	-0.68
279.892	71
280.107	-43.69
280.322	19.8
280.538	27.99
280.753	-29.35
280.969	44.37
281.184	71
281.399	132.44
281.615	48.47
281.83	25.94
282.045	-29.35
282.26	36.18
282.476	3.41
282.691	11.61
282.906	54.61
283.122	23.89
283.337	-4.78
283.552	44.37
283.767	5.46
283.983	73.04
284.198	81.24
284.413	77.14
284.628	48.47
284.843	3.41
285.058	62.8
285.274	71
285.489	23.89
285.704	3.41
285.919	85.33
286.134	60.76
286.349	-2.73
286.564	95.57
286.779	-43.69
286.995	19.8
287.21	-39.59
287.425	73.04
287.64	-23.21
287.855	44.37
288.07	132.44
288.285	60.76
288.5	60.76
288.715	52.56
288.93	27.99
289.145	66.9
289.36	126.29
289.575	13.65
289.79	7.51
290.004	32.08
290.219	-6.83
290.434	146.77
290.649	19.8
290.864	89.43
291.079	101.72
291.294	32.08
291.509	50.52
291.724	60.76
291.938	-41.64
292.153	36.18
292.368	44.37
292.583	62.8
292.798	38.23
293.012	109.91
293.227	-45.74
293.442	3.41
293.657	54.61
293.871	60.76
294.086	52.56
294.301	105.81
294.516	19.8
294.73	116.05
294.945	-0.68
295.16	27.99
295.374	64.85
295.589	-21.16
295.804	5.46
296.018	52.56
296.233	-8.87
296.447	77.14
296.662	19.8
296.877	60.76
297.091	17.75
297.306	107.86
297.52	17.75
297.735	64.85
297.949	64.85
298.164	48.47
298.378	-4.78
298.593	11.61
298.807	68.95
299.022	58.71
299.236	54.61
299.451	-0.68
299.665	79.19
299.88	60.76
300.094	-0.68
300.309	73.04
300.523	-8.87
300.737	13.65
300.952	5.46
301.166	126.29
301.381	44.37
301.595	85.33
301.809	81.24
302.024	30.04
302.238	-12.97
302.452	30.04
302.667	30.04
302.881	101.72
303.095	27.99
303.309	44.37
303.524	-12.97
303.738	32.08
303.952	7.51
304.166	62.8
304.381	-37.55
304.595	89.43
304.809	109.91
305.023	68.95
305.237	68.95
305.452	36.18
305.666	73.04
305.88	95.57
306.094	52.56
306.308	36.18
306.522	11.61
306.736	73.04
306.95	54.61
307.164	64.85
307.379	-0.68
307.593	17.75
307.807	19.8
308.021	44.37
308.235	48.47
308.449	1.37
308.663	9.56
308.877	95.57
309.091	-21.16
309.305	54.61
309.519	54.61
309.733	77.14
309.947	1.37
310.161	95.57
310.374	79.19
310.588	85.33
310.802	-35.5
311.016	42.32
311.23	11.61
311.444	44.37
311.658	54.61
311.872	42.32
312.085	120.15
312.299	95.57
312.513	140.63
312.727	64.85
312.941	-15.02
313.154	11.61
313.368	44.37
313.582	71
313.796	13.65
314.009	68.95
314.223	95.57
314.437	71
314.651	105.81
314.864	13.65
315.078	52.56
315.292	56.66
315.505	89.43
315.719	50.52
315.933	60.76
316.146	15.7
316.36	56.66
316.573	56.66
316.787	93.52
317.001	23.89
317.214	93.52
317.428	109.91
317.641	5.46
317.855	15.7
318.068	5.46
318.282	52.56
318.495	52.56
318.709	93.52
318.922	48.47
319.136	152.91
319.349	85.33
319.563	30.04
319.776	44.37
319.99	101.72
320.203	79.19
320.417	-0.68
320.63	30.04
320.843	85.33
321.057	36.18
321.27	19.8
321.483	21.84
321.697	140.63
321.91	93.52
322.124	85.33
322.337	109.91
322.55	-45.74
322.763	19.8
322.977	101.72
323.19	-12.97
323.403	60.76
323.617	30.04
323.83	79.19
324.043	107.86
324.256	85.33
324.469	-23.21
324.683	-4.78
324.896	64.85
325.109	77.14
325.322	-2.73
325.535	30.04
325.748	130.39
325.962	-25.26
326.175	13.65
326.388	56.66
326.601	85.33
326.814	83.28
327.027	93.52
327.24	116.05
327.453	-10.92
327.666	68.95
327.879	99.67
328.092	77.14
328.305	38.23
328.518	120.15
328.731	50.52
328.944	77.14
329.157	142.68
329.37	27.99
329.583	89.43
329.796	103.76
330.009	105.81
330.222	124.24
330.435	21.84
330.648	54.61
330.861	-21.16
331.073	118.1
331.286	38.23
331.499	142.68
331.712	27.99
331.925	32.08
332.138	93.52
332.35	73.04
332.563	1.37
332.776	71
332.989	62.8
333.202	-19.11
333.414	85.33
333.627	50.52
333.84	97.62
334.053	64.85
334.265	-37.55
334.478	-66.22
334.691	56.66
334.903	40.28
335.116	27.99
335.329	40.28
335.541	105.81
335.754	120.15
335.966	77.14
336.179	40.28
336.392	30.04
336.604	64.85
336.817	138.58
337.029	36.18
337.242	11.61
337.454	-2.73
337.667	-4.78
337.88	48.47
338.092	109.91
338.305	89.43
338.517	79.19
338.729	52.56
338.942	44.37
339.154	71
339.367	40.28
339.579	118.1
339.792	11.61
340.004	62.8
340.217	48.47
340.429	1.37
340.641	36.18
340.854	73.04
341.066	64.85
341.278	99.67
341.491	134.48
341.703	38.23
341.915	56.66
342.128	122.2
342.34	38.23
342.552	30.04
342.764	50.52
342.977	56.66
343.189	56.66
343.401	71
343.613	21.84
343.826	114
344.038	-25.26
344.25	19.8
344.462	-31.4
344.674	27.99
344.886	85.33
345.099	138.58
345.311	-19.11
345.523	5.46
345.735	7.51
345.947	13.65
346.159	13.65
346.371	1.37
346.583	105.81
346.795	56.66
347.007	68.95
347.219	-4.78
347.431	46.42
347.643	71
347.855	23.89
348.067	54.61
348.279	42.32
348.491	-8.87
348.703	101.72
348.915	13.65
349.127	32.08
349.339	25.94
349.551	-43.69
349.763	105.81
349.975	19.8
350.187	38.23
350.399	-12.97
350.61	48.47
350.822	19.8
351.034	87.38
351.246	93.52
351.458	68.95
351.669	19.8
351.881	87.38
352.093	64.85
352.305	126.29
352.517	56.66
352.728	81.24
352.94	85.33
353.152	71
353.363	46.42
353.575	71
353.787	120.15
353.999	105.81
354.21	109.91
354.422	54.61
354.633	38.23
354.845	136.53
355.057	77.14
355.268	85.33
355.48	23.89
355.692	44.37
355.903	124.24
356.115	136.53
356.326	73.04
356.538	109.91
356.749	-4.78
356.961	120.15
357.172	109.91
357.384	40.28
357.595	109.91
357.807	48.47
358.018	44.37
358.23	50.52
358.441	46.42
358.653	99.67
358.864	-8.87
359.075	83.28
359.287	3.41
359.498	118.1
359.709	-53.93
359.921	13.65
360.132	68.95
360.344	85.33
360.555	87.38
360.766	52.56
360.977	60.76
361.189	77.14
361.4	64.85
361.611	46.42
361.823	118.1
362.034	-2.73
362.245	107.86
362.456	40.28
362.667	101.72
362.879	-12.97
363.09	62.8
363.301	-19.11
363.512	128.34
363.723	111.96
363.935	44.37
364.146	95.57
364.357	75.09
364.568	77.14
364.779	62.8
364.99	54.61
365.201	83.28
365.412	159.06
365.623	64.85
365.834	93.52
366.045	9.56
366.256	105.81
366.467	23.89
366.678	27.99
366.889	56.66
367.1	15.7
367.311	126.29
367.522	38.23
367.733	79.19
367.944	89.43
368.155	56.66
368.366	50.52
368.577	95.57
368.788	95.57
368.999	56.66
369.209	68.95
369.42	89.43
369.631	54.61
369.842	52.56
370.053	97.62
370.264	93.52
370.474	38.23
370.685	42.32
370.896	-19.11
371.107	138.58
371.317	109.91
371.528	-31.4
371.739	89.43
371.95	1.37
372.16	68.95
372.371	-0.68
372.582	34.13
372.792	64.85
373.003	126.29
373.214	-0.68
373.424	60.76
373.635	58.71
373.846	60.76
374.056	30.04
374.267	75.09
374.477	36.18
374.688	114
374.898	79.19
375.109	-23.21
375.319	40.28
375.53	81.24
375.74	60.76
375.951	11.61
376.161	-2.73
376.372	85.33
376.582	27.99
376.793	36.18
377.003	21.84
377.214	11.61
377.424	62.8
377.635	36.18
377.845	68.95
378.055	83.28
378.266	52.56
378.476	62.8
378.686	68.95
378.897	79.19
379.107	-15.02
379.317	19.8
379.528	64.85
379.738	93.52
379.948	126.29
380.158	68.95
380.369	50.52
380.579	101.72
380.789	99.67
380.999	73.04
381.21	30.04
381.42	62.8
381.63	27.99
381.84	-31.4
382.05	68.95
382.261	87.38
382.471	21.84
382.681	134.48
382.891	95.57
383.101	122.2
383.311	34.13
383.521	-55.98
383.731	79.19
383.941	134.48
384.151	77.14
384.361	42.32
384.571	87.38
384.781	68.95
384.991	-2.73
385.201	95.57
385.411	130.39
385.621	118.1
385.831	68.95
386.041	101.72
386.251	93.52
386.461	83.28
386.671	19.8
386.881	85.33
387.091	13.65
387.301	50.52
387.511	44.37
387.72	40.28
387.93	60.76
388.14	60.76
388.35	62.8
388.56	87.38
388.769	91.48
388.979	62.8
389.189	126.29
389.399	126.29
389.609	122.2
389.818	89.43
390.028	105.81
390.238	103.76
390.447	32.08
390.657	56.66
390.867	87.38
391.076	-27.31
391.286	93.52
391.496	175.44
391.705	85.33
391.915	99.67
392.125	109.91
392.334	120.15
392.544	144.72
392.753	73.04
392.963	13.65
393.172	21.84
393.382	48.47
393.591	126.29
393.801	83.28
394.01	152.91
394.22	68.95
394.429	193.87
394.639	81.24
394.848	138.58
395.058	58.71
395.267	48.47
395.477	109.91
395.686	146.77
395.895	56.66
396.105	202.07
396.314	138.58
396.524	95.57
396.733	197.97
396.942	144.72
397.152	169.3
397.361	81.24
397.57	77.14
397.78	150.87
397.989	148.82
398.198	179.54
398.407	81.24
398.617	52.56
398.826	101.72
399.035	105.81
399.244	126.29
399.453	114
399.663	91.48
399.872	107.86
400.081	60.76
400.29	71
400.499	120.15
400.708	175.44
400.917	38.23
401.127	111.96
401.336	95.57
401.545	159.06
401.754	150.87
401.963	152.91
402.172	130.39
402.381	97.62
402.59	208.21
402.799	208.21
403.008	206.16
403.217	146.77
403.426	165.2
403.635	109.91
403.844	183.63
404.053	101.72
404.262	118.1
404.471	265.55
404.68	122.2
404.888	130.39
405.097	111.96
405.306	177.49
405.515	249.17
405.724	103.76
405.933	142.68
406.142	200.02
406.35	150.87
406.559	187.73
406.768	218.45
406.977	259.41
407.185	218.45
407.394	187.73
407.603	114
407.812	253.27
408.02	234.83
408.229	281.94
408.438	255.31
408.646	265.55
408.855	300.37
409.064	300.37
409.272	310.61
409.481	322.9
409.69	324.94
409.898	322.9
410.107	324.94
410.315	347.47
410.524	300.37
410.733	496.97
410.941	386.38
411.15	404.82
411.358	361.81
411.567	458.06
411.775	421.2
411.984	419.15
412.192	531.79
412.401	404.82
412.609	585.04
412.818	494.93
413.026	556.36
413.234	585.04
413.443	470.35
413.651	529.74
413.86	603.47
414.068	707.91
414.276	669
414.485	626
414.693	703.82
414.901	662.86
415.11	734.54
415.318	802.12
415.526	714.06
415.734	800.07
415.943	855.37
416.151	875.85
416.359	939.33
416.567	920.9
416.776	953.67
416.984	1006.92
417.192	1064.26
417.4	1021.25
417.608	1080.64
417.817	1111.36
418.025	1158.47
418.233	1146.18
418.441	1181
418.649	1207.62
418.857	1240.39
419.065	1398.08
419.273	1197.38
419.481	1465.66
419.689	1492.29
419.897	1553.73
420.105	1633.6
420.313	1619.26
420.521	1654.08
420.729	1627.45
420.937	1699.13
421.145	1936.7
421.353	2006.33
421.561	2000.18
421.769	2092.34
421.977	2123.06
422.185	2061.62
422.393	2198.84
422.601	2264.37
422.809	2350.39
423.017	2436.4
423.224	2436.4
423.432	2514.22
423.64	2575.66
423.848	2755.88
424.056	2745.64
424.263	2970.92
424.471	2917.67
424.679	2985.26
424.887	3112.23
425.094	3304.74
425.302	3345.7
425.51	3493.15
425.718	3437.86
425.925	3511.58
426.133	3607.84
426.341	3665.18
426.548	4089.11
426.756	4214.04
426.964	4042.01
427.171	4422.93
427.379	4640.01
427.586	4576.53
427.794	4666.64
428.001	4879.63
428.209	5070.09
428.417	4969.74
428.624	5223.69
428.832	5348.61
429.039	5244.17
429.247	5221.64
429.454	5821.69
429.662	6122.74
429.869	5819.64
430.076	6122.74
430.284	5993.72
430.491	6057.21
430.699	6593.78
430.906	6552.82
431.114	6771.95
431.321	7023.85
431.528	7036.14
431.736	7609.57
431.943	8121.56
432.15	7679.2
432.358	7671.01
432.565	8211.67
432.772	8369.37
432.979	8789.2
433.187	8936.65
433.394	8750.29
433.601	9411.78
433.808	9280.71
434.016	9362.63
434.223	9714.88
434.43	10374.33
434.637	10181.82
434.844	10857.65
435.052	10890.42
435.259	10994.86
435.466	11078.83
435.673	10845.36
435.88	11709.6
436.087	12254.36
436.294	12106.91
436.501	11764.9
436.708	12270.75
436.915	12713.11
437.122	13014.16
437.329	13026.45
437.537	13593.73
437.743	13491.34
437.95	13585.54
438.157	14343.29
438.364	14644.34
438.571	14744.69
438.778	14648.44
438.985	16346.2
439.192	15805.54
439.399	15901.79
439.606	15750.24
439.813	16526.43
440.02	17595.46
440.227	17062.99
440.433	17099.86
440.64	17677.38
440.847	17538.12
441.054	17998.91
441.261	19072.05
441.467	19012.66
441.674	19328.05
441.881	20349.98
442.088	19964.96
442.294	19739.69
442.501	20069.41
442.708	20587.55
442.914	21373.97
443.121	22295.55
443.328	21662.73
443.534	23342.07
443.741	22688.76
443.948	22199.3
444.154	23876.58
444.361	23718.89
444.568	23735.28
444.774	24079.33
444.981	24071.14
445.187	24681.44
445.394	25955.27
445.6	25711.56
445.807	27970.47
446.013	26678.21
446.22	27356.08
446.426	28380.07
446.633	28695.46
446.839	29498.26
447.046	28361.64
447.252	29836.17
447.459	29545.36
447.665	29797.26
447.871	31038.33
448.078	32365.42
448.284	30833.53
448.491	31773.55
448.697	33002.33
448.903	33391.45
449.11	33579.86
449.316	32930.65
449.522	33694.55
449.728	34628.42
449.935	34544.45
450.141	34691.91
450.347	35547.96
450.553	34640.71
450.76	34882.37
450.966	36383.53
451.172	35547.96
451.378	36660.01
451.584	35877.68
451.791	36907.81
451.997	36592.42
452.203	36956.96
452.409	37323.55
452.615	37219.1
452.821	35918.64
453.027	35527.48
453.233	37108.51
453.44	35830.58
453.646	35963.7
453.852	36223.79
454.058	36866.85
454.264	35699.51
454.47	36422.44
454.676	35656.5
454.882	36889.38
455.088	33592.15
455.294	34165.58
455.5	34777.92
455.705	35035.97
455.911	33426.26
456.117	32944.99
456.323	32592.74
456.529	30794.62
456.735	32385.9
456.941	31464.31
457.147	30915.45
457.352	30000.01
457.558	29684.62
457.764	29770.64
457.97	29025.18
458.176	28801.95
458.381	28695.46
458.587	27216.82
458.793	27298.74
458.999	25660.37
459.204	27630.51
459.41	26883
459.616	25142.23
459.821	25263.06
460.027	25078.74
460.233	24447.97
460.438	23393.26
460.644	23630.83
460.85	22479.87
461.055	22346.75
461.261	22119.43
461.466	20495.39
461.672	19999.78
461.878	21435.41
462.083	20093.99
462.289	19598.38
462.494	19358.77
462.7	18627.64
462.905	18195.52
463.111	18945.08
463.316	18701.37
463.522	18379.84
463.727	18277.44
463.932	18359.36
464.138	17773.64
464.343	18320.45
464.549	17501.26
464.754	18216
464.959	18234.43
465.165	17824.84
465.37	17304.65
465.575	16743.51
465.781	17302.61
465.986	17689.67
466.191	16911.44
466.397	16718.93
466.602	15697
466.807	16407.64
467.012	16323.68
467.218	16356.44
467.423	16030.82
467.628	16192.61
467.833	16802.9
468.038	16307.29
468.244	16114.78
468.449	16489.56
468.654	16045.15
468.859	15823.97
469.064	15656.04
469.269	15096.94
469.474	15074.42
469.679	15699.05
469.885	14933.11
470.09	15098.99
470.295	15090.8
470.5	14918.77
470.705	14838.9
470.91	14595.19
471.115	14249.08
471.32	14679.16
471.525	14662.77
471.73	14328.95
471.935	14056.57
472.139	13782.15
472.344	13814.91
472.549	13704.32
472.754	13505.67
472.959	13341.83
473.164	12881.04
473.369	12731.54
473.574	13313.16
473.778	13106.32
473.983	13081.74
474.188	12817.55
474.393	12379.29
474.598	12416.15
474.802	12416.15
475.007	12197.02
475.212	12158.11
475.417	11885.73
475.621	11902.11
475.826	12172.44
476.031	11627.68
476.235	11463.85
476.44	11701.41
476.645	11558.05
476.849	11361.45
477.054	11316.39
477.259	11121.84
477.463	11230.38
477.668	10853.55
477.872	10935.47
478.077	10861.74
478.282	10540.21
478.486	10540.21
478.691	10501.3
478.895	10554.55
479.1	10228.92
479.304	10357.94
479.509	9856.19
479.713	10058.94
479.918	10001.6
480.122	9573.57
480.326	9968.83
480.531	10065.08
480.735	9778.37
480.94	9702.59
481.144	10036.41
481.348	9592
481.553	9675.97
481.757	9450.69
481.961	9622.72
482.166	9641.15
482.37	9637.06
482.574	9612.48
482.778	9530.56
482.983	9710.79
483.187	9729.22
483.391	9600.19
483.595	9374.92
483.8	9344.2
484.004	9424.07
484.208	9614.53
484.412	9532.61
484.616	9534.66
484.821	9358.53
485.025	9303.24
485.229	9704.64
485.433	9469.12
485.637	9589.95
485.841	9352.39
486.045	9424.07
486.249	9549
486.453	9327.82
486.657	9493.7
486.861	9520.32
487.065	9260.23
487.269	9508.04
487.473	9331.91
487.677	9440.45
487.881	9579.72
488.085	9323.72
488.289	9497.8
488.493	9600.19
488.697	9389.25
488.901	9563.33
489.105	9479.36
489.309	9528.52
489.512	9419.97
489.716	9655.49
489.92	9546.95
490.124	9694.4
490.328	9919.68
490.531	9784.51
490.735	9606.34
490.939	9809.09
491.143	9804.99
491.346	9796.8
491.55	9839.81
491.754	9925.82
491.958	9997.5
492.161	10079.42
492.365	10089.66
492.569	10163.39
492.772	10007.74
492.976	9977.02
493.18	10011.84
493.383	10280.12
493.587	10353.85
493.79	10482.87
493.994	10034.36
494.197	10466.49
494.401	10476.73
494.605	10470.58
494.808	10751.15
495.012	10792.11
495.215	10890.42
495.419	10763.44
495.622	10857.65
495.825	10982.57
496.029	10990.77
496.232	11093.16
496.436	11076.78
496.639	11619.49
496.843	11357.35
497.046	11756.71
497.249	11791.52
497.453	11824.29
497.656	12006.56
497.859	12106.91
498.063	11967.65
498.266	12299.42
498.469	12172.44
498.673	12334.23
498.876	12612.76
499.079	12782.74
499.282	12489.88
499.485	13120.65
499.689	12911.76
499.892	13044.88
500.095	13323.4
500.298	13597.83
500.501	13556.87
500.705	13978.75
500.908	14072.96
501.111	14183.55
501.314	14347.39
501.517	14478.46
501.72	14363.77
501.923	14687.35
502.126	14648.44
502.329	15021.17
502.532	15256.68
502.735	14851.19
502.938	15404.14
503.141	15699.05
503.344	15778.92
503.547	15623.27
503.75	15826.02
503.953	16333.92
504.156	16395.36
504.359	16575.58
504.562	16526.43
504.765	16923.73
504.968	17220.69
505.17	17296.46
505.373	17417.29
505.576	17701.96
505.779	17878.08
505.982	18025.54
506.185	18340.93
506.387	18472
506.59	18553.91
506.793	18799.67
506.996	19115.06
507.198	19352.62
507.401	19035.19
507.604	19561.51
507.807	19985.44
508.009	20096.03
508.212	20089.89
508.415	20255.78
508.617	20618.27
508.82	20800.54
509.022	20614.17
509.225	21255.18
509.428	21433.36
509.63	21398.54
509.833	21429.26
510.035	21711.88
510.238	21689.35
510.44	22373.38
510.643	22631.42
510.845	22666.24
511.048	22645.76
511.25	23266.29
511.453	23102.45
511.655	24108.01
511.858	23499.76
512.06	23704.56
512.262	24241.12
512.465	24034.28
512.667	24437.73
512.87	24996.82
513.072	24843.23
513.274	25351.12
513.477	25752.52
513.679	25506.77
513.881	26026.95
514.084	26135.49
514.286	26244.04
514.488	26289.09
514.69	27491.25
514.893	27388.85
515.095	27104.18
515.297	28009.39
515.499	27403.19
515.701	28107.69
515.904	28388.26
516.106	28421.03
516.308	28453.8
516.51	28961.69
516.712	29025.18
516.914	29281.17
517.116	29950.86
517.318	29668.24
517.52	30086.03
517.722	30137.23
517.925	30237.58
518.127	31024
518.329	31263.61
518.531	31142.78
518.733	31710.07
518.935	31931.25
519.136	31646.58
519.338	32156.52
519.54	32256.87
519.742	32645.99
519.944	32723.81
520.146	33368.92
520.348	33794.9
520.55	33497.94
520.752	33600.34
520.954	34319.18
521.155	33852.24
521.357	34427.72
521.559	34693.96
521.761	35502.9
521.963	34917.18
522.164	35470.14
522.366	35380.03
522.568	36051.76
522.77	35889.97
522.971	36496.17
523.173	36322.09
523.375	36660.01
523.576	36817.7
523.778	36563.75
523.98	36993.82
524.181	37290.78
524.383	37442.33
524.584	37739.29
524.786	37972.75
524.988	37583.64
525.189	37999.38
525.391	38474.51
525.592	38617.86
525.794	38671.11
525.995	38583.05
526.197	39047.94
526.398	39041.79
526.6	39189.25
526.801	39379.71
527.003	39363.32
527.204	39398.14
527.406	39750.39
527.607	39926.52
527.808	40254.19
528.01	39492.35
528.211	39924.47
528.412	41048.8
528.614	40878.82
528.815	40624.87
529.016	40899.3
529.218	40262.38
529.419	41179.87
529.62	40729.32
529.822	40706.79
530.023	40915.68
530.224	40825.57
530.425	40891.11
530.626	40602.35
530.828	40581.87
531.029	41390.81
531.23	40938.21
531.431	40784.61
531.632	41204.45
531.833	41360.09
532.035	41282.27
532.236	41261.79
532.437	41571.03
532.638	40823.53
532.839	41618.14
533.04	41321.18
533.241	41241.31
533.442	42169.04
533.643	41345.76
533.844	41581.27
534.045	41513.69
534.246	41343.71
534.447	41679.58
534.648	41276.13
534.849	41927.38
535.05	41216.74
535.251	41599.71
535.451	41503.45
535.652	41546.46
535.853	41339.61
536.054	41884.37
536.255	41376.48
536.456	41439.96
536.657	41898.71
536.857	41581.27
537.058	41147.11
537.259	41822.94
537.46	41540.32
537.66	41747.16
537.861	41622.23
538.062	41392.86
538.263	41843.41
538.463	41169.63
538.664	41566.94
538.865	41390.81
539.065	41530.08
539.266	40925.92
539.466	41853.65
539.667	40907.49
539.868	41587.42
540.068	41263.84
540.269	41564.89
540.469	41687.77
540.67	41028.32
540.87	41482.97
541.071	41095.91
541.271	41595.61
541.472	41343.71
541.672	41030.37
541.873	41212.64
542.073	40737.51
542.274	41317.09
542.474	41347.81
542.675	40846.05
542.875	41575.13
543.075	41214.69
543.276	40835.81
543.476	41116.39
543.676	40760.04
543.877	41118.43
544.077	41108.19
544.277	41302.75
544.478	40995.56
544.678	41016.04
544.878	40946.4
545.078	41104.1
545.279	40868.58
545.479	40688.36
545.679	40966.88
545.879	41288.42
546.079	41001.7
546.28	40821.48
546.48	40942.31
546.68	41003.75
546.88	41073.38
547.08	41042.66
547.28	40708.84
547.48	40309.49
547.68	40659.69
547.88	40815.33
548.081	40688.36
548.281	40817.38
548.481	40690.41
548.681	41368.29
548.881	40749.8
549.081	40452.84
549.28	40401.64
549.48	41022.18
549.68	40385.26
549.88	41190.11
550.08	40481.52
550.28	40774.38
550.48	40651.5
550.68	40766.18
550.88	40264.43
551.08	40311.53
551.279	40684.26
551.479	40465.13
551.679	40442.6
551.879	40264.43
552.079	40762.09
552.278	40755.94
552.478	40704.74
552.678	40602.35
552.878	40622.83
553.077	40547.05
553.277	40043.25
553.477	41091.81
553.676	40461.04
553.876	40534.76
554.076	40323.82
554.275	40454.89
554.475	39957.24
554.674	40698.6
554.874	40395.5
555.074	40336.11
555.273	40837.86
555.473	40510.19
555.672	39789.3
555.872	40133.36
556.071	40309.49
556.271	40192.75
556.47	40485.61
556.67	39768.82
556.869	40012.53
557.068	39969.52
557.268	40123.12
557.467	39848.69
557.667	39455.48
557.866	39791.35
558.065	39787.25
558.265	39582.46
558.464	39668.47
558.663	39908.08
558.863	39439.1
559.062	40198.9
559.261	39308.03
559.461	39787.25
559.66	39447.29
559.859	39631.61
560.058	39584.51
560.258	39707.38
560.457	39146.24
560.656	39662.33
560.855	39267.07
561.054	39201.54
561.253	39041.79
561.453	39293.69
561.652	39084.8
561.851	39056.13
562.05	38779.65
562.249	38916.87
562.448	39222.01
562.647	38808.33
562.846	38750.98
563.045	38656.78
563.244	38818.56
563.443	39545.59
563.642	38171.41
563.841	38490.89
564.04	38069.01
564.239	38765.32
564.438	38490.89
564.637	38451.98
564.836	38433.55
565.035	38099.73
565.234	38435.59
565.432	37995.28
565.631	38042.38
565.83	38298.38
566.029	38062.86
566.228	38040.34
566.427	38034.19
566.625	37638.93
566.824	37382.94
567.023	37645.08
567.222	37155.61
567.42	37763.86
567.619	37311.26
567.818	37376.79
568.016	37399.32
568.215	37651.22
568.414	37475.1
568.612	37454.62
568.811	36907.81
569.01	37456.67
569.208	36535.08
569.407	36922.15
569.605	36600.61
569.804	36829.99
570.002	36442.92
570.201	36496.17
570.4	36414.25
570.598	36436.78
570.797	36397.87
570.995	36330.28
571.193	35810.1
571.392	36627.24
571.59	36182.83
571.789	36010.8
571.987	35609.4
572.186	35998.51
572.384	35889.97
572.582	36111.15
572.781	35957.55
572.979	35607.35
573.177	35420.98
573.376	35562.29
573.574	34923.33
573.772	35423.03
573.971	35087.17
574.169	34992.96
574.367	34825.03
574.565	34990.91
574.763	34986.82
574.962	34739.01
575.16	34460.49
575.358	34638.66
575.556	34427.72
575.754	34986.82
575.952	34376.52
576.151	34976.58
576.349	34065.23
576.547	34302.79
576.745	34167.63
576.943	34102.09
577.141	34159.44
577.339	34102.09
577.537	34067.28
577.735	33864.53
577.933	33495.89
578.131	33710.93
578.329	33426.26
578.527	33215.32
578.725	33452.89
578.923	33450.84
579.121	33332.06
579.319	33385.3
579.516	33248.09
579.714	33203.03
579.912	33256.28
580.11	32901.98
580.308	33055.58
580.506	32832.35
580.704	32312.17
580.901	32725.86
581.099	32652.13
581.297	32166.76
581.495	32355.18
581.692	32433
581.89	32205.67
582.088	32727.91
582.285	32021.36
582.483	32445.29
582.681	31996.78
582.878	31681.39
583.076	31626.1
583.274	31927.15
583.471	31531.89
583.669	31701.87
583.866	31677.3
584.064	31740.78
584.262	31193.98
584.459	31439.73
584.657	31308.66
584.854	31335.29
585.052	30741.38
585.249	31214.46
585.447	30882.69
585.644	30706.56
585.841	30548.87
586.039	30864.25
586.236	30272.39
586.434	30229.38
586.631	30208.9
586.828	30352.26
587.026	30448.52
587.223	30598.02
587.42	29854.61
587.618	30065.55
587.815	30014.35
588.012	30210.95
588.21	29717.39
588.407	29879.18
588.604	29842.32
588.801	29397.91
588.999	29526.93
589.196	29639.57
589.393	29275.03
589.59	29467.54
589.787	29238.17
589.984	29365.14
590.182	28924.83
590.379	29031.32
590.576	28883.87
590.773	28973.98
590.97	28816.29
591.167	29025.18
591.364	28312.49
591.561	28955.55
591.758	28435.36
591.955	28636.06
592.152	28285.86
592.349	27863.98
592.546	28283.81
592.743	28171.18
592.94	27917.23
593.137	27884.46
593.334	27945.9
593.531	27741.1
593.727	27960.23
593.924	27775.92
594.121	27722.67
594.318	27618.22
594.515	27165.62
594.712	27372.47
594.908	27052.98
595.105	27431.86
595.302	26932.15
595.499	26999.74
595.696	26813.37
595.892	26594.24
596.089	26584
596.286	26964.92
596.482	26727.36
596.679	26502.08
596.876	26555.33
597.072	26397.63
597.269	26497.99
597.466	26319.81
597.662	26313.67
597.859	26440.64
598.055	26401.73
598.252	26106.82
598.448	25676.75
598.645	25852.87
598.841	25707.47
599.038	25480.14
599.234	25881.55
599.431	25682.89
599.627	25287.64
599.824	25934.79
600.02	25357.27
600.217	25433.04
600.413	25172.95
600.609	25150.42
600.806	24998.87
601.002	25136.09
601.198	24783.84
601.395	24660.96
601.591	24742.88
601.787	24595.42
601.984	24509.41
602.18	24755.16
602.376	24525.79
602.572	24595.42
602.769	24447.97
602.965	24021.99
603.161	24355.81
603.357	24062.95
603.553	24065
603.75	24200.16
603.946	23739.37
604.142	23899.11
604.338	23407.6
604.534	23788.52
604.73	23499.76
604.926	23419.89
605.122	23727.08
605.318	23274.48
605.514	23227.38
605.71	23200.76
605.906	23362.54
606.102	23311.35
606.298	23165.94
606.494	23405.55
606.69	23309.3
606.886	23161.84
607.082	22549.5
607.278	22725.63
607.474	22393.86
607.67	22918.14
607.866	22707.19
608.062	22606.84
608.257	22662.14
608.453	22543.36
608.649	22746.11
608.845	22459.39
609.041	22574.08
609.236	22416.38
609.432	22449.15
609.628	22230.02
609.824	22494.21
610.019	22324.22
610.215	22383.62
610.411	22369.28
610.606	22197.25
610.802	22131.72
610.998	21822.47
611.193	22141.96
611.389	22004.74
611.584	21861.38
611.78	21736.46
611.976	21818.38
612.171	21601.29
612.367	21636.11
612.562	21705.74
612.758	21398.54
612.953	21326.86
613.149	21586.96
613.344	21208.08
613.539	21732.36
613.735	21500.94
613.93	21523.47
614.126	21466.13
614.321	21578.76
614.517	21304.34
614.712	21275.66
614.907	20978.71
615.103	21521.42
615.298	21326.86
615.493	21416.97
615.688	20761.62
615.884	21486.61
616.079	20726.81
616.274	21064.72
616.47	21064.72
616.665	20792.34
616.86	20929.56
617.055	20687.9
617.25	20462.62
617.445	20880.41
617.641	20315.17
617.836	20773.91
618.031	20376.61
618.226	20530.2
618.421	20485.15
618.616	20589.6
618.811	20077.6
619.006	20329.5
619.201	20089.89
619.396	20425.76
619.591	19815.46
619.786	19817.51
619.981	19737.64
620.176	19823.65
620.371	19563.56
620.566	19780.65
620.761	19538.99
620.956	19743.78
621.151	19225.65
621.346	19401.77
621.541	19084.34
621.735	19428.4
621.93	18981.94
622.125	19104.82
622.32	18576.44
622.515	18795.57
622.709	18799.67
622.904	18748.47
623.099	18521.15
623.294	18721.85
623.488	18076.74
623.683	18381.88
623.878	18101.31
624.072	18177.09
624.267	18043.97
624.462	17869.89
624.656	17779.78
624.851	17632.33
625.046	17570.89
625.24	17398.86
625.435	17337.42
625.629	17316.94
625.824	17128.53
626.018	17079.38
626.213	16743.51
626.407	16933.97
626.602	16737.37
626.796	16852.05
626.991	16700.5
627.185	16512.09
627.38	16518.23
627.574	16208.99
627.768	16333.92
627.963	16116.83
628.157	16002.15
628.352	16233.57
628.546	15948.9
628.74	16161.89
628.935	15950.95
629.129	15926.37
629.323	15457.39
629.517	15361.13
629.712	15463.53
629.906	15479.91
630.1	15101.04
630.294	15465.58
630.489	15144.05
630.683	15262.83
630.877	14896.24
631.071	14851.19
631.265	14972.02
631.459	14859.38
631.653	14513.27
631.848	14910.58
632.042	14412.92
632.236	14595.19
632.43	14543.99
632.624	14435.45
632.818	14331
633.012	14113.92
633.206	13980.8
633.4	14083.2
633.594	13798.53
633.788	13745.28
633.982	13853.83
634.176	13835.39
634.369	13776
634.563	13769.86
634.757	13597.83
634.951	13554.82
635.145	13671.56
635.339	13431.94
635.533	13208.72
635.726	13264.01
635.92	12928.14
636.114	13216.91
636.308	12944.53
636.501	12811.41
636.695	12997.77
636.889	12725.4
637.083	12643.48
637.276	12438.68
637.47	12717.2
637.664	12545.17
637.857	12536.98
638.051	12647.57
638.244	12502.17
638.438	12489.88
638.632	12201.12
638.825	12244.12
639.019	12131.48
639.212	12102.81
639.406	12121.24
639.599	12012.7
639.793	11928.74
639.986	11654.31
640.18	11912.35
640.373	11795.62
640.567	11676.84
640.76	11629.73
640.954	11416.74
641.147	11633.83
641.34	11588.77
641.534	11424.93
641.727	11246.76
641.92	11439.27
642.114	11142.32
642.307	11224.23
642.5	11103.4
642.694	10955.95
642.887	11107.5
643.08	11027.63
643.273	10812.59
643.467	10998.96
643.66	10638.51
643.853	10720.43
644.046	10425.53
644.239	10464.44
644.432	10343.61
644.626	10171.58
644.819	10415.29
645.012	10271.93
645.205	10405.05
645.398	10413.24
645.591	10106.04
645.784	10165.43
645.977	9848
646.17	10230.97
646.363	9915.58
646.556	10005.69
646.749	9942.21
646.942	9841.86
647.135	9749.7
647.328	9460.93
647.521	9778.37
647.714	9444.55
647.907	9600.19
648.099	9587.91
648.292	9540.8
648.485	9522.37
648.678	9295.05
648.871	9467.08
649.064	9170.12
649.256	9374.92
649.449	9196.74
649.642	8989.9
649.835	9186.51
650.027	8983.76
650.22	8905.93
650.413	9047.24
650.605	8801.49
650.798	8893.65
650.991	8678.61
651.183	8809.68
651.376	8594.64
651.568	8606.93
651.761	8588.5
651.954	8531.16
652.146	8244.44
652.339	8744.14
652.531	8234.2
652.724	8516.82
652.916	8187.1
653.109	8400.09
653.301	8363.22
653.494	8244.44
653.686	8223.96
653.879	8418.52
654.071	8185.05
654.263	7929.05
654.456	7935.2
654.648	8096.99
654.84	7849.18
655.033	7818.46
655.225	7697.63
655.417	7763.17
655.61	7828.7
655.802	7871.71
655.994	7818.46
656.186	7595.23
656.379	7671.01
656.571	7671.01
656.763	7525.6
656.955	7544.03
657.148	7546.08
657.34	7556.32
657.532	7279.85
657.724	7320.81
657.916	7306.47
658.108	7460.07
658.3	7263.46
658.492	7185.64
658.684	7193.83
658.876	7159.02
659.068	7253.22
659.26	6991.08
659.452	7068.91
659.644	7089.39
659.836	6989.03
660.028	7073
660.22	6876.4
660.412	6925.55
660.604	6720.75
660.796	6982.89
660.988	6868.2
661.18	6679.79
661.372	6679.79
661.563	6687.98
661.755	6630.64
661.947	6710.51
662.139	6520.05
662.331	6540.53
662.522	6395.12
662.714	6466.8
662.906	6464.75
663.097	6212.85
663.289	6360.31
663.481	6292.73
663.673	6300.92
663.864	6294.77
664.056	6204.66
664.247	6255.86
664.439	6118.65
664.631	6094.07
664.822	6057.21
665.014	6087.93
665.205	6008.06
665.397	5975.29
665.588	6100.22
665.78	6008.06
665.971	5934.33
666.163	5881.08
666.354	5942.52
666.546	5938.43
666.737	5842.17
666.929	5831.93
667.12	5823.74
667.311	5727.49
667.503	5641.47
667.694	5606.66
667.885	5600.51
668.077	5616.9
668.268	5438.72
668.459	5707.01
668.651	5598.46
668.842	5616.9
669.033	5442.82
669.224	5508.35
669.416	5559.55
669.607	5469.44
669.798	5491.97
669.989	5430.53
670.18	5281.03
670.371	5475.59
670.563	5309.7
670.754	5369.09
670.945	5379.33
671.136	5188.87
671.327	5156.1
671.518	5254.41
671.709	5117.19
671.9	5152.01
672.091	5131.53
672.282	5186.82
672.473	5113.1
672.664	5190.92
672.855	4928.78
673.046	5131.53
673.237	5119.24
673.428	5131.53
673.619	5033.22
673.809	4881.67
674	5043.46
674.191	4969.74
674.382	5074.18
674.573	4824.33
674.764	4955.4
674.954	4873.48
675.145	4787.47
675.336	4844.81
675.527	4934.92
675.717	4967.69
675.908	4705.55
676.099	4822.28
676.289	4709.65
676.48	4766.99
676.671	4709.65
676.861	4814.09
677.052	4623.63
677.243	4670.73
677.433	4644.11
677.624	4785.42
677.814	4668.69
678.005	4519.18
678.195	4685.07
678.386	4654.35
678.576	4740.36
678.767	4525.33
678.957	4523.28
679.148	4615.44
679.338	4459.79
679.529	4588.82
679.719	4418.83
679.909	4492.56
680.1	4537.62
680.29	4398.35
680.481	4402.45
680.671	4564.24
680.861	4533.52
681.052	4410.64
681.242	4424.98
681.432	4433.17
681.622	4386.07
681.813	4345.11
682.003	4410.64
682.193	4345.11
682.383	4347.15
682.573	4402.45
682.764	4205.85
682.954	4377.87
683.144	4238.61
683.334	4168.98
683.524	4234.52
683.714	4214.04
683.904	4214.04
684.094	4310.29
684.284	4232.47
684.474	4183.32
684.664	4195.61
684.854	4214.04
685.044	4222.23
685.234	4078.87
685.424	4101.4
685.614	4062.49
685.804	4017.43
685.994	4007.19
686.184	4132.12
686.374	4105.49
686.564	3931.42
686.753	4009.24
686.943	4017.43
687.133	3982.62
687.323	4046.1
687.513	4001.05
687.702	4015.38
687.892	3863.83
688.082	3808.54
688.272	3919.13
688.461	3822.87
688.651	3933.47
688.841	3943.71
689.03	3826.97
689.22	3779.87
689.41	3880.22
689.599	3697.95
689.789	3872.03
689.979	3831.07
690.168	3726.62
690.358	3714.33
690.547	3775.77
690.737	3845.4
690.926	3697.95
691.116	3624.22
691.305	3679.52
691.495	3542.3
691.684	3550.5
691.874	3616.03
692.063	3550.5
692.252	3542.3
692.442	3478.82
692.631	3583.26
692.82	3560.73
693.01	3450.14
693.199	3337.51
693.388	3427.62
693.578	3521.82
693.767	3347.75
693.956	3360.03
694.146	3360.03
694.335	3415.33
694.524	3353.89
694.713	3339.55
694.902	3306.79
695.092	3261.73
695.281	3425.57
695.47	3183.91
695.659	3224.87
695.848	3151.14
696.037	3271.97
696.226	3235.11
696.415	3228.96
696.604	3259.68
696.793	3198.24
696.982	3267.88
697.171	3179.81
697.36	3142.95
697.549	3153.19
697.738	3220.77
697.927	3194.15
698.116	3126.57
698.305	3276.07
698.494	3124.52
698.683	3142.95
698.872	3214.63
699.061	3040.55
699.25	3132.71
699.438	3067.17
699.627	3075.37
699.816	3210.53
700.005	3009.83
700.193	3114.28
700.382	3192.1
700.571	3026.22
700.76	3101.99
700.948	3061.03
701.137	3179.81
701.326	2919.72
701.514	2989.35
701.703	3063.08
701.892	2991.4
702.08	2991.4
702.269	3069.22
702.457	2925.86
702.646	2925.86
702.834	3026.22
703.023	2979.11
703.212	2942.25
703.4	2895.15
703.589	2923.82
703.777	2977.06
703.965	3020.07
704.154	2870.57
704.342	2821.42
704.531	2995.5
704.719	2868.52
704.907	2895.15
705.096	2745.64
705.284	2862.38
705.472	2913.58
705.661	2972.97
705.849	2913.58
706.037	3011.88
706.226	2913.58
706.414	2837.8
706.602	2919.72
706.79	2874.67
706.979	2790.7
707.167	2768.17
707.355	2837.8
707.543	2854.19
707.731	2780.46
707.919	2811.18
708.107	2766.12
708.296	2843.95
708.484	2821.42
708.672	2825.51
708.86	2817.32
709.048	2858.28
709.236	2757.93
709.424	2764.08
709.612	2880.81
709.8	2721.07
709.988	2751.79
710.176	2635.05
710.364	2727.21
710.551	2649.39
710.739	2700.59
710.927	2841.9
711.115	2684.2
711.303	2813.23
711.491	2665.77
711.679	2819.37
711.866	2649.39
712.054	2561.33
712.242	2735.4
712.43	2673.96
712.617	2710.83
712.805	2692.4
712.993	2755.88
713.181	2704.68
713.368	2694.44
713.556	2667.82
713.744	2716.97
713.931	2641.2
714.119	2633.01
714.306	2661.68
714.494	2600.24
714.682	2542.89
714.869	2628.91
715.057	2684.2
715.244	2690.35
715.432	2594.09
715.619	2657.58
715.807	2559.28
715.994	2575.66
716.182	2698.54
716.369	2512.17
716.556	2571.57
716.744	2542.89
716.931	2583.85
717.119	2522.41
717.306	2592.05
717.493	2649.39
717.681	2563.37
717.868	2559.28
718.055	2587.95
718.242	2569.52
718.43	2698.54
718.617	2641.2
718.804	2489.65
718.991	2639.15
719.179	2489.65
719.366	2571.57
719.553	2561.33
719.74	2493.74
719.927	2583.85
720.114	2481.46
720.301	2516.27
720.488	2506.03
720.676	2428.21
720.863	2440.5
721.05	2485.55
721.237	2534.7
721.424	2585.9
721.611	2559.28
721.798	2479.41
721.985	2510.13
722.172	2587.95
722.358	2471.22
722.545	2495.79
722.732	2503.98
722.919	2530.61
723.106	2530.61
723.293	2469.17
723.48	2635.05
723.667	2475.31
723.853	2413.87
724.04	2534.7
724.227	2493.74
724.414	2508.08
724.6	2510.13
724.787	2522.41
724.974	2499.89
725.161	2526.51
725.347	2432.3
725.534	2307.38
725.72	2471.22
725.907	2399.54
726.094	2436.4
726.28	2399.54
726.467	2405.68
726.653	2301.23
726.84	2491.7
727.027	2436.4
727.213	2530.61
727.4	2374.96
727.586	2512.17
727.773	2477.36
727.959	2465.07
728.145	2362.67
728.332	2499.89
728.518	2321.71
728.705	2473.26
728.891	2452.78
729.077	2379.06
729.264	2424.11
729.45	2436.4
729.636	2538.8
729.823	2393.39
730.009	2448.69
730.195	2458.93
730.382	2446.64
730.568	2350.39
730.754	2405.68
730.94	2405.68
731.126	2387.25
731.313	2420.02
731.499	2430.26
731.685	2311.47
731.871	2399.54
732.057	2444.59
732.243	2393.39
732.429	2266.42
732.615	2381.1
732.801	2512.17
732.987	2381.1
733.173	2336.05
733.359	2319.67
733.545	2420.02
733.731	2305.33
733.917	2305.33
734.103	2397.49
734.289	2288.95
734.475	2342.19
734.661	2329.91
734.847	2340.15
735.033	2307.38
735.219	2297.14
735.404	2309.43
735.59	2290.99
735.776	2364.72
735.962	2303.28
736.148	2356.53
736.333	2377.01
736.519	2362.67
736.705	2239.8
736.89	2243.89
737.076	2141.49
737.262	2325.81
737.447	2290.99
737.633	2274.61
737.819	2364.72
738.004	2250.03
738.19	2288.95
738.375	2209.08
738.561	2303.28
738.747	2219.32
738.932	2254.13
739.118	2219.32
739.303	2350.39
739.489	2178.36
739.674	2198.84
739.859	2204.98
740.045	2215.22
740.23	2207.03
740.416	2116.92
740.601	2321.71
740.786	2143.54
740.972	2114.87
741.157	2069.81
741.342	2125.11
741.528	2174.26
741.713	2069.81
741.898	2053.43
742.084	2121.01
742.269	2125.11
742.454	2116.92
742.639	2055.48
742.824	2069.81
743.01	2157.88
743.195	2141.49
743.38	2065.72
743.565	2055.48
743.75	2022.71
743.935	2055.48
744.12	1977.66
744.305	1981.75
744.49	2022.71
744.675	2022.71
744.86	1883.45
745.045	1989.94
745.23	1971.51
745.415	2047.29
745.6	1965.37
745.785	1944.89
745.97	1971.51
746.155	2012.47
746.34	1862.97
746.525	1862.97
746.71	1830.2
746.895	1903.93
747.079	1944.89
747.264	1865.02
747.449	1846.59
747.634	1840.44
747.819	1891.64
748.003	1766.71
748.188	1852.73
748.373	1842.49
748.557	1740.09
748.742	1731.9
748.927	1690.94
749.111	1725.75
749.296	1674.56
749.481	1740.09
749.665	1731.9
749.85	1621.31
750.034	1807.67
750.219	1666.36
750.404	1674.56
750.588	1705.28
750.773	1551.68
750.957	1561.92
751.141	1609.02
751.326	1600.83
751.51	1588.54
751.695	1649.98
751.879	1512.77
752.064	1686.84
752.248	1576.25
752.432	1617.21
752.617	1549.63
752.801	1555.77
752.985	1514.81
753.17	1523.01
753.354	1619.26
753.538	1518.91
753.722	1477.95
753.907	1496.38
754.091	1426.75
754.275	1514.81
754.459	1396.03
754.643	1477.95
754.828	1387.84
755.012	1432.9
755.196	1400.13
755.38	1455.42
755.564	1293.63
755.748	1367.36
755.932	1350.98
756.116	1371.46
756.3	1355.07
756.484	1387.84
756.668	1404.22
756.852	1291.59
757.036	1260.87
757.22	1201.47
757.404	1262.91
757.588	1260.87
757.772	1264.96
757.956	1260.87
758.14	1316.16
758.323	1174.85
758.507	1146.18
758.691	1248.58
758.875	1207.62
759.059	1195.33
759.242	1144.13
759.426	1219.91
759.61	1137.99
759.794	1166.66
759.977	1115.46
760.161	1264.96
760.345	1142.08
760.528	1191.24
760.712	1187.14
760.895	1109.32
761.079	1117.51
761.263	1158.47
761.446	1103.17
761.63	1154.37
761.813	1152.32
761.997	1051.97
762.18	1109.32
762.364	1129.8
762.547	1015.11
762.731	1103.17
762.914	1062.21
763.098	1068.36
763.281	1000.77
763.464	1054.02
763.648	978.25
763.831	1068.36
764.015	1068.36
764.198	1043.78
764.381	963.91
764.564	1144.13
764.748	1084.74
764.931	939.33
765.114	943.43
765.297	1011.01
765.481	1027.4
765.664	1037.64
765.847	996.68
766.03	1006.92
766.213	898.38
766.397	1002.82
766.58	945.48
766.763	990.53
766.946	888.14
767.129	935.24
767.312	861.51
767.495	855.37
767.678	925
767.861	937.29
768.044	843.08
768.227	916.81
768.41	884.04
768.593	890.18
768.776	904.52
768.959	898.38
769.142	953.67
769.324	814.41
769.507	918.86
769.69	855.37
769.873	843.08
770.056	906.57
770.239	849.22
770.421	841.03
770.604	937.29
770.787	881.99
770.97	888.14
771.152	857.42
771.335	838.98
771.518	855.37
771.7	793.93
771.883	814.41
772.066	726.35
772.248	902.47
772.431	798.03
772.613	814.41
772.796	834.89
772.978	716.11
773.161	746.83
773.343	732.49
773.526	783.69
773.708	798.03
773.891	730.44
774.073	691.53
774.256	781.64
774.438	818.5
774.621	728.39
774.803	726.35
774.985	761.16
775.168	767.31
775.35	738.63
775.532	669
775.715	638.28
775.897	740.68
776.079	693.58
776.261	691.53
776.444	738.63
776.626	736.59
776.808	675.15
776.99	626
777.173	666.96
777.355	757.07
777.537	671.05
777.719	666.96
777.901	671.05
778.083	636.24
778.265	626
778.447	685.39
778.629	582.99
778.811	632.14
778.993	693.58
779.175	662.86
779.357	599.37
779.539	568.65
779.721	531.79
779.903	601.42
780.085	578.89
780.267	560.46
780.449	544.08
780.631	595.28
780.812	646.48
780.994	537.93
781.176	576.84
781.358	578.89
781.54	466.25
781.721	544.08
781.903	496.97
782.085	533.84
782.267	523.6
782.448	519.5
782.63	544.08
782.812	515.41
782.993	527.69
783.175	521.55
783.357	474.45
783.538	626
783.72	470.35
783.901	474.45
784.083	458.06
784.264	515.41
784.446	439.63
784.627	404.82
784.809	443.73
784.99	453.97
785.172	503.12
785.353	324.94
785.535	421.2
785.716	462.16
785.897	423.25
786.079	386.38
786.26	402.77
786.441	523.6
786.623	470.35
786.804	361.81
786.985	396.62
787.167	431.44
787.348	382.29
787.529	419.15
787.71	466.25
787.891	513.36
788.073	355.66
788.254	374.1
788.435	429.39
788.616	372.05
788.797	353.62
788.978	400.72
789.159	398.67
789.34	345.42
789.522	359.76
789.703	382.29
789.884	396.62
790.065	374.1
790.246	294.22
790.427	363.86
790.607	431.44
790.788	294.22
790.969	367.95
791.15	398.67
791.331	316.75
791.512	324.94
791.693	355.66
791.874	388.43
792.054	423.25
792.235	300.37
792.416	349.52
792.597	283.98
792.778	380.24
792.958	380.24
793.139	308.56
793.32	308.56
793.5	316.75
793.681	390.48
793.862	374.1
794.042	367.95
794.223	308.56
794.404	273.75
794.584	363.86
794.765	257.36
794.945	396.62
795.126	380.24
795.306	257.36
795.487	292.18
795.667	312.66
795.848	322.9
796.028	249.17
796.209	273.75
796.389	251.22
796.57	251.22
796.75	216.4
796.93	277.84
797.111	226.64
797.291	253.27
797.471	288.08
797.652	271.7
797.832	310.61
798.012	316.75
798.192	249.17
798.373	247.12
798.553	243.03
798.733	302.42
798.913	136.53
799.093	232.79
799.274	200.02
799.454	232.79
799.634	212.31
799.814	267.6
799.994	257.36
800.174	208.21
800.354	273.75
800.534	322.9
800.714	281.94
800.894	232.79
801.074	245.07
801.254	249.17
801.434	273.75
801.614	306.51
801.794	240.98
801.974	724.3
802.154	185.68
802.334	226.64
802.514	249.17
802.693	308.56
802.873	130.39
803.053	257.36
803.233	161.11
803.413	275.79
803.592	286.03
803.772	243.03
803.952	195.92
804.131	210.26
804.311	173.39
804.491	283.98
804.67	177.49
804.85	222.55
805.03	273.75
805.209	240.98
805.389	245.07
805.568	167.25
805.748	273.75
805.928	179.54
806.107	150.87
806.287	253.27
806.466	159.06
806.646	200.02
806.825	179.54
807.004	294.22
807.184	171.35
807.363	267.6
807.543	206.16
807.722	144.72
807.901	144.72
808.081	195.92
808.26	136.53
808.439	152.91
808.619	167.25
808.798	142.68
808.977	165.2
809.156	216.4
809.336	163.15
809.515	191.83
809.694	181.59
809.873	214.35
810.052	159.06
810.231	218.45
810.411	204.11
810.59	202.07
810.769	175.44
810.948	204.11
811.127	185.68
811.306	122.2
811.485	107.86
811.664	167.25
811.843	107.86
812.022	200.02
812.201	171.35
812.38	249.17
812.559	150.87
812.737	152.91
812.916	191.83
813.095	128.34
813.274	109.91
813.453	132.44
813.632	210.26
813.811	187.73
813.989	134.48
814.168	163.15
814.347	126.29
814.526	111.96
814.704	130.39
814.883	193.87
815.062	101.72
815.24	220.5
815.419	169.3
815.598	134.48
815.776	144.72
815.955	220.5
816.133	138.58
816.312	138.58
816.49	105.81
816.669	146.77
816.847	134.48
817.026	152.91
817.204	152.91
817.383	68.95
817.561	189.78
817.74	134.48
817.918	138.58
818.097	134.48
818.275	93.52
818.453	138.58
818.632	146.77
818.81	195.92
818.988	95.57
819.167	159.06
819.345	107.86
819.523	71
819.701	103.76
819.879	152.91
820.058	85.33
820.236	177.49
820.414	154.96
820.592	134.48
820.77	177.49
820.948	120.15
821.127	79.19
821.305	187.73
821.483	58.71
821.661	85.33
821.839	134.48
822.017	130.39
822.195	146.77
822.373	81.24
822.551	77.14
822.729	93.52
822.907	81.24
823.085	195.92
823.262	81.24
823.44	62.8
823.618	175.44
823.796	52.56
823.974	64.85
824.152	103.76
824.329	73.04
824.507	150.87
824.685	120.15
824.863	120.15
825.04	142.68
825.218	165.2
825.396	9.56
825.574	52.56
825.751	167.25
825.929	152.91
826.107	159.06
826.284	105.81
826.462	169.3
826.639	118.1
826.817	32.08
826.994	60.76
827.172	44.37
827.349	150.87
827.527	118.1
827.704	101.72
827.882	136.53
828.059	189.78
828.237	60.76
828.414	27.99
828.591	89.43
828.769	77.14
828.946	138.58
829.124	144.72
829.301	167.25
829.478	91.48
829.655	71
829.833	99.67
830.01	79.19
830.187	58.71
830.364	79.19
830.542	97.62
830.719	114
830.896	23.89
831.073	79.19
831.25	93.52
831.427	105.81
831.604	107.86
831.782	83.28
831.959	150.87
832.136	46.42
832.313	134.48
832.49	71
832.667	132.44
832.844	103.76
833.021	128.34
833.198	66.9
833.374	101.72
833.551	101.72
833.728	71
833.905	85.33
834.082	62.8
834.259	64.85
834.436	107.86
834.612	105.81
834.789	89.43
834.966	19.8
835.143	36.18
835.319	75.09
835.496	157.01
835.673	140.63
835.85	85.33
836.026	146.77
836.203	79.19
836.38	109.91
836.556	13.65
836.733	38.23
836.909	73.04
837.086	36.18
837.262	13.65
837.439	68.95
837.616	87.38
837.792	48.47
837.968	85.33
838.145	101.72
838.321	34.13
838.498	64.85
838.674	-0.68
838.851	32.08
839.027	97.62
839.203	93.52
839.38	64.85
839.556	11.61
839.732	114
839.909	64.85
840.085	95.57
840.261	73.04
840.437	95.57
840.614	-17.07
840.79	68.95
840.966	152.91
841.142	68.95
841.318	118.1
841.494	64.85
841.671	120.15
841.847	54.61
842.023	85.33
842.199	81.24
842.375	95.57
842.551	46.42
842.727	11.61
842.903	101.72
843.079	50.52
843.255	17.75
843.431	42.32
843.607	62.8
843.783	-15.02
843.959	154.96
844.134	85.33
844.31	81.24
844.486	62.8
844.662	38.23
844.838	44.37
845.013	56.66
845.189	103.76
845.365	79.19
845.541	48.47
845.716	48.47
845.892	66.9
846.068	23.89
846.244	27.99
846.419	97.62
846.595	21.84
846.77	-10.92
846.946	36.18
847.122	27.99
847.297	36.18
847.473	89.43
847.648	52.56
847.824	77.14
847.999	52.56
848.175	3.41
848.35	-21.16
848.526	44.37
848.701	36.18
848.876	44.37
849.052	32.08
849.227	23.89
849.403	95.57
849.578	64.85
849.753	91.48
849.929	101.72
850.104	79.19
850.279	101.72
850.454	77.14
850.63	77.14
850.805	21.84
850.98	118.1
851.155	73.04
851.33	64.85
851.505	19.8
851.681	93.52
851.856	52.56
852.031	142.68
852.206	66.9
852.381	-2.73
852.556	38.23
852.731	126.29
852.906	7.51
853.081	50.52
853.256	27.99
853.431	71
853.606	50.52
853.781	46.42
853.956	11.61
854.131	-8.87
854.305	62.8
854.48	-12.97
854.655	75.09
854.83	21.84
855.005	81.24
855.18	19.8
855.354	21.84
855.529	77.14
855.704	52.56
855.879	120.15
856.053	9.56
856.228	32.08
856.403	-4.78
856.577	30.04
856.752	52.56
856.926	38.23
857.101	27.99
857.276	5.46
857.45	50.52
857.625	19.8
857.799	48.47
857.974	36.18
858.148	64.85
858.323	52.56
858.497	-21.16
858.672	68.95
858.846	62.8
859.02	77.14
859.195	36.18
859.369	-21.16
859.543	-19.11
859.718	83.28
859.892	60.76
860.066	38.23
860.241	1.37
860.415	21.84
860.589	13.65
860.763	87.38
860.938	-6.83
861.112	36.18
861.286	19.8
861.46	11.61
861.634	-47.79
861.808	36.18
861.982	15.7
862.157	-27.31
862.331	-35.5
862.505	23.89
862.679	-21.16
862.853	-2.73
863.027	66.9
863.201	87.38
863.375	-4.78
863.549	-2.73
863.722	27.99
863.896	54.61
864.07	34.13
864.244	77.14
864.418	40.28
864.592	60.76
864.766	71
864.939	27.99
865.113	62.8
865.287	93.52
865.461	7.51
865.634	122.2
865.808	52.56
865.982	15.7
866.156	27.99
866.329	36.18
866.503	-25.26
866.676	91.48
866.85	-25.26
867.024	-51.88
867.197	3.41
867.371	71
867.544	-21.16
867.718	15.7
867.891	13.65
868.065	68.95
868.238	60.76
868.412	77.14
868.585	44.37
868.759	46.42
868.932	27.99
869.105	32.08
869.279	30.04
869.452	7.51
869.625	73.04
869.799	48.47
869.972	58.71
870.145	21.84
870.319	87.38
870.492	15.7
870.665	36.18
870.838	-15.02
871.011	9.56
871.185	-17.07
871.358	-37.55
871.531	19.8
871.704	5.46
871.877	126.29
872.05	50.52
872.223	89.43
872.396	15.7
872.569	54.61
872.742	11.61
872.915	30.04
873.088	-12.97
873.261	19.8
873.434	7.51
873.607	-2.73
873.78	64.85
873.953	-43.69
874.126	42.32
874.299	-62.12
874.471	-19.11
874.644	77.14
874.817	21.84
874.99	85.33
875.163	-25.26
875.335	3.41
875.508	97.62
875.681	93.52
875.853	50.52
876.026	-0.68
876.199	48.47
876.371	40.28
876.544	21.84
876.717	-53.93
876.889	-115.37
877.062	56.66
877.234	-31.4
877.407	15.7
877.579	1.37
877.752	27.99
877.924	34.13
878.097	27.99
878.269	-27.31
878.442	21.84
878.614	-21.16
878.786	50.52
878.959	68.95
879.131	30.04
879.303	36.18
879.476	13.65
879.648	-0.68
879.82	83.28
879.993	13.65
880.165	11.61
880.337	-37.55
880.509	15.7
880.681	44.37
880.854	62.8
881.026	36.18
881.198	77.14
881.37	-8.87
881.542	101.72
881.714	27.99
881.886	-53.93
882.058	-21.16
882.23	11.61
882.402	-0.68
882.574	36.18
882.746	85.33
882.918	36.18
883.09	34.13
883.262	44.37
883.434	3.41
883.606	7.51
883.778	-0.68
883.95	73.04
884.122	23.89
884.293	85.33
884.465	21.84
884.637	3.41
884.809	3.41
884.98	9.56
885.152	-55.98
885.324	21.84
885.496	54.61
885.667	23.89
885.839	-8.87
886.011	71
886.182	50.52
886.354	19.8
886.525	-29.35
886.697	60.76
886.869	52.56
887.04	7.51
887.212	60.76
887.383	3.41
887.555	-21.16
887.726	19.8
887.897	85.33
888.069	27.99
888.24	50.52
888.412	-12.97
888.583	-4.78
888.754	48.47
888.926	5.46
889.097	40.28
889.268	-10.92
889.44	52.56
889.611	-29.35
889.782	40.28
889.953	-6.83
890.125	34.13
890.296	-60.07
890.467	95.57
890.638	-25.26
890.809	19.8
890.98	-35.5
891.151	95.57
891.323	-0.68
891.494	19.8
891.665	36.18
891.836	-19.11
892.007	19.8
892.178	42.32
892.349	23.89
892.52	-12.97
892.691	7.51
892.862	-8.87
893.032	54.61
893.203	13.65
893.374	44.37
893.545	62.8
893.716	-53.93
893.887	21.84
894.057	38.23
894.228	-17.07
894.399	-21.16
894.57	9.56
894.74	9.56
894.911	44.37
895.082	-8.87
895.253	1.37
895.423	83.28
895.594	44.37
895.764	19.8
895.935	7.51
896.106	-12.97
896.276	44.37
896.447	36.18
896.617	-4.78
896.788	-62.12
896.958	27.99
897.129	-74.41
897.299	-17.07
897.47	32.08
897.64	93.52
897.81	-25.26
897.981	23.89
898.151	85.33
898.322	17.75
898.492	68.95
898.662	34.13
898.832	-98.99
899.003	5.46
899.173	40.28
899.343	-31.4
899.513	15.7
