Data from USB4F104151__236__14-22-08-212.txt Node

Date: Thu Mar 13 14:22:08 EDT 2025
User: louis
Spectrometer: USB4F10415
Trigger mode: 4
Integration Time (sec): 2.000000E-2
Scans to average: 1
Electric dark correction enabled: true
Nonlinearity correction enabled: false
Boxcar width: 0
XAxis mode: Wavelengths
Number of Pixels in Spectrum: 3648
>>>>>Begin Spectral Data<<<<<
178.204	-77.82
178.424	-77.82
178.644	-77.82
178.864	-30.72
179.084	-86.01
179.304	-22.53
179.524	8.19
179.744	6.14
179.964	-10.24
180.184	36.86
180.404	18.43
180.624	-14.34
180.844	-34.82
181.064	2.05
181.283	-28.67
181.503	-24.58
181.723	63.49
181.943	-61.44
182.163	63.49
182.383	-43.01
182.602	57.34
182.822	10.24
183.042	61.44
183.262	49.15
183.482	65.53
183.701	-12.29
183.921	-32.77
184.141	-22.53
184.361	-2.05
184.58	32.77
184.8	18.43
185.02	-4.1
185.239	55.3
185.459	24.58
185.679	57.34
185.898	-96.25
186.118	2.05
186.338	-12.29
186.557	88.06
186.777	10.24
186.997	-20.48
187.216	30.72
187.436	57.34
187.655	-2.05
187.875	86.01
188.095	18.43
188.314	-12.29
188.534	22.53
188.753	4.1
188.973	-18.43
189.192	92.16
189.412	-6.14
189.631	45.06
189.851	61.44
190.07	8.19
190.29	43.01
190.509	-20.48
190.729	-26.62
190.948	43.01
191.168	102.4
191.387	104.45
191.607	16.38
191.826	-14.34
192.045	-30.72
192.265	16.38
192.484	-10.24
192.704	71.68
192.923	22.53
193.142	79.87
193.362	-2.05
193.581	10.24
193.8	14.34
194.02	114.69
194.239	10.24
194.458	26.62
194.678	100.35
194.897	83.97
195.116	63.49
195.335	69.63
195.555	2.05
195.774	96.25
195.993	83.97
196.212	43.01
196.432	-16.38
196.651	61.44
196.87	10.24
197.089	124.93
197.308	67.58
197.528	104.45
197.747	-22.53
197.966	-14.34
198.185	92.16
198.404	30.72
198.623	75.77
198.842	12.29
199.062	63.49
199.281	32.77
199.5	4.1
199.719	34.82
199.938	51.2
200.157	6.14
200.376	45.06
200.595	83.97
200.814	28.67
201.033	116.73
201.252	30.72
201.471	28.67
201.69	47.1
201.909	45.06
202.128	83.97
202.347	18.43
202.566	-6.14
202.785	16.38
203.004	-30.72
203.223	104.45
203.442	-6.14
203.661	26.62
203.879	79.87
204.098	-4.1
204.317	-2.05
204.536	55.3
204.755	30.72
204.974	-4.1
205.193	-22.53
205.411	36.86
205.63	28.67
205.849	26.62
206.068	20.48
206.287	63.49
206.505	20.48
206.724	75.77
206.943	8.19
207.162	2.05
207.381	81.92
207.599	83.97
207.818	-30.72
208.037	18.43
208.255	10.24
208.474	14.34
208.693	-6.14
208.911	10.24
209.13	40.96
209.349	47.1
209.567	100.35
209.786	38.91
210.005	4.1
210.223	-4.1
210.442	34.82
210.661	-4.1
210.879	53.25
211.098	-18.43
211.316	36.86
211.535	49.15
211.753	100.35
211.972	69.63
212.191	90.11
212.409	71.68
212.628	40.96
212.846	22.53
213.065	43.01
213.283	120.83
213.502	6.14
213.72	63.49
213.938	40.96
214.157	38.91
214.375	6.14
214.594	14.34
214.812	10.24
215.031	10.24
215.249	26.62
215.467	36.86
215.686	43.01
215.904	34.82
216.122	83.97
216.341	47.1
216.559	73.73
216.778	47.1
216.996	92.16
217.214	14.34
217.432	-6.14
217.651	51.2
217.869	4.1
218.087	36.86
218.306	-0
218.524	49.15
218.742	-96.25
218.96	126.97
219.179	-30.72
219.397	38.91
219.615	100.35
219.833	30.72
220.051	2.05
220.27	67.58
220.488	-28.67
220.706	-20.48
220.924	-22.53
221.142	-20.48
221.36	-10.24
221.578	81.92
221.796	38.91
222.015	10.24
222.233	88.06
222.451	22.53
222.669	34.82
222.887	10.24
223.105	-2.05
223.323	22.53
223.541	4.1
223.759	14.34
223.977	51.2
224.195	65.53
224.413	59.39
224.631	45.06
224.849	4.1
225.067	94.21
225.285	73.73
225.503	18.43
225.721	28.67
225.939	10.24
226.157	18.43
226.375	90.11
226.592	-18.43
226.81	26.62
227.028	124.93
227.246	49.15
227.464	40.96
227.682	53.25
227.9	67.58
228.117	38.91
228.335	34.82
228.553	26.62
228.771	20.48
228.989	18.43
229.206	57.34
229.424	43.01
229.642	-18.43
229.86	-71.68
230.077	67.58
230.295	-45.06
230.513	28.67
230.731	-34.82
230.948	2.05
231.166	86.01
231.384	51.2
231.601	-2.05
231.819	34.82
232.037	34.82
232.254	2.05
232.472	12.29
232.689	20.48
232.907	63.49
233.125	-55.3
233.342	30.72
233.56	40.96
233.777	59.39
233.995	69.63
234.213	-22.53
234.43	34.82
234.648	2.05
234.865	24.58
235.083	34.82
235.3	6.14
235.518	20.48
235.735	-38.91
235.953	108.54
236.17	36.86
236.388	-47.1
236.605	18.43
236.822	86.01
237.04	2.05
237.257	16.38
237.475	-10.24
237.692	90.11
237.909	139.26
238.127	16.38
238.344	40.96
238.562	38.91
238.779	-45.06
238.996	73.73
239.214	-28.67
239.431	12.29
239.648	59.39
239.865	45.06
240.083	26.62
240.3	-22.53
240.517	18.43
240.735	28.67
240.952	-2.05
241.169	126.97
241.386	36.86
241.603	43.01
241.821	55.3
242.038	20.48
242.255	102.4
242.472	2.05
242.689	28.67
242.907	108.54
243.124	-4.1
243.341	26.62
243.558	-4.1
243.775	-102.4
243.992	6.14
244.209	-38.91
244.426	61.44
244.643	51.2
244.86	-2.05
245.078	65.53
245.295	69.63
245.512	22.53
245.729	-6.14
245.946	59.39
246.163	14.34
246.38	55.3
246.597	40.96
246.814	38.91
247.031	53.25
247.248	-20.48
247.464	14.34
247.681	-6.14
247.898	-12.29
248.115	47.1
248.332	-2.05
248.549	26.62
248.766	86.01
248.983	24.58
249.2	43.01
249.417	59.39
249.633	-20.48
249.85	36.86
250.067	-12.29
250.284	14.34
250.501	-30.72
250.717	88.06
250.934	-4.1
251.151	20.48
251.368	-14.34
251.585	49.15
251.801	2.05
252.018	4.1
252.235	-20.48
252.451	43.01
252.668	43.01
252.885	69.63
253.102	-12.29
253.318	81.92
253.535	-14.34
253.752	10.24
253.968	53.25
254.185	-12.29
254.401	-38.91
254.618	77.82
254.835	26.62
255.051	116.73
255.268	38.91
255.484	88.06
255.701	47.1
255.917	67.58
256.134	12.29
256.351	30.72
256.567	-34.82
256.784	43.01
257	-43.01
257.217	38.91
257.433	69.63
257.65	6.14
257.866	2.05
258.082	-79.87
258.299	-59.39
258.515	-6.14
258.732	-10.24
258.948	2.05
259.165	22.53
259.381	8.19
259.597	55.3
259.814	69.63
260.03	53.25
260.246	10.24
260.463	26.62
260.679	43.01
260.895	69.63
261.112	36.86
261.328	10.24
261.544	63.49
261.761	36.86
261.977	-30.72
262.193	-45.06
262.409	-12.29
262.626	53.25
262.842	83.97
263.058	26.62
263.274	-12.29
263.49	77.82
263.707	45.06
263.923	71.68
264.139	-2.05
264.355	-28.67
264.571	69.63
264.787	51.2
265.004	47.1
265.22	30.72
265.436	-8.19
265.652	-6.14
265.868	14.34
266.084	59.39
266.3	34.82
266.516	20.48
266.732	-38.91
266.948	43.01
267.164	34.82
267.38	36.86
267.596	59.39
267.812	69.63
268.028	36.86
268.244	-65.54
268.46	59.39
268.676	18.43
268.892	86.01
269.108	-12.29
269.324	-30.72
269.54	-4.1
269.756	59.39
269.972	-34.82
270.188	30.72
270.403	22.53
270.619	51.2
270.835	55.3
271.051	63.49
271.267	10.24
271.483	6.14
271.698	14.34
271.914	83.97
272.13	2.05
272.346	8.19
272.562	18.43
272.777	120.83
272.993	75.77
273.209	94.21
273.425	61.44
273.64	2.05
273.856	86.01
274.072	53.25
274.287	-12.29
274.503	79.87
274.719	53.25
274.934	83.97
275.15	-8.19
275.366	47.1
275.581	-18.43
275.797	22.53
276.012	26.62
276.228	24.58
276.444	2.05
276.659	18.43
276.875	49.15
277.09	57.34
277.306	10.24
277.521	75.77
277.737	55.3
277.952	75.77
278.168	26.62
278.383	36.86
278.599	43.01
278.814	36.86
279.03	38.91
279.245	86.01
279.461	-12.29
279.676	22.53
279.892	36.86
280.107	-2.05
280.322	-4.1
280.538	88.06
280.753	18.43
280.969	75.77
281.184	-45.06
281.399	61.44
281.615	61.44
281.83	47.1
282.045	-47.1
282.26	16.38
282.476	43.01
282.691	61.44
282.906	73.73
283.122	40.96
283.337	-77.82
283.552	34.82
283.767	10.24
283.983	114.69
284.198	30.72
284.413	-53.25
284.628	-10.24
284.843	28.67
285.058	67.58
285.274	43.01
285.489	-6.14
285.704	53.25
285.919	43.01
286.134	47.1
286.349	71.68
286.564	2.05
286.779	63.49
286.995	100.35
287.21	2.05
287.425	83.97
287.64	-4.1
287.855	36.86
288.07	2.05
288.285	63.49
288.5	20.48
288.715	77.82
288.93	28.67
289.145	14.34
289.36	55.3
289.575	38.91
289.79	14.34
290.004	-10.24
290.219	139.26
290.434	2.05
290.649	28.67
290.864	-38.91
291.079	43.01
291.294	26.62
291.509	43.01
291.724	14.34
291.938	71.68
292.153	124.93
292.368	18.43
292.583	30.72
292.798	38.91
293.012	-14.34
293.227	36.86
293.442	-34.82
293.657	28.67
293.871	67.58
294.086	71.68
294.301	26.62
294.516	75.77
294.73	69.63
294.945	38.91
295.16	51.2
295.374	38.91
295.589	14.34
295.804	-22.53
296.018	36.86
296.233	71.68
296.447	-2.05
296.662	-6.14
296.877	86.01
297.091	43.01
297.306	92.16
297.52	67.58
297.735	2.05
297.949	24.58
298.164	69.63
298.378	65.53
298.593	-43.01
298.807	-24.58
299.022	30.72
299.236	102.4
299.451	51.2
299.665	-34.82
299.88	83.97
300.094	55.3
300.309	118.78
300.523	73.73
300.737	36.86
300.952	75.77
301.166	79.87
301.381	-2.05
301.595	-47.1
301.809	-6.14
302.024	4.1
302.238	55.3
302.452	-8.19
302.667	18.43
302.881	100.35
303.095	43.01
303.309	73.73
303.524	30.72
303.738	-2.05
303.952	57.34
304.166	100.35
304.381	-36.86
304.595	104.45
304.809	30.72
305.023	47.1
305.237	18.43
305.452	-16.38
305.666	28.67
305.88	26.62
306.094	118.78
306.308	45.06
306.522	-6.14
306.736	45.06
306.95	92.16
307.164	26.62
307.379	-16.38
307.593	71.68
307.807	96.25
308.021	51.2
308.235	-16.38
308.449	32.77
308.663	-22.53
308.877	38.91
309.091	-2.05
309.305	34.82
309.519	18.43
309.733	47.1
309.947	14.34
310.161	100.35
310.374	71.68
310.588	51.2
310.802	59.39
311.016	18.43
311.23	32.77
311.444	34.82
311.658	43.01
311.872	63.49
312.085	10.24
312.299	69.63
312.513	108.54
312.727	55.3
312.941	18.43
313.154	71.68
313.368	73.73
313.582	65.53
313.796	43.01
314.009	59.39
314.223	120.83
314.437	43.01
314.651	40.96
314.864	6.14
315.078	-20.48
315.292	24.58
315.505	-30.72
315.719	61.44
315.933	100.35
316.146	-6.14
316.36	16.38
316.573	57.34
316.787	83.97
317.001	69.63
317.214	40.96
317.428	53.25
317.641	4.1
317.855	86.01
318.068	124.93
318.282	-30.72
318.495	116.73
318.709	86.01
318.922	96.25
319.136	110.59
319.349	40.96
319.563	34.82
319.776	96.25
319.99	32.77
320.203	86.01
320.417	131.07
320.63	36.86
320.843	67.58
321.057	71.68
321.27	63.49
321.483	34.82
321.697	153.6
321.91	38.91
322.124	24.58
322.337	8.19
322.55	14.34
322.763	86.01
322.977	-14.34
323.19	2.05
323.403	51.2
323.617	34.82
323.83	45.06
324.043	-14.34
324.256	69.63
324.469	53.25
324.683	75.77
324.896	65.53
325.109	116.73
325.322	-4.1
325.535	92.16
325.748	102.4
325.962	-16.38
326.175	4.1
326.388	94.21
326.601	100.35
326.814	53.25
327.027	110.59
327.24	92.16
327.453	83.97
327.666	59.39
327.879	34.82
328.092	36.86
328.305	36.86
328.518	-22.53
328.731	36.86
328.944	36.86
329.157	69.63
329.37	18.43
329.583	20.48
329.796	139.26
330.009	36.86
330.222	69.63
330.435	151.55
330.648	63.49
330.861	59.39
331.073	47.1
331.286	26.62
331.499	43.01
331.712	-24.58
331.925	14.34
332.138	71.68
332.35	49.15
332.563	8.19
332.776	126.97
332.989	83.97
333.202	67.58
333.414	38.91
333.627	2.05
333.84	86.01
334.053	51.2
334.265	-4.1
334.478	-2.05
334.691	112.64
334.903	157.69
335.116	22.53
335.329	20.48
335.541	10.24
335.754	59.39
335.966	16.38
336.179	34.82
336.392	-26.62
336.604	67.58
336.817	34.82
337.029	45.06
337.242	26.62
337.454	55.3
337.667	-6.14
337.88	69.63
338.092	2.05
338.305	63.49
338.517	-4.1
338.729	4.1
338.942	2.05
339.154	47.1
339.367	-10.24
339.579	2.05
339.792	14.34
340.004	26.62
340.217	43.01
340.429	100.35
340.641	43.01
340.854	-0
341.066	2.05
341.278	36.86
341.491	141.31
341.703	28.67
341.915	24.58
342.128	43.01
342.34	67.58
342.552	57.34
342.764	67.58
342.977	43.01
343.189	51.2
343.401	4.1
343.613	24.58
343.826	59.39
344.038	108.54
344.25	34.82
344.462	-10.24
344.674	49.15
344.886	28.67
345.099	34.82
345.311	100.35
345.523	51.2
345.735	-2.05
345.947	104.45
346.159	18.43
346.371	-12.29
346.583	20.48
346.795	104.45
347.007	26.62
347.219	26.62
347.431	-10.24
347.643	100.35
347.855	-20.48
348.067	88.06
348.279	4.1
348.491	10.24
348.703	63.49
348.915	83.97
349.127	10.24
349.339	18.43
349.551	55.3
349.763	79.87
349.975	14.34
350.187	114.69
350.399	65.53
350.61	100.35
350.822	55.3
351.034	77.82
351.246	18.43
351.458	59.39
351.669	108.54
351.881	143.36
352.093	96.25
352.305	26.62
352.517	137.21
352.728	59.39
352.94	36.86
353.152	67.58
353.363	45.06
353.575	96.25
353.787	83.97
353.999	75.77
354.21	59.39
354.422	75.77
354.633	-55.3
354.845	16.38
355.057	10.24
355.268	-14.34
355.48	2.05
355.692	43.01
355.903	94.21
356.115	-20.48
356.326	-38.91
356.538	104.45
356.749	4.1
356.961	77.82
357.172	12.29
357.384	43.01
357.595	112.64
357.807	-38.91
358.018	69.63
358.23	36.86
358.441	77.82
358.653	116.73
358.864	-26.62
359.075	75.77
359.287	-0
359.498	77.82
359.709	34.82
359.921	63.49
360.132	59.39
360.344	45.06
360.555	-45.06
360.766	59.39
360.977	28.67
361.189	18.43
361.4	10.24
361.611	63.49
361.823	79.87
362.034	67.58
362.245	2.05
362.456	67.58
362.667	114.69
362.879	67.58
363.09	43.01
363.301	126.97
363.512	-6.14
363.723	59.39
363.935	100.35
364.146	61.44
364.357	-10.24
364.568	98.3
364.779	-22.53
364.99	-55.3
365.201	71.68
365.412	116.73
365.623	71.68
365.834	67.58
366.045	51.2
366.256	90.11
366.467	77.82
366.678	67.58
366.889	16.38
367.1	141.31
367.311	67.58
367.522	6.14
367.733	88.06
367.944	59.39
368.155	45.06
368.366	92.16
368.577	73.73
368.788	12.29
368.999	71.68
369.209	96.25
369.42	149.5
369.631	143.36
369.842	86.01
370.053	-22.53
370.264	81.92
370.474	36.86
370.685	77.82
370.896	26.62
371.107	59.39
371.317	34.82
371.528	86.01
371.739	75.77
371.95	55.3
372.16	100.35
372.371	36.86
372.582	43.01
372.792	61.44
373.003	161.79
373.214	63.49
373.424	92.16
373.635	53.25
373.846	40.96
374.056	53.25
374.267	124.93
374.477	-6.14
374.688	6.14
374.898	92.16
375.109	47.1
375.319	100.35
375.53	38.91
375.74	88.06
375.951	86.01
376.161	73.73
376.372	-2.05
376.582	49.15
376.793	108.54
377.003	30.72
377.214	-38.91
377.424	67.58
377.635	92.16
377.845	86.01
378.055	96.25
378.266	-2.05
378.476	47.1
378.686	43.01
378.897	61.44
379.107	36.86
379.317	28.67
379.528	59.39
379.738	131.07
379.948	34.82
380.158	112.64
380.369	34.82
380.579	77.82
380.789	6.14
380.999	43.01
381.21	63.49
381.42	145.41
381.63	36.86
381.84	92.16
382.05	65.53
382.261	77.82
382.471	86.01
382.681	2.05
382.891	77.82
383.101	-8.19
383.311	88.06
383.521	14.34
383.731	69.63
383.941	59.39
384.151	75.77
384.361	40.96
384.571	126.97
384.781	96.25
384.991	43.01
385.201	198.65
385.411	83.97
385.621	53.25
385.831	59.39
386.041	38.91
386.251	51.2
386.461	43.01
386.671	10.24
386.881	71.68
387.091	65.53
387.301	47.1
387.511	112.64
387.72	45.06
387.93	18.43
388.14	53.25
388.35	94.21
388.56	63.49
388.769	47.1
388.979	43.01
389.189	-2.05
389.399	114.69
389.609	71.68
389.818	67.58
390.028	43.01
390.238	86.01
390.447	57.34
390.657	100.35
390.867	77.82
391.076	-14.34
391.286	88.06
391.496	157.69
391.705	63.49
391.915	124.93
392.125	145.41
392.334	28.67
392.544	174.08
392.753	129.02
392.963	26.62
393.172	14.34
393.382	-86.01
393.591	180.22
393.801	65.53
394.01	67.58
394.22	167.93
394.429	45.06
394.639	45.06
394.848	98.3
395.058	141.31
395.267	131.07
395.477	49.15
395.686	96.25
395.895	243.71
396.105	108.54
396.314	92.16
396.524	116.73
396.733	102.4
396.942	161.79
397.152	108.54
397.361	108.54
397.57	112.64
397.78	53.25
397.989	77.82
398.198	112.64
398.407	-6.14
398.617	167.93
398.826	96.25
399.035	83.97
399.244	139.26
399.453	100.35
399.663	4.1
399.872	149.5
400.081	92.16
400.29	139.26
400.499	165.89
400.708	161.79
400.917	110.59
401.127	124.93
401.336	133.12
401.545	169.98
401.754	153.6
401.963	167.93
402.172	143.36
402.381	159.74
402.59	118.78
402.799	131.07
403.008	126.97
403.217	135.17
403.426	100.35
403.635	163.84
403.844	182.27
404.053	178.17
404.262	178.17
404.471	237.56
404.68	221.18
404.888	200.7
405.097	217.08
405.306	174.08
405.515	137.21
405.724	206.84
405.933	176.13
406.142	239.61
406.35	200.7
406.559	129.02
406.768	217.08
406.977	247.8
407.185	272.38
407.394	231.42
407.603	208.89
407.812	280.57
408.02	305.15
408.229	219.13
408.438	256
408.646	292.86
408.855	350.2
409.064	274.43
409.272	337.91
409.481	378.87
409.69	415.74
409.898	301.05
410.107	274.43
410.315	413.69
410.524	413.69
410.733	511.99
410.941	397.31
411.15	446.46
411.358	460.79
411.567	475.13
411.775	518.14
411.984	526.33
412.192	520.18
412.401	509.94
412.609	610.29
412.818	634.87
413.026	645.11
413.234	598.01
413.443	591.86
413.651	727.03
413.86	649.21
414.068	724.98
414.276	684.02
414.485	788.47
414.693	716.79
414.901	831.48
415.11	866.29
415.318	845.81
415.526	802.8
415.734	970.74
415.943	1075.18
416.151	1017.84
416.359	1060.85
416.567	1093.62
416.776	1116.14
416.984	1099.76
417.192	1261.55
417.4	1208.3
417.608	1218.54
417.817	1292.27
418.025	1402.86
418.233	1447.91
418.441	1398.76
418.649	1554.41
418.857	1617.9
419.065	1642.47
419.273	1642.47
419.481	1689.57
419.689	1814.5
419.897	1845.22
420.105	1951.71
420.313	1853.41
420.521	2017.25
420.729	1939.43
420.937	2023.39
421.145	2183.13
421.353	2205.66
421.561	2295.77
421.769	2381.79
421.977	2459.61
422.185	2576.34
422.393	2658.26
422.601	2770.9
422.809	2688.98
423.017	2873.3
423.224	2994.13
423.432	3008.47
423.64	3211.21
423.848	3325.9
424.056	3157.97
424.263	3538.89
424.471	3512.27
424.679	3610.57
424.887	3735.49
425.094	3807.17
425.302	3835.85
425.51	4005.83
425.718	4212.67
425.925	4288.45
426.133	4417.47
426.341	4478.91
426.548	4818.87
426.756	4712.38
426.964	4896.69
427.171	5207.98
427.379	5347.25
427.586	5294
427.794	5623.72
428.001	5771.18
428.209	5967.78
428.417	5834.66
428.624	6268.83
428.832	6328.22
429.039	6317.98
429.247	6307.74
429.454	6819.74
429.662	7280.53
429.869	6844.31
430.076	7274.38
430.284	7061.4
430.491	7550.86
430.699	7950.21
430.906	7958.41
431.114	8064.9
431.321	8421.25
431.528	8574.85
431.736	9009.01
431.943	9285.49
432.15	9002.87
432.358	9197.43
432.565	9856.87
432.772	9756.52
432.979	10143.59
433.187	10268.52
433.394	10524.51
433.601	10899.29
433.808	11020.12
434.016	11022.17
434.223	11495.25
434.43	12099.4
434.637	12330.82
434.844	12816.19
435.052	12822.33
435.259	12627.78
435.466	13018.94
435.673	12728.13
435.88	13549.36
436.087	14434.08
436.294	14401.32
436.501	13922.09
436.708	14565.15
436.915	14855.97
437.122	15576.85
437.329	15615.76
437.537	15961.87
437.743	16197.38
437.95	16228.1
438.157	16910.08
438.364	17606.39
438.571	17463.03
438.778	17762.03
438.985	19185.37
439.192	18458.34
439.399	19105.5
439.606	18435.81
439.813	19633.88
440.02	20883.14
440.227	20465.35
440.433	20231.88
440.64	20956.86
440.847	20850.37
441.054	21448.38
441.261	22607.53
441.467	22509.22
441.674	22851.24
441.881	23604.89
442.088	23402.14
442.294	23525.02
442.501	24194.7
442.708	24495.75
442.914	25302.65
443.121	26685.03
443.328	25654.9
443.534	27729.5
443.741	26865.25
443.948	26306.16
444.154	28247.63
444.361	28241.49
444.568	28481.1
444.774	28323.41
444.981	28517.96
445.187	29517.37
445.394	30543.41
445.6	30268.98
445.807	33125.89
446.013	31741.47
446.22	32370.19
446.426	33578.5
446.633	33959.42
446.839	35134.95
447.046	33850.88
447.252	35714.53
447.459	35239.4
447.665	35337.7
447.871	36969.93
448.078	38446.52
448.284	36672.98
448.491	37932.48
448.697	38907.31
448.903	39789.98
449.11	39648.67
449.316	39040.43
449.522	39876
449.728	40891.79
449.935	41270.67
450.141	40824.21
450.347	42278.27
450.553	40775.06
450.76	41262.47
450.966	42995.06
451.172	42294.65
451.378	43140.46
451.584	42734.96
451.791	43183.47
451.997	43318.63
452.203	43953.51
452.409	44272.99
452.615	44057.95
452.821	42241.4
453.027	41973.12
453.233	44199.26
453.44	42458.49
453.646	42610.04
453.852	42986.86
454.058	43943.27
454.264	42374.52
454.47	43322.73
454.676	42401.14
454.882	44160.35
455.088	39769.51
455.294	41033.1
455.5	41235.85
455.705	41680.26
455.911	40023.45
456.117	39040.43
456.323	38917.55
456.529	36834.77
456.735	38694.32
456.941	37438.92
457.147	36961.74
457.352	36081.11
457.558	35876.32
457.764	35562.98
457.97	35005.93
458.176	34418.16
458.381	34266.61
458.587	32841.23
458.793	32742.92
458.999	30887.46
459.204	33404.42
459.41	32542.22
459.616	30207.54
459.821	30408.24
460.027	30221.87
460.233	29505.09
460.438	28259.92
460.644	28804.68
460.85	27190.88
461.055	26715.75
461.261	26480.24
461.466	24452.75
461.672	24051.35
461.878	25802.36
462.083	23844.5
462.289	23819.92
462.494	23582.36
462.7	22378.15
462.905	21647.03
463.111	22455.98
463.316	22398.63
463.522	21911.22
463.727	22140.59
463.932	22212.27
464.138	21423.8
464.343	22058.67
464.549	20979.39
464.754	22126.25
464.959	21890.74
465.165	21309.11
465.37	20797.12
465.575	20037.33
465.781	20813.51
465.986	20971.2
466.191	20317.9
466.397	19803.86
466.602	19056.35
466.807	19523.29
467.012	19711.7
467.218	19631.83
467.423	19205.85
467.628	19228.38
467.833	20227.79
468.038	19580.63
468.244	18835.17
468.449	19779.28
468.654	18831.07
468.859	18859.74
469.064	18693.86
469.269	17868.53
469.474	18345.7
469.679	18638.56
469.885	18102
470.09	18145
470.295	18243.31
470.5	17975.02
470.705	18034.41
470.91	17508.08
471.115	17444.6
471.32	17637.11
471.525	17370.87
471.73	17096.44
471.935	16942.85
472.139	16328.45
472.344	16633.6
472.549	16230.15
472.754	16322.31
472.959	16029.45
473.164	15732.5
473.369	15189.78
473.574	16129.8
473.778	15912.72
473.983	15685.39
474.188	15795.98
474.393	15038.23
474.598	15386.39
474.802	15259.42
475.007	14987.04
475.212	14673.7
475.417	14309.16
475.621	14241.57
475.826	14386.98
476.031	13963.05
476.235	13616.94
476.44	14223.14
476.645	13827.88
476.849	13713.2
477.054	13682.48
477.259	13526.83
477.463	13612.85
477.668	13068.09
477.872	13139.77
478.077	12971.83
478.282	12799.8
478.486	12748.61
478.691	12506.95
478.895	12543.81
479.1	12422.98
479.304	12291.91
479.509	12222.28
479.713	12171.08
479.918	12119.88
480.122	11972.43
480.326	12076.87
480.531	11847.5
480.735	11722.57
480.94	11847.5
481.144	12050.25
481.348	11575.12
481.553	11599.69
481.757	11355.99
481.961	11650.89
482.166	11833.16
482.37	11835.21
482.574	11409.23
482.778	11538.26
482.983	11839.31
483.187	11599.69
483.391	11702.09
483.595	11542.35
483.8	11374.42
484.004	11288.4
484.208	11761.48
484.412	11519.82
484.616	11446.1
484.821	11579.22
485.025	11245.4
485.229	11601.74
485.433	11564.88
485.637	11650.89
485.841	11265.88
486.045	11333.46
486.249	11548.5
486.453	11523.92
486.657	11614.03
486.861	11521.87
487.065	11147.09
487.269	11431.76
487.473	11511.63
487.677	11720.53
487.881	11485.01
488.085	11413.33
488.289	11681.61
488.493	11521.87
488.697	11978.57
488.901	11685.71
489.105	11454.29
489.309	11781.96
489.512	11597.65
489.716	11683.66
489.92	11765.58
490.124	11552.59
490.328	11855.69
490.531	11824.97
490.735	11814.73
490.939	11810.64
491.143	11935.56
491.346	11726.67
491.55	11913.03
491.754	11964.23
491.958	12070.73
492.161	12060.49
492.365	11935.56
492.569	12228.42
492.772	12091.21
492.976	12209.99
493.18	12345.16
493.383	12406.59
493.587	12439.36
493.79	12724.03
493.994	12459.84
494.197	12560.19
494.401	12732.22
494.605	12775.23
494.808	12922.68
495.012	12896.06
495.215	13031.23
495.419	13121.34
495.622	13072.18
495.825	13469.49
496.029	13281.08
496.232	13776.69
496.436	13516.59
496.639	13995.82
496.843	13844.27
497.046	14243.62
497.249	14202.66
497.453	14329.64
497.656	14360.36
497.859	14466.85
498.063	14843.68
498.266	14833.44
498.469	14931.74
498.673	14984.99
498.876	15474.45
499.079	15558.42
499.282	15333.14
499.485	15755.02
499.689	15654.67
499.892	16154.38
500.095	16295.69
500.298	16410.37
500.501	16322.31
500.705	16455.43
500.908	16955.13
501.111	17131.26
501.314	17454.84
501.517	17157.88
501.72	17766.13
501.923	17520.37
502.126	18085.61
502.329	18468.58
502.532	18509.54
502.735	18274.03
502.938	18841.31
503.141	18898.66
503.344	19195.61
503.547	19007.2
503.75	19590.87
503.953	20012.75
504.156	19760.85
504.359	20010.7
504.562	19943.12
504.765	20508.36
504.968	20829.89
505.17	21151.42
505.373	20981.44
505.576	21431.99
505.779	21698.23
505.982	21774
506.185	22273.71
506.387	21903.03
506.59	22572.71
506.793	22836.9
506.996	22716.07
507.198	23379.61
507.401	23434.91
507.604	23672.47
507.807	23858.84
508.009	24233.61
508.212	24290.96
508.415	24833.67
508.617	24929.92
508.82	24970.88
509.022	24839.81
509.225	25720.44
509.428	25935.48
509.63	25863.8
509.833	26148.47
510.035	26959.46
510.238	26375.79
510.44	27057.76
510.643	27450.97
510.845	27813.46
511.048	27397.73
511.25	28012.12
511.453	28227.15
511.655	29355.58
511.858	29048.39
512.06	29226.56
512.262	29419.07
512.465	29691.45
512.667	29750.84
512.87	30199.35
513.072	30228.02
513.274	30694.96
513.477	31071.78
513.679	31374.88
513.881	31626.78
514.084	31901.21
514.286	31540.77
514.488	32001.56
514.69	33187.33
514.893	33203.72
515.095	33127.94
515.297	33742.33
515.499	33644.03
515.701	34221.56
515.904	34606.58
516.106	34504.18
516.308	34788.85
516.51	35468.77
516.712	35612.13
516.914	35571.17
517.116	36621.78
517.318	36378.07
517.52	36646.35
517.722	37125.58
517.925	37078.47
518.127	37539.27
518.329	37727.68
518.531	37451.2
518.733	38579.64
518.935	38610.35
519.136	38835.63
519.338	39226.79
519.54	39550.37
519.742	39706.02
519.944	39927.2
520.146	40697.23
520.348	41088.4
520.55	41127.31
520.752	41254.28
520.954	41835.91
521.155	41530.76
521.357	42268.03
521.559	42470.78
521.761	42796.4
521.963	42638.71
522.164	43392.36
522.366	43482.47
522.568	43949.41
522.77	43713.89
522.971	44545.37
523.173	44250.46
523.375	44651.86
523.576	44801.36
523.778	44959.06
523.98	45368.65
524.181	45387.08
524.383	45770.05
524.584	45870.4
524.786	46298.43
524.988	46042.43
525.189	46695.74
525.391	47076.66
525.592	47205.68
525.794	47275.31
525.995	47320.37
526.197	47705.38
526.398	47564.07
526.6	47928.61
526.801	47949.09
527.003	48254.24
527.204	48153.89
527.406	48788.76
527.607	48782.62
527.808	49110.29
528.01	48307.49
528.211	48747.8
528.412	49675.53
528.614	49564.94
528.815	49624.33
529.016	49806.6
529.218	49368.33
529.419	49548.56
529.62	50416.89
529.822	49820.94
530.023	49880.33
530.224	50056.45
530.425	50062.6
530.626	49808.65
530.828	49812.74
531.029	51119.35
531.23	50234.63
531.431	50212.1
531.632	50519.29
531.833	50681.08
532.035	50476.29
532.236	50758.91
532.437	51014.9
532.638	50517.25
532.839	50984.18
533.04	51283.19
533.241	50273.54
533.442	51524.85
533.643	50973.94
533.844	51107.06
534.045	51389.68
534.246	50752.76
534.447	51383.54
534.648	50814.2
534.849	51047.67
535.05	51059.96
535.251	50926.84
535.451	50857.21
535.652	51045.62
535.853	51125.49
536.054	50803.96
536.255	51014.9
536.456	50867.45
536.657	51809.51
536.857	51129.59
537.058	50597.12
537.259	51434.74
537.46	51287.28
537.66	51006.71
537.861	51379.44
538.062	51094.77
538.263	51647.72
538.463	50902.26
538.664	51059.96
538.865	51617
539.065	51100.92
539.266	50912.5
539.466	51291.38
539.667	50889.98
539.868	51621.1
540.068	51012.85
540.269	51150.07
540.469	51262.71
540.67	51100.92
540.87	50867.45
541.071	51227.89
541.271	51057.91
541.472	50896.12
541.672	50838.78
541.873	50887.93
542.073	50709.75
542.274	51571.95
542.474	50609.4
542.675	50689.27
542.875	51315.95
543.075	50748.67
543.276	50271.49
543.476	51383.54
543.676	50386.18
543.877	51272.95
544.077	50840.82
544.277	50615.55
544.478	51041.53
544.678	51047.67
544.878	50691.32
545.078	50910.46
545.279	50418.94
545.479	50425.09
545.679	50781.43
545.879	50552.06
546.079	50752.76
546.28	50158.85
546.48	50545.92
546.68	50625.79
546.88	50588.92
547.08	50105.6
547.28	50754.81
547.48	50132.23
547.68	50582.78
547.88	50054.4
548.081	50474.24
548.281	50480.38
548.481	50654.46
548.681	50486.53
548.881	50709.75
549.081	50453.76
549.28	50091.27
549.48	50705.66
549.68	50117.89
549.88	50904.31
550.08	50339.07
550.28	50412.8
550.48	50130.18
550.68	50754.81
550.88	50244.87
551.08	49884.42
551.279	50210.05
551.479	49888.52
551.679	49984.77
551.879	50294.02
552.079	50523.39
552.278	50312.45
552.478	50330.88
552.678	49968.39
552.878	50535.68
553.077	49984.77
553.277	49796.36
553.477	50056.45
553.676	49730.83
553.876	50257.15
554.076	49986.82
554.275	49288.46
554.475	49509.64
554.674	49771.78
554.874	49681.67
555.074	49501.45
555.273	49863.94
555.473	50097.41
555.672	49149.2
555.872	49638.67
556.071	49718.54
556.271	49952.01
556.47	49530.12
556.67	48962.84
556.869	49554.7
557.068	49468.69
557.268	49284.37
557.467	49646.86
557.667	49098
557.866	48745.75
558.065	49354
558.265	49089.81
558.464	48590.11
558.663	49239.31
558.863	48676.12
559.062	49569.04
559.261	48659.74
559.461	49397.01
559.66	48192.8
559.859	48786.71
560.058	48200.99
560.258	48518.43
560.457	48205.09
560.656	48911.64
560.855	48237.86
561.054	48938.26
561.253	48651.55
561.453	48196.9
561.652	48651.55
561.851	48282.91
562.05	48342.3
562.249	48274.72
562.448	48227.62
562.647	48399.65
562.846	48188.7
563.045	47852.84
563.244	47607.08
563.443	48196.9
563.642	47299.89
563.841	47717.67
564.04	47242.54
564.239	48174.37
564.438	47713.58
564.637	47557.93
564.836	47686.95
565.035	47041.84
565.234	47095.09
565.432	47316.27
565.631	46865.72
565.83	47439.15
566.029	46996.79
566.228	46630.2
566.427	46378.3
566.625	46374.2
566.824	45993.28
567.023	46865.72
567.222	45968.71
567.42	46779.7
567.619	45665.61
567.818	45966.66
568.016	45925.7
568.215	46464.31
568.414	45833.54
568.612	46136.64
568.811	45686.09
569.01	46064.96
569.208	45583.69
569.407	45784.39
569.605	45120.85
569.804	45616.46
570.002	45028.69
570.201	45348.17
570.4	45223.25
570.598	44969.3
570.797	44787.03
570.995	44817.75
571.193	44209.5
571.392	45051.22
571.59	44408.15
571.789	44596.57
571.987	44428.63
572.186	44207.45
572.384	44203.36
572.582	44320.09
572.781	44295.52
572.979	43433.32
573.177	43902.31
573.376	43851.11
573.574	43486.57
573.772	43810.15
573.971	43505
574.169	43457.9
574.367	43144.56
574.565	43365.74
574.763	42902.9
574.962	42941.81
575.16	42663.28
575.358	43158.89
575.556	42329.47
575.754	43382.12
575.952	42474.87
576.151	42802.55
576.349	42220.92
576.547	42272.12
576.745	42466.68
576.943	42323.32
577.141	42042.75
577.339	42034.56
577.537	41751.94
577.735	41721.22
577.933	41631.11
578.131	41663.88
578.329	41700.74
578.527	41094.54
578.725	41401.74
578.923	41866.63
579.121	40902.03
579.319	41014.67
579.516	41209.23
579.714	41115.02
579.912	40904.08
580.11	40834.45
580.308	40703.38
580.506	40637.84
580.704	39849.38
580.901	40185.24
581.099	40431
581.297	39984.54
581.495	40125.85
581.692	40361.37
581.89	39726.5
582.088	39990.69
582.285	39615.91
582.483	39894.43
582.681	39736.74
582.878	39579.04
583.076	39368.1
583.274	39466.41
583.471	38565.3
583.669	38987.18
583.866	38870.45
584.064	39194.03
584.262	38565.3
584.459	38876.59
584.657	38747.57
584.854	38935.98
585.052	37946.81
585.249	38344.12
585.447	38573.49
585.644	37686.72
585.841	37989.82
586.039	38217.14
586.236	37627.33
586.434	37469.64
586.631	37416.39
586.828	37721.54
587.026	37592.51
587.223	37469.64
587.42	37047.75
587.618	37256.65
587.815	37031.37
588.012	36900.3
588.21	37068.23
588.407	37313.99
588.604	36804.05
588.801	36535.76
588.999	36724.18
589.196	36156.89
589.393	36445.65
589.59	36400.6
589.787	35956.19
589.984	36064.73
590.182	35958.24
590.379	35771.87
590.576	35620.32
590.773	35937.76
590.97	35393
591.167	35466.72
591.364	34973.16
591.561	35268.07
591.758	34819.56
591.955	35274.21
592.152	35227.11
592.349	34809.32
592.546	34960.87
592.743	34717.17
592.94	34239.99
593.137	34844.14
593.334	34971.11
593.531	33988.09
593.727	34309.62
593.924	34291.19
594.121	34016.76
594.318	33684.99
594.515	33728
594.712	34004.47
594.908	33547.78
595.105	34110.97
595.302	32845.32
595.499	33906.17
595.696	33314.31
595.892	33029.64
596.089	33252.87
596.286	33216.01
596.482	33054.22
596.679	33101.32
596.876	32937.48
597.072	33068.55
597.269	32927.24
597.466	32509.46
597.662	32574.99
597.859	32378.39
598.055	32306.71
598.252	31782.43
598.448	32243.22
598.645	32091.67
598.841	31215.14
599.038	31612.45
599.234	31755.8
599.431	31682.08
599.627	31440.42
599.824	31802.91
600.02	31075.88
600.217	31387.17
600.413	31190.56
600.609	30940.71
600.806	30914.09
601.002	30707.24
601.198	30678.57
601.395	30443.06
601.591	30615.08
601.787	30477.87
601.984	30209.59
602.18	30588.46
602.376	30105.14
602.572	30127.67
602.769	29881.91
602.965	29756.99
603.161	29683.26
603.357	29683.26
603.553	29509.18
603.75	29496.89
603.946	29357.63
604.142	29799.99
604.338	29156.93
604.534	29539.9
604.73	29324.86
604.926	29197.89
605.122	29179.46
605.318	28839.5
605.514	29068.87
605.71	28710.47
605.906	28575.31
606.102	28614.22
606.298	28370.51
606.494	28499.53
606.69	28755.53
606.886	28669.51
607.082	28100.18
607.278	28356.18
607.474	28061.27
607.67	28137.04
607.866	27397.73
608.062	28130.9
608.257	27971.16
608.453	27813.46
608.649	27999.83
608.845	27893.33
609.041	27833.94
609.236	27813.46
609.432	27483.74
609.628	27367.01
609.824	27489.88
610.019	27496.03
610.215	27278.94
610.411	27719.26
610.606	27190.88
610.802	27377.25
610.998	27098.72
611.193	27289.18
611.389	26863.21
611.584	26472.04
611.78	26525.29
611.976	26883.69
612.171	27108.96
612.367	26656.36
612.562	26572.39
612.758	26166.9
612.953	26439.28
613.149	26945.12
613.344	26076.79
613.539	26801.77
613.735	26486.38
613.93	26648.17
614.126	26373.74
614.321	26578.54
614.517	26392.17
614.712	26543.72
614.907	26011.25
615.103	26230.38
615.298	25777.78
615.493	26283.63
615.688	25521.79
615.884	26220.14
616.079	25587.32
616.274	25800.31
616.47	25900.66
616.665	25921.14
616.86	25380.48
617.055	25663.1
617.25	25757.3
617.445	25439.87
617.641	25167.49
617.836	25570.94
618.031	24983.17
618.226	25069.19
618.421	24759.94
618.616	24987.27
618.811	24852.1
619.006	25005.7
619.201	24268.43
619.396	24817.29
619.591	24350.35
619.786	24628.87
619.981	24149.65
620.176	24477.32
620.371	24094.35
620.566	24170.13
620.761	23875.22
620.956	24139.41
621.151	23475.87
621.346	23608.98
621.541	23555.74
621.735	23785.11
621.93	23283.36
622.125	23451.29
622.32	22863.52
622.515	23301.79
622.709	22941.35
622.904	22857.38
623.099	22642.34
623.294	22492.84
623.488	22314.67
623.683	22400.68
623.878	21868.21
624.072	22441.64
624.267	22032.05
624.462	21718.71
624.656	21935.79
624.851	21761.72
625.046	21495.48
625.24	21403.32
625.435	21202.62
625.629	21122.75
625.824	21186.24
626.018	21272.25
626.213	20440.78
626.407	20600.52
626.602	20635.33
626.796	20723.4
626.991	20528.84
627.185	20489.93
627.38	20287.18
627.574	20149.96
627.768	19826.39
627.963	19945.17
628.157	19683.03
628.352	19617.49
628.546	19246.81
628.74	19592.92
628.935	19445.46
629.129	19449.56
629.323	18976.48
629.517	18964.19
629.712	18833.12
629.906	19101.4
630.1	18657
630.294	18845.41
630.489	18706.15
630.683	18806.5
630.877	18613.99
631.071	18403.05
631.265	18374.38
631.459	18245.35
631.653	18061.04
631.848	18106.09
632.042	17909.49
632.236	18034.41
632.43	17788.66
632.624	17530.61
632.818	17690.35
633.012	17491.7
633.206	17166.07
633.4	17321.72
633.594	16998.14
633.788	17133.31
633.982	17041.15
634.176	17108.73
634.369	16899.84
634.563	16793.34
634.757	16641.79
634.951	16668.42
635.145	16621.31
635.339	16602.88
635.533	16385.8
635.726	16455.43
635.92	16082.7
636.114	16432.9
636.308	16148.23
636.501	16090.89
636.695	15873.81
636.889	15933.2
637.083	15834.89
637.276	15734.54
637.47	15728.4
637.664	15413.01
637.857	15365.91
638.051	15251.22
638.244	15261.46
638.438	15245.08
638.632	15210.26
638.825	14870.3
639.019	14933.79
639.212	15003.42
639.406	14884.64
639.599	14753.57
639.793	14898.97
639.986	14454.56
640.18	14612.26
640.373	14614.3
640.567	14442.28
640.76	14507.81
640.954	14237.48
641.147	13940.52
641.34	13788.97
641.534	13946.67
641.727	13967.15
641.92	13866.8
642.114	13760.3
642.307	13567.79
642.5	13571.89
642.694	13258.55
642.887	13414.2
643.08	13647.66
643.273	13473.59
643.467	13164.34
643.66	13006.65
643.853	13096.76
644.046	12900.16
644.239	12912.44
644.432	13049.66
644.626	12875.58
644.819	12578.62
645.012	12666.69
645.205	12906.3
645.398	12642.11
645.591	12486.47
645.784	12519.23
645.977	12248.9
646.17	12392.26
646.363	12035.91
646.556	12240.71
646.749	12068.68
646.942	12193.61
647.135	11773.77
647.328	12042.06
647.521	11566.93
647.714	11476.82
647.907	11898.7
648.099	11636.56
648.292	11773.77
648.485	11618.13
648.678	11333.46
648.871	11339.6
649.064	11423.57
649.256	11433.81
649.449	11265.88
649.642	11216.72
649.835	11173.72
650.027	11099.99
650.22	10823.51
650.413	10798.94
650.605	10735.45
650.798	10807.13
650.991	10663.77
651.183	10766.17
651.376	10405.73
651.568	10676.06
651.761	10549.09
651.954	10381.15
652.146	10579.81
652.339	10430.3
652.531	10413.92
652.724	10409.83
652.916	10155.88
653.109	10422.11
653.301	10129.25
653.494	10166.12
653.686	9801.58
653.879	10159.97
654.071	9981.8
654.263	9727.85
654.456	9985.9
654.648	9770.86
654.84	9543.53
655.033	9672.56
655.225	9572.21
655.417	9643.88
655.61	9557.87
655.802	9480.05
655.994	9357.17
656.186	9385.84
656.379	9234.29
656.571	9256.82
656.763	9369.46
656.955	9193.33
657.148	9291.63
657.34	9133.94
657.532	9015.16
657.724	9045.88
657.916	8865.66
658.108	8984.44
658.3	8859.51
658.492	8877.94
658.684	8687.48
658.876	8826.75
659.068	8779.64
659.26	8423.3
659.452	8572.8
659.644	8531.84
659.836	8464.25
660.028	8519.55
660.22	8306.56
660.412	8337.28
660.604	8425.34
660.796	8228.74
660.988	8343.42
661.18	8224.64
661.372	8124.29
661.563	8116.1
661.755	8107.91
661.947	8064.9
662.139	8062.85
662.331	7972.74
662.522	7946.12
662.714	7884.68
662.906	7837.58
663.097	7696.27
663.289	7546.76
663.481	7544.72
663.673	7624.59
663.864	7442.32
664.056	7612.3
664.247	7507.85
664.439	7454.61
664.631	7382.93
664.822	7286.67
665.014	7483.28
665.205	7397.26
665.397	7284.62
665.588	7354.26
665.78	7141.27
665.971	7235.47
666.163	7180.18
666.354	7196.56
666.546	7139.22
666.737	7176.08
666.929	7178.13
667.12	7030.68
667.311	7081.88
667.503	6735.77
667.694	6901.65
667.885	6907.8
668.077	6809.5
668.268	6840.22
668.459	6877.08
668.651	6862.74
668.842	6698.91
669.033	6729.63
669.224	6655.9
669.416	6580.12
669.607	6678.43
669.798	6539.16
669.989	6664.09
670.18	6514.59
670.371	6541.21
670.563	6414.24
670.754	6514.59
670.945	6420.38
671.136	6412.19
671.327	6481.82
671.518	6264.74
671.709	6227.87
671.9	6219.68
672.091	6336.42
672.282	6287.26
672.473	6199.2
672.664	6293.41
672.855	6125.47
673.046	6055.84
673.237	6191.01
673.428	6113.19
673.619	6066.08
673.809	6174.63
674	6053.8
674.191	6055.84
674.382	6027.17
674.573	6123.43
674.764	5990.31
674.954	5896.1
675.145	5824.42
675.336	5957.54
675.527	5863.33
675.717	5762.98
675.908	5722.02
676.099	5699.5
676.289	5801.9
676.48	5859.24
676.671	5558.19
676.861	5728.17
677.052	5597.1
677.243	5773.22
677.433	5623.72
677.624	5638.06
677.814	5726.12
678.005	5656.49
678.195	5595.05
678.386	5500.84
678.576	5459.88
678.767	5543.85
678.957	5509.04
679.148	5560.24
679.338	5480.36
679.529	5447.6
679.719	5408.69
679.909	5476.27
680.1	5441.45
680.29	5511.08
680.481	5377.97
680.671	5425.07
680.861	5269.42
681.052	5371.82
681.242	5425.07
681.432	5339.05
681.622	5277.62
681.813	5322.67
682.003	5255.09
682.193	5181.36
682.383	5306.29
682.573	5463.98
682.764	5148.59
682.954	5181.36
683.144	5105.59
683.334	5177.26
683.524	5277.62
683.714	5146.55
683.904	4988.85
684.094	5058.48
684.284	4945.84
684.474	5244.85
684.664	5017.52
684.854	5273.52
685.044	4941.75
685.234	5033.91
685.424	5027.76
685.614	5029.81
685.804	4876.21
685.994	4956.08
686.184	4982.71
686.374	4929.46
686.564	4833.21
686.753	4925.36
686.943	4755.38
687.133	4882.36
687.323	4827.06
687.513	4771.77
687.702	4753.34
687.892	4753.34
688.082	4698.04
688.272	4759.48
688.461	4818.87
688.651	4685.75
688.841	4814.77
689.03	4681.66
689.22	4558.78
689.41	4513.72
689.599	4571.07
689.789	4523.96
689.979	4462.52
690.168	4691.9
690.358	4442.04
690.547	4468.67
690.737	4376.51
690.926	4497.34
691.116	4472.76
691.305	4384.7
691.495	4378.56
691.684	4401.08
691.874	4200.38
692.063	4325.31
692.252	4216.77
692.442	4378.56
692.631	4159.42
692.82	4181.95
693.01	4173.76
693.199	4212.67
693.388	4065.22
693.578	4249.54
693.767	4214.72
693.956	4087.75
694.146	4052.93
694.335	4067.27
694.524	4155.33
694.713	4110.27
694.902	4048.83
695.092	4032.45
695.281	4065.22
695.47	4059.07
695.659	4026.31
695.848	3948.48
696.037	3993.54
696.226	3960.77
696.415	3860.42
696.604	4118.47
696.793	3946.44
696.982	3909.57
697.171	3860.42
697.36	3854.28
697.549	3815.37
697.738	3747.78
697.927	3868.61
698.116	3844.04
698.305	3944.39
698.494	3885
698.683	3708.87
698.872	3786.69
699.061	3776.45
699.25	3735.49
699.438	3829.7
699.627	3770.31
699.816	3848.13
700.005	3545.03
700.193	3608.52
700.382	3674.06
700.571	3631.05
700.76	3565.51
700.948	3717.06
701.137	3680.2
701.326	3704.78
701.514	3610.57
701.703	3626.95
701.892	3608.52
702.08	3725.26
702.269	3581.9
702.457	3592.14
702.646	3536.84
702.834	3549.13
703.023	3600.33
703.212	3563.47
703.4	3588.04
703.589	3452.88
703.777	3651.53
703.965	3385.29
704.154	3530.7
704.342	3467.21
704.531	3405.77
704.719	3389.39
704.907	3581.9
705.096	3389.39
705.284	3399.63
705.472	3450.83
705.661	3373
705.849	3434.44
706.037	3518.41
706.226	3395.53
706.414	3395.53
706.602	3336.14
706.79	3430.35
706.979	3274.7
707.167	3567.56
707.355	3413.96
707.543	3452.88
707.731	3510.22
707.919	3325.9
708.107	3248.08
708.296	3248.08
708.484	3311.57
708.672	3272.65
708.86	3254.22
709.048	3272.65
709.236	3198.93
709.424	3213.26
709.612	3172.3
709.8	3276.75
709.988	3317.71
710.176	3270.61
710.364	3241.93
710.551	3227.6
710.739	3151.82
710.927	3082.19
711.115	3106.77
711.303	3225.55
711.491	3143.63
711.679	3090.38
711.866	3127.25
712.054	3151.82
712.242	3076.05
712.43	3188.69
712.617	2967.51
712.805	3078.1
712.993	3106.77
713.181	2975.7
713.368	3211.21
713.556	3145.68
713.744	3053.52
713.931	3198.93
714.119	2947.03
714.306	3131.34
714.494	3117.01
714.682	3012.56
714.869	3002.32
715.057	2910.16
715.244	2906.07
715.432	3043.28
715.619	3090.38
715.807	2887.64
715.994	2836.44
716.182	2930.64
716.369	3041.23
716.556	2977.75
716.744	2877.4
716.931	2887.64
717.119	2959.31
717.306	2983.89
717.493	2983.89
717.681	2805.72
717.868	2936.79
718.055	2938.84
718.242	2920.4
718.43	2965.46
718.617	2969.55
718.804	2910.16
718.991	2861.01
719.179	2895.83
719.366	2713.56
719.553	2824.15
719.74	2854.87
719.927	2854.87
720.114	2811.86
720.301	2701.27
720.488	2828.24
720.676	2918.36
720.863	2789.33
721.05	2750.42
721.237	2803.67
721.424	2740.18
721.611	2764.76
721.798	2641.88
721.985	2697.17
722.172	2678.74
722.358	2658.26
722.545	2803.67
722.732	2807.77
722.919	2746.33
723.106	2680.79
723.293	2617.3
723.48	2754.52
723.667	2668.5
723.853	2701.27
724.04	2873.3
724.227	2707.41
724.414	2656.22
724.6	2625.5
724.787	2682.84
724.974	2584.54
725.161	2643.93
725.347	2596.82
725.534	2609.11
725.72	2668.5
725.907	2738.13
726.094	2666.46
726.28	2492.38
726.467	2529.24
726.653	2652.12
726.84	2551.77
727.027	2584.54
727.213	2555.86
727.4	2676.7
727.586	2496.47
727.773	2568.15
727.959	2412.51
728.145	2617.3
728.332	2592.73
728.518	2506.71
728.705	2617.3
728.891	2566.1
729.077	2494.43
729.264	2471.9
729.45	2516.95
729.636	2615.26
729.823	2533.34
730.009	2516.95
730.195	2514.91
730.382	2340.83
730.568	2410.46
730.754	2420.7
730.94	2467.8
731.126	2451.42
731.313	2463.71
731.499	2422.75
731.685	2430.94
731.871	2576.34
732.057	2375.64
732.243	2375.64
732.429	2459.61
732.615	2435.03
732.801	2514.91
732.987	2377.69
733.173	2398.17
733.359	2291.68
733.545	2346.97
733.731	2396.12
733.917	2353.12
734.103	2437.08
734.289	2453.47
734.475	2394.08
734.661	2371.55
734.847	2310.11
735.033	2303.96
735.219	2355.16
735.404	2414.56
735.59	2271.2
735.776	2346.97
735.962	2242.53
736.148	2351.07
736.333	2285.53
736.519	2369.5
736.705	2254.81
736.89	2375.64
737.076	2297.82
737.262	2263.01
737.447	2217.95
737.633	2209.76
737.819	2353.12
738.004	2314.2
738.19	2185.18
738.375	2224.09
738.561	2211.81
738.747	2346.97
738.932	2244.57
739.118	2265.05
739.303	2191.33
739.489	2248.67
739.674	2275.29
739.859	2336.73
740.045	2107.36
740.23	2277.34
740.416	2211.81
740.601	2215.9
740.786	2119.65
740.972	2068.45
741.157	2113.5
741.342	2099.17
741.528	2131.94
741.713	2222.05
741.898	2131.94
742.084	1988.58
742.269	2002.91
742.454	2107.36
742.639	2129.89
742.824	2050.02
743.01	2050.02
743.195	2052.06
743.38	2070.5
743.565	1980.39
743.75	2056.16
743.935	1943.52
744.12	2060.26
744.305	1976.29
744.49	1914.85
744.675	1931.23
744.86	1968.1
745.045	2043.87
745.23	1957.86
745.415	1959.91
745.6	1994.72
745.785	1925.09
745.97	1886.18
746.155	1931.23
746.34	1896.42
746.525	1857.51
746.71	1927.14
746.895	1892.32
747.079	1927.14
747.264	1804.26
747.449	1902.56
747.634	1910.75
747.819	1861.6
748.003	1869.8
748.188	1802.21
748.373	1849.32
748.557	1847.27
748.742	1759.21
748.927	1767.4
749.111	1671.14
749.296	1693.67
749.481	1640.42
749.665	1751.01
749.85	1611.75
750.034	1648.61
750.219	1697.77
750.404	1665
750.588	1603.56
750.773	1593.32
750.957	1560.55
751.141	1439.72
751.326	1658.85
751.51	1665
751.695	1509.35
751.879	1705.96
752.064	1695.72
752.248	1548.26
752.432	1490.92
752.617	1601.51
752.801	1626.09
752.985	1447.91
753.17	1468.39
753.354	1492.97
753.538	1441.77
753.722	1392.62
753.907	1411.05
754.091	1353.71
754.275	1392.62
754.459	1447.91
754.643	1341.42
754.828	1271.79
755.012	1359.85
755.196	1316.84
755.38	1345.52
755.564	1417.19
755.748	1322.99
755.932	1333.23
756.116	1337.32
756.3	1249.26
756.484	1345.52
756.668	1353.71
756.852	1282.03
757.036	1200.11
757.22	1318.89
757.404	1185.77
757.588	1198.06
757.772	1263.6
757.956	1181.68
758.14	1316.84
758.323	1206.25
758.507	1226.73
758.691	1148.91
758.875	1214.45
759.059	1271.79
759.242	1105.9
759.426	1198.06
759.61	1234.93
759.794	1054.7
759.977	1134.57
760.161	1230.83
760.345	1163.25
760.528	1118.19
760.712	1040.37
760.895	1099.76
761.079	1071.09
761.263	1107.95
761.446	1064.94
761.63	1099.76
761.813	1021.94
761.997	1028.08
762.18	1054.7
762.364	1091.57
762.547	931.83
762.731	1140.72
762.914	1038.32
763.098	964.59
763.281	944.11
763.464	944.11
763.648	927.73
763.831	929.78
764.015	1073.14
764.198	927.73
764.381	964.59
764.564	993.26
764.748	937.97
764.931	1056.75
765.114	944.11
765.297	987.12
765.481	1034.22
765.664	964.59
765.847	921.59
766.03	1017.84
766.213	890.87
766.397	886.77
766.58	921.59
766.763	995.31
766.946	882.67
767.129	995.31
767.312	862.19
767.495	997.36
767.678	894.96
767.861	940.02
768.044	905.2
768.227	878.58
768.41	849.91
768.593	897.01
768.776	935.92
768.959	890.87
769.142	937.97
769.324	825.33
769.507	845.81
769.69	899.06
769.873	823.28
770.056	960.5
770.239	829.43
770.421	894.96
770.604	915.44
770.787	831.48
770.97	804.85
771.152	757.75
771.335	817.14
771.518	761.84
771.7	790.52
771.883	757.75
772.066	780.28
772.248	839.67
772.431	790.52
772.613	772.08
772.796	774.13
772.978	837.62
773.161	811
773.343	788.47
773.526	741.36
773.708	720.88
773.891	727.03
774.073	706.55
774.256	722.93
774.438	821.24
774.621	706.55
774.803	681.97
774.985	669.69
775.168	698.36
775.35	698.36
775.532	743.41
775.715	700.41
775.897	718.84
776.079	735.22
776.261	686.07
776.444	626.68
776.626	643.06
776.808	722.93
776.99	575.48
777.173	708.6
777.355	632.82
777.537	673.78
777.719	649.21
777.901	606.2
778.083	641.01
778.265	626.68
778.447	559.1
778.629	569.34
778.811	665.59
778.993	641.01
779.175	561.14
779.357	589.81
779.539	516.09
779.721	555
779.903	567.29
780.085	565.24
780.267	579.58
780.449	493.56
780.631	579.58
780.812	620.53
780.994	575.48
781.176	557.05
781.358	514.04
781.54	505.85
781.721	577.53
781.903	520.18
782.085	468.98
782.267	559.1
782.448	505.85
782.63	452.6
782.812	509.94
782.993	485.37
783.175	514.04
783.357	399.35
783.538	518.14
783.72	534.52
783.901	497.66
784.083	479.22
784.264	411.64
784.446	452.6
784.627	370.68
784.809	493.56
784.99	446.46
785.172	440.31
785.353	417.79
785.535	462.84
785.716	399.35
785.897	428.03
786.079	458.74
786.26	395.26
786.441	454.65
786.623	411.64
786.804	413.69
786.985	440.31
787.167	428.03
787.348	403.45
787.529	344.06
787.71	479.22
787.891	493.56
788.073	423.93
788.254	370.68
788.435	456.7
788.616	391.16
788.797	335.87
788.978	411.64
789.159	368.63
789.34	428.03
789.522	393.21
789.703	421.88
789.884	389.11
790.065	389.11
790.246	370.68
790.427	305.15
790.607	356.35
790.788	354.3
790.969	299
791.15	339.96
791.331	346.11
791.512	333.82
791.693	313.34
791.874	346.11
792.054	346.11
792.235	354.3
792.416	282.62
792.597	299
792.778	321.53
792.958	305.15
793.139	260.09
793.32	323.58
793.5	305.15
793.681	393.21
793.862	272.38
794.042	296.96
794.223	241.66
794.404	253.95
794.584	233.47
794.765	333.82
794.945	329.72
795.126	313.34
795.306	299
795.487	299
795.667	288.76
795.848	256
796.028	258.04
796.209	307.2
796.389	325.63
796.57	327.67
796.75	329.72
796.93	274.43
797.111	292.86
797.291	264.19
797.471	264.19
797.652	135.17
797.832	264.19
798.012	266.24
798.192	210.94
798.373	200.7
798.553	200.7
798.733	215.04
798.913	305.15
799.093	204.8
799.274	258.04
799.454	231.42
799.634	219.13
799.814	210.94
799.994	247.8
800.174	278.52
800.354	280.57
800.534	192.51
800.714	198.65
800.894	210.94
801.074	198.65
801.254	280.57
801.434	264.19
801.614	231.42
801.794	268.28
801.974	677.88
802.154	198.65
802.334	223.23
802.514	208.89
802.693	231.42
802.873	233.47
803.053	165.89
803.233	292.86
803.413	184.32
803.592	143.36
803.772	258.04
803.952	247.8
804.131	190.46
804.311	231.42
804.491	243.71
804.67	231.42
804.85	215.04
805.03	178.17
805.209	215.04
805.389	206.84
805.568	190.46
805.748	186.37
805.928	215.04
806.107	174.08
806.287	196.6
806.466	280.57
806.646	149.5
806.825	200.7
807.004	256
807.184	178.17
807.363	270.33
807.543	212.99
807.722	102.4
807.901	163.84
808.081	200.7
808.26	120.83
808.439	118.78
808.619	206.84
808.798	200.7
808.977	200.7
809.156	204.8
809.336	167.93
809.515	215.04
809.694	92.16
809.873	149.5
810.052	149.5
810.231	147.45
810.411	145.41
810.59	223.23
810.769	198.65
810.948	266.24
811.127	161.79
811.306	114.69
811.485	243.71
811.664	143.36
811.843	143.36
812.022	178.17
812.201	145.41
812.38	135.17
812.559	200.7
812.737	223.23
812.916	135.17
813.095	98.3
813.274	141.31
813.453	151.55
813.632	59.39
813.811	169.98
813.989	102.4
814.168	143.36
814.347	94.21
814.526	133.12
814.704	102.4
814.883	116.73
815.062	174.08
815.24	200.7
815.419	110.59
815.598	186.37
815.776	92.16
815.955	202.75
816.133	116.73
816.312	176.13
816.49	108.54
816.669	90.11
816.847	81.92
817.026	149.5
817.204	79.87
817.383	157.69
817.561	157.69
817.74	161.79
817.918	92.16
818.097	141.31
818.275	133.12
818.453	135.17
818.632	137.21
818.81	108.54
818.988	149.5
819.167	79.87
819.345	116.73
819.523	118.78
819.701	124.93
819.879	96.25
820.058	77.82
820.236	112.64
820.414	157.69
820.592	129.02
820.77	63.49
820.948	79.87
821.127	88.06
821.305	83.97
821.483	110.59
821.661	145.41
821.839	108.54
822.017	83.97
822.195	49.15
822.373	141.31
822.551	92.16
822.729	165.89
822.907	102.4
823.085	67.58
823.262	22.53
823.44	98.3
823.618	47.1
823.796	129.02
823.974	94.21
824.152	81.92
824.329	167.93
824.507	133.12
824.685	40.96
824.863	141.31
825.04	86.01
825.218	131.07
825.396	59.39
825.574	112.64
825.751	133.12
825.929	73.73
826.107	57.34
826.284	129.02
826.462	96.25
826.639	135.17
826.817	67.58
826.994	126.97
827.172	104.45
827.349	75.77
827.527	92.16
827.704	106.49
827.882	110.59
828.059	53.25
828.237	157.69
828.414	83.97
828.591	92.16
828.769	98.3
828.946	63.49
829.124	116.73
829.301	100.35
829.478	104.45
829.655	83.97
829.833	108.54
830.01	22.53
830.187	81.92
830.364	65.53
830.542	67.58
830.719	133.12
830.896	157.69
831.073	102.4
831.25	77.82
831.427	124.93
831.604	88.06
831.782	51.2
831.959	139.26
832.136	59.39
832.313	79.87
832.49	141.31
832.667	108.54
832.844	14.34
833.021	133.12
833.198	83.97
833.374	59.39
833.551	51.2
833.728	92.16
833.905	114.69
834.082	71.68
834.259	63.49
834.436	-18.43
834.612	67.58
834.789	4.1
834.966	73.73
835.143	141.31
835.319	67.58
835.496	124.93
835.673	67.58
835.85	102.4
836.026	18.43
836.203	83.97
836.38	71.68
836.556	22.53
836.733	12.29
836.909	36.86
837.086	30.72
837.262	63.49
837.439	26.62
837.616	14.34
837.792	10.24
837.968	88.06
838.145	12.29
838.321	26.62
838.498	94.21
838.674	92.16
838.851	65.53
839.027	-0
839.203	100.35
839.38	73.73
839.556	83.97
839.732	53.25
839.909	120.83
840.085	28.67
840.261	59.39
840.437	20.48
840.614	10.24
840.79	75.77
840.966	45.06
841.142	69.63
841.318	22.53
841.494	6.14
841.671	43.01
841.847	12.29
842.023	79.87
842.199	10.24
842.375	88.06
842.551	34.82
842.727	-12.29
842.903	28.67
843.079	63.49
843.255	114.69
843.431	-4.1
843.607	71.68
843.783	-55.3
843.959	18.43
844.134	28.67
844.31	145.41
844.486	59.39
844.662	51.2
844.838	79.87
845.013	77.82
845.189	34.82
845.365	51.2
845.541	24.58
845.716	22.53
845.892	79.87
846.068	40.96
846.244	4.1
846.419	69.63
846.595	-10.24
846.77	71.68
846.946	40.96
847.122	67.58
847.297	47.1
847.473	77.82
847.648	-14.34
847.824	67.58
847.999	12.29
848.175	55.3
848.35	-2.05
848.526	43.01
848.701	59.39
848.876	2.05
849.052	102.4
849.227	24.58
849.403	10.24
849.578	-6.14
849.753	-6.14
849.929	34.82
850.104	-18.43
850.279	-20.48
850.454	34.82
850.63	143.36
850.805	-2.05
850.98	51.2
851.155	28.67
851.33	100.35
851.505	-2.05
851.681	83.97
851.856	-14.34
852.031	30.72
852.206	49.15
852.381	100.35
852.556	47.1
852.731	-12.29
852.906	86.01
853.081	-14.34
853.256	102.4
853.431	4.1
853.606	57.34
853.781	32.77
853.956	-67.58
854.131	20.48
854.305	22.53
854.48	-22.53
854.655	-32.77
854.83	34.82
855.005	32.77
855.18	83.97
855.354	34.82
855.529	81.92
855.704	18.43
855.879	61.44
856.053	92.16
856.228	43.01
856.403	-65.54
856.577	-43.01
856.752	8.19
856.926	2.05
857.101	-18.43
857.276	61.44
857.45	67.58
857.625	98.3
857.799	51.2
857.974	-4.1
858.148	-6.14
858.323	6.14
858.497	47.1
858.672	26.62
858.846	6.14
859.02	6.14
859.195	47.1
859.369	-0
859.543	24.58
859.718	14.34
859.892	22.53
860.066	18.43
860.241	18.43
860.415	26.62
860.589	38.91
860.763	8.19
860.938	-59.39
861.112	10.24
861.286	51.2
861.46	38.91
861.634	26.62
861.808	88.06
861.982	-8.19
862.157	-81.92
862.331	6.14
862.505	-24.58
862.679	20.48
862.853	26.62
863.027	-20.48
863.201	59.39
863.375	-2.05
863.549	6.14
863.722	-6.14
863.896	2.05
864.07	-6.14
864.244	26.62
864.418	63.49
864.592	14.34
864.766	63.49
864.939	-22.53
865.113	59.39
865.287	22.53
865.461	-28.67
865.634	-30.72
865.808	69.63
865.982	26.62
866.156	67.58
866.329	-28.67
866.503	-28.67
866.676	10.24
866.85	-30.72
867.024	-45.06
867.197	26.62
867.371	-6.14
867.544	59.39
867.718	-53.25
867.891	34.82
868.065	-4.1
868.238	26.62
868.412	-4.1
868.585	26.62
868.759	18.43
868.932	-2.05
869.105	51.2
869.279	2.05
869.452	26.62
869.625	-18.43
869.799	30.72
869.972	30.72
870.145	-24.58
870.319	90.11
870.492	-28.67
870.665	2.05
870.838	2.05
871.011	-79.87
871.185	-47.1
871.358	-51.2
871.531	51.2
871.704	-43.01
871.877	-4.1
872.05	-20.48
872.223	-26.62
872.396	32.77
872.569	88.06
872.742	-75.77
872.915	26.62
873.088	-71.68
873.261	22.53
873.434	126.97
873.607	-81.92
873.78	12.29
873.953	-4.1
874.126	88.06
874.299	10.24
874.471	-0
874.644	57.34
874.817	-6.14
874.99	145.41
875.163	18.43
875.335	22.53
875.508	20.48
875.681	14.34
875.853	-22.53
876.026	63.49
876.199	10.24
876.371	30.72
876.544	2.05
876.717	-81.92
876.889	14.34
877.062	69.63
877.234	34.82
877.407	-61.44
877.579	40.96
877.752	53.25
877.924	120.83
878.097	79.87
878.269	-45.06
878.442	20.48
878.614	38.91
878.786	2.05
878.959	-67.58
879.131	10.24
879.303	-16.38
879.476	34.82
879.648	-12.29
879.82	-6.14
879.993	-40.96
880.165	61.44
880.337	20.48
880.509	-38.91
880.681	-40.96
880.854	16.38
881.026	-20.48
881.198	20.48
881.37	20.48
881.542	12.29
881.714	36.86
881.886	36.86
882.058	-59.39
882.23	2.05
882.402	-2.05
882.574	16.38
882.746	-30.72
882.918	18.43
883.09	47.1
883.262	-32.77
883.434	-55.3
883.606	-55.3
883.778	-6.14
883.95	24.58
884.122	-30.72
884.293	67.58
884.465	-8.19
884.637	-8.19
884.809	57.34
884.98	-8.19
885.152	38.91
885.324	-30.72
885.496	-6.14
885.667	6.14
885.839	6.14
886.011	67.58
886.182	10.24
886.354	30.72
886.525	32.77
886.697	18.43
886.869	-22.53
887.04	-22.53
887.212	-12.29
887.383	51.2
887.555	22.53
887.726	-65.54
887.897	-83.97
888.069	145.41
888.24	59.39
888.412	43.01
888.583	-10.24
888.754	16.38
888.926	-14.34
889.097	-34.82
889.268	-88.06
889.44	-30.72
889.611	2.05
889.782	2.05
889.953	-71.68
890.125	59.39
890.296	-8.19
890.467	94.21
890.638	-28.67
890.809	51.2
890.98	-14.34
891.151	22.53
891.323	-6.14
891.494	34.82
891.665	18.43
891.836	14.34
892.007	59.39
892.178	-67.58
892.349	-40.96
892.52	-30.72
892.691	14.34
892.862	-30.72
893.032	-12.29
893.203	-16.38
893.374	-18.43
893.545	-10.24
893.716	8.19
893.887	51.2
894.057	14.34
894.228	36.86
894.399	18.43
894.57	-36.86
894.74	-2.05
894.911	59.39
895.082	30.72
895.253	18.43
895.423	2.05
895.594	-22.53
895.764	2.05
895.935	-61.44
896.106	34.82
896.276	-45.06
896.447	12.29
896.617	47.1
896.788	18.43
896.958	-22.53
897.129	-40.96
897.299	-47.1
897.47	-8.19
897.64	18.43
897.81	4.1
897.981	30.72
898.151	10.24
898.322	-22.53
898.492	-6.14
898.662	-53.25
898.832	18.43
899.003	-20.48
899.173	-12.29
899.343	-0
899.513	-36.86
