Data from USB4F104151__2__14-15-50-076.txt Node

Date: Thu Mar 13 14:15:50 EDT 2025
User: louis
Spectrometer: USB4F10415
Trigger mode: 4
Integration Time (sec): 2.000000E-2
Scans to average: 1
Electric dark correction enabled: true
Nonlinearity correction enabled: false
Boxcar width: 0
XAxis mode: Wavelengths
Number of Pixels in Spectrum: 3648
>>>>>Begin Spectral Data<<<<<
178.204	-79.53
178.424	-79.53
178.644	-79.53
178.864	-91.82
179.084	-122.54
179.304	-7.85
179.524	-13.99
179.744	82.26
179.964	-34.47
180.184	16.73
180.404	-1.71
180.624	22.87
180.844	-22.19
181.064	-34.47
181.283	-54.95
181.503	-18.09
181.723	65.88
181.943	-118.44
182.163	65.88
182.383	-34.47
182.602	82.26
182.822	39.25
183.042	-1.71
183.262	39.25
183.482	-7.85
183.701	-9.9
183.921	-34.47
184.141	-16.04
184.361	14.68
184.58	45.4
184.8	-1.71
185.02	31.06
185.239	53.59
185.459	-1.71
185.679	47.44
185.898	-40.62
186.118	2.39
186.338	26.96
186.557	65.88
186.777	-13.99
186.997	51.54
187.216	-1.71
187.436	39.25
187.655	22.87
187.875	22.87
188.095	26.96
188.314	96.6
188.534	35.16
188.753	-48.81
188.973	43.35
189.192	74.07
189.412	45.4
189.631	63.83
189.851	-9.9
190.07	72.02
190.29	39.25
190.509	-34.47
190.729	47.44
190.948	74.07
191.168	121.17
191.387	72.02
191.607	39.25
191.826	74.07
192.045	-34.47
192.265	-1.71
192.484	-22.19
192.704	82.26
192.923	16.73
193.142	63.83
193.362	6.49
193.581	57.68
193.8	51.54
194.02	22.87
194.239	35.16
194.458	51.54
194.678	61.78
194.897	100.69
195.116	41.3
195.335	-1.71
195.555	12.63
195.774	24.92
195.993	41.3
196.212	65.88
196.432	0.34
196.651	37.2
196.87	26.96
197.089	67.92
197.308	33.11
197.528	-32.43
197.747	6.49
197.966	63.83
198.185	65.88
198.404	-30.38
198.623	51.54
198.842	-1.71
199.062	12.63
199.281	6.49
199.5	-26.28
199.719	35.16
199.938	51.54
200.157	74.07
200.376	14.68
200.595	63.83
200.814	88.4
201.033	47.44
201.252	26.96
201.471	31.06
201.69	47.44
201.909	49.49
202.128	18.77
202.347	8.53
202.566	-3.75
202.785	24.92
203.004	-36.52
203.223	72.02
203.442	-34.47
203.661	-20.14
203.879	33.11
204.098	49.49
204.317	6.49
204.536	8.53
204.755	12.63
204.974	-24.23
205.193	22.87
205.411	47.44
205.63	26.96
205.849	96.6
206.068	92.5
206.287	18.77
206.505	49.49
206.724	-75.43
206.943	55.64
207.162	47.44
207.381	-24.23
207.599	-1.71
207.818	-18.09
208.037	0.34
208.255	2.39
208.474	39.25
208.693	45.4
208.911	63.83
209.13	31.06
209.349	67.92
209.567	41.3
209.786	18.77
210.005	14.68
210.223	-9.9
210.442	-7.85
210.661	43.35
210.879	10.58
211.098	55.64
211.316	72.02
211.535	22.87
211.753	74.07
211.972	33.11
212.191	-11.95
212.409	-5.8
212.628	22.87
212.846	18.77
213.065	29.01
213.283	49.49
213.502	-18.09
213.72	51.54
213.938	22.87
214.157	-24.23
214.375	16.73
214.594	41.3
214.812	-24.23
215.031	31.06
215.249	22.87
215.467	-79.53
215.686	-7.85
215.904	47.44
216.122	0.34
216.341	4.44
216.559	10.58
216.778	82.26
216.996	110.93
217.214	31.06
217.432	26.96
217.651	76.12
217.869	-1.71
218.087	0.34
218.306	6.49
218.524	94.55
218.742	-24.23
218.96	12.63
219.179	-13.99
219.397	47.44
219.615	43.35
219.833	22.87
220.051	-1.71
220.27	12.63
220.488	53.59
220.706	31.06
220.924	37.2
221.142	12.63
221.36	6.49
221.578	41.3
221.796	74.07
222.015	33.11
222.233	-18.09
222.451	104.79
222.669	-1.71
222.887	63.83
223.105	-57
223.323	135.51
223.541	26.96
223.759	55.64
223.977	-16.04
224.195	45.4
224.413	63.83
224.631	53.59
224.849	-7.85
225.067	100.69
225.285	57.68
225.503	-22.19
225.721	-1.71
225.939	82.26
226.157	-13.99
226.375	45.4
226.592	-34.47
226.81	98.64
227.028	67.92
227.246	59.73
227.464	55.64
227.682	22.87
227.9	84.31
228.117	-34.47
228.335	45.4
228.553	16.73
228.771	-50.86
228.989	65.88
229.206	31.06
229.424	14.68
229.642	-22.19
229.86	63.83
230.077	24.92
230.295	31.06
230.513	-9.9
230.731	29.01
230.948	74.07
231.166	96.6
231.384	0.34
231.601	55.64
231.819	-1.71
232.037	18.77
232.254	22.87
232.472	90.45
232.689	12.63
232.907	49.49
233.125	14.68
233.342	41.3
233.56	33.11
233.777	12.63
233.995	26.96
234.213	59.73
234.43	39.25
234.648	37.2
234.865	-38.57
235.083	37.2
235.3	82.26
235.518	69.97
235.735	104.79
235.953	112.98
236.17	-18.09
236.388	47.44
236.605	125.27
236.822	8.53
237.04	31.06
237.257	57.68
237.475	10.58
237.692	55.64
237.909	33.11
238.127	39.25
238.344	12.63
238.562	-5.8
238.779	53.59
238.996	-46.76
239.214	22.87
239.431	47.44
239.648	61.78
239.865	-1.71
240.083	65.88
240.3	110.93
240.517	10.58
240.735	47.44
240.952	102.74
241.169	14.68
241.386	26.96
241.603	-24.23
241.821	-1.71
242.038	20.82
242.255	72.02
242.472	-26.28
242.689	51.54
242.907	-5.8
243.124	137.56
243.341	14.68
243.558	18.77
243.775	63.83
243.992	4.44
244.209	82.26
244.426	49.49
244.643	57.68
244.86	-42.67
245.078	14.68
245.295	-7.85
245.512	18.77
245.729	-59.05
245.946	-9.9
246.163	55.64
246.38	24.92
246.597	-26.28
246.814	16.73
247.031	98.64
247.248	6.49
247.464	-18.09
247.681	-7.85
247.898	51.54
248.115	104.79
248.332	37.2
248.549	57.68
248.766	82.26
248.983	35.16
249.2	-18.09
249.417	33.11
249.633	-65.19
249.85	84.31
250.067	-24.23
250.284	-40.62
250.501	-11.95
250.717	16.73
250.934	-30.38
251.151	31.06
251.368	55.64
251.585	100.69
251.801	22.87
252.018	31.06
252.235	-7.85
252.451	24.92
252.668	-100.01
252.885	41.3
253.102	45.4
253.318	110.93
253.535	76.12
253.752	-3.75
253.968	-5.8
254.185	14.68
254.401	-5.8
254.618	16.73
254.835	41.3
255.051	96.6
255.268	-7.85
255.484	39.25
255.701	10.58
255.917	49.49
256.134	18.77
256.351	-1.71
256.567	88.4
256.784	0.34
257	33.11
257.217	-24.23
257.433	-42.67
257.65	-16.04
257.866	16.73
258.082	-7.85
258.299	31.06
258.515	39.25
258.732	-3.75
258.948	6.49
259.165	16.73
259.381	49.49
259.597	-16.04
259.814	-16.04
260.03	92.5
260.246	41.3
260.463	-3.75
260.679	90.45
260.895	35.16
261.112	57.68
261.328	14.68
261.544	-3.75
261.761	16.73
261.977	16.73
262.193	6.49
262.409	155.99
262.626	-54.95
262.842	39.25
263.058	-18.09
263.274	-13.99
263.49	35.16
263.707	0.34
263.923	-16.04
264.139	-48.81
264.355	14.68
264.571	33.11
264.787	26.96
265.004	57.68
265.22	82.26
265.436	67.92
265.652	-26.28
265.868	18.77
266.084	-34.47
266.3	39.25
266.516	-22.19
266.732	-5.8
266.948	14.68
267.164	33.11
267.38	-1.71
267.596	18.77
267.812	16.73
268.028	104.79
268.244	26.96
268.46	31.06
268.676	31.06
268.892	49.49
269.108	-42.67
269.324	-11.95
269.54	31.06
269.756	39.25
269.972	6.49
270.188	65.88
270.403	-11.95
270.619	37.2
270.835	69.97
271.051	31.06
271.267	0.34
271.483	43.35
271.698	6.49
271.914	88.4
272.13	24.92
272.346	16.73
272.562	10.58
272.777	55.64
272.993	65.88
273.209	-3.75
273.425	41.3
273.64	-11.95
273.856	55.64
274.072	57.68
274.287	18.77
274.503	43.35
274.719	115.03
274.934	22.87
275.15	-34.47
275.366	35.16
275.581	18.77
275.797	45.4
276.012	72.02
276.228	-1.71
276.444	-26.28
276.659	121.17
276.875	-22.19
277.09	-42.67
277.306	0.34
277.521	53.59
277.737	-9.9
277.952	137.56
278.168	39.25
278.383	22.87
278.599	63.83
278.814	16.73
279.03	35.16
279.245	57.68
279.461	59.73
279.676	55.64
279.892	45.4
280.107	33.11
280.322	51.54
280.538	-5.8
280.753	43.35
280.969	88.4
281.184	43.35
281.399	26.96
281.615	55.64
281.83	43.35
282.045	78.16
282.26	-65.19
282.476	14.68
282.691	33.11
282.906	53.59
283.122	53.59
283.337	-79.53
283.552	115.03
283.767	49.49
283.983	106.84
284.198	6.49
284.413	-18.09
284.628	45.4
284.843	10.58
285.058	98.64
285.274	98.64
285.489	6.49
285.704	16.73
285.919	-3.75
286.134	61.78
286.349	-40.62
286.564	14.68
286.779	-34.47
286.995	96.6
287.21	41.3
287.425	76.12
287.64	-46.76
287.855	39.25
288.07	47.44
288.285	20.82
288.5	35.16
288.715	31.06
288.93	-16.04
289.145	-1.71
289.36	82.26
289.575	22.87
289.79	18.77
290.004	31.06
290.219	14.68
290.434	45.4
290.649	-13.99
290.864	0.34
291.079	26.96
291.294	6.49
291.509	-46.76
291.724	-7.85
291.938	-42.67
292.153	43.35
292.368	59.73
292.583	49.49
292.798	20.82
293.012	59.73
293.227	31.06
293.442	65.88
293.657	41.3
293.871	88.4
294.086	-24.23
294.301	0.34
294.516	78.16
294.73	31.06
294.945	35.16
295.16	61.78
295.374	74.07
295.589	-13.99
295.804	33.11
296.018	22.87
296.233	55.64
296.447	65.88
296.662	33.11
296.877	80.21
297.091	8.53
297.306	-42.67
297.52	2.39
297.735	18.77
297.949	14.68
298.164	72.02
298.378	16.73
298.593	-18.09
298.807	-13.99
299.022	86.36
299.236	78.16
299.451	47.44
299.665	35.16
299.88	22.87
300.094	45.4
300.309	22.87
300.523	31.06
300.737	29.01
300.952	82.26
301.166	0.34
301.381	22.87
301.595	-7.85
301.809	51.54
302.024	-1.71
302.238	6.49
302.452	6.49
302.667	-1.71
302.881	14.68
303.095	108.88
303.309	63.83
303.524	-1.71
303.738	55.64
303.952	65.88
304.166	39.25
304.381	-7.85
304.595	65.88
304.809	33.11
305.023	22.87
305.237	55.64
305.452	55.64
305.666	12.63
305.88	80.21
306.094	-26.28
306.308	37.2
306.522	61.78
306.736	108.88
306.95	45.4
307.164	14.68
307.379	37.2
307.593	41.3
307.807	63.83
308.021	22.87
308.235	-16.04
308.449	45.4
308.663	31.06
308.877	-5.8
309.091	47.44
309.305	-1.71
309.519	18.77
309.733	-34.47
309.947	-50.86
310.161	121.17
310.374	61.78
310.588	80.21
310.802	6.49
311.016	49.49
311.23	-44.71
311.444	12.63
311.658	-7.85
311.872	18.77
312.085	55.64
312.299	82.26
312.513	22.87
312.727	53.59
312.941	-22.19
313.154	35.16
313.368	67.92
313.582	-9.9
313.796	8.53
314.009	98.64
314.223	33.11
314.437	112.98
314.651	14.68
314.864	39.25
315.078	35.16
315.292	35.16
315.505	45.4
315.719	76.12
315.933	41.3
316.146	22.87
316.36	-26.28
316.573	65.88
316.787	29.01
317.001	82.26
317.214	-9.9
317.428	47.44
317.641	39.25
317.855	22.87
318.068	22.87
318.282	22.87
318.495	26.96
318.709	61.78
318.922	26.96
319.136	90.45
319.349	102.74
319.563	24.92
319.776	100.69
319.99	51.54
320.203	55.64
320.417	4.44
320.63	-1.71
320.843	76.12
321.057	51.54
321.27	29.01
321.483	35.16
321.697	102.74
321.91	39.25
322.124	65.88
322.337	67.92
322.55	24.92
322.763	-11.95
322.977	49.49
323.19	6.49
323.403	47.44
323.617	57.68
323.83	43.35
324.043	55.64
324.256	43.35
324.469	22.87
324.683	92.5
324.896	18.77
325.109	76.12
325.322	-18.09
325.535	137.56
325.748	72.02
325.962	-32.43
326.175	0.34
326.388	96.6
326.601	43.35
326.814	-18.09
327.027	45.4
327.24	49.49
327.453	-9.9
327.666	8.53
327.879	29.01
328.092	0.34
328.305	108.88
328.518	16.73
328.731	31.06
328.944	100.69
329.157	69.97
329.37	-44.71
329.583	72.02
329.796	76.12
330.009	39.25
330.222	74.07
330.435	115.03
330.648	-34.47
330.861	59.73
331.073	49.49
331.286	-5.8
331.499	74.07
331.712	-61.1
331.925	59.73
332.138	12.63
332.35	-22.19
332.563	43.35
332.776	90.45
332.989	26.96
333.202	12.63
333.414	-24.23
333.627	35.16
333.84	31.06
334.053	33.11
334.265	33.11
334.478	41.3
334.691	59.73
334.903	33.11
335.116	-13.99
335.329	39.25
335.541	6.49
335.754	121.17
335.966	-24.23
336.179	16.73
336.392	41.3
336.604	-20.14
336.817	59.73
337.029	-34.47
337.242	55.64
337.454	-3.75
337.667	16.73
337.88	4.44
338.092	0.34
338.305	115.03
338.517	6.49
338.729	22.87
338.942	69.97
339.154	47.44
339.367	45.4
339.579	123.22
339.792	-1.71
340.004	80.21
340.217	-26.28
340.429	-67.24
340.641	10.58
340.854	-16.04
341.066	43.35
341.278	112.98
341.491	55.64
341.703	33.11
341.915	24.92
342.128	104.79
342.34	92.5
342.552	57.68
342.764	4.44
342.977	16.73
343.189	41.3
343.401	6.49
343.613	-40.62
343.826	82.26
344.038	-9.9
344.25	33.11
344.462	6.49
344.674	31.06
344.886	22.87
345.099	78.16
345.311	92.5
345.523	0.34
345.735	41.3
345.947	-1.71
346.159	51.54
346.371	76.12
346.583	8.53
346.795	80.21
347.007	67.92
347.219	90.45
347.431	63.83
347.643	39.25
347.855	8.53
348.067	8.53
348.279	57.68
348.491	57.68
348.703	90.45
348.915	-50.86
349.127	31.06
349.339	18.77
349.551	31.06
349.763	63.83
349.975	26.96
350.187	49.49
350.399	74.07
350.61	16.73
350.822	94.55
351.034	45.4
351.246	18.77
351.458	45.4
351.669	-26.28
351.881	22.87
352.093	117.08
352.305	88.4
352.517	98.64
352.728	117.08
352.94	65.88
353.152	31.06
353.363	45.4
353.575	115.03
353.787	69.97
353.999	55.64
354.21	90.45
354.422	26.96
354.633	-13.99
354.845	112.98
355.057	72.02
355.268	108.88
355.48	8.53
355.692	88.4
355.903	65.88
356.115	55.64
356.326	-34.47
356.538	31.06
356.749	-1.71
356.961	65.88
357.172	16.73
357.384	49.49
357.595	65.88
357.807	92.5
358.018	37.2
358.23	96.6
358.441	184.66
358.653	80.21
358.864	57.68
359.075	51.54
359.287	92.5
359.498	80.21
359.709	80.21
359.921	47.44
360.132	51.54
360.344	104.79
360.555	22.87
360.766	106.84
360.977	0.34
361.189	-42.67
361.4	12.63
361.611	145.75
361.823	84.31
362.034	33.11
362.245	12.63
362.456	33.11
362.667	78.16
362.879	72.02
363.09	76.12
363.301	76.12
363.512	14.68
363.723	-7.85
363.935	76.12
364.146	104.79
364.357	-42.67
364.568	90.45
364.779	26.96
364.99	76.12
365.201	10.58
365.412	145.75
365.623	47.44
365.834	37.2
366.045	-3.75
366.256	82.26
366.467	14.68
366.678	31.06
366.889	59.73
367.1	92.5
367.311	72.02
367.522	76.12
367.733	33.11
367.944	8.53
368.155	14.68
368.366	16.73
368.577	100.69
368.788	80.21
368.999	-13.99
369.209	6.49
369.42	84.31
369.631	123.22
369.842	84.31
370.053	31.06
370.264	22.87
370.474	84.31
370.685	22.87
370.896	88.4
371.107	82.26
371.317	53.59
371.528	76.12
371.739	22.87
371.95	49.49
372.16	102.74
372.371	63.83
372.582	59.73
372.792	33.11
373.003	72.02
373.214	41.3
373.424	47.44
373.635	-7.85
373.846	108.88
374.056	112.98
374.267	-1.71
374.477	26.96
374.688	67.92
374.898	63.83
375.109	104.79
375.319	31.06
375.53	82.26
375.74	139.6
375.951	88.4
376.161	49.49
376.372	112.98
376.582	26.96
376.793	57.68
377.003	8.53
377.214	80.21
377.424	86.36
377.635	-22.19
377.845	65.88
378.055	59.73
378.266	74.07
378.476	39.25
378.686	76.12
378.897	55.64
379.107	20.82
379.317	98.64
379.528	24.92
379.738	33.11
379.948	6.49
380.158	125.27
380.369	33.11
380.579	80.21
380.789	88.4
380.999	121.17
381.21	133.46
381.42	143.7
381.63	80.21
381.84	112.98
382.05	43.35
382.261	24.92
382.471	72.02
382.681	47.44
382.891	102.74
383.101	47.44
383.311	33.11
383.521	33.11
383.731	133.46
383.941	63.83
384.151	22.87
384.361	22.87
384.571	20.82
384.781	-5.8
384.991	65.88
385.201	92.5
385.411	29.01
385.621	55.64
385.831	80.21
386.041	106.84
386.251	45.4
386.461	69.97
386.671	22.87
386.881	-20.14
387.091	57.68
387.301	55.64
387.511	-16.04
387.72	33.11
387.93	29.01
388.14	-9.9
388.35	8.53
388.56	170.32
388.769	22.87
388.979	47.44
389.189	84.31
389.399	43.35
389.609	106.84
389.818	31.06
390.028	94.55
390.238	67.92
390.447	92.5
390.657	67.92
390.867	80.21
391.076	-7.85
391.286	-18.09
391.496	26.96
391.705	131.41
391.915	108.88
392.125	96.6
392.334	67.92
392.544	59.73
392.753	59.73
392.963	74.07
393.172	112.98
393.382	14.68
393.591	59.73
393.801	53.59
394.01	129.36
394.22	-5.8
394.429	98.64
394.639	57.68
394.848	88.4
395.058	2.39
395.267	115.03
395.477	98.64
395.686	86.36
395.895	106.84
396.105	149.84
396.314	41.3
396.524	76.12
396.733	55.64
396.942	96.6
397.152	110.93
397.361	131.41
397.57	125.27
397.78	121.17
397.989	104.79
398.198	166.23
398.407	86.36
398.617	80.21
398.826	98.64
399.035	98.64
399.244	129.36
399.453	59.73
399.663	74.07
399.872	94.55
400.081	94.55
400.29	112.98
400.499	80.21
400.708	155.99
400.917	123.22
401.127	65.88
401.336	147.8
401.545	153.94
401.754	131.41
401.963	55.64
402.172	117.08
402.381	170.32
402.59	176.47
402.799	153.94
403.008	76.12
403.217	123.22
403.426	223.57
403.635	80.21
403.844	125.27
404.053	129.36
404.262	182.61
404.471	209.23
404.68	155.99
404.888	108.88
405.097	205.14
405.306	190.8
405.515	155.99
405.724	172.37
405.933	178.51
406.142	162.13
406.35	262.48
406.559	219.47
406.768	287.06
406.977	250.19
407.185	203.09
407.394	231.76
407.603	211.28
407.812	188.75
408.02	246.1
408.229	196.95
408.438	244.05
408.646	311.63
408.855	344.4
409.064	270.67
409.272	354.64
409.481	360.78
409.69	299.34
409.898	330.06
410.107	301.39
410.315	409.94
410.524	422.22
410.733	465.23
410.941	360.78
411.15	436.56
411.358	518.48
411.567	457.04
411.775	344.4
411.984	440.65
412.192	500.05
412.401	532.81
412.609	577.87
412.818	588.11
413.026	696.65
413.234	661.84
413.443	670.03
413.651	631.12
413.86	776.52
414.068	682.31
414.276	780.62
414.485	702.79
414.693	833.86
414.901	831.82
415.11	850.25
415.318	932.17
415.526	956.74
415.734	964.93
415.943	934.22
416.151	1053
416.359	1077.57
416.567	1038.66
416.776	1087.81
416.984	1149.25
417.192	1247.55
417.4	1204.55
417.608	1186.12
417.817	1259.84
418.025	1386.82
418.233	1399.1
418.441	1417.54
418.649	1550.65
418.857	1562.94
419.065	1698.11
419.273	1603.9
419.481	1620.28
419.689	1734.97
419.897	1863.99
420.105	1859.9
420.313	1820.99
420.521	1964.34
420.729	2169.14
420.937	2101.56
421.145	2240.82
421.353	2232.63
421.561	2386.22
421.769	2464.05
421.977	2515.25
422.185	2537.77
422.393	2758.96
422.601	2795.82
422.809	2769.2
423.017	2879.79
423.224	2955.56
423.432	2988.33
423.64	3203.36
423.848	3385.63
424.056	3350.82
424.263	3539.23
424.471	3688.73
424.679	3619.1
424.887	3754.27
425.094	3850.52
425.302	3948.83
425.51	3987.74
425.718	4184.34
425.925	4301.08
426.133	4258.07
426.341	4532.5
426.548	4815.12
426.756	4956.43
426.964	4841.74
427.171	5161.22
427.379	5351.68
427.586	5349.64
427.794	5402.88
428.001	5777.66
428.209	5996.79
428.417	5951.74
428.624	6398.2
428.832	6582.51
429.039	6299.89
429.247	6291.7
429.454	6904.04
429.662	7450.85
429.869	6904.04
430.076	7420.13
430.284	7278.82
430.491	7647.46
430.699	7827.68
430.906	7825.63
431.114	8089.82
431.321	8304.85
431.528	8351.96
431.736	9017.55
431.943	9652.42
432.15	9423.05
432.358	9298.12
432.565	9896.13
432.772	9834.69
432.979	10305.72
433.187	10537.14
433.394	10379.45
433.601	10967.21
433.808	11503.78
434.016	11352.23
434.223	11679.91
434.43	12533.91
434.637	12165.28
434.844	12888.21
435.052	13142.16
435.259	13027.47
435.466	13006.99
435.673	12753.04
435.88	13777.03
436.087	14450.81
436.294	14454.9
436.501	14268.54
436.708	14565.5
436.915	15075.44
437.122	15671.4
437.329	15677.54
437.537	16119.9
437.743	16685.14
437.95	16265.31
438.157	17113.17
438.364	17518.67
438.571	17535.05
438.778	17846.34
438.985	19367.98
439.192	18608.19
439.399	19384.37
439.606	18475.07
439.813	19955.75
440.02	21139.47
440.227	20557.85
440.433	20359.2
440.64	21078.04
440.847	20750.36
441.054	21274.64
441.261	22962.17
441.467	22491.13
441.674	23144.44
441.881	23865.32
442.088	23787.5
442.294	23922.66
442.501	24119.27
442.708	24516.58
442.914	25626.57
443.121	26804.16
443.328	25944.01
443.534	27895.72
443.741	26640.32
443.948	26613.7
444.154	28649.38
444.361	28346.28
444.568	28600.22
444.774	28321.7
444.981	28641.18
445.187	29530
445.394	30934.91
445.6	30443.4
445.807	33183.58
446.013	31946.61
446.22	32446.31
446.426	33656.66
446.633	33812.31
446.839	35374.91
447.046	33468.25
447.252	35327.8
447.459	35682.1
447.665	35362.62
447.871	36906.79
448.078	38522.63
448.284	36529.96
448.491	37580.57
448.697	38975.23
448.903	39833.33
449.11	39761.65
449.316	39180.03
449.522	39862.01
449.728	40867.56
449.935	41201.38
450.141	41144.03
450.347	41985.75
450.553	40754.92
450.76	41213.66
450.966	42483.41
451.172	42387.15
451.378	43425.47
451.584	42198.74
451.791	43079.36
451.997	43161.28
452.203	43841.21
452.409	44232.37
452.615	43564.73
452.821	41690.84
453.027	41701.08
453.233	43779.77
453.44	42235.6
453.646	42411.73
453.852	42817.22
454.058	43497.15
454.264	41748.18
454.47	42903.24
454.676	41705.18
454.882	43087.56
455.088	39003.91
455.294	40081.14
455.5	40969.96
455.705	41268.96
455.911	39182.08
456.117	38725.38
456.323	38551.31
456.529	36146.99
456.735	37818.13
456.941	36919.07
457.147	36077.36
457.352	34840.39
457.558	34783.04
457.764	34946.88
457.97	34367.3
458.176	33154.91
458.381	33455.96
458.587	31872.88
458.793	31860.59
458.999	29931.4
459.204	32120.68
459.41	31467.38
459.616	29153.18
459.821	29968.27
460.027	29071.26
460.233	28878.75
460.438	27348.92
460.644	27813.8
460.85	26179.53
461.055	25944.01
461.261	25919.43
461.466	24010.73
461.672	23492.59
461.878	24645.6
462.083	23513.07
462.289	22870.01
462.494	22595.58
462.7	21700.62
462.905	21184.53
463.111	21905.42
463.316	21895.18
463.522	21428.24
463.727	21805.06
463.932	21575.69
464.138	21377.04
464.343	21403.66
464.549	20625.43
464.754	21278.74
464.959	21334.03
465.165	20842.52
465.37	20176.93
465.575	19365.93
465.781	20545.56
465.986	20738.07
466.191	19775.53
466.397	19576.87
466.602	18552.89
466.807	19210.29
467.012	19259.44
467.218	19064.88
467.423	19087.41
467.628	19247.15
467.833	19722.28
468.038	19142.71
468.244	18733.11
468.449	19013.68
468.654	18536.51
468.859	18526.27
469.064	18614.33
469.269	17700.94
469.474	17666.12
469.679	18227.26
469.885	17629.26
470.09	17854.53
470.295	17651.78
470.5	17293.39
470.705	17410.12
470.91	16978
471.115	16904.28
471.32	17313.87
471.525	17164.37
471.73	16687.19
471.935	16519.26
472.139	16121.95
472.344	16150.62
472.549	15958.11
472.754	15788.13
472.959	15401.07
473.164	15210.61
473.369	14975.09
473.574	15638.63
473.778	15759.46
473.983	15319.15
474.188	15241.32
474.393	14377.08
474.598	14788.72
474.802	14618.74
475.007	14479.48
475.212	14465.14
475.417	13754.5
475.621	14057.6
475.826	13998.21
476.031	13662.34
476.235	13424.78
476.44	13873.28
476.645	13387.91
476.849	13262.99
477.054	13342.86
477.259	13144.2
477.463	13031.57
477.668	12572.82
477.872	12894.35
478.077	12624.02
478.282	12046.49
478.486	12148.89
478.691	12126.36
478.895	12196
479.1	12011.68
479.304	11888.8
479.509	11729.06
479.713	12034.21
479.918	11589.8
480.122	11481.25
480.326	11385
480.531	11636.9
480.735	11739.3
480.94	11487.4
481.144	11626.66
481.348	11387.05
481.553	11360.42
481.757	10965.17
481.961	11176.11
482.166	11415.72
482.37	11284.65
482.574	10993.84
482.778	11223.21
482.983	11634.85
483.187	11167.91
483.391	11434.15
483.595	11223.21
483.8	11239.59
484.004	11098.28
484.208	11280.55
484.412	11243.69
484.616	11262.12
484.821	11069.61
485.025	11204.78
485.229	11389.1
485.433	11327.66
485.637	11030.7
485.841	11040.94
486.045	11307.18
486.249	11196.59
486.453	11086
486.657	11198.63
486.861	11120.81
487.065	10913.97
487.269	11280.55
487.473	10977.45
487.677	11133.1
487.881	11358.38
488.085	11184.3
488.289	11344.04
488.493	11280.55
488.697	11354.28
488.901	11233.45
489.105	11184.3
489.309	11309.22
489.512	11206.83
489.716	11413.67
489.92	11333.8
490.124	11174.06
490.328	11565.22
490.531	11524.26
490.735	11602.08
490.939	11681.96
491.143	11507.88
491.346	11565.22
491.55	11733.15
491.754	11483.3
491.958	11821.22
492.161	11884.7
492.365	11649.19
492.569	11692.19
492.772	12013.73
492.976	12015.77
493.18	12081.31
493.383	12026.01
493.587	12015.77
493.79	12226.71
493.994	12169.37
494.197	12118.17
494.401	12531.86
494.605	12486.81
494.808	12576.92
495.012	12650.64
495.215	12695.7
495.419	12728.47
495.622	12783.76
495.825	12877.97
496.029	13045.9
496.232	13238.41
496.436	13174.92
496.639	13449.35
496.843	13510.79
497.046	13781.12
497.249	13736.07
497.453	13811.84
497.656	14104.7
497.859	14186.62
498.063	14114.94
498.266	14598.26
498.469	14319.74
498.673	14606.45
498.876	14874.74
499.079	14999.66
499.282	14878.83
499.485	15505.51
499.689	15560.81
499.892	15513.7
500.095	15861.86
500.298	15896.67
500.501	16070.75
500.705	16240.73
500.908	16709.72
501.111	16758.87
501.314	16480.35
501.517	16758.87
501.72	17360.97
501.923	17158.22
502.126	17676.36
502.329	17676.36
502.532	17756.23
502.735	18135.1
502.938	18458.68
503.141	18581.56
503.344	18946.1
503.547	18450.49
503.75	19009.59
503.953	19443.76
504.156	19421.23
504.359	19509.29
504.562	19609.64
504.765	20322.34
504.968	20310.05
505.17	20647.96
505.373	20506.65
505.576	21063.7
505.779	21217.3
505.982	21413.9
506.185	21770.25
506.387	21622.8
506.59	21772.3
506.793	22272
506.996	22157.32
507.198	23132.15
507.401	22665.21
507.604	23187.44
507.807	23476.21
508.009	23783.4
508.212	23924.71
508.415	24465.38
508.617	24428.51
508.82	24537.05
509.022	24354.79
509.225	25475.02
509.428	25640.91
509.63	25317.33
509.833	25339.86
510.035	26036.17
510.238	26009.54
510.44	26351.56
510.643	26871.74
510.845	26910.65
511.048	27002.81
511.25	27056.06
511.453	27332.53
511.655	28727.2
511.858	28092.33
512.06	28463.01
512.262	28794.78
512.465	29042.59
512.667	28821.41
512.87	29575.06
513.072	29249.43
513.274	30005.13
513.477	30330.76
513.679	30861.18
513.881	30803.84
514.084	30828.41
514.286	31197.05
514.488	31229.82
514.69	31891.31
514.893	32292.71
515.095	32577.38
515.297	32659.3
515.499	32587.62
515.701	33249.11
515.904	33769.3
516.106	33992.53
516.308	34035.53
516.51	34465.61
516.712	34377.54
516.914	35284.79
517.116	35467.06
517.318	35493.69
517.52	35628.85
517.722	35741.49
517.925	36409.13
518.127	36525.86
518.329	36806.44
518.531	36671.27
518.733	37752.6
518.935	37990.16
519.136	37842.71
519.338	38274.83
519.54	38405.9
519.742	38887.17
519.944	39139.07
520.146	39563
520.348	39696.12
520.55	39610.1
520.752	40017.65
520.954	40683.24
521.155	40500.97
521.357	41055.97
521.559	41340.64
521.761	41473.76
521.963	41479.9
522.164	41686.75
522.366	41938.65
522.568	42266.32
522.77	42720.97
522.971	43099.84
523.173	42716.87
523.375	43144.9
523.576	43388.61
523.778	43495.1
523.98	43687.61
524.181	44238.51
524.383	44617.39
524.584	44566.19
524.786	44883.62
524.988	44525.23
525.189	45192.87
525.391	45264.55
525.592	45622.94
525.794	45706.91
525.995	45747.87
526.197	46106.26
526.398	45917.85
526.6	46413.46
526.801	46431.89
527.003	46515.86
527.204	45954.71
527.406	46980.74
527.607	46900.87
527.808	47013.51
528.01	46802.57
528.211	46759.56
528.412	47896.19
528.614	47064.71
528.815	47232.64
529.016	47617.66
529.218	47582.85
529.419	47750.78
529.62	47709.82
529.822	47756.92
530.023	47863.42
530.224	47898.23
530.425	48301.68
530.626	47734.4
530.828	47834.75
531.029	48678.51
531.23	47902.33
531.431	47736.44
531.632	48539.25
531.833	48555.63
532.035	48301.68
532.236	48088.7
532.437	48653.93
532.638	48322.16
532.839	48338.55
533.04	48346.74
533.241	47752.83
533.442	49069.67
533.643	48801.39
533.844	48182.9
534.045	48537.2
534.246	48127.61
534.447	48868.97
534.648	48402.03
534.849	48694.89
535.05	48170.61
535.251	48608.88
535.451	48342.64
535.652	48262.77
535.853	48246.39
536.054	48377.46
536.255	48555.63
536.456	48049.78
536.657	48715.37
536.857	48207.48
537.058	47853.18
537.259	48594.54
537.46	48223.86
537.66	47744.64
537.861	48449.14
538.062	48184.95
538.263	48752.24
538.463	48017.02
538.664	48291.44
538.865	47918.71
539.065	48336.5
539.266	47808.12
539.466	48459.38
539.667	48055.93
539.868	48684.65
540.068	48143.99
540.269	48076.41
540.469	48191.09
540.67	47834.75
540.87	48230.01
541.071	48088.7
541.271	48371.32
541.472	47996.54
541.672	47378.05
541.873	47625.85
542.073	47359.62
542.274	48549.49
542.474	47902.33
542.675	47736.44
542.875	47810.17
543.075	47715.97
543.276	47251.08
543.476	48246.39
543.676	47593.09
543.877	48033.4
544.077	47296.13
544.277	47539.84
544.478	47670.91
544.678	47799.93
544.878	47382.15
545.078	47933.05
545.279	47263.36
545.479	47402.63
545.679	47965.82
545.879	47683.2
546.079	47582.85
546.28	47519.36
546.48	47455.87
546.68	47507.07
546.88	47926.91
547.08	47410.82
547.28	47371.91
547.48	46648.97
547.68	47085.19
547.88	47283.84
548.081	47238.79
548.281	47292.04
548.481	47441.54
548.681	47883.9
548.881	47517.31
549.081	46759.56
549.28	47120.01
549.48	47683.2
549.68	47273.6
549.88	47853.18
550.08	47066.76
550.28	47597.18
550.48	47476.35
550.68	47349.38
550.88	47105.67
551.08	47212.16
551.279	47353.47
551.479	46999.18
551.679	47529.6
551.879	47087.24
552.079	47296.13
552.278	47025.8
552.478	47416.96
552.678	47185.54
552.878	47326.85
553.077	47011.46
553.277	46573.2
553.477	47922.81
553.676	46726.8
553.876	46878.35
554.076	46761.61
554.275	46943.88
554.475	46362.26
554.674	46997.13
554.874	47105.67
555.074	46657.17
555.273	46954.12
555.473	46831.24
555.672	46610.06
555.872	46952.07
556.071	46999.18
556.271	46972.55
556.47	46796.43
556.67	46835.34
556.869	46747.28
557.068	46794.38
557.268	46282.39
557.467	46732.94
557.667	46395.03
557.866	46370.45
558.065	46388.88
558.265	46259.86
558.464	45917.85
558.663	46304.91
558.863	46399.12
559.062	47109.77
559.261	45962.9
559.461	46698.12
559.66	45733.53
559.859	46626.45
560.058	45942.42
560.258	45819.55
560.457	45893.27
560.656	46124.69
560.855	46124.69
561.054	45928.09
561.253	45657.76
561.453	45739.68
561.652	46118.55
561.851	46274.2
562.05	45559.45
562.249	45461.15
562.448	45821.59
562.647	45684.38
562.846	45344.42
563.045	45764.25
563.244	44904.1
563.443	45371.04
563.642	44965.54
563.841	45018.79
564.04	45323.94
564.239	45354.66
564.438	45282.98
564.637	45358.75
564.836	45166.24
565.035	44601
565.234	44801.71
565.432	44314.29
565.631	44721.83
565.83	44910.25
566.029	44480.17
566.228	44467.89
566.427	44498.61
566.625	44422.83
566.824	43847.35
567.023	44775.08
567.222	43237.06
567.42	44492.46
567.619	44611.24
567.818	44089.01
568.016	43912.89
568.215	44191.41
568.414	43910.84
568.612	43464.38
568.811	43826.87
569.01	43734.71
569.208	43130.56
569.407	43777.72
569.605	42981.06
569.804	43818.68
570.002	42804.94
570.201	43245.25
570.4	43112.13
570.598	42786.5
570.797	42999.49
570.995	42639.05
571.193	42200.79
571.392	43060.93
571.59	42544.84
571.789	42626.76
571.987	42450.64
572.186	42256.08
572.384	42139.35
572.582	42333.9
572.781	42229.46
572.979	41608.92
573.177	41836.25
573.376	42118.87
573.574	41969.36
573.772	41901.78
573.971	41797.34
574.169	41510.62
574.367	41027.3
574.565	41961.17
574.763	41316.06
574.962	41408.22
575.16	40912.61
575.358	41006.82
575.556	40607.47
575.754	41397.98
575.952	40423.15
576.151	40595.18
576.349	40470.25
576.547	40019.7
576.745	40589.03
576.943	39900.92
577.141	40601.32
577.339	40318.7
577.537	40388.33
577.735	40005.36
577.933	39683.83
578.131	40103.67
578.329	40101.62
578.527	39481.08
578.725	39698.17
578.923	39544.57
579.121	39880.44
579.319	39061.25
579.516	39413.5
579.714	39251.71
579.912	39134.98
580.11	39225.09
580.308	39450.36
580.506	38633.22
580.704	38307.6
580.901	38801.16
581.099	39091.97
581.297	38225.68
581.495	38620.94
581.692	38323.98
581.89	38154
582.088	38586.12
582.285	38416.14
582.483	38618.89
582.681	38020.88
582.878	37736.21
583.076	37562.14
583.274	37975.83
583.471	37486.36
583.669	37633.82
583.866	37256.99
584.064	38059.79
584.262	37044
584.459	37863.19
584.657	37052.19
584.854	37650.2
585.052	36642.6
585.249	37054.24
585.447	36745
585.644	36306.73
585.841	36794.15
586.039	36695.85
586.236	36245.29
586.434	35747.64
586.631	36208.43
586.828	36441.9
587.026	36423.47
587.223	35983.15
587.42	35800.88
587.618	36056.88
587.815	35766.07
588.012	35827.51
588.21	35594.04
588.407	35614.52
588.604	35182.4
588.801	35213.12
588.999	35465.02
589.196	35272.51
589.393	34938.69
589.59	35002.18
589.787	34783.04
589.984	34760.51
590.182	34568.01
590.379	34588.49
590.576	34176.84
590.773	34238.28
590.97	33830.74
591.167	34416.46
591.364	33619.8
591.561	34371.4
591.758	33511.25
591.955	33470.29
592.152	34080.59
592.349	33277.79
592.546	33703.76
592.743	33894.22
592.94	33040.22
593.137	33400.66
593.334	33574.74
593.531	33232.73
593.727	32847.71
593.924	33052.51
594.121	32685.92
594.318	32954.21
594.515	32610.15
594.712	32454.5
594.908	32272.23
595.105	32452.45
595.302	32307.05
595.499	32200.55
595.696	32229.23
595.892	31780.72
596.089	32329.58
596.286	32106.35
596.482	32210.79
596.679	31934.32
596.876	31670.13
597.072	31487.86
597.269	31561.59
597.466	31532.92
597.662	31057.79
597.859	30908.29
598.055	31289.21
598.252	31229.82
598.448	30998.4
598.645	30566.27
598.841	30699.39
599.038	30775.17
599.234	30537.6
599.431	30750.59
599.627	30465.92
599.824	30566.27
600.02	30308.23
600.217	30392.2
600.413	30490.5
600.609	30197.64
600.806	29888.4
601.002	29908.88
601.198	29609.87
601.395	29683.6
601.591	29761.42
601.787	29591.44
601.984	29501.33
602.18	29771.66
602.376	29396.88
602.572	29071.26
602.769	28862.36
602.965	28579.75
603.161	29050.78
603.357	28729.25
603.553	28878.75
603.75	28716.96
603.946	28524.45
604.142	28714.91
604.338	27930.54
604.534	28647.33
604.73	27908.01
604.926	28010.41
605.122	27879.34
605.318	28407.72
605.514	27764.65
605.71	27705.26
605.906	27678.64
606.102	27905.96
606.298	28034.99
606.494	27936.68
606.69	27588.53
606.886	27957.16
607.082	27350.96
607.278	27441.07
607.474	26716.09
607.67	27422.64
607.866	26922.94
608.062	27484.08
608.257	27097.02
608.453	27348.92
608.649	26861.5
608.845	26929.08
609.041	26683.33
609.236	27037.62
609.432	26904.51
609.628	26533.82
609.824	26628.03
610.019	26341.32
610.215	26603.46
610.411	26611.65
610.606	26496.96
610.802	26853.31
610.998	26429.38
611.193	26638.27
611.389	26324.93
611.584	26030.02
611.78	25810.89
611.976	26038.22
612.171	26066.89
612.367	25831.37
612.562	25798.6
612.758	25632.72
612.953	25645.01
613.149	26144.71
613.344	25520.08
613.539	25960.39
613.735	25577.42
613.93	25270.23
614.126	25325.52
614.321	25507.79
614.517	25761.74
614.712	25599.95
614.907	25141.21
615.103	25366.48
615.298	25096.15
615.493	25350.1
615.688	24883.16
615.884	25294.8
616.079	24874.97
616.274	25329.62
616.47	24954.84
616.665	24893.4
616.86	24829.91
617.055	24926.17
617.25	24866.78
617.445	24764.38
617.641	24309.73
617.836	24586.21
618.031	24223.72
618.226	24457.18
618.421	24129.51
618.616	24211.43
618.811	23744.49
619.006	24115.17
619.201	23764.97
619.396	24168.42
619.591	23613.42
619.786	24119.27
619.981	23713.77
620.176	23707.63
620.371	23238.64
620.566	23300.08
620.761	23091.19
620.956	23365.62
621.151	22800.38
621.346	23177.2
621.541	22718.46
621.735	23080.95
621.93	22853.62
622.125	22687.74
622.32	22468.61
622.515	22507.52
622.709	21862.41
622.904	22394.88
623.099	22032.39
623.294	21991.43
623.488	21667.85
623.683	21862.41
623.878	21418
624.072	21487.63
624.267	21413.9
624.462	21377.04
624.656	20844.57
624.851	21035.03
625.046	21100.56
625.24	20869.14
625.435	20666.39
625.629	20699.16
625.824	20394.01
626.018	20449.31
626.213	19916.84
626.407	20095.01
626.602	19853.35
626.796	19832.87
626.991	20041.76
627.185	19882.02
627.38	19724.33
627.574	19234.86
627.768	19626.03
627.963	19347.5
628.157	19142.71
628.352	19118.13
628.546	18978.87
628.74	19327.02
628.935	18847.8
629.129	18976.82
629.323	18749.5
629.517	18522.17
629.712	18448.44
629.906	18483.26
630.1	18155.58
630.294	18202.69
630.489	18184.26
630.683	18057.28
630.877	17881.16
631.071	17627.21
631.265	17930.31
631.459	17596.49
631.653	17283.15
631.848	17608.78
632.042	17283.15
632.236	17174.61
632.43	17168.46
632.624	17217.61
632.818	16961.62
633.012	16799.83
633.206	16971.86
633.4	16799.83
633.594	16521.31
633.788	16607.32
633.982	16515.16
634.176	16541.78
634.369	16302.17
634.563	16371.8
634.757	16124
634.951	16089.18
635.145	16083.04
635.339	15980.64
635.533	15833.19
635.726	16037.98
635.92	15646.82
636.114	15872.1
636.308	15460.46
636.501	15351.92
636.695	15468.65
636.889	15186.03
637.083	14991.47
637.276	14960.75
637.47	15014
637.664	14760.05
637.857	14846.07
638.051	15040.62
638.244	14874.74
638.438	14956.66
638.632	14749.81
638.825	14448.76
639.019	14506.1
639.212	14307.45
639.406	14315.64
639.599	14260.35
639.793	14280.83
639.986	14063.74
640.18	14096.51
640.373	13842.56
640.567	13707.4
640.76	13787.27
640.954	13703.3
641.147	13777.03
641.34	13467.78
641.534	13437.06
641.727	13521.03
641.92	13387.91
642.114	13191.31
642.307	13113.49
642.5	13228.17
642.694	12929.17
642.887	12718.23
643.08	13303.95
643.273	12720.28
643.467	13050
643.66	12806.29
643.853	12529.81
644.046	12507.29
644.239	12656.79
644.432	12726.42
644.626	12333.21
644.819	12275.87
645.012	12222.62
645.205	12343.45
645.398	12361.88
645.591	12200.09
645.784	12183.71
645.977	11917.47
646.17	11896.99
646.363	11755.68
646.556	11667.62
646.749	11661.48
646.942	11665.57
647.135	11454.63
647.328	11532.45
647.521	11657.38
647.714	11432.1
647.907	11479.21
648.099	11337.9
648.292	11010.22
648.485	11341.99
648.678	11196.59
648.871	11090.09
649.064	10950.83
649.256	10897.58
649.449	10770.61
649.642	10985.65
649.835	10696.88
650.027	10629.3
650.22	10680.5
650.413	10397.88
650.605	10541.24
650.798	10645.68
650.991	10451.13
651.183	10365.11
651.376	10381.49
651.568	10348.73
651.761	10297.53
651.954	10162.36
652.146	10053.82
652.339	10102.97
652.531	10002.62
652.724	9930.94
652.916	9517.25
653.109	9701.57
653.301	9838.78
653.494	9957.57
653.686	9568.45
653.879	9783.49
654.071	9550.02
654.263	9453.77
654.456	9343.17
654.648	9513.16
654.84	9148.62
655.033	9306.31
655.225	9427.14
655.417	9148.62
655.61	9283.78
655.802	9183.43
655.994	8986.83
656.186	9197.77
656.379	9087.18
656.571	8943.82
656.763	9017.55
656.955	8909.01
657.148	8700.11
657.34	8816.85
657.532	8745.17
657.724	8741.07
657.916	8831.18
658.108	8708.3
658.3	8659.15
658.492	8706.26
658.684	8351.96
658.876	8370.39
659.068	8374.49
659.26	8460.5
659.452	8202.46
659.644	8159.45
659.836	8157.4
660.028	8116.44
660.22	8100.06
660.412	8114.39
660.604	8016.09
660.796	8100.06
660.988	8050.91
661.18	7856.35
661.372	7870.69
661.563	7936.22
661.755	7766.24
661.947	7749.86
662.139	7551.2
662.331	7842.01
662.522	7624.93
662.714	7567.59
662.906	7520.48
663.097	7510.24
663.289	7356.65
663.481	7502.05
663.673	7430.37
663.864	7237.86
664.056	7225.58
664.247	7280.87
664.439	7291.11
664.631	7160.04
664.822	7160.04
665.014	7106.79
665.205	7080.17
665.397	6947.05
665.588	7024.87
665.78	6932.72
665.971	6994.15
666.163	6969.58
666.354	6838.51
666.546	6789.36
666.737	6713.58
666.929	6760.69
667.12	6701.3
667.311	6637.81
667.503	6473.97
667.694	6537.46
667.885	6625.52
668.077	6549.75
668.268	6371.57
668.459	6408.44
668.651	6547.7
668.842	6453.49
669.033	6326.52
669.224	6338.8
669.416	6306.04
669.607	6330.61
669.798	6187.25
669.989	6428.92
670.18	6097.14
670.371	6154.49
670.563	5998.84
670.754	6213.88
670.945	6019.32
671.136	5980.41
671.327	6101.24
671.518	6125.82
671.709	5826.81
671.9	5947.64
672.091	5933.31
672.282	5943.55
672.473	5785.85
672.664	5902.59
672.855	5634.3
673.046	5652.74
673.237	5773.57
673.428	5667.07
673.619	5771.52
673.809	5587.2
674	5613.82
674.191	5601.54
674.382	5517.57
674.573	5556.48
674.764	5509.38
674.954	5712.13
675.145	5419.27
675.336	5615.87
675.527	5404.93
675.717	5462.27
675.908	5286.15
676.099	5413.12
676.289	5327.11
676.48	5460.23
676.671	5118.22
676.861	5255.43
677.052	5210.37
677.243	5175.56
677.433	5181.7
677.624	5222.66
677.814	5116.17
678.005	5105.93
678.195	5273.86
678.386	5191.94
678.576	5019.91
678.767	4929.8
678.957	5093.64
679.148	4909.32
679.338	5036.3
679.529	4972.81
679.719	4995.34
679.909	5085.45
680.1	4884.75
680.29	5024.01
680.481	4925.71
680.671	4905.23
680.861	4671.76
681.052	4872.46
681.242	4731.15
681.432	4890.89
681.622	4798.73
681.813	4839.69
682.003	4690.19
682.193	4638.99
682.383	4772.11
682.573	4768.01
682.764	4714.77
682.954	4669.71
683.144	4610.32
683.334	4518.16
683.524	4614.41
683.714	4682
683.904	4628.75
684.094	4591.89
684.284	4458.77
684.474	4565.26
684.664	4489.49
684.854	4356.37
685.044	4692.24
685.234	4552.98
685.424	4382.99
685.614	4350.23
685.804	4444.43
685.994	4473.11
686.184	4208.92
686.374	4290.84
686.564	4374.8
686.753	4364.56
686.943	4251.92
687.133	4256.02
687.323	4235.54
687.513	4170.01
687.702	4243.73
687.892	4233.49
688.082	4219.16
688.272	4049.18
688.461	4186.39
688.651	4180.25
688.841	4047.13
689.03	4120.85
689.22	3963.16
689.41	4186.39
689.599	4067.61
689.789	3971.35
689.979	4020.5
690.168	4043.03
690.358	4061.46
690.547	4086.04
690.737	4010.26
690.926	4020.5
691.116	3643.68
691.305	4016.41
691.495	3877.15
691.684	3770.65
691.874	3754.27
692.063	3844.38
692.252	3916.06
692.442	3750.17
692.631	3752.22
692.82	3817.76
693.01	3610.91
693.199	3682.59
693.388	3725.6
693.578	3621.15
693.767	3836.19
693.956	3715.36
694.146	3692.83
694.335	3610.91
694.524	3735.84
694.713	3760.41
694.902	3619.1
695.092	3576.09
695.281	3619.1
695.47	3596.57
695.659	3459.36
695.848	3664.16
696.037	3541.28
696.226	3531.04
696.415	3512.61
696.604	3463.46
696.793	3574.05
696.982	3518.75
697.171	3621.15
697.36	3512.61
697.549	3549.47
697.738	3418.4
697.927	3438.88
698.116	3397.92
698.305	3459.36
698.494	3477.79
698.683	3424.55
698.872	3463.46
699.061	3248.42
699.25	3399.97
699.438	3336.48
699.627	3225.89
699.816	3356.96
700.005	3422.5
700.193	3268.9
700.382	3422.5
700.571	3406.11
700.76	3426.59
700.948	3348.77
701.137	3297.57
701.326	3430.69
701.514	3227.94
701.703	3268.9
701.892	3246.37
702.08	3328.29
702.269	3305.76
702.457	3234.08
702.646	3232.04
702.834	3250.47
703.023	3168.55
703.212	3203.36
703.4	3363.11
703.589	3178.79
703.777	3207.46
703.965	3103.01
704.154	3080.49
704.342	3139.88
704.531	3154.21
704.719	3082.53
704.907	2955.56
705.096	3053.86
705.284	2988.33
705.472	3172.64
705.661	3227.94
705.849	3107.11
706.037	3146.02
706.226	3004.71
706.414	3084.58
706.602	2945.32
706.79	3053.86
706.979	2945.32
707.167	2982.18
707.355	2963.75
707.543	2898.22
707.731	3004.71
707.919	3047.72
708.107	2785.58
708.296	2873.64
708.484	2883.88
708.672	3076.39
708.86	2869.55
709.048	2894.12
709.236	2838.83
709.424	2947.37
709.612	3109.16
709.8	2771.24
709.988	2877.74
710.176	2869.55
710.364	2898.22
710.551	2951.46
710.739	2754.86
710.927	2922.79
711.115	2820.39
711.303	2773.29
711.491	2840.87
711.679	2728.24
711.866	2806.06
712.054	2830.63
712.242	2685.23
712.43	2883.88
712.617	2701.61
712.805	2797.87
712.993	2763.05
713.181	2709.8
713.368	2816.3
713.556	2740.52
713.744	2750.76
713.931	2703.66
714.119	2746.67
714.306	2705.71
714.494	2609.45
714.682	2568.49
714.869	2609.45
715.057	2695.47
715.244	2638.13
715.432	2775.34
715.619	2515.25
715.807	2664.75
715.994	2597.17
716.182	2640.17
716.369	2689.32
716.556	2638.13
716.744	2505.01
716.931	2560.3
717.119	2554.16
717.306	2654.51
717.493	2453.81
717.681	2513.2
717.868	2586.93
718.055	2494.77
718.242	2511.15
718.43	2398.51
718.617	2601.26
718.804	2505.01
718.991	2531.63
719.179	2443.57
719.366	2474.29
719.553	2365.75
719.74	2423.09
719.927	2347.31
720.114	2410.8
720.301	2406.7
720.488	2365.75
720.676	2269.49
720.863	2361.65
721.05	2398.51
721.237	2414.9
721.424	2431.28
721.611	2279.73
721.798	2365.75
721.985	2287.92
722.172	2263.35
722.358	2345.27
722.545	2427.18
722.732	2369.84
722.919	2263.35
723.106	2275.63
723.293	2240.82
723.48	2326.83
723.667	2347.31
723.853	2214.2
724.04	2349.36
724.227	2304.31
724.414	2271.54
724.6	2226.48
724.787	2298.16
724.974	2218.29
725.161	2236.72
725.347	2189.62
725.534	2263.35
725.72	2287.92
725.907	2206
726.094	2212.15
726.28	2156.85
726.467	2298.16
726.653	2187.57
726.84	2138.42
727.027	2285.87
727.213	2267.44
727.4	2050.36
727.586	2105.65
727.773	2169.14
727.959	2105.65
728.145	2132.28
728.332	2146.61
728.518	2169.14
728.705	2228.53
728.891	2220.34
729.077	2138.42
729.264	2031.93
729.45	2066.74
729.636	2144.56
729.823	2033.97
730.009	2089.27
730.195	2054.45
730.382	2048.31
730.568	1997.11
730.754	2033.97
730.94	1964.34
731.126	1960.25
731.313	1964.34
731.499	1974.58
731.685	1976.63
731.871	2015.54
732.057	2089.27
732.243	1956.15
732.429	1943.86
732.615	1972.54
732.801	2079.03
732.987	2005.3
733.173	1886.52
733.359	1995.06
733.545	2017.59
733.731	1927.48
733.917	1913.14
734.103	2046.26
734.289	1964.34
734.475	1917.24
734.661	1929.53
734.847	1898.81
735.033	1835.32
735.219	1894.71
735.404	1784.12
735.59	1818.94
735.776	1849.66
735.962	1952.06
736.148	1923.38
736.333	1866.04
736.519	1902.9
736.705	1788.22
736.89	1847.61
737.076	1933.62
737.262	1751.35
737.447	1907
737.633	1739.07
737.819	1849.66
738.004	1694.01
738.19	1880.38
738.375	1784.12
738.561	1827.13
738.747	1767.74
738.932	1792.31
739.118	1911.1
739.303	1794.36
739.489	1812.79
739.674	1780.03
739.859	1706.3
740.045	1669.44
740.23	1677.63
740.416	1732.92
740.601	1849.66
740.786	1696.06
740.972	1513.79
741.157	1720.64
741.342	1702.2
741.528	1739.07
741.713	1675.58
741.898	1679.68
742.084	1677.63
742.269	1605.95
742.454	1730.87
742.639	1691.96
742.824	1515.84
743.01	1728.83
743.195	1628.48
743.38	1548.61
743.565	1612.09
743.75	1517.89
743.935	1585.47
744.12	1517.89
744.305	1597.76
744.49	1554.75
744.675	1616.19
744.86	1595.71
745.045	1448.26
745.23	1515.84
745.415	1560.89
745.6	1476.93
745.785	1468.73
745.97	1460.54
746.155	1464.64
746.34	1470.78
746.525	1503.55
746.71	1476.93
746.895	1521.98
747.079	1423.68
747.264	1499.45
747.449	1403.2
747.634	1446.21
747.819	1419.58
748.003	1382.72
748.188	1327.43
748.373	1458.5
748.557	1474.88
748.742	1274.18
748.927	1331.52
749.111	1321.28
749.296	1308.99
749.481	1308.99
749.665	1358.14
749.85	1358.14
750.034	1317.19
750.219	1249.6
750.404	1259.84
750.588	1190.21
750.773	1272.13
750.957	1163.59
751.141	1274.18
751.326	1198.4
751.51	1186.12
751.695	1286.47
751.879	1153.35
752.064	1243.46
752.248	1272.13
752.432	1087.81
752.617	1177.92
752.801	1210.69
752.985	1161.54
753.17	1202.5
753.354	1147.2
753.538	1235.27
753.722	1034.57
753.907	1042.76
754.091	1126.72
754.275	1163.59
754.459	1073.48
754.643	1079.62
754.828	1096
755.012	1030.47
755.196	1079.62
755.38	1042.76
755.564	1087.81
755.748	1020.23
755.932	1026.37
756.116	1075.52
756.3	1042.76
756.484	1038.66
756.668	1022.28
756.852	909.64
757.036	944.45
757.22	999.75
757.404	932.17
757.588	1030.47
757.772	948.55
757.956	997.7
758.14	987.46
758.323	989.51
758.507	944.45
758.691	885.06
758.875	969.03
759.059	952.65
759.242	885.06
759.426	999.75
759.61	909.64
759.794	891.21
759.977	911.69
760.161	874.82
760.345	848.2
760.528	885.06
760.712	874.82
760.895	844.1
761.079	805.19
761.263	917.83
761.446	842.06
761.63	741.71
761.813	827.72
761.997	776.52
762.18	835.91
762.364	893.26
762.547	786.76
762.731	811.34
762.914	694.6
763.098	860.49
763.281	860.49
763.464	837.96
763.648	762.19
763.831	764.23
764.015	768.33
764.198	782.67
764.381	764.23
764.564	776.52
764.748	737.61
764.931	772.43
765.114	844.1
765.297	840.01
765.481	809.29
765.664	835.91
765.847	772.43
766.03	772.43
766.213	694.6
766.397	665.93
766.58	710.99
766.763	807.24
766.946	805.19
767.129	710.99
767.312	837.96
767.495	739.66
767.678	629.07
767.861	743.75
768.044	772.43
768.227	840.01
768.41	733.51
768.593	739.66
768.776	729.42
768.959	733.51
769.142	760.14
769.324	702.79
769.507	649.55
769.69	719.18
769.873	633.16
770.056	807.24
770.239	747.85
770.421	641.36
770.604	710.99
770.787	715.08
770.97	672.08
771.152	612.68
771.335	688.46
771.518	698.7
771.7	678.22
771.883	614.73
772.066	702.79
772.248	727.37
772.431	661.84
772.613	706.89
772.796	584.01
772.978	694.6
773.161	688.46
773.343	616.78
773.526	672.08
773.708	618.83
773.891	631.12
774.073	588.11
774.256	557.39
774.438	706.89
774.621	610.64
774.803	600.4
774.985	516.43
775.168	561.48
775.35	522.57
775.532	565.58
775.715	565.58
775.897	592.2
776.079	604.49
776.261	588.11
776.444	555.34
776.626	624.97
776.808	500.05
776.99	563.53
777.173	571.72
777.355	549.2
777.537	637.26
777.719	510.29
777.901	504.14
778.083	575.82
778.265	575.82
778.447	549.2
778.629	498
778.811	538.96
778.993	555.34
779.175	579.92
779.357	551.24
779.539	514.38
779.721	498
779.903	491.85
780.085	459.09
780.267	514.38
780.449	465.23
780.631	577.87
780.812	512.33
780.994	498
781.176	477.52
781.358	522.57
781.54	428.37
781.721	416.08
781.903	416.08
782.085	491.85
782.267	436.56
782.448	399.7
782.63	389.46
782.812	450.89
782.993	500.05
783.175	452.94
783.357	373.07
783.538	524.62
783.72	448.85
783.901	393.55
784.083	448.85
784.264	407.89
784.446	330.06
784.627	354.64
784.809	448.85
784.99	385.36
785.172	448.85
785.353	366.93
785.535	334.16
785.716	350.54
785.897	223.57
786.079	325.97
786.26	420.17
786.441	309.58
786.623	352.59
786.804	330.06
786.985	352.59
787.167	401.74
787.348	344.4
787.529	395.6
787.71	366.93
787.891	317.78
788.073	278.87
788.254	311.63
788.435	411.98
788.616	338.26
788.797	293.2
788.978	311.63
789.159	352.59
789.34	354.64
789.522	338.26
789.703	287.06
789.884	303.44
790.065	348.5
790.246	289.1
790.427	330.06
790.607	342.35
790.788	328.02
790.969	201.04
791.15	321.87
791.331	231.76
791.512	194.9
791.693	297.3
791.874	242
792.054	252.24
792.235	328.02
792.416	252.24
792.597	223.57
792.778	311.63
792.958	244.05
793.139	258.39
793.32	325.97
793.5	205.14
793.681	338.26
793.862	244.05
794.042	203.09
794.223	219.47
794.404	276.82
794.584	170.32
794.765	309.58
794.945	244.05
795.126	358.74
795.306	233.81
795.487	254.29
795.667	201.04
795.848	207.19
796.028	201.04
796.209	235.86
796.389	252.24
796.57	211.28
796.75	188.75
796.93	239.95
797.111	229.71
797.291	272.72
797.471	227.67
797.652	221.52
797.832	203.09
798.012	239.95
798.192	180.56
798.373	207.19
798.553	217.43
798.733	213.33
798.913	207.19
799.093	248.15
799.274	178.51
799.454	196.95
799.634	158.03
799.814	285.01
799.994	209.23
800.174	242
800.354	235.86
800.534	244.05
800.714	143.7
800.894	164.18
801.074	188.75
801.254	203.09
801.434	198.99
801.614	219.47
801.794	186.71
801.974	581.96
802.154	121.17
802.334	213.33
802.514	211.28
802.693	227.67
802.873	133.46
803.053	205.14
803.233	162.13
803.413	205.14
803.592	100.69
803.772	141.65
803.952	186.71
804.131	174.42
804.311	145.75
804.491	223.57
804.67	104.79
804.85	164.18
805.03	172.37
805.209	147.8
805.389	166.23
805.568	178.51
805.748	139.6
805.928	221.52
806.107	280.91
806.287	135.51
806.466	121.17
806.646	155.99
806.825	211.28
807.004	178.51
807.184	223.57
807.363	274.77
807.543	139.6
807.722	104.79
807.901	102.74
808.081	207.19
808.26	123.22
808.439	153.94
808.619	192.85
808.798	90.45
808.977	153.94
809.156	164.18
809.336	162.13
809.515	174.42
809.694	149.84
809.873	217.43
810.052	182.61
810.231	104.79
810.411	108.88
810.59	133.46
810.769	69.97
810.948	194.9
811.127	129.36
811.306	98.64
811.485	172.37
811.664	72.02
811.843	186.71
812.022	168.27
812.201	102.74
812.38	196.95
812.559	94.55
812.737	123.22
812.916	158.03
813.095	137.56
813.274	133.46
813.453	172.37
813.632	135.51
813.811	104.79
813.989	92.5
814.168	90.45
814.347	145.75
814.526	158.03
814.704	186.71
814.883	155.99
815.062	139.6
815.24	123.22
815.419	121.17
815.598	127.32
815.776	63.83
815.955	153.94
816.133	35.16
816.312	100.69
816.49	90.45
816.669	22.87
816.847	151.89
817.026	129.36
817.204	137.56
817.383	141.65
817.561	104.79
817.74	125.27
817.918	112.98
818.097	106.84
818.275	59.73
818.453	106.84
818.632	117.08
818.81	112.98
818.988	104.79
819.167	65.88
819.345	53.59
819.523	153.94
819.701	129.36
819.879	112.98
820.058	129.36
820.236	125.27
820.414	63.83
820.592	131.41
820.77	45.4
820.948	76.12
821.127	55.64
821.305	98.64
821.483	43.35
821.661	123.22
821.839	98.64
822.017	110.93
822.195	82.26
822.373	168.27
822.551	63.83
822.729	196.95
822.907	74.07
823.085	74.07
823.262	18.77
823.44	39.25
823.618	61.78
823.796	112.98
823.974	88.4
824.152	110.93
824.329	92.5
824.507	76.12
824.685	82.26
824.863	39.25
825.04	115.03
825.218	108.88
825.396	59.73
825.574	96.6
825.751	98.64
825.929	117.08
826.107	90.45
826.284	47.44
826.462	63.83
826.639	31.06
826.817	72.02
826.994	63.83
827.172	33.11
827.349	106.84
827.527	29.01
827.704	37.2
827.882	59.73
828.059	78.16
828.237	125.27
828.414	22.87
828.591	22.87
828.769	121.17
828.946	-26.28
829.124	63.83
829.301	147.8
829.478	119.12
829.655	47.44
829.833	-1.71
830.01	84.31
830.187	80.21
830.364	86.36
830.542	45.4
830.719	178.51
830.896	82.26
831.073	45.4
831.25	92.5
831.427	63.83
831.604	43.35
831.782	39.25
831.959	86.36
832.136	55.64
832.313	55.64
832.49	26.96
832.667	104.79
832.844	39.25
833.021	123.22
833.198	100.69
833.374	158.03
833.551	84.31
833.728	-13.99
833.905	16.73
834.082	65.88
834.259	80.21
834.436	129.36
834.612	10.58
834.789	-7.85
834.966	-26.28
835.143	88.4
835.319	63.83
835.496	80.21
835.673	47.44
835.85	33.11
836.026	26.96
836.203	72.02
836.38	8.53
836.556	41.3
836.733	-22.19
836.909	22.87
837.086	63.83
837.262	-9.9
837.439	18.77
837.616	43.35
837.792	-1.71
837.968	76.12
838.145	8.53
838.321	61.78
838.498	45.4
838.674	69.97
838.851	35.16
839.027	26.96
839.203	18.77
839.38	31.06
839.556	-24.23
839.732	33.11
839.909	35.16
840.085	41.3
840.261	33.11
840.437	29.01
840.614	37.2
840.79	-18.09
840.966	84.31
841.142	43.35
841.318	69.97
841.494	69.97
841.671	-18.09
841.847	24.92
842.023	69.97
842.199	80.21
842.375	6.49
842.551	100.69
842.727	-22.19
842.903	45.4
843.079	22.87
843.255	80.21
843.431	-9.9
843.607	67.92
843.783	-71.34
843.959	82.26
844.134	-1.71
844.31	72.02
844.486	108.88
844.662	6.49
844.838	31.06
845.013	57.68
845.189	-9.9
845.365	24.92
845.541	-13.99
845.716	-26.28
845.892	0.34
846.068	-30.38
846.244	72.02
846.419	65.88
846.595	35.16
846.77	47.44
846.946	72.02
847.122	84.31
847.297	16.73
847.473	57.68
847.648	-34.47
847.824	31.06
847.999	-42.67
848.175	10.58
848.35	74.07
848.526	45.4
848.701	67.92
848.876	41.3
849.052	26.96
849.227	20.82
849.403	-54.95
849.578	-11.95
849.753	55.64
849.929	6.49
850.104	8.53
850.279	26.96
850.454	110.93
850.63	33.11
850.805	112.98
850.98	72.02
851.155	-20.14
851.33	4.44
851.505	16.73
851.681	26.96
851.856	26.96
852.031	8.53
852.206	31.06
852.381	72.02
852.556	43.35
852.731	67.92
852.906	39.25
853.081	31.06
853.256	78.16
853.431	112.98
853.606	39.25
853.781	33.11
853.956	-9.9
854.131	96.6
854.305	-1.71
854.48	31.06
854.655	-16.04
854.83	-54.95
855.005	-28.33
855.18	96.6
855.354	-1.71
855.529	18.77
855.704	-24.23
855.879	22.87
856.053	26.96
856.228	67.92
856.403	0.34
856.577	82.26
856.752	6.49
856.926	-18.09
857.101	-7.85
857.276	-1.71
857.45	65.88
857.625	22.87
857.799	-67.24
857.974	12.63
858.148	63.83
858.323	121.17
858.497	41.3
858.672	6.49
858.846	-16.04
859.02	-1.71
859.195	51.54
859.369	37.2
859.543	16.73
859.718	-24.23
859.892	0.34
860.066	51.54
860.241	-1.71
860.415	47.44
860.589	47.44
860.763	98.64
860.938	35.16
861.112	76.12
861.286	-54.95
861.46	45.4
861.634	2.39
861.808	49.49
861.982	-20.14
862.157	14.68
862.331	41.3
862.505	-1.71
862.679	-32.43
862.853	74.07
863.027	-20.14
863.201	90.45
863.375	-5.8
863.549	12.63
863.722	-67.24
863.896	59.73
864.07	-3.75
864.244	22.87
864.418	35.16
864.592	14.68
864.766	20.82
864.939	-9.9
865.113	-67.24
865.287	6.49
865.461	-22.19
865.634	-67.24
865.808	-26.28
865.982	108.88
866.156	24.92
866.329	49.49
866.503	4.44
866.676	72.02
866.85	41.3
867.024	49.49
867.197	-38.57
867.371	29.01
867.544	4.44
867.718	2.39
867.891	61.78
868.065	-11.95
868.238	-67.24
868.412	98.64
868.585	-18.09
868.759	31.06
868.932	-63.15
869.105	-20.14
869.279	0.34
869.452	-9.9
869.625	12.63
869.799	-48.81
869.972	6.49
870.145	2.39
870.319	-32.43
870.492	51.54
870.665	-1.71
870.838	39.25
871.011	-40.62
871.185	-26.28
871.358	10.58
871.531	41.3
871.704	-16.04
871.877	-1.71
872.05	49.49
872.223	-13.99
872.396	29.01
872.569	-40.62
872.742	-67.24
872.915	43.35
873.088	-79.53
873.261	14.68
873.434	41.3
873.607	-7.85
873.78	31.06
873.953	-46.76
874.126	26.96
874.299	8.53
874.471	-11.95
874.644	12.63
874.817	-24.23
874.99	4.44
875.163	-18.09
875.335	8.53
875.508	41.3
875.681	41.3
875.853	-26.28
876.026	-7.85
876.199	-16.04
876.371	-22.19
876.544	16.73
876.717	-13.99
876.889	-9.9
877.062	-1.71
877.234	-81.58
877.407	-18.09
877.579	-28.33
877.752	4.44
877.924	-1.71
878.097	2.39
878.269	-9.9
878.442	0.34
878.614	22.87
878.786	51.54
878.959	-24.23
879.131	59.73
879.303	-42.67
879.476	16.73
879.648	-34.47
879.82	31.06
879.993	72.02
880.165	12.63
880.337	-46.76
880.509	-75.43
880.681	-95.91
880.854	6.49
881.026	0.34
881.198	123.22
881.37	26.96
881.542	22.87
881.714	-1.71
881.886	-16.04
882.058	35.16
882.23	12.63
882.402	-13.99
882.574	26.96
882.746	47.44
882.918	-11.95
883.09	-7.85
883.262	-5.8
883.434	-97.96
883.606	-22.19
883.778	39.25
883.95	0.34
884.122	-83.63
884.293	69.97
884.465	-20.14
884.637	41.3
884.809	16.73
884.98	-13.99
885.152	33.11
885.324	-13.99
885.496	-50.86
885.667	18.77
885.839	39.25
886.011	-26.28
886.182	-30.38
886.354	-38.57
886.525	6.49
886.697	4.44
886.869	-20.14
887.04	-16.04
887.212	39.25
887.383	6.49
887.555	33.11
887.726	14.68
887.897	-9.9
888.069	55.64
888.24	-18.09
888.412	6.49
888.583	-7.85
888.754	-40.62
888.926	-32.43
889.097	-95.91
889.268	-83.63
889.44	57.68
889.611	-7.85
889.782	-7.85
889.953	31.06
890.125	16.73
890.296	-24.23
890.467	112.98
890.638	-18.09
890.809	-13.99
890.98	10.58
891.151	49.49
891.323	-65.19
891.494	37.2
891.665	-1.71
891.836	-1.71
892.007	-34.47
892.178	0.34
892.349	26.96
892.52	-57
892.691	-18.09
892.862	-79.53
893.032	-59.05
893.203	-42.67
893.374	33.11
893.545	43.35
893.716	-61.1
893.887	49.49
894.057	-42.67
894.228	51.54
894.399	-44.71
894.57	14.68
894.74	-24.23
894.911	-9.9
895.082	18.77
895.253	6.49
895.423	74.07
895.594	31.06
895.764	-16.04
895.935	-122.54
896.106	-75.43
896.276	-26.28
896.447	-1.71
896.617	-1.71
896.788	-24.23
896.958	0.34
897.129	-20.14
897.299	6.49
897.47	-30.38
897.64	-20.14
897.81	0.34
897.981	-18.09
898.151	6.49
898.322	-32.43
898.492	39.25
898.662	41.3
898.832	-30.38
899.003	16.73
899.173	-24.23
899.343	-26.28
899.513	-63.15
