Data from USB4F104151__237__14-22-08-711.txt Node

Date: Thu Mar 13 14:22:08 EDT 2025
User: louis
Spectrometer: USB4F10415
Trigger mode: 4
Integration Time (sec): 2.000000E-2
Scans to average: 1
Electric dark correction enabled: true
Nonlinearity correction enabled: false
Boxcar width: 0
XAxis mode: Wavelengths
Number of Pixels in Spectrum: 3648
>>>>>Begin Spectral Data<<<<<
178.204	-129.7
178.424	-129.7
178.644	-129.7
178.864	-72.36
179.084	-68.27
179.304	-29.35
179.524	-4.78
179.744	-21.16
179.964	21.85
180.184	-2.73
180.404	75.09
180.624	-4.78
180.844	13.65
181.064	-55.98
181.283	19.8
181.503	-55.98
181.723	44.37
181.943	-39.59
182.163	128.34
182.383	124.24
182.602	1.37
182.822	118.1
183.042	32.08
183.262	66.9
183.482	64.85
183.701	46.42
183.921	87.38
184.141	-8.87
184.361	58.71
184.58	71
184.8	52.56
185.02	85.33
185.239	128.34
185.459	54.61
185.679	21.85
185.898	25.94
186.118	52.56
186.338	50.52
186.557	27.99
186.777	23.89
186.997	-39.59
187.216	19.8
187.436	124.24
187.655	146.77
187.875	97.62
188.095	42.32
188.314	46.42
188.534	71
188.753	40.28
188.973	99.67
189.192	75.09
189.412	7.51
189.631	54.61
189.851	-15.02
190.07	48.47
190.29	-21.16
190.509	38.23
190.729	58.71
190.948	42.32
191.168	134.48
191.387	93.52
191.607	-47.79
191.826	1.37
192.045	97.62
192.265	46.42
192.484	-23.21
192.704	3.41
192.923	44.37
193.142	73.04
193.362	36.18
193.581	34.13
193.8	-37.55
194.02	27.99
194.239	54.61
194.458	21.85
194.678	34.13
194.897	118.1
195.116	126.29
195.335	-60.07
195.555	118.1
195.774	52.56
195.993	73.04
196.212	64.85
196.432	34.13
196.651	38.23
196.87	23.89
197.089	118.1
197.308	3.41
197.528	95.57
197.747	3.41
197.966	50.52
198.185	75.09
198.404	25.94
198.623	19.8
198.842	144.72
199.062	52.56
199.281	66.9
199.5	71
199.719	25.94
199.938	48.47
200.157	159.06
200.376	99.67
200.595	83.28
200.814	36.18
201.033	27.99
201.252	13.65
201.471	54.61
201.69	60.76
201.909	-0.68
202.128	1.37
202.347	32.08
202.566	19.8
202.785	83.28
203.004	25.94
203.223	101.72
203.442	-19.11
203.661	-21.16
203.879	23.89
204.098	120.15
204.317	-45.74
204.536	34.13
204.755	77.14
204.974	9.56
205.193	25.94
205.411	132.44
205.63	11.61
205.849	132.44
206.068	50.52
206.287	32.08
206.505	42.32
206.724	52.56
206.943	-12.97
207.162	9.56
207.381	32.08
207.599	40.28
207.818	40.28
208.037	42.32
208.255	-17.07
208.474	40.28
208.693	34.13
208.911	40.28
209.13	52.56
209.349	56.66
209.567	91.48
209.786	120.15
210.005	42.32
210.223	120.15
210.442	-4.78
210.661	17.75
210.879	-37.55
211.098	-6.83
211.316	116.05
211.535	46.42
211.753	25.94
211.972	77.14
212.191	30.04
212.409	9.56
212.628	54.61
212.846	73.04
213.065	62.8
213.283	89.43
213.502	-6.83
213.72	3.41
213.938	75.09
214.157	71
214.375	17.75
214.594	42.32
214.812	159.06
215.031	-15.02
215.249	58.71
215.467	58.71
215.686	1.37
215.904	52.56
216.122	103.76
216.341	-2.73
216.559	62.8
216.778	85.33
216.996	46.42
217.214	38.23
217.432	46.42
217.651	-0.68
217.869	58.71
218.087	91.48
218.306	13.65
218.524	75.09
218.742	50.52
218.96	42.32
219.179	58.71
219.397	32.08
219.615	93.52
219.833	116.05
220.051	-49.83
220.27	64.85
220.488	85.33
220.706	50.52
220.924	36.18
221.142	58.71
221.36	52.56
221.578	21.85
221.796	23.89
222.015	-6.83
222.233	34.13
222.451	36.18
222.669	13.65
222.887	77.14
223.105	68.95
223.323	-31.4
223.541	50.52
223.759	103.76
223.977	13.65
224.195	34.13
224.413	58.71
224.631	83.28
224.849	118.1
225.067	25.94
225.285	25.94
225.503	71
225.721	-35.5
225.939	-21.16
226.157	48.47
226.375	46.42
226.592	9.56
226.81	83.28
227.028	34.13
227.246	15.7
227.464	124.24
227.682	42.32
227.9	124.24
228.117	95.57
228.335	38.23
228.553	17.75
228.771	83.28
228.989	118.1
229.206	97.62
229.424	34.13
229.642	75.09
229.86	89.43
230.077	13.65
230.295	71
230.513	-0.68
230.731	103.76
230.948	54.61
231.166	71
231.384	25.94
231.601	1.37
231.819	-10.92
232.037	30.04
232.254	-21.16
232.472	36.18
232.689	-8.87
232.907	52.56
233.125	77.14
233.342	19.8
233.56	50.52
233.777	17.75
233.995	3.41
234.213	42.32
234.43	66.9
234.648	103.76
234.865	136.53
235.083	79.19
235.3	50.52
235.518	66.9
235.735	91.48
235.953	99.67
236.17	17.75
236.388	-6.83
236.605	75.09
236.822	36.18
237.04	99.67
237.257	62.8
237.475	13.65
237.692	27.99
237.909	93.52
238.127	58.71
238.344	46.42
238.562	58.71
238.779	5.46
238.996	25.94
239.214	75.09
239.431	52.56
239.648	-27.31
239.865	44.37
240.083	105.81
240.3	103.76
240.517	-2.73
240.735	66.9
240.952	75.09
241.169	62.8
241.386	30.04
241.603	-6.83
241.821	25.94
242.038	25.94
242.255	77.14
242.472	58.71
242.689	75.09
242.907	32.08
243.124	75.09
243.341	30.04
243.558	-23.21
243.775	83.28
243.992	85.33
244.209	17.75
244.426	116.05
244.643	46.42
244.86	15.7
245.078	111.96
245.295	66.9
245.512	5.46
245.729	52.56
245.946	91.48
246.163	44.37
246.38	71
246.597	25.94
246.814	87.38
247.031	3.41
247.248	44.37
247.464	60.76
247.681	93.52
247.898	124.24
248.115	9.56
248.332	1.37
248.549	34.13
248.766	83.28
248.983	103.76
249.2	30.04
249.417	103.76
249.633	-12.97
249.85	66.9
250.067	79.19
250.284	68.95
250.501	9.56
250.717	25.94
250.934	40.28
251.151	1.37
251.368	-8.87
251.585	83.28
251.801	50.52
252.018	40.28
252.235	107.86
252.451	-10.92
252.668	48.47
252.885	128.34
253.102	9.56
253.318	42.32
253.535	50.52
253.752	-51.88
253.968	44.37
254.185	52.56
254.401	42.32
254.618	25.94
254.835	11.61
255.051	109.91
255.268	7.51
255.484	46.42
255.701	13.65
255.917	103.76
256.134	46.42
256.351	36.18
256.567	13.65
256.784	66.9
257	21.85
257.217	66.9
257.433	66.9
257.65	-53.93
257.866	120.15
258.082	91.48
258.299	1.37
258.515	95.57
258.732	7.51
258.948	-23.21
259.165	85.33
259.381	5.46
259.597	68.95
259.814	34.13
260.03	66.9
260.246	58.71
260.463	126.29
260.679	91.48
260.895	7.51
261.112	52.56
261.328	-19.11
261.544	13.65
261.761	128.34
261.977	152.92
262.193	25.94
262.409	75.09
262.626	9.56
262.842	58.71
263.058	60.76
263.274	71
263.49	42.32
263.707	34.13
263.923	17.75
264.139	99.67
264.355	99.67
264.571	120.15
264.787	13.65
265.004	85.33
265.22	27.99
265.436	27.99
265.652	21.85
265.868	5.46
266.084	54.61
266.3	148.82
266.516	66.9
266.732	44.37
266.948	25.94
267.164	75.09
267.38	30.04
267.596	75.09
267.812	50.52
268.028	54.61
268.244	83.28
268.46	68.95
268.676	25.94
268.892	52.56
269.108	50.52
269.324	-4.78
269.54	42.32
269.756	25.94
269.972	-15.02
270.188	44.37
270.403	91.48
270.619	19.8
270.835	87.38
271.051	64.85
271.267	62.8
271.483	91.48
271.698	157.01
271.914	60.76
272.13	-6.83
272.346	62.8
272.562	34.13
272.777	95.57
272.993	58.71
273.209	85.33
273.425	11.61
273.64	-2.73
273.856	93.52
274.072	-6.83
274.287	109.91
274.503	36.18
274.719	1.37
274.934	107.86
275.15	5.46
275.366	42.32
275.581	-47.79
275.797	5.46
276.012	34.13
276.228	3.41
276.444	75.09
276.659	75.09
276.875	11.61
277.09	71
277.306	42.32
277.521	66.9
277.737	42.32
277.952	25.94
278.168	23.89
278.383	58.71
278.599	75.09
278.814	-6.83
279.03	40.28
279.245	75.09
279.461	50.52
279.676	58.71
279.892	38.23
280.107	17.75
280.322	5.46
280.538	75.09
280.753	64.85
280.969	79.19
281.184	-45.74
281.399	87.38
281.615	122.2
281.83	114
282.045	30.04
282.26	19.8
282.476	64.85
282.691	132.44
282.906	79.19
283.122	-12.97
283.337	23.89
283.552	25.94
283.767	-4.78
283.983	42.32
284.198	42.32
284.413	5.46
284.628	-55.98
284.843	32.08
285.058	99.67
285.274	48.47
285.489	11.61
285.704	34.13
285.919	25.94
286.134	48.47
286.349	9.56
286.564	34.13
286.779	124.24
286.995	107.86
287.21	-31.4
287.425	95.57
287.64	32.08
287.855	128.34
288.07	48.47
288.285	68.95
288.5	46.42
288.715	30.04
288.93	17.75
289.145	38.23
289.36	132.44
289.575	27.99
289.79	17.75
290.004	38.23
290.219	128.34
290.434	95.57
290.649	66.9
290.864	71
291.079	93.52
291.294	54.61
291.509	62.8
291.724	44.37
291.938	-21.16
292.153	91.48
292.368	91.48
292.583	46.42
292.798	58.71
293.012	91.48
293.227	50.52
293.442	60.76
293.657	50.52
293.871	79.19
294.086	62.8
294.301	68.95
294.516	91.48
294.73	36.18
294.945	66.9
295.16	81.24
295.374	87.38
295.589	21.85
295.804	11.61
296.018	38.23
296.233	21.85
296.447	30.04
296.662	79.19
296.877	66.9
297.091	85.33
297.306	64.85
297.52	56.66
297.735	68.95
297.949	36.18
298.164	9.56
298.378	85.33
298.593	27.99
298.807	1.37
299.022	42.32
299.236	87.38
299.451	62.8
299.665	73.04
299.88	19.8
300.094	30.04
300.309	81.24
300.523	46.42
300.737	114
300.952	54.61
301.166	87.38
301.381	32.08
301.595	97.62
301.809	40.28
302.024	34.13
302.238	-8.87
302.452	52.56
302.667	21.85
302.881	171.35
303.095	75.09
303.309	79.19
303.524	58.71
303.738	101.72
303.952	157.01
304.166	107.86
304.381	-12.97
304.595	79.19
304.809	-10.92
305.023	-23.21
305.237	17.75
305.452	30.04
305.666	66.9
305.88	75.09
306.094	30.04
306.308	75.09
306.522	93.52
306.736	159.06
306.95	114
307.164	114
307.379	111.96
307.593	85.33
307.807	3.41
308.021	34.13
308.235	1.37
308.449	1.37
308.663	-31.4
308.877	85.33
309.091	32.08
309.305	52.56
309.519	66.9
309.733	34.13
309.947	9.56
310.161	71
310.374	136.53
310.588	101.72
310.802	13.65
311.016	34.13
311.23	9.56
311.444	27.99
311.658	34.13
311.872	75.09
312.085	-6.83
312.299	42.32
312.513	34.13
312.727	9.56
312.941	-23.21
313.154	97.62
313.368	3.41
313.582	124.24
313.796	25.94
314.009	58.71
314.223	91.48
314.437	148.82
314.651	128.34
314.864	42.32
315.078	36.18
315.292	-4.78
315.505	93.52
315.719	116.05
315.933	27.99
316.146	132.44
316.36	-2.73
316.573	36.18
316.787	71
317.001	52.56
317.214	27.99
317.428	75.09
317.641	25.94
317.855	68.95
318.068	25.94
318.282	25.94
318.495	68.95
318.709	-10.92
318.922	44.37
319.136	107.86
319.349	81.24
319.563	1.37
319.776	13.65
319.99	50.52
320.203	52.56
320.417	52.56
320.63	124.24
320.843	83.28
321.057	-47.79
321.27	34.13
321.483	66.9
321.697	66.9
321.91	21.85
322.124	85.33
322.337	50.52
322.55	89.43
322.763	54.61
322.977	107.86
323.19	17.75
323.403	64.85
323.617	75.09
323.83	91.48
324.043	64.85
324.256	36.18
324.469	58.71
324.683	107.86
324.896	13.65
325.109	25.94
325.322	46.42
325.535	42.32
325.748	93.52
325.962	-21.16
326.175	25.94
326.388	64.85
326.601	75.09
326.814	62.8
327.027	83.28
327.24	83.28
327.453	116.05
327.666	54.61
327.879	68.95
328.092	58.71
328.305	95.57
328.518	25.94
328.731	-4.78
328.944	103.76
329.157	48.47
329.37	64.85
329.583	132.44
329.796	91.48
330.009	93.52
330.222	124.24
330.435	36.18
330.648	64.85
330.861	-19.11
331.073	5.46
331.286	83.28
331.499	38.23
331.712	95.57
331.925	50.52
332.138	87.38
332.35	73.04
332.563	44.37
332.776	27.99
332.989	93.52
333.202	52.56
333.414	60.76
333.627	66.9
333.84	19.8
334.053	62.8
334.265	38.23
334.478	19.8
334.691	19.8
334.903	-10.92
335.116	58.71
335.329	52.56
335.541	75.09
335.754	134.48
335.966	60.76
336.179	13.65
336.392	52.56
336.604	68.95
336.817	87.38
337.029	75.09
337.242	34.13
337.454	50.52
337.667	73.04
337.88	93.52
338.092	66.9
338.305	17.75
338.517	66.9
338.729	68.95
338.942	116.05
339.154	-17.07
339.367	42.32
339.579	52.56
339.792	42.32
340.004	30.04
340.217	50.52
340.429	107.86
340.641	77.14
340.854	34.13
341.066	58.71
341.278	107.86
341.491	103.76
341.703	75.09
341.915	27.99
342.128	34.13
342.34	79.19
342.552	91.48
342.764	126.29
342.977	42.32
343.189	105.81
343.401	120.15
343.613	7.51
343.826	99.67
344.038	30.04
344.25	99.67
344.462	44.37
344.674	58.71
344.886	34.13
345.099	75.09
345.311	11.61
345.523	-47.79
345.735	27.99
345.947	93.52
346.159	42.32
346.371	107.86
346.583	60.76
346.795	77.14
347.007	-10.92
347.219	89.43
347.431	9.56
347.643	99.67
347.855	-15.02
348.067	124.24
348.279	19.8
348.491	132.44
348.703	27.99
348.915	87.38
349.127	-2.73
349.339	19.8
349.551	3.41
349.763	118.1
349.975	-8.87
350.187	116.05
350.399	75.09
350.61	-6.83
350.822	83.28
351.034	75.09
351.246	50.52
351.458	75.09
351.669	9.56
351.881	89.43
352.093	99.67
352.305	48.47
352.517	103.76
352.728	40.28
352.94	50.52
353.152	87.38
353.363	93.52
353.575	75.09
353.787	107.86
353.999	60.76
354.21	130.39
354.422	60.76
354.633	66.9
354.845	91.48
355.057	77.14
355.268	118.1
355.48	36.18
355.692	54.61
355.903	56.66
356.115	34.13
356.326	-29.35
356.538	79.19
356.749	62.8
356.961	66.9
357.172	19.8
357.384	111.96
357.595	132.44
357.807	66.9
358.018	52.56
358.23	1.37
358.441	99.67
358.653	3.41
358.864	52.56
359.075	107.86
359.287	42.32
359.498	99.67
359.709	183.63
359.921	1.37
360.132	27.99
360.344	44.37
360.555	50.52
360.766	58.71
360.977	118.1
361.189	118.1
361.4	30.04
361.611	99.67
361.823	124.24
362.034	40.28
362.245	5.46
362.456	64.85
362.667	-6.83
362.879	68.95
363.09	52.56
363.301	126.29
363.512	85.33
363.723	62.8
363.935	77.14
364.146	27.99
364.357	27.99
364.568	46.42
364.779	46.42
364.99	95.57
365.201	54.61
365.412	85.33
365.623	3.41
365.834	3.41
366.045	105.81
366.256	-2.73
366.467	107.86
366.678	66.9
366.889	30.04
367.1	50.52
367.311	79.19
367.522	75.09
367.733	50.52
367.944	58.71
368.155	71
368.366	103.76
368.577	46.42
368.788	120.15
368.999	27.99
369.209	83.28
369.42	99.67
369.631	107.86
369.842	116.05
370.053	75.09
370.264	21.85
370.474	19.8
370.685	50.52
370.896	124.24
371.107	118.1
371.317	116.05
371.528	111.96
371.739	97.62
371.95	111.96
372.16	97.62
372.371	71
372.582	107.86
372.792	81.24
373.003	126.29
373.214	30.04
373.424	58.71
373.635	66.9
373.846	50.52
374.056	48.47
374.267	27.99
374.477	17.75
374.688	54.61
374.898	66.9
375.109	50.52
375.319	44.37
375.53	111.96
375.74	81.24
375.951	38.23
376.161	42.32
376.372	140.63
376.582	42.32
376.793	83.28
377.003	95.57
377.214	62.8
377.424	50.52
377.635	134.48
377.845	66.9
378.055	124.24
378.266	-39.59
378.476	93.52
378.686	62.8
378.897	114
379.107	50.52
379.317	132.44
379.528	-2.73
379.738	77.14
379.948	25.94
380.158	95.57
380.369	75.09
380.579	83.28
380.789	32.08
380.999	83.28
381.21	38.23
381.42	124.24
381.63	79.19
381.84	120.15
382.05	46.42
382.261	165.2
382.471	52.56
382.681	-15.02
382.891	58.71
383.101	83.28
383.311	46.42
383.521	50.52
383.731	114
383.941	66.9
384.151	77.14
384.361	25.94
384.571	173.39
384.781	83.28
384.991	50.52
385.201	99.67
385.411	27.99
385.621	25.94
385.831	83.28
386.041	75.09
386.251	52.56
386.461	87.38
386.671	40.28
386.881	85.33
387.091	103.76
387.301	142.68
387.511	38.23
387.72	66.9
387.93	197.97
388.14	48.47
388.35	81.24
388.56	103.76
388.769	75.09
388.979	27.99
389.189	68.95
389.399	64.85
389.609	75.09
389.818	116.05
390.028	85.33
390.238	66.9
390.447	52.56
390.657	73.04
390.867	54.61
391.076	30.04
391.286	144.72
391.496	54.61
391.705	75.09
391.915	99.67
392.125	124.24
392.334	148.82
392.544	189.78
392.753	116.05
392.963	30.04
393.172	116.05
393.382	71
393.591	140.63
393.801	130.39
394.01	208.21
394.22	140.63
394.429	111.96
394.639	101.72
394.848	85.33
395.058	66.9
395.267	124.24
395.477	107.86
395.686	97.62
395.895	140.63
396.105	91.48
396.314	193.87
396.524	116.05
396.733	107.86
396.942	195.92
397.152	177.49
397.361	118.1
397.57	79.19
397.78	34.13
397.989	138.58
398.198	236.88
398.407	58.71
398.617	99.67
398.826	138.58
399.035	75.09
399.244	128.34
399.453	109.91
399.663	212.31
399.872	157.01
400.081	91.48
400.29	173.39
400.499	103.76
400.708	140.63
400.917	124.24
401.127	175.44
401.336	91.48
401.545	142.68
401.754	159.06
401.963	183.63
402.172	99.67
402.381	85.33
402.59	128.34
402.799	85.33
403.008	161.11
403.217	197.97
403.426	148.82
403.635	132.44
403.844	148.82
404.053	165.2
404.262	255.31
404.471	193.87
404.68	132.44
404.888	197.97
405.097	189.78
405.306	191.83
405.515	228.69
405.724	200.02
405.933	189.78
406.142	240.98
406.35	214.35
406.559	222.55
406.768	230.74
406.977	298.32
407.185	240.98
407.394	296.27
407.603	195.92
407.812	281.94
408.02	279.89
408.229	312.66
408.438	230.74
408.646	275.79
408.855	279.89
409.064	300.37
409.272	288.08
409.481	353.62
409.69	265.55
409.898	370
410.107	415.06
410.315	402.77
410.524	478.54
410.733	396.62
410.941	451.92
411.15	462.16
411.358	519.5
411.567	462.16
411.775	470.35
411.984	593.23
412.192	595.28
412.401	570.7
412.609	607.56
412.818	617.8
413.026	607.56
413.234	607.56
413.443	673.1
413.651	650.57
413.86	746.83
414.068	855.37
414.276	800.07
414.485	709.96
414.693	802.12
414.901	787.79
415.11	849.22
415.318	884.04
415.526	914.76
415.734	875.85
415.943	912.71
416.151	927.05
416.359	959.81
416.567	1084.74
416.776	1058.12
416.984	1150.28
417.192	1156.42
417.4	1224
417.608	1232.19
417.817	1244.48
418.025	1359.17
418.233	1463.62
418.441	1303.87
418.649	1473.85
418.857	1590.59
419.065	1492.29
419.273	1492.29
419.481	1639.74
419.689	1738.04
419.897	1824.06
420.105	1797.43
420.313	1959.22
420.521	1969.46
420.729	2026.81
420.937	1936.7
421.145	2106.68
421.353	2198.84
421.561	2403.63
421.769	2360.63
421.977	2432.3
422.185	2368.82
422.393	2520.37
422.601	2729.26
422.809	2706.73
423.017	2848.04
423.224	2944.3
423.432	2999.59
423.64	3089.7
423.848	3261.73
424.056	3251.49
424.263	3421.47
424.471	3308.83
424.679	3640.61
424.887	3570.97
425.094	3855.64
425.302	3777.82
425.51	4121.88
425.718	4101.4
425.925	4189.46
426.133	4298
426.341	4617.49
426.548	4582.67
426.756	4642.06
426.964	4752.65
427.171	5025.03
427.379	4957.45
427.586	5178.63
427.794	5496.07
428.001	5516.55
428.209	5797.12
428.417	5645.57
428.624	6274.29
428.832	6120.7
429.039	6114.55
429.247	6202.61
429.454	6655.22
429.662	7322.85
429.869	6812.91
430.076	7333.09
430.284	6956.27
430.491	7249.13
430.699	7644.38
430.906	7613.67
431.114	7726.3
431.321	7976.16
431.528	8199.38
431.736	8584.4
431.943	9161.93
432.15	9065.67
432.358	9014.48
432.565	9579.72
432.772	9524.42
432.979	9938.11
433.187	10052.8
433.394	10413.24
433.601	10851.5
433.808	10876.08
434.016	11015.34
434.223	11457.7
434.43	11879.58
434.637	11558.05
434.844	12377.24
435.052	12600.47
435.259	12862.61
435.466	12774.55
435.673	12713.11
435.88	13405.32
436.087	14210.17
436.294	13972.61
436.501	13769.86
436.708	14115.97
436.915	14394.49
437.122	15172.72
437.329	15055.98
437.537	15848.55
437.743	15705.19
437.95	15844.45
438.157	16563.29
438.364	17222.73
438.571	17189.97
438.778	17196.11
438.985	18648.12
439.192	17968.2
439.399	18469.95
439.606	18041.92
439.813	19258.42
440.02	20380.7
440.227	19756.07
440.433	19977.25
440.64	20343.84
440.847	20304.93
441.054	21023.76
441.261	21959.69
441.467	21890.06
441.674	22234.11
441.881	22946.81
442.088	23217.14
442.294	22885.37
442.501	23593.97
442.708	24130.53
442.914	24722.4
443.121	25686.99
443.328	25498.58
443.534	26971.07
443.741	26225.61
443.948	25646.03
444.154	27681.71
444.361	27483.06
444.568	27556.78
444.774	28083.11
444.981	27878.32
445.187	28691.36
445.394	29754.26
445.6	29567.89
445.807	32183.15
446.013	31206.27
446.22	31824.75
446.426	32926.56
446.633	33069.92
446.839	34364.23
447.046	32924.51
447.252	34624.32
447.459	34659.14
447.665	34614.09
447.871	35916.59
448.078	37370.65
448.284	35752.76
448.491	36760.36
448.697	38476.55
448.903	38644.49
449.11	39170.82
449.316	38097.68
449.522	38714.12
449.728	40389.36
449.935	40137.46
450.141	40051.44
450.347	40991.46
450.553	39949.04
450.76	40469.23
450.966	41951.96
451.172	40995.56
451.378	42377.93
451.584	41616.09
451.791	42545.87
451.997	42396.37
452.203	43236.03
452.409	42945.22
452.615	42742.47
452.821	41425.63
453.027	41177.82
453.233	43313.86
453.44	41618.14
453.646	41831.13
453.852	42515.15
454.058	42754.76
454.264	41509.6
454.47	42840.78
454.676	41480.92
454.882	42980.04
455.088	39166.72
455.294	40145.65
455.5	40301.29
455.705	40878.82
455.911	39183.1
456.117	38189.84
456.323	38099.73
456.529	35957.55
456.735	37989.14
456.941	36651.81
457.147	36391.72
457.352	35552.05
457.558	34929.47
457.764	34843.46
457.97	34292.55
458.176	33545.05
458.381	33512.28
458.587	32252.78
458.793	31593.33
458.999	30606.21
459.204	32498.53
459.41	31398.77
459.616	29658
459.821	29576.08
460.027	29543.31
460.233	29014.94
460.438	27372.47
460.644	28152.74
460.85	26569.66
461.055	26090.44
461.261	26182.6
461.466	23985.13
461.672	23565.29
461.878	24992.73
462.083	23505.9
462.289	23221.23
462.494	22684.67
462.7	21697.55
462.905	21281.81
463.111	21869.58
463.316	22014.98
463.522	21515.28
463.727	21611.53
463.932	21468.17
464.138	21343.25
464.343	21322.77
464.549	20540.44
464.754	21564.43
464.959	21089.3
465.165	21158.93
465.37	20356.13
465.575	19635.24
465.781	20483.1
465.986	20595.74
466.191	19833.89
466.397	19729.45
466.602	18474.04
466.807	19137.59
467.012	19092.53
467.218	18900.02
467.423	18924.6
467.628	19006.52
467.833	20093.99
468.038	18957.36
468.244	18461.76
468.449	19455.02
468.654	18678.84
468.859	18605.11
469.064	18162.75
469.269	17935.43
469.474	17917
469.679	18318.4
469.885	17847.36
470.09	18003.01
470.295	17996.87
470.5	17411.15
470.705	17452.11
470.91	17273.93
471.115	17101.9
471.32	17169.49
471.525	17089.62
471.73	16579.67
471.935	16827.48
472.139	16204.89
472.344	16155.74
472.549	16344.16
472.754	15907.94
472.959	15565.93
473.164	15326.32
473.369	15242.35
473.574	15707.24
473.778	15314.03
473.983	15412.33
474.188	15387.75
474.393	14869.62
474.598	14611.57
474.802	14627.96
475.007	14345.34
475.212	14529.66
475.417	14042.24
475.621	13890.69
475.826	14103.68
476.031	13728.9
476.235	13440.14
476.44	13950.08
476.645	13204.62
476.849	13640.84
477.054	13259.92
477.259	12952.72
477.463	13130.89
477.668	12747.92
477.872	13051.02
478.077	12870.8
478.282	12344.47
478.486	12434.58
478.691	12252.31
478.895	12403.86
479.1	12330.14
479.304	12444.82
479.509	11953.31
479.713	12229.79
479.918	11918.5
480.122	11588.77
480.326	11787.43
480.531	11652.26
480.735	11748.51
480.94	11547.81
481.144	12022.94
481.348	11207.85
481.553	11549.86
481.757	11197.61
481.961	11502.76
482.166	11578.53
482.37	11285.67
482.574	11359.4
482.778	11254.95
482.983	11424.94
483.187	11127.98
483.391	11400.36
483.595	11015.34
483.8	10896.56
484.004	11269.29
484.208	11291.82
484.412	11209.9
484.616	11431.08
484.821	11490.47
485.025	10943.66
485.229	11592.87
485.433	11228.33
485.637	11605.16
485.841	11238.57
486.045	11111.6
486.249	11166.89
486.453	11160.75
486.657	11259.05
486.861	11191.47
487.065	11101.36
487.269	11087.02
487.473	10976.43
487.677	11216.04
487.881	11302.06
488.085	11443.37
488.289	11439.27
488.493	11257
488.697	11310.25
488.901	11429.03
489.105	11486.37
489.309	11420.84
489.512	11564.2
489.716	11500.71
489.92	11519.14
490.124	11502.76
490.328	11685.03
490.531	11619.49
490.735	11469.99
490.939	11725.99
491.143	11639.97
491.346	11441.32
491.55	11691.17
491.754	11779.23
491.958	11789.47
492.161	11787.43
492.365	11932.83
492.569	11793.57
492.772	11779.23
492.976	11949.22
493.18	12215.45
493.383	12092.57
493.587	12369.05
493.79	12539.03
493.994	12315.8
494.197	12266.65
494.401	12606.61
494.605	12510.36
494.808	12795.03
495.012	12864.66
495.215	12872.85
495.419	13124.75
495.622	12919.95
495.825	13036.69
496.029	12942.48
496.232	13493.38
496.436	13008.01
496.639	13692.04
496.843	13477
497.046	13976.7
497.249	14056.57
497.453	13905.03
497.656	14191.74
497.859	14066.81
498.063	14611.57
498.266	14650.49
498.469	14587
498.673	14789.75
498.876	15090.8
499.079	14994.54
499.282	15142
499.485	15520.87
499.689	15293.55
499.892	15674.47
500.095	15780.96
500.298	16063.58
500.501	16077.92
500.705	16450.65
500.908	16532.57
501.111	16688.21
501.314	16991.31
501.517	17069.14
501.72	17378.38
501.923	17232.97
502.126	17744.97
502.329	17798.21
502.532	17710.15
502.735	18134.08
502.938	18312.25
503.141	18474.04
503.344	19002.42
503.547	18811.96
503.75	19164.21
503.953	19393.58
504.156	19696.68
504.359	19641.39
504.562	19690.54
504.765	20493.34
504.968	20325.41
505.17	20626.46
505.373	20522.01
505.576	21081.11
505.779	21335.06
505.982	21650.44
506.185	21890.06
506.387	21726.22
506.59	21937.16
506.793	22457.34
506.996	22215.68
507.198	23221.23
507.401	23018.49
507.604	23086.07
507.807	23622.64
508.009	23858.15
508.212	23790.57
508.415	24364
508.617	24458.21
508.82	24460.26
509.022	24720.35
509.225	25187.28
509.428	25375.7
509.63	25871.31
509.833	25355.22
510.035	26168.26
510.238	26129.35
510.44	26627.01
510.643	26928.06
510.845	27372.47
511.048	27136.95
511.25	27079.61
511.453	27560.88
511.655	28904.35
511.858	28218.28
512.06	28767.13
512.262	28738.46
512.465	28672.93
512.667	29506.45
512.87	29367.19
513.072	29834.13
513.274	29946.76
513.477	30514.05
513.679	30382.98
513.881	30851.97
514.084	31150.97
514.286	31179.64
514.488	31669.11
514.69	32101.23
514.893	32207.72
515.095	32627.56
515.297	32965.47
515.499	33186.65
515.701	33112.92
515.904	33682.26
516.106	33577.81
516.308	34208.59
516.51	34687.81
516.712	34526.02
516.914	35185.47
517.116	35484.47
517.318	35773.24
517.52	35785.52
517.722	36125.49
517.925	36746.02
518.127	36965.15
518.329	37004.06
518.531	36578.09
518.733	38046.48
518.935	38134.54
519.136	37976.85
519.338	38458.12
519.54	38777.61
519.742	39088.9
519.944	39281.41
520.146	39863.03
520.348	40239.86
520.55	40168.18
520.752	40258.29
520.954	41382.62
521.155	41122.53
521.357	41730.78
521.559	41769.69
521.761	42173.14
521.963	42310.35
522.164	42519.24
522.366	42293.97
522.568	42867.4
522.77	43184.83
522.971	43637.44
523.173	43270.85
523.375	43500.22
523.576	43594.43
523.778	44171.96
523.98	44548.78
524.181	44849.83
524.383	44985
524.584	45169.32
524.786	45187.75
524.988	45054.63
525.189	45931.16
525.391	46213.78
525.592	46617.23
525.794	46316.18
525.995	46381.71
526.197	46750.35
526.398	46709.39
526.6	47053.45
526.801	47327.88
527.003	47399.55
527.204	47577.73
527.406	47762.04
527.607	47772.28
527.808	48583.28
528.01	47350.4
528.211	48110.2
528.412	48634.48
528.614	48870
528.815	48618.1
529.016	48806.51
529.218	48364.15
529.419	48769.65
529.62	49062.5
529.822	49025.64
530.023	48798.32
530.224	49255.01
530.425	49015.4
530.626	49152.62
530.828	49123.94
531.029	49746.53
531.23	49216.1
531.431	49764.96
531.632	49486.43
531.833	49715.81
532.035	49740.38
532.236	49934.94
532.437	50004.57
532.638	49816.16
532.839	49812.06
533.04	49861.21
533.241	49746.53
533.442	50580.05
533.643	50076.25
533.844	49713.76
534.045	50027.1
534.246	49908.32
534.447	50000.47
534.648	50154.07
534.849	50266.71
535.05	49609.31
535.251	50096.73
535.451	50008.67
535.652	50197.08
535.853	50451.03
536.054	50469.46
536.255	50215.51
536.456	49795.68
536.657	50561.62
536.857	50303.57
537.058	50174.55
537.259	50444.88
537.46	50557.52
537.66	49918.56
537.861	50285.14
538.062	49871.45
538.263	50672.21
538.463	49781.34
538.664	50074.2
538.865	50092.63
539.065	50272.85
539.266	49934.94
539.466	50588.24
539.667	49959.51
539.868	50145.88
540.068	50170.46
540.269	50012.76
540.469	49668.7
540.67	50098.78
540.87	49969.75
541.071	49842.78
541.271	49934.94
541.472	50332.25
541.672	50037.34
541.873	50025.05
542.073	49396.32
542.274	50133.59
542.474	50283.09
542.675	49642.08
542.875	50526.8
543.075	50199.13
543.276	49212.01
543.476	50000.47
543.676	49957.47
543.877	50260.57
544.077	49992.28
544.277	49705.57
544.478	49988.19
544.678	50215.51
544.878	50053.72
545.078	49814.11
545.279	49486.43
545.479	49662.56
545.679	49928.8
545.879	49699.42
546.079	49470.05
546.28	49924.7
546.48	49594.98
546.68	49527.39
546.88	49498.72
547.08	49724
547.28	49556.07
547.48	49265.25
547.68	49994.33
547.88	49285.73
548.081	49850.97
548.281	49797.73
548.481	49160.81
548.681	49879.64
548.881	49779.29
549.081	49330.79
549.28	49179.24
549.48	49312.36
549.68	49158.76
549.88	49838.68
550.08	49506.91
550.28	49603.17
550.48	49312.36
550.68	49965.66
550.88	48988.78
551.08	49046.12
551.279	49517.15
551.479	48900.72
551.679	49293.93
551.879	48906.86
552.079	49836.64
552.278	49265.25
552.478	49578.59
552.678	49140.33
552.878	49445.47
553.077	48845.42
553.277	48640.62
553.477	49306.21
553.676	49091.18
553.876	48949.87
554.076	48867.95
554.275	48824.94
554.475	48378.48
554.674	48978.54
554.874	48951.91
555.074	49216.1
555.273	48761.45
555.473	49318.5
555.672	48470.64
555.872	48198.26
556.071	48577.14
556.271	49060.46
556.47	48415.35
556.67	48304.76
556.869	48394.87
557.068	48915.05
557.268	48462.45
557.467	48398.96
557.667	48034.42
557.866	48605.81
558.065	48372.34
558.265	48198.26
558.464	47731.32
558.663	48624.24
558.863	47868.54
559.062	48659.05
559.261	47860.35
559.461	48411.25
559.66	47350.4
559.859	47956.6
560.058	47651.45
560.258	47723.13
560.457	47311.49
560.656	48042.62
560.855	47659.65
561.054	47567.49
561.253	47299.2
561.453	47708.8
561.652	47489.66
561.851	47553.15
562.05	47217.28
562.249	47254.15
562.448	47516.29
562.647	47098.5
562.846	46916.23
563.045	47094.41
563.244	46387.86
563.443	47405.7
563.642	46682.76
563.841	46914.19
564.04	46236.31
564.239	46426.77
564.438	46547.6
564.637	46301.84
564.836	46441.1
565.035	46156.44
565.234	46373.52
565.432	46258.84
565.631	46008.98
565.83	46389.91
566.029	46127.77
566.228	45941.4
566.427	45750.94
566.625	45492.9
566.824	45615.77
567.023	45882.01
567.222	45284
567.42	45671.07
567.619	45353.63
567.818	45316.77
568.016	45107.88
568.215	45583.01
568.414	45040.29
568.612	45607.58
568.811	44886.7
569.01	44468.91
569.208	44376.75
569.407	45116.07
569.605	44192.43
569.804	44593.84
570.002	44303.03
570.201	44364.46
570.4	44063.41
570.598	44202.67
570.797	44133.04
570.995	44307.12
571.193	43700.92
571.392	43901.62
571.59	43981.49
571.789	43426.49
571.987	43348.67
572.186	43416.25
572.384	43131.59
572.582	43532.99
572.781	43569.85
572.979	43021
573.177	42980.04
573.376	43086.53
573.574	42769.1
573.772	43164.35
573.971	42568.4
574.169	42578.64
574.367	42085.08
574.565	42592.97
574.763	42234.58
574.962	42177.23
575.16	41814.74
575.358	42179.28
575.556	41478.88
575.754	42386.13
575.952	41448.16
576.151	42076.88
576.349	41284.32
576.547	41566.94
576.745	41706.2
576.943	41816.79
577.141	41138.91
577.339	41368.29
577.537	40952.55
577.735	40936.16
577.933	40551.15
578.131	40975.08
578.329	40680.17
578.527	40583.91
578.725	40651.5
578.923	40637.16
579.121	40426.22
579.319	40186.61
579.516	40704.74
579.714	40323.82
579.912	39887.6
580.11	39617.27
580.308	39903.99
580.506	39484.15
580.704	39332.61
580.901	39611.13
581.099	39766.77
581.297	39486.2
581.495	39215.87
581.692	39672.57
581.89	39101.18
582.088	38939.4
582.285	39146.24
582.483	39002.88
582.681	38841.09
582.878	38812.42
583.076	38648.58
583.274	38535.95
583.471	37911.31
583.669	38388.49
583.866	38208.27
584.064	38537.99
584.262	37856.02
584.459	38282
584.657	37890.84
584.854	38181.65
585.052	37169.95
585.249	37557.02
585.447	37772.05
585.644	37020.45
585.841	37446.43
586.039	37458.71
586.236	37231.39
586.434	37034.78
586.631	36735.78
586.828	36795.17
587.026	37188.38
587.223	36619.05
587.42	36381.48
587.618	36477.74
587.815	36193.07
588.012	36139.82
588.21	36027.18
588.407	36361
588.604	36090.67
588.801	35576.63
588.999	35910.45
589.196	35988.27
589.393	35867.44
589.59	35519.29
589.787	35121.98
589.984	35283.77
590.182	34958.14
590.379	35281.72
590.576	34962.24
590.773	34902.85
590.97	34362.18
591.167	34822.98
591.364	34829.12
591.561	34810.69
591.758	34315.08
591.955	34460.49
592.152	34784.07
592.349	34065.23
592.546	34380.62
592.743	34296.65
592.94	33796.95
593.137	34200.4
593.334	33971.02
593.531	33305.43
593.727	33424.22
593.924	33432.41
594.121	33389.4
594.318	33715.03
594.515	32990.05
594.712	33502.04
594.908	33012.57
595.105	33114.97
595.302	32699.23
595.499	33207.13
595.696	32791.39
595.892	32320.36
596.089	32371.56
596.286	32392.04
596.482	32461.67
596.679	32357.22
596.876	32275.3
597.072	31961.97
597.269	31642.48
597.466	31562.61
597.662	31843.18
597.859	31654.77
598.055	31353.72
598.252	31634.29
598.448	31255.42
598.645	31216.5
598.841	31050.62
599.038	31224.7
599.234	30997.37
599.431	30716.8
599.627	30811.01
599.824	30901.12
600.02	30344.07
600.217	30636.93
600.413	30495.62
600.609	30049.16
600.806	29987.72
601.002	30405.51
601.198	30139.27
601.395	29946.76
601.591	30241.67
601.787	30030.73
601.984	29709.2
602.18	30319.49
602.376	29682.58
602.572	29641.62
602.769	29404.05
602.965	29307.8
603.161	29189.02
603.357	29535.12
603.553	29086.62
603.75	29107.1
603.946	28984.22
604.142	29379.48
604.338	28756.89
604.534	28539.81
604.73	28720.03
604.926	28609.44
605.122	28472.23
605.318	28357.54
605.514	28052.39
605.71	27919.28
605.906	28249
606.102	28216.23
606.298	28304.29
606.494	28021.67
606.69	28142.5
606.886	27919.28
607.082	27640.75
607.278	27741.1
607.474	27249.59
607.67	27861.93
607.866	27208.63
608.062	27517.87
608.257	27538.35
608.453	27112.38
608.649	27333.56
608.845	27227.06
609.041	27110.33
609.236	27311.03
609.432	26850.24
609.628	27204.53
609.824	26756.03
610.019	26932.15
610.215	26991.55
610.411	26993.59
610.606	26657.73
610.802	26737.6
610.998	26301.38
611.193	26792.89
611.389	26514.37
611.584	26471.36
611.78	26301.38
611.976	26291.14
612.171	26446.79
612.367	26395.59
612.562	26239.94
612.758	26139.59
612.953	25881.55
613.149	26112.97
613.344	25809.87
613.539	26297.28
613.735	25869.26
613.93	26201.03
614.126	25789.39
614.321	26053.58
614.517	25490.38
614.712	25654.22
614.907	25586.64
615.103	25686.99
615.298	25418.71
615.493	25727.95
615.688	25172.95
615.884	25834.44
616.079	25211.86
616.274	25570.26
616.47	25142.23
616.665	25310.16
616.86	25146.33
617.055	25351.12
617.25	24832.99
617.445	25017.3
617.641	24642.53
617.836	24847.32
618.031	24400.86
618.226	24775.64
618.421	24495.07
618.616	24724.44
618.811	24075.24
619.006	24798.17
619.201	24198.12
619.396	24253.41
619.591	23811.05
619.786	24458.21
619.981	23600.11
620.176	23903.21
620.371	23657.45
620.566	23784.43
620.761	23247.86
620.956	23524.33
621.151	23340.02
621.346	23372.78
621.541	22744.06
621.735	23313.39
621.93	22529.02
622.125	22801.4
622.32	22473.73
622.515	22510.59
622.709	22551.55
622.904	22481.92
623.099	22219.78
623.294	22490.11
623.488	22086.66
623.683	21955.59
623.878	21853.19
624.072	21681.16
624.267	21773.32
624.462	21445.65
624.656	21390.35
624.851	21339.15
625.046	21300.24
625.24	21113.88
625.435	20644.89
625.629	20771.86
625.824	20798.49
626.018	20597.79
626.213	20098.08
626.407	20515.87
626.602	20067.36
626.796	20304.93
626.991	20556.83
627.185	20042.79
627.38	19893.29
627.574	19672.11
627.768	19299.37
627.963	19739.69
628.157	19239.98
628.352	19749.93
628.546	18838.58
628.74	19334.19
628.935	19078.19
629.129	18957.36
629.323	18957.36
629.517	18736.18
629.712	18725.94
629.906	18615.35
630.1	18234.43
630.294	18502.72
630.489	18076.74
630.683	18330.69
630.877	18072.64
631.071	18099.27
631.265	18177.09
631.459	17695.82
631.653	17632.33
631.848	17675.34
632.042	17329.23
632.236	17380.43
632.43	17540.17
632.624	17462.35
632.818	17323.08
633.012	17210.45
633.206	16950.35
633.4	17024.08
633.594	17022.03
633.788	16776.28
633.982	16927.83
634.176	16534.62
634.369	16446.55
634.563	16327.77
634.757	16471.13
634.951	16229.47
635.145	16266.33
635.339	16065.63
635.533	16053.34
635.726	16092.26
635.92	15918.18
636.114	15936.61
636.308	15744.1
636.501	15656.04
636.695	15750.24
636.889	15615.08
637.083	15631.46
637.276	15289.45
637.47	15279.21
637.664	15307.88
637.857	15090.8
638.051	15201.39
638.244	14961.78
638.438	14994.54
638.632	14644.34
638.825	14632.05
639.019	14462.07
639.212	14503.03
639.406	14406.78
639.599	14343.29
639.793	14486.65
639.986	14099.58
640.18	14165.12
640.373	14134.4
640.567	14040.19
640.76	14216.32
640.954	13976.7
641.147	13749.38
641.34	13704.32
641.534	13603.97
641.727	13681.8
641.92	13671.56
642.114	13468.81
642.307	13470.86
642.5	13374.6
642.694	13030.54
642.887	13149.32
643.08	13159.56
643.273	13186.19
643.467	13198.48
643.66	12833.94
643.853	12723.35
644.046	12831.89
644.239	12657.81
644.432	12534.93
644.626	12608.66
644.819	12559.51
645.012	12403.86
645.205	12373.14
645.398	12481.69
645.591	12047.52
645.784	12221.59
645.977	12256.41
646.17	12131.48
646.363	11865.25
646.556	11914.4
646.749	11805.86
646.942	11764.9
647.135	11467.94
647.328	11834.53
647.521	11556.01
647.714	11517.09
647.907	11553.96
648.099	11297.96
648.292	11502.76
648.485	11318.44
648.678	11271.34
648.871	11209.9
649.064	11003.05
649.256	11181.23
649.449	11070.64
649.642	11072.68
649.835	10785.97
650.027	10843.31
650.22	10728.63
650.413	10777.78
650.605	10716.34
650.798	10677.43
650.991	10552.5
651.183	10419.38
651.376	10366.14
651.568	10319.03
651.761	10208.44
651.954	10437.81
652.146	10282.17
652.339	10194.11
652.531	10314.94
652.724	10069.18
652.916	9960.64
653.109	9854.14
653.301	9983.17
653.494	9825.47
653.686	9731.26
653.879	9841.86
654.071	9718.98
654.263	9702.59
654.456	9784.51
654.648	9788.61
654.84	9483.46
655.033	9561.28
655.225	9589.95
655.417	9344.2
655.61	9321.67
655.802	9426.12
655.994	9336.01
656.186	9147.59
656.379	9323.72
656.571	9323.72
656.763	8936.65
656.955	8977.61
657.148	9061.58
657.34	9168.07
657.532	8895.69
657.724	9014.48
657.916	8922.32
658.108	8819.92
658.3	8877.26
658.492	8676.56
658.684	8561.87
658.876	8533.2
659.068	8578.26
659.26	8471.76
659.452	8477.91
659.644	8426.71
659.836	8170.71
660.028	8176.86
660.22	8096.99
660.412	8373.46
660.604	8172.76
660.796	8266.97
660.988	8217.82
661.18	8021.21
661.372	7849.18
661.563	8158.42
661.755	7834.85
661.947	7941.34
662.139	7877.85
662.331	7754.97
662.522	7824.61
662.714	7736.54
662.906	7603.43
663.097	7605.47
663.289	7685.34
663.481	7458.02
663.673	7668.96
663.864	7558.37
664.056	7496.93
664.247	7449.83
664.439	7292.13
664.631	7406.82
664.822	7427.3
665.014	7222.5
665.205	7146.73
665.397	7163.11
665.588	7220.46
665.78	7103.72
665.971	7021.8
666.163	7058.67
666.354	6943.98
666.546	7005.42
666.737	6917.36
666.929	7017.71
667.12	6898.92
667.311	6896.88
667.503	6896.88
667.694	6685.94
667.885	6630.64
668.077	6788.33
668.268	6587.63
668.459	6626.54
668.651	6665.46
668.842	6401.27
669.033	6470.9
669.224	6585.58
669.416	6583.54
669.607	6423.8
669.798	6450.42
669.989	6532.34
670.18	6550.77
670.371	6409.46
670.563	6290.68
670.754	6345.97
670.945	6112.5
671.136	6280.44
671.327	6184.18
671.518	6194.42
671.709	6296.82
671.9	6079.74
672.091	6276.34
672.282	6096.12
672.473	6132.98
672.664	6175.99
672.855	6057.21
673.046	5969.15
673.237	6032.63
673.428	6063.35
673.619	5860.6
673.809	5741.82
674	5879.04
674.191	5958.91
674.382	5862.65
674.573	5811.45
674.764	5633.28
674.954	5713.15
675.145	5659.9
675.336	5612.8
675.527	5897.47
675.717	5719.29
675.908	5786.88
676.099	5799.16
676.289	5817.6
676.48	5586.18
676.671	5440.77
676.861	5704.96
677.052	5537.02
677.243	5539.07
677.433	5410.05
677.624	5469.44
677.814	5524.74
678.005	5510.4
678.195	5487.87
678.386	5424.39
678.576	5385.48
678.767	5534.98
678.957	5293.32
679.148	5446.91
679.338	5551.36
679.529	5371.14
679.719	5385.48
679.909	5498.11
680.1	5438.72
680.29	5180.68
680.481	5141.77
680.671	5471.49
680.861	5199.11
681.052	5393.67
681.242	5303.56
681.432	5293.32
681.622	5276.93
681.813	5209.35
682.003	5149.96
682.193	5250.31
682.383	5104.9
682.573	4955.4
682.764	5014.79
682.954	5131.53
683.144	5084.42
683.334	5057.8
683.524	5096.71
683.714	5051.66
683.904	5055.75
684.094	5109
684.284	5166.34
684.474	4953.35
684.664	4969.74
684.854	4979.98
685.044	5180.68
685.234	4961.55
685.424	4836.62
685.614	4879.63
685.804	4879.63
685.994	4810
686.184	4830.48
686.374	4736.27
686.564	4848.91
686.753	4801.8
686.943	4818.19
687.133	4711.69
687.323	4785.42
687.513	4734.22
687.702	4637.97
687.892	4640.01
688.082	4506.9
688.272	4691.21
688.461	4683.02
688.651	4556.05
688.841	4543.76
689.03	4447.51
689.22	4560.14
689.41	4359.44
689.599	4496.66
689.789	4588.82
689.979	4539.66
690.168	4523.28
690.358	4416.79
690.547	4476.18
690.737	4400.4
690.926	4369.68
691.116	4289.81
691.305	4343.06
691.495	4291.86
691.684	4298
691.874	4261.14
692.063	4257.04
692.252	4156.69
692.442	4183.32
692.631	4179.22
692.82	4173.08
693.01	4138.26
693.199	4113.69
693.388	4171.03
693.578	4017.43
693.767	4107.54
693.956	4082.97
694.146	4130.07
694.335	4128.02
694.524	4029.72
694.713	4011.29
694.902	4033.82
695.092	3947.8
695.281	3925.27
695.47	3994.9
695.659	3925.27
695.848	3892.51
696.037	3968.28
696.226	4015.38
696.415	3902.75
696.604	3888.41
696.793	3849.5
696.982	3667.23
697.171	3986.71
697.36	3849.5
697.549	3745.05
697.738	3808.54
697.927	3859.74
698.116	3847.45
698.305	3867.93
698.494	3783.96
698.683	3673.37
698.872	3786.01
699.061	3818.78
699.25	3652.89
699.438	3867.93
699.627	3788.06
699.816	3773.72
700.005	3730.72
700.193	3679.52
700.382	3712.28
700.571	3573.02
700.76	3749.15
700.948	3716.38
701.137	3556.64
701.326	3589.41
701.514	3581.21
701.703	3591.45
701.892	3536.16
702.08	3650.85
702.269	3589.41
702.457	3564.83
702.646	3673.37
702.834	3573.02
703.023	3527.97
703.212	3509.54
703.4	3564.83
703.589	3476.77
703.777	3458.34
703.965	3472.67
704.154	3491.1
704.342	3437.86
704.531	3409.19
704.719	3312.93
704.907	3462.43
705.096	3325.22
705.284	3380.51
705.472	3253.54
705.661	3388.71
705.849	3386.66
706.037	3458.34
706.226	3400.99
706.414	3331.36
706.602	3306.79
706.79	3327.27
706.979	3269.92
707.167	3394.85
707.355	3206.44
707.543	3271.97
707.731	3331.36
707.919	3255.59
708.107	3357.99
708.296	3280.16
708.484	3241.25
708.672	3276.07
708.86	3181.86
709.048	3343.65
709.236	3108.13
709.424	3222.82
709.612	3237.16
709.8	3196.2
709.988	3065.13
710.176	3165.48
710.364	3206.44
710.551	3190.05
710.739	3237.16
710.927	3228.96
711.115	3188
711.303	3147.05
711.491	2987.3
711.679	3192.1
711.866	3190.05
712.054	3190.05
712.242	3073.32
712.43	3138.85
712.617	3124.52
712.805	3122.47
712.993	2993.45
713.181	2987.3
713.368	2911.53
713.556	3081.51
713.744	2977.06
713.931	3122.47
714.119	2979.11
714.306	2995.5
714.494	3009.83
714.682	3036.45
714.869	2917.67
715.057	2925.86
715.244	2845.99
715.432	2970.92
715.619	2934.06
715.807	2942.25
715.994	2942.25
716.182	2966.82
716.369	2891.05
716.556	2919.72
716.744	2868.52
716.931	2827.56
717.119	2993.45
717.306	2968.87
717.493	2915.62
717.681	2868.52
717.868	2850.09
718.055	2876.71
718.242	2872.62
718.43	2856.23
718.617	2819.37
718.804	2843.95
718.991	2843.95
719.179	2835.75
719.366	2917.67
719.553	2950.44
719.74	2831.66
719.927	2766.12
720.114	2944.3
720.301	2874.67
720.488	2794.79
720.676	2802.99
720.863	2762.03
721.05	2774.32
721.237	2735.4
721.424	2706.73
721.611	2667.82
721.798	2651.44
721.985	2794.79
722.172	2696.49
722.358	2655.53
722.545	2659.63
722.732	2712.88
722.919	2676.01
723.106	2614.57
723.293	2794.79
723.48	2684.2
723.667	2639.15
723.853	2581.81
724.04	2737.45
724.227	2729.26
724.414	2645.29
724.6	2737.45
724.787	2753.84
724.974	2786.6
725.161	2622.77
725.347	2518.32
725.534	2592.05
725.72	2567.47
725.907	2604.33
726.094	2626.86
726.28	2559.28
726.467	2688.3
726.653	2655.53
726.84	2606.38
727.027	2692.4
727.213	2452.78
727.4	2577.71
727.586	2565.42
727.773	2587.95
727.959	2544.94
728.145	2530.61
728.332	2528.56
728.518	2600.24
728.705	2516.27
728.891	2401.58
729.077	2501.94
729.264	2428.21
729.45	2569.52
729.636	2530.61
729.823	2524.46
730.009	2417.97
730.195	2438.45
730.382	2491.7
730.568	2391.34
730.754	2364.72
730.94	2364.72
731.126	2499.89
731.313	2458.93
731.499	2426.16
731.685	2420.02
731.871	2409.78
732.057	2491.7
732.243	2438.45
732.429	2336.05
732.615	2356.53
732.801	2469.17
732.987	2415.92
733.173	2344.24
733.359	2387.25
733.545	2311.47
733.731	2360.63
733.917	2463.02
734.103	2442.54
734.289	2407.73
734.475	2346.29
734.661	2323.76
734.847	2338.1
735.033	2387.25
735.219	2473.26
735.404	2356.53
735.59	2278.71
735.776	2313.52
735.962	2360.63
736.148	2311.47
736.333	2440.5
736.519	2346.29
736.705	2327.86
736.89	2348.34
737.076	2295.09
737.262	2297.14
737.447	2239.8
737.633	2108.73
737.819	2184.5
738.004	2372.91
738.19	2254.13
738.375	2213.17
738.561	2247.99
738.747	2295.09
738.932	2247.99
739.118	2278.71
739.303	2196.79
739.489	2131.25
739.674	2202.93
739.859	2143.54
740.045	2106.68
740.23	2290.99
740.416	2112.82
740.601	2204.98
740.786	2075.96
740.972	2008.37
741.157	2155.83
741.342	2141.49
741.528	2215.22
741.713	2139.44
741.898	2108.73
742.084	2217.27
742.269	2010.42
742.454	2047.29
742.639	2192.69
742.824	2084.15
743.01	2110.77
743.195	2125.11
743.38	2100.53
743.565	2059.57
743.75	2051.38
743.935	1991.99
744.12	2067.77
744.305	2008.37
744.49	1936.7
744.675	1944.89
744.86	1951.03
745.045	2045.24
745.23	1789.24
745.415	1959.22
745.6	1897.78
745.785	1832.25
745.97	1920.31
746.155	1803.58
746.34	1828.15
746.525	1920.31
746.71	1922.36
746.895	1887.54
747.079	1885.5
747.264	1797.43
747.449	1897.78
747.634	1766.71
747.819	1846.59
748.003	1742.14
748.188	1805.63
748.373	1746.23
748.557	1738.04
748.742	1705.28
748.927	1705.28
749.111	1762.62
749.296	1756.47
749.481	1785.15
749.665	1645.88
749.85	1627.45
750.034	1666.36
750.219	1647.93
750.404	1643.84
750.588	1658.17
750.773	1584.45
750.957	1533.25
751.141	1494.33
751.326	1633.6
751.51	1537.34
751.695	1584.45
751.879	1473.85
752.064	1527.1
752.248	1533.25
752.432	1590.59
752.617	1543.49
752.801	1516.86
752.985	1500.48
753.17	1484.09
753.354	1527.1
753.538	1443.14
753.722	1443.14
753.907	1385.79
754.091	1443.14
754.275	1402.18
754.459	1361.22
754.643	1267.01
754.828	1414.46
755.012	1353.02
755.196	1330.5
755.38	1307.97
755.564	1361.22
755.748	1340.74
755.932	1303.87
756.116	1234.24
756.3	1324.35
756.484	1322.31
756.668	1256.77
756.852	1256.77
757.036	1172.8
757.22	1219.91
757.404	1246.53
757.588	1254.72
757.772	1232.19
757.956	1183.04
758.14	1156.42
758.323	1189.19
758.507	1221.95
758.691	1246.53
758.875	1170.76
759.059	1207.62
759.242	1252.67
759.426	1158.47
759.61	1166.66
759.794	1076.55
759.977	1293.63
760.161	1191.24
760.345	1109.32
760.528	1164.61
760.712	1078.6
760.895	1191.24
761.079	1123.65
761.263	1107.27
761.446	1094.98
761.63	1117.51
761.813	1019.21
761.997	1062.21
762.18	1137.99
762.364	1074.5
762.547	1101.12
762.731	976.2
762.914	1043.78
763.098	1101.12
763.281	1099.08
763.464	1011.01
763.648	1129.8
763.831	1035.59
764.015	945.48
764.198	1029.45
764.381	959.81
764.564	1043.78
764.748	1060.17
764.931	937.29
765.114	1021.25
765.297	853.32
765.481	1002.82
765.664	959.81
765.847	1015.11
766.03	976.2
766.213	927.05
766.397	912.71
766.58	881.99
766.763	959.81
766.946	894.28
767.129	994.63
767.312	888.14
767.495	884.04
767.678	890.18
767.861	910.66
768.044	900.42
768.227	869.7
768.41	845.13
768.593	871.75
768.776	927.05
768.959	904.52
769.142	904.52
769.324	761.16
769.507	918.86
769.69	822.6
769.873	822.6
770.056	953.67
770.239	890.18
770.421	890.18
770.604	849.22
770.787	935.24
770.97	863.56
771.152	865.61
771.335	791.88
771.518	773.45
771.7	857.42
771.883	836.94
772.066	718.15
772.248	828.74
772.431	769.35
772.613	881.99
772.796	773.45
772.978	836.94
773.161	855.37
773.343	767.31
773.526	662.86
773.708	812.36
773.891	746.83
774.073	761.16
774.256	808.27
774.438	820.55
774.621	755.02
774.803	734.54
774.985	783.69
775.168	705.87
775.35	650.57
775.532	705.87
775.715	599.37
775.897	755.02
776.079	699.72
776.261	685.39
776.444	607.56
776.626	744.78
776.808	683.34
776.99	638.28
777.173	656.72
777.355	615.76
777.537	607.56
777.719	648.52
777.901	613.71
778.083	560.46
778.265	623.95
778.447	712.01
778.629	537.93
778.811	673.1
778.993	619.85
779.175	640.33
779.357	640.33
779.539	591.18
779.721	578.89
779.903	611.66
780.085	621.9
780.267	605.52
780.449	558.41
780.631	632.14
780.812	642.38
780.994	542.03
781.176	558.41
781.358	593.23
781.54	511.31
781.721	546.12
781.903	564.56
782.085	566.6
782.267	640.33
782.448	552.27
782.63	470.35
782.812	531.79
782.993	537.93
783.175	480.59
783.357	464.21
783.538	460.11
783.72	400.72
783.901	535.89
784.083	413.01
784.264	533.84
784.446	460.11
784.627	423.25
784.809	556.36
784.99	492.88
785.172	427.34
785.353	439.63
785.535	482.64
785.716	361.81
785.897	521.55
786.079	460.11
786.26	462.16
786.441	427.34
786.623	347.47
786.804	419.15
786.985	423.25
787.167	394.58
787.348	406.86
787.529	413.01
787.71	445.77
787.891	435.53
788.073	435.53
788.254	443.73
788.435	402.77
788.616	384.34
788.797	400.72
788.978	472.4
789.159	326.99
789.34	345.42
789.522	372.05
789.703	427.34
789.884	347.47
790.065	331.09
790.246	386.38
790.427	343.38
790.607	451.92
790.788	425.29
790.969	318.8
791.15	316.75
791.331	388.43
791.512	339.28
791.693	314.7
791.874	320.85
792.054	382.29
792.235	337.23
792.416	380.24
792.597	308.56
792.778	361.81
792.958	277.84
793.139	322.9
793.32	320.85
793.5	263.51
793.681	413.01
793.862	361.81
794.042	314.7
794.223	304.46
794.404	290.13
794.584	281.94
794.765	259.41
794.945	298.32
795.126	320.85
795.306	333.14
795.487	322.9
795.667	374.1
795.848	341.33
796.028	275.79
796.209	247.12
796.389	351.57
796.57	308.56
796.75	245.07
796.93	335.18
797.111	247.12
797.291	232.79
797.471	324.94
797.652	281.94
797.832	204.11
798.012	314.7
798.192	281.94
798.373	243.03
798.553	177.49
798.733	261.46
798.913	247.12
799.093	310.61
799.274	298.32
799.454	226.64
799.634	333.14
799.814	288.08
799.994	253.27
800.174	259.41
800.354	232.79
800.534	255.31
800.714	279.89
800.894	179.54
801.074	140.63
801.254	191.83
801.434	314.7
801.614	200.02
801.794	148.82
801.974	779.59
802.154	124.24
802.334	288.08
802.514	230.74
802.693	165.2
802.873	236.88
803.053	304.46
803.233	245.07
803.413	251.22
803.592	304.46
803.772	216.4
803.952	255.31
804.131	175.44
804.311	236.88
804.491	208.21
804.67	136.53
804.85	173.39
805.03	273.75
805.209	228.69
805.389	140.63
805.568	230.74
805.748	224.59
805.928	226.64
806.107	243.03
806.287	279.89
806.466	159.06
806.646	240.98
806.825	173.39
807.004	183.63
807.184	265.55
807.363	124.24
807.543	255.31
807.722	187.73
807.901	191.83
808.081	142.68
808.26	169.3
808.439	222.55
808.619	187.73
808.798	222.55
808.977	193.87
809.156	222.55
809.336	220.5
809.515	281.94
809.694	165.2
809.873	222.55
810.052	206.16
810.231	208.21
810.411	132.44
810.59	216.4
810.769	75.09
810.948	191.83
811.127	132.44
811.306	197.97
811.485	116.05
811.664	222.55
811.843	175.44
812.022	210.26
812.201	132.44
812.38	105.81
812.559	138.58
812.737	175.44
812.916	216.4
813.095	118.1
813.274	222.55
813.453	189.78
813.632	212.31
813.811	126.29
813.989	175.44
814.168	238.93
814.347	124.24
814.526	148.82
814.704	167.25
814.883	150.87
815.062	150.87
815.24	238.93
815.419	124.24
815.598	146.77
815.776	91.48
815.955	114
816.133	134.48
816.312	91.48
816.49	105.81
816.669	116.05
816.847	185.68
817.026	150.87
817.204	73.04
817.383	191.83
817.561	124.24
817.74	212.31
817.918	124.24
818.097	87.38
818.275	181.59
818.453	148.82
818.632	124.24
818.81	44.37
818.988	75.09
819.167	21.85
819.345	111.96
819.523	148.82
819.701	118.1
819.879	81.24
820.058	116.05
820.236	157.01
820.414	101.72
820.592	85.33
820.77	148.82
820.948	107.86
821.127	126.29
821.305	177.49
821.483	157.01
821.661	126.29
821.839	87.38
822.017	132.44
822.195	146.77
822.373	87.38
822.551	148.82
822.729	157.01
822.907	165.2
823.085	200.02
823.262	118.1
823.44	171.35
823.618	101.72
823.796	150.87
823.974	97.62
824.152	36.18
824.329	167.25
824.507	185.68
824.685	122.2
824.863	91.48
825.04	132.44
825.218	247.12
825.396	68.95
825.574	144.72
825.751	95.57
825.929	83.28
826.107	138.58
826.284	179.54
826.462	128.34
826.639	99.67
826.817	83.28
826.994	83.28
827.172	38.23
827.349	138.58
827.527	181.59
827.704	114
827.882	60.76
828.059	122.2
828.237	107.86
828.414	109.91
828.591	116.05
828.769	144.72
828.946	71
829.124	148.82
829.301	128.34
829.478	157.01
829.655	81.24
829.833	134.48
830.01	32.08
830.187	118.1
830.364	27.99
830.542	116.05
830.719	77.14
830.896	91.48
831.073	132.44
831.25	85.33
831.427	171.35
831.604	99.67
831.782	77.14
831.959	99.67
832.136	101.72
832.313	107.86
832.49	107.86
832.667	122.2
832.844	50.52
833.021	101.72
833.198	83.28
833.374	58.71
833.551	118.1
833.728	91.48
833.905	95.57
834.082	56.66
834.259	91.48
834.436	116.05
834.612	97.62
834.789	128.34
834.966	116.05
835.143	21.85
835.319	68.95
835.496	99.67
835.673	154.96
835.85	159.06
836.026	81.24
836.203	91.48
836.38	21.85
836.556	79.19
836.733	83.28
836.909	105.81
837.086	34.13
837.262	79.19
837.439	46.42
837.616	25.94
837.792	34.13
837.968	109.91
838.145	99.67
838.321	52.56
838.498	99.67
838.674	66.9
838.851	118.1
839.027	54.61
839.203	103.76
839.38	87.38
839.556	99.67
839.732	79.19
839.909	120.15
840.085	173.39
840.261	36.18
840.437	132.44
840.614	64.85
840.79	81.24
840.966	99.67
841.142	9.56
841.318	27.99
841.494	54.61
841.671	34.13
841.847	-23.21
842.023	60.76
842.199	105.81
842.375	116.05
842.551	83.28
842.727	54.61
842.903	144.72
843.079	34.13
843.255	89.43
843.431	30.04
843.607	-6.83
843.783	107.86
843.959	68.95
844.134	71
844.31	181.59
844.486	25.94
844.662	42.32
844.838	75.09
845.013	87.38
845.189	138.58
845.365	101.72
845.541	38.23
845.716	99.67
845.892	95.57
846.068	38.23
846.244	46.42
846.419	97.62
846.595	-27.31
846.77	91.48
846.946	118.1
847.122	25.94
847.297	-10.92
847.473	150.87
847.648	1.37
847.824	36.18
847.999	79.19
848.175	109.91
848.35	118.1
848.526	85.33
848.701	66.9
848.876	52.56
849.052	101.72
849.227	58.71
849.403	-19.11
849.578	66.9
849.753	32.08
849.929	5.46
850.104	75.09
850.279	42.32
850.454	103.76
850.63	91.48
850.805	93.52
850.98	81.24
851.155	101.72
851.33	66.9
851.505	27.99
851.681	73.04
851.856	32.08
852.031	34.13
852.206	-4.78
852.381	107.86
852.556	83.28
852.731	11.61
852.906	5.46
853.081	73.04
853.256	66.9
853.431	25.94
853.606	21.85
853.781	44.37
853.956	52.56
854.131	89.43
854.305	38.23
854.48	54.61
854.655	48.47
854.83	-2.73
855.005	54.61
855.18	136.53
855.354	23.89
855.529	38.23
855.704	56.66
855.879	124.24
856.053	25.94
856.228	81.24
856.403	9.56
856.577	93.52
856.752	9.56
856.926	79.19
857.101	75.09
857.276	46.42
857.45	101.72
857.625	54.61
857.799	52.56
857.974	124.24
858.148	5.46
858.323	25.94
858.497	-39.59
858.672	111.96
858.846	27.99
859.02	25.94
859.195	-35.5
859.369	52.56
859.543	95.57
859.718	83.28
859.892	-8.87
860.066	66.9
860.241	-2.73
860.415	42.32
860.589	93.52
860.763	107.86
860.938	17.75
861.112	3.41
861.286	91.48
861.46	99.67
861.634	36.18
861.808	54.61
861.982	9.56
862.157	-6.83
862.331	99.67
862.505	1.37
862.679	27.99
862.853	-49.83
863.027	9.56
863.201	126.29
863.375	23.89
863.549	42.32
863.722	34.13
863.896	17.75
864.07	-55.98
864.244	9.56
864.418	46.42
864.592	25.94
864.766	50.52
864.939	42.32
865.113	21.85
865.287	-15.02
865.461	42.32
865.634	-47.79
865.808	17.75
865.982	81.24
866.156	-64.17
866.329	3.41
866.503	40.28
866.676	58.71
866.85	36.18
867.024	9.56
867.197	62.8
867.371	83.28
867.544	38.23
867.718	1.37
867.891	42.32
868.065	3.41
868.238	77.14
868.412	60.76
868.585	17.75
868.759	62.8
868.932	17.75
869.105	-55.98
869.279	46.42
869.452	68.95
869.625	-21.16
869.799	77.14
869.972	48.47
870.145	68.95
870.319	71
870.492	107.86
870.665	17.75
870.838	25.94
871.011	-49.83
871.185	-4.78
871.358	32.08
871.531	19.8
871.704	-25.26
871.877	-10.92
872.05	21.85
872.223	21.85
872.396	34.13
872.569	23.89
872.742	21.85
872.915	50.52
873.088	21.85
873.261	-8.87
873.434	75.09
873.607	-23.21
873.78	48.47
873.953	5.46
874.126	-29.35
874.299	34.13
874.471	-15.02
874.644	58.71
874.817	-12.97
874.99	85.33
875.163	13.65
875.335	124.24
875.508	64.85
875.681	75.09
875.853	75.09
876.026	34.13
876.199	60.76
876.371	101.72
876.544	-17.07
876.717	25.94
876.889	81.24
877.062	-45.74
877.234	50.52
877.407	3.41
877.579	54.61
877.752	50.52
877.924	62.8
878.097	68.95
878.269	48.47
878.442	13.65
878.614	103.76
878.786	34.13
878.959	19.8
879.131	38.23
879.303	5.46
879.476	19.8
879.648	42.32
879.82	-8.87
879.993	-29.35
880.165	17.75
880.337	-10.92
880.509	36.18
880.681	1.37
880.854	50.52
881.026	19.8
881.198	75.09
881.37	11.61
881.542	83.28
881.714	-55.98
881.886	13.65
882.058	25.94
882.23	-64.17
882.402	17.75
882.574	1.37
882.746	42.32
882.918	-8.87
883.09	-15.02
883.262	-8.87
883.434	13.65
883.606	-2.73
883.778	40.28
883.95	66.9
884.122	27.99
884.293	58.71
884.465	75.09
884.637	1.37
884.809	34.13
884.98	66.9
885.152	34.13
885.324	42.32
885.496	60.76
885.667	66.9
885.839	17.75
886.011	60.76
886.182	62.8
886.354	17.75
886.525	42.32
886.697	54.61
886.869	-39.59
887.04	42.32
887.212	32.08
887.383	103.76
887.555	-68.27
887.726	34.13
887.897	9.56
888.069	13.65
888.24	5.46
888.412	-0.68
888.583	34.13
888.754	-15.02
888.926	36.18
889.097	83.28
889.268	-6.83
889.44	5.46
889.611	-6.83
889.782	27.99
889.953	103.76
890.125	1.37
890.296	-31.4
890.467	25.94
890.638	48.47
890.809	-4.78
890.98	-8.87
891.151	-43.69
891.323	5.46
891.494	38.23
891.665	62.8
891.836	42.32
892.007	-15.02
892.178	48.47
892.349	46.42
892.52	-29.35
892.691	71
892.862	21.85
893.032	30.04
893.203	30.04
893.374	48.47
893.545	73.04
893.716	-88.75
893.887	23.89
894.057	42.32
894.228	25.94
894.399	-21.16
894.57	68.95
894.74	46.42
894.911	7.51
895.082	11.61
895.253	-2.73
895.423	79.19
895.594	30.04
895.764	13.65
895.935	11.61
896.106	21.85
896.276	3.41
896.447	-15.02
896.617	9.56
896.788	27.99
896.958	17.75
897.129	25.94
897.299	23.89
897.47	25.94
897.64	1.37
897.81	19.8
897.981	-2.73
898.151	23.89
898.322	-0.68
898.492	-8.87
898.662	-58.03
898.832	27.99
899.003	-88.75
899.173	32.08
899.343	-37.55
899.513	34.13
