Data from USB4F104151__258__14-22-44-518.txt Node

Date: Thu Mar 13 14:22:44 EDT 2025
User: louis
Spectrometer: USB4F10415
Trigger mode: 4
Integration Time (sec): 2.000000E-2
Scans to average: 1
Electric dark correction enabled: true
Nonlinearity correction enabled: false
Boxcar width: 0
XAxis mode: Wavelengths
Number of Pixels in Spectrum: 3648
>>>>>Begin Spectral Data<<<<<
178.204	-166.06
178.424	-166.06
178.644	-166.06
178.864	-106.67
179.084	-80.04
179.304	38.74
179.524	12.12
179.744	-22.7
179.964	38.74
180.184	-18.6
180.404	-26.79
180.624	-43.18
180.844	36.69
181.064	18.26
181.283	10.07
181.503	-59.56
181.723	16.21
181.943	-71.85
182.163	67.41
182.383	12.12
182.602	-4.27
182.822	59.22
183.042	67.41
183.262	3.93
183.482	26.45
183.701	20.31
183.921	14.17
184.141	-39.08
184.361	5.97
184.58	-10.41
184.8	3.93
185.02	-14.51
185.239	5.97
185.459	-0.17
185.679	44.88
185.898	-4.27
186.118	48.98
186.338	44.88
186.557	28.5
186.777	-22.7
186.997	-6.31
187.216	-10.41
187.436	14.17
187.655	53.08
187.875	42.84
188.095	1.88
188.314	1.88
188.534	26.45
188.753	46.93
188.973	26.45
189.192	28.5
189.412	53.08
189.631	-6.31
189.851	22.36
190.07	26.45
190.29	1.88
190.509	-59.56
190.729	57.17
190.948	22.36
191.168	40.79
191.387	5.97
191.607	-10.41
191.826	1.88
192.045	-22.7
192.265	38.74
192.484	-18.6
192.704	-20.65
192.923	32.6
193.142	26.45
193.362	67.41
193.581	-39.08
193.8	26.45
194.02	1.88
194.239	-37.03
194.458	-14.51
194.678	-88.23
194.897	59.22
195.116	1.88
195.335	-26.79
195.555	-6.31
195.774	-2.22
195.993	36.69
196.212	26.45
196.432	28.5
196.651	26.45
196.87	71.51
197.089	67.41
197.308	8.02
197.528	75.6
197.747	-14.51
197.966	63.32
198.185	108.37
198.404	-37.03
198.623	67.41
198.842	44.88
199.062	14.17
199.281	69.46
199.5	55.12
199.719	75.6
199.938	-0.17
200.157	63.32
200.376	42.84
200.595	10.07
200.814	85.84
201.033	-39.08
201.252	-10.41
201.471	-43.18
201.69	79.7
201.909	-53.42
202.128	36.69
202.347	1.88
202.566	55.12
202.785	-80.04
203.004	-55.47
203.223	1.88
203.442	51.03
203.661	65.36
203.879	-59.56
204.098	53.08
204.317	-30.89
204.536	75.6
204.755	-26.79
204.974	-18.6
205.193	-2.22
205.411	46.93
205.63	-12.46
205.849	24.4
206.068	40.79
206.287	44.88
206.505	-6.31
206.724	26.45
206.943	1.88
207.162	51.03
207.381	34.64
207.599	20.31
207.818	-30.89
208.037	-30.89
208.255	38.74
208.474	-18.6
208.693	12.12
208.911	12.12
209.13	-4.27
209.349	18.26
209.567	57.17
209.786	3.93
210.005	71.51
210.223	57.17
210.442	-80.04
210.661	-16.55
210.879	22.36
211.098	-8.36
211.316	-34.99
211.535	79.7
211.753	40.79
211.972	1.88
212.191	-30.89
212.409	51.03
212.628	26.45
212.846	24.4
213.065	12.12
213.283	24.4
213.502	3.93
213.72	61.27
213.938	-28.84
214.157	108.37
214.375	59.22
214.594	-12.46
214.812	44.88
215.031	10.07
215.249	-49.32
215.467	51.03
215.686	-4.27
215.904	-20.65
216.122	42.84
216.341	77.65
216.559	-57.51
216.778	10.07
216.996	34.64
217.214	1.88
217.432	18.26
217.651	-63.66
217.869	-118.95
218.087	14.17
218.306	-24.75
218.524	85.84
218.742	-16.55
218.96	36.69
219.179	10.07
219.397	-28.84
219.615	77.65
219.833	79.7
220.051	-26.79
220.27	69.46
220.488	-20.65
220.706	36.69
220.924	-82.09
221.142	61.27
221.36	-14.51
221.578	63.32
221.796	20.31
222.015	-0.17
222.233	-28.84
222.451	77.65
222.669	57.17
222.887	1.88
223.105	-39.08
223.323	18.26
223.541	-20.65
223.759	-39.08
223.977	28.5
224.195	100.18
224.413	57.17
224.631	-12.46
224.849	24.4
225.067	100.18
225.285	-45.23
225.503	34.64
225.721	-28.84
225.939	1.88
226.157	-14.51
226.375	91.99
226.592	-18.6
226.81	-26.79
227.028	-6.31
227.246	34.64
227.464	22.36
227.682	36.69
227.9	5.97
228.117	26.45
228.335	-43.18
228.553	-14.51
228.771	16.21
228.989	20.31
229.206	22.36
229.424	-6.31
229.642	20.31
229.86	-14.51
230.077	1.88
230.295	42.84
230.513	26.45
230.731	36.69
230.948	32.6
231.166	55.12
231.384	44.88
231.601	-28.84
231.819	67.41
232.037	38.74
232.254	20.31
232.472	51.03
232.689	-22.7
232.907	22.36
233.125	59.22
233.342	-26.79
233.56	42.84
233.777	16.21
233.995	-43.18
234.213	69.46
234.43	91.99
234.648	14.17
234.865	63.32
235.083	38.74
235.3	-28.84
235.518	12.12
235.735	34.64
235.953	28.5
236.17	-30.89
236.388	36.69
236.605	-30.89
236.822	46.93
237.04	3.93
237.257	-37.03
237.475	-47.27
237.692	16.21
237.909	71.51
238.127	-20.65
238.344	51.03
238.562	36.69
238.779	-10.41
238.996	-18.6
239.214	-12.46
239.431	-30.89
239.648	-47.27
239.865	12.12
240.083	-20.65
240.3	-28.84
240.517	3.93
240.735	44.88
240.952	51.03
241.169	10.07
241.386	-39.08
241.603	55.12
241.821	-20.65
242.038	16.21
242.255	-30.89
242.472	55.12
242.689	-20.65
242.907	55.12
243.124	-30.89
243.341	85.84
243.558	1.88
243.775	-41.13
243.992	-63.66
244.209	-2.22
244.426	67.41
244.643	42.84
244.86	34.64
245.078	-24.75
245.295	51.03
245.512	104.28
245.729	30.55
245.946	12.12
246.163	36.69
246.38	36.69
246.597	61.27
246.814	10.07
247.031	-24.75
247.248	48.98
247.464	126.8
247.681	-4.27
247.898	36.69
248.115	-18.6
248.332	-30.89
248.549	-20.65
248.766	55.12
248.983	-0.17
249.2	-22.7
249.417	114.52
249.633	-43.18
249.85	-10.41
250.067	-104.62
250.284	34.64
250.501	-14.51
250.717	20.31
250.934	-6.31
251.151	57.17
251.368	-34.99
251.585	63.32
251.801	-45.23
252.018	-30.89
252.235	51.03
252.451	3.93
252.668	53.08
252.885	108.37
253.102	1.88
253.318	10.07
253.535	1.88
253.752	-6.31
253.968	-67.75
254.185	5.97
254.401	42.84
254.618	83.8
254.835	-61.61
255.051	22.36
255.268	44.88
255.484	-16.55
255.701	137.04
255.917	30.55
256.134	-18.6
256.351	38.74
256.567	10.07
256.784	12.12
257	-18.6
257.217	55.12
257.433	-71.85
257.65	26.45
257.866	44.88
258.082	-61.61
258.299	1.88
258.515	57.17
258.732	-6.31
258.948	-43.18
259.165	-12.46
259.381	38.74
259.597	-18.6
259.814	28.5
260.03	-16.55
260.246	-53.42
260.463	18.26
260.679	51.03
260.895	3.93
261.112	-63.66
261.328	-39.08
261.544	-2.22
261.761	112.47
261.977	-18.6
262.193	26.45
262.409	3.93
262.626	-14.51
262.842	-4.27
263.058	-49.32
263.274	53.08
263.49	-51.37
263.707	-22.7
263.923	-55.47
264.139	3.93
264.355	-6.31
264.571	77.65
264.787	22.36
265.004	5.97
265.22	36.69
265.436	-75.95
265.652	-6.31
265.868	44.88
266.084	-63.66
266.3	44.88
266.516	-24.75
266.732	-2.22
266.948	44.88
267.164	-22.7
267.38	-30.89
267.596	67.41
267.812	5.97
268.028	-30.89
268.244	5.97
268.46	38.74
268.676	10.07
268.892	51.03
269.108	8.02
269.324	-28.84
269.54	1.88
269.756	46.93
269.972	-43.18
270.188	46.93
270.403	34.64
270.619	38.74
270.835	34.64
271.051	75.6
271.267	-4.27
271.483	26.45
271.698	-45.23
271.914	-2.22
272.13	75.6
272.346	-10.41
272.562	-0.17
272.777	59.22
272.993	-45.23
273.209	-57.51
273.425	83.8
273.64	-63.66
273.856	34.64
274.072	20.31
274.287	1.88
274.503	59.22
274.719	53.08
274.934	-96.43
275.15	-28.84
275.366	59.22
275.581	-6.31
275.797	5.97
276.012	18.26
276.228	14.17
276.444	-75.95
276.659	-14.51
276.875	22.36
277.09	12.12
277.306	10.07
277.521	18.26
277.737	30.55
277.952	48.98
278.168	-49.32
278.383	38.74
278.599	16.21
278.814	-6.31
279.03	51.03
279.245	-10.41
279.461	34.64
279.676	12.12
279.892	5.97
280.107	14.17
280.322	-53.42
280.538	-41.13
280.753	-30.89
280.969	14.17
281.184	-20.65
281.399	28.5
281.615	-65.71
281.83	42.84
282.045	18.26
282.26	3.93
282.476	-0.17
282.691	-12.46
282.906	3.93
283.122	-47.27
283.337	-57.51
283.552	-22.7
283.767	-53.42
283.983	69.46
284.198	-12.46
284.413	57.17
284.628	-45.23
284.843	-22.7
285.058	14.17
285.274	-0.17
285.489	-22.7
285.704	18.26
285.919	18.26
286.134	3.93
286.349	53.08
286.564	-28.84
286.779	67.41
286.995	26.45
287.21	20.31
287.425	14.17
287.64	-2.22
287.855	59.22
288.07	-45.23
288.285	-22.7
288.5	73.56
288.715	-4.27
288.93	-14.51
289.145	-28.84
289.36	38.74
289.575	18.26
289.79	75.6
290.004	18.26
290.219	30.55
290.434	51.03
290.649	42.84
290.864	32.6
291.079	-12.46
291.294	-55.47
291.509	61.27
291.724	75.6
291.938	-63.66
292.153	59.22
292.368	-49.32
292.583	91.99
292.798	46.93
293.012	14.17
293.227	-28.84
293.442	18.26
293.657	22.36
293.871	28.5
294.086	3.93
294.301	81.75
294.516	36.69
294.73	81.75
294.945	22.36
295.16	-63.66
295.374	12.12
295.589	106.32
295.804	20.31
296.018	46.93
296.233	87.89
296.447	-18.6
296.662	-96.43
296.877	46.93
297.091	59.22
297.306	44.88
297.52	-12.46
297.735	26.45
297.949	55.12
298.164	-4.27
298.378	-24.75
298.593	1.88
298.807	-20.65
299.022	36.69
299.236	-39.08
299.451	-20.65
299.665	-30.89
299.88	-28.84
300.094	-10.41
300.309	18.26
300.523	1.88
300.737	59.22
300.952	-16.55
301.166	28.5
301.381	-6.31
301.595	-6.31
301.809	-22.7
302.024	-4.27
302.238	-12.46
302.452	-2.22
302.667	61.27
302.881	69.46
303.095	26.45
303.309	22.36
303.524	55.12
303.738	-6.31
303.952	1.88
304.166	53.08
304.381	-34.99
304.595	87.89
304.809	5.97
305.023	12.12
305.237	22.36
305.452	18.26
305.666	53.08
305.88	67.41
306.094	61.27
306.308	10.07
306.522	53.08
306.736	24.4
306.95	14.17
307.164	-14.51
307.379	-14.51
307.593	30.55
307.807	10.07
308.021	53.08
308.235	26.45
308.449	-59.56
308.663	-4.27
308.877	89.94
309.091	-10.41
309.305	16.21
309.519	-55.47
309.733	28.5
309.947	-61.61
310.161	-39.08
310.374	-4.27
310.588	3.93
310.802	-12.46
311.016	53.08
311.23	67.41
311.444	14.17
311.658	51.03
311.872	-4.27
312.085	-4.27
312.299	51.03
312.513	59.22
312.727	71.51
312.941	22.36
313.154	30.55
313.368	-12.46
313.582	61.27
313.796	-22.7
314.009	-43.18
314.223	81.75
314.437	-6.31
314.651	-6.31
314.864	-6.31
315.078	61.27
315.292	69.46
315.505	-14.51
315.719	-6.31
315.933	75.6
316.146	5.97
316.36	55.12
316.573	3.93
316.787	-24.75
317.001	10.07
317.214	28.5
317.428	-10.41
317.641	-4.27
317.855	-10.41
318.068	100.18
318.282	83.8
318.495	59.22
318.709	30.55
318.922	1.88
319.136	73.56
319.349	22.36
319.563	-2.22
319.776	-55.47
319.99	20.31
320.203	53.08
320.417	1.88
320.63	77.65
320.843	51.03
321.057	-39.08
321.27	-61.61
321.483	61.27
321.697	63.32
321.91	3.93
322.124	-32.94
322.337	-14.51
322.55	-0.17
322.763	61.27
322.977	-18.6
323.19	10.07
323.403	36.69
323.617	8.02
323.83	14.17
324.043	38.74
324.256	10.07
324.469	-4.27
324.683	-2.22
324.896	67.41
325.109	67.41
325.322	-39.08
325.535	20.31
325.748	73.56
325.962	-34.99
326.175	100.18
326.388	-53.42
326.601	-6.31
326.814	42.84
327.027	34.64
327.24	77.65
327.453	22.36
327.666	34.64
327.879	34.64
328.092	28.5
328.305	42.84
328.518	-12.46
328.731	-22.7
328.944	28.5
329.157	51.03
329.37	30.55
329.583	94.04
329.796	-0.17
330.009	-24.75
330.222	26.45
330.435	5.97
330.648	26.45
330.861	-4.27
331.073	-0.17
331.286	122.71
331.499	44.88
331.712	26.45
331.925	-6.31
332.138	-55.47
332.35	61.27
332.563	-61.61
332.776	18.26
332.989	-47.27
333.202	-18.6
333.414	55.12
333.627	34.64
333.84	-41.13
334.053	55.12
334.265	1.88
334.478	-96.43
334.691	34.64
334.903	5.97
335.116	-96.43
335.329	-0.17
335.541	-6.31
335.754	118.61
335.966	-20.65
336.179	-20.65
336.392	79.7
336.604	-63.66
336.817	75.6
337.029	-2.22
337.242	-30.89
337.454	44.88
337.667	20.31
337.88	-2.22
338.092	83.8
338.305	46.93
338.517	1.88
338.729	26.45
338.942	48.98
339.154	-39.08
339.367	-69.8
339.579	61.27
339.792	-39.08
340.004	1.88
340.217	67.41
340.429	26.45
340.641	-14.51
340.854	-26.79
341.066	-12.46
341.278	18.26
341.491	44.88
341.703	48.98
341.915	-10.41
342.128	18.26
342.34	14.17
342.552	-14.51
342.764	-6.31
342.977	3.93
343.189	-4.27
343.401	-22.7
343.613	22.36
343.826	14.17
344.038	36.69
344.25	59.22
344.462	-16.55
344.674	3.93
344.886	1.88
345.099	-6.31
345.311	34.64
345.523	-14.51
345.735	36.69
345.947	-12.46
346.159	12.12
346.371	1.88
346.583	30.55
346.795	30.55
347.007	-41.13
347.219	42.84
347.431	-10.41
347.643	22.36
347.855	-30.89
348.067	85.84
348.279	-30.89
348.491	-22.7
348.703	36.69
348.915	-6.31
349.127	-32.94
349.339	28.5
349.551	20.31
349.763	-14.51
349.975	16.21
350.187	14.17
350.399	67.41
350.61	-6.31
350.822	-28.84
351.034	100.18
351.246	-8.36
351.458	71.51
351.669	1.88
351.881	14.17
352.093	-2.22
352.305	5.97
352.517	-22.7
352.728	28.5
352.94	-43.18
353.152	18.26
353.363	18.26
353.575	5.97
353.787	51.03
353.999	34.64
354.21	36.69
354.422	-39.08
354.633	40.79
354.845	36.69
355.057	24.4
355.268	81.75
355.48	18.26
355.692	-30.89
355.903	20.31
356.115	22.36
356.326	-6.31
356.538	-39.08
356.749	24.4
356.961	40.79
357.172	42.84
357.384	126.8
357.595	61.27
357.807	34.64
358.018	32.6
358.23	-53.42
358.441	71.51
358.653	28.5
358.864	108.37
359.075	5.97
359.287	61.27
359.498	5.97
359.709	-12.46
359.921	-26.79
360.132	-12.46
360.344	42.84
360.555	-53.42
360.766	-4.27
360.977	-18.6
361.189	38.74
361.4	-8.36
361.611	59.22
361.823	24.4
362.034	128.85
362.245	-114.86
362.456	-14.51
362.667	-32.94
362.879	26.45
363.09	14.17
363.301	51.03
363.512	28.5
363.723	40.79
363.935	-30.89
364.146	26.45
364.357	-26.79
364.568	61.27
364.779	28.5
364.99	5.97
365.201	-22.7
365.412	20.31
365.623	-59.56
365.834	40.79
366.045	10.07
366.256	1.88
366.467	-47.27
366.678	42.84
366.889	10.07
367.1	-4.27
367.311	14.17
367.522	14.17
367.733	22.36
367.944	-20.65
368.155	51.03
368.366	8.02
368.577	100.18
368.788	46.93
368.999	94.04
369.209	38.74
369.42	42.84
369.631	-20.65
369.842	30.55
370.053	42.84
370.264	59.22
370.474	3.93
370.685	34.64
370.896	65.36
371.107	5.97
371.317	28.5
371.528	34.64
371.739	24.4
371.95	-10.41
372.16	73.56
372.371	-20.65
372.582	26.45
372.792	-51.37
373.003	59.22
373.214	44.88
373.424	-10.41
373.635	-26.79
373.846	12.12
374.056	81.75
374.267	-26.79
374.477	38.74
374.688	18.26
374.898	-22.7
375.109	69.46
375.319	-8.36
375.53	51.03
375.74	44.88
375.951	36.69
376.161	38.74
376.372	1.88
376.582	18.26
376.793	59.22
377.003	38.74
377.214	10.07
377.424	14.17
377.635	34.64
377.845	-10.41
378.055	100.18
378.266	-41.13
378.476	69.46
378.686	18.26
378.897	44.88
379.107	-26.79
379.317	-49.32
379.528	53.08
379.738	-0.17
379.948	-8.36
380.158	-28.84
380.369	-6.31
380.579	-39.08
380.789	-2.22
380.999	1.88
381.21	-45.23
381.42	34.64
381.63	10.07
381.84	-22.7
382.05	34.64
382.261	46.93
382.471	96.08
382.681	-16.55
382.891	87.89
383.101	10.07
383.311	20.31
383.521	94.04
383.731	18.26
383.941	44.88
384.151	87.89
384.361	55.12
384.571	34.64
384.781	-30.89
384.991	28.5
385.201	34.64
385.411	38.74
385.621	-20.65
385.831	-37.03
386.041	-30.89
386.251	1.88
386.461	36.69
386.671	-28.84
386.881	20.31
387.091	-26.79
387.301	34.64
387.511	-8.36
387.72	-10.41
387.93	102.23
388.14	-49.32
388.35	34.64
388.56	51.03
388.769	83.8
388.979	1.88
389.189	1.88
389.399	26.45
389.609	5.97
389.818	-18.6
390.028	46.93
390.238	18.26
390.447	-30.89
390.657	71.51
390.867	28.5
391.076	34.64
391.286	42.84
391.496	5.97
391.705	65.36
391.915	40.79
392.125	42.84
392.334	83.8
392.544	12.12
392.753	-41.13
392.963	30.55
393.172	36.69
393.382	-45.23
393.591	59.22
393.801	-41.13
394.01	137.04
394.22	34.64
394.429	-10.41
394.639	-2.22
394.848	18.26
395.058	-12.46
395.267	69.46
395.477	69.46
395.686	36.69
395.895	20.31
396.105	96.08
396.314	61.27
396.524	34.64
396.733	42.84
396.942	122.71
397.152	26.45
397.361	79.7
397.57	22.36
397.78	18.26
397.989	-8.36
398.198	143.19
398.407	20.31
398.617	-32.94
398.826	81.75
399.035	34.64
399.244	22.36
399.453	1.88
399.663	44.88
399.872	75.6
400.081	-12.46
400.29	87.89
400.499	-55.47
400.708	61.27
400.917	38.74
401.127	26.45
401.336	34.64
401.545	63.32
401.754	36.69
401.963	57.17
402.172	71.51
402.381	28.5
402.59	96.08
402.799	114.52
403.008	20.31
403.217	22.36
403.426	26.45
403.635	46.93
403.844	-4.27
404.053	55.12
404.262	42.84
404.471	69.46
404.68	40.79
404.888	116.56
405.097	-0.17
405.306	87.89
405.515	85.84
405.724	69.46
405.933	116.56
406.142	94.04
406.35	182.1
406.559	83.8
406.768	91.99
406.977	91.99
407.185	77.65
407.394	96.08
407.603	124.76
407.812	108.37
408.02	151.38
408.229	165.71
408.438	141.14
408.646	94.04
408.855	94.04
409.064	118.61
409.272	192.34
409.481	225.11
409.69	194.39
409.898	132.95
410.107	120.66
410.315	161.62
410.524	157.52
410.733	159.57
410.941	171.86
411.15	167.76
411.358	214.87
411.567	235.35
411.775	175.95
411.984	178
412.192	264.02
412.401	178
412.609	319.31
412.818	241.49
413.026	288.59
413.234	321.36
413.443	309.07
413.651	345.94
413.86	251.73
414.068	243.54
414.276	419.66
414.485	415.57
414.693	390.99
414.901	337.74
415.11	388.94
415.318	378.7
415.526	442.19
415.734	454.48
415.943	390.99
416.151	456.53
416.359	364.37
416.567	532.3
416.776	477.01
416.984	544.59
417.192	583.5
417.4	542.54
417.608	526.16
417.817	460.62
418.025	517.97
418.233	681.8
418.441	542.54
418.649	655.18
418.857	692.04
419.065	776.01
419.273	665.42
419.481	735.05
419.689	790.35
419.897	749.39
420.105	839.5
420.313	839.5
420.521	896.84
420.729	964.42
420.937	960.33
421.145	929.61
421.353	911.18
421.561	1077.06
421.769	1050.44
421.977	1107.78
422.185	1204.03
422.393	1165.12
422.601	1271.62
422.809	1220.42
423.017	1279.81
423.224	1386.3
423.432	1363.78
423.64	1283.91
423.848	1468.22
424.056	1480.51
424.263	1525.57
424.471	1556.29
424.679	1632.06
424.887	1752.89
425.094	1713.98
425.302	1779.51
425.51	1697.6
425.718	1939.26
425.925	2010.93
426.133	1886.01
426.341	2062.13
426.548	2287.41
426.756	2074.42
426.964	2152.24
427.171	2225.97
427.379	2332.47
427.586	2332.47
427.794	2486.06
428.001	2498.35
428.209	2778.92
428.417	2615.09
428.624	2821.93
428.832	2778.92
429.039	2731.82
429.247	2809.64
429.454	3079.97
429.662	3319.59
429.869	2926.38
430.076	3323.68
430.284	3118.89
430.491	3313.44
430.699	3477.28
430.906	3491.62
431.114	3575.58
431.321	3614.49
431.528	3729.18
431.736	3985.18
431.943	4165.4
432.15	4058.9
432.358	4151.06
432.565	4284.18
432.772	4189.97
432.979	4554.51
433.187	4568.85
433.394	4599.57
433.601	4767.5
433.808	4988.68
434.016	4953.87
434.223	5033.74
434.43	5531.39
434.637	5406.47
434.844	5678.85
435.052	5920.51
435.259	5652.22
435.466	5764.86
435.673	5631.74
435.88	6199.03
436.087	6526.71
436.294	6264.57
436.501	5988.09
436.708	6293.24
436.915	6627.06
437.122	6887.15
437.329	7020.27
437.537	7007.98
437.743	7014.12
437.95	7270.12
438.157	7513.83
438.364	7571.17
438.571	7743.2
438.778	7667.42
438.985	8607.44
439.192	8117.98
439.399	8464.08
439.606	8160.98
439.813	8787.66
440.02	9119.43
440.227	9279.18
440.433	8976.08
440.64	9176.78
440.847	9021.13
441.054	9340.61
441.261	9895.61
441.467	9963.2
441.674	9967.29
441.881	10430.13
442.088	10372.79
442.294	10317.5
442.501	10520.24
442.708	10671.79
442.914	11228.84
443.121	11626.15
443.328	11302.57
443.534	12228.25
443.741	11708.07
443.948	11683.49
444.154	12285.59
444.361	12363.42
444.568	12357.27
444.774	12375.7
444.981	12517.01
445.187	12951.18
445.394	13448.84
445.6	13297.29
445.807	14532.22
446.013	13840
446.22	14239.36
446.426	14765.68
446.633	14904.95
446.839	15631.97
447.046	14814.84
447.252	15445.61
447.459	15533.67
447.665	15703.65
447.871	16166.49
448.078	16868.95
448.284	16340.57
448.491	16533.08
448.697	17495.63
448.903	17557.07
449.11	17618.5
449.316	17196.62
449.522	17618.5
449.728	17956.42
449.935	18359.87
450.141	18052.67
450.347	18490.94
450.553	18267.71
450.76	18267.71
450.966	19009.08
451.172	18521.66
451.378	19535.4
451.584	18570.81
451.791	19131.95
451.997	19246.64
452.203	19564.07
452.409	19768.87
452.615	19445.29
452.821	18791.99
453.027	18679.35
453.233	19727.91
453.44	18826.81
453.646	19369.52
453.852	19346.99
454.058	19674.67
454.264	18933.3
454.47	19514.92
454.676	18722.36
454.882	19545.64
455.088	17903.17
455.294	18064.96
455.5	18292.29
455.705	18943.54
455.911	17983.04
456.117	17774.15
456.323	17317.45
456.529	16582.23
456.735	17237.58
456.941	16926.29
457.147	16586.33
457.352	16006.75
457.558	15867.49
457.764	16016.99
457.97	15732.33
458.176	15484.52
458.381	15523.43
458.587	14681.72
458.793	14616.18
458.999	13940.35
459.204	15093.36
459.41	14370.43
459.616	13502.09
459.821	13448.84
460.027	13436.55
460.233	13260.43
460.438	12547.73
460.644	13029.01
460.85	12287.64
461.055	11839.14
461.261	12029.6
461.466	10892.98
461.672	10813.1
461.878	11445.93
462.083	10378.93
462.289	10575.54
462.494	10319.54
462.7	9895.61
462.905	9606.85
463.111	9987.77
463.316	10188.47
463.522	9707.2
463.727	9789.12
463.932	9627.33
464.138	9772.74
464.343	9651.91
464.549	9377.48
464.754	9594.56
464.959	9490.12
465.165	9514.69
465.37	9068.23
465.575	8830.67
465.781	9410.25
465.986	9191.11
466.191	9021.13
466.397	8734.42
466.602	8425.17
466.807	8740.56
467.012	8603.35
467.218	8468.18
467.423	8619.73
467.628	8664.79
467.833	8836.81
468.038	8627.92
468.244	8195.8
468.449	8586.96
468.654	8423.12
468.859	8392.41
469.064	8244.95
469.269	7771.87
469.474	8048.35
469.679	8060.63
469.885	7894.75
470.09	7974.62
470.295	7964.38
470.5	7800.54
470.705	7823.07
470.91	7749.34
471.115	7491.3
471.32	7632.61
471.525	7851.74
471.73	7546.59
471.935	7458.53
472.139	7182.06
472.344	7407.33
472.549	7452.39
472.754	7073.51
472.959	7042.79
473.164	6958.83
473.369	6706.93
473.574	7112.42
473.778	6940.4
473.983	6936.3
474.188	6735.6
474.393	6538.99
474.598	6682.35
474.802	6543.09
475.007	6369.01
475.212	6655.73
475.417	6326
475.621	6409.97
475.826	6424.31
476.031	6006.52
476.235	6049.53
476.44	6102.78
476.645	6018.81
476.849	5940.99
477.054	5920.51
477.259	5818.11
477.463	5768.96
477.668	5818.11
477.872	5803.77
478.077	5654.27
478.282	5463.81
478.486	5547.78
478.691	5453.57
478.895	5472
479.1	5359.36
479.304	5515.01
479.509	5179.14
479.713	5474.05
479.918	5197.57
480.122	5281.54
480.326	5175.05
480.531	5261.06
480.735	5250.82
480.94	5170.95
481.144	5170.95
481.348	5132.04
481.553	5037.83
481.757	4884.23
481.961	5160.71
482.166	5086.98
482.37	5023.5
482.574	5113.61
482.778	5111.56
482.983	5084.94
483.187	4960.01
483.391	5041.93
483.595	4869.9
483.8	4992.78
484.004	4960.01
484.208	5089.03
484.412	5043.98
484.616	5021.45
484.821	5056.26
485.025	4804.36
485.229	5129.99
485.433	4925.19
485.637	5003.02
485.841	4908.81
486.045	4947.72
486.249	5039.88
486.453	5013.26
486.657	4855.56
486.861	5041.93
487.065	4820.75
487.269	5029.64
487.473	4847.37
487.677	5080.84
487.881	4957.96
488.085	4892.43
488.289	5060.36
488.493	4949.77
488.697	5041.93
488.901	4947.72
489.105	4884.23
489.309	4933.39
489.512	4982.54
489.716	5031.69
489.92	5003.02
490.124	5125.9
490.328	5187.33
490.531	5109.51
490.735	5261.06
490.939	5023.5
491.143	5228.29
491.346	5011.21
491.55	5074.7
491.754	4962.06
491.958	5119.75
492.161	5299.97
492.365	5222.15
492.569	5107.46
492.772	5189.38
492.976	5351.17
493.18	5291.78
493.383	5357.32
493.587	5410.56
493.79	5453.57
493.994	5310.21
494.197	5541.63
494.401	5361.41
494.605	5336.84
494.808	5658.37
495.012	5596.93
495.215	5637.89
495.419	5646.08
495.622	5611.26
495.825	5680.89
496.029	5678.85
496.232	5842.68
496.436	5811.96
496.639	5949.18
496.843	5922.55
497.046	6047.48
497.249	6117.11
497.453	6113.02
497.656	6211.32
497.859	6123.26
498.063	6211.32
498.266	6559.47
498.469	6399.73
498.673	6375.16
498.876	6391.54
499.079	6457.07
499.282	6565.62
499.485	6776.56
499.689	6858.48
499.892	6838
500.095	6866.67
500.298	7122.66
500.501	6948.59
500.705	7114.47
500.908	7128.81
501.111	7364.32
501.314	7354.09
501.517	7325.41
501.72	7513.83
501.923	7390.95
502.126	7722.72
502.329	7720.67
502.532	7841.5
502.735	7911.13
502.938	7939.8
503.141	8185.56
503.344	8054.49
503.547	8212.18
503.75	8228.57
503.953	8351.45
504.156	8441.56
504.359	8531.67
504.562	8584.91
504.765	8904.4
504.968	8951.5
505.17	8996.56
505.373	8978.12
505.576	9146.06
505.779	9232.07
505.982	9154.25
506.185	9406.15
506.387	9459.4
506.59	9477.83
506.793	9762.5
506.996	9707.2
507.198	9735.87
507.401	9840.32
507.604	9957.05
507.807	10176.19
508.009	10163.9
508.212	10356.41
508.415	10555.06
508.617	10690.23
508.82	10835.63
509.022	10718.9
509.225	10847.92
509.428	10823.34
509.63	11249.32
509.833	11124.4
510.035	11325.1
510.238	11234.99
510.44	11359.91
510.643	11404.97
510.845	11763.36
511.048	11663.01
511.25	11800.23
511.453	11986.59
511.655	12576.41
511.858	12338.84
512.06	12469.91
512.262	12422.81
512.465	12437.14
512.667	12742.29
512.87	12811.92
513.072	12908.18
513.274	13235.85
513.477	13043.34
513.679	13389.45
513.881	13440.65
514.084	13579.91
514.286	13659.78
514.488	13731.46
514.69	14231.16
514.893	13969.02
515.095	14288.51
515.297	14083.71
515.499	14415.48
515.701	14560.89
515.904	14814.84
516.106	14935.67
516.308	14831.22
516.51	15152.75
516.712	15240.81
516.914	15392.36
517.116	15601.26
517.318	15335.02
517.52	15801.96
517.722	15736.42
517.925	15844.96
518.127	15955.55
518.329	16416.35
518.531	16094.82
518.733	16651.86
518.935	16596.57
519.136	16344.67
519.338	16842.32
519.54	16954.96
519.742	16938.58
519.944	17286.73
520.146	17360.46
520.348	17569.35
520.55	17628.74
520.752	17530.44
520.954	18159.17
521.155	18005.57
521.357	18253.37
521.559	18126.4
521.761	18488.89
521.963	18636.34
522.164	18767.41
522.366	18794.04
522.568	18871.86
522.77	18921.01
522.971	19410.48
523.173	19346.99
523.375	19539.5
523.576	19371.57
523.778	19326.51
523.98	19815.97
524.181	19840.55
524.383	19975.72
524.584	20074.02
524.786	20026.92
524.988	20006.44
525.189	20397.6
525.391	20450.85
525.592	20422.17
525.794	20518.43
525.995	20809.24
526.197	20880.92
526.398	20817.43
526.6	20739.61
526.801	20897.3
527.003	21024.28
527.204	20983.32
527.406	21089.81
527.607	21216.79
527.808	21610
528.01	21038.61
528.211	21444.11
528.412	21999.11
528.614	21382.67
528.815	21601.8
529.016	22083.08
529.218	21837.32
529.419	21755.4
529.62	21827.08
529.822	21679.63
530.023	21995.01
530.224	21876.23
530.425	21962.25
530.626	22058.5
530.828	21794.31
531.029	22412.8
531.23	21999.11
531.431	22128.13
531.632	22236.67
531.833	22240.77
532.035	22220.29
532.236	22402.56
532.437	22242.82
532.638	22072.84
532.839	22291.97
533.04	22472.19
533.241	22078.98
533.442	22552.06
533.643	22314.5
533.844	22593.02
534.045	22466.05
534.246	21995.01
534.447	22433.28
534.648	22427.14
534.849	22359.55
535.05	22470.14
535.251	22492.67
535.451	22353.41
535.652	22609.4
535.853	22191.62
536.054	22384.13
536.255	22717.95
536.456	22500.86
536.657	22410.75
536.857	22490.62
537.058	22165
537.259	22793.72
537.46	22433.28
537.66	22310.4
537.861	22355.46
538.062	22312.45
538.263	22515.2
538.463	22500.86
538.664	22363.65
538.865	22343.17
539.065	22507.01
539.266	22443.52
539.466	22572.54
539.667	22218.24
539.868	22459.9
540.068	22316.54
540.269	21995.01
540.469	22521.34
540.67	22271.49
540.87	22615.55
541.071	22599.16
541.271	22244.87
541.472	22226.43
541.672	22283.78
541.873	21939.72
542.073	22009.35
542.274	22515.2
542.474	22265.35
542.675	22052.36
542.875	22367.74
543.075	22359.55
543.276	21935.62
543.476	22373.89
543.676	21943.81
543.877	22283.78
544.077	22253.06
544.277	22156.8
544.478	22001.16
544.678	22345.22
544.878	22009.35
545.078	22431.23
545.279	21902.86
545.479	21794.31
545.679	22179.33
545.879	22214.15
546.079	22158.85
546.28	21974.53
546.48	21937.67
546.68	22167.04
546.88	22265.35
547.08	22056.45
547.28	21995.01
547.48	22070.79
547.68	21868.04
547.88	22304.26
548.081	22169.09
548.281	21894.66
548.481	22124.04
548.681	22052.36
548.881	21974.53
549.081	21968.39
549.28	21956.1
549.48	22146.56
549.68	21851.66
549.88	22269.44
550.08	21999.11
550.28	22152.71
550.48	21972.49
550.68	22085.12
550.88	21657.1
551.08	21769.74
551.279	22013.45
551.479	21978.63
551.679	21941.77
551.879	21755.4
552.079	22136.32
552.278	21624.33
552.478	22230.53
552.678	21784.07
552.878	21884.42
553.077	21822.98
553.277	21562.89
553.477	21687.82
553.676	21693.96
553.876	21935.62
554.076	21646.86
554.275	21548.56
554.475	21560.84
554.674	21898.76
554.874	21607.95
555.074	21806.6
555.273	21966.34
555.473	21777.93
555.672	21696.01
555.872	21552.65
556.071	21642.76
556.271	21472.78
556.47	21503.5
556.67	21153.3
556.869	21325.33
557.068	21614.09
557.268	21130.77
557.467	21403.15
557.667	21431.82
557.866	21196.31
558.065	21257.74
558.265	21126.67
558.464	21478.93
558.663	21397.01
558.863	21161.49
559.062	21485.07
559.261	20942.36
559.461	21503.5
559.66	21194.26
559.859	21343.76
560.058	21028.37
560.258	21122.58
560.457	20905.49
560.656	21014.04
560.855	20862.49
561.054	21315.09
561.253	20811.29
561.453	20895.25
561.652	21116.44
561.851	20842.01
562.05	20678.17
562.249	20915.73
562.448	20915.73
562.647	20665.88
562.846	20661.79
563.045	20555.29
563.244	20391.45
563.443	20915.73
563.642	20497.95
563.841	20563.48
564.04	20555.29
564.239	20411.93
564.438	20278.82
564.637	20381.21
564.836	20432.41
565.035	20133.41
565.234	20311.58
565.432	20375.07
565.631	19955.24
565.83	20155.94
566.029	19701.29
566.228	19697.19
566.427	19830.31
566.625	19947.04
566.824	19533.36
567.023	19920.42
567.222	19697.19
567.42	20123.17
567.619	19605.03
567.818	19529.26
568.016	19420.72
568.215	19658.28
568.414	19363.37
568.612	19760.68
568.811	19332.65
569.01	19457.58
569.208	19209.78
569.407	19381.81
569.605	19129.91
569.804	19351.09
570.002	19273.26
570.201	19146.29
570.4	19023.41
570.598	19023.41
570.797	18728.5
570.995	19367.47
571.193	18947.64
571.392	18888.25
571.59	18835
571.789	18564.67
571.987	18810.42
572.186	18402.88
572.384	18701.88
572.582	18722.36
572.781	18914.87
572.979	18394.68
573.177	18636.34
573.376	18660.92
573.574	18255.42
573.772	18589.24
573.971	18349.63
574.169	18251.33
574.367	17888.84
574.565	18220.61
574.763	18046.53
574.962	17974.85
575.16	17780.29
575.358	18019.91
575.556	17745.48
575.754	17989.19
575.952	18036.29
576.151	17700.42
576.349	17817.16
576.547	17915.46
576.745	17995.33
576.943	17716.81
577.141	17641.03
577.339	17641.03
577.537	17438.28
577.735	17544.78
577.933	17206.86
578.131	17372.75
578.329	17221.2
578.527	17415.76
578.725	17452.62
578.923	17415.76
579.121	17118.8
579.319	17010.26
579.516	16985.68
579.714	17030.74
579.912	17264.21
580.11	16744.02
580.308	16961.11
580.506	16641.62
580.704	16545.37
580.901	16709.21
581.099	16715.35
581.297	16711.25
581.495	16731.73
581.692	16690.77
581.89	16485.98
582.088	16801.36
582.285	16598.62
582.483	16488.03
582.681	16522.84
582.878	16494.17
583.076	16434.78
583.274	16490.07
583.471	16225.89
583.669	16227.93
583.866	16035.42
584.064	16412.25
584.262	15996.51
584.459	16254.56
584.657	15943.27
584.854	16031.33
585.052	15615.59
585.249	16008.8
585.447	15996.51
585.644	15574.63
585.841	15912.55
586.039	15767.14
586.236	15603.3
586.434	15505
586.631	15640.17
586.828	15570.54
587.026	15705.7
587.223	15527.53
587.42	15457.9
587.618	15525.48
587.815	15242.86
588.012	15013.49
588.21	15107.69
588.407	15238.76
588.604	15085.17
588.801	15255.15
588.999	14911.09
589.196	15005.3
589.393	14982.77
589.59	15156.85
589.787	14892.66
589.984	14718.58
590.182	14898.8
590.379	14927.47
590.576	14646.9
590.773	14624.37
590.97	14714.48
591.167	14646.9
591.364	14646.9
591.561	14560.89
591.758	14425.72
591.955	14464.63
592.152	14403.19
592.349	14206.59
592.546	14333.56
592.743	14358.14
592.94	14169.73
593.137	14079.61
593.334	14331.51
593.531	14147.2
593.727	14253.69
593.924	14018.18
594.121	13932.16
594.318	13880.96
594.515	13846.15
594.712	14081.66
594.908	13885.06
595.105	13729.41
595.302	13614.73
595.499	13665.92
595.696	13774.47
595.892	13559.43
596.089	13766.28
596.286	13809.28
596.482	13469.32
596.679	13348.49
596.876	13663.88
597.072	13373.07
597.269	13332.11
597.466	13377.16
597.662	13186.7
597.859	13313.67
598.055	13254.28
598.252	12856.98
598.448	13125.26
598.645	12852.88
598.841	12971.66
599.038	12994.19
599.234	12711.57
599.431	12730
599.627	12824.21
599.824	12859.03
600.02	12613.27
600.217	12740.24
600.413	12822.16
600.609	12840.59
600.806	12613.27
601.002	12701.33
601.198	12627.6
601.395	12455.58
601.591	12660.37
601.787	12508.82
601.984	12404.38
602.18	12478.1
602.376	12314.27
602.572	12547.73
602.769	12215.96
602.965	12226.2
603.161	12232.35
603.357	12152.48
603.553	12041.89
603.75	12017.31
603.946	11966.11
604.142	11890.34
604.338	12052.13
604.534	11906.72
604.73	11749.03
604.926	11767.46
605.122	11957.92
605.318	11855.52
605.514	11816.61
605.71	11837.09
605.906	11802.27
606.102	11863.71
606.298	11812.51
606.494	11646.63
606.69	11601.57
606.886	11554.47
607.082	11470.5
607.278	11605.67
607.474	11351.72
607.67	11710.11
607.866	11417.26
608.062	11615.91
608.257	11411.11
608.453	11312.81
608.649	11556.52
608.845	11351.72
609.041	11431.59
609.236	11511.46
609.432	11126.44
609.628	11302.57
609.824	11171.5
610.019	11124.4
610.215	11200.17
610.411	11009.71
610.606	11118.25
610.802	10907.31
610.998	11110.06
611.193	11275.95
611.389	11003.57
611.584	10966.7
611.78	10712.75
611.976	11003.57
612.171	11105.96
612.367	10929.84
612.562	10815.15
612.758	10608.31
612.953	10553.01
613.149	10839.73
613.344	10782.38
613.539	10854.06
613.735	10831.54
613.93	10757.81
614.126	10618.55
614.321	10858.16
614.517	10618.55
614.712	10634.93
614.907	10561.2
615.103	10544.82
615.298	10659.51
615.493	10647.22
615.688	10366.65
615.884	10886.83
616.079	10563.25
616.274	10768.05
616.47	10532.53
616.665	10620.6
616.86	10380.98
617.055	10337.98
617.25	10204.86
617.445	10301.11
617.641	10086.08
617.836	10409.65
618.031	10331.83
618.226	10303.16
618.421	10327.74
618.616	10239.67
618.811	9914.05
619.006	10196.67
619.201	9961.15
619.396	10090.17
619.591	9881.28
619.786	10032.83
619.981	9713.35
620.176	9987.77
620.371	9715.39
620.566	9856.7
620.761	9692.87
620.956	9764.54
621.151	9541.32
621.346	9782.98
621.541	9453.25
621.735	9504.45
621.93	9524.93
622.125	9270.98
622.32	9283.27
622.515	9303.75
622.709	9250.5
622.904	9483.97
623.099	9322.18
623.294	9293.51
623.488	9103.05
623.683	9008.84
623.878	8857.29
624.072	8996.56
624.267	8902.35
624.462	8804.05
624.656	8808.14
624.851	8924.88
625.046	8838.86
625.24	8744.66
625.435	8603.35
625.629	8621.78
625.824	8586.96
626.018	8515.28
626.213	8341.21
626.407	8556.24
626.602	8326.87
626.796	8423.12
626.991	8177.37
627.185	8296.15
627.38	8154.84
627.574	7988.96
627.768	8111.83
627.963	8193.75
628.157	7941.85
628.352	7984.86
628.546	7653.09
628.74	7941.85
628.935	7948
629.129	7921.37
629.323	7763.68
629.517	7778.01
629.712	7737.06
629.906	7749.34
630.1	7462.63
630.294	7696.1
630.489	7577.31
630.683	7489.25
630.877	7495.39
631.071	7292.65
631.265	7354.09
631.459	7413.48
631.653	7368.42
631.848	7251.69
632.042	7108.33
632.236	7155.43
632.43	7079.66
632.624	7124.71
632.818	7067.37
633.012	6940.4
633.206	7206.63
633.4	7061.23
633.594	6907.63
633.788	6899.44
633.982	6792.94
634.176	6799.09
634.369	6838
634.563	6625.01
634.757	6684.4
634.951	6969.07
635.145	6682.35
635.339	6614.77
635.533	6631.15
635.726	6582
635.92	6639.34
636.114	6604.53
636.308	6366.96
636.501	6520.56
636.695	6401.78
636.889	6297.33
637.083	6250.23
637.276	6268.66
637.47	6280.95
637.664	6215.41
637.857	6274.81
638.051	6190.84
638.244	6186.74
638.438	6141.69
638.632	6110.97
638.825	6113.02
639.019	5983.99
639.212	6024.95
639.406	5981.95
639.599	5789.44
639.793	5836.54
639.986	5846.78
640.18	5826.3
640.373	5787.39
640.567	5842.68
640.76	5756.67
640.954	5664.51
641.147	5617.41
641.34	5676.8
641.534	5662.46
641.727	5660.41
641.92	5555.97
642.114	5736.19
642.307	5490.43
642.5	5467.91
642.694	5404.42
642.887	5498.63
643.08	5426.95
643.273	5392.13
643.467	5414.66
643.66	5316.36
643.853	5232.39
644.046	5275.4
644.239	5308.16
644.432	5181.19
644.626	5148.42
644.819	5003.02
645.012	5244.68
645.205	5121.8
645.398	5050.12
645.591	4968.2
645.784	4996.87
645.977	4984.59
646.17	5003.02
646.363	4970.25
646.556	4941.58
646.749	4812.56
646.942	4869.9
647.135	4822.8
647.328	4796.17
647.521	4695.82
647.714	4740.88
647.907	4683.53
648.099	4790.03
648.292	4685.58
648.485	4679.44
648.678	4548.37
648.871	4642.57
649.064	4482.83
649.256	4603.66
649.449	4388.63
649.642	4454.16
649.835	4402.96
650.027	4480.78
650.22	4445.97
650.413	4304.66
650.605	4435.73
650.798	4329.24
650.991	4378.39
651.183	4405.01
651.376	4257.56
651.568	4384.53
651.761	4237.08
651.954	4409.11
652.146	4306.71
652.339	4208.41
652.531	4237.08
652.724	4212.5
652.916	3944.22
653.109	4030.23
653.301	4077.34
653.494	4106.01
653.686	4067.1
653.879	4091.67
654.071	3966.74
654.263	3946.27
654.456	3843.87
654.648	3909.4
654.84	3933.98
655.033	3897.11
655.225	3956.5
655.417	3825.43
655.61	3985.18
655.802	3786.52
655.994	3852.06
656.186	3778.33
656.379	3821.34
656.571	3663.65
656.763	3706.65
656.955	3643.17
657.148	3716.89
657.34	3706.65
657.532	3684.13
657.724	3761.95
657.916	3680.03
658.108	3602.21
658.3	3534.62
658.492	3546.91
658.684	3600.16
658.876	3565.34
659.068	3421.99
659.26	3438.37
659.452	3508
659.644	3426.08
659.836	3497.76
660.028	3387.17
660.22	3471.14
660.412	3258.15
660.604	3424.03
660.796	3368.74
660.988	3485.47
661.18	3329.83
661.372	3243.81
661.563	3360.55
661.755	3284.77
661.947	3231.52
662.139	3229.48
662.331	3184.42
662.522	3172.13
662.714	3241.76
662.906	3178.28
663.097	3213.09
663.289	3082.02
663.481	3110.69
663.673	3092.26
663.864	3174.18
664.056	3073.83
664.247	3010.34
664.439	2955.05
664.631	3071.78
664.822	2975.53
665.014	2903.85
665.205	2963.24
665.397	3047.21
665.588	2922.28
665.78	2836.27
665.971	2967.34
666.163	2953
666.354	2914.09
666.546	2950.95
666.737	2864.94
666.929	2893.61
667.12	2852.65
667.311	2903.85
667.503	2772.78
667.694	2764.59
667.885	2729.77
668.077	2852.65
668.268	2735.92
668.459	2768.68
668.651	2719.53
668.842	2764.59
669.033	2715.44
669.224	2699.05
669.416	2766.64
669.607	2649.9
669.798	2674.48
669.989	2625.33
670.18	2699.05
670.371	2697
670.563	2713.39
670.754	2688.81
670.945	2606.89
671.136	2725.68
671.327	2674.48
671.518	2676.52
671.709	2649.9
671.9	2615.09
672.091	2721.58
672.282	2578.22
672.473	2666.28
672.664	2410.29
672.855	2549.55
673.046	2527.02
673.237	2658.09
673.428	2434.86
673.619	2584.37
673.809	2459.44
674	2471.73
674.191	2557.74
674.382	2443.06
674.573	2561.84
674.764	2418.48
674.954	2469.68
675.145	2508.59
675.336	2406.19
675.527	2412.34
675.717	2498.35
675.908	2451.25
676.099	2412.34
676.289	2557.74
676.48	2404.14
676.671	2295.6
676.861	2434.86
677.052	2309.94
677.243	2256.69
677.433	2391.86
677.624	2459.44
677.814	2467.63
678.005	2299.7
678.195	2387.76
678.386	2262.83
678.576	2320.18
678.767	2359.09
678.957	2336.56
679.148	2402.1
679.338	2305.84
679.529	2232.12
679.719	2346.8
679.909	2344.75
680.1	2379.57
680.29	2357.04
680.481	2357.04
680.671	2344.75
680.861	2295.6
681.052	2354.99
681.242	2395.95
681.432	2295.6
681.622	2207.54
681.813	2367.28
682.003	2160.44
682.193	2260.79
682.383	2262.83
682.573	2309.94
682.764	2225.97
682.954	2234.16
683.144	2289.46
683.334	2297.65
683.524	2195.25
683.714	2264.88
683.904	2283.31
684.094	2137.91
684.284	2234.16
684.474	2332.47
684.664	2268.98
684.854	2316.08
685.044	2156.34
685.234	2090.81
685.424	2264.88
685.614	2203.44
685.804	2150.2
685.994	2103.09
686.184	2262.83
686.374	2125.62
686.564	2180.92
686.753	2238.26
686.943	2082.61
687.133	2131.76
687.323	2127.67
687.513	2090.81
687.702	2090.81
687.892	2131.76
688.082	2109.24
688.272	2127.67
688.461	2058.04
688.651	2090.81
688.841	2058.04
689.03	2058.04
689.22	2033.46
689.41	2010.93
689.599	2025.27
689.789	1992.5
689.979	1976.12
690.168	1988.41
690.358	2027.32
690.547	2049.85
690.737	1918.78
690.926	2074.42
691.116	1931.06
691.305	1992.5
691.495	1888.06
691.684	1939.26
691.874	1961.78
692.063	1955.64
692.252	1963.83
692.442	1920.82
692.631	1904.44
692.82	1849.15
693.01	1976.12
693.199	1898.3
693.388	1894.2
693.578	1804.09
693.767	1824.57
693.956	1771.32
694.146	1820.47
694.335	1744.7
694.524	1797.95
694.713	1738.55
694.902	1832.76
695.092	1773.37
695.281	1779.51
695.47	1793.85
695.659	1791.8
695.848	1705.79
696.037	1726.27
696.226	1699.64
696.415	1789.75
696.604	1799.99
696.793	1730.36
696.982	1750.84
697.171	1707.84
697.36	1703.74
697.549	1658.68
697.738	1722.17
697.927	1621.82
698.116	1808.19
698.305	1771.32
698.494	1718.08
698.683	1605.44
698.872	1953.59
699.061	1732.41
699.25	1709.88
699.438	1781.56
699.627	1550.14
699.816	1771.32
700.005	1644.35
700.193	1695.55
700.382	1613.63
700.571	1656.64
700.76	1636.16
700.948	1736.51
701.137	1707.84
701.326	1754.94
701.514	1722.17
701.703	1812.28
701.892	1683.26
702.08	1771.32
702.269	1722.17
702.457	1668.92
702.646	1699.64
702.834	1713.98
703.023	1666.88
703.212	1623.87
703.4	1685.31
703.589	1619.77
703.777	1652.54
703.965	1613.63
704.154	1619.77
704.342	1673.02
704.531	1566.53
704.719	1615.68
704.907	1650.49
705.096	1648.44
705.284	1726.27
705.472	1574.72
705.661	1640.25
705.849	1668.92
706.037	1689.4
706.226	1568.57
706.414	1746.75
706.602	1566.53
706.79	1640.25
706.979	1709.88
707.167	1746.75
707.355	1699.64
707.543	1664.83
707.731	1720.12
707.919	1642.3
708.107	1664.83
708.296	1648.44
708.484	1550.14
708.672	1681.21
708.86	1554.24
709.048	1689.4
709.236	1566.53
709.424	1670.97
709.612	1691.45
709.8	1681.21
709.988	1722.17
710.176	1707.84
710.364	1771.32
710.551	1673.02
710.739	1744.7
710.927	1691.45
711.115	1652.54
711.303	1638.2
711.491	1519.42
711.679	1658.68
711.866	1668.92
712.054	1685.31
712.242	1593.15
712.43	1679.16
712.617	1607.48
712.805	1656.64
712.993	1642.3
713.181	1685.31
713.368	1673.02
713.556	1658.68
713.744	1664.83
713.931	1713.98
714.119	1541.95
714.306	1644.35
714.494	1595.2
714.682	1703.74
714.869	1627.96
715.057	1593.15
715.244	1707.84
715.432	1673.02
715.619	1775.42
715.807	1558.33
715.994	1582.91
716.182	1675.07
716.369	1722.17
716.556	1756.99
716.744	1640.25
716.931	1558.33
717.119	1748.79
717.306	1685.31
717.493	1752.89
717.681	1546.05
717.868	1673.02
718.055	1650.49
718.242	1601.34
718.43	1648.44
718.617	1697.6
718.804	1722.17
718.991	1609.53
719.179	1750.84
719.366	1685.31
719.553	1564.48
719.74	1697.6
719.927	1687.36
720.114	1730.36
720.301	1664.83
720.488	1574.72
720.676	1668.92
720.863	1632.06
721.05	1754.94
721.237	1566.53
721.424	1685.31
721.611	1707.84
721.798	1699.64
721.985	1541.95
722.172	1605.44
722.358	1623.87
722.545	1693.5
722.732	1615.68
722.919	1716.03
723.106	1748.79
723.293	1582.91
723.48	1570.62
723.667	1650.49
723.853	1591.1
724.04	1582.91
724.227	1734.46
724.414	1658.68
724.6	1838.91
724.787	1730.36
724.974	1638.2
725.161	1705.79
725.347	1611.58
725.534	1642.3
725.72	1683.26
725.907	1713.98
726.094	1713.98
726.28	1718.08
726.467	1697.6
726.653	1707.84
726.84	1632.06
727.027	1709.88
727.213	1640.25
727.4	1660.73
727.586	1693.5
727.773	1695.55
727.959	1693.5
728.145	1574.72
728.332	1587.01
728.518	1640.25
728.705	1761.08
728.891	1720.12
729.077	1740.6
729.264	1589.05
729.45	1685.31
729.636	1718.08
729.823	1666.88
730.009	1609.53
730.195	1599.29
730.382	1656.64
730.568	1736.51
730.754	1595.2
730.94	1642.3
731.126	1617.72
731.313	1582.91
731.499	1658.68
731.685	1716.03
731.871	1556.29
732.057	1668.92
732.243	1709.88
732.429	1716.03
732.615	1746.75
732.801	1779.51
732.987	1544
733.173	1748.79
733.359	1609.53
733.545	1726.27
733.731	1584.96
733.917	1734.46
734.103	1568.57
734.289	1732.41
734.475	1681.21
734.661	1738.55
734.847	1615.68
735.033	1756.99
735.219	1701.69
735.404	1619.77
735.59	1634.11
735.776	1648.44
735.962	1673.02
736.148	1697.6
736.333	1605.44
736.519	1566.53
736.705	1568.57
736.89	1705.79
737.076	1558.33
737.262	1576.77
737.447	1597.24
737.633	1623.87
737.819	1658.68
738.004	1591.1
738.19	1601.34
738.375	1642.3
738.561	1675.07
738.747	1560.38
738.932	1615.68
739.118	1677.12
739.303	1550.14
739.489	1521.47
739.674	1677.12
739.859	1558.33
740.045	1654.59
740.23	1607.48
740.416	1486.65
740.601	1730.36
740.786	1546.05
740.972	1537.85
741.157	1474.37
741.342	1582.91
741.528	1537.85
741.713	1666.88
741.898	1468.22
742.084	1503.04
742.269	1599.29
742.454	1544
742.639	1503.04
742.824	1482.56
743.01	1447.74
743.195	1529.66
743.38	1470.27
743.565	1431.36
743.75	1507.13
743.935	1462.08
744.12	1582.91
744.305	1431.36
744.49	1496.89
744.675	1443.65
744.86	1406.78
745.045	1531.71
745.23	1480.51
745.415	1390.4
745.6	1453.89
745.785	1419.07
745.97	1460.03
746.155	1386.3
746.34	1402.69
746.525	1414.98
746.71	1453.89
746.895	1216.32
747.079	1390.4
747.264	1357.63
747.449	1294.15
747.634	1343.3
747.819	1318.72
748.003	1316.67
748.188	1294.15
748.373	1234.75
748.557	1265.47
748.742	1263.43
748.927	1355.58
749.111	1304.39
749.296	1285.95
749.481	1333.06
749.665	1265.47
749.85	1251.14
750.034	1240.9
750.219	1214.27
750.404	1261.38
750.588	1158.98
750.773	1185.6
750.957	1234.75
751.141	1199.94
751.326	1304.39
751.51	1181.51
751.695	1206.08
751.879	1290.05
752.064	1142.6
752.248	1126.21
752.432	1175.36
752.617	1075.01
752.801	1199.94
752.985	1173.32
753.17	1177.41
753.354	1048.39
753.538	1165.12
753.722	1099.59
753.907	1130.31
754.091	1097.54
754.275	1011.53
754.459	1044.29
754.643	1085.25
754.828	1027.91
755.012	941.89
755.196	1011.53
755.38	984.9
755.564	999.24
755.748	954.18
755.932	888.65
756.116	890.7
756.3	1015.62
756.484	1009.48
756.668	884.55
756.852	880.46
757.036	1042.25
757.22	935.75
757.404	845.64
757.588	980.81
757.772	913.22
757.956	837.45
758.14	913.22
758.323	923.46
758.507	886.6
758.691	905.03
758.875	872.26
759.059	812.87
759.242	843.59
759.426	886.6
759.61	902.98
759.794	771.91
759.977	859.98
760.161	866.12
760.345	876.36
760.528	907.08
760.712	792.39
760.895	814.92
761.079	784.2
761.263	853.83
761.446	812.87
761.63	767.82
761.813	773.96
761.997	743.24
762.18	759.63
762.364	780.11
762.547	689.99
762.731	689.99
762.914	726.86
763.098	767.82
763.281	767.82
763.464	726.86
763.648	845.64
763.831	710.47
764.015	739.15
764.198	780.11
764.381	659.28
764.564	718.67
764.748	702.28
764.931	722.76
765.114	790.35
765.297	767.82
765.481	667.47
765.664	716.62
765.847	722.76
766.03	673.61
766.213	624.46
766.397	778.06
766.58	663.37
766.763	733
766.946	710.47
767.129	653.13
767.312	714.57
767.495	626.51
767.678	714.57
767.861	581.45
768.044	700.23
768.227	628.56
768.41	673.61
768.593	628.56
768.776	642.89
768.959	610.12
769.142	640.84
769.324	640.84
769.507	730.95
769.69	624.46
769.873	581.45
770.056	710.47
770.239	618.32
770.421	675.66
770.604	618.32
770.787	632.65
770.97	632.65
771.152	624.46
771.335	624.46
771.518	636.75
771.7	552.78
771.883	571.21
772.066	550.73
772.248	567.12
772.431	583.5
772.613	532.3
772.796	560.97
772.978	542.54
773.161	593.74
773.343	591.69
773.526	503.63
773.708	606.03
773.891	470.86
774.073	569.16
774.256	474.96
774.438	601.93
774.621	577.36
774.803	526.16
774.985	499.53
775.168	497.49
775.35	503.63
775.532	595.79
775.715	517.97
775.897	534.35
776.079	399.18
776.261	544.59
776.444	517.97
776.626	450.38
776.808	446.29
776.99	397.14
777.173	509.77
777.355	380.75
777.537	560.97
777.719	444.24
777.901	448.33
778.083	440.14
778.265	384.85
778.447	501.58
778.629	499.53
778.811	530.25
778.993	380.75
779.175	460.62
779.357	337.74
779.539	417.61
779.721	438.09
779.903	397.14
780.085	403.28
780.267	386.9
780.449	448.33
780.631	431.95
780.812	366.42
780.994	378.7
781.176	419.66
781.358	397.14
781.54	397.14
781.721	247.63
781.903	421.71
782.085	343.89
782.267	386.9
782.448	329.55
782.63	382.8
782.812	350.03
782.993	319.31
783.175	307.02
783.357	403.28
783.538	401.23
783.72	259.92
783.901	403.28
784.083	362.32
784.264	354.13
784.446	257.87
784.627	378.7
784.809	356.18
784.99	341.84
785.172	362.32
785.353	225.11
785.535	300.88
785.716	354.13
785.897	227.15
786.079	313.17
786.26	370.51
786.441	290.64
786.623	233.3
786.804	268.11
786.985	290.64
787.167	370.51
787.348	239.44
787.529	304.98
787.71	309.07
787.891	315.22
788.073	210.77
788.254	274.26
788.435	329.55
788.616	280.4
788.797	253.78
788.978	190.29
789.159	292.69
789.34	239.44
789.522	280.4
789.703	210.77
789.884	223.06
790.065	282.45
790.246	235.35
790.427	251.73
790.607	239.44
790.788	294.74
790.969	225.11
791.15	257.87
791.331	225.11
791.512	192.34
791.693	210.77
791.874	173.91
792.054	380.75
792.235	253.78
792.416	221.01
792.597	147.28
792.778	257.87
792.958	280.4
793.139	173.91
793.32	184.15
793.5	132.95
793.681	307.02
793.862	163.67
794.042	231.25
794.223	157.52
794.404	208.72
794.584	112.47
794.765	178
794.945	151.38
795.126	210.77
795.306	247.63
795.487	190.29
795.667	118.61
795.848	214.87
796.028	210.77
796.209	190.29
796.389	206.67
796.57	184.15
796.75	124.76
796.93	184.15
797.111	94.04
797.291	264.02
797.471	147.28
797.652	190.29
797.832	198.48
798.012	225.11
798.192	171.86
798.373	190.29
798.553	210.77
798.733	149.33
798.913	175.95
799.093	182.1
799.274	208.72
799.454	198.48
799.634	169.81
799.814	216.91
799.994	120.66
800.174	190.29
800.354	165.71
800.534	155.47
800.714	180.05
800.894	182.1
801.074	167.76
801.254	108.37
801.434	135
801.614	130.9
801.794	157.52
801.974	730.95
802.154	149.33
802.334	163.67
802.514	225.11
802.693	120.66
802.873	110.42
803.053	145.24
803.233	132.95
803.413	151.38
803.592	178
803.772	73.56
803.952	135
804.131	139.09
804.311	141.14
804.491	116.56
804.67	112.47
804.85	83.8
805.03	112.47
805.209	122.71
805.389	110.42
805.568	79.7
805.748	132.95
805.928	126.8
806.107	77.65
806.287	153.43
806.466	173.91
806.646	108.37
806.825	96.08
807.004	96.08
807.184	116.56
807.363	108.37
807.543	165.71
807.722	139.09
807.901	124.76
808.081	137.04
808.26	1.88
808.439	169.81
808.619	116.56
808.798	139.09
808.977	200.53
809.156	151.38
809.336	124.76
809.515	190.29
809.694	71.51
809.873	10.07
810.052	130.9
810.231	204.63
810.411	71.51
810.59	157.52
810.769	83.8
810.948	145.24
811.127	12.12
811.306	77.65
811.485	128.85
811.664	98.13
811.843	14.17
812.022	118.61
812.201	30.55
812.38	75.6
812.559	51.03
812.737	89.94
812.916	3.93
813.095	-0.17
813.274	51.03
813.453	94.04
813.632	63.32
813.811	141.14
813.989	110.42
814.168	141.14
814.347	30.55
814.526	100.18
814.704	182.1
814.883	100.18
815.062	53.08
815.24	132.95
815.419	87.89
815.598	55.12
815.776	38.74
815.955	75.6
816.133	63.32
816.312	65.36
816.49	87.89
816.669	104.28
816.847	120.66
817.026	116.56
817.204	108.37
817.383	59.22
817.561	91.99
817.74	126.8
817.918	91.99
818.097	38.74
818.275	65.36
818.453	-10.41
818.632	5.97
818.81	55.12
818.988	40.79
819.167	53.08
819.345	69.46
819.523	128.85
819.701	85.84
819.879	67.41
820.058	22.36
820.236	89.94
820.414	120.66
820.592	46.93
820.77	116.56
820.948	108.37
821.127	61.27
821.305	-14.51
821.483	63.32
821.661	116.56
821.839	77.65
822.017	100.18
822.195	10.07
822.373	98.13
822.551	53.08
822.729	30.55
822.907	14.17
823.085	53.08
823.262	51.03
823.44	26.45
823.618	-4.27
823.796	36.69
823.974	59.22
824.152	14.17
824.329	100.18
824.507	116.56
824.685	61.27
824.863	28.5
825.04	48.98
825.218	110.42
825.396	51.03
825.574	139.09
825.751	30.55
825.929	108.37
826.107	-55.47
826.284	102.23
826.462	42.84
826.639	-12.46
826.817	28.5
826.994	14.17
827.172	73.56
827.349	126.8
827.527	36.69
827.704	67.41
827.882	51.03
828.059	100.18
828.237	100.18
828.414	67.41
828.591	12.12
828.769	100.18
828.946	100.18
829.124	163.67
829.301	48.98
829.478	55.12
829.655	51.03
829.833	67.41
830.01	-34.99
830.187	51.03
830.364	51.03
830.542	34.64
830.719	20.31
830.896	75.6
831.073	57.17
831.25	77.65
831.427	63.32
831.604	5.97
831.782	12.12
831.959	16.21
832.136	61.27
832.313	26.45
832.49	65.36
832.667	75.6
832.844	24.4
833.021	126.8
833.198	34.64
833.374	20.31
833.551	42.84
833.728	44.88
833.905	12.12
834.082	91.99
834.259	40.79
834.436	71.51
834.612	-0.17
834.789	42.84
834.966	34.64
835.143	-10.41
835.319	77.65
835.496	-4.27
835.673	48.98
835.85	10.07
836.026	44.88
836.203	28.5
836.38	-2.22
836.556	94.04
836.733	3.93
836.909	59.22
837.086	22.36
837.262	67.41
837.439	-22.7
837.616	-12.46
837.792	-8.36
837.968	18.26
838.145	24.4
838.321	59.22
838.498	57.17
838.674	-2.22
838.851	26.45
839.027	-28.84
839.203	110.42
839.38	59.22
839.556	28.5
839.732	16.21
839.909	-26.79
840.085	-4.27
840.261	26.45
840.437	42.84
840.614	-14.51
840.79	-0.17
840.966	-6.31
841.142	-73.9
841.318	-39.08
841.494	-30.89
841.671	-22.7
841.847	-6.31
842.023	26.45
842.199	46.93
842.375	44.88
842.551	28.5
842.727	34.64
842.903	-14.51
843.079	12.12
843.255	32.6
843.431	48.98
843.607	59.22
843.783	-10.41
843.959	40.79
844.134	83.8
844.31	8.02
844.486	28.5
844.662	-47.27
844.838	1.88
845.013	26.45
845.189	-65.71
845.365	-43.18
845.541	-10.41
845.716	-12.46
845.892	65.36
846.068	1.88
846.244	14.17
846.419	10.07
846.595	-53.42
846.77	28.5
846.946	-43.18
847.122	22.36
847.297	18.26
847.473	57.17
847.648	-47.27
847.824	-14.51
847.999	-6.31
848.175	16.21
848.35	1.88
848.526	83.8
848.701	61.27
848.876	-67.75
849.052	-32.94
849.227	-41.13
849.403	20.31
849.578	-14.51
849.753	10.07
849.929	32.6
850.104	-4.27
850.279	36.69
850.454	-26.79
850.63	75.6
850.805	44.88
850.98	26.45
851.155	32.6
851.33	12.12
851.505	-30.89
851.681	-22.7
851.856	16.21
852.031	75.6
852.206	-26.79
852.381	32.6
852.556	-61.61
852.731	-34.99
852.906	1.88
853.081	28.5
853.256	1.88
853.431	-20.65
853.606	-10.41
853.781	-37.03
853.956	16.21
854.131	42.84
854.305	-65.71
854.48	-34.99
854.655	-26.79
854.83	-39.08
855.005	10.07
855.18	-20.65
855.354	-57.51
855.529	30.55
855.704	14.17
855.879	26.45
856.053	-26.79
856.228	34.64
856.403	10.07
856.577	30.55
856.752	-24.75
856.926	-24.75
857.101	20.31
857.276	22.36
857.45	5.97
857.625	57.17
857.799	44.88
857.974	-63.66
858.148	-32.94
858.323	40.79
858.497	-18.6
858.672	-4.27
858.846	53.08
859.02	3.93
859.195	5.97
859.369	-8.36
859.543	1.88
859.718	-14.51
859.892	-2.22
860.066	42.84
860.241	-69.8
860.415	30.55
860.589	34.64
860.763	28.5
860.938	12.12
861.112	28.5
861.286	-6.31
861.46	-43.18
861.634	-39.08
861.808	24.4
861.982	22.36
862.157	5.97
862.331	20.31
862.505	-55.47
862.679	32.6
862.853	26.45
863.027	1.88
863.201	34.64
863.375	1.88
863.549	42.84
863.722	-57.51
863.896	40.79
864.07	-88.23
864.244	-80.04
864.418	46.93
864.592	67.41
864.766	40.79
864.939	3.93
865.113	-26.79
865.287	20.31
865.461	-65.71
865.634	12.12
865.808	-6.31
865.982	22.36
866.156	10.07
866.329	-39.08
866.503	30.55
866.676	28.5
866.85	-71.85
867.024	1.88
867.197	-45.23
867.371	1.88
867.544	-67.75
867.718	71.51
867.891	-61.61
868.065	28.5
868.238	34.64
868.412	1.88
868.585	-45.23
868.759	5.97
868.932	-6.31
869.105	-18.6
869.279	-14.51
869.452	-14.51
869.625	22.36
869.799	8.02
869.972	12.12
870.145	16.21
870.319	-2.22
870.492	-12.46
870.665	-26.79
870.838	5.97
871.011	-69.8
871.185	-75.95
871.358	20.31
871.531	8.02
871.704	48.98
871.877	-18.6
872.05	-24.75
872.223	-37.03
872.396	59.22
872.569	30.55
872.742	-55.47
872.915	73.56
873.088	-4.27
873.261	1.88
873.434	34.64
873.607	-14.51
873.78	-77.99
873.953	-88.23
874.126	10.07
874.299	128.85
874.471	-14.51
874.644	28.5
874.817	36.69
874.99	-98.47
875.163	14.17
875.335	18.26
875.508	-55.47
875.681	44.88
875.853	-45.23
876.026	26.45
876.199	112.47
876.371	34.64
876.544	5.97
876.717	-39.08
876.889	30.55
877.062	-39.08
877.234	69.46
877.407	-53.42
877.579	-30.89
877.752	18.26
877.924	1.88
878.097	26.45
878.269	-22.7
878.442	36.69
878.614	5.97
878.786	1.88
878.959	12.12
879.131	32.6
879.303	12.12
879.476	-14.51
879.648	61.27
879.82	-67.75
879.993	-8.36
880.165	-30.89
880.337	-71.85
880.509	36.69
880.681	-18.6
880.854	-2.22
881.026	36.69
881.198	30.55
881.37	-63.66
881.542	12.12
881.714	3.93
881.886	-10.41
882.058	-39.08
882.23	-34.99
882.402	-18.6
882.574	-26.79
882.746	-37.03
882.918	42.84
883.09	5.97
883.262	5.97
883.434	-8.36
883.606	1.88
883.778	-41.13
883.95	12.12
884.122	-71.85
884.293	1.88
884.465	-65.71
884.637	79.7
884.809	-34.99
884.98	-18.6
885.152	26.45
885.324	22.36
885.496	-16.55
885.667	26.45
885.839	-20.65
886.011	65.36
886.182	38.74
886.354	44.88
886.525	-28.84
886.697	24.4
886.869	-28.84
887.04	-49.32
887.212	-37.03
887.383	1.88
887.555	18.26
887.726	24.4
887.897	-39.08
888.069	-6.31
888.24	14.17
888.412	5.97
888.583	26.45
888.754	-28.84
888.926	22.36
889.097	28.5
889.268	-22.7
889.44	-10.41
889.611	-61.61
889.782	-0.17
889.953	-43.18
890.125	24.4
890.296	-80.04
890.467	51.03
890.638	-22.7
890.809	18.26
890.98	-24.75
891.151	-49.32
891.323	69.46
891.494	34.64
891.665	20.31
891.836	-30.89
892.007	42.84
892.178	10.07
892.349	16.21
892.52	-8.36
892.691	3.93
892.862	1.88
893.032	-47.27
893.203	-12.46
893.374	-69.8
893.545	3.93
893.716	-39.08
893.887	85.84
894.057	-55.47
894.228	-2.22
894.399	53.08
894.57	-18.6
894.74	-61.61
894.911	53.08
895.082	-55.47
895.253	-86.19
895.423	-47.27
895.594	14.17
895.764	1.88
895.935	-22.7
896.106	-39.08
896.276	-63.66
896.447	-61.61
896.617	-43.18
896.788	-26.79
896.958	-30.89
897.129	8.02
897.299	-0.17
897.47	-14.51
897.64	61.27
897.81	16.21
897.981	26.45
898.151	-39.08
898.322	-4.27
898.492	-12.46
898.662	20.31
898.832	51.03
899.003	-67.75
899.173	-55.47
899.343	-43.18
899.513	46.93
