Data from USB4F104151__67__14-17-18-715.txt Node

Date: Thu Mar 13 14:17:18 EDT 2025
User: louis
Spectrometer: USB4F10415
Trigger mode: 4
Integration Time (sec): 2.000000E-2
Scans to average: 1
Electric dark correction enabled: true
Nonlinearity correction enabled: false
Boxcar width: 0
XAxis mode: Wavelengths
Number of Pixels in Spectrum: 3648
>>>>>Begin Spectral Data<<<<<
178.204	-95.23
178.424	-95.23
178.644	-95.23
178.864	-99.33
179.084	-72.7
179.304	-11.26
179.524	-41.98
179.744	35.84
179.964	25.6
180.184	3.07
180.404	-23.55
180.624	-29.7
180.844	-3.07
181.064	21.5
181.283	-7.17
181.503	50.18
181.723	-19.46
181.943	-19.46
182.163	60.42
182.383	35.84
182.602	101.37
182.822	74.75
183.042	99.33
183.262	-21.5
183.482	3.07
183.701	72.7
183.921	23.55
184.141	21.5
184.361	21.5
184.58	82.94
184.8	64.51
185.02	58.37
185.239	87.04
185.459	9.22
185.679	132.09
185.898	-27.65
186.118	-5.12
186.338	91.13
186.557	52.22
186.777	9.22
186.997	-27.65
187.216	105.47
187.436	140.29
187.655	27.65
187.875	33.79
188.095	64.51
188.314	48.13
188.534	82.94
188.753	84.99
188.973	62.46
189.192	58.37
189.412	101.37
189.631	41.98
189.851	64.51
190.07	76.8
190.29	99.33
190.509	44.03
190.729	-7.17
190.948	87.04
191.168	117.76
191.387	103.42
191.607	13.31
191.826	62.46
192.045	9.22
192.265	70.65
192.484	66.56
192.704	74.75
192.923	-1.02
193.142	175.1
193.362	50.18
193.581	95.23
193.8	50.18
194.02	37.89
194.239	39.94
194.458	54.27
194.678	103.42
194.897	66.56
195.116	9.22
195.335	5.12
195.555	44.03
195.774	58.37
195.993	95.23
196.212	-15.36
196.432	111.61
196.651	39.94
196.87	31.74
197.089	84.99
197.308	107.52
197.528	50.18
197.747	29.7
197.966	29.7
198.185	76.8
198.404	33.79
198.623	93.18
198.842	52.22
199.062	99.33
199.281	84.99
199.5	50.18
199.719	97.28
199.938	97.28
200.157	115.71
200.376	17.41
200.595	68.61
200.814	17.41
201.033	84.99
201.252	60.42
201.471	60.42
201.69	15.36
201.909	60.42
202.128	54.27
202.347	78.85
202.566	52.22
202.785	52.22
203.004	68.61
203.223	140.29
203.442	76.8
203.661	64.51
203.879	58.37
204.098	50.18
204.317	-31.74
204.536	109.57
204.755	-9.22
204.974	87.04
205.193	44.03
205.411	54.27
205.63	68.61
205.849	50.18
206.068	-23.55
206.287	25.6
206.505	109.57
206.724	132.09
206.943	44.03
207.162	29.7
207.381	82.94
207.599	60.42
207.818	1.02
208.037	1.02
208.255	29.7
208.474	95.23
208.693	64.51
208.911	50.18
209.13	142.33
209.349	35.84
209.567	41.98
209.786	84.99
210.005	-3.07
210.223	70.65
210.442	35.84
210.661	48.13
210.879	64.51
211.098	21.5
211.316	1.02
211.535	82.94
211.753	25.6
211.972	164.86
212.191	103.42
212.409	66.56
212.628	-11.26
212.846	35.84
213.065	103.42
213.283	50.18
213.502	78.85
213.72	-19.46
213.938	84.99
214.157	66.56
214.375	41.98
214.594	-48.13
214.812	107.52
215.031	11.26
215.249	46.08
215.467	84.99
215.686	78.85
215.904	82.94
216.122	-3.07
216.341	156.67
216.559	101.37
216.778	107.52
216.996	21.5
217.214	87.04
217.432	-3.07
217.651	27.65
217.869	74.75
218.087	15.36
218.306	29.7
218.524	66.56
218.742	74.75
218.96	115.71
219.179	117.76
219.397	76.8
219.615	101.37
219.833	70.65
220.051	52.22
220.27	84.99
220.488	117.76
220.706	58.37
220.924	27.65
221.142	74.75
221.36	23.55
221.578	95.23
221.796	25.6
222.015	58.37
222.233	91.13
222.451	39.94
222.669	33.79
222.887	25.6
223.105	48.13
223.323	-5.12
223.541	52.22
223.759	76.8
223.977	50.18
224.195	37.89
224.413	66.56
224.631	115.71
224.849	70.65
225.067	119.81
225.285	-50.18
225.503	70.65
225.721	-31.74
225.939	3.07
226.157	82.94
226.375	66.56
226.592	-15.36
226.81	64.51
227.028	107.52
227.246	123.9
227.464	70.65
227.682	109.57
227.9	48.13
228.117	58.37
228.335	95.23
228.553	56.32
228.771	17.41
228.989	44.03
229.206	107.52
229.424	33.79
229.642	21.5
229.86	-15.36
230.077	101.37
230.295	99.33
230.513	91.13
230.731	91.13
230.948	121.85
231.166	82.94
231.384	44.03
231.601	66.56
231.819	11.26
232.037	39.94
232.254	109.57
232.472	25.6
232.689	21.5
232.907	91.13
233.125	37.89
233.342	123.9
233.56	117.76
233.777	33.79
233.995	103.42
234.213	82.94
234.43	89.09
234.648	60.42
234.865	91.13
235.083	41.98
235.3	91.13
235.518	66.56
235.735	87.04
235.953	99.33
236.17	35.84
236.388	33.79
236.605	76.8
236.822	50.18
237.04	66.56
237.257	17.41
237.475	91.13
237.692	25.6
237.909	117.76
238.127	25.6
238.344	35.84
238.562	80.89
238.779	39.94
238.996	82.94
239.214	35.84
239.431	101.37
239.648	50.18
239.865	128
240.083	66.56
240.3	21.5
240.517	41.98
240.735	87.04
240.952	84.99
241.169	111.61
241.386	66.56
241.603	9.22
241.821	41.98
242.038	132.09
242.255	107.52
242.472	-13.31
242.689	41.98
242.907	78.85
243.124	11.26
243.341	136.19
243.558	82.94
243.775	41.98
243.992	19.46
244.209	84.99
244.426	101.37
244.643	58.37
244.86	29.7
245.078	58.37
245.295	-5.12
245.512	107.52
245.729	80.89
245.946	44.03
246.163	35.84
246.38	87.04
246.597	58.37
246.814	13.31
247.031	142.33
247.248	123.9
247.464	13.31
247.681	123.9
247.898	33.79
248.115	107.52
248.332	13.31
248.549	87.04
248.766	35.84
248.983	117.76
249.2	82.94
249.417	66.56
249.633	64.51
249.85	91.13
250.067	50.18
250.284	23.55
250.501	33.79
250.717	70.65
250.934	72.7
251.151	111.61
251.368	41.98
251.585	52.22
251.801	-37.89
252.018	13.31
252.235	91.13
252.451	27.65
252.668	91.13
252.885	138.24
253.102	103.42
253.318	76.8
253.535	7.17
253.752	48.13
253.968	84.99
254.185	41.98
254.401	64.51
254.618	82.94
254.835	99.33
255.051	142.33
255.268	68.61
255.484	23.55
255.701	66.56
255.917	123.9
256.134	66.56
256.351	39.94
256.567	95.23
256.784	128
257	56.32
257.217	17.41
257.433	70.65
257.65	82.94
257.866	132.09
258.082	11.26
258.299	13.31
258.515	64.51
258.732	64.51
258.948	1.02
259.165	58.37
259.381	82.94
259.597	11.26
259.814	21.5
260.03	-7.17
260.246	52.22
260.463	66.56
260.679	177.15
260.895	27.65
261.112	52.22
261.328	46.08
261.544	62.46
261.761	117.76
261.977	74.75
262.193	70.65
262.409	35.84
262.626	74.75
262.842	58.37
263.058	11.26
263.274	173.05
263.49	56.32
263.707	177.15
263.923	82.94
264.139	25.6
264.355	76.8
264.571	74.75
264.787	52.22
265.004	41.98
265.22	9.22
265.436	44.03
265.652	35.84
265.868	58.37
266.084	46.08
266.3	80.89
266.516	52.22
266.732	54.27
266.948	115.71
267.164	82.94
267.38	91.13
267.596	62.46
267.812	101.37
268.028	68.61
268.244	48.13
268.46	64.51
268.676	27.65
268.892	123.9
269.108	78.85
269.324	29.7
269.54	66.56
269.756	68.61
269.972	-7.17
270.188	91.13
270.403	-19.46
270.619	54.27
270.835	25.6
271.051	1.02
271.267	29.7
271.483	25.6
271.698	105.47
271.914	-1.02
272.13	74.75
272.346	50.18
272.562	9.22
272.777	37.89
272.993	-19.46
273.209	23.55
273.425	25.6
273.64	35.84
273.856	35.84
274.072	39.94
274.287	1.02
274.503	68.61
274.719	50.18
274.934	82.94
275.15	-29.7
275.366	11.26
275.581	62.46
275.797	128
276.012	140.29
276.228	11.26
276.444	-19.46
276.659	107.52
276.875	66.56
277.09	58.37
277.306	17.41
277.521	82.94
277.737	-15.36
277.952	41.98
278.168	41.98
278.383	68.61
278.599	84.99
278.814	48.13
279.03	107.52
279.245	62.46
279.461	66.56
279.676	93.18
279.892	123.9
280.107	74.75
280.322	74.75
280.538	33.79
280.753	109.57
280.969	9.22
281.184	70.65
281.399	103.42
281.615	52.22
281.83	35.84
282.045	66.56
282.26	37.89
282.476	76.8
282.691	74.75
282.906	56.32
283.122	-3.07
283.337	35.84
283.552	74.75
283.767	60.42
283.983	35.84
284.198	54.27
284.413	1.02
284.628	33.79
284.843	64.51
285.058	82.94
285.274	50.18
285.489	-23.55
285.704	37.89
285.919	76.8
286.134	33.79
286.349	48.13
286.564	52.22
286.779	82.94
286.995	82.94
287.21	19.46
287.425	123.9
287.64	25.6
287.855	173.05
288.07	48.13
288.285	21.5
288.5	142.33
288.715	72.7
288.93	50.18
289.145	66.56
289.36	60.42
289.575	54.27
289.79	76.8
290.004	82.94
290.219	99.33
290.434	62.46
290.649	70.65
290.864	62.46
291.079	50.18
291.294	74.75
291.509	99.33
291.724	-15.36
291.938	-3.07
292.153	9.22
292.368	35.84
292.583	44.03
292.798	82.94
293.012	142.33
293.227	35.84
293.442	-7.17
293.657	17.41
293.871	58.37
294.086	35.84
294.301	160.77
294.516	82.94
294.73	99.33
294.945	33.79
295.16	9.22
295.374	48.13
295.589	66.56
295.804	56.32
296.018	58.37
296.233	109.57
296.447	109.57
296.662	66.56
296.877	27.65
297.091	89.09
297.306	99.33
297.52	33.79
297.735	66.56
297.949	64.51
298.164	60.42
298.378	35.84
298.593	66.56
298.807	107.52
299.022	66.56
299.236	89.09
299.451	93.18
299.665	29.7
299.88	-25.6
300.094	74.75
300.309	41.98
300.523	13.31
300.737	117.76
300.952	44.03
301.166	5.12
301.381	27.65
301.595	-25.6
301.809	23.55
302.024	37.89
302.238	76.8
302.452	105.47
302.667	82.94
302.881	91.13
303.095	89.09
303.309	37.89
303.524	68.61
303.738	41.98
303.952	58.37
304.166	93.18
304.381	33.79
304.595	154.62
304.809	13.31
305.023	103.42
305.237	56.32
305.452	50.18
305.666	-27.65
305.88	76.8
306.094	-11.26
306.308	125.95
306.522	5.12
306.736	99.33
306.95	21.5
307.164	107.52
307.379	37.89
307.593	41.98
307.807	35.84
308.021	121.85
308.235	17.41
308.449	33.79
308.663	9.22
308.877	109.57
309.091	-15.36
309.305	25.6
309.519	9.22
309.733	136.19
309.947	72.7
310.161	103.42
310.374	136.19
310.588	99.33
310.802	31.74
311.016	11.26
311.23	76.8
311.444	35.84
311.658	64.51
311.872	95.23
312.085	136.19
312.299	64.51
312.513	115.71
312.727	50.18
312.941	-11.26
313.154	50.18
313.368	41.98
313.582	48.13
313.796	13.31
314.009	76.8
314.223	29.7
314.437	56.32
314.651	52.22
314.864	48.13
315.078	68.61
315.292	76.8
315.505	68.61
315.719	62.46
315.933	82.94
316.146	64.51
316.36	44.03
316.573	82.94
316.787	60.42
317.001	70.65
317.214	-23.55
317.428	19.46
317.641	52.22
317.855	37.89
318.068	84.99
318.282	44.03
318.495	66.56
318.709	80.89
318.922	50.18
319.136	52.22
319.349	60.42
319.563	70.65
319.776	121.85
319.99	68.61
320.203	70.65
320.417	99.33
320.63	93.18
320.843	138.24
321.057	115.71
321.27	70.65
321.483	31.74
321.697	50.18
321.91	25.6
322.124	64.51
322.337	72.7
322.55	21.5
322.763	74.75
322.977	25.6
323.19	136.19
323.403	37.89
323.617	76.8
323.83	46.08
324.043	41.98
324.256	13.31
324.469	74.75
324.683	5.12
324.896	60.42
325.109	23.55
325.322	15.36
325.535	72.7
325.748	132.09
325.962	72.7
326.175	11.26
326.388	66.56
326.601	148.48
326.814	103.42
327.027	62.46
327.24	87.04
327.453	-39.94
327.666	91.13
327.879	84.99
328.092	115.71
328.305	21.5
328.518	152.57
328.731	66.56
328.944	54.27
329.157	50.18
329.37	9.22
329.583	78.85
329.796	74.75
330.009	-15.36
330.222	74.75
330.435	76.8
330.648	105.47
330.861	119.81
331.073	50.18
331.286	78.85
331.499	87.04
331.712	33.79
331.925	103.42
332.138	80.89
332.35	62.46
332.563	52.22
332.776	99.33
332.989	66.56
333.202	3.07
333.414	11.26
333.627	68.61
333.84	-23.55
334.053	87.04
334.265	70.65
334.478	109.57
334.691	117.76
334.903	52.22
335.116	111.61
335.329	123.9
335.541	3.07
335.754	50.18
335.966	56.32
336.179	60.42
336.392	111.61
336.604	17.41
336.817	39.94
337.029	52.22
337.242	21.5
337.454	115.71
337.667	-3.07
337.88	78.85
338.092	87.04
338.305	91.13
338.517	117.76
338.729	132.09
338.942	91.13
339.154	41.98
339.367	74.75
339.579	101.37
339.792	117.76
340.004	99.33
340.217	99.33
340.429	113.66
340.641	25.6
340.854	-7.17
341.066	46.08
341.278	93.18
341.491	144.38
341.703	78.85
341.915	41.98
342.128	125.95
342.34	171.01
342.552	76.8
342.764	19.46
342.977	-11.26
343.189	11.26
343.401	89.09
343.613	19.46
343.826	23.55
344.038	33.79
344.25	123.9
344.462	93.18
344.674	66.56
344.886	46.08
345.099	-23.55
345.311	128
345.523	11.26
345.735	66.56
345.947	99.33
346.159	58.37
346.371	58.37
346.583	39.94
346.795	76.8
347.007	60.42
347.219	60.42
347.431	54.27
347.643	91.13
347.855	21.5
348.067	150.53
348.279	107.52
348.491	89.09
348.703	76.8
348.915	15.36
349.127	58.37
349.339	99.33
349.551	125.95
349.763	82.94
349.975	44.03
350.187	109.57
350.399	132.09
350.61	60.42
350.822	15.36
351.034	82.94
351.246	107.52
351.458	33.79
351.669	82.94
351.881	60.42
352.093	44.03
352.305	54.27
352.517	39.94
352.728	50.18
352.94	87.04
353.152	54.27
353.363	37.89
353.575	78.85
353.787	95.23
353.999	91.13
354.21	111.61
354.422	84.99
354.633	9.22
354.845	99.33
355.057	74.75
355.268	17.41
355.48	44.03
355.692	115.71
355.903	56.32
356.115	3.07
356.326	-37.89
356.538	84.99
356.749	156.67
356.961	107.52
357.172	17.41
357.384	48.13
357.595	68.61
357.807	54.27
358.018	50.18
358.23	21.5
358.441	93.18
358.653	164.86
358.864	41.98
359.075	27.65
359.287	50.18
359.498	17.41
359.709	95.23
359.921	78.85
360.132	140.29
360.344	58.37
360.555	60.42
360.766	84.99
360.977	95.23
361.189	62.46
361.4	3.07
361.611	109.57
361.823	46.08
362.034	93.18
362.245	93.18
362.456	50.18
362.667	44.03
362.879	115.71
363.09	103.42
363.301	125.95
363.512	91.13
363.723	21.5
363.935	37.89
364.146	99.33
364.357	31.74
364.568	99.33
364.779	-15.36
364.99	60.42
365.201	11.26
365.412	154.62
365.623	9.22
365.834	125.95
366.045	91.13
366.256	68.61
366.467	97.28
366.678	95.23
366.889	91.13
367.1	152.57
367.311	136.19
367.522	66.56
367.733	66.56
367.944	80.89
368.155	84.99
368.366	103.42
368.577	58.37
368.788	125.95
368.999	111.61
369.209	56.32
369.42	117.76
369.631	123.9
369.842	95.23
370.053	125.95
370.264	136.19
370.474	70.65
370.685	11.26
370.896	140.29
371.107	144.38
371.317	-1.02
371.528	66.56
371.739	107.52
371.95	52.22
372.16	125.95
372.371	56.32
372.582	101.37
372.792	21.5
373.003	115.71
373.214	99.33
373.424	66.56
373.635	62.46
373.846	95.23
374.056	109.57
374.267	35.84
374.477	70.65
374.688	17.41
374.898	-3.07
375.109	17.41
375.319	107.52
375.53	130.05
375.74	87.04
375.951	35.84
376.161	-7.17
376.372	76.8
376.582	150.53
376.793	66.56
377.003	17.41
377.214	68.61
377.424	115.71
377.635	121.85
377.845	78.85
378.055	74.75
378.266	-11.26
378.476	93.18
378.686	-29.7
378.897	54.27
379.107	84.99
379.317	52.22
379.528	72.7
379.738	107.52
379.948	21.5
380.158	9.22
380.369	107.52
380.579	103.42
380.789	37.89
380.999	101.37
381.21	99.33
381.42	125.95
381.63	35.84
381.84	125.95
382.05	101.37
382.261	80.89
382.471	84.99
382.681	93.18
382.891	107.52
383.101	70.65
383.311	56.32
383.521	50.18
383.731	13.31
383.941	134.14
384.151	66.56
384.361	62.46
384.571	130.05
384.781	132.09
384.991	56.32
385.201	58.37
385.411	91.13
385.621	29.7
385.831	123.9
386.041	64.51
386.251	82.94
386.461	78.85
386.671	-3.07
386.881	64.51
387.091	50.18
387.301	123.9
387.511	54.27
387.72	62.46
387.93	50.18
388.14	76.8
388.35	25.6
388.56	128
388.769	101.37
388.979	107.52
389.189	50.18
389.399	128
389.609	64.51
389.818	99.33
390.028	39.94
390.238	95.23
390.447	91.13
390.657	35.84
390.867	111.61
391.076	115.71
391.286	132.09
391.496	134.14
391.705	115.71
391.915	132.09
392.125	171.01
392.334	-5.12
392.544	119.81
392.753	109.57
392.963	84.99
393.172	84.99
393.382	99.33
393.591	107.52
393.801	70.65
394.01	148.48
394.22	68.61
394.429	113.66
394.639	132.09
394.848	91.13
395.058	76.8
395.267	134.14
395.477	97.28
395.686	132.09
395.895	177.15
396.105	171.01
396.314	209.92
396.524	41.98
396.733	107.52
396.942	175.1
397.152	168.96
397.361	41.98
397.57	117.76
397.78	197.63
397.989	123.9
398.198	103.42
398.407	154.62
398.617	136.19
398.826	132.09
399.035	181.25
399.244	121.85
399.453	78.85
399.663	154.62
399.872	189.44
400.081	115.71
400.29	123.9
400.499	123.9
400.708	109.57
400.917	93.18
401.127	156.67
401.336	56.32
401.545	222.2
401.754	142.33
401.963	168.96
402.172	158.72
402.381	76.8
402.59	115.71
402.799	211.96
403.008	185.34
403.217	146.43
403.426	193.53
403.635	168.96
403.844	162.81
404.053	123.9
404.262	93.18
404.471	222.2
404.68	195.58
404.888	254.97
405.097	171.01
405.306	201.72
405.515	246.78
405.724	76.8
405.933	183.29
406.142	156.67
406.35	224.25
406.559	193.53
406.768	205.82
406.977	218.11
407.185	148.48
407.394	218.11
407.603	250.88
407.812	267.26
408.02	230.4
408.229	324.6
408.438	242.68
408.646	248.83
408.855	246.78
409.064	281.6
409.272	304.12
409.481	410.62
409.69	261.12
409.898	287.74
410.107	336.89
410.315	363.51
410.524	404.47
410.733	365.56
410.941	398.33
411.15	416.76
411.358	427
411.567	408.57
411.775	418.81
411.984	406.52
412.192	412.67
412.401	531.45
412.609	504.82
412.818	470.01
413.026	527.35
413.234	549.88
413.443	562.17
413.651	594.93
413.86	601.08
414.068	611.32
414.276	676.85
414.485	625.65
414.693	750.58
414.901	748.53
415.11	709.62
415.318	762.87
415.526	775.16
415.734	803.83
415.943	752.63
416.151	961.52
416.359	943.09
416.567	812.02
416.776	975.86
416.984	1057.78
417.192	1033.2
417.4	977.91
417.608	936.95
417.817	1104.88
418.025	1147.89
418.233	1213.42
418.441	1102.83
418.649	1321.96
418.857	1381.35
419.065	1348.59
419.273	1297.39
419.481	1459.18
419.689	1463.27
419.897	1539.05
420.105	1524.71
420.313	1598.44
420.521	1663.97
420.729	1688.55
420.937	1795.04
421.145	1852.39
421.353	1762.28
421.561	1979.36
421.769	2094.05
421.977	2032.61
422.185	2053.09
422.393	2188.25
422.601	2331.61
422.809	2337.76
423.017	2323.42
423.224	2462.68
423.432	2462.68
423.64	2587.61
423.848	2837.46
424.056	2692.05
424.263	2847.7
424.471	2862.04
424.679	3097.55
424.887	3195.86
425.094	3179.47
425.302	3181.52
425.51	3308.49
425.718	3564.49
425.925	3429.32
426.133	3539.91
426.341	3863.49
426.548	3986.37
426.756	3965.89
426.964	4142.02
427.171	4268.99
427.379	4400.06
427.586	4420.54
427.794	4631.48
428.001	4713.4
428.209	5039.03
428.417	5008.31
428.624	5280.69
428.832	5186.48
429.039	5190.58
429.247	5311.41
429.454	5784.49
429.662	6087.59
429.869	5661.61
430.076	6167.46
430.284	5985.19
430.491	6169.51
430.699	6603.68
430.906	6534.04
431.114	6515.61
431.321	6851.48
431.528	7005.08
431.736	7394.19
431.943	7648.14
432.15	7553.93
432.358	7644.04
432.565	8078.21
432.772	8115.08
432.979	8403.84
433.187	8569.73
433.394	8407.94
433.601	9126.77
433.808	9243.51
434.016	9272.18
434.223	9536.37
434.43	9972.58
434.637	9956.2
434.844	10572.64
435.052	10767.2
435.259	10765.15
435.466	10652.51
435.673	10658.65
435.88	11535.18
436.087	11928.39
436.294	11854.67
436.501	11635.53
436.708	11963.21
436.915	12430.15
437.122	12849.98
437.329	12892.99
437.537	13054.78
437.743	13425.46
437.95	13589.3
438.157	14201.64
438.364	14469.92
438.571	14416.68
438.778	14439.2
438.985	15880.97
439.192	15098.65
439.399	15823.63
439.606	15352.6
439.813	16120.59
440.02	17335.03
440.227	16954.11
440.433	16714.5
440.64	17433.33
440.847	17306.36
441.054	17720.05
441.261	18709.22
441.467	18594.53
441.674	18819.81
441.881	19548.89
442.088	19548.89
442.294	19471.06
442.501	19942.1
442.708	20308.68
442.914	21162.69
443.121	21727.92
443.328	21332.67
443.534	22811.3
443.741	22145.71
443.948	22020.78
444.154	23687.83
444.361	23450.27
444.568	23605.91
444.774	23669.4
444.981	23837.33
445.187	24558.22
445.394	25553.53
445.6	25084.55
445.807	27578.97
446.013	26255.98
446.22	26907.24
446.426	27779.67
446.633	28230.23
446.839	28815.94
447.046	27714.14
447.252	29377.09
447.459	29395.52
447.665	29504.06
447.871	30405.17
448.078	31795.74
448.284	30366.26
448.491	31072.81
448.697	32381.46
448.903	32930.31
449.11	32793.1
449.316	32289.3
449.522	33309.19
449.728	34077.18
449.935	34314.74
450.141	34220.53
450.347	35027.43
450.553	34152.95
450.76	34531.83
450.966	35504.61
451.172	35107.3
451.378	36063.71
451.584	35553.76
451.791	35975.64
451.997	35854.81
452.203	36559.31
452.409	36458.96
452.615	36825.55
452.821	34769.39
453.027	34660.85
453.233	36295.13
453.44	35252.71
453.646	35668.45
453.852	35588.58
454.058	36438.48
454.264	35021.29
454.47	36106.71
454.676	35103.21
454.882	36712.91
455.088	33546.75
455.294	34013.69
455.5	34466.29
455.705	34621.94
455.911	33335.81
456.117	32786.96
456.323	32569.87
456.529	30896.68
456.735	31973.91
456.941	31081
457.147	30493.23
457.352	29487.68
457.558	29571.64
457.764	29766.2
457.97	28990.02
458.176	28684.87
458.381	28445.26
458.587	26884.71
458.793	27144.8
458.999	26098.29
459.204	27488.86
459.41	26255.98
459.616	24642.18
459.821	24744.58
460.027	24797.83
460.233	23982.74
460.438	23016.1
460.644	23528.09
460.85	22131.37
461.055	22082.22
461.261	21856.95
461.466	20347.59
461.672	19858.13
461.878	20814.53
462.083	19878.61
462.289	19487.45
462.494	19210.97
462.7	18430.69
462.905	18113.26
463.111	18744.03
463.316	18465.51
463.522	17853.17
463.727	18113.26
463.932	18307.82
464.138	17902.32
464.343	18017.01
464.549	17210.11
464.754	18336.49
464.959	17861.36
465.165	17756.91
465.37	16988.92
465.575	16605.95
465.781	17359.61
465.986	17081.08
466.191	16640.77
466.397	16151.31
466.602	15846.16
466.807	16229.13
467.012	16065.29
467.218	16028.43
467.423	15708.94
467.628	16126.73
467.833	16747.26
468.038	15747.86
468.244	15639.31
468.449	16069.39
468.654	15520.53
468.859	15586.07
469.064	15289.11
469.269	14734.11
469.474	14957.34
469.679	15305.49
469.885	14687.01
470.09	14971.68
470.295	14940.96
470.5	14459.68
470.705	14764.83
470.91	14582.56
471.115	14136.1
471.32	14541.6
471.525	14578.47
471.73	13982.51
471.935	14187.3
472.139	13460.27
472.344	13783.85
472.549	13472.56
472.754	13450.03
472.959	13157.18
473.164	12884.8
473.369	12725.05
473.574	13056.82
473.778	12903.23
473.983	12921.66
474.188	13042.49
474.393	12272.45
474.598	12340.04
474.802	12079.94
475.007	12094.28
475.212	12106.57
475.417	11774.8
475.621	11782.99
475.826	11854.67
476.031	11549.52
476.235	11377.49
476.44	11494.22
476.645	11058.01
476.849	11416.4
477.054	10967.9
477.259	11029.34
477.463	10802.01
477.668	10867.55
477.872	10910.55
478.077	10603.36
478.282	10380.13
478.486	10300.26
478.691	10337.12
478.895	10294.11
479.1	10292.07
479.304	10101.61
479.509	9956.2
479.713	9964.39
479.918	9745.26
480.122	9536.37
480.326	10044.26
480.531	9823.08
480.735	9679.72
480.94	9642.86
481.144	9929.58
481.348	9548.65
481.553	9767.79
481.757	9544.56
481.961	9513.84
482.166	9743.21
482.37	9515.89
482.574	9309.04
482.778	9438.06
482.983	9751.4
483.187	9427.82
483.391	9513.84
483.595	9405.3
483.8	9350
484.004	9382.77
484.208	9581.42
484.412	9528.17
484.616	9595.76
484.821	9565.04
485.025	9448.3
485.229	9499.5
485.433	9358.19
485.637	9581.42
485.841	9302.9
486.045	9415.54
486.249	9380.72
486.453	9280.37
486.657	9321.33
486.861	9429.87
487.065	9255.79
487.269	9401.2
487.473	9374.58
487.677	9487.22
487.881	9491.31
488.085	9446.26
488.289	9671.53
488.493	9393.01
488.697	9556.85
488.901	9620.33
489.105	9374.58
489.309	9558.89
489.512	9749.36
489.716	9528.17
489.92	9608.05
490.124	9610.09
490.328	9665.39
490.531	9687.92
490.735	9864.04
490.939	9597.81
491.143	9806.7
491.346	9550.7
491.55	10066.79
491.754	9720.68
491.958	9964.39
492.161	9909.1
492.365	9913.19
492.569	9888.62
492.772	9855.85
492.976	10072.93
493.18	10117.99
493.383	10210.15
493.587	10574.69
493.79	10273.64
493.994	10257.25
494.197	10421.09
494.401	10523.49
494.605	10599.26
494.808	10773.34
495.012	10548.06
495.215	10869.59
495.419	10980.18
495.622	10890.07
495.825	10842.97
496.029	10799.96
496.232	11287.38
496.436	11184.98
496.639	11385.68
496.843	11510.61
497.046	11703.12
497.249	11850.57
497.453	11940.68
497.656	11963.21
497.859	11776.84
498.063	12192.58
498.266	12452.67
498.469	12348.23
498.673	12286.79
498.876	12542.78
499.079	12712.77
499.282	12651.33
499.485	12886.84
499.689	12927.8
499.892	13093.69
500.095	13388.6
500.298	13511.47
500.501	13650.74
500.705	13665.07
500.908	13972.27
501.111	14009.13
501.314	14304.04
501.517	14369.57
501.72	14723.87
501.923	14377.76
502.126	14844.7
502.329	15115.03
502.532	14949.15
502.735	15135.51
502.938	15485.72
503.141	15979.28
503.344	15987.47
503.547	15772.43
503.75	16481.03
503.953	16222.98
504.156	16298.76
504.359	16761.6
504.562	16589.57
504.765	17152.76
504.968	17191.67
505.17	17351.42
505.373	17644.27
505.576	17625.84
505.779	17949.42
505.982	18258.67
506.185	18363.11
506.387	18615.01
506.59	18563.81
506.793	19135.2
506.996	18848.48
507.198	19428.06
507.401	19360.47
507.604	19665.62
507.807	19837.65
508.009	20458.18
508.212	20314.83
508.415	20589.25
508.617	20802.24
508.82	20892.35
509.022	20849.35
509.225	21398.2
509.428	21490.36
509.63	21656.25
509.833	21760.69
510.035	22348.46
510.238	22090.41
510.44	22405.8
510.643	22921.89
510.845	22764.2
511.048	22735.53
511.25	23298.72
511.453	23480.99
511.655	24083.09
511.858	23909.01
512.06	24519.31
512.262	24629.9
512.465	24158.86
512.667	24742.53
512.87	25055.87
513.072	25453.18
513.274	25395.84
513.477	26159.73
513.679	26317.42
513.881	26518.12
514.084	26649.19
514.286	26589.8
514.488	26649.19
514.69	27413.09
514.893	27533.92
515.095	27894.36
515.297	28097.11
515.499	28359.25
515.701	28637.77
515.904	28762.7
516.106	28944.97
516.308	29424.19
516.51	29450.81
516.712	29499.97
516.914	29977.14
517.116	30487.09
517.318	30292.53
517.52	30851.63
517.722	30937.64
517.925	31435.3
518.127	31474.21
518.329	31646.24
518.531	31742.49
518.733	32033.3
518.935	32504.34
519.136	32313.87
519.338	32789
519.54	33348.1
519.742	33391.11
519.944	33473.03
520.146	34423.28
520.348	34290.16
520.55	34603.5
520.752	34632.18
520.954	35291.62
521.155	34716.14
521.357	35359.2
521.559	35762.65
521.761	36235.74
521.963	35844.57
522.164	36530.64
522.366	36395.48
522.568	36641.23
522.77	37276.1
522.971	37710.27
523.173	37575.11
523.375	37831.1
523.576	37646.79
523.778	38060.48
523.98	38203.83
524.181	38568.37
524.383	38392.25
524.584	39182.76
524.786	39238.06
524.988	38748.59
525.189	39682.47
525.391	39492.01
525.592	40169.88
525.794	40147.36
525.995	40257.95
526.197	40227.23
526.398	40393.11
526.6	40466.84
526.801	40743.31
527.003	40876.43
527.204	41032.08
527.406	41220.49
527.607	41169.29
527.808	41542.02
528.01	41058.7
528.211	41466.25
528.412	42293.63
528.614	41740.68
528.815	41654.66
529.016	42555.77
529.218	42015.1
529.419	42119.55
529.62	42572.15
529.822	42348.92
530.023	42033.53
530.224	42547.57
530.425	42297.72
530.626	42258.81
530.828	42236.28
531.029	43313.52
531.23	42383.74
531.431	42455.42
531.632	43118.96
531.833	43094.38
532.035	43153.77
532.236	43131.25
532.437	43170.16
532.638	43047.28
532.839	43610.47
533.04	43721.06
533.241	42971.5
533.442	44159.33
533.643	43422.06
533.844	43331.95
534.045	43704.68
534.246	43276.65
534.447	43757.92
534.648	43436.39
534.849	43358.57
535.05	43319.66
535.251	43417.96
535.451	43823.46
535.652	43692.39
535.853	43446.63
536.054	43913.57
536.255	43579.75
536.456	43356.52
536.657	44048.74
536.857	43745.64
537.058	43602.28
537.259	43802.98
537.46	44013.92
537.66	43628.9
537.861	43389.29
538.062	43290.99
538.263	43436.39
538.463	43333.99
538.664	43587.94
538.865	43516.26
539.065	43841.89
539.266	43411.82
539.466	43805.03
539.667	42903.92
539.868	44067.17
540.068	43673.96
540.269	43440.49
540.469	43999.58
540.67	43432.3
540.87	43577.7
541.071	43579.75
541.271	43829.6
541.472	43581.8
541.672	43626.85
541.873	43217.26
542.073	42967.41
542.274	43348.33
542.474	43321.71
542.675	42719.6
542.875	43704.68
543.075	43264.36
543.276	42891.63
543.476	43555.18
543.676	42795.38
543.877	43338.09
544.077	43698.53
544.277	43065.71
544.478	43061.61
544.678	43270.51
544.878	43032.94
545.078	42826.1
545.279	43063.66
545.479	42965.36
545.679	43149.68
545.879	43319.66
546.079	43080.05
546.28	42762.61
546.48	43176.3
546.68	43290.99
546.88	43542.89
547.08	43207.02
547.28	42924.4
547.48	42875.25
547.68	43071.85
547.88	42967.41
548.081	43112.81
548.281	43348.33
548.481	42398.07
548.681	43082.09
548.881	43012.46
549.081	42883.44
549.28	43129.2
549.48	43487.59
549.68	43561.32
549.88	43514.22
550.08	43151.73
550.28	42924.4
550.48	42717.56
550.68	43145.58
550.88	42801.52
551.08	42787.19
551.279	42551.67
551.479	42910.07
551.679	42795.38
551.879	42799.47
552.079	42848.63
552.278	42566.01
552.478	42852.72
552.678	42727.8
552.878	42662.26
553.077	42295.67
553.277	42045.82
553.477	42809.71
553.676	42783.09
553.876	43102.57
554.076	42523
554.275	42475.9
554.475	42246.52
554.674	42867.06
554.874	42727.8
555.074	42228.09
555.273	42598.77
555.473	42516.86
555.672	42058.11
555.872	42215.8
556.071	41777.54
556.271	42414.46
556.47	42396.03
556.67	41496.97
556.869	42152.32
557.068	42258.81
557.268	42121.6
557.467	42117.5
557.667	42031.49
557.866	41906.56
558.065	41943.42
558.265	41728.39
558.464	41566.6
558.663	42322.3
558.863	41574.79
559.062	42408.31
559.261	41263.5
559.461	42289.53
559.66	41171.34
559.859	41740.68
560.058	41081.23
560.258	41521.54
560.457	41236.87
560.656	41509.25
560.855	40968.59
561.054	41564.55
561.253	41222.54
561.453	41042.32
561.652	40681.88
561.851	41148.81
562.05	41013.65
562.249	40741.27
562.448	41093.52
562.647	40999.31
562.846	40831.38
563.045	40597.91
563.244	40790.42
563.443	40903.06
563.642	40456.6
563.841	40429.98
564.04	40540.57
564.239	40948.11
564.438	40403.35
564.637	40440.21
564.836	40339.86
565.035	40040.86
565.234	40259.99
565.432	39817.63
565.631	39723.43
565.83	40284.57
566.029	39954.85
566.228	39246.25
566.427	39332.26
566.625	39209.39
566.824	38994.35
567.023	39522.72
567.222	38820.27
567.42	39485.86
567.619	38908.33
567.818	38943.15
568.016	38959.53
568.215	39147.95
568.414	38865.33
568.612	39174.57
568.811	38844.85
569.01	38549.94
569.208	38353.33
569.407	38955.44
569.605	38420.92
569.804	38429.11
570.002	37978.56
570.201	38384.05
570.4	38169.02
570.598	38158.78
570.797	37931.45
570.995	38216.12
571.193	37902.78
571.392	38144.44
571.59	37575.11
571.789	37718.46
571.987	37505.48
572.186	37202.38
572.384	37013.96
572.582	37298.63
572.781	37392.84
572.979	36948.43
573.177	36837.84
573.376	36985.29
573.574	36702.67
573.772	36870.61
573.971	36504.02
574.169	36686.29
574.367	36493.78
574.565	36725.2
574.763	35946.97
574.962	36086.23
575.16	36362.71
575.358	36106.71
575.556	35787.23
575.754	36325.85
575.952	36164.06
576.151	36041.18
576.349	35633.63
576.547	35518.95
576.745	35566.05
576.943	35551.71
577.141	35731.93
577.339	35314.15
577.537	34843.12
577.735	35084.78
577.933	34937.32
578.131	35297.77
578.329	34826.73
578.527	34970.09
578.725	34945.51
578.923	34669.04
579.121	34517.49
579.319	34599.41
579.516	34560.5
579.714	34396.66
579.912	34435.57
580.11	34257.4
580.308	34028.02
580.506	33995.26
580.704	33354.24
580.901	33772.03
581.099	34148.85
581.297	33696.25
581.495	33438.21
581.692	33624.57
581.89	33339.91
582.088	33540.61
582.285	33378.82
582.483	33339.91
582.681	33329.67
582.878	33200.65
583.076	32698.89
583.274	33104.39
583.471	32397.84
583.669	32903.69
583.866	32401.94
584.064	32750.09
584.262	32037.4
584.459	32746
584.657	32426.51
584.854	32510.48
585.052	31879.71
585.249	32166.42
585.447	31916.57
585.644	31697.44
585.841	31787.55
586.039	31840.79
586.236	31572.51
586.434	31377.95
586.631	31240.74
586.828	31341.09
587.026	31506.98
587.223	31033.89
587.42	31459.87
587.618	31050.28
587.815	30908.97
588.012	30911.02
588.21	30659.12
588.407	31046.18
588.604	30620.2
588.801	30429.74
588.999	30356.02
589.196	30200.37
589.393	30401.07
589.59	30392.88
589.787	30587.44
589.984	30130.74
590.182	29835.83
590.379	30054.97
590.576	29805.11
590.773	29987.38
590.97	29598.27
591.167	29594.17
591.364	29332.03
591.561	29540.93
591.758	29188.67
591.955	29039.17
592.152	29524.54
592.349	29100.61
592.546	29182.53
592.743	29241.92
592.94	28551.76
593.137	28955.21
593.334	28873.29
593.531	28672.59
593.727	28734.03
593.924	28672.59
594.121	28303.95
594.318	28461.65
594.515	28033.62
594.712	28613.2
594.908	27925.08
595.105	28459.6
595.302	27617.88
595.499	28152.4
595.696	27710.04
595.892	27574.88
596.089	27730.52
596.286	27591.26
596.482	27619.93
596.679	27365.98
596.876	27368.03
597.072	27181.67
597.269	27009.64
597.466	27099.75
597.662	26929.77
597.859	26892.9
598.055	26968.68
598.252	26587.75
598.448	26763.88
598.645	26692.2
598.841	26743.4
599.038	26622.57
599.234	26434.16
599.431	26155.63
599.627	26151.54
599.824	26436.2
600.02	26237.55
600.217	26110.58
600.413	26030.71
600.609	25692.79
600.806	25670.26
601.002	25805.43
601.198	25535.1
601.395	25545.34
601.591	25365.12
601.787	25637.5
601.984	25139.84
602.18	25561.72
602.376	25383.55
602.572	24797.83
602.769	25033.35
602.965	25016.96
603.161	25123.46
603.357	24814.21
603.553	24607.37
603.75	24906.37
603.946	24771.21
604.142	24773.25
604.338	24218.25
604.534	24570.51
604.73	24210.06
604.926	24351.37
605.122	24019.6
605.318	24025.75
605.514	23919.25
605.71	24078.99
605.906	23855.76
606.102	23962.26
606.298	24056.46
606.494	23569.05
606.69	23773.85
606.886	23536.28
607.082	23175.84
607.278	23591.58
607.474	23067.3
607.67	23589.53
607.866	23052.96
608.062	23634.58
608.257	23102.11
608.453	23464.6
608.649	23323.29
608.845	22813.35
609.041	23071.39
609.236	22823.59
609.432	23122.59
609.628	22979.23
609.824	22903.46
610.019	22692.52
610.215	22868.64
610.411	23042.72
610.606	22758.05
610.802	22891.17
610.998	22489.77
611.193	22440.62
611.389	22362.79
611.584	22213.29
611.78	21813.94
611.976	22196.91
612.171	22104.75
612.367	22368.94
612.562	22176.43
612.758	21979.82
612.953	21949.11
613.149	22262.44
613.344	21848.75
613.539	22114.99
613.735	22053.55
613.93	21912.24
614.126	21947.06
614.321	22041.26
614.517	21953.2
614.712	21676.73
614.907	21535.42
615.103	21549.75
615.298	21461.69
615.493	21988.02
615.688	21146.3
615.884	21738.16
616.079	21144.25
616.274	21367.48
616.47	21287.61
616.665	21357.24
616.86	21205.69
617.055	21394.11
617.25	21041.85
617.445	21080.77
617.641	20761.28
617.836	20996.8
618.031	20730.56
618.226	20746.95
618.421	20574.92
618.616	20744.9
618.811	20572.87
619.006	20843.2
619.201	20372.17
619.396	20642.5
619.591	20480.71
619.786	20497.1
619.981	19909.33
620.176	20085.45
620.371	19989.2
620.566	19940.05
620.761	19620.56
620.956	19968.72
621.151	19555.03
621.346	19849.94
621.541	19206.87
621.735	19653.33
621.93	19456.73
622.125	19235.55
622.32	18873.06
622.515	19215.07
622.709	19006.17
622.904	18768.61
623.099	18705.12
623.294	18631.4
623.488	18420.45
623.683	18580.2
623.878	18301.67
624.072	18127.6
624.267	18522.85
624.462	18103.02
624.656	17830.64
624.851	18225.9
625.046	17715.95
625.24	17629.94
625.435	17885.94
625.629	17580.79
625.824	17474.29
626.018	17394.42
626.213	17300.22
626.407	17419
626.602	17124.09
626.796	17081.08
626.991	16915.2
627.185	17007.36
627.38	16857.85
627.574	16710.4
627.768	16413.45
627.963	16358.15
628.157	16257.8
628.352	16374.53
628.546	16333.57
628.74	16073.48
628.935	16141.07
629.129	16063.24
629.323	15713.04
629.517	15778.58
629.712	15807.25
629.906	15612.69
630.1	15590.16
630.294	15522.58
630.489	15297.3
630.683	15510.29
630.877	15153.94
631.071	15233.82
631.265	15227.67
631.459	14883.61
631.653	14934.81
631.848	14912.28
632.042	14906.14
632.236	15002.4
632.43	14488.35
632.624	14897.95
632.818	14551.84
633.012	14170.92
633.206	14197.54
633.4	14205.74
633.594	14082.86
633.788	14162.73
633.982	14132.01
634.176	14097.19
634.369	13812.53
634.563	13896.49
634.757	13892.4
634.951	14005.03
635.145	13738.8
635.339	13701.93
635.533	13601.58
635.726	13550.39
635.92	13214.52
636.114	13396.79
636.308	13173.56
636.501	13296.44
636.695	13073.21
636.889	12995.39
637.083	12843.84
637.276	12821.31
637.47	12669.76
637.664	12860.22
637.857	12688.19
638.051	12763.97
638.244	12575.55
638.438	12516.16
638.632	12608.32
638.825	12348.23
639.019	12280.64
639.212	12221.25
639.406	12325.7
639.599	12106.57
639.793	12106.57
639.986	12000.07
640.18	12137.29
640.373	11836.24
640.567	11948.87
640.76	11815.76
640.954	11647.82
641.147	11764.56
641.34	11559.76
641.534	11518.8
641.727	11430.74
641.92	11459.41
642.114	11301.72
642.307	11453.27
642.5	11092.82
642.694	11207.51
642.887	11127.64
643.08	11174.74
643.273	10918.75
643.467	10785.63
643.66	10787.68
643.853	10742.62
644.046	10412.9
644.239	10709.85
644.432	10728.28
644.626	10515.3
644.819	10498.91
645.012	10341.22
645.205	10455.9
645.398	10179.43
645.591	10109.8
645.784	10357.6
645.977	10208.1
646.17	10138.47
646.363	10001.26
646.556	9958.25
646.749	10013.54
646.942	9923.43
647.135	9872.23
647.328	9825.13
647.521	9675.63
647.714	9569.13
647.907	9679.72
648.099	9700.2
648.292	9796.46
648.485	9438.06
648.678	9220.98
648.871	9519.98
649.064	9261.94
649.256	9622.38
649.449	9376.62
649.642	9296.75
649.835	9038.71
650.027	9208.69
650.22	9128.82
650.413	9040.76
650.605	8930.17
650.798	9106.29
650.991	8725.37
651.183	8932.22
651.376	8854.39
651.568	8864.63
651.761	8614.78
651.954	8674.17
652.146	8649.6
652.339	8627.07
652.531	8541.05
652.724	8422.27
652.916	8356.74
653.109	8219.52
653.301	8326.02
653.494	8332.16
653.686	8178.56
653.879	8340.35
654.071	8254.34
654.263	7975.81
654.456	8135.56
654.648	8141.7
654.84	8027.01
655.033	7984.01
655.225	7912.33
655.417	7998.34
655.61	7955.33
655.802	7947.14
655.994	7822.22
656.186	7685
656.379	7914.38
656.571	7758.73
656.763	7281.55
656.955	7537.55
657.148	7637.9
657.34	7543.69
657.532	7420.81
657.724	7326.61
657.916	7615.37
658.108	7361.42
658.3	7365.52
658.492	7248.79
658.684	7173.01
658.876	7162.77
659.068	7279.5
659.26	7164.82
659.452	7144.34
659.644	7220.11
659.836	7074.71
660.028	7138.2
660.22	6992.79
660.412	7009.17
660.604	6812.57
660.796	6704.03
660.988	6796.18
661.18	6677.4
661.372	6722.46
661.563	6796.18
661.755	6554.52
661.947	6572.96
662.139	6652.83
662.331	6546.33
662.522	6532
662.714	6556.57
662.906	6304.67
663.097	6628.25
663.289	6417.31
663.481	6402.97
663.673	6292.38
663.864	6157.22
664.056	6228.9
664.247	6189.99
664.439	6183.84
664.631	6263.71
664.822	6001.57
665.014	6181.79
665.205	6173.6
665.397	6005.67
665.588	6071.2
665.78	5864.36
665.971	5882.79
666.163	6017.96
666.354	5839.78
666.546	5866.41
666.737	5725.1
666.929	5721
667.12	5817.26
667.311	5686.19
667.503	5673.9
667.694	5751.72
667.885	5628.84
668.077	5686.19
668.268	5600.17
668.459	5544.88
668.651	5335.98
668.842	5456.81
669.033	5399.47
669.224	5491.63
669.416	5493.68
669.607	5479.34
669.798	5391.28
669.989	5469.1
670.18	5452.72
670.371	5321.65
670.563	5278.64
670.754	5448.62
670.945	5235.63
671.136	5194.67
671.327	5315.5
671.518	5125.04
671.709	5202.86
671.9	5106.61
672.091	5315.5
672.282	5131.19
672.473	5098.42
672.664	5174.19
672.855	5184.43
673.046	5092.27
673.237	5030.84
673.428	4932.53
673.619	5057.46
673.809	5102.51
674	4907.96
674.191	4940.72
674.382	4981.68
674.573	4895.67
674.764	4850.61
674.954	5010.36
675.145	4762.55
675.336	4867
675.527	4778.94
675.717	4973.49
675.908	4760.5
676.099	4776.89
676.289	4809.65
676.48	4715.45
676.671	4826.04
676.861	4797.37
677.052	4707.26
677.243	4713.4
677.433	4555.71
677.624	4735.93
677.814	4631.48
678.005	4639.67
678.195	4735.93
678.386	4529.08
678.576	4457.4
678.767	4746.17
678.957	4457.4
679.148	4586.43
679.338	4572.09
679.529	4486.08
679.719	4461.5
679.909	4598.71
680.1	4420.54
680.29	4615.1
680.481	4522.94
680.671	4561.85
680.861	4420.54
681.052	4467.64
681.242	4527.03
681.432	4498.36
681.622	4348.86
681.813	4221.89
682.003	4309.95
682.193	4379.58
682.383	4307.9
682.573	4508.6
682.764	4277.18
682.954	4492.22
683.144	4344.77
683.334	4193.22
683.524	4287.42
683.714	4189.12
683.904	4250.56
684.094	4301.76
684.284	4221.89
684.474	4148.16
684.664	4178.88
684.854	4096.96
685.044	4185.02
685.234	4146.11
685.424	4117.44
685.614	4096.96
685.804	4199.36
685.994	4088.77
686.184	4301.76
686.374	4166.59
686.564	4033.47
686.753	4066.24
686.943	3937.22
687.133	3929.03
687.323	3974.08
687.513	3869.64
687.702	3978.18
687.892	4076.48
688.082	3865.54
688.272	4015.04
688.461	3890.12
688.651	3777.48
688.841	3908.55
689.03	3814.34
689.22	3840.97
689.41	3765.19
689.599	3730.38
689.789	3861.45
689.979	3687.37
690.168	3675.08
690.358	3609.54
690.547	3636.17
690.737	3740.61
690.926	3666.89
691.116	3638.22
691.305	3701.7
691.495	3556.3
691.684	3632.07
691.874	3666.89
692.063	3621.83
692.252	3572.68
692.442	3646.41
692.631	3519.43
692.82	3597.26
693.01	3556.3
693.199	3558.35
693.388	3488.71
693.578	3433.42
693.767	3507.15
693.956	3482.57
694.146	3435.47
694.335	3343.31
694.524	3443.66
694.713	3476.43
694.902	3369.93
695.092	3378.12
695.281	3249.1
695.47	3281.87
695.659	3324.88
695.848	3423.18
696.037	3300.3
696.226	3351.5
696.415	3249.1
696.604	3419.08
696.793	3294.16
696.982	3316.69
697.171	3451.85
697.36	3273.68
697.549	3273.68
697.738	3220.43
697.927	3255.25
698.116	3212.24
698.305	3263.44
698.494	3236.81
698.683	3240.91
698.872	3294.16
699.061	3134.42
699.25	3163.09
699.438	3175.38
699.627	3115.98
699.816	3247.05
700.005	3142.61
700.193	2976.72
700.382	3183.57
700.571	3195.86
700.76	3212.24
700.948	3124.18
701.137	3122.13
701.326	3142.61
701.514	3072.98
701.703	3036.11
701.892	3093.46
702.08	3204.05
702.269	3128.27
702.457	2925.52
702.646	3015.63
702.834	3066.83
703.023	3122.13
703.212	2948.05
703.4	3011.54
703.589	2991.06
703.777	3009.49
703.965	3056.59
704.154	3158.99
704.342	2978.77
704.531	3140.56
704.719	2896.85
704.907	3038.16
705.096	2907.09
705.284	2960.34
705.472	3023.83
705.661	2986.96
705.849	2917.33
706.037	2999.25
706.226	2905.04
706.414	2905.04
706.602	2915.28
706.79	2859.99
706.979	3032.02
707.167	2962.39
707.355	2829.27
707.543	2892.76
707.731	2864.08
707.919	2954.19
708.107	2884.56
708.296	2915.28
708.484	2894.8
708.672	2851.8
708.86	2900.95
709.048	2954.19
709.236	2825.17
709.424	2845.65
709.612	2909.14
709.8	2810.84
709.988	2753.49
710.176	2823.12
710.364	3023.83
710.551	2868.18
710.739	2737.11
710.927	2833.36
711.115	2722.77
711.303	2933.72
711.491	2702.29
711.679	2761.69
711.866	2802.65
712.054	2835.41
712.242	2773.97
712.43	2759.64
712.617	2763.73
712.805	2843.6
712.993	2769.88
713.181	2733.01
713.368	2765.78
713.556	2859.99
713.744	2730.97
713.931	2763.73
714.119	2839.51
714.306	2737.11
714.494	2720.73
714.682	2696.15
714.869	2690.01
715.057	2573.27
715.244	2614.23
715.432	2730.97
715.619	2655.19
715.807	2692.05
715.994	2620.38
716.182	2657.24
716.369	2739.16
716.556	2673.62
716.744	2663.38
716.931	2751.45
717.119	2634.71
717.306	2597.85
717.493	2630.62
717.681	2663.38
717.868	2581.46
718.055	2673.62
718.242	2679.77
718.43	2647
718.617	2681.82
718.804	2552.79
718.991	2687.96
719.179	2573.27
719.366	2515.93
719.553	2632.66
719.74	2528.22
719.927	2630.62
720.114	2630.62
720.301	2532.31
720.488	2401.24
720.676	2522.07
720.863	2558.94
721.05	2581.46
721.237	2540.51
721.424	2575.32
721.611	2511.83
721.798	2493.4
721.985	2436.06
722.172	2425.82
722.358	2550.75
722.545	2460.63
722.732	2460.63
722.919	2417.63
723.106	2515.93
723.293	2466.78
723.48	2444.25
723.667	2419.68
723.853	2569.18
724.04	2448.35
724.227	2384.86
724.414	2509.79
724.6	2386.91
724.787	2386.91
724.974	2444.25
725.161	2565.08
725.347	2386.91
725.534	2464.73
725.72	2462.68
725.907	2583.51
726.094	2393.05
726.28	2493.4
726.467	2261.98
726.653	2337.76
726.84	2403.29
727.027	2423.77
727.213	2413.53
727.4	2499.55
727.586	2276.32
727.773	2327.52
727.959	2362.33
728.145	2442.2
728.332	2388.96
728.518	2360.28
728.705	2395.1
728.891	2331.61
729.077	2210.78
729.264	2313.18
729.45	2368.48
729.636	2427.87
729.823	2290.65
730.009	2261.98
730.195	2442.2
730.382	2348
730.568	2345.95
730.754	2376.67
730.94	2278.37
731.126	2313.18
731.313	2370.52
731.499	2235.36
731.685	2388.96
731.871	2253.79
732.057	2380.76
732.243	2376.67
732.429	2233.31
732.615	2288.61
732.801	2294.75
732.987	2255.84
733.173	2343.9
733.359	2315.23
733.545	2272.22
733.731	2212.83
733.917	2315.23
734.103	2184.16
734.289	2130.91
734.475	2292.7
734.661	2413.53
734.847	2319.32
735.033	2235.36
735.219	2214.88
735.404	2149.34
735.59	2163.68
735.776	2061.28
735.962	2333.66
736.148	2231.26
736.333	2225.12
736.519	2264.03
736.705	2128.86
736.89	2130.91
737.076	2141.15
737.262	2137.06
737.447	2089.95
737.633	2175.97
737.819	2151.39
738.004	2180.06
738.19	2237.41
738.375	2180.06
738.561	2079.71
738.747	2130.91
738.932	2118.62
739.118	2120.67
739.303	2044.9
739.489	2165.73
739.674	2079.71
739.859	1934.31
740.045	2032.61
740.23	2016.23
740.416	2014.18
740.601	2053.09
740.786	2122.72
740.972	2044.9
741.157	2008.03
741.342	2008.03
741.528	2059.23
741.713	2001.89
741.898	2014.18
742.084	1958.88
742.269	1944.55
742.454	1967.07
742.639	1909.73
742.824	1924.07
743.01	1954.79
743.195	2008.03
743.38	1844.2
743.565	1909.73
743.75	1893.35
743.935	1868.77
744.12	1922.02
744.305	1827.81
744.49	1901.54
744.675	1909.73
744.86	1944.55
745.045	1823.72
745.23	1831.91
745.415	1766.37
745.6	1782.76
745.785	1846.24
745.97	1819.62
746.155	1715.17
746.34	1690.6
746.525	1756.13
746.71	1786.85
746.895	1876.96
747.079	1754.09
747.264	1690.6
747.449	1688.55
747.634	1651.69
747.819	1653.73
748.003	1690.6
748.188	1641.45
748.373	1682.41
748.557	1674.21
748.742	1584.1
748.927	1635.3
749.111	1670.12
749.296	1590.25
749.481	1561.58
749.665	1430.51
749.85	1702.89
750.034	1614.82
750.219	1584.1
750.404	1541.1
750.588	1635.3
750.773	1565.67
750.957	1491.95
751.141	1526.76
751.326	1528.81
751.51	1446.89
751.695	1518.57
751.879	1461.23
752.064	1412.07
752.248	1469.42
752.432	1491.95
752.617	1418.22
752.801	1412.07
752.985	1315.82
753.17	1467.37
753.354	1416.17
753.538	1434.6
753.722	1287.15
753.907	1453.03
754.091	1381.35
754.275	1307.63
754.459	1403.88
754.643	1287.15
754.828	1346.54
755.012	1315.82
755.196	1319.92
755.38	1307.63
755.564	1405.93
755.748	1328.11
755.932	1272.81
756.116	1250.28
756.3	1313.77
756.484	1262.57
756.668	1211.37
756.852	1127.41
757.036	1141.74
757.22	1174.51
757.404	1168.37
757.588	1213.42
757.772	1285.1
757.956	1092.59
758.14	1158.13
758.323	1145.84
758.507	1121.26
758.691	1133.55
758.875	1205.23
759.059	1127.41
759.242	1074.16
759.426	1100.78
759.61	1160.17
759.794	1135.6
759.977	1082.35
760.161	1117.17
760.345	1106.93
760.528	1070.06
760.712	1039.34
760.895	1149.93
761.079	1055.73
761.263	1041.39
761.446	1010.67
761.63	1014.77
761.813	955.38
761.997	1027.06
762.18	1037.3
762.364	977.91
762.547	1059.82
762.731	984.05
762.914	1045.49
763.098	918.51
763.281	975.86
763.464	943.09
763.648	920.56
763.831	951.28
764.015	986.1
764.198	871.41
764.381	930.8
764.564	912.37
764.748	984.05
764.931	988.14
765.114	861.17
765.297	936.95
765.481	898.03
765.664	848.88
765.847	859.12
766.03	922.61
766.213	852.98
766.397	957.43
766.58	922.61
766.763	975.86
766.946	902.13
767.129	889.84
767.312	910.32
767.495	926.71
767.678	871.41
767.861	902.13
768.044	791.54
768.227	893.94
768.41	852.98
768.593	867.31
768.776	848.88
768.959	873.46
769.142	814.07
769.324	762.87
769.507	812.02
769.69	775.16
769.873	871.41
770.056	832.5
770.239	791.54
770.421	795.64
770.604	742.39
770.787	779.25
770.97	807.92
771.152	740.34
771.335	795.64
771.518	732.15
771.7	838.64
771.883	814.07
772.066	773.11
772.248	738.29
772.431	740.34
772.613	885.75
772.796	762.87
772.978	836.6
773.161	779.25
773.343	756.72
773.526	773.11
773.708	699.38
773.891	709.62
774.073	609.27
774.256	795.64
774.438	756.72
774.621	689.14
774.803	713.72
774.985	685.05
775.168	680.95
775.35	748.53
775.532	711.67
775.715	711.67
775.897	631.8
776.079	621.56
776.261	683
776.444	611.32
776.626	654.33
776.808	695.29
776.99	654.33
777.173	664.57
777.355	623.61
777.537	642.04
777.719	672.76
777.901	607.22
778.083	627.7
778.265	570.36
778.447	705.53
778.629	631.8
778.811	582.65
778.993	603.13
779.175	625.65
779.357	596.98
779.539	562.17
779.721	541.69
779.903	533.5
780.085	513.02
780.267	639.99
780.449	558.07
780.631	568.31
780.812	564.22
780.994	515.06
781.176	574.46
781.358	601.08
781.54	506.87
781.721	508.92
781.903	611.32
782.085	484.34
782.267	578.55
782.448	449.53
782.63	502.78
782.812	611.32
782.993	553.98
783.175	517.11
783.357	465.91
783.538	496.63
783.72	447.48
783.901	562.17
784.083	486.39
784.264	486.39
784.446	394.23
784.627	424.95
784.809	455.67
784.99	459.77
785.172	420.86
785.353	390.14
785.535	515.06
785.716	388.09
785.897	439.29
786.079	386.04
786.26	379.9
786.441	388.09
786.623	420.86
786.804	388.09
786.985	427
787.167	459.77
787.348	357.37
787.529	361.47
787.71	437.24
787.891	369.66
788.073	429.05
788.254	439.29
788.435	375.8
788.616	402.43
788.797	369.66
788.978	386.04
789.159	402.43
789.34	427
789.522	414.71
789.703	320.51
789.884	340.99
790.065	394.23
790.246	334.84
790.427	410.62
790.607	404.47
790.788	353.27
790.969	252.92
791.15	343.03
791.331	281.6
791.512	345.08
791.693	353.27
791.874	410.62
792.054	320.51
792.235	326.65
792.416	316.41
792.597	263.16
792.778	369.66
792.958	304.12
793.139	349.18
793.32	300.03
793.5	338.94
793.681	363.51
793.862	254.97
794.042	340.99
794.223	257.02
794.404	379.9
794.584	318.46
794.765	197.63
794.945	228.35
795.126	357.37
795.306	369.66
795.487	244.73
795.667	267.26
795.848	259.07
796.028	322.56
796.209	328.7
796.389	359.42
796.57	310.27
796.75	281.6
796.93	349.18
797.111	173.05
797.291	330.75
797.471	336.89
797.652	275.45
797.832	220.16
798.012	205.82
798.192	220.16
798.373	197.63
798.553	209.92
798.733	275.45
798.913	236.54
799.093	316.41
799.274	232.44
799.454	326.65
799.634	263.16
799.814	267.26
799.994	267.26
800.174	242.68
800.354	285.69
800.534	207.87
800.714	232.44
800.894	222.2
801.074	238.59
801.254	306.17
801.434	287.74
801.614	209.92
801.794	158.72
801.974	797.68
802.154	289.79
802.334	257.02
802.514	224.25
802.693	134.14
802.873	191.49
803.053	246.78
803.233	222.2
803.413	254.97
803.592	209.92
803.772	273.4
803.952	246.78
804.131	201.72
804.311	271.36
804.491	281.6
804.67	240.64
804.85	191.49
805.03	246.78
805.209	271.36
805.389	261.12
805.568	224.25
805.748	218.11
805.928	187.39
806.107	254.97
806.287	238.59
806.466	189.44
806.646	238.59
806.825	216.06
807.004	199.68
807.184	224.25
807.363	214.01
807.543	230.4
807.722	142.33
807.901	156.67
808.081	254.97
808.26	91.13
808.439	197.63
808.619	234.49
808.798	242.68
808.977	209.92
809.156	257.02
809.336	183.29
809.515	203.77
809.694	115.71
809.873	183.29
810.052	230.4
810.231	244.73
810.411	238.59
810.59	199.68
810.769	203.77
810.948	246.78
811.127	125.95
811.306	173.05
811.485	152.57
811.664	201.72
811.843	130.05
812.022	207.87
812.201	95.23
812.38	195.58
812.559	152.57
812.737	222.2
812.916	58.37
813.095	117.76
813.274	103.42
813.453	144.38
813.632	138.24
813.811	209.92
813.989	95.23
814.168	205.82
814.347	101.37
814.526	207.87
814.704	246.78
814.883	187.39
815.062	140.29
815.24	148.48
815.419	132.09
815.598	93.18
815.776	60.42
815.955	117.76
816.133	136.19
816.312	101.37
816.49	119.81
816.669	175.1
816.847	138.24
817.026	140.29
817.204	91.13
817.383	148.48
817.561	150.53
817.74	166.91
817.918	171.01
818.097	201.72
818.275	183.29
818.453	236.54
818.632	160.77
818.81	68.61
818.988	148.48
819.167	119.81
819.345	136.19
819.523	121.85
819.701	136.19
819.879	107.52
820.058	136.19
820.236	66.56
820.414	87.04
820.592	119.81
820.77	158.72
820.948	152.57
821.127	119.81
821.305	101.37
821.483	185.34
821.661	175.1
821.839	175.1
822.017	117.76
822.195	68.61
822.373	107.52
822.551	117.76
822.729	201.72
822.907	138.24
823.085	185.34
823.262	103.42
823.44	103.42
823.618	56.32
823.796	136.19
823.974	140.29
824.152	93.18
824.329	50.18
824.507	132.09
824.685	74.75
824.863	95.23
825.04	185.34
825.218	173.05
825.396	27.65
825.574	134.14
825.751	121.85
825.929	152.57
826.107	58.37
826.284	107.52
826.462	97.28
826.639	140.29
826.817	109.57
826.994	156.67
827.172	91.13
827.349	183.29
827.527	164.86
827.704	185.34
827.882	132.09
828.059	144.38
828.237	70.65
828.414	82.94
828.591	41.98
828.769	60.42
828.946	119.81
829.124	152.57
829.301	123.9
829.478	74.75
829.655	62.46
829.833	41.98
830.01	66.56
830.187	93.18
830.364	48.13
830.542	115.71
830.719	74.75
830.896	87.04
831.073	70.65
831.25	142.33
831.427	78.85
831.604	152.57
831.782	41.98
831.959	177.15
832.136	66.56
832.313	123.9
832.49	93.18
832.667	99.33
832.844	48.13
833.021	168.96
833.198	74.75
833.374	132.09
833.551	56.32
833.728	70.65
833.905	125.95
834.082	121.85
834.259	142.33
834.436	152.57
834.612	123.9
834.789	64.51
834.966	95.23
835.143	132.09
835.319	84.99
835.496	123.9
835.673	58.37
835.85	82.94
836.026	99.33
836.203	142.33
836.38	82.94
836.556	74.75
836.733	99.33
836.909	130.05
837.086	68.61
837.262	31.74
837.439	78.85
837.616	113.66
837.792	29.7
837.968	91.13
838.145	9.22
838.321	130.05
838.498	44.03
838.674	54.27
838.851	101.37
839.027	121.85
839.203	50.18
839.38	9.22
839.556	-17.41
839.732	134.14
839.909	125.95
840.085	103.42
840.261	46.08
840.437	91.13
840.614	25.6
840.79	74.75
840.966	113.66
841.142	101.37
841.318	93.18
841.494	146.43
841.671	136.19
841.847	84.99
842.023	39.94
842.199	109.57
842.375	150.53
842.551	41.98
842.727	27.65
842.903	175.1
843.079	33.79
843.255	82.94
843.431	-13.31
843.607	91.13
843.783	7.17
843.959	121.85
844.134	74.75
844.31	52.22
844.486	66.56
844.662	82.94
844.838	76.8
845.013	117.76
845.189	70.65
845.365	125.95
845.541	44.03
845.716	97.28
845.892	9.22
846.068	128
846.244	11.26
846.419	78.85
846.595	39.94
846.77	48.13
846.946	74.75
847.122	19.46
847.297	60.42
847.473	162.81
847.648	58.37
847.824	29.7
847.999	93.18
848.175	44.03
848.35	21.5
848.526	87.04
848.701	117.76
848.876	156.67
849.052	29.7
849.227	52.22
849.403	76.8
849.578	33.79
849.753	46.08
849.929	109.57
850.104	21.5
850.279	64.51
850.454	74.75
850.63	7.17
850.805	95.23
850.98	93.18
851.155	37.89
851.33	87.04
851.505	54.27
851.681	146.43
851.856	-7.17
852.031	115.71
852.206	74.75
852.381	13.31
852.556	84.99
852.731	-23.55
852.906	148.48
853.081	72.7
853.256	171.01
853.431	128
853.606	46.08
853.781	74.75
853.956	-15.36
854.131	1.02
854.305	-1.02
854.48	101.37
854.655	44.03
854.83	15.36
855.005	-15.36
855.18	70.65
855.354	50.18
855.529	148.48
855.704	66.56
855.879	89.09
856.053	21.5
856.228	101.37
856.403	58.37
856.577	23.55
856.752	11.26
856.926	33.79
857.101	25.6
857.276	-7.17
857.45	37.89
857.625	33.79
857.799	19.46
857.974	99.33
858.148	35.84
858.323	111.61
858.497	66.56
858.672	33.79
858.846	66.56
859.02	52.22
859.195	91.13
859.369	74.75
859.543	37.89
859.718	95.23
859.892	68.61
860.066	23.55
860.241	-1.02
860.415	66.56
860.589	76.8
860.763	25.6
860.938	33.79
861.112	66.56
861.286	13.31
861.46	99.33
861.634	33.79
861.808	89.09
861.982	27.65
862.157	93.18
862.331	68.61
862.505	39.94
862.679	-7.17
862.853	5.12
863.027	-13.31
863.201	91.13
863.375	-21.5
863.549	72.7
863.722	-15.36
863.896	9.22
864.07	-11.26
864.244	33.79
864.418	11.26
864.592	9.22
864.766	123.9
864.939	33.79
865.113	109.57
865.287	35.84
865.461	9.22
865.634	87.04
865.808	5.12
865.982	84.99
866.156	29.7
866.329	17.41
866.503	1.02
866.676	140.29
866.85	58.37
867.024	-15.36
867.197	70.65
867.371	74.75
867.544	-44.03
867.718	41.98
867.891	146.43
868.065	99.33
868.238	111.61
868.412	142.33
868.585	9.22
868.759	21.5
868.932	29.7
869.105	41.98
869.279	11.26
869.452	21.5
869.625	37.89
869.799	107.52
869.972	72.7
870.145	60.42
870.319	58.37
870.492	7.17
870.665	41.98
870.838	27.65
871.011	-7.17
871.185	84.99
871.358	78.85
871.531	109.57
871.704	1.02
871.877	91.13
872.05	52.22
872.223	60.42
872.396	58.37
872.569	162.81
872.742	-60.42
872.915	35.84
873.088	41.98
873.261	56.32
873.434	107.52
873.607	58.37
873.78	115.71
873.953	11.26
874.126	76.8
874.299	60.42
874.471	1.02
874.644	17.41
874.817	23.55
874.99	35.84
875.163	60.42
875.335	68.61
875.508	60.42
875.681	11.26
875.853	23.55
876.026	60.42
876.199	52.22
876.371	27.65
876.544	-74.75
876.717	33.79
876.889	82.94
877.062	44.03
877.234	52.22
877.407	35.84
877.579	50.18
877.752	74.75
877.924	31.74
878.097	-17.41
878.269	56.32
878.442	64.51
878.614	66.56
878.786	58.37
878.959	25.6
879.131	101.37
879.303	-5.12
879.476	72.7
879.648	58.37
879.82	41.98
879.993	60.42
880.165	52.22
880.337	-9.22
880.509	82.94
880.681	-31.74
880.854	-15.36
881.026	91.13
881.198	128
881.37	17.41
881.542	50.18
881.714	13.31
881.886	107.52
882.058	29.7
882.23	7.17
882.402	91.13
882.574	50.18
882.746	62.46
882.918	121.85
883.09	5.12
883.262	134.14
883.434	9.22
883.606	1.02
883.778	84.99
883.95	60.42
884.122	74.75
884.293	68.61
884.465	-74.75
884.637	115.71
884.809	107.52
884.98	136.19
885.152	103.42
885.324	56.32
885.496	17.41
885.667	78.85
885.839	41.98
886.011	95.23
886.182	62.46
886.354	66.56
886.525	95.23
886.697	58.37
886.869	1.02
887.04	-7.17
887.212	91.13
887.383	50.18
887.555	3.07
887.726	33.79
887.897	35.84
888.069	60.42
888.24	82.94
888.412	19.46
888.583	21.5
888.754	48.13
888.926	-46.08
889.097	41.98
889.268	107.52
889.44	66.56
889.611	35.84
889.782	-21.5
889.953	17.41
890.125	54.27
890.296	-11.26
890.467	74.75
890.638	3.07
890.809	17.41
890.98	52.22
891.151	52.22
891.323	-3.07
891.494	58.37
891.665	11.26
891.836	-9.22
892.007	5.12
892.178	76.8
892.349	52.22
892.52	29.7
892.691	-9.22
892.862	-7.17
893.032	-11.26
893.203	76.8
893.374	23.55
893.545	99.33
893.716	58.37
893.887	66.56
894.057	9.22
894.228	21.5
894.399	15.36
894.57	41.98
894.74	19.46
894.911	68.61
895.082	58.37
895.253	37.89
895.423	70.65
895.594	50.18
895.764	21.5
895.935	-52.22
896.106	21.5
896.276	35.84
896.447	78.85
896.617	17.41
896.788	13.31
896.958	-7.17
897.129	48.13
897.299	-52.22
897.47	84.99
897.64	41.98
897.81	35.84
897.981	13.31
898.151	3.07
898.322	-11.26
898.492	-3.07
898.662	103.42
898.832	39.94
899.003	39.94
899.173	74.75
899.343	5.12
899.513	-13.31
