Data from USB4F104151__255__14-22-41-740.txt Node

Date: Thu Mar 13 14:22:41 EDT 2025
User: louis
Spectrometer: USB4F10415
Trigger mode: 4
Integration Time (sec): 2.000000E-2
Scans to average: 1
Electric dark correction enabled: true
Nonlinearity correction enabled: false
Boxcar width: 0
XAxis mode: Wavelengths
Number of Pixels in Spectrum: 3648
>>>>>Begin Spectral Data<<<<<
178.204	-101.2
178.424	-101.2
178.644	-101.2
178.864	-146.26
179.084	-152.4
179.304	-0.85
179.524	23.72
179.744	5.29
179.964	74.92
180.184	-2.9
180.404	-41.81
180.624	-27.48
180.844	13.48
181.064	-27.48
181.283	-0.85
181.503	13.48
181.723	-29.52
181.943	-45.91
182.163	38.06
182.383	7.34
182.602	38.06
182.822	83.11
183.042	-78.68
183.262	-33.62
183.482	-58.2
183.701	31.91
183.921	13.48
184.141	-43.86
184.361	46.25
184.58	-7
184.8	-0.85
185.02	54.44
185.239	13.48
185.459	70.83
185.679	23.72
185.898	-0.85
186.118	70.83
186.338	-52.05
186.557	9.39
186.777	-4.95
186.997	38.06
187.216	29.87
187.436	31.91
187.655	1.19
187.875	105.64
188.095	-2.9
188.314	111.78
188.534	40.11
188.753	40.11
188.973	62.63
189.192	48.3
189.412	-17.24
189.631	-4.95
189.851	-4.95
190.07	40.11
190.29	-52.05
190.509	58.54
190.729	-52.05
190.948	42.15
191.168	111.78
191.387	46.25
191.607	25.77
191.826	40.11
192.045	97.45
192.265	29.87
192.484	5.29
192.704	21.67
192.923	-17.24
193.142	27.82
193.362	70.83
193.581	19.63
193.8	68.78
194.02	-25.43
194.239	25.77
194.458	13.48
194.678	-54.1
194.897	3.24
195.116	-27.48
195.335	23.72
195.555	56.49
195.774	-25.43
195.993	5.29
196.212	50.35
196.432	-27.48
196.651	-2.9
196.87	-23.38
197.089	70.83
197.308	25.77
197.528	-50
197.747	-2.9
197.966	-15.19
198.185	138.41
198.404	-13.14
198.623	68.78
198.842	-43.86
199.062	40.11
199.281	38.06
199.5	-9.05
199.719	7.34
199.938	99.5
200.157	46.25
200.376	33.96
200.595	-33.62
200.814	60.59
201.033	-31.57
201.252	44.2
201.471	46.25
201.69	56.49
201.909	62.63
202.128	-11.09
202.347	17.58
202.566	74.92
202.785	13.48
203.004	-45.91
203.223	83.11
203.442	29.87
203.661	17.58
203.879	91.31
204.098	-43.86
204.317	-19.29
204.536	13.48
204.755	31.91
204.974	66.73
205.193	-41.81
205.411	46.25
205.63	9.39
205.849	-11.09
206.068	9.39
206.287	-25.43
206.505	50.35
206.724	21.67
206.943	-43.86
207.162	23.72
207.381	66.73
207.599	-19.29
207.818	-15.19
208.037	46.25
208.255	25.77
208.474	33.96
208.693	15.53
208.911	70.83
209.13	54.44
209.349	-2.9
209.567	17.58
209.786	-11.09
210.005	97.45
210.223	38.06
210.442	-45.91
210.661	21.67
210.879	48.3
211.098	9.39
211.316	7.34
211.535	44.2
211.753	-0.85
211.972	7.34
212.191	87.21
212.409	40.11
212.628	72.87
212.846	-33.62
213.065	23.72
213.283	87.21
213.502	-27.48
213.72	5.29
213.938	95.4
214.157	-0.85
214.375	31.91
214.594	-56.15
214.812	38.06
215.031	-0.85
215.249	64.68
215.467	13.48
215.686	46.25
215.904	64.68
216.122	13.48
216.341	-7
216.559	54.44
216.778	29.87
216.996	81.07
217.214	-17.24
217.432	-35.67
217.651	-27.48
217.869	-17.24
218.087	-9.05
218.306	13.48
218.524	50.35
218.742	-52.05
218.96	1.19
219.179	31.91
219.397	-9.05
219.615	50.35
219.833	58.54
220.051	-23.38
220.27	60.59
220.488	58.54
220.706	25.77
220.924	-43.86
221.142	-0.85
221.36	48.3
221.578	-19.29
221.796	17.58
222.015	-37.72
222.233	50.35
222.451	83.11
222.669	15.53
222.887	1.19
223.105	29.87
223.323	-33.62
223.541	-11.09
223.759	25.77
223.977	-2.9
224.195	95.4
224.413	72.87
224.631	17.58
224.849	17.58
225.067	95.4
225.285	19.63
225.503	11.43
225.721	-82.77
225.939	138.41
226.157	50.35
226.375	56.49
226.592	5.29
226.81	42.15
227.028	42.15
227.246	99.5
227.464	-7
227.682	15.53
227.9	19.63
228.117	40.11
228.335	36.01
228.553	60.59
228.771	50.35
228.989	40.11
229.206	62.63
229.424	62.63
229.642	-54.1
229.86	54.44
230.077	38.06
230.295	62.63
230.513	62.63
230.731	70.83
230.948	52.39
231.166	56.49
231.384	1.19
231.601	-19.29
231.819	31.91
232.037	48.3
232.254	-27.48
232.472	50.35
232.689	27.82
232.907	-60.24
233.125	5.29
233.342	38.06
233.56	70.83
233.777	91.31
233.995	103.59
234.213	79.02
234.43	21.67
234.648	3.24
234.865	72.87
235.083	-25.43
235.3	-0.85
235.518	-33.62
235.735	103.59
235.953	111.78
236.17	46.25
236.388	31.91
236.605	68.78
236.822	9.39
237.04	1.19
237.257	-9.05
237.475	-19.29
237.692	-11.09
237.909	48.3
238.127	40.11
238.344	-17.24
238.562	76.97
238.779	-11.09
238.996	56.49
239.214	50.35
239.431	1.19
239.648	-41.81
239.865	-39.76
240.083	70.83
240.3	23.72
240.517	7.34
240.735	21.67
240.952	33.96
241.169	95.4
241.386	62.63
241.603	7.34
241.821	-35.67
242.038	15.53
242.255	23.72
242.472	-47.96
242.689	21.67
242.907	111.78
243.124	23.72
243.341	54.44
243.558	-43.86
243.775	-9.05
243.992	79.02
244.209	31.91
244.426	58.54
244.643	38.06
244.86	-27.48
245.078	111.78
245.295	36.01
245.512	-35.67
245.729	21.67
245.946	56.49
246.163	15.53
246.38	1.19
246.597	-0.85
246.814	19.63
247.031	-27.48
247.248	23.72
247.464	46.25
247.681	79.02
247.898	101.55
248.115	54.44
248.332	1.19
248.549	107.69
248.766	103.59
248.983	33.96
249.2	56.49
249.417	-19.29
249.633	13.48
249.85	31.91
250.067	11.43
250.284	21.67
250.501	-4.95
250.717	83.11
250.934	5.29
251.151	3.24
251.368	15.53
251.585	-21.33
251.801	1.19
252.018	13.48
252.235	33.96
252.451	-37.72
252.668	-23.38
252.885	64.68
253.102	50.35
253.318	48.3
253.535	7.34
253.752	13.48
253.968	17.58
254.185	21.67
254.401	-0.85
254.618	-2.9
254.835	-90.96
255.051	105.64
255.268	31.91
255.484	79.02
255.701	-33.62
255.917	15.53
256.134	23.72
256.351	50.35
256.567	-4.95
256.784	60.59
257	46.25
257.217	38.06
257.433	83.11
257.65	-7
257.866	132.26
258.082	13.48
258.299	-88.92
258.515	-35.67
258.732	91.31
258.948	-27.48
259.165	13.48
259.381	21.67
259.597	21.67
259.814	-21.33
260.03	7.34
260.246	48.3
260.463	72.87
260.679	29.87
260.895	62.63
261.112	21.67
261.328	27.82
261.544	-43.86
261.761	130.22
261.977	91.31
262.193	17.58
262.409	33.96
262.626	5.29
262.842	33.96
263.058	46.25
263.274	-56.15
263.49	11.43
263.707	79.02
263.923	27.82
264.139	21.67
264.355	-0.85
264.571	56.49
264.787	33.96
265.004	99.5
265.22	5.29
265.436	83.11
265.652	15.53
265.868	23.72
266.084	-33.62
266.3	70.83
266.516	68.78
266.732	-21.33
266.948	9.39
267.164	9.39
267.38	64.68
267.596	1.19
267.812	-13.14
268.028	-23.38
268.244	-35.67
268.46	115.88
268.676	29.87
268.892	58.54
269.108	-2.9
269.324	11.43
269.54	19.63
269.756	58.54
269.972	46.25
270.188	13.48
270.403	-11.09
270.619	-43.86
270.835	62.63
271.051	1.19
271.267	-9.05
271.483	48.3
271.698	66.73
271.914	64.68
272.13	3.24
272.346	40.11
272.562	29.87
272.777	1.19
272.993	54.44
273.209	29.87
273.425	-27.48
273.64	-23.38
273.856	29.87
274.072	21.67
274.287	-9.05
274.503	-7
274.719	103.59
274.934	5.29
275.15	13.48
275.366	9.39
275.581	-7
275.797	79.02
276.012	-13.14
276.228	44.2
276.444	56.49
276.659	29.87
276.875	17.58
277.09	17.58
277.306	17.58
277.521	56.49
277.737	54.44
277.952	42.15
278.168	21.67
278.383	87.21
278.599	38.06
278.814	31.91
279.03	1.19
279.245	-2.9
279.461	3.24
279.676	89.26
279.892	48.3
280.107	9.39
280.322	31.91
280.538	40.11
280.753	3.24
280.969	48.3
281.184	7.34
281.399	33.96
281.615	44.2
281.83	70.83
282.045	-35.67
282.26	1.19
282.476	11.43
282.691	74.92
282.906	-2.9
283.122	46.25
283.337	5.29
283.552	95.4
283.767	25.77
283.983	31.91
284.198	-19.29
284.413	68.78
284.628	23.72
284.843	38.06
285.058	38.06
285.274	13.48
285.489	-9.05
285.704	46.25
285.919	7.34
286.134	1.19
286.349	31.91
286.564	-25.43
286.779	33.96
286.995	7.34
287.21	-33.62
287.425	93.35
287.64	54.44
287.855	-11.09
288.07	-15.19
288.285	13.48
288.5	17.58
288.715	40.11
288.93	56.49
289.145	-17.24
289.36	13.48
289.575	13.48
289.79	79.02
290.004	31.91
290.219	11.43
290.434	58.54
290.649	-27.48
290.864	54.44
291.079	-2.9
291.294	7.34
291.509	42.15
291.724	62.63
291.938	3.24
292.153	-13.14
292.368	83.11
292.583	-35.67
292.798	46.25
293.012	15.53
293.227	-7
293.442	54.44
293.657	95.4
293.871	62.63
294.086	70.83
294.301	62.63
294.516	79.02
294.73	31.91
294.945	-9.05
295.16	36.01
295.374	113.83
295.589	72.87
295.804	11.43
296.018	54.44
296.233	9.39
296.447	-66.39
296.662	-2.9
296.877	85.16
297.091	-0.85
297.306	9.39
297.52	46.25
297.735	62.63
297.949	-2.9
298.164	-43.86
298.378	58.54
298.593	21.67
298.807	-68.44
299.022	72.87
299.236	74.92
299.451	79.02
299.665	-11.09
299.88	111.78
300.094	46.25
300.309	23.72
300.523	13.48
300.737	-43.86
300.952	87.21
301.166	42.15
301.381	38.06
301.595	-19.29
301.809	29.87
302.024	-11.09
302.238	1.19
302.452	93.35
302.667	-2.9
302.881	54.44
303.095	-25.43
303.309	48.3
303.524	5.29
303.738	79.02
303.952	119.98
304.166	50.35
304.381	13.48
304.595	33.96
304.809	-43.86
305.023	-7
305.237	21.67
305.452	29.87
305.666	13.48
305.88	-17.24
306.094	87.21
306.308	5.29
306.522	-7
306.736	60.59
306.95	13.48
307.164	-19.29
307.379	17.58
307.593	91.31
307.807	58.54
308.021	29.87
308.235	83.11
308.449	-17.24
308.663	-4.95
308.877	136.36
309.091	7.34
309.305	31.91
309.519	42.15
309.733	40.11
309.947	-35.67
310.161	79.02
310.374	64.68
310.588	50.35
310.802	62.63
311.016	62.63
311.23	23.72
311.444	5.29
311.658	-29.52
311.872	62.63
312.085	25.77
312.299	46.25
312.513	62.63
312.727	36.01
312.941	54.44
313.154	38.06
313.368	64.68
313.582	46.25
313.796	40.11
314.009	-2.9
314.223	-2.9
314.437	64.68
314.651	23.72
314.864	58.54
315.078	17.58
315.292	-11.09
315.505	21.67
315.719	48.3
315.933	-33.62
316.146	25.77
316.36	9.39
316.573	38.06
316.787	-31.57
317.001	33.96
317.214	50.35
317.428	-45.91
317.641	-33.62
317.855	-15.19
318.068	38.06
318.282	5.29
318.495	93.35
318.709	85.16
318.922	-11.09
319.136	54.44
319.349	-27.48
319.563	-58.2
319.776	42.15
319.99	54.44
320.203	-15.19
320.417	29.87
320.63	21.67
320.843	79.02
321.057	-11.09
321.27	62.63
321.483	62.63
321.697	-50
321.91	58.54
322.124	38.06
322.337	38.06
322.55	64.68
322.763	-33.62
322.977	23.72
323.19	23.72
323.403	54.44
323.617	103.59
323.83	19.63
324.043	91.31
324.256	17.58
324.469	29.87
324.683	33.96
324.896	-9.05
325.109	72.87
325.322	15.53
325.535	21.67
325.748	83.11
325.962	46.25
326.175	115.88
326.388	68.78
326.601	40.11
326.814	40.11
327.027	79.02
327.24	117.93
327.453	-99.16
327.666	50.35
327.879	38.06
328.092	95.4
328.305	17.58
328.518	66.73
328.731	-0.85
328.944	99.5
329.157	5.29
329.37	48.3
329.583	79.02
329.796	-0.85
330.009	17.58
330.222	54.44
330.435	40.11
330.648	68.78
330.861	25.77
331.073	21.67
331.286	56.49
331.499	-11.09
331.712	-15.19
331.925	-35.67
332.138	23.72
332.35	-0.85
332.563	1.19
332.776	27.82
332.989	46.25
333.202	23.72
333.414	68.78
333.627	81.07
333.84	-23.38
334.053	11.43
334.265	48.3
334.478	68.78
334.691	38.06
334.903	5.29
335.116	15.53
335.329	13.48
335.541	85.16
335.754	66.73
335.966	38.06
336.179	29.87
336.392	15.53
336.604	48.3
336.817	38.06
337.029	29.87
337.242	-0.85
337.454	33.96
337.667	23.72
337.88	95.4
338.092	48.3
338.305	15.53
338.517	76.97
338.729	54.44
338.942	27.82
339.154	13.48
339.367	21.67
339.579	13.48
339.792	-19.29
340.004	25.77
340.217	25.77
340.429	-17.24
340.641	-4.95
340.854	5.29
341.066	58.54
341.278	13.48
341.491	5.29
341.703	17.58
341.915	56.49
342.128	19.63
342.34	62.63
342.552	-19.29
342.764	-41.81
342.977	5.29
343.189	27.82
343.401	62.63
343.613	5.29
343.826	58.54
344.038	15.53
344.25	-2.9
344.462	-29.52
344.674	27.82
344.886	50.35
345.099	29.87
345.311	21.67
345.523	13.48
345.735	-23.38
345.947	58.54
346.159	5.29
346.371	13.48
346.583	38.06
346.795	97.45
347.007	-41.81
347.219	105.64
347.431	5.29
347.643	54.44
347.855	-11.09
348.067	66.73
348.279	5.29
348.491	46.25
348.703	21.67
348.915	3.24
349.127	40.11
349.339	25.77
349.551	-43.86
349.763	89.26
349.975	-7
350.187	27.82
350.399	76.97
350.61	79.02
350.822	1.19
351.034	-41.81
351.246	54.44
351.458	62.63
351.669	-11.09
351.881	95.4
352.093	46.25
352.305	44.2
352.517	54.44
352.728	27.82
352.94	25.77
353.152	15.53
353.363	38.06
353.575	-4.95
353.787	99.5
353.999	38.06
354.21	117.93
354.422	40.11
354.633	-2.9
354.845	21.67
355.057	-52.05
355.268	38.06
355.48	29.87
355.692	-52.05
355.903	54.44
356.115	64.68
356.326	33.96
356.538	48.3
356.749	9.39
356.961	62.63
357.172	70.83
357.384	1.19
357.595	56.49
357.807	38.06
358.018	-35.67
358.23	33.96
358.441	58.54
358.653	97.45
358.864	68.78
359.075	-2.9
359.287	128.17
359.498	38.06
359.709	9.39
359.921	21.67
360.132	29.87
360.344	83.11
360.555	-2.9
360.766	42.15
360.977	29.87
361.189	52.39
361.4	29.87
361.611	38.06
361.823	31.91
362.034	9.39
362.245	-15.19
362.456	119.98
362.667	60.59
362.879	95.4
363.09	5.29
363.301	13.48
363.512	-0.85
363.723	-15.19
363.935	7.34
364.146	5.29
364.357	27.82
364.568	60.59
364.779	13.48
364.99	74.92
365.201	29.87
365.412	58.54
365.623	36.01
365.834	40.11
366.045	23.72
366.256	38.06
366.467	83.11
366.678	44.2
366.889	-13.14
367.1	54.44
367.311	46.25
367.522	54.44
367.733	31.91
367.944	105.64
368.155	50.35
368.366	27.82
368.577	56.49
368.788	19.63
368.999	-2.9
369.209	13.48
369.42	111.78
369.631	130.22
369.842	17.58
370.053	23.72
370.264	66.73
370.474	72.87
370.685	91.31
370.896	-19.29
371.107	87.21
371.317	-33.62
371.528	33.96
371.739	111.78
371.95	5.29
372.16	103.59
372.371	-31.57
372.582	89.26
372.792	3.24
373.003	17.58
373.214	83.11
373.424	27.82
373.635	-31.57
373.846	64.68
374.056	54.44
374.267	-21.33
374.477	62.63
374.688	-25.43
374.898	25.77
375.109	40.11
375.319	13.48
375.53	40.11
375.74	38.06
375.951	95.4
376.161	-68.44
376.372	38.06
376.582	-39.76
376.793	38.06
377.003	9.39
377.214	7.34
377.424	48.3
377.635	62.63
377.845	7.34
378.055	103.59
378.266	21.67
378.476	46.25
378.686	31.91
378.897	17.58
379.107	62.63
379.317	103.59
379.528	3.24
379.738	3.24
379.948	7.34
380.158	72.87
380.369	74.92
380.579	72.87
380.789	54.44
380.999	79.02
381.21	103.59
381.42	50.35
381.63	29.87
381.84	81.07
382.05	76.97
382.261	89.26
382.471	62.63
382.681	56.49
382.891	29.87
383.101	70.83
383.311	1.19
383.521	38.06
383.731	62.63
383.941	33.96
384.151	89.26
384.361	23.72
384.571	87.21
384.781	124.07
384.991	50.35
385.201	81.07
385.411	23.72
385.621	13.48
385.831	31.91
386.041	-21.33
386.251	9.39
386.461	-41.81
386.671	54.44
386.881	74.92
387.091	29.87
387.301	83.11
387.511	40.11
387.72	79.02
387.93	25.77
388.14	17.58
388.35	-29.52
388.56	97.45
388.769	38.06
388.979	33.96
389.189	40.11
389.399	62.63
389.609	95.4
389.818	42.15
390.028	15.53
390.238	74.92
390.447	-0.85
390.657	38.06
390.867	42.15
391.076	15.53
391.286	40.11
391.496	-0.85
391.705	107.69
391.915	50.35
392.125	42.15
392.334	-0.85
392.544	95.4
392.753	74.92
392.963	54.44
393.172	48.3
393.382	54.44
393.591	79.02
393.801	83.11
394.01	103.59
394.22	85.16
394.429	54.44
394.639	103.59
394.848	74.92
395.058	70.83
395.267	66.73
395.477	38.06
395.686	9.39
395.895	103.59
396.105	148.65
396.314	38.06
396.524	95.4
396.733	1.19
396.942	95.4
397.152	87.21
397.361	15.53
397.57	25.77
397.78	23.72
397.989	119.98
398.198	113.83
398.407	70.83
398.617	111.78
398.826	60.59
399.035	99.5
399.244	74.92
399.453	115.88
399.663	46.25
399.872	66.73
400.081	83.11
400.29	154.79
400.499	36.01
400.708	128.17
400.917	15.53
401.127	81.07
401.336	58.54
401.545	64.68
401.754	103.59
401.963	83.11
402.172	79.02
402.381	136.36
402.59	81.07
402.799	52.39
403.008	87.21
403.217	33.96
403.426	146.6
403.635	31.91
403.844	109.74
404.053	107.69
404.262	40.11
404.471	87.21
404.68	165.03
404.888	87.21
405.097	83.11
405.306	87.21
405.515	119.98
405.724	140.46
405.933	74.92
406.142	138.41
406.35	165.03
406.559	152.74
406.768	62.63
406.977	236.71
407.185	128.17
407.394	91.31
407.603	136.36
407.812	177.32
408.02	179.37
408.229	115.88
408.438	140.46
408.646	208.04
408.855	183.46
409.064	201.9
409.272	160.94
409.481	220.33
409.69	234.66
409.898	95.4
410.107	169.13
410.315	263.33
410.524	212.14
410.733	236.71
410.941	244.9
411.15	324.77
411.358	267.43
411.567	300.2
411.775	287.91
411.984	341.16
412.192	396.45
412.401	400.55
412.609	320.68
412.818	414.88
413.026	406.69
413.234	357.54
413.443	371.88
413.651	373.92
413.86	472.23
414.068	478.37
414.276	472.23
414.485	439.46
414.693	414.88
414.901	504.99
415.11	513.19
415.318	484.52
415.526	502.95
415.734	593.06
415.943	623.78
416.151	619.68
416.359	607.39
416.567	623.78
416.776	580.77
416.984	638.11
417.192	738.46
417.4	625.83
417.608	783.52
417.817	810.14
418.025	842.91
418.233	808.09
418.441	865.44
418.649	836.77
418.857	902.3
419.065	980.12
419.273	857.25
419.481	922.78
419.689	1053.85
419.897	1000.6
420.105	1209.5
420.313	1156.25
420.521	1143.96
420.729	1168.54
420.937	1123.48
421.145	1275.03
421.353	1406.1
421.561	1338.52
421.769	1340.57
421.977	1565.84
422.185	1434.77
422.393	1571.99
422.601	1680.53
422.809	1555.6
423.017	1625.23
423.224	1684.62
423.432	1733.78
423.64	1760.4
423.848	1938.57
424.056	1901.71
424.263	2116.75
424.471	2137.23
424.679	2063.5
424.887	2286.73
425.094	2307.21
425.302	2292.87
425.51	2266.25
425.718	2290.82
425.925	2405.51
426.133	2581.64
426.341	2645.12
426.548	2786.43
426.756	2911.36
426.964	2798.72
427.171	3019.9
427.379	3142.78
427.586	3093.63
427.794	3085.44
428.001	3351.67
428.209	3550.32
428.417	3333.24
428.624	3546.23
428.832	3787.89
429.039	3585.14
429.247	3660.91
429.454	4097.13
429.662	4220.01
429.869	4129.9
430.076	4297.83
430.284	4047.98
430.491	4289.64
430.699	4355.18
430.906	4486.25
431.114	4535.4
431.321	4775.01
431.528	5039.2
431.736	5313.63
431.943	5487.7
432.15	5198.94
432.358	5342.3
432.565	5538.9
432.772	5643.35
432.979	5809.23
433.187	6079.57
433.394	6116.43
433.601	6378.57
433.808	6485.06
434.016	6401.1
434.223	6657.09
434.43	7306.3
434.637	6919.23
434.844	7330.87
435.052	7543.86
435.259	7552.06
435.466	7554.1
435.673	7502.9
435.88	7781.43
436.087	8367.15
436.294	8352.81
436.501	7984.18
436.708	8377.39
436.915	8543.27
437.122	9085.98
437.329	9024.54
437.537	9407.52
437.743	9321.5
437.95	9335.84
438.157	9833.49
438.364	10050.58
438.571	9823.25
438.778	10241.04
438.985	11064.32
439.192	10517.51
439.399	10859.52
439.606	10759.17
439.813	11351.04
440.02	12182.51
440.227	11707.38
440.433	11402.24
440.64	11736.06
440.847	11889.65
441.054	12264.43
441.261	12999.65
441.467	12643.31
441.674	13091.81
441.881	13540.32
442.088	13515.74
442.294	13450.21
442.501	13994.97
442.708	14293.97
442.914	14693.32
443.121	15276.99
443.328	14891.98
443.534	15723.45
443.741	15377.34
443.948	15186.88
444.154	16262.07
444.361	16192.44
444.568	16169.91
444.774	16370.61
444.981	16395.18
445.187	16907.18
445.394	17849.24
445.6	17349.54
445.807	19157.89
446.013	18453.39
446.22	18699.15
446.426	19211.14
446.633	19518.34
446.839	20259.7
447.046	19209.09
447.252	20317.04
447.459	20382.58
447.665	20417.4
447.871	21201.77
448.078	21912.41
448.284	21066.6
448.491	21543.78
448.697	22674.26
448.903	23042.89
449.11	23008.08
449.316	22692.69
449.522	22788.94
449.728	23860.03
449.935	23845.69
450.141	23956.29
450.347	24394.55
450.553	23331.65
450.76	24005.44
450.966	24648.5
451.172	24441.65
451.378	24976.17
451.584	24277.82
451.791	25103.15
451.997	24853.3
452.203	25652
452.409	25436.97
452.615	25207.59
452.821	24066.88
453.027	23876.41
453.233	25203.5
453.44	24531.76
453.646	24873.78
453.852	24898.35
454.058	25574.18
454.264	24185.66
454.47	25285.42
454.676	24505.14
454.882	25346.86
455.088	22735.7
455.294	23575.36
455.5	23454.53
455.705	24077.12
455.911	23098.19
456.117	22725.46
456.323	22432.6
456.529	21005.16
456.735	22090.59
456.941	21517.15
457.147	21261.16
457.352	20609.9
457.558	20441.97
457.764	20429.68
457.97	20358
458.176	19645.31
458.381	19714.94
458.587	18631.57
458.793	18830.22
458.999	17693.6
459.204	19161.99
459.41	18553.74
459.616	17443.74
459.821	17290.15
460.027	17388.45
460.233	17175.46
460.438	16360.37
460.644	16262.07
460.85	15580.09
461.055	15330.24
461.261	15317.95
461.466	14392.27
461.672	13812.7
461.878	14781.39
462.083	13906.9
462.289	13478.88
462.494	13384.67
462.7	12852.2
462.905	12305.39
463.111	12858.34
463.316	13005.8
463.522	12473.32
463.727	12522.48
463.932	12588.01
464.138	12239.86
464.343	12448.75
464.549	11934.71
464.754	12841.96
464.959	12235.76
465.165	12434.41
465.37	11926.52
465.575	11518.97
465.781	11973.62
465.986	12151.79
466.191	11531.26
466.397	11297.79
466.602	10898.44
466.807	11283.45
467.012	11418.62
467.218	11367.42
467.423	11131.9
467.628	11097.09
467.833	11340.8
468.038	11023.36
468.244	10783.75
468.449	11232.26
468.654	11080.71
468.859	10802.18
469.064	10714.12
469.269	10402.83
469.474	10462.22
469.679	10785.8
469.885	10320.91
470.09	10425.36
470.295	10290.19
470.5	10210.32
470.705	10181.65
470.91	10077.2
471.115	9950.23
471.32	10114.06
471.525	10017.81
471.73	9640.98
471.935	9735.19
472.139	9477.15
472.344	9487.39
472.549	9524.25
472.754	9026.59
472.959	9104.42
473.164	8926.24
473.369	8789.03
473.574	9258.01
473.778	9022.5
473.983	9055.26
474.188	8975.39
474.393	8502.31
474.598	8545.32
474.802	8524.84
475.007	8502.31
475.212	8526.89
475.417	8197.17
475.621	8211.5
475.826	8180.78
476.031	8068.14
476.235	7787.57
476.44	8049.71
476.645	7744.56
476.849	7978.03
477.054	7672.89
477.259	7574.58
477.463	7461.94
477.668	7529.53
477.872	7511.1
478.077	7406.65
478.282	7164.99
478.486	7156.8
478.691	7181.37
478.895	7078.97
479.1	7181.37
479.304	7074.88
479.509	6689.86
479.713	6880.32
479.918	6943.81
480.122	6566.98
480.326	6929.47
480.531	6833.22
480.735	6599.75
480.94	6657.09
481.144	6952
481.348	6489.16
481.553	6675.52
481.757	6345.8
481.961	6628.42
482.166	6724.68
482.37	6698.05
482.574	6607.94
482.778	6585.41
482.983	6739.01
483.187	6560.84
483.391	6468.68
483.595	6478.92
483.8	6501.45
484.004	6583.37
484.208	6470.73
484.412	6450.25
484.616	6487.11
484.821	6431.82
485.025	6310.99
485.229	6603.85
485.433	6423.62
485.637	6640.71
485.841	6497.35
486.045	6454.34
486.249	6491.21
486.453	6462.54
486.657	6681.67
486.861	6429.77
487.065	6384.71
487.269	6548.55
487.473	6378.57
487.677	6544.45
487.881	6558.79
488.085	6538.31
488.289	6534.21
488.493	6442.06
488.697	6423.62
488.901	6554.69
489.105	6407.24
489.309	6607.94
489.512	6521.93
489.716	6673.48
489.92	6626.37
490.124	6450.25
490.328	6845.51
490.531	6560.84
490.735	6673.48
490.939	6669.38
491.143	6816.83
491.346	6849.6
491.55	6773.83
491.754	6857.79
491.958	6886.47
492.161	6779.97
492.365	6861.89
492.569	6782.02
492.772	6718.53
492.976	6898.75
493.18	6954.05
493.383	6898.75
493.587	7126.08
493.79	7236.67
493.994	7132.22
494.197	7164.99
494.401	7248.96
494.605	7181.37
494.808	7087.17
495.012	7373.88
495.215	7316.54
495.419	7300.16
495.622	7283.77
495.825	7558.2
496.029	7543.86
496.232	7511.1
496.436	7726.13
496.639	7687.22
496.843	7869.49
497.046	7910.45
497.249	8088.62
497.453	7975.98
497.656	8129.58
497.859	8123.44
498.063	8127.53
498.266	8426.54
498.469	8565.8
498.673	8467.5
498.876	8487.98
499.079	8670.25
499.282	8688.68
499.485	8924.19
499.689	8870.95
499.892	8946.72
500.095	9049.12
500.298	9169.95
500.501	9137.18
500.705	9372.7
500.908	9628.7
501.111	9706.52
501.314	9581.59
501.517	9774.1
501.72	9978.9
501.923	9882.64
502.126	10048.53
502.329	10187.79
502.532	10290.19
502.735	10370.06
502.938	10531.85
503.141	10605.58
503.344	10923.01
503.547	10716.17
503.75	10943.49
503.953	11023.36
504.156	11152.38
504.359	11404.28
504.562	11303.93
504.765	11578.36
504.968	11596.79
505.17	11598.84
505.373	11787.25
505.576	11971.57
505.779	12147.7
505.982	12252.14
506.185	12200.94
506.387	12573.67
506.59	12694.5
506.793	12678.12
506.996	12944.36
507.198	13116.39
507.401	12979.17
507.604	13188.07
507.807	13284.32
508.009	13513.69
508.212	13679.58
508.415	13700.06
508.617	13982.68
508.82	13960.15
509.022	13929.43
509.225	14625.74
509.428	14285.78
509.63	14283.73
509.833	14846.92
510.035	15008.71
510.238	14910.41
510.44	15098.82
510.643	15274.95
510.845	15469.5
511.048	15440.83
511.25	15776.7
511.453	15799.23
511.655	16225.2
511.858	16071.61
512.06	16042.93
512.262	16513.97
512.465	16286.64
512.667	16759.72
512.87	16659.37
513.072	16995.24
513.274	17232.8
513.477	17400.74
513.679	17544.09
513.881	17793.95
514.084	17748.89
514.286	17576.86
514.488	17900.44
514.69	18561.94
514.893	18318.23
515.095	18369.43
515.297	18520.98
515.499	18740.11
515.701	19090.31
515.904	19194.76
516.106	19391.36
516.308	19645.31
516.51	19979.13
516.712	19731.33
516.914	19764.09
517.116	20466.55
517.318	20280.18
517.52	20167.54
517.722	20276.09
517.925	20489.07
518.127	21105.51
518.329	21166.95
518.531	20702.06
518.733	21404.52
518.935	21816.16
519.136	21959.52
519.338	21912.41
519.54	22049.63
519.742	22086.49
519.944	22371.16
520.146	22821.71
520.348	22877.01
520.55	23212.87
520.752	22756.18
520.954	23165.77
521.155	23251.78
521.357	23626.56
521.559	23839.55
521.761	24075.07
521.963	23960.38
522.164	24228.66
522.366	24208.19
522.568	24306.49
522.77	24718.13
522.971	25002.8
523.173	24978.22
523.375	25199.4
523.576	25062.19
523.778	25043.76
523.98	25991.97
524.181	25619.24
524.383	25559.84
524.584	26233.63
524.786	26010.4
524.988	25922.34
525.189	26450.71
525.391	26069.79
525.592	26549.01
525.794	26366.74
525.995	26510.1
526.197	26751.76
526.398	26563.35
526.6	26802.96
526.801	27167.5
527.003	27161.36
527.204	26962.7
527.406	27302.67
527.607	27265.8
527.808	27497.22
528.01	27222.8
528.211	27454.22
528.412	28082.94
528.614	28097.28
528.815	27976.45
529.016	28007.17
529.218	27546.37
529.419	28117.76
529.62	28234.49
529.822	28154.62
530.023	28105.47
530.224	28250.88
530.425	28158.72
530.626	28130.05
530.828	28148.48
531.029	28871.41
531.23	28160.76
531.431	28398.33
531.632	28812.02
531.833	28656.37
532.035	28568.31
532.236	28316.41
532.437	28603.13
532.638	28457.72
532.839	28732.15
533.04	28848.88
533.241	28416.76
533.442	28633.85
533.643	28859.12
533.844	28914.42
534.045	28717.81
534.246	28513.02
534.447	28994.29
534.648	28717.81
534.849	28617.46
535.05	28635.89
535.251	28818.16
535.451	28973.81
535.652	29047.54
535.853	29006.58
536.054	28564.21
536.255	28732.15
536.456	28564.21
536.657	28676.85
536.857	28619.51
537.058	28697.33
537.259	28936.95
537.46	28988.14
537.66	28893.94
537.861	28633.85
538.062	28734.2
538.263	28820.21
538.463	28687.09
538.664	28480.25
538.865	28957.42
539.065	28787.44
539.266	28838.64
539.466	28633.85
539.667	28453.62
539.868	28678.9
540.068	28535.54
540.269	28519.16
540.469	28771.06
540.67	28642.04
540.87	28490.49
541.071	28662.52
541.271	28934.9
541.472	28254.97
541.672	28463.86
541.873	28488.44
542.073	28359.42
542.274	28848.88
542.474	28730.1
542.675	28478.2
542.875	28535.54
543.075	28457.72
543.276	28478.2
543.476	28519.16
543.676	28377.85
543.877	28543.74
544.077	28570.36
544.277	28340.99
544.478	28500.73
544.678	28525.3
544.878	28611.32
545.078	28639.99
545.279	28046.08
545.479	28250.88
545.679	28660.47
545.879	28494.58
546.079	28367.61
546.28	28205.82
546.48	28400.38
546.68	28388.09
546.88	28361.47
547.08	28312.31
547.28	28396.28
547.48	28175.1
547.68	27808.51
547.88	28121.85
548.081	28095.23
548.281	28250.88
548.481	27949.82
548.681	28564.21
548.881	28205.82
549.081	28152.57
549.28	28039.93
549.48	28023.55
549.68	27974.4
549.88	28762.87
550.08	27888.39
550.28	28271.36
550.48	28160.76
550.68	28488.44
550.88	28142.33
551.08	28037.89
551.279	28295.93
551.479	27747.08
551.679	28396.28
551.879	27921.15
552.079	28420.86
552.278	27816.71
552.478	27796.23
552.678	28097.28
552.878	28138.24
553.077	27822.85
553.277	27843.33
553.477	28285.69
553.676	27953.92
553.876	27857.67
554.076	27892.48
554.275	27554.57
554.475	27646.72
554.674	27788.03
554.874	27818.75
555.074	27902.72
555.273	27693.83
555.473	28121.85
555.672	27513.61
555.872	28056.32
556.071	27706.12
556.271	27740.93
556.47	27486.98
556.67	27243.27
556.869	27654.92
557.068	27515.65
557.268	27730.69
557.467	27716.36
557.667	27542.28
557.866	27540.23
558.065	27644.68
558.265	27564.81
558.464	27118.35
558.663	27669.25
558.863	27595.53
559.062	27413.26
559.261	26964.75
559.461	27454.22
559.66	27050.77
559.859	27317
560.058	27370.25
560.258	27052.81
560.457	26860.3
560.656	27233.04
560.855	27032.33
561.054	27128.59
561.253	26430.23
561.453	26985.23
561.652	27040.53
561.851	26858.26
562.05	26778.39
562.249	26573.59
562.448	26864.4
562.647	26657.56
562.846	26436.38
563.045	26602.26
563.244	26376.98
563.443	26374.94
563.642	26098.46
563.841	26419.99
564.04	26135.32
564.239	26669.84
564.438	26096.41
564.637	26325.78
564.836	26352.41
565.035	25799.46
565.234	26067.74
565.432	25727.78
565.631	25951.01
565.83	26268.44
566.029	25920.29
566.228	25729.83
566.427	25858.85
566.625	25328.42
566.824	25432.87
567.023	25633.57
567.222	25010.99
567.42	25621.28
567.619	25348.9
567.818	25578.28
568.016	25428.77
568.215	25654.05
568.414	25496.36
568.612	25371.43
568.811	25172.78
569.01	25211.69
569.208	24976.17
569.407	25097
569.605	24589.11
569.804	24943.41
570.002	24539.96
570.201	24830.77
570.4	24664.88
570.598	24572.72
570.797	24660.79
570.995	24920.88
571.193	24339.26
571.392	24492.85
571.59	24286.01
571.789	24480.57
571.987	24468.28
572.186	23989.05
572.384	24281.91
572.582	24169.27
572.781	24214.33
572.979	23827.26
573.177	23900.99
573.376	23933.76
573.574	24081.21
573.772	24030.01
573.971	23391.05
574.169	23327.56
574.367	23558.98
574.565	23784.26
574.763	23741.25
574.962	23321.41
575.16	23276.36
575.358	23317.32
575.556	22983.5
575.754	23470.92
575.952	23178.06
576.151	23438.15
576.349	22995.79
576.547	23266.12
576.745	23036.75
576.943	22838.09
577.141	22967.12
577.339	23335.75
577.537	22893.39
577.735	22836.05
577.933	22371.16
578.131	22508.37
578.329	22821.71
578.527	22446.93
578.725	22342.49
578.923	22491.99
579.121	22283.09
579.319	22225.75
579.516	22319.96
579.714	22598.48
579.912	22383.45
580.11	22047.58
580.308	21867.36
580.506	22066.01
580.704	21588.83
580.901	21848.93
581.099	22145.88
581.297	21785.44
581.495	21754.72
581.692	21724
581.89	21574.5
582.088	21816.16
582.285	21207.91
582.483	21533.54
582.681	21326.69
582.878	21103.46
583.076	21146.47
583.274	21373.8
583.471	21013.35
583.669	21142.38
583.866	21156.71
584.064	21072.75
584.262	20714.35
584.459	21062.51
584.657	21011.31
584.854	20978.54
585.052	20779.89
585.249	20841.32
585.447	20515.7
585.644	20525.94
585.841	20466.55
586.039	20796.27
586.236	20323.19
586.434	20618.1
586.631	20335.48
586.828	20433.78
587.026	20339.57
587.223	20319.09
587.42	20104.06
587.618	20032.38
587.815	19964.79
588.012	19954.55
588.21	19985.27
588.407	20122.49
588.604	19776.38
588.801	19755.9
588.999	19714.94
589.196	19755.9
589.393	19706.75
589.59	19665.79
589.787	19336.07
589.984	19434.37
590.182	19127.17
590.379	19471.23
590.576	19307.4
590.773	19223.43
590.97	19133.32
591.167	19321.73
591.364	18912.14
591.561	19035.02
591.758	19131.27
591.955	18684.81
592.152	19147.65
592.349	18817.93
592.546	18858.89
592.743	18754.44
592.94	18568.08
593.137	18629.52
593.334	18439.06
593.531	18520.98
593.727	18613.13
593.924	18611.09
594.121	18250.64
594.318	18324.37
594.515	18283.41
594.712	18172.82
594.908	18056.09
595.105	18209.68
595.302	17947.54
595.499	18047.9
595.696	17933.21
595.892	17839
596.089	18015.13
596.286	17738.65
596.482	17861.53
596.679	17970.07
596.876	17755.04
597.072	17214.37
597.269	17560.48
597.466	17630.11
597.662	17271.72
597.859	17462.18
598.055	17447.84
598.252	17243.04
598.448	17120.17
598.645	17232.8
598.841	17011.62
599.038	17163.17
599.234	17212.32
599.431	17159.08
599.627	16960.42
599.824	17175.46
600.02	16892.84
600.217	17034.15
600.413	16941.99
600.609	16483.25
600.806	16587.69
601.002	16855.98
601.198	16741.29
601.395	16556.97
601.591	16651.18
601.787	16440.24
601.984	16284.59
602.18	16640.94
602.376	16395.18
602.572	16233.39
602.769	16296.88
602.965	16192.44
603.161	16323.51
603.357	15868.86
603.553	16079.8
603.75	15799.23
603.946	15913.91
604.142	15813.56
604.338	15621.05
604.534	16049.08
604.73	15694.78
604.926	15475.65
605.122	15569.85
605.318	15561.66
605.514	15553.47
605.71	15365.06
605.906	15303.62
606.102	15565.76
606.298	15578.04
606.494	15197.12
606.69	15244.23
606.886	15131.59
607.082	15053.76
607.278	15340.48
607.474	15090.63
607.67	15090.63
607.866	15018.95
608.062	15029.19
608.257	15045.57
608.453	14955.46
608.649	14834.63
608.845	15041.48
609.041	14992.33
609.236	14859.21
609.432	14984.13
609.628	14906.31
609.824	14785.48
610.019	14597.07
610.215	14644.17
610.411	14826.44
610.606	14595.02
610.802	14496.72
610.998	14693.32
611.193	14717.9
611.389	14484.43
611.584	14750.67
611.78	14402.51
611.976	14382.03
612.171	14601.16
612.367	14441.42
612.562	14279.63
612.758	14103.51
612.953	14218.19
613.149	14431.18
613.344	14232.53
613.539	14214.1
613.735	14341.07
613.93	14119.89
614.126	14023.64
614.321	14586.83
614.517	14300.11
614.712	13960.15
614.907	14132.18
615.103	14113.75
615.298	14119.89
615.493	14177.23
615.688	14083.03
615.884	14210
616.079	13919.19
616.274	13915.09
616.47	13878.23
616.665	13978.58
616.86	13644.76
617.055	13708.25
617.25	13579.23
617.445	14179.28
617.641	13538.27
617.836	13775.83
618.031	13515.74
618.226	13577.18
618.421	13382.62
618.616	13607.9
618.811	13370.33
619.006	13384.67
619.201	13329.38
619.396	13325.28
619.591	12983.27
619.786	13276.13
619.981	13138.91
620.176	13169.63
620.371	12907.49
620.566	12725.22
620.761	13063.14
620.956	12882.92
621.151	13067.24
621.346	13061.09
621.541	12737.51
621.735	12596.2
621.93	12489.71
622.125	12786.66
622.32	12407.79
622.515	12436.46
622.709	12100.59
622.904	12387.31
623.099	12235.76
623.294	12235.76
623.488	12155.89
623.683	12186.61
623.878	11901.94
624.072	12018.68
624.267	11807.73
624.462	11809.78
624.656	11736.06
624.851	11781.11
625.046	11645.94
625.24	11351.04
625.435	11371.52
625.629	11279.36
625.824	11439.1
626.018	11400.19
626.213	11033.6
626.407	11252.73
626.602	10998.79
626.796	10966.02
626.991	11009.03
627.185	11076.61
627.38	10789.89
627.574	10935.3
627.768	10595.34
627.963	10681.35
628.157	10535.95
628.352	10621.96
628.546	10370.06
628.74	10507.27
628.935	10359.82
629.129	10417.16
629.323	10122.26
629.517	10052.63
629.712	10226.7
629.906	10359.82
630.1	10019.86
630.294	9966.61
630.489	10136.59
630.683	9876.5
630.877	9776.15
631.071	9874.45
631.265	9810.96
631.459	9567.26
631.653	9595.93
631.848	9528.35
632.042	9538.59
632.236	9636.89
632.43	9276.45
632.624	9487.39
632.818	9655.32
633.012	9360.41
633.206	9327.64
633.4	9253.92
633.594	9163.81
633.788	9360.41
633.982	8989.73
634.176	9030.69
634.369	9145.38
634.563	8979.49
634.757	8846.37
634.951	8952.87
635.145	8852.52
635.339	8709.16
635.533	8852.52
635.726	8741.93
635.92	8559.66
636.114	8657.96
636.308	8637.48
636.501	8649.77
636.695	8430.63
636.889	8416.3
637.083	8526.89
637.276	8238.12
637.47	8342.57
637.664	8346.67
637.857	8041.52
638.051	8041.52
638.244	8156.21
638.438	8010.8
638.632	8090.67
638.825	7992.37
639.019	7869.49
639.212	7859.25
639.406	8000.56
639.599	7865.39
639.793	7803.96
639.986	7820.34
640.18	7658.55
640.373	7662.65
640.567	7590.97
640.76	7574.58
640.954	7398.46
641.147	7521.34
641.34	7429.18
641.534	7398.46
641.727	7437.37
641.92	7443.51
642.114	7214.14
642.307	7160.89
642.5	7261.24
642.694	7113.79
642.887	6943.81
643.08	7099.45
643.273	7097.41
643.467	7119.93
643.66	6927.42
643.853	7027.78
644.046	6896.71
644.239	6863.94
644.432	6878.27
644.626	6937.66
644.819	6741.06
645.012	6685.76
645.205	6796.35
645.398	6628.42
645.591	6687.81
645.784	6739.01
645.977	6427.72
646.17	6536.26
646.363	6714.44
646.556	6358.09
646.749	6495.3
646.942	6407.24
647.135	6435.91
647.328	6442.06
647.521	6282.31
647.714	6298.7
647.907	6190.16
648.099	6052.94
648.292	6167.63
648.485	6091.85
648.678	6046.8
648.871	6177.87
649.064	6095.95
649.256	6001.74
649.449	6079.57
649.642	5987.41
649.835	5870.67
650.027	5977.17
650.22	5971.02
650.413	5868.63
650.605	5837.91
650.798	5899.34
650.991	5805.14
651.183	5719.12
651.376	5753.94
651.568	5735.51
651.761	5616.72
651.954	5635.16
652.146	5626.96
652.339	5776.47
652.531	5448.79
652.724	5350.49
652.916	5364.82
653.109	5444.7
653.301	5276.76
653.494	5485.65
653.686	5223.51
653.879	5493.85
654.071	5477.46
654.263	5407.83
654.456	5291.1
654.648	5239.9
654.84	5178.46
655.033	5297.24
655.225	4994.14
655.417	5125.21
655.61	5020.77
655.802	5045.34
655.994	5024.86
656.186	5076.06
656.379	5047.39
656.571	4961.37
656.763	4858.98
656.955	4951.14
657.148	4863.07
657.34	4856.93
657.532	4660.32
657.724	4732
657.916	4738.15
658.108	4858.98
658.3	4734.05
658.492	4779.11
658.684	4621.41
658.876	4723.81
659.068	4607.08
659.26	4551.78
659.452	4559.97
659.644	4490.34
659.836	4476.01
660.028	4533.35
660.22	4433
660.412	4357.22
660.604	4416.62
660.796	4519.01
660.988	4461.67
661.18	4439.14
661.372	4406.38
661.563	4312.17
661.755	4201.58
661.947	4195.43
662.139	4396.14
662.331	4289.64
662.522	4234.35
662.714	4265.07
662.906	4146.28
663.097	4033.65
663.289	4160.62
663.481	4213.87
663.673	4134
663.864	4066.41
664.056	4105.32
664.247	4019.31
664.439	3929.2
664.631	4076.65
664.822	4015.21
665.014	4007.02
665.205	4009.07
665.397	3978.35
665.588	4023.41
665.78	3992.69
665.971	3986.54
666.163	4027.5
666.354	3943.53
666.546	3941.49
666.737	3740.79
666.929	3783.79
667.12	3720.31
667.311	3810.42
667.503	3785.84
667.694	3685.49
667.885	3699.83
668.077	3658.87
668.268	3535.99
668.459	3644.53
668.651	3744.88
668.842	3548.28
669.033	3617.91
669.224	3470.45
669.416	3619.96
669.607	3662.96
669.798	3552.37
669.989	3693.68
670.18	3515.51
670.371	3499.13
670.563	3554.42
670.754	3472.5
670.945	3482.74
671.136	3497.08
671.327	3398.77
671.518	3431.54
671.709	3423.35
671.9	3472.5
672.091	3492.98
672.282	3486.84
672.473	3339.38
672.664	3439.73
672.855	3314.81
673.046	3388.53
673.237	3429.49
673.428	3359.86
673.619	3435.64
673.809	3142.78
674	3290.23
674.191	3249.27
674.382	3298.42
674.573	3153.02
674.764	3196.03
674.954	3218.55
675.145	3120.25
675.336	3255.42
675.527	3277.94
675.717	3306.62
675.908	3259.51
676.099	3284.09
676.289	3239.03
676.48	3232.89
676.671	3218.55
676.861	3216.51
677.052	3105.92
677.243	3134.59
677.433	3085.44
677.624	3073.15
677.814	3038.33
678.005	3273.85
678.195	3038.33
678.386	3124.35
678.576	3042.43
678.767	2888.83
678.957	2991.23
679.148	3206.27
679.338	3019.9
679.529	3056.76
679.719	3036.28
679.909	3095.68
680.1	3103.87
680.29	3046.52
680.481	3005.56
680.671	3118.2
680.861	3054.72
681.052	3017.85
681.242	2886.78
681.432	3071.1
681.622	2929.79
681.813	2937.98
682.003	2933.89
682.193	2894.97
682.383	3103.87
682.573	2958.46
682.764	2849.92
682.954	2991.23
683.144	2972.8
683.334	2862.21
683.524	3069.05
683.714	2999.42
683.904	2925.69
684.094	2972.8
684.284	2905.21
684.474	3026.04
684.664	2856.06
684.854	2921.6
685.044	2823.3
685.234	2817.15
685.424	2905.21
685.614	2765.95
685.804	2849.92
685.994	2847.87
686.184	2845.82
686.374	2780.29
686.564	2768
686.753	2731.14
686.943	2765.95
687.133	2737.28
687.323	2671.75
687.513	2761.86
687.702	2710.66
687.892	2729.09
688.082	2684.03
688.272	2815.1
688.461	2792.58
688.651	2653.31
688.841	2643.07
689.03	2757.76
689.22	2688.13
689.41	2729.09
689.599	2630.79
689.789	2688.13
689.979	2555.01
690.168	2544.77
690.358	2673.79
690.547	2518.15
690.737	2616.45
690.926	2487.43
691.116	2440.33
691.305	2569.35
691.495	2544.77
691.684	2598.02
691.874	2497.67
692.063	2401.41
692.252	2593.92
692.442	2372.74
692.631	2438.28
692.82	2585.73
693.01	2368.65
693.199	2423.94
693.388	2344.07
693.578	2356.36
693.767	2339.97
693.956	2464.9
694.146	2317.45
694.335	2399.37
694.524	2372.74
694.713	2471.04
694.902	2391.17
695.092	2350.21
695.281	2385.03
695.47	2327.69
695.659	2307.21
695.848	2276.49
696.037	2376.84
696.226	2223.24
696.415	2249.86
696.604	2323.59
696.793	2288.78
696.982	2270.34
697.171	2380.93
697.36	2299.02
697.549	2256.01
697.738	2102.41
697.927	2153.61
698.116	2167.95
698.305	2053.26
698.494	2233.48
698.683	2315.4
698.872	2352.26
699.061	2233.48
699.25	2307.21
699.438	2210.95
699.627	2223.24
699.816	2260.1
700.005	2245.77
700.193	2088.07
700.382	2208.9
700.571	2174.09
700.76	2245.77
700.948	2372.74
701.137	2249.86
701.326	2143.37
701.514	2159.75
701.703	2071.69
701.892	2079.88
702.08	2325.64
702.269	2135.18
702.457	2120.84
702.646	2258.06
702.834	2116.75
703.023	2094.22
703.212	2200.71
703.4	2131.08
703.589	2098.31
703.777	2137.23
703.965	2069.64
704.154	2126.99
704.342	2049.16
704.531	2014.35
704.719	2028.68
704.907	2047.12
705.096	2194.57
705.284	2110.6
705.472	2260.1
705.661	2092.17
705.849	2178.19
706.037	2131.08
706.226	2217.1
706.414	2030.73
706.602	2063.5
706.79	2137.23
706.979	2020.49
707.167	2104.46
707.355	2057.36
707.543	2071.69
707.731	2024.59
707.919	2303.11
708.107	1991.82
708.296	2215.05
708.484	2178.19
708.672	2129.03
708.86	2180.23
709.048	2124.94
709.236	2069.64
709.424	2055.31
709.612	2067.6
709.8	2028.68
709.988	2055.31
710.176	2055.31
710.364	2032.78
710.551	1985.68
710.739	2112.65
710.927	1971.34
711.115	2030.73
711.303	2063.5
711.491	2014.35
711.679	2049.16
711.866	2112.65
712.054	2036.88
712.242	2004.11
712.43	2069.64
712.617	1975.44
712.805	1936.53
712.993	2104.46
713.181	2067.6
713.368	2120.84
713.556	1946.76
713.744	2028.68
713.931	2077.83
714.119	2040.97
714.306	2098.31
714.494	2026.64
714.682	2106.51
714.869	2032.78
715.057	2016.4
715.244	2071.69
715.432	2038.92
715.619	2094.22
715.807	2004.11
715.994	2032.78
716.182	2081.93
716.369	2038.92
716.556	2086.03
716.744	1975.44
716.931	2004.11
717.119	2016.4
717.306	2057.36
717.493	2114.7
717.681	1983.63
717.868	2063.5
718.055	2032.78
718.242	2016.4
718.43	2055.31
718.617	2110.6
718.804	2090.12
718.991	2090.12
719.179	2163.85
719.366	2069.64
719.553	2106.51
719.74	2020.49
719.927	2159.75
720.114	2057.36
720.301	2079.88
720.488	1866.89
720.676	2024.59
720.863	1971.34
721.05	2104.46
721.237	1983.63
721.424	1944.72
721.611	2057.36
721.798	1973.39
721.985	2061.45
722.172	2069.64
722.358	2131.08
722.545	1899.66
722.732	2004.11
722.919	1987.72
723.106	2176.14
723.293	1983.63
723.48	2004.11
723.667	1989.77
723.853	2006.16
724.04	1979.53
724.227	1885.33
724.414	1952.91
724.6	1936.53
724.787	2045.07
724.974	1930.38
725.161	1866.89
725.347	1905.81
725.534	2016.4
725.72	2053.26
725.907	2000.01
726.094	1922.19
726.28	1957
726.467	1891.47
726.653	1948.81
726.84	1963.15
727.027	2034.83
727.213	1916.05
727.4	2034.83
727.586	2012.3
727.773	2024.59
727.959	1944.72
728.145	1993.87
728.332	2071.69
728.518	1887.37
728.705	1946.76
728.891	1940.62
729.077	2077.83
729.264	2016.4
729.45	1959.05
729.636	1899.66
729.823	1907.85
730.009	2024.59
730.195	1950.86
730.382	1989.77
730.568	1932.43
730.754	1946.76
730.94	1940.62
731.126	1975.44
731.313	2045.07
731.499	2016.4
731.685	2000.01
731.871	2016.4
732.057	1938.57
732.243	1942.67
732.429	2022.54
732.615	2020.49
732.801	2045.07
732.987	2016.4
733.173	1877.13
733.359	1969.29
733.545	2004.11
733.731	1938.57
733.917	1987.72
734.103	2045.07
734.289	2020.49
734.475	1873.04
734.661	1957
734.847	1897.61
735.033	1903.76
735.219	2000.01
735.404	2012.3
735.59	1848.46
735.776	1825.93
735.962	1903.76
736.148	1922.19
736.333	1918.09
736.519	1914
736.705	1924.24
736.89	1864.85
737.076	1928.33
737.262	1868.94
737.447	1840.27
737.633	1897.61
737.819	1879.18
738.004	1911.95
738.19	1914
738.375	1963.15
738.561	1930.38
738.747	1905.81
738.932	1766.54
739.118	1827.98
739.303	1830.03
739.489	1893.52
739.674	1774.74
739.859	1848.46
740.045	1844.37
740.23	1850.51
740.416	1875.09
740.601	1850.51
740.786	1840.27
740.972	1825.93
741.157	1848.46
741.342	1852.56
741.528	1731.73
741.713	1684.62
741.898	1840.27
742.084	1717.39
742.269	1780.88
742.454	1774.74
742.639	1741.97
742.824	1703.06
743.01	1774.74
743.195	1825.93
743.38	1709.2
743.565	1684.62
743.75	1774.74
743.935	1717.39
744.12	1776.78
744.305	1676.43
744.49	1713.3
744.675	1737.87
744.86	1748.11
745.045	1676.43
745.23	1782.93
745.415	1565.84
745.6	1698.96
745.785	1627.28
745.97	1678.48
746.155	1574.03
746.34	1633.43
746.525	1606.8
746.71	1641.62
746.895	1481.88
747.079	1621.14
747.264	1569.94
747.449	1598.61
747.634	1608.85
747.819	1612.95
748.003	1635.47
748.188	1586.32
748.373	1416.34
748.557	1522.84
748.742	1449.11
748.927	1488.02
749.111	1549.46
749.296	1477.78
749.481	1516.69
749.665	1553.55
749.85	1473.68
750.034	1414.29
750.219	1514.64
750.404	1426.58
750.588	1406.1
750.773	1279.13
750.957	1373.33
751.141	1252.5
751.326	1385.62
751.51	1465.49
751.695	1324.18
751.879	1307.8
752.064	1365.14
752.248	1332.37
752.432	1283.22
752.617	1397.91
752.801	1369.24
752.985	1305.75
753.17	1277.08
753.354	1211.54
753.538	1324.18
753.722	1266.84
753.907	1324.18
754.091	1285.27
754.275	1234.07
754.459	1234.07
754.643	1186.97
754.828	1098.91
755.012	1170.58
755.196	1191.06
755.38	1209.5
755.564	1219.74
755.748	1229.98
755.932	1205.4
756.116	1158.3
756.3	1184.92
756.484	1127.58
756.668	1076.38
756.852	1107.1
757.036	1092.76
757.22	1078.43
757.404	1098.91
757.588	1094.81
757.772	1037.47
757.956	1062.04
758.14	1086.62
758.323	1103
758.507	1029.27
758.691	1000.6
758.875	1033.37
759.059	1047.71
759.242	1006.75
759.426	986.27
759.61	1010.84
759.794	1002.65
759.977	941.21
760.161	971.93
760.345	875.68
760.528	980.12
760.712	1006.75
760.895	1027.23
761.079	902.3
761.263	939.16
761.446	902.3
761.63	881.82
761.813	1000.6
761.997	818.33
762.18	885.92
762.364	795.81
762.547	781.47
762.731	947.36
762.914	898.2
763.098	865.44
763.281	996.51
763.464	900.25
763.648	955.55
763.831	885.92
764.015	898.2
764.198	924.83
764.381	877.73
764.564	844.96
764.748	849.05
764.931	885.92
765.114	742.56
765.297	875.68
765.481	799.9
765.664	869.53
765.847	844.96
766.03	818.33
766.213	824.48
766.397	767.13
766.58	758.94
766.763	771.23
766.946	771.23
767.129	781.47
767.312	791.71
767.495	744.61
767.678	816.29
767.861	795.81
768.044	760.99
768.227	777.37
768.41	818.33
768.593	838.81
768.776	730.27
768.959	799.9
769.142	818.33
769.324	736.42
769.507	760.99
769.69	791.71
769.873	713.89
770.056	760.99
770.239	701.6
770.421	754.85
770.604	720.03
770.787	685.22
770.97	748.7
771.152	685.22
771.335	767.13
771.518	695.46
771.7	683.17
771.883	705.7
772.066	627.87
772.248	717.98
772.431	627.87
772.613	701.6
772.796	679.07
772.978	668.83
773.161	720.03
773.343	689.31
773.526	644.26
773.708	615.59
773.891	597.15
774.073	662.69
774.256	619.68
774.438	687.26
774.621	509.09
774.803	689.31
774.985	595.11
775.168	599.2
775.35	615.59
775.532	640.16
775.715	562.34
775.897	617.63
776.079	574.63
776.261	603.3
776.444	537.76
776.626	629.92
776.808	529.57
776.99	523.43
777.173	607.39
777.355	556.19
777.537	611.49
777.719	488.61
777.901	533.67
778.083	494.76
778.265	490.66
778.447	617.63
778.629	488.61
778.811	521.38
778.993	545.95
779.175	421.03
779.357	455.84
779.539	492.71
779.721	537.76
779.903	449.7
780.085	490.66
780.267	521.38
780.449	537.76
780.631	558.24
780.812	443.56
780.994	443.56
781.176	443.56
781.358	449.7
781.54	480.42
781.721	418.98
781.903	480.42
782.085	414.88
782.267	482.47
782.448	418.98
782.63	396.45
782.812	474.28
782.993	449.7
783.175	490.66
783.357	423.08
783.538	447.65
783.72	439.46
783.901	406.69
784.083	455.84
784.264	443.56
784.446	300.2
784.627	359.59
784.809	378.02
784.99	382.12
785.172	396.45
785.353	408.74
785.535	373.92
785.716	410.79
785.897	310.44
786.079	283.81
786.26	382.12
786.441	388.26
786.623	408.74
786.804	365.73
786.985	316.58
787.167	292.01
787.348	279.72
787.529	404.64
787.71	406.69
787.891	326.82
788.073	296.1
788.254	373.92
788.435	384.16
788.616	326.82
788.797	341.16
788.978	314.53
789.159	312.49
789.34	259.24
789.522	320.68
789.703	294.05
789.884	294.05
790.065	275.62
790.246	277.67
790.427	308.39
790.607	312.49
790.788	332.97
790.969	263.33
791.15	271.53
791.331	351.4
791.512	267.43
791.693	292.01
791.874	324.77
792.054	332.97
792.235	341.16
792.416	242.85
792.597	259.24
792.778	292.01
792.958	242.85
793.139	238.76
793.32	359.59
793.5	292.01
793.681	259.24
793.862	187.56
794.042	265.38
794.223	279.72
794.404	263.33
794.584	283.81
794.765	283.81
794.945	232.62
795.126	208.04
795.306	234.66
795.487	242.85
795.667	253.09
795.848	228.52
796.028	210.09
796.209	302.25
796.389	238.76
796.57	238.76
796.75	210.09
796.93	214.18
797.111	203.94
797.291	169.13
797.471	212.14
797.652	187.56
797.832	230.57
798.012	242.85
798.192	173.22
798.373	210.09
798.553	201.9
798.733	234.66
798.913	220.33
799.093	218.28
799.274	173.22
799.454	210.09
799.634	218.28
799.814	214.18
799.994	160.94
800.174	277.67
800.354	224.42
800.534	177.32
800.714	124.07
800.894	249
801.074	191.66
801.254	191.66
801.434	177.32
801.614	130.22
801.794	179.37
801.974	804
802.154	152.74
802.334	228.52
802.514	165.03
802.693	201.9
802.873	185.51
803.053	214.18
803.233	203.94
803.413	181.42
803.592	144.55
803.772	132.26
803.952	187.56
804.131	165.03
804.311	122.02
804.491	210.09
804.67	119.98
804.85	169.13
805.03	179.37
805.209	142.5
805.389	201.9
805.568	162.98
805.748	76.97
805.928	144.55
806.107	144.55
806.287	136.36
806.466	173.22
806.646	122.02
806.825	107.69
807.004	220.33
807.184	165.03
807.363	128.17
807.543	154.79
807.722	132.26
807.901	203.94
808.081	144.55
808.26	115.88
808.439	146.6
808.619	56.49
808.798	144.55
808.977	156.84
809.156	191.66
809.336	187.56
809.515	113.83
809.694	181.42
809.873	119.98
810.052	89.26
810.231	148.65
810.411	152.74
810.59	152.74
810.769	136.36
810.948	119.98
811.127	81.07
811.306	136.36
811.485	181.42
811.664	115.88
811.843	113.83
812.022	185.51
812.201	148.65
812.38	62.63
812.559	83.11
812.737	144.55
812.916	89.26
813.095	79.02
813.274	152.74
813.453	134.31
813.632	128.17
813.811	187.56
813.989	105.64
814.168	81.07
814.347	46.25
814.526	144.55
814.704	111.78
814.883	185.51
815.062	29.87
815.24	171.18
815.419	122.02
815.598	138.41
815.776	38.06
815.955	115.88
816.133	17.58
816.312	152.74
816.49	95.4
816.669	83.11
816.847	113.83
817.026	138.41
817.204	179.37
817.383	89.26
817.561	21.67
817.74	158.89
817.918	160.94
818.097	70.83
818.275	56.49
818.453	167.08
818.632	95.4
818.81	87.21
818.988	119.98
819.167	138.41
819.345	95.4
819.523	74.92
819.701	50.35
819.879	148.65
820.058	64.68
820.236	76.97
820.414	117.93
820.592	146.6
820.77	128.17
820.948	93.35
821.127	23.72
821.305	111.78
821.483	117.93
821.661	101.55
821.839	111.78
822.017	107.69
822.195	113.83
822.373	83.11
822.551	70.83
822.729	62.63
822.907	81.07
823.085	144.55
823.262	70.83
823.44	79.02
823.618	29.87
823.796	60.59
823.974	56.49
824.152	15.53
824.329	79.02
824.507	105.64
824.685	42.15
824.863	21.67
825.04	89.26
825.218	5.29
825.396	140.46
825.574	54.44
825.751	83.11
825.929	173.22
826.107	72.87
826.284	134.31
826.462	46.25
826.639	79.02
826.817	50.35
826.994	122.02
827.172	87.21
827.349	38.06
827.527	50.35
827.704	-11.09
827.882	83.11
828.059	68.78
828.237	70.83
828.414	113.83
828.591	56.49
828.769	119.98
828.946	46.25
829.124	81.07
829.301	-13.14
829.478	66.73
829.655	25.77
829.833	44.2
830.01	17.58
830.187	72.87
830.364	64.68
830.542	62.63
830.719	36.01
830.896	74.92
831.073	89.26
831.25	117.93
831.427	70.83
831.604	50.35
831.782	5.29
831.959	136.36
832.136	19.63
832.313	134.31
832.49	9.39
832.667	105.64
832.844	29.87
833.021	72.87
833.198	38.06
833.374	111.78
833.551	136.36
833.728	40.11
833.905	42.15
834.082	-25.43
834.259	54.44
834.436	60.59
834.612	54.44
834.789	89.26
834.966	-0.85
835.143	46.25
835.319	-0.85
835.496	62.63
835.673	72.87
835.85	40.11
836.026	19.63
836.203	89.26
836.38	62.63
836.556	-2.9
836.733	-2.9
836.909	128.17
837.086	107.69
837.262	31.91
837.439	54.44
837.616	50.35
837.792	25.77
837.968	-4.95
838.145	-37.72
838.321	48.3
838.498	52.39
838.674	5.29
838.851	54.44
839.027	36.01
839.203	74.92
839.38	93.35
839.556	-35.67
839.732	105.64
839.909	70.83
840.085	52.39
840.261	58.54
840.437	64.68
840.614	54.44
840.79	50.35
840.966	44.2
841.142	31.91
841.318	9.39
841.494	-41.81
841.671	48.3
841.847	33.96
842.023	13.48
842.199	56.49
842.375	60.59
842.551	42.15
842.727	50.35
842.903	103.59
843.079	76.97
843.255	33.96
843.431	38.06
843.607	103.59
843.783	1.19
843.959	46.25
844.134	-29.52
844.31	107.69
844.486	42.15
844.662	62.63
844.838	29.87
845.013	-9.05
845.189	103.59
845.365	105.64
845.541	56.49
845.716	46.25
845.892	46.25
846.068	-31.57
846.244	-0.85
846.419	50.35
846.595	40.11
846.77	72.87
846.946	68.78
847.122	23.72
847.297	87.21
847.473	99.5
847.648	-7
847.824	17.58
847.999	38.06
848.175	23.72
848.35	13.48
848.526	56.49
848.701	-0.85
848.876	79.02
849.052	42.15
849.227	17.58
849.403	3.24
849.578	-11.09
849.753	44.2
849.929	29.87
850.104	21.67
850.279	85.16
850.454	42.15
850.63	13.48
850.805	79.02
850.98	97.45
851.155	-7
851.33	-0.85
851.505	-2.9
851.681	60.59
851.856	-2.9
852.031	29.87
852.206	-35.67
852.381	29.87
852.556	-19.29
852.731	9.39
852.906	9.39
853.081	-70.48
853.256	79.02
853.431	68.78
853.606	-0.85
853.781	7.34
853.956	29.87
854.131	42.15
854.305	58.54
854.48	33.96
854.655	101.55
854.83	-11.09
855.005	111.78
855.18	27.82
855.354	58.54
855.529	1.19
855.704	48.3
855.879	136.36
856.053	64.68
856.228	50.35
856.403	5.29
856.577	79.02
856.752	29.87
856.926	-15.19
857.101	7.34
857.276	-60.24
857.45	7.34
857.625	9.39
857.799	-56.15
857.974	-27.48
858.148	-50
858.323	74.92
858.497	-35.67
858.672	-19.29
858.846	-25.43
859.02	50.35
859.195	-21.33
859.369	85.16
859.543	1.19
859.718	58.54
859.892	9.39
860.066	-7
860.241	23.72
860.415	33.96
860.589	-7
860.763	54.44
860.938	31.91
861.112	-15.19
861.286	-66.39
861.46	95.4
861.634	23.72
861.808	97.45
861.982	19.63
862.157	-0.85
862.331	-74.58
862.505	-2.9
862.679	-45.91
862.853	17.58
863.027	-60.24
863.201	29.87
863.375	-35.67
863.549	-52.05
863.722	36.01
863.896	72.87
864.07	54.44
864.244	-43.86
864.418	-19.29
864.592	5.29
864.766	54.44
864.939	52.39
865.113	87.21
865.287	50.35
865.461	5.29
865.634	13.48
865.808	38.06
865.982	70.83
866.156	-19.29
866.329	38.06
866.503	7.34
866.676	74.92
866.85	-15.19
867.024	40.11
867.197	64.68
867.371	70.83
867.544	5.29
867.718	-2.9
867.891	64.68
868.065	15.53
868.238	44.2
868.412	115.88
868.585	21.67
868.759	-31.57
868.932	-25.43
869.105	29.87
869.279	7.34
869.452	25.77
869.625	-76.63
869.799	-45.91
869.972	-76.63
870.145	25.77
870.319	15.53
870.492	56.49
870.665	56.49
870.838	31.91
871.011	-52.05
871.185	21.67
871.358	-74.58
871.531	21.67
871.704	-15.19
871.877	-35.67
872.05	-119.64
872.223	-52.05
872.396	38.06
872.569	46.25
872.742	-25.43
872.915	17.58
873.088	36.01
873.261	-58.2
873.434	48.3
873.607	95.4
873.78	52.39
873.953	-64.34
874.126	-23.38
874.299	9.39
874.471	-19.29
874.644	-25.43
874.817	54.44
874.99	1.19
875.163	-23.38
875.335	23.72
875.508	38.06
875.681	40.11
875.853	5.29
876.026	-64.34
876.199	15.53
876.371	72.87
876.544	-0.85
876.717	38.06
876.889	15.53
877.062	54.44
877.234	-35.67
877.407	-17.24
877.579	-21.33
877.752	40.11
877.924	25.77
878.097	25.77
878.269	48.3
878.442	23.72
878.614	3.24
878.786	-19.29
878.959	52.39
879.131	-37.72
879.303	15.53
879.476	-0.85
879.648	38.06
879.82	-64.34
879.993	-66.39
880.165	-2.9
880.337	-33.62
880.509	-27.48
880.681	-19.29
880.854	-11.09
881.026	17.58
881.198	21.67
881.37	-21.33
881.542	-25.43
881.714	46.25
881.886	42.15
882.058	-19.29
882.23	56.49
882.402	-4.95
882.574	7.34
882.746	46.25
882.918	5.29
883.09	50.35
883.262	9.39
883.434	38.06
883.606	36.01
883.778	79.02
883.95	93.35
884.122	21.67
884.293	31.91
884.465	-17.24
884.637	13.48
884.809	-68.44
884.98	-72.53
885.152	-39.76
885.324	33.96
885.496	-25.43
885.667	-27.48
885.839	-37.72
886.011	62.63
886.182	13.48
886.354	-60.24
886.525	-27.48
886.697	-2.9
886.869	-27.48
887.04	-35.67
887.212	-25.43
887.383	105.64
887.555	46.25
887.726	5.29
887.897	-2.9
888.069	13.48
888.24	99.5
888.412	-35.67
888.583	25.77
888.754	54.44
888.926	-19.29
889.097	-35.67
889.268	5.29
889.44	21.67
889.611	-56.15
889.782	-13.14
889.953	42.15
890.125	44.2
890.296	29.87
890.467	-15.19
890.638	36.01
890.809	33.96
890.98	29.87
891.151	54.44
891.323	56.49
891.494	38.06
891.665	-27.48
891.836	38.06
892.007	-11.09
892.178	5.29
892.349	-25.43
892.52	-9.05
892.691	-17.24
892.862	54.44
893.032	-64.34
893.203	-0.85
893.374	-2.9
893.545	105.64
893.716	-52.05
893.887	103.59
894.057	-2.9
894.228	79.02
894.399	40.11
894.57	33.96
894.74	-50
894.911	50.35
895.082	13.48
895.253	-9.05
895.423	5.29
895.594	54.44
895.764	-9.05
895.935	-11.09
896.106	17.58
896.276	-11.09
896.447	-4.95
896.617	40.11
896.788	-13.14
896.958	-47.96
897.129	-13.14
897.299	-2.9
897.47	7.34
897.64	17.58
897.81	83.11
897.981	79.02
898.151	-35.67
898.322	-47.96
898.492	29.87
898.662	-2.9
898.832	42.15
899.003	-52.05
899.173	-11.09
899.343	-19.29
899.513	-52.05
