Data from USB4F104151__149__14-19-24-609.txt Node

Date: Thu Mar 13 14:19:24 EDT 2025
User: louis
Spectrometer: USB4F10415
Trigger mode: 4
Integration Time (sec): 2.000000E-2
Scans to average: 1
Electric dark correction enabled: true
Nonlinearity correction enabled: false
Boxcar width: 0
XAxis mode: Wavelengths
Number of Pixels in Spectrum: 3648
>>>>>Begin Spectral Data<<<<<
178.204	-166.06
178.424	-166.06
178.644	-166.06
178.864	-110.76
179.084	-28.84
179.304	10.07
179.524	3.93
179.744	44.88
179.964	-43.18
180.184	-18.6
180.404	36.69
180.624	-34.99
180.844	40.79
181.064	-24.75
181.283	-20.65
181.503	-30.89
181.723	36.69
181.943	-16.55
182.163	32.6
182.383	36.69
182.602	67.41
182.822	5.97
183.042	1.88
183.262	85.84
183.482	36.69
183.701	22.36
183.921	81.75
184.141	94.04
184.361	61.27
184.58	53.08
184.8	-16.55
185.02	24.4
185.239	40.79
185.459	94.04
185.679	77.65
185.898	51.03
186.118	73.56
186.338	-57.51
186.557	40.79
186.777	10.07
186.997	12.12
187.216	38.74
187.436	85.84
187.655	36.69
187.875	8.02
188.095	28.5
188.314	48.98
188.534	61.27
188.753	-4.27
188.973	32.6
189.192	63.32
189.412	-0.17
189.631	40.79
189.851	14.17
190.07	102.23
190.29	65.36
190.509	1.88
190.729	44.88
190.948	3.93
191.168	126.8
191.387	114.52
191.607	-69.8
191.826	53.08
192.045	30.55
192.265	44.88
192.484	55.12
192.704	104.28
192.923	-20.65
193.142	139.09
193.362	61.27
193.581	63.32
193.8	44.88
194.02	-10.41
194.239	-4.27
194.458	22.36
194.678	22.36
194.897	81.75
195.116	12.12
195.335	55.12
195.555	38.74
195.774	61.27
195.993	57.17
196.212	63.32
196.432	61.27
196.651	63.32
196.87	-2.22
197.089	24.4
197.308	73.56
197.528	-2.22
197.747	-53.42
197.966	26.45
198.185	104.28
198.404	-2.22
198.623	10.07
198.842	36.69
199.062	87.89
199.281	-28.84
199.5	1.88
199.719	8.02
199.938	81.75
200.157	-6.31
200.376	44.88
200.595	143.19
200.814	57.17
201.033	46.93
201.252	91.99
201.471	91.99
201.69	87.89
201.909	28.5
202.128	22.36
202.347	8.02
202.566	69.46
202.785	-34.99
203.004	-0.17
203.223	61.27
203.442	53.08
203.661	104.28
203.879	69.46
204.098	75.6
204.317	-18.6
204.536	79.7
204.755	-32.94
204.974	69.46
205.193	28.5
205.411	96.08
205.63	32.6
205.849	-12.46
206.068	65.36
206.287	30.55
206.505	77.65
206.724	36.69
206.943	10.07
207.162	30.55
207.381	87.89
207.599	89.94
207.818	65.36
208.037	16.21
208.255	87.89
208.474	3.93
208.693	18.26
208.911	79.7
209.13	20.31
209.349	26.45
209.567	26.45
209.786	24.4
210.005	61.27
210.223	-2.22
210.442	5.97
210.661	20.31
210.879	22.36
211.098	36.69
211.316	67.41
211.535	57.17
211.753	-24.75
211.972	-8.36
212.191	3.93
212.409	5.97
212.628	57.17
212.846	10.07
213.065	63.32
213.283	143.19
213.502	-32.94
213.72	36.69
213.938	69.46
214.157	42.84
214.375	-4.27
214.594	18.26
214.812	16.21
215.031	85.84
215.249	28.5
215.467	69.46
215.686	-2.22
215.904	53.08
216.122	69.46
216.341	69.46
216.559	-24.75
216.778	79.7
216.996	55.12
217.214	65.36
217.432	71.51
217.651	46.93
217.869	12.12
218.087	102.23
218.306	65.36
218.524	-30.89
218.742	32.6
218.96	98.13
219.179	28.5
219.397	-0.17
219.615	106.32
219.833	-24.75
220.051	20.31
220.27	34.64
220.488	38.74
220.706	24.4
220.924	83.8
221.142	63.32
221.36	55.12
221.578	3.93
221.796	57.17
222.015	81.75
222.233	10.07
222.451	65.36
222.669	12.12
222.887	57.17
223.105	28.5
223.323	5.97
223.541	51.03
223.759	85.84
223.977	22.36
224.195	67.41
224.413	116.56
224.631	-0.17
224.849	12.12
225.067	67.41
225.285	-37.03
225.503	53.08
225.721	-8.36
225.939	102.23
226.157	22.36
226.375	112.47
226.592	36.69
226.81	81.75
227.028	65.36
227.246	22.36
227.464	20.31
227.682	85.84
227.9	24.4
228.117	-41.13
228.335	-20.65
228.553	89.94
228.771	94.04
228.989	24.4
229.206	69.46
229.424	-26.79
229.642	12.12
229.86	8.02
230.077	32.6
230.295	-47.27
230.513	94.04
230.731	3.93
230.948	57.17
231.166	65.36
231.384	-43.18
231.601	38.74
231.819	83.8
232.037	40.79
232.254	12.12
232.472	22.36
232.689	143.19
232.907	159.57
233.125	14.17
233.342	73.56
233.56	-39.08
233.777	12.12
233.995	-0.17
234.213	69.46
234.43	51.03
234.648	44.88
234.865	36.69
235.083	-45.23
235.3	32.6
235.518	24.4
235.735	100.18
235.953	118.61
236.17	-28.84
236.388	59.22
236.605	102.23
236.822	98.13
237.04	79.7
237.257	46.93
237.475	-16.55
237.692	-10.41
237.909	10.07
238.127	20.31
238.344	30.55
238.562	32.6
238.779	38.74
238.996	12.12
239.214	-4.27
239.431	28.5
239.648	-10.41
239.865	53.08
240.083	28.5
240.3	10.07
240.517	8.02
240.735	12.12
240.952	63.32
241.169	104.28
241.386	57.17
241.603	36.69
241.821	12.12
242.038	102.23
242.255	44.88
242.472	3.93
242.689	63.32
242.907	63.32
243.124	44.88
243.341	79.7
243.558	46.93
243.775	-8.36
243.992	-4.27
244.209	-0.17
244.426	67.41
244.643	28.5
244.86	32.6
245.078	83.8
245.295	102.23
245.512	46.93
245.729	5.97
245.946	63.32
246.163	-10.41
246.38	-24.75
246.597	14.17
246.814	55.12
247.031	75.6
247.248	53.08
247.464	-20.65
247.681	110.42
247.898	48.98
248.115	32.6
248.332	18.26
248.549	94.04
248.766	34.64
248.983	63.32
249.2	-10.41
249.417	89.94
249.633	20.31
249.85	87.89
250.067	20.31
250.284	48.98
250.501	28.5
250.717	120.66
250.934	-34.99
251.151	42.84
251.368	8.02
251.585	65.36
251.801	-39.08
252.018	-34.99
252.235	26.45
252.451	24.4
252.668	22.36
252.885	22.36
253.102	-32.94
253.318	61.27
253.535	-24.75
253.752	81.75
253.968	51.03
254.185	16.21
254.401	-10.41
254.618	65.36
254.835	108.37
255.051	61.27
255.268	40.79
255.484	63.32
255.701	63.32
255.917	-37.03
256.134	28.5
256.351	122.71
256.567	38.74
256.784	28.5
257	-34.99
257.217	81.75
257.433	8.02
257.65	32.6
257.866	67.41
258.082	12.12
258.299	32.6
258.515	-14.51
258.732	-10.41
258.948	-0.17
259.165	-4.27
259.381	20.31
259.597	102.23
259.814	-26.79
260.03	-43.18
260.246	-10.41
260.463	22.36
260.679	5.97
260.895	12.12
261.112	-4.27
261.328	61.27
261.544	79.7
261.761	114.52
261.977	63.32
262.193	-45.23
262.409	28.5
262.626	22.36
262.842	-16.55
263.058	-45.23
263.274	38.74
263.49	63.32
263.707	85.84
263.923	10.07
264.139	-37.03
264.355	32.6
264.571	94.04
264.787	46.93
265.004	98.13
265.22	-12.46
265.436	-20.65
265.652	53.08
265.868	1.88
266.084	-8.36
266.3	65.36
266.516	22.36
266.732	79.7
266.948	16.21
267.164	-43.18
267.38	71.51
267.596	10.07
267.812	24.4
268.028	77.65
268.244	8.02
268.46	30.55
268.676	122.71
268.892	69.46
269.108	-12.46
269.324	-2.22
269.54	36.69
269.756	28.5
269.972	-12.46
270.188	-16.55
270.403	-20.65
270.619	46.93
270.835	28.5
271.051	71.51
271.267	38.74
271.483	116.56
271.698	81.75
271.914	83.8
272.13	-20.65
272.346	3.93
272.562	-28.84
272.777	63.32
272.993	-37.03
273.209	81.75
273.425	87.89
273.64	16.21
273.856	20.31
274.072	22.36
274.287	-4.27
274.503	83.8
274.719	-4.27
274.934	57.17
275.15	-32.94
275.366	61.27
275.581	38.74
275.797	20.31
276.012	14.17
276.228	-45.23
276.444	69.46
276.659	53.08
276.875	32.6
277.09	24.4
277.306	-14.51
277.521	44.88
277.737	36.69
277.952	-10.41
278.168	100.18
278.383	87.89
278.599	102.23
278.814	75.6
279.03	24.4
279.245	69.46
279.461	61.27
279.676	126.8
279.892	-20.65
280.107	57.17
280.322	91.99
280.538	42.84
280.753	-10.41
280.969	75.6
281.184	87.89
281.399	-41.13
281.615	77.65
281.83	73.56
282.045	32.6
282.26	40.79
282.476	20.31
282.691	63.32
282.906	77.65
283.122	98.13
283.337	48.98
283.552	44.88
283.767	20.31
283.983	55.12
284.198	12.12
284.413	12.12
284.628	3.93
284.843	44.88
285.058	46.93
285.274	102.23
285.489	71.51
285.704	69.46
285.919	26.45
286.134	5.97
286.349	79.7
286.564	46.93
286.779	96.08
286.995	12.12
287.21	-22.7
287.425	24.4
287.64	22.36
287.855	12.12
288.07	55.12
288.285	96.08
288.5	36.69
288.715	20.31
288.93	20.31
289.145	67.41
289.36	120.66
289.575	147.28
289.79	71.51
290.004	44.88
290.219	69.46
290.434	-0.17
290.649	-8.36
290.864	137.04
291.079	-26.79
291.294	77.65
291.509	53.08
291.724	5.97
291.938	12.12
292.153	36.69
292.368	-8.36
292.583	30.55
292.798	91.99
293.012	-30.89
293.227	32.6
293.442	-49.32
293.657	114.52
293.871	94.04
294.086	36.69
294.301	89.94
294.516	-6.31
294.73	120.66
294.945	-16.55
295.16	48.98
295.374	55.12
295.589	81.75
295.804	48.98
296.018	3.93
296.233	55.12
296.447	98.13
296.662	30.55
296.877	151.38
297.091	46.93
297.306	44.88
297.52	53.08
297.735	104.28
297.949	55.12
298.164	61.27
298.378	69.46
298.593	22.36
298.807	-0.17
299.022	30.55
299.236	104.28
299.451	69.46
299.665	65.36
299.88	-4.27
300.094	26.45
300.309	102.23
300.523	-6.31
300.737	44.88
300.952	63.32
301.166	89.94
301.381	-28.84
301.595	-8.36
301.809	22.36
302.024	53.08
302.238	-24.75
302.452	73.56
302.667	63.32
302.881	77.65
303.095	55.12
303.309	57.17
303.524	20.31
303.738	40.79
303.952	-77.99
304.166	77.65
304.381	40.79
304.595	44.88
304.809	32.6
305.023	75.6
305.237	61.27
305.452	36.69
305.666	69.46
305.88	22.36
306.094	89.94
306.308	73.56
306.522	44.88
306.736	94.04
306.95	48.98
307.164	79.7
307.379	42.84
307.593	120.66
307.807	61.27
308.021	71.51
308.235	77.65
308.449	30.55
308.663	65.36
308.877	48.98
309.091	44.88
309.305	98.13
309.519	61.27
309.733	128.85
309.947	-55.47
310.161	102.23
310.374	22.36
310.588	53.08
310.802	83.8
311.016	38.74
311.23	59.22
311.444	30.55
311.658	1.88
311.872	-37.03
312.085	98.13
312.299	46.93
312.513	118.61
312.727	57.17
312.941	53.08
313.154	32.6
313.368	48.98
313.582	120.66
313.796	24.4
314.009	94.04
314.223	5.97
314.437	44.88
314.651	-8.36
314.864	28.5
315.078	48.98
315.292	14.17
315.505	12.12
315.719	46.93
315.933	28.5
316.146	14.17
316.36	40.79
316.573	139.09
316.787	94.04
317.001	-12.46
317.214	-20.65
317.428	55.12
317.641	96.08
317.855	12.12
318.068	24.4
318.282	38.74
318.495	51.03
318.709	20.31
318.922	-8.36
319.136	102.23
319.349	55.12
319.563	32.6
319.776	51.03
319.99	22.36
320.203	135
320.417	71.51
320.63	61.27
320.843	77.65
321.057	40.79
321.27	69.46
321.483	65.36
321.697	-0.17
321.91	18.26
322.124	44.88
322.337	59.22
322.55	53.08
322.763	53.08
322.977	55.12
323.19	28.5
323.403	77.65
323.617	-41.13
323.83	61.27
324.043	46.93
324.256	28.5
324.469	65.36
324.683	87.89
324.896	18.26
325.109	73.56
325.322	-8.36
325.535	102.23
325.748	-16.55
325.962	104.28
326.175	110.42
326.388	-24.75
326.601	81.75
326.814	44.88
327.027	53.08
327.24	104.28
327.453	102.23
327.666	61.27
327.879	24.4
328.092	38.74
328.305	3.93
328.518	83.8
328.731	-12.46
328.944	85.84
329.157	61.27
329.37	-4.27
329.583	73.56
329.796	139.09
330.009	1.88
330.222	51.03
330.435	28.5
330.648	22.36
330.861	69.46
331.073	24.4
331.286	53.08
331.499	-4.27
331.712	53.08
331.925	20.31
332.138	14.17
332.35	149.33
332.563	22.36
332.776	44.88
332.989	-53.42
333.202	-4.27
333.414	16.21
333.627	8.02
333.84	73.56
334.053	63.32
334.265	38.74
334.478	20.31
334.691	55.12
334.903	51.03
335.116	26.45
335.329	42.84
335.541	48.98
335.754	96.08
335.966	40.79
336.179	20.31
336.392	26.45
336.604	20.31
336.817	44.88
337.029	53.08
337.242	20.31
337.454	34.64
337.667	65.36
337.88	135
338.092	42.84
338.305	77.65
338.517	55.12
338.729	16.21
338.942	89.94
339.154	69.46
339.367	12.12
339.579	38.74
339.792	-49.32
340.004	85.84
340.217	85.84
340.429	132.95
340.641	48.98
340.854	-41.13
341.066	16.21
341.278	96.08
341.491	79.7
341.703	12.12
341.915	16.21
342.128	26.45
342.34	63.32
342.552	22.36
342.764	28.5
342.977	69.46
343.189	137.04
343.401	94.04
343.613	-0.17
343.826	36.69
344.038	48.98
344.25	28.5
344.462	79.7
344.674	44.88
344.886	73.56
345.099	36.69
345.311	36.69
345.523	-14.51
345.735	20.31
345.947	16.21
346.159	73.56
346.371	22.36
346.583	8.02
346.795	44.88
347.007	24.4
347.219	46.93
347.431	53.08
347.643	102.23
347.855	-32.94
348.067	96.08
348.279	8.02
348.491	63.32
348.703	12.12
348.915	-94.38
349.127	81.75
349.339	85.84
349.551	3.93
349.763	79.7
349.975	3.93
350.187	77.65
350.399	126.8
350.61	26.45
350.822	20.31
351.034	77.65
351.246	28.5
351.458	63.32
351.669	-2.22
351.881	63.32
352.093	75.6
352.305	77.65
352.517	59.22
352.728	135
352.94	3.93
353.152	71.51
353.363	3.93
353.575	28.5
353.787	57.17
353.999	69.46
354.21	100.18
354.422	14.17
354.633	28.5
354.845	38.74
355.057	71.51
355.268	28.5
355.48	73.56
355.692	5.97
355.903	24.4
356.115	-2.22
356.326	-8.36
356.538	135
356.749	8.02
356.961	126.8
357.172	63.32
357.384	46.93
357.595	71.51
357.807	36.69
358.018	22.36
358.23	89.94
358.441	112.47
358.653	-8.36
358.864	-2.22
359.075	16.21
359.287	36.69
359.498	139.09
359.709	63.32
359.921	61.27
360.132	-0.17
360.344	94.04
360.555	-49.32
360.766	53.08
360.977	12.12
361.189	16.21
361.4	75.6
361.611	24.4
361.823	110.42
362.034	65.36
362.245	-14.51
362.456	-16.55
362.667	40.79
362.879	10.07
363.09	5.97
363.301	48.98
363.512	79.7
363.723	69.46
363.935	-6.31
364.146	63.32
364.357	91.99
364.568	112.47
364.779	30.55
364.99	104.28
365.201	-43.18
365.412	28.5
365.623	48.98
365.834	98.13
366.045	163.67
366.256	69.46
366.467	38.74
366.678	59.22
366.889	3.93
367.1	48.98
367.311	16.21
367.522	20.31
367.733	81.75
367.944	198.48
368.155	-4.27
368.366	44.88
368.577	3.93
368.788	73.56
368.999	16.21
369.209	51.03
369.42	-10.41
369.631	122.71
369.842	-0.17
370.053	51.03
370.264	67.41
370.474	18.26
370.685	96.08
370.896	5.97
371.107	81.75
371.317	87.89
371.528	28.5
371.739	77.65
371.95	75.6
372.16	48.98
372.371	71.51
372.582	53.08
372.792	40.79
373.003	61.27
373.214	-10.41
373.424	28.5
373.635	75.6
373.846	139.09
374.056	77.65
374.267	36.69
374.477	-0.17
374.688	12.12
374.898	34.64
375.109	102.23
375.319	61.27
375.53	38.74
375.74	38.74
375.951	40.79
376.161	-4.27
376.372	163.67
376.582	12.12
376.793	94.04
377.003	-12.46
377.214	110.42
377.424	106.32
377.635	106.32
377.845	85.84
378.055	36.69
378.266	28.5
378.476	91.99
378.686	30.55
378.897	-12.46
379.107	87.89
379.317	104.28
379.528	75.6
379.738	118.61
379.948	3.93
380.158	91.99
380.369	5.97
380.579	69.46
380.789	38.74
380.999	36.69
381.21	69.46
381.42	118.61
381.63	22.36
381.84	53.08
382.05	46.93
382.261	96.08
382.471	110.42
382.681	87.89
382.891	110.42
383.101	83.8
383.311	12.12
383.521	30.55
383.731	28.5
383.941	85.84
384.151	143.19
384.361	55.12
384.571	96.08
384.781	79.7
384.991	40.79
385.201	118.61
385.411	-0.17
385.621	139.09
385.831	75.6
386.041	12.12
386.251	38.74
386.461	57.17
386.671	94.04
386.881	65.36
387.091	28.5
387.301	98.13
387.511	5.97
387.72	147.28
387.93	83.8
388.14	63.32
388.35	87.89
388.56	94.04
388.769	89.94
388.979	135
389.189	77.65
389.399	69.46
389.609	53.08
389.818	135
390.028	57.17
390.238	122.71
390.447	26.45
390.657	65.36
390.867	69.46
391.076	18.26
391.286	155.47
391.496	135
391.705	-26.79
391.915	89.94
392.125	71.51
392.334	63.32
392.544	110.42
392.753	53.08
392.963	98.13
393.172	112.47
393.382	28.5
393.591	79.7
393.801	130.9
394.01	67.41
394.22	124.76
394.429	108.37
394.639	71.51
394.848	42.84
395.058	53.08
395.267	71.51
395.477	132.95
395.686	-10.41
395.895	83.8
396.105	171.86
396.314	89.94
396.524	126.8
396.733	53.08
396.942	130.9
397.152	79.7
397.361	151.38
397.57	110.42
397.78	48.98
397.989	137.04
398.198	184.15
398.407	61.27
398.617	71.51
398.826	46.93
399.035	81.75
399.244	118.61
399.453	112.47
399.663	167.76
399.872	135
400.081	94.04
400.29	212.82
400.499	55.12
400.708	94.04
400.917	126.8
401.127	57.17
401.336	135
401.545	151.38
401.754	147.28
401.963	128.85
402.172	143.19
402.381	75.6
402.59	200.53
402.799	137.04
403.008	98.13
403.217	106.32
403.426	135
403.635	130.9
403.844	169.81
404.053	210.77
404.262	157.52
404.471	194.39
404.68	184.15
404.888	110.42
405.097	65.36
405.306	178
405.515	239.44
405.724	128.85
405.933	143.19
406.142	202.58
406.35	253.78
406.559	233.3
406.768	188.24
406.977	225.11
407.185	175.95
407.394	188.24
407.603	202.58
407.812	247.63
408.02	245.59
408.229	259.92
408.438	264.02
408.646	268.11
408.855	249.68
409.064	315.22
409.272	257.87
409.481	325.46
409.69	286.54
409.898	227.15
410.107	315.22
410.315	325.46
410.524	311.12
410.733	380.75
410.941	315.22
411.15	415.57
411.358	350.03
411.567	446.29
411.775	405.33
411.984	481.1
412.192	513.87
412.401	499.53
412.609	505.68
412.818	491.34
413.026	520.01
413.234	540.49
413.443	446.29
413.651	583.5
413.86	577.36
414.068	644.94
414.276	585.55
414.485	636.75
414.693	741.19
414.901	763.72
415.11	771.91
415.318	757.58
415.526	761.67
415.734	714.57
415.943	886.6
416.151	765.77
416.359	864.07
416.567	808.78
416.776	880.46
416.984	927.56
417.192	989
417.4	1050.44
417.608	1044.29
417.817	1089.35
418.025	1122.12
418.233	1177.41
418.441	1199.94
418.649	1283.91
418.857	1290.05
419.065	1343.3
419.273	1333.06
419.481	1419.07
419.689	1472.32
419.897	1564.48
420.105	1638.2
420.313	1593.15
420.521	1668.92
420.729	1793.85
420.937	1666.88
421.145	1810.23
421.353	1832.76
421.561	1990.45
421.769	2017.08
421.977	2068.28
422.185	2096.95
422.393	2279.22
422.601	2436.91
422.809	2346.8
423.017	2408.24
423.224	2469.68
423.432	2588.46
423.64	2455.34
423.848	2758.44
424.056	2723.63
424.263	2936.62
424.471	2912.04
424.679	2989.86
424.887	3075.88
425.094	3243.81
425.302	3211.04
425.51	3475.23
425.718	3512.1
425.925	3567.39
426.133	3665.69
426.341	3827.48
426.548	4013.85
426.756	4032.28
426.964	4026.14
427.171	4357.91
427.379	4341.52
427.586	4488.98
427.794	4624.14
428.001	4894.47
428.209	5129.99
428.417	5031.69
428.624	5381.89
428.832	5267.2
429.039	5295.88
429.247	5156.61
429.454	5832.44
429.662	6229.75
429.869	5750.53
430.076	6196.98
430.284	5955.32
430.491	6330.1
430.699	6532.85
430.906	6504.18
431.114	6786.8
431.321	6821.61
431.528	7075.56
431.736	7530.21
431.943	7735.01
432.15	7587.55
432.358	7790.3
432.565	8068.83
432.772	8163.03
432.979	8572.63
433.187	8515.28
433.394	8634.07
433.601	9256.65
433.808	9277.13
434.016	9207.5
434.223	9443.01
434.43	10227.39
434.637	9868.99
434.844	10679.99
435.052	10677.94
435.259	10802.86
435.466	10700.47
435.673	10833.58
435.88	11392.68
436.087	12164.76
436.294	11818.66
436.501	11837.09
436.708	12068.51
436.915	12283.55
437.122	13053.58
437.329	12963.47
437.537	13393.54
437.743	13446.79
437.95	13311.63
438.157	14237.31
438.364	14610.04
438.571	14341.75
438.778	14491.26
438.985	15937.12
439.192	15210.09
439.399	15640.17
439.606	15433.32
439.813	16186.97
440.02	17116.75
440.227	17083.98
440.433	16543.32
440.64	17174.1
440.847	16981.59
441.054	17645.13
441.261	18853.43
441.467	18533.95
441.674	18914.87
441.881	19863.08
442.088	19340.85
442.294	19387.95
442.501	19891.75
442.708	20313.63
442.914	21218.83
443.121	22001.16
443.328	21124.63
443.534	22726.14
443.741	22089.22
443.948	21952.01
444.154	23178.74
444.361	23274.99
444.568	23381.49
444.774	23186.93
444.981	23791.08
445.187	24561.12
445.394	25327.06
445.6	24905.18
445.807	27395.51
446.013	26219.97
446.22	26791.36
446.426	27628.98
446.633	27758
446.839	29080.99
447.046	27577.78
447.252	29095.32
447.459	29095.32
447.665	29019.55
447.871	30252.42
448.078	31749.49
448.284	30154.12
448.491	30696.83
448.697	32228.71
448.903	32845.15
449.11	33103.2
449.316	32347.5
449.522	32980.32
449.728	33619.28
449.935	33830.23
450.141	34188.62
450.347	34925.89
450.553	33860.94
450.76	34108.75
450.966	35396.92
451.172	34768.19
451.378	35538.23
451.584	35302.71
451.791	35450.17
451.997	35833.14
452.203	36855.07
452.409	36363.56
452.615	36152.62
452.821	34731.33
453.027	34575.69
453.233	36574.5
453.44	34940.22
453.646	35099.97
453.852	35294.52
454.058	35878.19
454.264	34907.46
454.47	35814.71
454.676	34755.91
454.882	36162.86
455.088	33043.81
455.294	33365.34
455.5	34180.43
455.705	34331.98
455.911	32920.93
456.117	32537.96
456.323	31675.76
456.529	30039.43
456.735	31329.66
456.941	30731.65
457.147	30002.57
457.352	29668.75
457.558	29138.33
457.764	28872.09
457.97	28480.93
458.176	28249.51
458.381	28104.1
458.587	26785.21
458.793	26625.47
458.999	25404.88
459.204	27157.94
459.41	26394.05
459.616	24321.51
459.821	24393.19
460.027	24485.34
460.233	23985.64
460.438	22695.42
460.644	23268.85
460.85	22130.18
461.055	21552.65
461.261	21548.56
461.466	20291.1
461.672	19260.98
461.878	21048.85
462.083	19330.61
462.289	19033.65
462.494	18988.6
462.7	17864.26
462.905	17405.52
463.111	18286.14
463.316	18210.37
463.522	17952.32
463.727	17722.95
463.932	17849.92
464.138	17524.3
464.343	17780.29
464.549	17165.9
464.754	17903.17
464.959	17684.04
465.165	17432.14
465.37	16877.14
465.575	16404.06
465.781	16883.28
465.986	16961.11
466.191	16367.2
466.397	16082.53
466.602	15423.08
466.807	15980.13
467.012	15752.8
467.218	15924.83
467.423	15597.16
467.628	15750.76
467.833	16416.35
468.038	15992.42
468.244	15275.63
468.449	15986.27
468.654	15292.01
468.859	15355.5
469.064	15240.81
469.269	14730.87
469.474	14651
469.679	15081.07
469.885	14593.65
470.09	14937.71
470.295	14409.34
470.5	14433.91
470.705	14206.59
470.91	13971.07
471.115	13739.65
471.32	14245.5
471.525	14114.43
471.73	13745.8
471.935	13774.47
472.139	13373.07
472.344	13194.89
472.549	13309.58
472.754	13366.92
472.959	12770.96
473.164	12349.08
473.369	12433.05
473.574	12965.52
473.778	12684.95
473.983	12543.64
474.188	12347.03
474.393	11990.69
474.598	12074.65
474.802	11959.97
475.007	11976.35
475.212	11785.89
475.417	11425.45
475.621	11566.76
475.826	11626.15
476.031	11241.13
476.235	11187.88
476.44	11318.95
476.645	10913.45
476.849	10989.23
477.054	10866.35
477.259	10809.01
477.463	10489.53
477.668	10448.57
477.872	10626.74
478.077	10278.58
478.282	10260.15
478.486	9950.91
478.691	9959.1
478.895	9756.35
479.1	9944.77
479.304	9938.62
479.509	9596.61
479.713	9842.37
479.918	9592.51
480.122	9479.88
480.326	9596.61
480.531	9539.27
480.735	9391.81
480.94	9289.42
481.144	9742.02
481.348	9342.66
481.553	9385.67
481.757	9170.63
481.961	9330.37
482.166	9449.16
482.37	9211.59
482.574	9031.37
482.778	9098.95
482.983	9363.14
483.187	9207.5
483.391	9135.82
483.595	9031.37
483.8	8965.84
484.004	9197.26
484.208	9164.49
484.412	9238.22
484.616	9238.22
484.821	9008.84
485.025	9107.15
485.229	9363.14
485.433	9131.72
485.637	9135.82
485.841	9203.4
486.045	9258.7
486.249	9062.09
486.453	8945.36
486.657	9074.38
486.861	9137.87
487.065	8828.62
487.269	9033.42
487.473	8933.07
487.677	9256.65
487.881	9203.4
488.085	9150.15
488.289	9150.15
488.493	9084.62
488.697	9187.02
488.901	9211.59
489.105	9195.21
489.309	9137.87
489.512	9117.39
489.716	9414.34
489.92	9170.63
490.124	9086.67
490.328	9227.98
490.531	9363.14
490.735	9344.71
490.939	9270.98
491.143	9408.2
491.346	9397.96
491.55	9512.64
491.754	9397.96
491.958	9305.8
492.161	9471.68
492.365	9354.95
492.569	9481.92
492.772	9547.46
492.976	9678.53
493.18	9758.4
493.383	9901.76
493.587	9850.56
493.79	9823.94
493.994	9795.26
494.197	10145.47
494.401	10151.61
494.605	10053.31
494.808	10391.22
495.012	10237.63
495.215	10215.1
495.419	10423.99
495.622	10268.34
495.825	10417.85
496.029	10604.21
496.232	10679.99
496.436	10688.18
496.639	10903.21
496.843	11001.52
497.046	11146.92
497.249	11224.75
497.453	11206.31
497.656	11302.57
497.859	11267.75
498.063	11554.47
498.266	11703.97
498.469	11835.04
498.673	11916.96
498.876	12017.31
499.079	12138.14
499.282	12072.61
499.485	12299.93
499.689	12218.01
499.892	12560.02
500.095	12336.79
500.298	12889.74
500.501	12693.14
500.705	13137.55
500.908	13221.52
501.111	13387.4
501.314	13522.57
501.517	13723.27
501.72	13815.43
501.923	13944.45
502.126	13864.58
502.329	14225.02
502.532	14237.31
502.735	14481.02
502.938	14620.28
503.141	14737.01
503.344	15017.58
503.547	15072.88
503.75	15154.8
503.953	15597.16
504.156	15382.12
504.359	15648.36
504.562	15883.87
504.765	16399.96
504.968	16445.02
505.17	16524.89
505.373	16361.05
505.576	16672.34
505.779	17012.31
505.982	17073.74
506.185	17360.46
506.387	17514.06
506.59	17362.51
506.793	17956.42
506.996	18265.66
507.198	18437.69
507.401	18273.85
507.604	18488.89
507.807	18814.52
508.009	19115.57
508.212	19158.58
508.415	19172.91
508.617	19551.79
508.82	19641.9
509.022	19420.72
509.225	19869.22
509.428	19977.76
509.63	20203.04
509.833	20377.12
510.035	21093.91
510.238	20778.52
510.44	21300.75
510.643	21276.18
510.845	21523.98
511.048	21653
511.25	22011.4
511.453	22013.45
511.655	22808.06
511.858	22539.77
512.06	22703.61
512.262	23021.05
512.465	23084.53
512.667	23516.65
512.87	23447.02
513.072	23672.3
513.274	23952.87
513.477	24274.4
513.679	24405.47
513.881	24868.31
514.084	25073.11
514.286	25165.27
514.488	25202.13
514.69	25845.19
514.893	26025.42
515.095	26021.32
515.297	26133.96
515.499	26590.66
515.701	26670.53
515.904	26942.91
516.106	27258.29
516.308	27452.85
516.51	27690.41
516.712	27549.1
516.914	27807.15
517.116	28353.96
517.318	28657.06
517.52	28646.82
517.722	28663.2
517.925	29349.27
518.127	29722
518.329	29666.7
518.531	29498.77
518.733	30049.67
518.935	30133.64
519.136	30287.24
519.338	30522.76
519.54	31118.71
519.742	31266.17
519.944	31208.83
520.146	32128.36
520.348	32337.26
520.55	32308.58
520.752	32150.89
520.954	32826.72
521.155	32560.48
521.357	33023.33
521.559	33498.45
521.761	33942.86
521.963	33953.1
522.164	33707.35
522.366	33940.82
522.568	34344.27
522.77	34542.92
522.971	35167.55
523.173	34522.44
523.375	35398.97
523.576	35038.53
523.778	35136.83
523.98	35726.64
524.181	35812.66
524.383	35697.97
524.584	36232.49
524.786	36234.54
524.988	36066.61
525.189	36871.46
525.391	36797.73
525.592	37055.78
525.794	37154.08
525.995	37324.06
526.197	37516.57
526.398	37395.74
526.6	37446.94
526.801	37887.25
527.003	38241.55
527.204	37917.97
527.406	38573.32
527.607	38227.21
527.808	38167.82
528.01	38096.14
528.211	38393.1
528.412	38984.96
528.614	39052.55
528.815	38843.65
529.016	39384.32
529.218	38817.03
529.419	39247.1
529.62	39283.97
529.822	39111.94
530.023	39148.8
530.224	39363.84
530.425	39619.83
530.626	38849.8
530.828	38991.11
531.029	40086.77
531.23	39759.09
531.431	39806.2
531.632	39542.01
531.833	39945.46
532.035	39984.37
532.236	39927.03
532.437	40156.4
532.638	39818.49
532.839	39996.66
533.04	40226.03
533.241	39847.16
533.442	40486.12
533.643	40023.28
533.844	39953.65
534.045	40512.75
534.246	40058.1
534.447	40168.69
534.648	40277.23
534.849	40379.63
535.05	40037.62
535.251	39920.88
535.451	39957.75
535.652	40256.75
535.853	40121.59
536.054	40054
536.255	40426.73
536.456	39568.63
536.657	40793.32
536.857	39914.74
537.058	40097.01
537.259	40379.63
537.46	40705.26
537.66	40322.29
537.861	40125.68
538.062	40250.61
538.263	40402.16
538.463	40223.98
538.664	39935.22
538.865	40189.17
539.065	40434.92
539.266	40025.33
539.466	40527.08
539.667	39681.27
539.868	40166.64
540.068	39998.71
540.269	39877.88
540.469	40314.09
540.67	39750.9
540.87	39959.8
541.071	40109.3
541.271	40013.04
541.472	40086.77
541.672	39478.52
541.873	39918.84
542.073	39382.27
542.274	40002.8
542.474	39615.74
542.675	39406.84
542.875	39910.64
543.075	39548.15
543.276	39251.2
543.476	40172.78
543.676	39519.48
543.877	39910.64
544.077	39576.83
544.277	39793.91
544.478	39673.08
544.678	39965.94
544.878	39714.04
545.078	39437.56
545.279	39269.63
545.479	39539.96
545.679	39939.32
545.879	39412.99
546.079	39550.2
546.28	39394.56
546.48	39279.87
546.68	39795.96
546.88	39496.95
547.08	39701.75
547.28	39851.25
547.48	39290.11
547.68	39578.87
547.88	39283.97
548.081	39677.18
548.281	39300.35
548.481	39412.99
548.681	39601.4
548.881	39398.65
549.081	39521.53
549.28	39349.5
549.48	39511.29
549.68	39447.8
549.88	39617.78
550.08	39130.37
550.28	39429.37
550.48	38843.65
550.68	39466.24
550.88	39517.43
551.08	39105.79
551.279	38911.24
551.479	39109.89
551.679	39083.26
551.879	39552.25
552.079	39232.77
552.278	39077.12
552.478	39195.9
552.678	39290.11
552.878	38993.15
553.077	38907.14
553.277	38462.73
553.477	39167.23
553.676	38843.65
553.876	38950.15
554.076	38573.32
554.275	38614.28
554.475	38399.24
554.674	38550.79
554.874	38825.22
555.074	38685.96
555.273	38694.15
555.473	38782.21
555.672	38567.18
555.872	38733.06
556.071	38423.82
556.271	38788.36
556.47	38683.91
556.67	38188.3
556.869	38247.69
557.068	38389
557.268	38239.5
557.467	38331.66
557.667	38536.46
557.866	38561.03
558.065	38376.72
558.265	38057.23
558.464	37641.49
558.663	38274.32
558.863	37637.4
559.062	38403.34
559.261	37637.4
559.461	38288.65
559.66	37332.25
559.859	37672.21
560.058	37385.5
560.258	37838.1
560.457	37405.98
560.656	38182.16
560.855	37692.69
561.054	37524.76
561.253	37262.62
561.453	37575.96
561.652	37362.97
561.851	37268.76
562.05	37195.04
562.249	37135.65
562.448	37313.82
562.647	37252.38
562.846	36941.09
563.045	37311.77
563.244	36476.2
563.443	37522.71
563.642	36545.83
563.841	36789.54
564.04	36625.7
564.239	37283.1
564.438	36533.54
564.637	37098.78
564.836	36748.58
565.035	36087.09
565.234	36607.27
565.432	36468.01
565.631	36101.42
565.83	36367.66
566.029	35730.74
566.228	35642.68
566.427	36044.08
566.625	35947.82
566.824	35419.45
567.023	36177.2
567.222	35478.84
567.42	35716.4
567.619	35403.07
567.818	35523.9
568.016	35736.88
568.215	35515.7
568.414	35253.56
568.612	35675.44
568.811	35194.17
569.01	35024.19
569.208	34712.9
569.407	35329.34
569.605	34403.66
569.804	35317.05
570.002	34719.04
570.201	34835.78
570.4	34606.41
570.598	34401.61
570.797	34108.75
570.995	34039.12
571.193	34127.18
571.392	34258.25
571.59	33744.21
571.789	34057.55
571.987	33891.66
572.186	34121.04
572.384	33684.82
572.582	33627.48
572.781	33627.48
572.979	33623.38
573.177	33582.42
573.376	33678.68
573.574	33510.74
573.772	33221.98
573.971	33668.44
574.169	33209.69
574.367	32953.69
574.565	33127.77
574.763	32796
574.962	32931.17
575.16	32417.13
575.358	32857.44
575.556	32456.04
575.754	32470.37
575.952	32435.56
576.151	32650.6
576.349	32050.54
576.547	32157.03
576.745	32464.23
576.943	32040.3
577.141	31907.18
577.339	32159.08
577.537	31669.62
577.735	31921.52
577.933	31733.11
578.131	31878.51
578.329	31356.28
578.527	31473.01
578.725	31157.63
578.923	31776.11
579.121	31257.98
579.319	31303.03
579.516	31163.77
579.714	31100.28
579.912	30868.86
580.11	30868.86
580.308	30795.14
580.506	30905.73
580.704	30270.86
580.901	30494.08
581.099	30680.45
581.297	30317.96
581.495	30229.9
581.692	30113.16
581.89	30084.49
582.088	30586.24
582.285	29953.42
582.483	30141.83
582.681	29857.17
582.878	29805.97
583.076	29435.28
583.274	30283.14
583.471	29318.55
583.669	29681.04
583.866	29357.46
584.064	29543.83
584.262	28890.52
584.459	29265.3
584.657	29154.71
584.854	29404.56
585.052	28542.37
585.249	29158.81
585.447	28880.28
585.644	28927.39
585.841	28646.82
586.039	28943.77
586.236	28339.62
586.434	28722.59
586.631	28212.65
586.828	28276.13
587.026	28425.64
587.223	28370.34
587.42	28153.26
587.618	27874.73
587.815	27753.9
588.012	27639.22
588.21	27774.38
588.407	27782.57
588.604	27590.06
588.801	27565.49
588.999	27215.29
589.196	27221.43
589.393	27340.21
589.59	27135.42
589.787	27131.32
589.984	27039.16
590.182	26924.47
590.379	27108.79
590.576	27045.3
590.773	27059.64
590.97	26484.16
591.167	26758.59
591.364	26361.28
591.561	26719.68
591.758	26295.75
591.955	26488.26
592.152	26260.93
592.349	25927.11
592.546	26549.7
592.743	26295.75
592.94	25957.83
593.137	25875.91
593.334	25761.23
593.531	25765.32
593.727	25462.22
593.924	25750.99
594.121	25497.04
594.318	25462.22
594.515	25501.14
594.712	25558.48
594.908	25218.52
595.105	25337.3
595.302	24634.85
595.499	25273.81
595.696	25243.09
595.892	24931.8
596.089	24976.86
596.286	24899.03
596.482	24884.7
596.679	24669.66
596.876	24743.39
597.072	24677.85
597.269	24700.38
597.466	24106.47
597.662	24206.82
597.859	24333.79
598.055	24227.3
598.252	23913.96
598.448	24047.08
598.645	23672.3
598.841	23635.44
599.038	23676.4
599.234	23815.66
599.431	23612.91
599.627	23514.61
599.824	23342.58
600.02	23326.19
600.217	23508.46
600.413	23281.14
600.609	23019
600.806	22967.8
601.002	23174.64
601.198	23041.53
601.395	23178.74
601.591	22859.26
601.787	22705.66
601.984	22711.8
602.18	23088.63
602.376	22519.29
602.572	22527.49
602.769	22363.65
602.965	22388.22
603.161	22464
603.357	21896.71
603.553	22445.57
603.75	22263.3
603.946	22109.7
604.142	22109.7
604.338	21495.31
604.534	21935.62
604.73	21640.72
604.926	21788.17
605.122	21665.29
605.318	21347.86
605.514	21313.04
605.71	21833.22
605.906	21296.66
606.102	21534.22
606.298	21448.21
606.494	21055
606.69	21321.23
606.886	21179.92
607.082	21005.84
607.278	21310.99
607.474	20647.45
607.67	20977.17
607.866	20680.22
608.062	20921.88
608.257	20719.13
608.453	20774.42
608.649	20966.93
608.845	20700.7
609.041	20489.76
609.236	20825.62
609.432	20794.9
609.628	20583.96
609.824	20616.73
610.019	20346.4
610.215	20401.69
610.411	20420.13
610.606	20047.4
610.802	20411.93
610.998	20346.4
611.193	20155.94
611.389	19955.24
611.584	20076.07
611.78	20069.92
611.976	19998.24
612.171	20010.53
612.367	20053.54
612.562	19912.23
612.758	19588.65
612.953	19887.65
613.149	20190.75
613.344	19471.92
613.539	20108.83
613.735	19723.82
613.93	19723.82
614.126	19381.81
614.321	19854.89
614.517	19764.78
614.712	19545.64
614.907	19732.01
615.103	19373.61
615.298	19275.31
615.493	19414.57
615.688	19052.08
615.884	19557.93
616.079	18929.2
616.274	19328.56
616.47	19074.61
616.665	19559.98
616.86	19105.33
617.055	18853.43
617.25	18787.89
617.445	19037.75
617.641	18751.03
617.836	19043.89
618.031	18810.42
618.226	18841.14
618.421	18615.87
618.616	19019.32
618.811	18392.64
619.006	18988.6
619.201	18226.75
619.396	18228.8
619.591	18085.44
619.786	18280
619.981	17794.63
620.176	18218.56
620.371	17931.84
620.566	18060.87
620.761	17825.35
620.956	17745.48
621.151	17409.61
621.346	17573.45
621.541	17272.4
621.735	17555.02
621.93	17114.7
622.125	17464.91
622.32	16854.61
622.515	16983.63
622.709	17040.98
622.904	16889.43
623.099	16848.47
623.294	16690.77
623.488	16432.73
623.683	16543.32
623.878	16461.4
624.072	16600.66
624.267	16412.25
624.462	16332.38
624.656	16215.65
624.851	16186.97
625.046	15838.82
625.24	16039.52
625.435	15902.31
625.629	15840.87
625.824	15785.57
626.018	15287.92
626.213	15408.75
626.407	15461.99
626.602	15474.28
626.796	15337.07
626.991	15306.35
627.185	15285.87
627.38	15087.22
627.574	14900.85
627.768	14849.65
627.963	14972.53
628.157	14681.72
628.352	14599.8
628.546	14233.21
628.74	14556.79
628.935	14403.19
629.129	14403.19
629.323	14247.55
629.517	14247.55
629.712	14220.92
629.906	13921.92
630.1	13692.55
630.294	14065.28
630.489	13901.44
630.683	13825.67
630.877	13561.48
631.071	13399.69
631.265	13643.4
631.459	13334.15
631.653	13485.7
631.848	13112.97
632.042	13352.59
632.236	13207.18
632.43	12904.08
632.624	13145.74
632.818	12914.32
633.012	12854.93
633.206	12744.34
633.4	12908.18
633.594	12523.16
633.788	12709.52
633.982	12560.02
634.176	12461.72
634.369	12461.72
634.563	12357.27
634.757	12080.8
634.951	12426.9
635.145	12269.21
635.339	12322.46
635.533	11894.43
635.726	12111.52
635.92	11673.25
636.114	11843.23
636.308	11818.66
636.501	11746.98
636.695	11671.2
636.889	11456.17
637.083	11458.21
637.276	11626.15
637.47	11435.69
637.664	11433.64
637.857	11564.71
638.051	11349.67
638.244	11189.93
638.438	11140.78
638.632	11075.24
638.825	11101.87
639.019	10890.93
639.212	10946.22
639.406	10688.18
639.599	10835.63
639.793	10624.69
639.986	10462.9
640.18	10481.33
640.373	10772.14
640.567	10327.74
640.76	10651.31
640.954	10354.36
641.147	10172.09
641.34	10088.12
641.534	10374.84
641.727	10315.45
641.92	10362.55
642.114	10108.6
642.307	10069.69
642.5	9901.76
642.694	9604.8
642.887	9838.27
643.08	10008.25
643.273	9696.96
643.467	9739.97
643.66	9707.2
643.853	9483.97
644.046	9359.05
644.239	9361.09
644.432	9410.25
644.626	9389.77
644.819	9182.92
645.012	9154.25
645.205	9367.24
645.398	9236.17
645.591	8865.49
645.784	9195.21
645.977	9004.75
646.17	8869.58
646.363	8857.29
646.556	8810.19
646.749	8814.29
646.942	8810.19
647.135	8945.36
647.328	8627.92
647.521	8836.81
647.714	8519.38
647.907	8732.37
648.099	8503
648.292	8656.59
648.485	8548.05
648.678	8427.22
648.871	8419.03
649.064	8355.54
649.256	8416.98
649.449	8163.03
649.642	8052.44
649.835	8072.92
650.027	8005.34
650.22	8040.15
650.413	7974.62
650.605	8021.72
650.798	7823.07
650.991	7835.36
651.183	7911.13
651.376	7913.18
651.568	7655.14
651.761	7501.54
651.954	7769.82
652.146	7573.22
652.339	7614.18
652.531	7466.72
652.724	7605.99
652.916	7306.98
653.109	7337.7
653.301	7507.68
653.494	7503.59
653.686	7249.64
653.879	7300.84
654.071	7309.03
654.263	7132.9
654.456	7171.82
654.648	7188.2
654.84	6977.26
655.033	7091.95
655.225	7014.12
655.417	6942.44
655.61	6969.07
655.802	6934.25
655.994	6909.68
656.186	7104.23
656.379	6862.57
656.571	6737.65
656.763	6739.69
656.955	6565.62
657.148	6711.02
657.34	6538.99
657.532	6493.94
657.724	6569.71
657.916	6491.89
658.108	6528.75
658.3	6332.15
658.492	6516.47
658.684	6377.2
658.876	6418.16
659.068	6307.57
659.26	6125.3
659.452	6297.33
659.644	6221.56
659.836	6242.04
660.028	6303.48
660.22	6100.73
660.412	6082.3
660.604	5879.55
660.796	5986.04
660.988	6076.15
661.18	5959.42
661.372	5816.06
661.563	6014.71
661.755	5779.2
661.947	5971.71
662.139	5697.28
662.331	5859.07
662.522	5721.85
662.714	5738.24
662.906	5754.62
663.097	5611.26
663.289	5549.82
663.481	5420.8
663.673	5564.16
663.864	5603.07
664.056	5424.9
664.247	5555.97
664.439	5437.19
664.631	5394.18
664.822	5576.45
665.014	5476.1
665.205	5365.51
665.397	5332.74
665.588	5279.49
665.78	5261.06
665.971	5228.29
666.163	5328.64
666.354	5209.86
666.546	5144.33
666.737	5060.36
666.929	5095.18
667.12	5173
667.311	5138.18
667.503	4923.15
667.694	5062.41
667.885	4945.67
668.077	5076.74
668.268	5005.06
668.459	4923.15
668.651	4941.58
668.842	4986.63
669.033	4937.48
669.224	4843.28
669.416	4888.33
669.607	4976.39
669.798	4689.68
669.989	4824.84
670.18	4790.03
670.371	4771.6
670.563	4775.69
670.754	4792.08
670.945	4607.76
671.136	4816.65
671.327	4642.57
671.518	4628.24
671.709	4730.64
671.9	4591.38
672.091	4519.7
672.282	4497.17
672.473	4505.36
672.664	4585.23
672.855	4599.57
673.046	4433.68
673.237	4484.88
673.428	4456.21
673.619	4493.07
673.809	4589.33
674	4431.63
674.191	4423.44
674.382	4380.43
674.573	4402.96
674.764	4366.1
674.954	4355.86
675.145	4321.04
675.336	4284.18
675.527	4306.71
675.717	4355.86
675.908	4173.59
676.099	4271.89
676.289	4173.59
676.48	4132.63
676.671	4144.92
676.861	4183.83
677.052	4067.1
677.243	4241.17
677.433	4185.88
677.624	4144.92
677.814	4079.38
678.005	4069.14
678.195	4220.69
678.386	3956.5
678.576	3944.22
678.767	3960.6
678.957	4030.23
679.148	4108.05
679.338	4140.82
679.529	4173.59
679.719	4030.23
679.909	4048.66
680.1	4028.18
680.29	3915.55
680.481	3933.98
680.671	4046.62
680.861	4060.95
681.052	3989.27
681.242	3870.49
681.432	4036.38
681.622	3936.03
681.813	3766.04
682.003	3835.67
682.193	3927.83
682.383	3841.82
682.573	3845.91
682.764	3813.15
682.954	3792.67
683.144	3829.53
683.334	3868.44
683.524	3723.04
683.714	3796.76
683.904	3733.28
684.094	3755.8
684.284	3895.07
684.474	3786.52
684.664	3882.78
684.854	3768.09
685.044	3698.46
685.234	3710.75
685.424	3673.89
685.614	3860.25
685.804	3628.83
685.994	3739.42
686.184	3591.97
686.374	3616.54
686.564	3559.2
686.753	3682.08
686.943	3534.62
687.133	3821.34
687.323	3524.38
687.513	3626.78
687.702	3542.82
687.892	3516.19
688.082	3612.45
688.272	3485.47
688.461	3540.77
688.651	3483.42
688.841	3446.56
689.03	3428.13
689.22	3528.48
689.41	3381.03
689.599	3370.79
689.789	3378.98
689.979	3329.83
690.168	3395.36
690.358	3305.25
690.547	3354.4
690.737	3346.21
690.926	3444.51
691.116	3340.07
691.305	3200.8
691.495	3092.26
691.684	3159.85
691.874	3264.29
692.063	3237.67
692.252	3284.77
692.442	3088.17
692.631	3256.1
692.82	3239.72
693.01	3104.55
693.199	3036.97
693.388	3202.85
693.578	3094.31
693.767	3186.47
693.956	3116.84
694.146	2981.67
694.335	3030.82
694.524	3086.12
694.713	2987.82
694.902	3034.92
695.092	3114.79
695.281	2969.38
695.47	2950.95
695.659	2944.81
695.848	2979.62
696.037	2895.66
696.226	2953
696.415	3073.83
696.604	2942.76
696.793	2969.38
696.982	2944.81
697.171	2961.19
697.36	2897.71
697.549	2907.94
697.738	2817.83
697.927	2866.99
698.116	2932.52
698.305	2815.79
698.494	2912.04
698.683	2891.56
698.872	2912.04
699.061	2850.6
699.25	2772.78
699.438	2785.07
699.627	2791.21
699.816	2717.48
700.005	2787.11
700.193	2848.55
700.382	2815.79
700.571	2860.84
700.76	2778.92
700.948	2901.8
701.137	2690.86
701.326	2875.18
701.514	2688.81
701.703	2809.64
701.892	2615.09
702.08	2821.93
702.269	2819.88
702.457	2823.98
702.646	2797.35
702.834	2754.35
703.023	2629.42
703.212	2723.63
703.4	2637.61
703.589	2727.72
703.777	2721.58
703.965	2756.4
704.154	2682.67
704.342	2674.48
704.531	2725.68
704.719	2735.92
704.907	2627.37
705.096	2658.09
705.284	2617.13
705.472	2676.52
705.661	2684.72
705.849	2527.02
706.037	2707.24
706.226	2619.18
706.414	2719.53
706.602	2666.28
706.79	2688.81
706.979	2692.91
707.167	2606.89
707.355	2617.13
707.543	2733.87
707.731	2744.11
707.919	2610.99
708.107	2602.8
708.296	2608.94
708.484	2625.33
708.672	2594.61
708.86	2533.17
709.048	2563.89
709.236	2527.02
709.424	2623.28
709.612	2656.04
709.8	2608.94
709.988	2567.98
710.176	2488.11
710.364	2676.52
710.551	2572.08
710.739	2520.88
710.927	2518.83
711.115	2469.68
711.303	2545.45
711.491	2490.16
711.679	2516.78
711.866	2481.97
712.054	2481.97
712.242	2567.98
712.43	2559.79
712.617	2475.82
712.805	2498.35
712.993	2467.63
713.181	2412.34
713.368	2502.45
713.556	2533.17
713.744	2424.62
713.931	2654
714.119	2506.54
714.306	2371.38
714.494	2449.2
714.682	2475.82
714.869	2471.73
715.057	2500.4
715.244	2457.39
715.432	2543.41
715.619	2414.38
715.807	2529.07
715.994	2395.95
716.182	2443.06
716.369	2506.54
716.556	2410.29
716.744	2451.25
716.931	2385.71
717.119	2463.54
717.306	2469.68
717.493	2514.73
717.681	2381.62
717.868	2402.1
718.055	2363.19
718.242	2363.19
718.43	2430.77
718.617	2387.76
718.804	2412.34
718.991	2340.66
719.179	2436.91
719.366	2330.42
719.553	2365.23
719.74	2354.99
719.927	2262.83
720.114	2363.19
720.301	2373.43
720.488	2232.12
720.676	2395.95
720.863	2422.58
721.05	2367.28
721.237	2283.31
721.424	2314.03
721.611	2430.77
721.798	2256.69
721.985	2273.07
722.172	2330.42
722.358	2248.5
722.545	2252.59
722.732	2354.99
722.919	2314.03
723.106	2256.69
723.293	2340.66
723.48	2240.31
723.667	2240.31
723.853	2393.9
724.04	2232.12
724.227	2291.51
724.414	2324.27
724.6	2291.51
724.787	2336.56
724.974	2281.27
725.161	2191.16
725.347	2176.82
725.534	2240.31
725.72	2334.51
725.907	2275.12
726.094	2279.22
726.28	2178.87
726.467	2160.44
726.653	2406.19
726.84	2314.03
727.027	2250.55
727.213	2277.17
727.4	2201.4
727.586	2330.42
727.773	2195.25
727.959	2354.99
728.145	2422.58
728.332	2281.27
728.518	2297.65
728.705	2279.22
728.891	2297.65
729.077	2268.98
729.264	2207.54
729.45	2266.93
729.636	2348.85
729.823	2191.16
730.009	2232.12
730.195	2191.16
730.382	2264.88
730.568	2213.68
730.754	2207.54
730.94	2303.79
731.126	2242.36
731.313	2297.65
731.499	2166.58
731.685	2182.96
731.871	2240.31
732.057	2158.39
732.243	2131.76
732.429	2260.79
732.615	2092.85
732.801	2199.35
732.987	2268.98
733.173	2164.53
733.359	2195.25
733.545	2084.66
733.731	2199.35
733.917	2240.31
734.103	2223.92
734.289	2174.77
734.475	2099
734.661	2228.02
734.847	2187.06
735.033	2060.09
735.219	2199.35
735.404	2133.81
735.59	2105.14
735.776	2068.28
735.962	2119.48
736.148	2146.1
736.333	2199.35
736.519	2080.57
736.705	2209.59
736.89	2109.24
737.076	2103.09
737.262	2197.3
737.447	2228.02
737.633	2199.35
737.819	2078.52
738.004	2051.89
738.19	2002.74
738.375	2029.37
738.561	2142
738.747	2103.09
738.932	1980.22
739.118	2070.33
739.303	1914.68
739.489	2228.02
739.674	1994.55
739.859	2037.56
740.045	2010.93
740.23	2025.27
740.416	1937.21
740.601	2002.74
740.786	1976.12
740.972	1978.17
741.157	1912.63
741.342	1961.78
741.528	1967.93
741.713	1896.25
741.898	1931.06
742.084	1965.88
742.269	1969.98
742.454	1863.48
742.639	2029.37
742.824	1847.1
743.01	1906.49
743.195	1890.1
743.38	1949.5
743.565	1902.39
743.75	1855.29
743.935	1822.52
744.12	1957.69
744.305	1824.57
744.49	1902.39
744.675	1814.33
744.86	1713.98
745.045	1840.95
745.23	1867.58
745.415	1716.03
745.6	1709.88
745.785	1750.84
745.97	1853.24
746.155	1914.68
746.34	1847.1
746.525	1791.8
746.71	1818.43
746.895	1716.03
747.079	1769.27
747.264	1808.19
747.449	1802.04
747.634	1705.79
747.819	1722.17
748.003	1537.85
748.188	1638.2
748.373	1756.99
748.557	1683.26
748.742	1705.79
748.927	1539.9
749.111	1503.04
749.296	1584.96
749.481	1625.92
749.665	1605.44
749.85	1513.28
750.034	1617.72
750.219	1546.05
750.404	1636.16
750.588	1609.53
750.773	1423.17
750.957	1437.5
751.141	1380.16
751.326	1523.52
751.51	1380.16
751.695	1427.26
751.879	1474.37
752.064	1515.33
752.248	1353.54
752.432	1496.89
752.617	1357.63
752.801	1470.27
752.985	1425.22
753.17	1433.41
753.354	1408.83
753.538	1265.47
753.722	1371.97
753.907	1429.31
754.091	1388.35
754.275	1363.78
754.459	1314.63
754.643	1374.02
754.828	1257.28
755.012	1191.75
755.196	1308.48
755.38	1275.71
755.564	1306.43
755.748	1267.52
755.932	1294.15
756.116	1331.01
756.3	1204.03
756.484	1210.18
756.668	1195.84
756.852	1126.21
757.036	1191.75
757.22	1201.99
757.404	1193.8
757.588	1208.13
757.772	1279.81
757.956	1144.64
758.14	1136.45
758.323	1101.64
758.507	1128.26
758.691	1189.7
758.875	1122.12
759.059	1109.83
759.242	1036.1
759.426	1232.71
759.61	1199.94
759.794	1032.01
759.977	1113.92
760.161	1152.84
760.345	1027.91
760.528	1111.88
760.712	1032.01
760.895	1093.44
761.079	1023.81
761.263	1064.77
761.446	1021.77
761.63	1021.77
761.813	972.61
761.997	956.23
762.18	1027.91
762.364	1003.33
762.547	939.85
762.731	921.42
762.914	927.56
763.098	933.7
763.281	984.9
763.464	941.89
763.648	857.93
763.831	874.31
764.015	841.54
764.198	866.12
764.381	966.47
764.564	931.66
764.748	878.41
764.931	929.61
765.114	839.5
765.297	964.42
765.481	913.22
765.664	948.04
765.847	905.03
766.03	896.84
766.213	935.75
766.397	943.94
766.58	884.55
766.763	851.78
766.946	954.18
767.129	872.26
767.312	794.44
767.495	851.78
767.678	876.36
767.861	857.93
768.044	802.63
768.227	886.6
768.41	798.54
768.593	823.11
768.776	864.07
768.959	943.94
769.142	808.78
769.324	847.69
769.507	747.34
769.69	864.07
769.873	802.63
770.056	819.02
770.239	798.54
770.421	835.4
770.604	751.43
770.787	831.3
770.97	831.3
771.152	773.96
771.335	694.09
771.518	753.48
771.7	765.77
771.883	806.73
772.066	743.24
772.248	784.2
772.431	778.06
772.613	710.47
772.796	667.47
772.978	765.77
773.161	790.35
773.343	745.29
773.526	763.72
773.708	683.85
773.891	610.12
774.073	724.81
774.256	706.38
774.438	708.43
774.621	669.52
774.803	769.87
774.985	595.79
775.168	653.13
775.35	667.47
775.532	659.28
775.715	675.66
775.897	712.52
776.079	646.99
776.261	667.47
776.444	667.47
776.626	585.55
776.808	728.91
776.99	634.7
777.173	552.78
777.355	569.16
777.537	581.45
777.719	638.8
777.901	491.34
778.083	618.32
778.265	503.63
778.447	610.12
778.629	503.63
778.811	601.93
778.993	595.79
779.175	653.13
779.357	530.25
779.539	563.02
779.721	575.31
779.903	565.07
780.085	497.49
780.267	505.68
780.449	517.97
780.631	517.97
780.812	579.4
780.994	530.25
781.176	479.05
781.358	462.67
781.54	489.29
781.721	489.29
781.903	532.3
782.085	497.49
782.267	595.79
782.448	446.29
782.63	503.63
782.812	540.49
782.993	423.76
783.175	464.72
783.357	513.87
783.538	415.57
783.72	360.27
783.901	495.44
784.083	427.85
784.264	479.05
784.446	462.67
784.627	429.9
784.809	501.58
784.99	503.63
785.172	403.28
785.353	374.61
785.535	413.52
785.716	446.29
785.897	466.77
786.079	388.94
786.26	397.14
786.441	464.72
786.623	454.48
786.804	401.23
786.985	374.61
787.167	409.42
787.348	403.28
787.529	374.61
787.71	421.71
787.891	384.85
788.073	364.37
788.254	343.89
788.435	450.38
788.616	356.18
788.797	268.11
788.978	374.61
789.159	350.03
789.34	382.8
789.522	364.37
789.703	276.31
789.884	315.22
790.065	354.13
790.246	364.37
790.427	376.66
790.607	390.99
790.788	241.49
790.969	323.41
791.15	298.83
791.331	323.41
791.512	288.59
791.693	276.31
791.874	231.25
792.054	286.54
792.235	319.31
792.416	233.3
792.597	374.61
792.778	327.5
792.958	315.22
793.139	257.87
793.32	266.07
793.5	266.07
793.681	388.94
793.862	266.07
794.042	352.08
794.223	282.45
794.404	261.97
794.584	266.07
794.765	266.07
794.945	266.07
795.126	321.36
795.306	380.75
795.487	323.41
795.667	206.67
795.848	245.59
796.028	218.96
796.209	261.97
796.389	288.59
796.57	251.73
796.75	200.53
796.93	255.83
797.111	200.53
797.291	266.07
797.471	241.49
797.652	204.63
797.832	290.64
798.012	282.45
798.192	259.92
798.373	175.95
798.553	167.76
798.733	190.29
798.913	178
799.093	253.78
799.274	311.12
799.454	249.68
799.634	286.54
799.814	282.45
799.994	200.53
800.174	257.87
800.354	210.77
800.534	169.81
800.714	333.65
800.894	192.34
801.074	233.3
801.254	190.29
801.434	243.54
801.614	223.06
801.794	204.63
801.974	759.63
802.154	169.81
802.334	194.39
802.514	151.38
802.693	296.78
802.873	186.19
803.053	208.72
803.233	175.95
803.413	143.19
803.592	180.05
803.772	223.06
803.952	233.3
804.131	169.81
804.311	200.53
804.491	225.11
804.67	182.1
804.85	212.82
805.03	165.71
805.209	184.15
805.389	204.63
805.568	159.57
805.748	137.04
805.928	151.38
806.107	89.94
806.287	249.68
806.466	208.72
806.646	208.72
806.825	182.1
807.004	145.24
807.184	186.19
807.363	229.2
807.543	175.95
807.722	178
807.901	186.19
808.081	229.2
808.26	104.28
808.439	165.71
808.619	225.11
808.798	159.57
808.977	126.8
809.156	200.53
809.336	257.87
809.515	194.39
809.694	135
809.873	57.17
810.052	188.24
810.231	251.73
810.411	163.67
810.59	155.47
810.769	128.85
810.948	175.95
811.127	63.32
811.306	110.42
811.485	192.34
811.664	132.95
811.843	98.13
812.022	114.52
812.201	96.08
812.38	202.58
812.559	132.95
812.737	161.62
812.916	175.95
813.095	169.81
813.274	79.7
813.453	143.19
813.632	135
813.811	161.62
813.989	145.24
814.168	137.04
814.347	147.28
814.526	126.8
814.704	184.15
814.883	153.43
815.062	122.71
815.24	124.76
815.419	153.43
815.598	159.57
815.776	143.19
815.955	206.67
816.133	143.19
816.312	139.09
816.49	110.42
816.669	147.28
816.847	151.38
817.026	167.76
817.204	124.76
817.383	202.58
817.561	98.13
817.74	141.14
817.918	149.33
818.097	116.56
818.275	98.13
818.453	120.66
818.632	126.8
818.81	128.85
818.988	53.08
819.167	130.9
819.345	110.42
819.523	69.46
819.701	44.88
819.879	153.43
820.058	184.15
820.236	81.75
820.414	77.65
820.592	180.05
820.77	85.84
820.948	53.08
821.127	167.76
821.305	67.41
821.483	71.51
821.661	169.81
821.839	130.9
822.017	85.84
822.195	73.56
822.373	208.72
822.551	77.65
822.729	135
822.907	104.28
823.085	32.6
823.262	118.61
823.44	77.65
823.618	106.32
823.796	55.12
823.974	73.56
824.152	89.94
824.329	126.8
824.507	77.65
824.685	112.47
824.863	112.47
825.04	79.7
825.218	200.53
825.396	94.04
825.574	122.71
825.751	20.31
825.929	114.52
826.107	114.52
826.284	69.46
826.462	96.08
826.639	96.08
826.817	94.04
826.994	110.42
827.172	89.94
827.349	114.52
827.527	73.56
827.704	110.42
827.882	40.79
828.059	118.61
828.237	132.95
828.414	94.04
828.591	32.6
828.769	46.93
828.946	71.51
829.124	210.77
829.301	104.28
829.478	94.04
829.655	85.84
829.833	48.98
830.01	55.12
830.187	36.69
830.364	163.67
830.542	44.88
830.719	98.13
830.896	46.93
831.073	135
831.25	85.84
831.427	102.23
831.604	122.71
831.782	96.08
831.959	63.32
832.136	22.36
832.313	96.08
832.49	112.47
832.667	114.52
832.844	61.27
833.021	85.84
833.198	94.04
833.374	44.88
833.551	48.98
833.728	63.32
833.905	126.8
834.082	55.12
834.259	79.7
834.436	87.89
834.612	65.36
834.789	38.74
834.966	73.56
835.143	79.7
835.319	79.7
835.496	16.21
835.673	67.41
835.85	153.43
836.026	98.13
836.203	28.5
836.38	53.08
836.556	69.46
836.733	124.76
836.909	114.52
837.086	16.21
837.262	53.08
837.439	104.28
837.616	85.84
837.792	55.12
837.968	71.51
838.145	-18.6
838.321	61.27
838.498	94.04
838.674	124.76
838.851	77.65
839.027	79.7
839.203	61.27
839.38	96.08
839.556	-10.41
839.732	120.66
839.909	-0.17
840.085	61.27
840.261	-4.27
840.437	87.89
840.614	24.4
840.79	77.65
840.966	69.46
841.142	137.04
841.318	36.69
841.494	36.69
841.671	32.6
841.847	55.12
842.023	59.22
842.199	69.46
842.375	87.89
842.551	-32.94
842.727	26.45
842.903	161.62
843.079	48.98
843.255	53.08
843.431	75.6
843.607	102.23
843.783	-59.56
843.959	61.27
844.134	71.51
844.31	79.7
844.486	85.84
844.662	34.64
844.838	63.32
845.013	106.32
845.189	94.04
845.365	18.26
845.541	8.02
845.716	63.32
845.892	67.41
846.068	-4.27
846.244	53.08
846.419	79.7
846.595	-20.65
846.77	28.5
846.946	38.74
847.122	5.97
847.297	36.69
847.473	63.32
847.648	69.46
847.824	77.65
847.999	3.93
848.175	36.69
848.35	55.12
848.526	94.04
848.701	85.84
848.876	57.17
849.052	69.46
849.227	36.69
849.403	53.08
849.578	87.89
849.753	34.64
849.929	8.02
850.104	-20.65
850.279	102.23
850.454	59.22
850.63	44.88
850.805	94.04
850.98	110.42
851.155	87.89
851.33	65.36
851.505	-10.41
851.681	-16.55
851.856	-16.55
852.031	83.8
852.206	98.13
852.381	36.69
852.556	20.31
852.731	71.51
852.906	48.98
853.081	85.84
853.256	1.88
853.431	-51.37
853.606	57.17
853.781	-20.65
853.956	10.07
854.131	36.69
854.305	-12.46
854.48	40.79
854.655	32.6
854.83	34.64
855.005	-41.13
855.18	79.7
855.354	16.21
855.529	-8.36
855.704	69.46
855.879	44.88
856.053	16.21
856.228	91.99
856.403	3.93
856.577	5.97
856.752	14.17
856.926	85.84
857.101	-26.79
857.276	98.13
857.45	18.26
857.625	44.88
857.799	3.93
857.974	69.46
858.148	-22.7
858.323	38.74
858.497	-57.51
858.672	63.32
858.846	14.17
859.02	71.51
859.195	69.46
859.369	79.7
859.543	51.03
859.718	34.64
859.892	46.93
860.066	24.4
860.241	32.6
860.415	22.36
860.589	-8.36
860.763	71.51
860.938	3.93
861.112	110.42
861.286	34.64
861.46	42.84
861.634	51.03
861.808	63.32
861.982	-49.32
862.157	-2.22
862.331	-12.46
862.505	20.31
862.679	3.93
862.853	28.5
863.027	10.07
863.201	38.74
863.375	-4.27
863.549	53.08
863.722	46.93
863.896	69.46
864.07	-20.65
864.244	-8.36
864.418	20.31
864.592	-55.47
864.766	-37.03
864.939	-18.6
865.113	20.31
865.287	8.02
865.461	3.93
865.634	57.17
865.808	-20.65
865.982	-6.31
866.156	-26.79
866.329	-22.7
866.503	16.21
866.676	-0.17
866.85	-18.6
867.024	12.12
867.197	18.26
867.371	22.36
867.544	16.21
867.718	-41.13
867.891	-4.27
868.065	16.21
868.238	-45.23
868.412	32.6
868.585	-2.22
868.759	110.42
868.932	24.4
869.105	-16.55
869.279	94.04
869.452	30.55
869.625	73.56
869.799	-10.41
869.972	57.17
870.145	-43.18
870.319	126.8
870.492	-86.19
870.665	-4.27
870.838	12.12
871.011	40.79
871.185	8.02
871.358	-0.17
871.531	24.4
871.704	-2.22
871.877	-10.41
872.05	26.45
872.223	-37.03
872.396	36.69
872.569	36.69
872.742	-104.62
872.915	94.04
873.088	59.22
873.261	28.5
873.434	61.27
873.607	26.45
873.78	40.79
873.953	-20.65
874.126	3.93
874.299	-4.27
874.471	-51.37
874.644	24.4
874.817	3.93
874.99	38.74
875.163	-45.23
875.335	65.36
875.508	22.36
875.681	77.65
875.853	8.02
876.026	3.93
876.199	-2.22
876.371	28.5
876.544	-22.7
876.717	30.55
876.889	38.74
877.062	36.69
877.234	-8.36
877.407	38.74
877.579	34.64
877.752	57.17
877.924	-10.41
878.097	20.31
878.269	-16.55
878.442	-12.46
878.614	42.84
878.786	61.27
878.959	24.4
879.131	34.64
879.303	-0.17
879.476	-37.03
879.648	1.88
879.82	-26.79
879.993	3.93
880.165	-8.36
880.337	-24.75
880.509	10.07
880.681	77.65
880.854	22.36
881.026	-2.22
881.198	59.22
881.37	1.88
881.542	20.31
881.714	36.69
881.886	-18.6
882.058	18.26
882.23	-37.03
882.402	36.69
882.574	3.93
882.746	30.55
882.918	73.56
883.09	44.88
883.262	-22.7
883.434	3.93
883.606	-28.84
883.778	22.36
883.95	-6.31
884.122	-26.79
884.293	-14.51
884.465	-43.18
884.637	61.27
884.809	20.31
884.98	-22.7
885.152	-2.22
885.324	20.31
885.496	-43.18
885.667	30.55
885.839	-20.65
886.011	40.79
886.182	-16.55
886.354	14.17
886.525	20.31
886.697	14.17
886.869	-28.84
887.04	-43.18
887.212	18.26
887.383	75.6
887.555	-32.94
887.726	-4.27
887.897	-0.17
888.069	53.08
888.24	89.94
888.412	-26.79
888.583	-4.27
888.754	36.69
888.926	-53.42
889.097	44.88
889.268	-34.99
889.44	46.93
889.611	24.4
889.782	-20.65
889.953	48.98
890.125	42.84
890.296	8.02
890.467	-12.46
890.638	3.93
890.809	-16.55
890.98	-22.7
891.151	40.79
891.323	-10.41
891.494	55.12
891.665	26.45
891.836	30.55
892.007	-12.46
892.178	16.21
892.349	30.55
892.52	-67.75
892.691	-18.6
892.862	28.5
893.032	48.98
893.203	38.74
893.374	22.36
893.545	53.08
893.716	-53.42
893.887	14.17
894.057	-57.51
894.228	30.55
894.399	20.31
894.57	57.17
894.74	-0.17
894.911	22.36
895.082	34.64
895.253	57.17
895.423	61.27
895.594	3.93
895.764	28.5
895.935	-4.27
896.106	-28.84
896.276	-28.84
896.447	-39.08
896.617	-53.42
896.788	69.46
896.958	26.45
897.129	-2.22
897.299	12.12
897.47	46.93
897.64	32.6
897.81	-10.41
897.981	53.08
898.151	-51.37
898.322	20.31
898.492	22.36
898.662	8.02
898.832	22.36
899.003	-4.27
899.173	8.02
899.343	-12.46
899.513	-12.46
