Data from USB4F104151__304__14-24-08-529.txt Node

Date: Thu Mar 13 14:24:08 EDT 2025
User: louis
Spectrometer: USB4F10415
Trigger mode: 4
Integration Time (sec): 2.000000E-2
Scans to average: 1
Electric dark correction enabled: true
Nonlinearity correction enabled: false
Boxcar width: 0
XAxis mode: Wavelengths
Number of Pixels in Spectrum: 3648
>>>>>Begin Spectral Data<<<<<
178.204	-69.97
178.424	-69.97
178.644	-69.97
178.864	-129.36
179.084	-53.59
179.304	-14.68
179.524	-47.44
179.744	-4.44
179.964	50.86
180.184	-26.96
180.404	-14.68
180.624	75.43
180.844	9.9
181.064	-74.07
181.283	34.47
181.503	-22.87
181.723	34.47
181.943	-31.06
182.163	71.34
182.383	13.99
182.602	44.71
182.822	-0.34
183.042	11.95
183.262	20.14
183.482	-45.4
183.701	-6.49
183.921	22.19
184.141	-2.39
184.361	40.62
184.58	-6.49
184.8	22.19
185.02	52.91
185.239	3.75
185.459	44.71
185.679	7.85
185.898	-6.49
186.118	102.06
186.338	57
186.557	104.11
186.777	-82.26
186.997	59.05
187.216	-4.44
187.436	87.72
187.655	-26.96
187.875	9.9
188.095	1.71
188.314	46.76
188.534	-16.73
188.753	18.09
188.973	-4.44
189.192	-8.53
189.412	30.38
189.631	7.85
189.851	18.09
190.07	9.9
190.29	48.81
190.509	73.39
190.729	-22.87
190.948	100.01
191.168	134.82
191.387	50.86
191.607	9.9
191.826	95.91
192.045	87.72
192.265	1.71
192.484	-12.63
192.704	63.15
192.923	-72.02
193.142	110.25
193.362	71.34
193.581	52.91
193.8	61.1
194.02	69.29
194.239	5.8
194.458	26.28
194.678	-6.49
194.897	91.82
195.116	-74.07
195.335	42.67
195.555	36.52
195.774	26.28
195.993	3.75
196.212	34.47
196.432	-72.02
196.651	1.71
196.87	20.14
197.089	67.24
197.308	16.04
197.528	-26.96
197.747	-78.16
197.966	-80.21
198.185	42.67
198.404	-14.68
198.623	9.9
198.842	22.19
199.062	9.9
199.281	108.2
199.5	-8.53
199.719	73.39
199.938	-16.73
200.157	95.91
200.376	22.19
200.595	89.77
200.814	75.43
201.033	44.71
201.252	69.29
201.471	-45.4
201.69	3.75
201.909	36.52
202.128	50.86
202.347	-12.63
202.566	22.19
202.785	-33.11
203.004	7.85
203.223	71.34
203.442	-6.49
203.661	3.75
203.879	50.86
204.098	75.43
204.317	46.76
204.536	-6.49
204.755	-26.96
204.974	28.33
205.193	24.23
205.411	42.67
205.63	-14.68
205.849	-31.06
206.068	71.34
206.287	-22.87
206.505	83.63
206.724	52.91
206.943	34.47
207.162	87.72
207.381	-14.68
207.599	18.09
207.818	-51.54
208.037	34.47
208.255	50.86
208.474	40.62
208.693	52.91
208.911	-14.68
209.13	71.34
209.349	71.34
209.567	28.33
209.786	13.99
210.005	9.9
210.223	-14.68
210.442	-26.96
210.661	-22.87
210.879	-2.39
211.098	-45.4
211.316	108.2
211.535	30.38
211.753	73.39
211.972	46.76
212.191	-14.68
212.409	-22.87
212.628	20.14
212.846	102.06
213.065	83.63
213.283	22.19
213.502	-45.4
213.72	3.75
213.938	-59.73
214.157	1.71
214.375	-22.87
214.594	-53.59
214.812	69.29
215.031	-18.77
215.249	34.47
215.467	-35.16
215.686	5.8
215.904	5.8
216.122	71.34
216.341	-35.16
216.559	-20.82
216.778	65.19
216.996	44.71
217.214	-110.93
217.432	-39.25
217.651	-26.96
217.869	-51.54
218.087	5.8
218.306	-55.64
218.524	42.67
218.742	7.85
218.96	26.28
219.179	-53.59
219.397	-55.64
219.615	5.8
219.833	-6.49
220.051	24.23
220.27	-16.73
220.488	50.86
220.706	69.29
220.924	-45.4
221.142	1.71
221.36	-18.77
221.578	11.95
221.796	-53.59
222.015	26.28
222.233	34.47
222.451	52.91
222.669	-39.25
222.887	59.05
223.105	-35.16
223.323	42.67
223.541	42.67
223.759	52.91
223.977	34.47
224.195	71.34
224.413	1.71
224.631	126.63
224.849	16.04
225.067	79.53
225.285	28.33
225.503	26.28
225.721	18.09
225.939	-6.49
226.157	-39.25
226.375	153.26
226.592	-37.2
226.81	32.43
227.028	59.05
227.246	91.82
227.464	-29.01
227.682	40.62
227.9	71.34
228.117	79.53
228.335	42.67
228.553	-18.77
228.771	26.28
228.989	-33.11
229.206	26.28
229.424	42.67
229.642	22.19
229.86	18.09
230.077	-47.44
230.295	48.81
230.513	26.28
230.731	67.24
230.948	30.38
231.166	52.91
231.384	1.71
231.601	83.63
231.819	-20.82
232.037	-51.54
232.254	38.57
232.472	-14.68
232.689	-2.39
232.907	67.24
233.125	16.04
233.342	22.19
233.56	-14.68
233.777	-20.82
233.995	3.75
234.213	9.9
234.43	54.95
234.648	-39.25
234.865	3.75
235.083	67.24
235.3	22.19
235.518	46.76
235.735	20.14
235.953	11.95
236.17	-53.59
236.388	-47.44
236.605	-14.68
236.822	-4.44
237.04	79.53
237.257	36.52
237.475	38.57
237.692	3.75
237.909	83.63
238.127	50.86
238.344	9.9
238.562	30.38
238.779	-94.55
238.996	26.28
239.214	9.9
239.431	91.82
239.648	-16.73
239.865	67.24
240.083	7.85
240.3	28.33
240.517	9.9
240.735	-20.82
240.952	34.47
241.169	79.53
241.386	20.14
241.603	11.95
241.821	20.14
242.038	-2.39
242.255	116.39
242.472	28.33
242.689	36.52
242.907	-39.25
243.124	22.19
243.341	42.67
243.558	-14.68
243.775	22.19
243.992	-22.87
244.209	16.04
244.426	34.47
244.643	18.09
244.86	32.43
245.078	26.28
245.295	-2.39
245.512	-0.34
245.729	-12.63
245.946	22.19
246.163	-4.44
246.38	9.9
246.597	65.19
246.814	-76.12
247.031	79.53
247.248	5.8
247.464	1.71
247.681	11.95
247.898	52.91
248.115	77.48
248.332	-6.49
248.549	75.43
248.766	26.28
248.983	87.72
249.2	-39.25
249.417	5.8
249.633	22.19
249.85	38.57
250.067	-31.06
250.284	54.95
250.501	11.95
250.717	3.75
250.934	-65.88
251.151	-51.54
251.368	36.52
251.585	95.91
251.801	13.99
252.018	-6.49
252.235	24.23
252.451	-26.96
252.668	-61.78
252.885	54.95
253.102	20.14
253.318	61.1
253.535	-8.53
253.752	18.09
253.968	-14.68
254.185	16.04
254.401	34.47
254.618	42.67
254.835	9.9
255.051	100.01
255.268	34.47
255.484	-6.49
255.701	61.1
255.917	9.9
256.134	-4.44
256.351	-14.68
256.567	26.28
256.784	42.67
257	-53.59
257.217	67.24
257.433	91.82
257.65	26.28
257.866	30.38
258.082	42.67
258.299	-29.01
258.515	63.15
258.732	-43.35
258.948	-14.68
259.165	114.34
259.381	-4.44
259.597	-8.53
259.814	42.67
260.03	16.04
260.246	59.05
260.463	26.28
260.679	108.2
260.895	-24.92
261.112	11.95
261.328	9.9
261.544	44.71
261.761	75.43
261.977	-45.4
262.193	44.71
262.409	36.52
262.626	5.8
262.842	24.23
263.058	20.14
263.274	11.95
263.49	7.85
263.707	-22.87
263.923	20.14
264.139	-55.64
264.355	-51.54
264.571	28.33
264.787	16.04
265.004	26.28
265.22	-67.92
265.436	11.95
265.652	-6.49
265.868	-6.49
266.084	-47.44
266.3	18.09
266.516	-33.11
266.732	83.63
266.948	67.24
267.164	20.14
267.38	59.05
267.596	52.91
267.812	44.71
268.028	59.05
268.244	-8.53
268.46	-29.01
268.676	-18.77
268.892	36.52
269.108	-0.34
269.324	44.71
269.54	13.99
269.756	-8.53
269.972	-24.92
270.188	42.67
270.403	-47.44
270.619	69.29
270.835	-4.44
271.051	1.71
271.267	-4.44
271.483	38.57
271.698	22.19
271.914	52.91
272.13	-22.87
272.346	-78.16
272.562	42.67
272.777	11.95
272.993	-51.54
273.209	20.14
273.425	32.43
273.64	77.48
273.856	32.43
274.072	28.33
274.287	1.71
274.503	-10.58
274.719	-0.34
274.934	67.24
275.15	-47.44
275.366	22.19
275.581	-20.82
275.797	44.71
276.012	3.75
276.228	-22.87
276.444	71.34
276.659	18.09
276.875	-53.59
277.09	26.28
277.306	18.09
277.521	54.95
277.737	-84.31
277.952	1.71
278.168	-22.87
278.383	-45.4
278.599	-6.49
278.814	28.33
279.03	13.99
279.245	22.19
279.461	42.67
279.676	63.15
279.892	50.86
280.107	22.19
280.322	30.38
280.538	85.67
280.753	-12.63
280.969	-12.63
281.184	71.34
281.399	42.67
281.615	18.09
281.83	83.63
282.045	40.62
282.26	52.91
282.476	9.9
282.691	36.52
282.906	-20.82
283.122	28.33
283.337	87.72
283.552	65.19
283.767	18.09
283.983	42.67
284.198	42.67
284.413	26.28
284.628	52.91
284.843	128.68
285.058	26.28
285.274	-14.68
285.489	-14.68
285.704	-14.68
285.919	34.47
286.134	-63.83
286.349	-4.44
286.564	95.91
286.779	71.34
286.995	-29.01
287.21	1.71
287.425	7.85
287.64	-12.63
287.855	16.04
288.07	-31.06
288.285	18.09
288.5	34.47
288.715	40.62
288.93	57
289.145	24.23
289.36	16.04
289.575	7.85
289.79	20.14
290.004	9.9
290.219	3.75
290.434	44.71
290.649	-47.44
290.864	-18.77
291.079	34.47
291.294	30.38
291.509	20.14
291.724	50.86
291.938	1.71
292.153	-29.01
292.368	5.8
292.583	5.8
292.798	30.38
293.012	24.23
293.227	11.95
293.442	3.75
293.657	42.67
293.871	75.43
294.086	42.67
294.301	52.91
294.516	-33.11
294.73	28.33
294.945	-14.68
295.16	9.9
295.374	42.67
295.589	69.29
295.804	-6.49
296.018	18.09
296.233	48.81
296.447	67.24
296.662	-12.63
296.877	50.86
297.091	-10.58
297.306	9.9
297.52	3.75
297.735	75.43
297.949	42.67
298.164	-4.44
298.378	54.95
298.593	-26.96
298.807	1.71
299.022	30.38
299.236	-14.68
299.451	-10.58
299.665	-29.01
299.88	28.33
300.094	16.04
300.309	42.67
300.523	46.76
300.737	-12.63
300.952	83.63
301.166	85.67
301.381	18.09
301.595	40.62
301.809	9.9
302.024	20.14
302.238	-31.06
302.452	26.28
302.667	-6.49
302.881	26.28
303.095	71.34
303.309	16.04
303.524	-63.83
303.738	-16.73
303.952	22.19
304.166	1.71
304.381	7.85
304.595	13.99
304.809	-20.82
305.023	59.05
305.237	-18.77
305.452	18.09
305.666	-14.68
305.88	112.3
306.094	26.28
306.308	50.86
306.522	59.05
306.736	28.33
306.95	-2.39
307.164	83.63
307.379	50.86
307.593	36.52
307.807	93.87
308.021	9.9
308.235	38.57
308.449	9.9
308.663	36.52
308.877	116.39
309.091	-63.83
309.305	5.8
309.519	-6.49
309.733	34.47
309.947	-53.59
310.161	102.06
310.374	50.86
310.588	-37.2
310.802	71.34
311.016	-39.25
311.23	67.24
311.444	16.04
311.658	-12.63
311.872	44.71
312.085	-24.92
312.299	73.39
312.513	52.91
312.727	-22.87
312.941	-20.82
313.154	22.19
313.368	11.95
313.582	-14.68
313.796	-39.25
314.009	40.62
314.223	75.43
314.437	83.63
314.651	44.71
314.864	-22.87
315.078	26.28
315.292	-35.16
315.505	-22.87
315.719	-12.63
315.933	85.67
316.146	30.38
316.36	26.28
316.573	77.48
316.787	28.33
317.001	3.75
317.214	-24.92
317.428	26.28
317.641	-20.82
317.855	-12.63
318.068	42.67
318.282	20.14
318.495	1.71
318.709	77.48
318.922	36.52
319.136	59.05
319.349	112.3
319.563	83.63
319.776	67.24
319.99	-22.87
320.203	-39.25
320.417	22.19
320.63	40.62
320.843	54.95
321.057	97.96
321.27	-47.44
321.483	13.99
321.697	28.33
321.91	34.47
322.124	46.76
322.337	-12.63
322.55	13.99
322.763	38.57
322.977	38.57
323.19	-63.83
323.403	-20.82
323.617	-4.44
323.83	-12.63
324.043	63.15
324.256	18.09
324.469	26.28
324.683	50.86
324.896	1.71
325.109	-10.58
325.322	-10.58
325.535	95.91
325.748	46.76
325.962	61.1
326.175	69.29
326.388	28.33
326.601	79.53
326.814	13.99
327.027	42.67
327.24	91.82
327.453	-22.87
327.666	54.95
327.879	50.86
328.092	54.95
328.305	-2.39
328.518	-20.82
328.731	-6.49
328.944	38.57
329.157	-16.73
329.37	24.23
329.583	-4.44
329.796	67.24
330.009	-14.68
330.222	42.67
330.435	11.95
330.648	1.71
330.861	-14.68
331.073	59.05
331.286	52.91
331.499	75.43
331.712	-2.39
331.925	-26.96
332.138	59.05
332.35	85.67
332.563	-4.44
332.776	54.95
332.989	-49.49
333.202	22.19
333.414	26.28
333.627	11.95
333.84	122.54
334.053	89.77
334.265	20.14
334.478	3.75
334.691	-6.49
334.903	-14.68
335.116	20.14
335.329	18.09
335.541	67.24
335.754	75.43
335.966	-72.02
336.179	-51.54
336.392	-12.63
336.604	-26.96
336.817	9.9
337.029	108.2
337.242	46.76
337.454	28.33
337.667	-37.2
337.88	81.58
338.092	52.91
338.305	18.09
338.517	24.23
338.729	20.14
338.942	34.47
339.154	3.75
339.367	-39.25
339.579	36.52
339.792	67.24
340.004	50.86
340.217	36.52
340.429	26.28
340.641	-63.83
340.854	-22.87
341.066	38.57
341.278	11.95
341.491	93.87
341.703	-37.2
341.915	1.71
342.128	32.43
342.34	122.54
342.552	22.19
342.764	-4.44
342.977	-2.39
343.189	63.15
343.401	20.14
343.613	30.38
343.826	22.19
344.038	-14.68
344.25	-2.39
344.462	-14.68
344.674	-37.2
344.886	5.8
345.099	59.05
345.311	36.52
345.523	28.33
345.735	71.34
345.947	-6.49
346.159	-47.44
346.371	-26.96
346.583	57
346.795	7.85
347.007	-12.63
347.219	59.05
347.431	-45.4
347.643	9.9
347.855	-10.58
348.067	153.26
348.279	-53.59
348.491	9.9
348.703	50.86
348.915	59.05
349.127	-59.73
349.339	-45.4
349.551	13.99
349.763	28.33
349.975	-2.39
350.187	3.75
350.399	77.48
350.61	42.67
350.822	-14.68
351.034	59.05
351.246	32.43
351.458	-12.63
351.669	93.87
351.881	42.67
352.093	-26.96
352.305	102.06
352.517	-6.49
352.728	11.95
352.94	-6.49
353.152	1.71
353.363	20.14
353.575	-2.39
353.787	52.91
353.999	61.1
354.21	77.48
354.422	-2.39
354.633	59.05
354.845	1.71
355.057	-31.06
355.268	-14.68
355.48	-29.01
355.692	30.38
355.903	-74.07
356.115	3.75
356.326	-78.16
356.538	46.76
356.749	18.09
356.961	34.47
357.172	32.43
357.384	9.9
357.595	93.87
357.807	44.71
358.018	28.33
358.23	-10.58
358.441	28.33
358.653	5.8
358.864	28.33
359.075	36.52
359.287	16.04
359.498	69.29
359.709	75.43
359.921	22.19
360.132	69.29
360.344	13.99
360.555	116.39
360.766	42.67
360.977	34.47
361.189	3.75
361.4	-4.44
361.611	71.34
361.823	28.33
362.034	20.14
362.245	-31.06
362.456	-6.49
362.667	-37.2
362.879	26.28
363.09	67.24
363.301	-22.87
363.512	-6.49
363.723	30.38
363.935	28.33
364.146	26.28
364.357	42.67
364.568	36.52
364.779	-0.34
364.99	93.87
365.201	-22.87
365.412	77.48
365.623	-26.96
365.834	1.71
366.045	91.82
366.256	1.71
366.467	34.47
366.678	-22.87
366.889	59.05
367.1	52.91
367.311	26.28
367.522	3.75
367.733	13.99
367.944	13.99
368.155	-57.68
368.366	106.15
368.577	16.04
368.788	100.01
368.999	34.47
369.209	-12.63
369.42	134.82
369.631	116.39
369.842	7.85
370.053	57
370.264	106.15
370.474	13.99
370.685	61.1
370.896	5.8
371.107	67.24
371.317	-6.49
371.528	46.76
371.739	69.29
371.95	87.72
372.16	81.58
372.371	-20.82
372.582	20.14
372.792	24.23
373.003	42.67
373.214	30.38
373.424	28.33
373.635	1.71
373.846	11.95
374.056	7.85
374.267	77.48
374.477	22.19
374.688	42.67
374.898	-72.02
375.109	-4.44
375.319	38.57
375.53	22.19
375.74	5.8
375.951	26.28
376.161	42.67
376.372	77.48
376.582	30.38
376.793	59.05
377.003	95.91
377.214	61.1
377.424	42.67
377.635	42.67
377.845	-14.68
378.055	61.1
378.266	-61.78
378.476	75.43
378.686	7.85
378.897	54.95
379.107	-4.44
379.317	65.19
379.528	9.9
379.738	26.28
379.948	52.91
380.158	-45.4
380.369	-0.34
380.579	52.91
380.789	69.29
380.999	59.05
381.21	61.1
381.42	59.05
381.63	3.75
381.84	42.67
382.05	100.01
382.261	38.57
382.471	44.71
382.681	79.53
382.891	48.81
383.101	57
383.311	61.1
383.521	38.57
383.731	22.19
383.941	36.52
384.151	44.71
384.361	89.77
384.571	18.09
384.781	16.04
384.991	81.58
385.201	93.87
385.411	59.05
385.621	89.77
385.831	91.82
386.041	61.1
386.251	40.62
386.461	30.38
386.671	71.34
386.881	61.1
387.091	50.86
387.301	22.19
387.511	34.47
387.72	69.29
387.93	65.19
388.14	5.8
388.35	-67.92
388.56	65.19
388.769	28.33
388.979	3.75
389.189	-0.34
389.399	100.01
389.609	48.81
389.818	38.57
390.028	89.77
390.238	34.47
390.447	-43.35
390.657	100.01
390.867	-33.11
391.076	52.91
391.286	28.33
391.496	-6.49
391.705	-22.87
391.915	95.91
392.125	40.62
392.334	50.86
392.544	102.06
392.753	18.09
392.963	22.19
393.172	50.86
393.382	73.39
393.591	118.44
393.801	-39.25
394.01	124.58
394.22	9.9
394.429	61.1
394.639	87.72
394.848	91.82
395.058	-43.35
395.267	67.24
395.477	65.19
395.686	112.3
395.895	16.04
396.105	87.72
396.314	34.47
396.524	38.57
396.733	69.29
396.942	18.09
397.152	128.68
397.361	149.16
397.57	38.57
397.78	30.38
397.989	104.11
398.198	126.63
398.407	26.28
398.617	50.86
398.826	93.87
399.035	128.68
399.244	52.91
399.453	59.05
399.663	132.78
399.872	132.78
400.081	69.29
400.29	151.21
400.499	42.67
400.708	108.2
400.917	91.82
401.127	52.91
401.336	26.28
401.545	71.34
401.754	108.2
401.963	126.63
402.172	69.29
402.381	132.78
402.59	50.86
402.799	22.19
403.008	36.52
403.217	59.05
403.426	120.49
403.635	63.15
403.844	83.63
404.053	126.63
404.262	155.3
404.471	167.59
404.68	177.83
404.888	104.11
405.097	-2.39
405.306	73.39
405.515	126.63
405.724	128.68
405.933	173.74
406.142	93.87
406.35	222.89
406.559	140.97
406.768	192.17
406.977	192.17
407.185	91.82
407.394	118.44
407.603	116.39
407.812	143.02
408.02	190.12
408.229	120.49
408.438	210.6
408.646	161.45
408.855	198.31
409.064	149.16
409.272	132.78
409.481	259.75
409.69	218.79
409.898	196.26
410.107	169.64
410.315	274.09
410.524	208.55
410.733	224.94
410.941	239.27
411.15	304.81
411.358	292.52
411.567	251.56
411.775	272.04
411.984	378.53
412.192	419.49
412.401	259.75
412.609	313
412.818	452.26
413.026	421.54
413.234	370.34
413.443	370.34
413.651	380.58
413.86	405.16
414.068	476.84
414.276	405.16
414.485	470.69
414.693	503.46
414.901	554.66
415.11	532.13
415.318	523.94
415.526	542.37
415.734	652.96
415.943	562.85
416.151	714.4
416.359	550.56
416.567	632.48
416.776	642.72
416.984	708.26
417.192	773.79
417.4	716.45
417.608	632.48
417.817	722.59
418.025	853.66
418.233	919.2
418.441	755.36
418.649	917.15
418.857	888.48
419.065	888.48
419.273	902.81
419.481	970.4
419.689	984.73
419.897	1087.13
420.105	1093.27
420.313	1136.28
420.521	1117.85
420.729	1191.58
420.937	1240.73
421.145	1265.3
421.353	1267.35
421.561	1353.37
421.769	1451.67
421.977	1429.14
422.185	1427.09
422.393	1578.64
422.601	1738.38
422.809	1609.36
423.017	1666.71
423.224	1693.33
423.432	1857.17
423.64	1775.25
423.848	1902.22
424.056	1787.54
424.263	2117.26
424.471	2139.79
424.679	2037.39
424.887	2119.31
425.094	2309.77
425.302	2311.82
425.51	2442.89
425.718	2449.03
425.925	2537.09
426.133	2485.89
426.341	2639.49
426.548	2793.09
426.756	2698.88
426.964	2764.42
427.171	2903.68
427.379	2967.17
427.586	3075.71
427.794	3163.77
428.001	3262.07
428.209	3550.84
428.417	3491.45
428.624	3790.45
428.832	3579.51
429.039	3636.85
429.247	3649.14
429.454	4023.92
429.662	4187.75
429.869	3944.05
430.076	4351.59
430.284	4114.03
430.491	4304.49
430.699	4527.72
430.906	4699.75
431.114	4703.84
431.321	4761.19
431.528	4925.02
431.736	5271.13
431.943	5416.54
432.15	5252.7
432.358	5467.74
432.565	5641.81
432.772	5623.38
432.979	5967.44
433.187	6067.79
433.394	6047.31
433.601	6383.18
433.808	6540.87
434.016	6379.08
434.223	6571.59
434.43	7116.35
434.637	7038.53
434.844	7390.78
435.052	7550.52
435.259	7628.34
435.466	7523.9
435.673	7493.18
435.88	8025.65
436.087	8353.32
436.294	8263.21
436.501	8064.56
436.708	8377.9
436.915	8599.08
437.122	8957.47
437.329	8924.71
437.537	9176.61
437.743	9424.41
437.95	9274.91
438.157	9586.2
438.364	10255.89
438.571	10067.47
438.778	10331.66
438.985	11046.4
439.192	10581.51
439.399	11118.08
439.606	10892.8
439.813	11478.52
440.02	11937.27
440.227	11912.69
440.433	11845.11
440.64	12340.72
440.847	12131.83
441.054	12348.91
441.261	13207.01
441.467	12918.25
441.674	13098.47
441.881	13819.35
442.088	13594.08
442.294	13579.74
442.501	13921.75
442.708	13979.09
442.914	14781.9
443.121	15173.06
443.328	15019.46
443.534	15893.94
443.741	15506.88
443.948	15097.28
444.154	16356.79
444.361	16250.29
444.568	16309.68
444.774	16330.16
444.981	16539.05
445.187	17190.31
445.394	17501.6
445.6	17534.37
445.807	19228.04
446.013	18312.6
446.22	18908.55
446.426	19529.09
446.633	19580.29
446.839	20501.87
447.046	19651.97
447.252	20299.12
447.459	20407.67
447.665	20563.31
447.871	21214.57
448.078	22113.63
448.284	21278.05
448.491	21796.19
448.697	22685.01
448.903	23346.5
449.11	23098.7
449.316	22863.18
449.522	23250.25
449.728	23676.23
449.935	24184.12
450.141	24010.04
450.347	24560.95
450.553	23831.87
450.76	23825.73
450.966	25171.24
451.172	24431.93
451.378	25550.12
451.584	24485.17
451.791	25337.13
451.997	25341.22
452.203	25419.05
452.409	25785.63
452.615	25421.09
452.821	24855.86
453.027	24339.77
453.233	25957.66
453.44	24519.99
453.646	24859.95
453.852	25007.41
454.058	25722.15
454.264	24245.56
454.47	25210.15
454.676	24712.5
454.882	25769.25
455.088	23526.72
455.294	23688.51
455.5	23752
455.705	24450.36
455.911	23162.19
456.117	22469.97
456.323	22596.95
456.529	21546.34
456.735	22277.46
456.941	21796.19
457.147	21628.26
457.352	20737.39
457.558	20485.49
457.764	20598.13
457.97	20278.65
458.176	19680.64
458.381	19731.84
458.587	18867.59
458.793	19017.1
458.999	17952.15
459.204	19258.76
459.41	18398.61
459.616	17552.8
459.821	17491.36
460.027	17493.41
460.233	16922.02
460.438	16459.18
460.644	16557.49
460.85	15504.83
461.055	15422.91
461.261	15263.17
461.466	14304.72
461.672	13624.79
461.878	14699.98
462.083	13725.15
462.289	13675.99
462.494	13420
462.7	12873.19
462.905	12484.08
463.111	12895.72
463.316	12883.43
463.522	12664.3
463.727	12535.28
463.932	12498.41
464.138	12649.96
464.343	12715.5
464.549	12213.74
464.754	12420.59
464.959	12522.99
465.165	12305.9
465.37	12000.76
465.575	11468.28
465.781	12047.86
465.986	11976.18
466.191	11781.62
466.397	11480.57
466.602	10814.98
466.807	11343.36
467.012	11535.87
467.218	11206.14
467.423	11093.51
467.628	11230.72
467.833	11417.08
468.038	11476.48
468.244	10841.61
468.449	11292.16
468.654	10915.33
468.859	10896.9
469.064	10814.98
469.269	10421.77
469.474	10462.73
469.679	10817.03
469.885	10348.04
470.09	10386.96
470.295	10354.19
470.5	10022.42
470.705	10266.13
470.91	9950.74
471.115	10053.14
471.32	10118.67
471.525	9993.75
471.73	9676.31
471.935	9831.96
472.139	9373.21
472.344	9586.2
472.549	9399.84
472.754	9270.81
472.959	9166.37
473.164	9082.4
473.369	8793.64
473.574	9330.2
473.778	9172.51
473.983	9176.61
474.188	9111.07
474.393	8523.3
474.598	8748.58
474.802	8449.58
475.007	8672.81
475.212	8588.84
475.417	8207.92
475.621	8332.84
475.826	8310.32
476.031	8089.14
476.235	7880.24
476.44	7982.64
476.645	7827
476.849	7734.84
477.054	7736.88
477.259	7738.93
477.463	7652.92
477.668	7571
477.872	7571
478.077	7388.73
478.282	7304.76
478.486	7343.67
478.691	7253.56
478.895	7255.61
479.1	6899.27
479.304	7145.02
479.509	6891.07
479.713	7018.05
479.918	6858.31
480.122	6813.25
480.326	6989.38
480.531	6972.99
480.735	6886.98
480.94	6626.89
481.144	7042.62
481.348	6671.94
481.553	6723.14
481.757	6426.18
481.961	6784.58
482.166	6811.2
482.37	6653.51
482.574	6587.97
482.778	6553.16
482.983	6514.25
483.187	6424.14
483.391	6760
483.595	6495.82
483.8	6571.59
484.004	6592.07
484.208	6585.93
484.412	6485.58
484.616	6594.12
484.821	6497.86
485.025	6508.1
485.229	6684.23
485.433	6547.01
485.637	6633.03
485.841	6540.87
486.045	6510.15
486.249	6587.97
486.453	6551.11
486.657	6630.98
486.861	6594.12
487.065	6598.21
487.269	6692.42
487.473	6391.37
487.677	6608.45
487.881	6522.44
488.085	6532.68
488.289	6510.15
488.493	6483.53
488.697	6499.91
488.901	6651.46
489.105	6635.08
489.309	6639.17
489.512	6673.99
489.716	6682.18
489.92	6739.52
490.124	6618.69
490.328	6807.11
490.531	6686.28
490.735	6815.3
490.939	6747.72
491.143	6739.52
491.346	6721.09
491.55	6798.91
491.754	6952.51
491.958	6942.27
492.161	6895.17
492.365	6772.29
492.569	6940.22
492.772	7122.49
492.976	7048.77
493.18	6991.42
493.383	7145.02
493.587	7124.54
493.79	7341.63
493.994	7284.28
494.197	7216.7
494.401	7411.26
494.605	7257.66
494.808	7466.55
495.012	7315
495.215	7638.58
495.419	7554.62
495.622	7759.41
495.825	7546.42
496.029	7648.82
496.232	7710.26
496.436	7816.76
496.639	7980.59
496.843	7812.66
497.046	8126
497.249	8027.7
497.453	8089.14
497.656	8267.31
497.859	8316.46
498.063	8336.94
498.266	8582.7
498.469	8515.11
498.673	8425
498.876	8724.01
499.079	8701.48
499.282	8930.85
499.485	8873.51
499.689	9096.74
499.892	9061.92
500.095	9367.07
500.298	9549.34
500.501	9412.12
500.705	9618.97
500.908	9762.33
501.111	9836.05
501.314	9881.11
501.517	9979.41
501.72	10092.05
501.923	10024.47
502.126	10235.41
502.329	10466.83
502.532	10571.27
502.735	10550.79
502.938	10876.42
503.141	10722.82
503.344	10937.86
503.547	10886.66
503.75	11103.75
503.953	11292.16
504.156	11363.84
504.359	11247.1
504.562	11505.15
504.765	11742.71
504.968	11896.31
505.17	12221.94
505.373	12006.9
505.576	12371.44
505.779	12346.86
505.982	12535.28
506.185	12783.08
506.387	12940.77
506.59	12994.02
506.793	13123.04
506.996	12793.32
507.198	13493.72
507.401	13405.66
507.604	13604.32
507.807	13923.8
508.009	13741.53
508.212	13766.1
508.415	14267.86
508.617	14376.4
508.82	14190.03
509.022	14386.64
509.225	14771.66
509.428	14937.54
509.63	14800.33
509.833	14992.84
510.035	15406.53
510.238	15394.24
510.44	15496.64
510.643	15967.67
510.845	16051.64
511.048	15877.56
511.25	16139.7
511.453	16305.59
511.655	16739.76
511.858	16563.63
512.06	16573.87
512.262	17122.73
512.465	16790.95
512.667	17208.74
512.87	17444.26
513.072	17468.83
513.274	17755.55
513.477	17782.17
513.679	17790.36
513.881	18238.87
514.084	18183.57
514.286	18769.29
514.488	18449.81
514.69	19111.3
514.893	19033.48
515.095	19248.52
515.297	19189.13
515.499	19531.14
515.701	19891.58
515.904	19707.26
516.106	19926.39
516.308	20340.08
516.51	20878.7
516.712	20473.2
516.914	20626.8
517.116	21175.66
517.318	21306.73
517.52	21261.67
517.722	21249.38
517.925	21718.37
518.127	21751.13
518.329	21886.3
518.531	21935.45
518.733	22582.61
518.935	22486.36
519.136	22469.97
519.338	22988.11
519.54	22818.13
519.742	23168.33
519.944	23450.95
520.146	23688.51
520.348	23985.47
520.55	23784.77
520.752	23815.49
520.954	24446.26
521.155	24102.2
521.357	24696.11
521.559	24862
521.761	25136.43
521.963	25101.61
522.164	25382.18
522.366	25703.71
522.568	25521.45
522.77	25783.59
522.971	26029.34
523.173	25718.05
523.375	26342.68
523.576	26227.99
523.778	26406.17
523.98	26907.92
524.181	26551.57
524.383	27137.29
524.584	27045.13
524.786	27518.21
524.988	26995.98
525.189	27667.72
525.391	27555.08
525.592	27819.27
525.794	27890.95
525.995	28095.74
526.197	27852.03
526.398	28243.2
526.6	28282.11
526.801	28476.66
527.003	28638.45
527.204	28609.78
527.406	29095.15
527.607	28992.75
527.808	29136.11
528.01	28624.12
528.211	29099.25
528.412	29295.85
528.614	29150.45
528.815	29193.45
529.016	29543.66
529.218	29349.1
529.419	29320.43
529.62	29525.22
529.822	29392.11
530.023	29308.14
530.224	29654.25
530.425	29758.69
530.626	29353.19
530.828	29398.25
531.029	30123.23
531.23	29658.34
531.431	29787.36
531.632	29813.99
531.833	29789.41
532.035	30145.76
532.236	30141.66
532.437	29867.23
532.638	30178.53
532.839	30399.71
533.04	30158.05
533.241	29891.81
533.442	30616.79
533.643	30235.87
533.844	30340.32
534.045	30504.15
534.246	30270.68
534.447	30414.04
534.648	30319.84
534.849	30278.88
535.05	29926.63
535.251	30201.05
535.451	30194.91
535.652	30573.78
535.853	30307.55
536.054	30194.91
536.255	30551.26
536.456	29943.01
536.657	30723.29
536.857	30442.71
537.058	30164.19
537.259	30321.88
537.46	30227.68
537.66	30217.44
537.861	30330.08
538.062	30139.61
538.263	30291.16
538.463	30201.05
538.664	30289.12
538.865	30391.51
539.065	30620.89
539.266	29945.06
539.466	30741.72
539.667	30080.22
539.868	30411.99
540.068	30338.27
540.269	30125.28
540.469	30379.23
540.67	30018.78
540.87	30051.55
541.071	30227.68
541.271	30162.14
541.472	30313.69
541.672	29975.78
541.873	29918.43
542.073	29603.05
542.274	30340.32
542.474	30141.66
542.675	30106.85
542.875	29990.11
543.075	29981.92
543.276	29947.11
543.476	30108.9
543.676	29560.04
543.877	30389.47
544.077	30125.28
544.277	29818.08
544.478	30065.89
544.678	29760.74
544.878	30006.5
545.078	30020.83
545.279	30037.22
545.479	29701.35
545.679	30065.89
545.879	29742.31
546.079	29920.48
546.28	29973.73
546.48	29560.04
546.68	29902.05
546.88	30192.86
547.08	29863.14
547.28	29877.47
547.48	29623.53
547.68	30115.04
547.88	29297.9
548.081	29992.16
548.281	29365.48
548.481	29682.92
548.681	29947.11
548.881	29664.49
549.081	30074.08
549.28	29680.87
549.48	29912.29
549.68	29541.61
549.88	30264.54
550.08	29273.32
550.28	29908.19
550.48	29629.67
550.68	30092.51
550.88	29246.7
551.08	29521.13
551.279	29732.07
551.479	29459.69
551.679	29687.01
551.879	29672.68
552.079	29742.31
552.278	29787.36
552.478	29508.84
552.678	29322.48
552.878	29678.82
553.077	29514.98
553.277	29582.57
553.477	29748.45
553.676	29342.95
553.876	29557.99
554.076	29594.86
554.275	29615.33
554.475	28816.63
554.674	29598.95
554.874	29531.37
555.074	29310.19
555.273	29459.69
555.473	29349.1
555.672	28878.07
555.872	29402.35
556.071	29105.39
556.271	29183.21
556.47	28941.55
556.67	28951.79
556.869	29601
557.068	29439.21
557.268	29134.06
557.467	29228.27
557.667	29129.97
557.866	29248.75
558.065	28935.41
558.265	28845.3
558.464	28699.89
558.663	29009.14
558.863	28443.9
559.062	29025.52
559.261	28792.05
559.461	29265.13
559.66	28470.52
559.859	28857.59
560.058	28630.26
560.258	28738.8
560.457	28605.69
560.656	28669.17
560.855	28247.29
561.054	28527.86
561.253	28402.94
561.453	28671.22
561.652	28458.23
561.851	28677.37
562.05	28286.2
562.249	28384.51
562.448	28384.51
562.647	28458.23
562.846	27741.44
563.045	27985.15
563.244	27725.06
563.443	28439.8
563.642	27833.6
563.841	27991.3
564.04	27770.11
564.239	28097.79
564.438	27725.06
564.637	27544.84
564.836	27976.96
565.035	27264.27
565.234	27669.76
565.432	27559.17
565.631	27323.66
565.83	27550.98
566.029	27309.32
566.228	27292.94
566.427	27317.51
566.625	27127.05
566.824	27067.66
567.023	27157.77
567.222	26610.96
567.42	27133.2
567.619	26848.53
567.818	26889.49
568.016	26725.65
568.215	26928.4
568.414	26932.5
568.612	26922.26
568.811	26512.66
569.01	26506.52
569.208	26602.77
569.407	26434.84
569.605	26332.44
569.804	26453.27
570.002	26238.23
570.201	26551.57
570.4	25914.66
570.598	25963.81
570.797	25820.45
570.995	25974.05
571.193	25619.75
571.392	26023.2
571.59	25398.57
571.789	25771.3
571.987	25732.39
572.186	25570.6
572.384	25355.56
572.582	25779.49
572.781	25312.55
572.979	25392.42
573.177	25554.21
573.376	25451.81
573.574	25355.56
573.772	25330.98
573.971	24970.54
574.169	25027.88
574.367	24669.49
574.565	25193.77
574.763	24984.88
574.962	24730.93
575.16	24505.65
575.358	24630.58
575.556	24163.64
575.754	24622.39
575.952	24497.46
576.151	24769.84
576.349	24376.63
576.547	24280.38
576.745	24259.9
576.943	24108.35
577.141	23891.26
577.339	23893.31
577.537	23874.88
577.735	23954.75
577.933	23838.01
578.131	24141.11
578.329	23657.79
578.527	23739.71
578.725	23846.21
578.923	23964.99
579.121	23518.53
579.319	23407.94
579.516	23248.2
579.714	23442.76
579.912	23350.6
580.11	23287.11
580.308	23065.93
580.506	23389.51
580.704	22918.48
580.901	23057.74
581.099	23276.87
581.297	22807.89
581.495	23172.43
581.692	22740.3
581.89	22670.67
582.088	22695.25
582.285	22598.99
582.483	22535.51
582.681	22656.34
582.878	22623.57
583.076	22218.07
583.274	22644.05
583.471	22203.74
583.669	22283.61
583.866	22281.56
584.064	22398.29
584.262	21724.51
584.459	22005.08
584.657	21902.68
584.854	21982.56
585.052	21718.37
585.249	21755.23
585.447	22009.18
585.644	21663.07
585.841	21810.53
586.039	21726.56
586.236	21587.3
586.434	21462.37
586.631	21357.92
586.828	21376.36
587.026	21429.6
587.223	21495.14
587.42	21415.27
587.618	21161.32
587.815	20747.63
588.012	21048.68
588.21	20977
588.407	21067.11
588.604	20940.14
588.801	20784.49
588.999	20673.9
589.196	20577.65
589.393	20381.04
589.59	20577.65
589.787	20352.37
589.984	20675.95
590.182	20116.86
590.379	20686.19
590.576	20135.29
590.773	20346.23
590.97	20141.43
591.167	20241.78
591.364	20123
591.561	19772.8
591.758	19864.96
591.955	19852.67
592.152	19910.01
592.349	19676.54
592.546	19807.61
592.743	19426.69
592.94	19459.46
593.137	19633.54
593.334	19758.46
593.531	19418.5
593.727	19467.65
593.924	19588.48
594.121	19422.59
594.318	19393.92
594.515	19285.38
594.712	19269
594.908	19342.72
595.105	19221.89
595.302	18914.7
595.499	18922.89
595.696	18830.73
595.892	18744.72
596.089	18877.83
596.286	18683.28
596.482	18744.72
596.679	18630.03
596.876	18525.58
597.072	18670.99
597.269	18754.96
597.466	18443.67
597.662	18533.78
597.859	18328.98
598.055	18533.78
598.252	18163.09
598.448	18165.14
598.645	17905.05
598.841	18079.13
599.038	18099.61
599.234	18245.01
599.431	18097.56
599.627	17755.55
599.824	17776.03
600.02	17620.38
600.217	17591.71
600.413	17839.51
600.609	17616.29
600.806	17438.11
601.002	17341.86
601.198	17704.35
601.395	17378.72
601.591	17370.53
601.787	17350.05
601.984	17128.87
602.18	17264.04
602.376	17149.35
602.572	17051.05
602.769	17216.93
602.965	16823.72
603.161	16778.67
603.357	16745.9
603.553	16897.45
603.75	17067.43
603.946	16868.78
604.142	16928.17
604.338	16571.82
604.534	16616.88
604.73	16465.33
604.926	16477.62
605.122	16500.14
605.318	16549.29
605.514	16123.32
605.71	16317.87
605.906	16338.35
606.102	16221.62
606.298	16387.5
606.494	16264.63
606.69	16139.7
606.886	16227.76
607.082	16018.87
607.278	16037.3
607.474	15859.13
607.67	16035.25
607.866	15984.05
608.062	16008.63
608.257	15984.05
608.453	15754.68
608.649	15977.91
608.845	15701.44
609.041	15580.6
609.236	15793.59
609.432	15478.21
609.628	15601.08
609.824	15746.49
610.019	15668.67
610.215	15609.28
610.411	15818.17
610.606	15551.93
610.802	15543.74
610.998	15472.06
611.193	15463.87
611.389	15162.82
611.584	15302.08
611.78	15101.38
611.976	15091.14
612.171	15263.17
612.367	15394.24
612.562	15066.56
612.758	15115.72
612.953	14833.1
613.149	15158.72
613.344	14863.82
613.539	15228.35
613.735	15037.89
613.93	15076.8
614.126	15177.16
614.321	14753.23
614.517	15115.72
614.712	14781.9
614.907	14792.14
615.103	15037.89
615.298	14640.59
615.493	14814.66
615.688	14601.68
615.884	15123.91
616.079	14704.07
616.274	14794.18
616.47	14716.36
616.665	14632.4
616.86	14437.84
617.055	14644.68
617.25	14552.52
617.445	14697.93
617.641	14378.45
617.836	14370.26
618.031	14276.05
618.226	14400.97
618.421	14208.47
618.616	14202.32
618.811	14050.77
619.006	14161.36
619.201	13757.91
619.396	13876.69
619.591	13815.26
619.786	14052.82
619.981	13678.04
620.176	14050.77
620.371	13610.46
620.566	13686.23
620.761	13606.36
620.956	13850.07
621.151	13420
621.346	13567.45
621.541	13614.55
621.735	13465.05
621.93	13161.95
622.125	13145.57
622.32	12899.81
622.515	13157.86
622.709	12985.83
622.904	13207.01
623.099	12903.91
623.294	12953.06
623.488	12957.16
623.683	12723.69
623.878	12541.42
624.072	12789.22
624.267	12525.04
624.462	12441.07
624.656	12266.99
624.851	12475.88
625.046	12264.94
625.24	12336.62
625.435	11937.27
625.629	11953.65
625.824	11914.74
626.018	11984.37
626.213	11617.79
626.407	11847.16
626.602	11630.07
626.796	11843.06
626.991	11638.27
627.185	11580.92
627.38	11290.11
627.574	11527.67
627.768	11277.82
627.963	11412.99
628.157	11220.48
628.352	11232.77
628.546	10941.96
628.74	11249.15
628.935	11095.55
629.129	10841.61
629.323	10763.78
629.517	10645
629.712	10798.6
629.906	10718.73
630.1	10571.27
630.294	10536.46
630.489	10407.44
630.683	10655.24
630.877	10296.85
631.071	10450.44
631.265	10319.37
631.459	10165.78
631.653	10436.11
631.848	10094.1
632.042	10069.52
632.236	10210.83
632.43	9926.16
632.624	10036.75
632.818	9762.33
633.012	9848.34
633.206	9690.65
633.4	9702.93
633.594	9649.69
633.788	9764.37
633.982	9707.03
634.176	9545.24
634.369	9573.91
634.563	9629.21
634.757	9360.92
634.951	9434.65
635.145	9319.96
635.339	9190.94
635.533	9221.66
635.726	9309.72
635.92	9160.22
636.114	9246.24
636.308	9000.48
636.501	9131.55
636.695	8994.34
636.889	8807.97
637.083	8803.88
637.276	8857.12
637.47	8760.87
637.664	8807.97
637.857	8701.48
638.051	8642.09
638.244	8562.22
638.438	8572.46
638.632	8449.58
638.825	8517.16
639.019	8496.68
639.212	8132.14
639.406	8277.55
639.599	8119.85
639.793	8042.03
639.986	8316.46
640.18	8197.68
640.373	8021.55
640.567	7988.78
640.76	7898.67
640.954	7915.06
641.147	7951.92
641.34	7857.71
641.534	7831.09
641.727	7761.46
641.92	7620.15
642.114	7657.01
642.307	7636.53
642.5	7636.53
642.694	7448.12
642.887	7358.01
643.08	7636.53
643.273	7470.65
643.467	7386.68
643.66	7194.17
643.853	7298.62
644.046	7132.73
644.239	7249.47
644.432	7253.56
644.626	7206.46
644.819	7222.84
645.012	7136.83
645.205	7054.91
645.398	7155.26
645.591	7102.01
645.784	6923.84
645.977	6815.3
646.17	6958.66
646.363	6813.25
646.556	6784.58
646.749	6747.72
646.942	6637.13
647.135	6735.43
647.328	6653.51
647.521	6653.51
647.714	6477.38
647.907	6542.92
648.099	6526.54
648.292	6508.1
648.485	6551.11
648.678	6282.83
648.871	6481.48
649.064	6317.64
649.256	6426.18
649.449	6235.72
649.642	6366.79
649.835	6280.78
650.027	6317.64
650.22	6047.31
650.413	6155.85
650.605	6055.5
650.798	5987.92
650.991	5983.82
651.183	6053.45
651.376	5842.51
651.568	5973.58
651.761	5994.06
651.954	5879.38
652.146	5989.97
652.339	5633.62
652.531	5666.39
652.724	5676.63
652.916	5776.98
653.109	5688.92
653.301	5836.37
653.494	5650
653.686	5514.84
653.879	5555.8
654.071	5553.75
654.263	5473.88
654.456	5590.61
654.648	5430.87
654.84	5375.58
655.033	5420.63
655.225	5482.07
655.417	5170.78
655.61	5332.57
655.802	5332.57
655.994	5158.49
656.186	5359.19
656.379	5189.21
656.571	5271.13
656.763	5164.64
656.955	5097.05
657.148	5232.22
657.34	5045.85
657.532	5033.57
657.724	4984.41
657.916	5019.23
658.108	5031.52
658.3	4990.56
658.492	4914.78
658.684	4714.08
658.876	4929.12
659.068	4896.35
659.26	4839.01
659.452	4949.6
659.644	4859.49
659.836	4703.84
660.028	4687.46
660.22	4728.42
660.412	4804.19
660.604	4607.59
660.796	4611.68
660.988	4585.06
661.18	4617.83
661.372	4540.01
661.563	4470.37
661.755	4492.9
661.947	4542.05
662.139	4515.43
662.331	4310.63
662.522	4404.84
662.714	4466.28
662.906	4327.02
663.097	4365.93
663.289	4355.69
663.481	4437.61
663.673	4286.06
663.864	4351.59
664.056	4253.29
664.247	4179.56
664.439	4267.63
664.631	4173.42
664.822	4269.67
665.014	4048.49
665.205	4171.37
665.397	4154.99
665.588	4144.75
665.78	4099.69
665.971	4073.07
666.163	4105.84
666.354	4130.41
666.546	4044.4
666.737	3892.85
666.929	3913.33
667.12	3905.14
667.311	4093.55
667.503	3894.9
667.694	3958.38
667.885	3835.5
668.077	3888.75
668.268	3831.41
668.459	3827.31
668.651	3837.55
668.842	3772.02
669.033	3810.93
669.224	3794.54
669.416	3837.55
669.607	3802.74
669.798	3704.43
669.989	3827.31
670.18	3786.35
670.371	3698.29
670.563	3585.65
670.754	3673.71
670.945	3561.08
671.136	3722.87
671.327	3540.6
671.518	3645.04
671.709	3690.1
671.9	3647.09
672.091	3593.84
672.282	3694.19
672.473	3573.36
672.664	3405.43
672.855	3659.38
673.046	3475.06
673.237	3765.87
673.428	3436.15
673.619	3499.64
673.809	3577.46
674	3542.64
674.191	3483.25
674.382	3466.87
674.573	3589.75
674.764	3374.71
674.954	3491.45
675.145	3487.35
675.336	3335.8
675.527	3450.49
675.717	3366.52
675.908	3540.6
676.099	3454.58
676.289	3427.96
676.48	3354.23
676.671	3257.98
676.861	3307.13
677.052	3341.94
677.243	3262.07
677.433	3286.65
677.624	3268.22
677.814	3327.61
678.005	3389.05
678.195	3249.79
678.386	3401.33
678.576	3354.23
678.767	3118.72
678.957	3145.34
679.148	3311.22
679.338	3313.27
679.529	3370.62
679.719	3368.57
679.909	3247.74
680.1	3249.79
680.29	3229.31
680.481	3180.15
680.671	3278.46
680.861	3188.35
681.052	3192.44
681.242	3204.73
681.432	3245.69
681.622	3114.62
681.813	3126.91
682.003	3212.92
682.193	3114.62
682.383	3227.26
682.573	3032.7
682.764	3214.97
682.954	3163.77
683.144	3174.01
683.334	3182.2
683.524	3131
683.714	3198.59
683.904	3163.77
684.094	3073.66
684.284	3231.35
684.474	3128.95
684.664	3118.72
684.854	3090.04
685.044	3024.51
685.234	3092.09
685.424	3131
685.614	3073.66
685.804	2967.17
685.994	3001.98
686.184	3040.89
686.374	3085.95
686.564	3077.76
686.753	3075.71
686.943	2940.54
687.133	3038.84
687.323	2893.44
687.513	2948.73
687.702	2936.45
687.892	2864.77
688.082	2829.95
688.272	2813.57
688.461	2911.87
688.651	2913.92
688.841	2877.05
689.03	2852.48
689.22	2788.99
689.41	2905.73
689.599	2879.1
689.789	2934.4
689.979	2836.1
690.168	2760.32
690.358	2756.22
690.547	2696.83
690.737	2809.47
690.926	2647.68
691.116	2774.66
691.305	2764.42
691.495	2721.41
691.684	2596.48
691.874	2657.92
692.063	2655.87
692.252	2623.11
692.442	2754.18
692.631	2676.35
692.82	2590.34
693.01	2596.48
693.199	2602.63
693.388	2700.93
693.578	2616.96
693.767	2672.26
693.956	2631.3
694.146	2590.34
694.335	2641.54
694.524	2535.04
694.713	2588.29
694.902	2637.44
695.092	2608.77
695.281	2547.33
695.47	2561.67
695.659	2457.22
695.848	2518.66
696.037	2471.56
696.226	2625.15
696.415	2610.82
696.604	2492.04
696.793	2485.89
696.982	2467.46
697.171	2543.24
697.36	2469.51
697.549	2576
697.738	2492.04
697.927	2451.08
698.116	2455.17
698.305	2432.65
698.494	2541.19
698.683	2475.65
698.872	2469.51
699.061	2442.89
699.25	2442.89
699.438	2477.7
699.627	2475.65
699.816	2551.43
700.005	2426.5
700.193	2434.69
700.382	2371.21
700.571	2379.4
700.76	2457.22
700.948	2446.98
701.137	2475.65
701.326	2467.46
701.514	2426.5
701.703	2449.03
701.892	2373.25
702.08	2516.61
702.269	2463.37
702.457	2430.6
702.646	2475.65
702.834	2453.13
703.023	2395.78
703.212	2442.89
703.4	2485.89
703.589	2303.62
703.777	2438.79
703.965	2465.41
704.154	2459.27
704.342	2223.75
704.531	2459.27
704.719	2467.46
704.907	2365.06
705.096	2389.64
705.284	2373.25
705.472	2393.73
705.661	2356.87
705.849	2403.97
706.037	2436.74
706.226	2475.65
706.414	2430.6
706.602	2363.01
706.79	2539.14
706.979	2410.12
707.167	2389.64
707.355	2313.86
707.543	2391.69
707.731	2332.3
707.919	2379.4
708.107	2416.26
708.296	2334.34
708.484	2231.94
708.672	2354.82
708.86	2461.32
709.048	2293.38
709.236	2412.17
709.424	2406.02
709.612	2348.68
709.8	2397.83
709.988	2313.86
710.176	2328.2
710.364	2330.25
710.551	2430.6
710.739	2266.76
710.927	2336.39
711.115	2328.2
711.303	2360.97
711.491	2297.48
711.679	2250.38
711.866	2311.82
712.054	2371.21
712.242	2432.65
712.43	2303.62
712.617	2311.82
712.805	2320.01
712.993	2426.5
713.181	2221.7
713.368	2289.29
713.556	2311.82
713.744	2231.94
713.931	2320.01
714.119	2199.18
714.306	2303.62
714.494	2324.1
714.682	2395.78
714.869	2414.21
715.057	2233.99
715.244	2223.75
715.432	2385.54
715.619	2303.62
715.807	2221.7
715.994	2313.86
716.182	2277
716.369	2365.06
716.556	2352.77
716.744	2315.91
716.931	2324.1
717.119	2348.68
717.306	2320.01
717.493	2397.83
717.681	2254.47
717.868	2213.51
718.055	2233.99
718.242	2307.72
718.43	2365.06
718.617	2264.71
718.804	2297.48
718.991	2248.33
719.179	2317.96
719.366	2250.38
719.553	2236.04
719.74	2250.38
719.927	2264.71
720.114	2283.14
720.301	2262.66
720.488	2262.66
720.676	2209.42
720.863	2309.77
721.05	2205.32
721.237	2270.86
721.424	2256.52
721.611	2162.31
721.798	2262.66
721.985	2184.84
722.172	2365.06
722.358	2188.94
722.545	2215.56
722.732	2221.7
722.919	2295.43
723.106	2223.75
723.293	2297.48
723.48	2162.31
723.667	2270.86
723.853	2098.83
724.04	2315.91
724.227	2297.48
724.414	2264.71
724.6	2229.9
724.787	2199.18
724.974	2217.61
725.161	2233.99
725.347	2205.32
725.534	2279.05
725.72	2238.09
725.907	2158.22
726.094	2160.27
726.28	2246.28
726.467	2205.32
726.653	2131.59
726.84	2176.65
727.027	2264.71
727.213	2193.03
727.4	2268.81
727.586	2141.83
727.773	2164.36
727.959	2184.84
728.145	2184.84
728.332	2201.23
728.518	2178.7
728.705	2336.39
728.891	2076.3
729.077	2188.94
729.264	2078.35
729.45	2180.75
729.636	2088.59
729.823	2098.83
730.009	2205.32
730.195	2084.49
730.382	2078.35
730.568	2182.79
730.754	2172.55
730.94	2223.75
731.126	2291.34
731.313	2221.7
731.499	2111.11
731.685	2139.79
731.871	2041.48
732.057	2100.87
732.243	2131.59
732.429	2147.98
732.615	2111.11
732.801	2186.89
732.987	2219.66
733.173	2090.63
733.359	2264.71
733.545	2291.34
733.731	2176.65
733.917	2162.31
734.103	2238.09
734.289	2115.21
734.475	2127.5
734.661	2209.42
734.847	2209.42
735.033	2119.31
735.219	2109.07
735.404	2078.35
735.59	2139.79
735.776	2109.07
735.962	2084.49
736.148	2109.07
736.333	2098.83
736.519	2059.92
736.705	1967.76
736.89	2051.72
737.076	2158.22
737.262	2082.44
737.447	2043.53
737.633	1992.33
737.819	2084.49
738.004	2053.77
738.19	2041.48
738.375	2094.73
738.561	2084.49
738.747	1965.71
738.932	2027.15
739.118	2158.22
739.303	2057.87
739.489	2043.53
739.674	2115.21
739.859	1967.76
740.045	2033.29
740.23	2049.68
740.416	1963.66
740.601	1984.14
740.786	2045.58
740.972	1994.38
741.157	1973.9
741.342	1902.22
741.528	2029.2
741.713	1926.8
741.898	2025.1
742.084	1947.28
742.269	1986.19
742.454	1889.93
742.639	1908.37
742.824	1881.74
743.01	1953.42
743.195	1889.93
743.38	1959.56
743.565	1914.51
743.75	2000.52
743.935	1861.26
744.12	1889.93
744.305	1844.88
744.49	1947.28
744.675	1863.31
744.86	1836.69
745.045	1910.41
745.23	1799.82
745.415	1818.25
745.6	1822.35
745.785	1660.56
745.97	1762.96
746.155	1742.48
746.34	1744.53
746.525	1730.19
746.71	1873.55
746.895	1765.01
747.079	1820.3
747.264	1797.78
747.449	1705.62
747.634	1771.15
747.819	1681.04
748.003	1601.17
748.188	1631.89
748.373	1699.47
748.557	1664.66
748.742	1740.43
748.927	1713.81
749.111	1545.88
749.296	1648.27
749.481	1560.21
749.665	1633.94
749.85	1607.31
750.034	1664.66
750.219	1566.35
750.404	1611.41
750.588	1509.01
750.773	1439.38
750.957	1601.17
751.141	1439.38
751.326	1525.4
751.51	1447.57
751.695	1445.52
751.879	1470.1
752.064	1410.71
752.248	1414.81
752.432	1521.3
752.617	1365.65
752.801	1461.91
752.985	1353.37
753.17	1349.27
753.354	1382.04
753.538	1427.09
753.722	1304.21
753.907	1318.55
754.091	1271.45
754.275	1336.98
754.459	1271.45
754.643	1271.45
754.828	1324.69
755.012	1300.12
755.196	1222.3
755.38	1226.39
755.564	1312.41
755.748	1169.05
755.932	1312.41
756.116	1232.54
756.3	1277.59
756.484	1189.53
756.668	1267.35
756.852	1189.53
757.036	1169.05
757.22	1183.38
757.404	1154.71
757.588	1148.57
757.772	1222.3
757.956	1085.08
758.14	1144.47
758.323	1097.37
758.507	1060.51
758.691	1171.1
758.875	1115.8
759.059	1185.43
759.242	1130.14
759.426	1044.12
759.61	1068.7
759.794	1042.07
759.977	1140.38
760.161	1087.13
760.345	1066.65
760.528	1017.5
760.712	1033.88
760.895	962.2
761.079	1001.12
761.263	960.16
761.446	1056.41
761.63	951.96
761.813	986.78
761.997	1001.12
762.18	945.82
762.364	976.54
762.547	913.05
762.731	935.58
762.914	968.35
763.098	960.16
763.281	1029.79
763.464	949.92
763.648	1003.16
763.831	939.68
764.015	890.53
764.198	968.35
764.381	870.05
764.564	929.44
764.748	902.81
764.931	923.29
765.114	935.58
765.297	863.9
765.481	857.76
765.664	943.77
765.847	853.66
766.03	943.77
766.213	824.99
766.397	898.72
766.58	812.7
766.763	927.39
766.946	792.22
767.129	849.57
767.312	755.36
767.495	868
767.678	845.47
767.861	796.32
768.044	839.33
768.227	808.61
768.41	861.85
768.593	800.41
768.776	827.04
768.959	796.32
769.142	865.95
769.324	837.28
769.507	851.61
769.69	765.6
769.873	757.41
770.056	806.56
770.239	822.94
770.421	763.55
770.604	804.51
770.787	773.79
770.97	757.41
771.152	689.82
771.335	743.07
771.518	736.93
771.7	777.89
771.883	827.04
772.066	734.88
772.248	702.11
772.431	773.79
772.613	751.26
772.796	618.15
772.978	732.83
773.161	704.16
773.343	718.5
773.526	657.06
773.708	665.25
773.891	804.51
774.073	738.98
774.256	642.72
774.438	683.68
774.621	628.39
774.803	700.06
774.985	700.06
775.168	702.11
775.35	632.48
775.532	683.68
775.715	636.58
775.897	700.06
776.079	560.8
776.261	585.38
776.444	562.85
776.626	634.53
776.808	634.53
776.99	558.75
777.173	612
777.355	591.52
777.537	587.43
777.719	605.86
777.901	636.58
778.083	575.14
778.265	544.42
778.447	560.8
778.629	464.55
778.811	618.15
778.993	536.23
779.175	542.37
779.357	558.75
779.539	480.93
779.721	509.6
779.903	466.6
780.085	495.27
780.267	450.21
780.449	495.27
780.631	501.41
780.812	566.95
780.994	534.18
781.176	530.08
781.358	517.79
781.54	485.03
781.721	495.27
781.903	433.83
782.085	487.08
782.267	534.18
782.448	468.64
782.63	456.36
782.812	573.09
782.993	493.22
783.175	460.45
783.357	360.1
783.538	419.49
783.72	411.3
783.901	407.2
784.083	448.16
784.264	343.72
784.446	394.92
784.627	372.39
784.809	415.4
784.99	382.63
785.172	382.63
785.353	411.3
785.535	396.96
785.716	439.97
785.897	362.15
786.079	362.15
786.26	419.49
786.441	378.53
786.623	421.54
786.804	353.96
786.985	419.49
787.167	454.31
787.348	345.77
787.529	435.88
787.71	419.49
787.891	347.81
788.073	306.85
788.254	292.52
788.435	411.3
788.616	349.86
788.797	345.77
788.978	337.57
789.159	308.9
789.34	321.19
789.522	308.9
789.703	331.43
789.884	288.42
790.065	362.15
790.246	376.48
790.427	331.43
790.607	292.52
790.788	372.39
790.969	265.89
791.15	349.86
791.331	200.36
791.512	298.66
791.693	194.22
791.874	257.7
792.054	349.86
792.235	313
792.416	249.51
792.597	304.81
792.778	333.48
792.958	306.85
793.139	247.46
793.32	323.24
793.5	188.07
793.681	329.38
793.862	282.28
794.042	298.66
794.223	239.27
794.404	325.29
794.584	253.61
794.765	288.42
794.945	263.85
795.126	267.94
795.306	274.09
795.487	261.8
795.667	247.46
795.848	290.47
796.028	210.6
796.209	210.6
796.389	298.66
796.57	296.61
796.75	255.65
796.93	206.5
797.111	290.47
797.291	306.85
797.471	231.08
797.652	165.54
797.832	267.94
798.012	337.57
798.192	253.61
798.373	251.56
798.553	265.89
798.733	231.08
798.913	222.89
799.093	214.7
799.274	255.65
799.454	190.12
799.634	222.89
799.814	169.64
799.994	206.5
800.174	177.83
800.354	124.58
800.534	198.31
800.714	247.46
800.894	136.87
801.074	222.89
801.254	186.02
801.434	198.31
801.614	239.27
801.794	165.54
801.974	714.4
802.154	241.32
802.334	231.08
802.514	186.02
802.693	216.74
802.873	151.21
803.053	257.7
803.233	296.61
803.413	165.54
803.592	181.93
803.772	206.5
803.952	143.02
804.131	159.4
804.311	173.74
804.491	206.5
804.67	163.5
804.85	157.35
805.03	192.17
805.209	214.7
805.389	167.59
805.568	181.93
805.748	183.98
805.928	218.79
806.107	186.02
806.287	194.22
806.466	237.22
806.646	140.97
806.825	124.58
807.004	206.5
807.184	173.74
807.363	157.35
807.543	106.15
807.722	159.4
807.901	214.7
808.081	124.58
808.26	157.35
808.439	194.22
808.619	169.64
808.798	126.63
808.977	181.93
809.156	202.41
809.336	145.06
809.515	163.5
809.694	116.39
809.873	132.78
810.052	85.67
810.231	181.93
810.411	130.73
810.59	77.48
810.769	171.69
810.948	190.12
811.127	100.01
811.306	128.68
811.485	161.45
811.664	116.39
811.843	181.93
812.022	149.16
812.201	196.26
812.38	143.02
812.559	151.21
812.737	173.74
812.916	134.82
813.095	91.82
813.274	108.2
813.453	151.21
813.632	100.01
813.811	177.83
813.989	116.39
814.168	149.16
814.347	143.02
814.526	169.64
814.704	175.78
814.883	167.59
815.062	67.24
815.24	136.87
815.419	110.25
815.598	112.3
815.776	161.45
815.955	118.44
816.133	159.4
816.312	143.02
816.49	143.02
816.669	50.86
816.847	18.09
817.026	216.74
817.204	100.01
817.383	75.43
817.561	81.58
817.74	128.68
817.918	81.58
818.097	26.28
818.275	-14.68
818.453	118.44
818.632	108.2
818.81	100.01
818.988	157.35
819.167	116.39
819.345	120.49
819.523	110.25
819.701	122.54
819.879	140.97
820.058	59.05
820.236	104.11
820.414	30.38
820.592	100.01
820.77	130.73
820.948	108.2
821.127	114.34
821.305	67.24
821.483	42.67
821.661	181.93
821.839	124.58
822.017	83.63
822.195	140.97
822.373	75.43
822.551	65.19
822.729	145.06
822.907	83.63
823.085	69.29
823.262	106.15
823.44	95.91
823.618	102.06
823.796	63.15
823.974	18.09
824.152	112.3
824.329	100.01
824.507	83.63
824.685	87.72
824.863	143.02
825.04	95.91
825.218	83.63
825.396	108.2
825.574	75.43
825.751	71.34
825.929	67.24
826.107	20.14
826.284	54.95
826.462	102.06
826.639	5.8
826.817	69.29
826.994	83.63
827.172	-2.39
827.349	85.67
827.527	59.05
827.704	87.72
827.882	100.01
828.059	-18.77
828.237	42.67
828.414	83.63
828.591	34.47
828.769	42.67
828.946	44.71
829.124	75.43
829.301	42.67
829.478	61.1
829.655	3.75
829.833	108.2
830.01	30.38
830.187	91.82
830.364	22.19
830.542	116.39
830.719	85.67
830.896	18.09
831.073	1.71
831.25	63.15
831.427	48.81
831.604	85.67
831.782	83.63
831.959	9.9
832.136	52.91
832.313	91.82
832.49	26.28
832.667	159.4
832.844	28.33
833.021	77.48
833.198	85.67
833.374	151.21
833.551	59.05
833.728	50.86
833.905	165.54
834.082	34.47
834.259	61.1
834.436	120.49
834.612	-2.39
834.789	79.53
834.966	34.47
835.143	140.97
835.319	-10.58
835.496	81.58
835.673	52.91
835.85	91.82
836.026	63.15
836.203	108.2
836.38	95.91
836.556	75.43
836.733	54.95
836.909	-20.82
837.086	50.86
837.262	-12.63
837.439	59.05
837.616	11.95
837.792	30.38
837.968	54.95
838.145	34.47
838.321	1.71
838.498	83.63
838.674	50.86
838.851	50.86
839.027	91.82
839.203	1.71
839.38	-4.44
839.556	13.99
839.732	104.11
839.909	42.67
840.085	-24.92
840.261	36.52
840.437	71.34
840.614	-22.87
840.79	42.67
840.966	-29.01
841.142	36.52
841.318	32.43
841.494	93.87
841.671	28.33
841.847	67.24
842.023	32.43
842.199	69.29
842.375	36.52
842.551	75.43
842.727	-6.49
842.903	38.57
843.079	24.23
843.255	85.67
843.431	1.71
843.607	91.82
843.783	-63.83
843.959	93.87
844.134	9.9
844.31	40.62
844.486	65.19
844.662	85.67
844.838	75.43
845.013	44.71
845.189	24.23
845.365	95.91
845.541	18.09
845.716	54.95
845.892	89.77
846.068	100.01
846.244	-20.82
846.419	89.77
846.595	59.05
846.77	46.76
846.946	28.33
847.122	52.91
847.297	-43.35
847.473	44.71
847.648	7.85
847.824	-4.44
847.999	30.38
848.175	65.19
848.35	-2.39
848.526	46.76
848.701	32.43
848.876	83.63
849.052	3.75
849.227	40.62
849.403	28.33
849.578	28.33
849.753	7.85
849.929	50.86
850.104	75.43
850.279	59.05
850.454	34.47
850.63	16.04
850.805	-12.63
850.98	20.14
851.155	67.24
851.33	-24.92
851.505	-39.25
851.681	67.24
851.856	-14.68
852.031	18.09
852.206	36.52
852.381	-22.87
852.556	38.57
852.731	28.33
852.906	50.86
853.081	24.23
853.256	34.47
853.431	1.71
853.606	42.67
853.781	59.05
853.956	1.71
854.131	11.95
854.305	-61.78
854.48	42.67
854.655	28.33
854.83	20.14
855.005	30.38
855.18	67.24
855.354	-39.25
855.529	22.19
855.704	11.95
855.879	67.24
856.053	-47.44
856.228	36.52
856.403	9.9
856.577	34.47
856.752	-37.2
856.926	3.75
857.101	50.86
857.276	83.63
857.45	61.1
857.625	1.71
857.799	18.09
857.974	28.33
858.148	-76.12
858.323	79.53
858.497	44.71
858.672	1.71
858.846	-26.96
859.02	59.05
859.195	18.09
859.369	93.87
859.543	24.23
859.718	54.95
859.892	32.43
860.066	-37.2
860.241	3.75
860.415	42.67
860.589	28.33
860.763	-26.96
860.938	50.86
861.112	30.38
861.286	-53.59
861.46	75.43
861.634	-69.97
861.808	1.71
861.982	38.57
862.157	5.8
862.331	-18.77
862.505	-59.73
862.679	20.14
862.853	28.33
863.027	1.71
863.201	54.95
863.375	-33.11
863.549	42.67
863.722	-18.77
863.896	77.48
864.07	34.47
864.244	38.57
864.418	1.71
864.592	5.8
864.766	-12.63
864.939	-39.25
865.113	-2.39
865.287	9.9
865.461	-14.68
865.634	-29.01
865.808	38.57
865.982	3.75
866.156	-29.01
866.329	1.71
866.503	-31.06
866.676	50.86
866.85	67.24
867.024	67.24
867.197	-0.34
867.371	1.71
867.544	18.09
867.718	-14.68
867.891	38.57
868.065	-4.44
868.238	18.09
868.412	1.71
868.585	18.09
868.759	65.19
868.932	-37.2
869.105	-43.35
869.279	-51.54
869.452	-24.92
869.625	-12.63
869.799	34.47
869.972	52.91
870.145	36.52
870.319	1.71
870.492	22.19
870.665	1.71
870.838	28.33
871.011	-43.35
871.185	46.76
871.358	-63.83
871.531	18.09
871.704	-4.44
871.877	16.04
872.05	-22.87
872.223	75.43
872.396	1.71
872.569	1.71
872.742	67.24
872.915	-51.54
873.088	3.75
873.261	50.86
873.434	50.86
873.607	-22.87
873.78	-24.92
873.953	36.52
874.126	-37.2
874.299	34.47
874.471	30.38
874.644	-22.87
874.817	38.57
874.99	28.33
875.163	26.28
875.335	26.28
875.508	-26.96
875.681	-14.68
875.853	-35.16
876.026	-6.49
876.199	-41.3
876.371	52.91
876.544	-43.35
876.717	34.47
876.889	18.09
877.062	20.14
877.234	-69.97
877.407	24.23
877.579	-12.63
877.752	-69.97
877.924	-47.44
878.097	18.09
878.269	-16.73
878.442	83.63
878.614	46.76
878.786	59.05
878.959	30.38
879.131	26.28
879.303	-6.49
879.476	24.23
879.648	-22.87
879.82	9.9
879.993	-51.54
880.165	-20.82
880.337	-47.44
880.509	9.9
880.681	-69.97
880.854	-35.16
881.026	-6.49
881.198	42.67
881.37	-18.77
881.542	-55.64
881.714	-14.68
881.886	9.9
882.058	-29.01
882.23	-6.49
882.402	26.28
882.574	52.91
882.746	-26.96
882.918	132.78
883.09	-29.01
883.262	-12.63
883.434	-26.96
883.606	5.8
883.778	20.14
883.95	75.43
884.122	7.85
884.293	38.57
884.465	30.38
884.637	1.71
884.809	-22.87
884.98	5.8
885.152	13.99
885.324	-20.82
885.496	-10.58
885.667	-10.58
885.839	1.71
886.011	24.23
886.182	-45.4
886.354	38.57
886.525	46.76
886.697	77.48
886.869	-14.68
887.04	-39.25
887.212	1.71
887.383	34.47
887.555	50.86
887.726	9.9
887.897	-39.25
888.069	9.9
888.24	-69.97
888.412	-45.4
888.583	-63.83
888.754	36.52
888.926	-55.64
889.097	18.09
889.268	44.71
889.44	13.99
889.611	-12.63
889.782	30.38
889.953	-33.11
890.125	63.15
890.296	-26.96
890.467	-16.73
890.638	30.38
890.809	5.8
890.98	-110.93
891.151	-10.58
891.323	26.28
891.494	16.04
891.665	67.24
891.836	-18.77
892.007	36.52
892.178	20.14
892.349	-4.44
892.52	-12.63
892.691	26.28
892.862	16.04
893.032	-22.87
893.203	-22.87
893.374	-45.4
893.545	28.33
893.716	-14.68
893.887	-10.58
894.057	9.9
894.228	-6.49
894.399	-26.96
894.57	-80.21
894.74	-35.16
894.911	18.09
895.082	-4.44
895.253	-43.35
895.423	-39.25
895.594	-22.87
895.764	-14.68
895.935	11.95
896.106	18.09
896.276	11.95
896.447	-94.55
896.617	-10.58
896.788	30.38
896.958	7.85
897.129	26.28
897.299	-63.83
897.47	-10.58
897.64	116.39
897.81	-29.01
897.981	30.38
898.151	-45.4
898.322	26.28
898.492	-31.06
898.662	-22.87
898.832	-72.02
899.003	18.09
899.173	-51.54
899.343	-65.88
899.513	-84.31
