Data from USB4F104151__290__14-23-46-936.txt Node

Date: Thu Mar 13 14:23:46 EDT 2025
User: louis
Spectrometer: USB4F10415
Trigger mode: 4
Integration Time (sec): 2.000000E-2
Scans to average: 1
Electric dark correction enabled: true
Nonlinearity correction enabled: false
Boxcar width: 0
XAxis mode: Wavelengths
Number of Pixels in Spectrum: 3648
>>>>>Begin Spectral Data<<<<<
178.204	-58.37
178.424	-58.37
178.644	-58.37
178.864	-95.23
179.084	-60.42
179.304	1.02
179.524	-17.41
179.744	95.23
179.964	29.7
180.184	3.07
180.404	-19.46
180.624	3.07
180.844	-60.42
181.064	-11.26
181.283	-19.46
181.503	7.17
181.723	-11.26
181.943	11.26
182.163	25.6
182.383	78.85
182.602	74.75
182.822	111.61
183.042	54.27
183.262	70.65
183.482	89.09
183.701	-27.65
183.921	-17.41
184.141	-3.07
184.361	25.6
184.58	37.89
184.8	82.94
185.02	15.36
185.239	37.89
185.459	-56.32
185.679	109.57
185.898	-27.65
186.118	62.46
186.338	25.6
186.557	31.74
186.777	17.41
186.997	-15.36
187.216	62.46
187.436	13.31
187.655	68.61
187.875	39.94
188.095	80.89
188.314	21.5
188.534	35.84
188.753	21.5
188.973	29.7
189.192	21.5
189.412	87.04
189.631	17.41
189.851	29.7
190.07	87.04
190.29	58.37
190.509	39.94
190.729	-31.74
190.948	89.09
191.168	130.05
191.387	48.13
191.607	29.7
191.826	56.32
192.045	1.02
192.265	-9.22
192.484	-25.6
192.704	48.13
192.923	-68.61
193.142	136.19
193.362	66.56
193.581	-19.46
193.8	64.51
194.02	33.79
194.239	46.08
194.458	19.46
194.678	64.51
194.897	50.18
195.116	5.12
195.335	50.18
195.555	44.03
195.774	72.7
195.993	-25.6
196.212	70.65
196.432	48.13
196.651	37.89
196.87	33.79
197.089	95.23
197.308	17.41
197.528	39.94
197.747	68.61
197.966	37.89
198.185	29.7
198.404	64.51
198.623	11.26
198.842	119.81
199.062	46.08
199.281	115.71
199.5	3.07
199.719	-39.94
199.938	37.89
200.157	84.99
200.376	121.85
200.595	87.04
200.814	48.13
201.033	54.27
201.252	97.28
201.471	72.7
201.69	107.52
201.909	23.55
202.128	54.27
202.347	62.46
202.566	46.08
202.785	17.41
203.004	82.94
203.223	91.13
203.442	13.31
203.661	9.22
203.879	84.99
204.098	82.94
204.317	21.5
204.536	23.55
204.755	109.57
204.974	46.08
205.193	3.07
205.411	119.81
205.63	105.47
205.849	58.37
206.068	162.81
206.287	64.51
206.505	31.74
206.724	7.17
206.943	-9.22
207.162	70.65
207.381	138.24
207.599	76.8
207.818	74.75
208.037	23.55
208.255	84.99
208.474	33.79
208.693	19.46
208.911	89.09
209.13	-3.07
209.349	128
209.567	107.52
209.786	95.23
210.005	68.61
210.223	1.02
210.442	-60.42
210.661	31.74
210.879	41.98
211.098	103.42
211.316	3.07
211.535	70.65
211.753	9.22
211.972	89.09
212.191	29.7
212.409	62.46
212.628	111.61
212.846	39.94
213.065	87.04
213.283	56.32
213.502	82.94
213.72	15.36
213.938	62.46
214.157	66.56
214.375	82.94
214.594	-5.12
214.812	80.89
215.031	41.98
215.249	50.18
215.467	-7.17
215.686	76.8
215.904	103.42
216.122	136.19
216.341	72.7
216.559	64.51
216.778	84.99
216.996	95.23
217.214	95.23
217.432	35.84
217.651	39.94
217.869	33.79
218.087	72.7
218.306	-25.6
218.524	74.75
218.742	97.28
218.96	29.7
219.179	68.61
219.397	78.85
219.615	66.56
219.833	31.74
220.051	29.7
220.27	48.13
220.488	50.18
220.706	70.65
220.924	50.18
221.142	87.04
221.36	25.6
221.578	70.65
221.796	91.13
222.015	78.85
222.233	89.09
222.451	50.18
222.669	21.5
222.887	105.47
223.105	31.74
223.323	121.85
223.541	-9.22
223.759	60.42
223.977	95.23
224.195	72.7
224.413	107.52
224.631	66.56
224.849	44.03
225.067	62.46
225.285	29.7
225.503	44.03
225.721	29.7
225.939	54.27
226.157	54.27
226.375	146.43
226.592	-29.7
226.81	19.46
227.028	25.6
227.246	62.46
227.464	41.98
227.682	70.65
227.9	60.42
228.117	58.37
228.335	103.42
228.553	5.12
228.771	64.51
228.989	82.94
229.206	46.08
229.424	50.18
229.642	41.98
229.86	5.12
230.077	35.84
230.295	84.99
230.513	119.81
230.731	52.22
230.948	31.74
231.166	109.57
231.384	21.5
231.601	39.94
231.819	70.65
232.037	-33.79
232.254	72.7
232.472	99.33
232.689	-17.41
232.907	99.33
233.125	99.33
233.342	1.02
233.56	119.81
233.777	62.46
233.995	99.33
234.213	60.42
234.43	82.94
234.648	17.41
234.865	46.08
235.083	60.42
235.3	5.12
235.518	78.85
235.735	37.89
235.953	78.85
236.17	56.32
236.388	29.7
236.605	29.7
236.822	72.7
237.04	109.57
237.257	37.89
237.475	13.31
237.692	109.57
237.909	78.85
238.127	103.42
238.344	99.33
238.562	56.32
238.779	-9.22
238.996	54.27
239.214	41.98
239.431	46.08
239.648	33.79
239.865	3.07
240.083	97.28
240.3	121.85
240.517	5.12
240.735	31.74
240.952	152.57
241.169	78.85
241.386	-17.41
241.603	138.24
241.821	-19.46
242.038	91.13
242.255	82.94
242.472	29.7
242.689	56.32
242.907	15.36
243.124	107.52
243.341	29.7
243.558	-29.7
243.775	-1.02
243.992	7.17
244.209	31.74
244.426	136.19
244.643	78.85
244.86	48.13
245.078	7.17
245.295	-19.46
245.512	62.46
245.729	-27.65
245.946	76.8
246.163	31.74
246.38	5.12
246.597	54.27
246.814	15.36
247.031	39.94
247.248	-3.07
247.464	19.46
247.681	48.13
247.898	89.09
248.115	121.85
248.332	91.13
248.549	121.85
248.766	46.08
248.983	121.85
249.2	17.41
249.417	84.99
249.633	64.51
249.85	-1.02
250.067	78.85
250.284	29.7
250.501	97.28
250.717	113.66
250.934	29.7
251.151	5.12
251.368	25.6
251.585	78.85
251.801	-9.22
252.018	35.84
252.235	91.13
252.451	25.6
252.668	5.12
252.885	21.5
253.102	37.89
253.318	41.98
253.535	56.32
253.752	-11.26
253.968	105.47
254.185	56.32
254.401	-9.22
254.618	46.08
254.835	58.37
255.051	148.48
255.268	37.89
255.484	78.85
255.701	5.12
255.917	41.98
256.134	11.26
256.351	82.94
256.567	68.61
256.784	64.51
257	-37.89
257.217	25.6
257.433	70.65
257.65	107.52
257.866	78.85
258.082	72.7
258.299	13.31
258.515	97.28
258.732	56.32
258.948	78.85
259.165	37.89
259.381	56.32
259.597	46.08
259.814	62.46
260.03	29.7
260.246	15.36
260.463	37.89
260.679	103.42
260.895	109.57
261.112	39.94
261.328	23.55
261.544	80.89
261.761	113.66
261.977	50.18
262.193	-48.13
262.409	35.84
262.626	15.36
262.842	19.46
263.058	29.7
263.274	62.46
263.49	113.66
263.707	144.38
263.923	74.75
264.139	-11.26
264.355	29.7
264.571	19.46
264.787	9.22
265.004	113.66
265.22	80.89
265.436	1.02
265.652	93.18
265.868	50.18
266.084	37.89
266.3	31.74
266.516	29.7
266.732	60.42
266.948	39.94
267.164	44.03
267.38	62.46
267.596	82.94
267.812	93.18
268.028	35.84
268.244	54.27
268.46	31.74
268.676	62.46
268.892	56.32
269.108	-7.17
269.324	-3.07
269.54	58.37
269.756	80.89
269.972	9.22
270.188	37.89
270.403	37.89
270.619	37.89
270.835	58.37
271.051	9.22
271.267	39.94
271.483	48.13
271.698	95.23
271.914	103.42
272.13	68.61
272.346	56.32
272.562	41.98
272.777	128
272.993	62.46
273.209	17.41
273.425	58.37
273.64	87.04
273.856	3.07
274.072	68.61
274.287	54.27
274.503	33.79
274.719	27.65
274.934	44.03
275.15	62.46
275.366	37.89
275.581	78.85
275.797	74.75
276.012	74.75
276.228	50.18
276.444	87.04
276.659	144.38
276.875	62.46
277.09	29.7
277.306	99.33
277.521	48.13
277.737	3.07
277.952	64.51
278.168	70.65
278.383	41.98
278.599	37.89
278.814	70.65
279.03	117.76
279.245	95.23
279.461	78.85
279.676	99.33
279.892	91.13
280.107	84.99
280.322	87.04
280.538	87.04
280.753	-11.26
280.969	89.09
281.184	37.89
281.399	70.65
281.615	54.27
281.83	74.75
282.045	50.18
282.26	31.74
282.476	21.5
282.691	48.13
282.906	9.22
283.122	54.27
283.337	-23.55
283.552	31.74
283.767	-15.36
283.983	136.19
284.198	72.7
284.413	62.46
284.628	130.05
284.843	87.04
285.058	80.89
285.274	39.94
285.489	33.79
285.704	119.81
285.919	44.03
286.134	39.94
286.349	70.65
286.564	70.65
286.779	113.66
286.995	-19.46
287.21	13.31
287.425	121.85
287.64	9.22
287.855	87.04
288.07	13.31
288.285	134.14
288.5	44.03
288.715	89.09
288.93	-52.22
289.145	21.5
289.36	160.77
289.575	64.51
289.79	91.13
290.004	46.08
290.219	76.8
290.434	70.65
290.649	41.98
290.864	46.08
291.079	68.61
291.294	144.38
291.509	-5.12
291.724	37.89
291.938	39.94
292.153	87.04
292.368	48.13
292.583	7.17
292.798	58.37
293.012	9.22
293.227	-1.02
293.442	25.6
293.657	64.51
293.871	74.75
294.086	15.36
294.301	68.61
294.516	-7.17
294.73	23.55
294.945	-19.46
295.16	48.13
295.374	103.42
295.589	121.85
295.804	21.5
296.018	62.46
296.233	37.89
296.447	87.04
296.662	-1.02
296.877	144.38
297.091	33.79
297.306	103.42
297.52	29.7
297.735	60.42
297.949	95.23
298.164	46.08
298.378	78.85
298.593	29.7
298.807	21.5
299.022	103.42
299.236	56.32
299.451	21.5
299.665	54.27
299.88	66.56
300.094	87.04
300.309	-3.07
300.523	19.46
300.737	84.99
300.952	37.89
301.166	52.22
301.381	17.41
301.595	13.31
301.809	58.37
302.024	5.12
302.238	-19.46
302.452	82.94
302.667	23.55
302.881	121.85
303.095	113.66
303.309	72.7
303.524	-7.17
303.738	-68.61
303.952	-19.46
304.166	70.65
304.381	-3.07
304.595	72.7
304.809	54.27
305.023	64.51
305.237	33.79
305.452	29.7
305.666	160.77
305.88	1.02
306.094	58.37
306.308	60.42
306.522	3.07
306.736	52.22
306.95	84.99
307.164	78.85
307.379	89.09
307.593	121.85
307.807	1.02
308.021	-41.98
308.235	46.08
308.449	50.18
308.663	-3.07
308.877	109.57
309.091	89.09
309.305	64.51
309.519	21.5
309.733	97.28
309.947	27.65
310.161	91.13
310.374	46.08
310.588	66.56
310.802	19.46
311.016	23.55
311.23	-27.65
311.444	11.26
311.658	-3.07
311.872	23.55
312.085	80.89
312.299	119.81
312.513	72.7
312.727	5.12
312.941	31.74
313.154	80.89
313.368	29.7
313.582	113.66
313.796	99.33
314.009	-1.02
314.223	68.61
314.437	54.27
314.651	29.7
314.864	91.13
315.078	17.41
315.292	62.46
315.505	44.03
315.719	91.13
315.933	41.98
316.146	17.41
316.36	31.74
316.573	70.65
316.787	62.46
317.001	-1.02
317.214	17.41
317.428	91.13
317.641	70.65
317.855	58.37
318.068	54.27
318.282	46.08
318.495	91.13
318.709	58.37
318.922	80.89
319.136	9.22
319.349	117.76
319.563	39.94
319.776	21.5
319.99	58.37
320.203	54.27
320.417	82.94
320.63	89.09
320.843	119.81
321.057	-9.22
321.27	58.37
321.483	58.37
321.697	39.94
321.91	56.32
322.124	41.98
322.337	-13.31
322.55	50.18
322.763	97.28
322.977	74.75
323.19	13.31
323.403	-27.65
323.617	72.7
323.83	84.99
324.043	-17.41
324.256	33.79
324.469	70.65
324.683	31.74
324.896	58.37
325.109	72.7
325.322	31.74
325.535	95.23
325.748	78.85
325.962	7.17
326.175	82.94
326.388	101.37
326.601	87.04
326.814	46.08
327.027	109.57
327.24	54.27
327.453	-39.94
327.666	46.08
327.879	125.95
328.092	95.23
328.305	13.31
328.518	33.79
328.731	41.98
328.944	1.02
329.157	44.03
329.37	56.32
329.583	58.37
329.796	89.09
330.009	11.26
330.222	97.28
330.435	136.19
330.648	35.84
330.861	13.31
331.073	91.13
331.286	105.47
331.499	125.95
331.712	15.36
331.925	35.84
332.138	-5.12
332.35	-3.07
332.563	33.79
332.776	82.94
332.989	35.84
333.202	95.23
333.414	82.94
333.627	27.65
333.84	54.27
334.053	82.94
334.265	3.07
334.478	78.85
334.691	13.31
334.903	-3.07
335.116	64.51
335.329	29.7
335.541	13.31
335.754	56.32
335.966	15.36
336.179	130.05
336.392	46.08
336.604	31.74
336.817	74.75
337.029	64.51
337.242	-1.02
337.454	-7.17
337.667	58.37
337.88	29.7
338.092	111.61
338.305	107.52
338.517	91.13
338.729	123.9
338.942	54.27
339.154	70.65
339.367	56.32
339.579	9.22
339.792	74.75
340.004	89.09
340.217	54.27
340.429	113.66
340.641	33.79
340.854	62.46
341.066	-1.02
341.278	97.28
341.491	80.89
341.703	66.56
341.915	21.5
342.128	48.13
342.34	105.47
342.552	76.8
342.764	3.07
342.977	117.76
343.189	66.56
343.401	50.18
343.613	54.27
343.826	72.7
344.038	89.09
344.25	64.51
344.462	-19.46
344.674	105.47
344.886	99.33
345.099	78.85
345.311	82.94
345.523	41.98
345.735	87.04
345.947	17.41
346.159	89.09
346.371	78.85
346.583	87.04
346.795	119.81
347.007	46.08
347.219	80.89
347.431	74.75
347.643	123.9
347.855	48.13
348.067	78.85
348.279	33.79
348.491	29.7
348.703	78.85
348.915	-3.07
349.127	15.36
349.339	13.31
349.551	171.01
349.763	15.36
349.975	95.23
350.187	70.65
350.399	50.18
350.61	103.42
350.822	74.75
351.034	46.08
351.246	144.38
351.458	95.23
351.669	-9.22
351.881	111.61
352.093	93.18
352.305	13.31
352.517	119.81
352.728	95.23
352.94	-58.37
353.152	46.08
353.363	3.07
353.575	103.42
353.787	95.23
353.999	19.46
354.21	74.75
354.422	72.7
354.633	56.32
354.845	50.18
355.057	-62.46
355.268	78.85
355.48	130.05
355.692	56.32
355.903	56.32
356.115	39.94
356.326	72.7
356.538	27.65
356.749	93.18
356.961	119.81
357.172	46.08
357.384	70.65
357.595	97.28
357.807	27.65
358.018	33.79
358.23	21.5
358.441	99.33
358.653	142.33
358.864	21.5
359.075	64.51
359.287	48.13
359.498	168.96
359.709	76.8
359.921	37.89
360.132	87.04
360.344	15.36
360.555	62.46
360.766	21.5
360.977	-35.84
361.189	130.05
361.4	93.18
361.611	66.56
361.823	52.22
362.034	78.85
362.245	-11.26
362.456	70.65
362.667	121.85
362.879	66.56
363.09	35.84
363.301	58.37
363.512	39.94
363.723	-7.17
363.935	15.36
364.146	160.77
364.357	46.08
364.568	87.04
364.779	1.02
364.99	87.04
365.201	109.57
365.412	52.22
365.623	25.6
365.834	142.33
366.045	25.6
366.256	74.75
366.467	44.03
366.678	48.13
366.889	33.79
367.1	13.31
367.311	62.46
367.522	21.5
367.733	95.23
367.944	101.37
368.155	80.89
368.366	-3.07
368.577	70.65
368.788	105.47
368.999	62.46
369.209	89.09
369.42	173.05
369.631	136.19
369.842	95.23
370.053	70.65
370.264	70.65
370.474	13.31
370.685	54.27
370.896	62.46
371.107	175.1
371.317	80.89
371.528	29.7
371.739	62.46
371.95	27.65
372.16	33.79
372.371	-17.41
372.582	78.85
372.792	82.94
373.003	128
373.214	19.46
373.424	39.94
373.635	-13.31
373.846	132.09
374.056	113.66
374.267	31.74
374.477	103.42
374.688	64.51
374.898	72.7
375.109	46.08
375.319	78.85
375.53	132.09
375.74	93.18
375.951	29.7
376.161	62.46
376.372	50.18
376.582	39.94
376.793	164.86
377.003	76.8
377.214	29.7
377.424	105.47
377.635	-33.79
377.845	78.85
378.055	148.48
378.266	84.99
378.476	-7.17
378.686	62.46
378.897	95.23
379.107	87.04
379.317	21.5
379.528	93.18
379.738	39.94
379.948	13.31
380.158	113.66
380.369	62.46
380.579	91.13
380.789	117.76
380.999	74.75
381.21	105.47
381.42	123.9
381.63	54.27
381.84	78.85
382.05	58.37
382.261	78.85
382.471	25.6
382.681	41.98
382.891	46.08
383.101	156.67
383.311	54.27
383.521	58.37
383.731	66.56
383.941	140.29
384.151	41.98
384.361	54.27
384.571	72.7
384.781	-11.26
384.991	105.47
385.201	123.9
385.411	80.89
385.621	107.52
385.831	56.32
386.041	80.89
386.251	80.89
386.461	109.57
386.671	44.03
386.881	37.89
387.091	21.5
387.301	103.42
387.511	78.85
387.72	80.89
387.93	23.55
388.14	46.08
388.35	93.18
388.56	123.9
388.769	119.81
388.979	82.94
389.189	-19.46
389.399	39.94
389.609	74.75
389.818	103.42
390.028	140.29
390.238	66.56
390.447	136.19
390.657	146.43
390.867	119.81
391.076	74.75
391.286	80.89
391.496	72.7
391.705	54.27
391.915	89.09
392.125	156.67
392.334	87.04
392.544	156.67
392.753	107.52
392.963	97.28
393.172	136.19
393.382	95.23
393.591	111.61
393.801	76.8
394.01	142.33
394.22	128
394.429	125.95
394.639	64.51
394.848	136.19
395.058	91.13
395.267	105.47
395.477	168.96
395.686	97.28
395.895	168.96
396.105	29.7
396.314	48.13
396.524	111.61
396.733	111.61
396.942	136.19
397.152	146.43
397.361	138.24
397.57	113.66
397.78	101.37
397.989	128
398.198	148.48
398.407	134.14
398.617	138.24
398.826	105.47
399.035	115.71
399.244	175.1
399.453	168.96
399.663	48.13
399.872	80.89
400.081	89.09
400.29	136.19
400.499	132.09
400.708	148.48
400.917	60.42
401.127	87.04
401.336	89.09
401.545	160.77
401.754	142.33
401.963	164.86
402.172	111.61
402.381	41.98
402.59	119.81
402.799	203.77
403.008	234.49
403.217	119.81
403.426	209.92
403.635	185.34
403.844	121.85
404.053	195.58
404.262	156.67
404.471	242.68
404.68	156.67
404.888	185.34
405.097	173.05
405.306	125.95
405.515	205.82
405.724	183.29
405.933	291.84
406.142	187.39
406.35	226.3
406.559	203.77
406.768	234.49
406.977	244.73
407.185	263.16
407.394	144.38
407.603	275.45
407.812	250.88
408.02	273.4
408.229	308.22
408.438	246.78
408.646	257.02
408.855	275.45
409.064	302.08
409.272	291.84
409.481	306.17
409.69	254.97
409.898	363.51
410.107	353.27
410.315	283.64
410.524	373.75
410.733	353.27
410.941	324.6
411.15	334.84
411.358	402.43
411.567	529.4
411.775	422.91
411.984	373.75
412.192	494.58
412.401	463.86
412.609	496.63
412.818	556.02
413.026	517.11
413.234	465.91
413.443	582.65
413.651	556.02
413.86	547.83
414.068	652.28
414.276	613.37
414.485	629.75
414.693	689.14
414.901	676.85
415.11	742.39
415.318	685.05
415.526	852.98
415.734	775.16
415.943	805.88
416.151	816.12
416.359	838.64
416.567	926.71
416.776	922.61
416.984	975.86
417.192	1018.86
417.4	1055.73
417.608	947.19
417.817	1106.93
418.025	1094.64
418.233	1139.69
418.441	1137.65
418.649	1186.8
418.857	1248.24
419.065	1342.44
419.273	1364.97
419.481	1328.11
419.689	1463.27
419.897	1577.96
420.105	1582.06
420.313	1522.66
420.521	1676.26
420.729	1676.26
420.937	1670.12
421.145	1713.13
421.353	1809.38
421.561	2032.61
421.769	1917.92
421.977	2102.24
422.185	2077.66
422.393	2184.16
422.601	2331.61
422.809	2307.04
423.017	2311.13
423.224	2477.02
423.432	2440.15
423.64	2401.24
423.848	2679.77
424.056	2712.53
424.263	2751.45
424.471	2839.51
424.679	2952.15
424.887	3027.92
425.094	3216.33
425.302	3218.38
425.51	3300.3
425.718	3453.9
425.925	3427.28
426.133	3509.19
426.341	3818.44
426.548	3947.46
426.756	3924.93
426.964	4043.71
427.171	4309.95
427.379	4455.36
427.586	4365.25
427.794	4490.17
428.001	4838.33
428.209	4926.39
428.417	4789.17
428.624	5170.1
428.832	5268.4
429.039	5100.47
429.247	5168.05
429.454	5567.4
429.662	6093.73
429.869	5544.88
430.076	6005.67
430.284	5782.44
430.491	6263.71
430.699	6628.25
430.906	6278.05
431.114	6689.69
431.321	6826.9
431.528	6853.53
431.736	7437.2
431.943	7787.4
432.15	7414.67
432.358	7623.56
432.565	7854.98
432.772	7848.84
432.979	8250.24
433.187	8452.99
433.394	8516.48
433.601	9155.44
433.808	8944.5
434.016	8971.13
434.223	9431.92
434.43	9845.61
434.637	9687.92
434.844	10300.26
435.052	10763.1
435.259	10478.43
435.466	10783.58
435.673	10490.72
435.88	11072.34
436.087	11637.58
436.294	11770.7
436.501	11404.11
436.708	11778.89
436.915	12110.66
437.122	12817.21
437.329	12561.22
437.537	13058.87
437.743	13314.87
437.95	13110.07
438.157	13665.07
438.364	14224.17
438.571	14406.44
438.778	14437.16
438.985	15495.96
439.192	15137.56
439.399	15588.11
439.606	15160.09
439.813	15985.42
440.02	17087.23
440.227	16929.53
440.433	16571.14
440.64	17027.84
440.847	16886.53
441.054	17359.61
441.261	18617.06
441.467	18383.59
441.674	18789.09
441.881	19409.62
442.088	19284.7
442.294	19034.85
442.501	19661.52
442.708	19933.9
442.914	20619.97
443.121	21693.11
443.328	20966.08
443.534	22710.95
443.741	22076.08
443.948	21768.88
444.154	23302.81
444.361	22987.43
444.568	23364.25
444.774	23034.53
444.981	23523.99
445.187	24187.53
445.394	25137.79
445.6	24894.08
445.807	27087.46
446.013	25918.07
446.22	26550.89
446.426	27470.43
446.633	27556.44
446.839	28799.56
447.046	27310.69
447.252	28944.97
447.459	28916.29
447.665	29192.77
447.871	29977.14
448.078	31681.05
448.284	29887.03
448.491	30966.31
448.697	32115.22
448.903	32856.59
449.11	32401.94
449.316	32154.13
449.522	32797.2
449.728	33634.81
449.935	34085.37
450.141	33606.14
450.347	34900.46
450.553	33071.62
450.76	34329.08
450.966	35244.52
451.172	34896.36
451.378	35758.56
451.584	35109.35
451.791	35744.22
451.997	35762.65
452.203	37011.92
452.409	36241.88
452.615	36327.89
452.821	34949.61
453.027	34744.81
453.233	36372.95
453.44	34800.11
453.646	35418.6
453.852	35553.76
454.058	36315.61
454.264	34841.07
454.47	35848.67
454.676	34787.82
454.882	36102.62
455.088	33073.67
455.294	33792.51
455.5	34359.8
455.705	34378.23
455.911	32993.8
456.117	32393.75
456.323	32252.44
456.529	30163.51
456.735	31969.82
456.941	31339.04
457.147	30663.21
457.352	29858.36
457.558	29362.75
457.764	29499.97
457.97	28924.49
458.176	28340.82
458.381	28340.82
458.587	26776.17
458.793	26835.56
458.999	25363.07
459.204	27531.87
459.41	26538.6
459.616	24826.5
459.821	24967.81
460.027	25180.8
460.233	24402.57
460.438	23122.59
460.644	23507.61
460.85	22309.55
461.055	21975.73
461.261	21600.95
461.466	20595.4
461.672	19700.44
461.878	21158.59
462.083	19862.22
462.289	19471.06
462.494	19301.08
462.7	18426.6
462.905	17724.15
463.111	18610.92
463.316	18617.06
463.522	18129.64
463.727	18109.16
463.932	18100.97
464.138	17881.84
464.343	18086.64
464.549	17373.94
464.754	17959.66
464.959	17967.85
465.165	17754.87
465.37	17206.01
465.575	16577.28
465.781	17380.09
465.986	17380.09
466.191	16810.75
466.397	16309
466.602	15397.65
466.807	16030.48
467.012	16145.16
467.218	16177.93
467.423	15813.39
467.628	16116.49
467.833	16560.9
468.038	15909.65
468.244	15852.3
468.449	16188.17
468.654	15606.55
468.859	15418.13
469.064	15489.81
469.269	15029.02
469.474	15137.56
469.679	15342.36
469.885	14840.61
470.09	14832.41
470.295	14861.09
470.5	14609.19
470.705	14668.58
470.91	14271.27
471.115	14232.36
471.32	14158.63
471.525	14347.05
471.73	13951.79
471.935	13988.65
472.139	13613.87
472.344	13663.02
472.549	13372.21
472.754	13292.34
472.959	13275.96
473.164	12981.05
473.369	12819.26
473.574	13126.46
473.778	13075.26
473.983	13269.81
474.188	12745.53
474.393	12333.89
474.598	12471.11
474.802	12188.49
475.007	12344.13
475.212	12096.33
475.417	11834.19
475.621	11985.74
475.826	11965.26
476.031	11498.32
476.235	11293.52
476.44	11881.29
476.645	11334.48
476.849	11232.08
477.054	11107.16
477.259	11127.64
477.463	11133.78
477.668	10802.01
477.872	10863.45
478.077	10720.09
478.282	10400.61
478.486	10361.7
478.691	10335.07
478.895	10351.46
479.1	10199.91
479.304	10271.59
479.509	9818.99
479.713	10255.2
479.918	9890.67
480.122	9775.98
480.326	9976.68
480.531	9677.68
480.735	9839.47
480.94	9653.1
481.144	9900.9
481.348	9581.42
481.553	9657.2
481.757	9544.56
481.961	9487.22
482.166	9438.06
482.37	9507.69
482.574	9460.59
482.778	9454.45
482.983	9622.38
483.187	9462.64
483.391	9624.43
483.595	9538.41
483.8	9460.59
484.004	9476.98
484.208	9581.42
484.412	9405.3
484.616	9575.28
484.821	9386.86
485.025	9352.05
485.229	9681.77
485.433	9309.04
485.637	9401.2
485.841	9327.47
486.045	9272.18
486.249	9411.44
486.453	9503.6
486.657	9433.97
486.861	9599.85
487.065	9159.54
487.269	9462.64
487.473	9194.36
487.677	9491.31
487.881	9425.78
488.085	9343.86
488.289	9614.19
488.493	9487.22
488.697	9522.03
488.901	9524.08
489.105	9683.82
489.309	9585.52
489.512	9573.23
489.716	9567.09
489.92	9556.85
490.124	9589.61
490.328	9677.68
490.531	9675.63
490.735	9669.48
490.939	9778.03
491.143	9724.78
491.346	9583.47
491.55	9802.6
491.754	9755.5
491.958	9859.95
492.161	9999.21
492.365	9921.38
492.569	9796.46
492.772	9683.82
492.976	10017.64
493.18	9958.25
493.383	10150.76
493.587	10330.98
493.79	10343.27
493.994	10181.48
494.197	10304.35
494.401	10466.14
494.605	10466.14
494.808	10625.89
495.012	10632.03
495.215	10720.09
495.419	10965.85
495.622	10756.96
495.825	10738.52
496.029	10949.46
496.232	11121.49
496.436	10980.18
496.639	11467.6
496.843	11123.54
497.046	11592.53
497.249	11670.35
497.453	11764.56
497.656	11805.52
497.859	12186.44
498.063	11846.48
498.266	12331.84
498.469	12190.53
498.673	12385.09
498.876	12598.08
499.079	12811.07
499.282	12337.99
499.485	12806.97
499.689	12849.98
499.892	13181.75
500.095	13124.41
500.298	13515.57
500.501	13370.16
500.705	13652.78
500.908	13798.19
501.111	13849.39
501.314	14390.05
501.517	14187.3
501.72	14394.15
501.923	14498.59
502.126	14678.82
502.329	14893.85
502.532	15016.73
502.735	15051.55
502.938	15258.39
503.141	15651.6
503.344	15942.41
503.547	15983.37
503.75	16096.01
503.953	16284.42
504.156	16374.53
504.359	16528.13
504.562	16554.76
504.765	16773.89
504.968	16771.84
505.17	17074.94
505.373	17156.86
505.576	17720.05
505.779	17820.4
505.982	17609.46
506.185	18221.8
506.387	18139.88
506.59	18240.23
506.793	18844.38
506.996	18828
507.198	19473.11
507.401	18748.13
507.604	19327.71
507.807	19905.23
508.009	19702.48
508.212	20105.93
508.415	20347.59
508.617	20345.55
508.82	20429.51
509.022	20396.74
509.225	20845.25
509.428	21127.87
509.63	21594.81
509.833	21385.91
510.035	21887.67
510.238	21666.49
510.44	21967.54
510.643	22446.76
510.845	22745.76
511.048	22522.54
511.25	22698.66
511.453	23311
511.655	23931.54
511.858	23913.11
512.06	23974.55
512.262	23976.59
512.465	23829.14
512.667	24388.24
512.87	25068.16
513.072	25074.31
513.274	25367.16
513.477	25447.04
513.679	25793.14
513.881	25682.55
514.084	26149.49
514.286	26360.43
514.488	26565.23
514.69	27030.12
514.893	27325.02
515.095	27187.81
515.297	27447.9
515.499	27570.78
515.701	27888.21
515.904	28562
516.106	28303.95
516.308	28826.18
516.51	29203.01
516.712	28914.25
516.914	29735.48
517.116	29971
517.318	29735.48
517.52	30450.22
517.722	30409.26
517.925	30558.77
518.127	31210.02
518.329	31318.56
518.531	31314.47
518.733	31547.93
518.935	31740.44
519.136	32006.68
519.338	32410.13
519.54	32502.29
519.742	32840.2
519.944	32891.4
520.146	33573.38
520.348	33509.89
520.55	33690.11
520.752	33864.19
520.954	34703.85
521.155	34595.31
521.357	34742.77
521.559	35387.88
521.761	35486.18
521.963	35459.55
522.164	35457.51
522.366	35824.09
522.568	36301.27
522.77	36424.15
522.971	37009.87
523.173	36547.03
523.375	36653.52
523.576	37140.94
523.778	36940.24
523.98	37593.54
524.181	37616.07
524.383	37896.64
524.584	38257.08
524.786	38187.45
524.988	38666.67
525.189	38683.06
525.391	38996.4
525.592	39254.44
525.794	39231.91
525.995	39029.16
526.197	39184.81
526.398	39207.34
526.6	39811.49
526.801	40020.38
527.003	40114.59
527.204	39987.61
527.406	40518.04
527.607	40454.55
527.808	40706.45
528.01	40126.88
528.211	40120.73
528.412	41046.41
528.614	40993.17
528.815	40978.83
529.016	41314.7
529.218	40577.43
529.419	41032.08
529.62	41193.87
529.822	41118.09
530.023	41257.35
530.224	41476.49
530.425	41712
530.626	41267.59
530.828	41453.96
531.029	42224
531.23	40903.06
531.431	41486.73
531.632	41593.22
531.833	41658.76
532.035	41838.98
532.236	41841.03
532.437	41875.84
532.638	41480.58
532.839	41984.38
533.04	42436.98
533.241	41877.89
533.442	42467.7
533.643	42129.79
533.844	41669
534.045	42201.47
534.246	41879.94
534.447	42078.59
534.648	41859.46
534.849	42101.12
535.05	41974.14
535.251	42209.66
535.451	42142.08
535.652	42262.91
535.853	41867.65
536.054	41812.35
536.255	41992.58
536.456	41937.28
536.657	42215.8
536.857	41968
537.058	41746.82
537.259	41685.38
537.46	42004.86
537.66	41814.4
537.861	42183.04
538.062	41750.91
538.263	42064.25
538.463	41920.9
538.664	42000.77
538.865	42326.39
539.065	42031.49
539.266	41906.56
539.466	42258.81
539.667	41492.87
539.868	42193.28
540.068	41601.41
540.269	41804.16
540.469	42168.7
540.67	41398.66
540.87	41646.47
541.071	41881.98
541.271	41404.81
541.472	41544.07
541.672	41535.88
541.873	41392.52
542.073	41492.87
542.274	42045.82
542.474	41365.9
542.675	41202.06
542.875	41650.56
543.075	41732.48
543.276	41326.99
543.476	41867.65
543.676	41107.85
543.877	41945.47
544.077	41466.25
544.277	41259.4
544.478	41431.43
544.678	41937.28
544.878	41640.32
545.078	41765.25
545.279	41183.63
545.479	41087.37
545.679	41765.25
545.879	41150.86
546.079	41525.64
546.28	41505.16
546.48	40962.45
546.68	41580.93
546.88	41576.84
547.08	41363.85
547.28	41030.03
547.48	40747.41
547.68	41329.03
547.88	41075.09
548.081	41445.77
548.281	41515.4
548.481	40837.52
548.681	41787.78
548.881	41339.27
549.081	41351.56
549.28	41181.58
549.48	41423.24
549.68	41009.55
549.88	41415.05
550.08	40972.69
550.28	41185.68
550.48	40964.49
550.68	41636.23
550.88	40841.62
551.08	41126.28
551.279	41216.4
551.479	41058.7
551.679	41296.27
551.879	40927.63
552.079	41222.54
552.278	41105.8
552.478	41175.44
552.678	41683.33
552.878	41669
553.077	41034.13
553.277	40581.52
553.477	41697.67
553.676	41046.41
553.876	40845.71
554.076	41273.74
554.275	40882.58
554.475	40460.69
554.674	41089.42
554.874	40675.73
555.074	40620.44
555.273	40901.01
555.473	41005.45
555.672	40952.21
555.872	40987.02
556.071	41097.61
556.271	41165.2
556.47	40319.38
556.67	40520.09
556.869	40724.88
557.068	40606.1
557.268	40550.81
557.467	40606.1
557.667	40497.56
557.866	40300.95
558.065	40114.59
558.265	40268.19
558.464	40198.55
558.663	40501.65
558.863	40085.92
559.062	40518.04
559.261	40004
559.461	40567.19
559.66	39911.84
559.859	40370.58
560.058	39639.46
560.258	40010.14
560.457	39162.28
560.656	40321.43
560.855	39860.64
561.054	40114.59
561.253	39762.34
561.453	39754.15
561.652	39791.01
561.851	39846.3
562.05	39653.79
562.249	39631.27
562.448	39825.82
562.647	39928.22
562.846	39418.28
563.045	39248.3
563.244	39344.55
563.443	39631.27
563.642	38701.49
563.841	39432.61
564.04	38810.03
564.239	39727.52
564.438	39190.95
564.637	39211.43
564.836	39342.5
565.035	38549.94
565.234	39008.68
565.432	38994.35
565.631	38781.36
565.83	38730.16
566.029	38439.35
566.228	37898.69
566.427	38777.26
566.625	38070.72
566.824	37665.22
567.023	38228.41
567.222	37749.18
567.42	38332.86
567.619	37556.67
567.818	37841.34
568.016	37978.56
568.215	37753.28
568.414	37646.79
568.612	38134.2
568.811	37536.2
569.01	37753.28
569.208	37001.68
569.407	37427.65
569.605	36723.15
569.804	37374.41
570.002	36934.09
570.201	37306.82
570.4	36561.36
570.598	36667.86
570.797	36352.47
570.995	37095.88
571.193	36491.73
571.392	36958.67
571.59	36073.95
571.789	36471.25
571.987	36307.41
572.186	36250.07
572.384	36286.93
572.582	36196.82
572.781	36037.08
572.979	35424.74
573.177	35772.89
573.376	35754.46
573.574	35445.22
573.772	35473.89
573.971	35236.33
574.169	35148.26
574.367	35492.32
574.565	35125.74
574.763	35076.58
574.962	34961.9
575.16	34658.8
575.358	34963.95
575.556	34431.47
575.754	35090.92
575.952	34365.94
576.151	34861.55
576.349	33966.59
576.547	34195.96
576.745	34406.9
576.943	34187.77
577.141	34060.79
577.339	33966.59
577.537	33884.67
577.735	33968.63
577.933	34036.22
578.131	33827.32
578.329	33669.63
578.527	33540.61
578.725	33464.83
578.923	33348.1
579.121	33432.07
579.319	33155.59
579.516	33448.45
579.714	33444.35
579.912	32961.03
580.11	32901.64
580.308	32821.77
580.506	32934.41
580.704	32463.38
580.901	32739.85
581.099	33055.24
581.297	32137.75
581.495	32649.74
581.692	32594.45
581.89	32182.8
582.088	32207.38
582.285	32016.92
582.483	32184.85
582.681	32057.88
582.878	31959.58
583.076	31697.44
583.274	31875.61
583.471	31576.61
583.669	31629.85
583.866	31158.82
584.064	31451.68
584.262	30913.06
584.459	31365.67
584.657	30972.46
584.854	31064.61
585.052	30781.99
585.249	30908.97
585.447	30906.92
585.644	30743.08
585.841	30581.29
586.039	31113.77
586.236	30077.49
586.434	30652.97
586.631	30345.78
586.828	30153.27
587.026	30345.78
587.223	30057.01
587.42	29958.71
587.618	30052.92
587.815	29600.32
588.012	29553.21
588.21	29540.93
588.407	29555.26
588.604	29526.59
588.801	29549.12
588.999	29377.09
589.196	29360.7
589.393	29743.67
589.59	29317.7
589.787	29049.41
589.984	28961.35
590.182	28713.55
590.379	29119.04
590.576	28701.26
590.773	28662.35
590.97	28746.31
591.167	28799.56
591.364	28349.01
591.561	28422.73
591.758	27974.23
591.955	28228.18
592.152	28349.01
592.349	28033.62
592.546	28146.26
592.743	28123.73
592.94	27624.03
593.137	27781.72
593.334	27914.84
593.531	27505.24
593.727	27712.09
593.924	27568.73
594.121	27415.13
594.318	27495
594.515	27021.92
594.712	27325.02
594.908	27181.67
595.105	27308.64
595.302	26663.53
595.499	26927.72
595.696	26786.41
595.892	26643.05
596.089	26641
596.286	26868.33
596.482	26720.87
596.679	26630.76
596.876	26376.81
597.072	26157.68
597.269	26618.47
597.466	26090.1
597.662	25856.63
597.859	26210.93
598.055	26141.3
598.252	25907.83
598.448	25932.4
598.645	25809.53
598.841	25477.76
599.038	25700.98
599.234	25453.18
599.431	25221.76
599.627	25494.14
599.824	25684.6
600.02	25404.03
600.217	25504.38
600.413	25195.14
600.609	24885.89
600.806	24926.85
601.002	25119.36
601.198	24918.66
601.395	24791.69
601.591	24789.64
601.787	24746.63
601.984	24437.39
602.18	24711.81
602.376	24476.3
602.572	24421
602.769	24070.8
602.965	23851.67
603.161	24445.58
603.357	23847.57
603.553	24451.72
603.75	23939.73
603.946	23933.59
604.142	23900.82
604.338	23581.34
604.534	23984.79
604.73	23552.66
604.926	23556.76
605.122	23554.71
605.318	23360.16
605.514	23351.96
605.71	23452.31
605.906	23280.28
606.102	23331.48
606.298	23354.01
606.494	22973.09
606.69	23075.49
606.886	22823.59
607.082	22512.3
607.278	22981.28
607.474	22674.09
607.67	22778.53
607.866	22536.87
608.062	22856.36
608.257	22645.41
608.453	22645.41
608.649	22442.67
608.845	22721.19
609.041	22225.58
609.236	22413.99
609.432	22266.54
609.628	22500.01
609.824	22428.33
610.019	22147.76
610.215	22229.68
610.411	22272.68
610.606	22102.7
610.802	22108.85
610.998	22016.69
611.193	22090.41
611.389	21754.55
611.584	21902
611.78	21711.54
611.976	21908.15
612.171	21863.09
612.367	21961.39
612.562	21766.84
612.758	21471.93
612.953	21453.5
613.149	22004.4
613.344	21443.26
613.539	21965.49
613.735	21568.18
613.93	21437.11
614.126	21412.54
614.321	21795.51
614.517	21603
614.712	21113.53
614.907	21162.69
615.103	21322.43
615.298	21156.54
615.493	21603
615.688	20832.96
615.884	21361.34
616.079	20982.46
616.274	21095.1
616.47	20927.17
616.665	20955.84
616.86	21113.53
617.055	20730.56
617.25	20798.15
617.445	20906.69
617.641	20468.42
617.836	20566.73
618.031	20712.13
618.226	20685.51
618.421	20353.74
618.616	20269.77
618.811	20296.39
619.006	20284.11
619.201	20189.9
619.396	20449.99
619.591	19983.06
619.786	20032.21
619.981	19790.55
620.176	20107.98
620.371	19845.84
620.566	19714.77
620.761	19518.17
620.956	19833.55
621.151	19407.58
621.346	19532.5
621.541	19149.53
621.735	19387.1
621.93	18664.16
622.125	18930.4
622.32	18782.95
622.515	18838.24
622.709	18971.36
622.904	18922.21
623.099	18375.4
623.294	18600.68
623.488	18281.19
623.683	18213.61
623.878	18094.83
624.072	18004.72
624.267	18158.31
624.462	17980.14
624.656	17926.89
624.851	17695.47
625.046	17685.23
625.24	17453.81
625.435	17472.25
625.629	17470.2
625.824	17216.25
626.018	17154.81
626.213	16798.46
626.407	16857.85
626.602	16972.54
626.796	16892.67
626.991	16720.64
627.185	16857.85
627.38	16446.21
627.574	16464.64
627.768	16448.26
627.963	16161.55
628.157	16083.72
628.352	16327.43
628.546	15840.01
628.74	15971.08
628.935	15723.28
629.129	15700.75
629.323	15467.28
629.517	15780.62
629.712	15317.78
629.906	15280.92
630.1	15297.3
630.294	15262.49
630.489	15201.05
630.683	15313.69
630.877	14959.39
631.071	14877.47
631.265	14859.04
631.459	14832.41
631.653	14955.29
631.848	14582.56
632.042	14570.27
632.236	14492.45
632.43	14256.93
632.624	14553.89
632.818	14535.46
633.012	14254.89
633.206	14244.65
633.4	14084.91
633.594	13949.74
633.788	13869.87
633.982	13945.64
634.176	13802.29
634.369	13781.81
634.563	13556.53
634.757	13378.36
634.951	13425.46
635.145	13345.59
635.339	13323.06
635.533	13366.07
635.726	13226.81
635.92	13089.59
636.114	13259.57
636.308	12966.71
636.501	13015.87
636.695	12852.03
636.889	12813.12
637.083	12747.58
637.276	12518.21
637.47	12530.5
637.664	12505.92
637.857	12483.39
638.051	12571.46
638.244	12184.39
638.438	12352.32
638.632	12168.01
638.825	12219.21
639.019	11961.16
639.212	11799.37
639.406	11907.91
639.599	11848.52
639.793	12018.5
639.986	11940.68
640.18	11776.84
640.373	11850.57
640.567	11666.25
640.76	11592.53
640.954	11406.16
641.147	11309.91
641.34	11332.44
641.534	11301.72
641.727	11410.26
641.92	11189.08
642.114	11164.5
642.307	10894.17
642.5	11045.72
642.694	10883.93
642.887	10802.01
643.08	10928.99
643.273	10683.23
643.467	10572.64
643.66	10658.65
643.853	10617.69
644.046	10548.06
644.239	10392.42
644.432	10244.96
644.626	10277.73
644.819	10191.72
645.012	10232.68
645.205	10435.42
645.398	10113.89
645.591	9976.68
645.784	10034.02
645.977	9814.89
646.17	9915.24
646.363	9616.24
646.556	9606
646.749	9644.91
646.942	9882.47
647.135	9495.41
647.328	9677.68
647.521	9468.78
647.714	9337.71
647.907	9354.1
648.099	9360.24
648.292	9253.75
648.485	9278.32
648.678	9116.53
648.871	9155.44
649.064	9079.67
649.256	9014.13
649.449	9192.31
649.642	8819.58
649.835	8919.93
650.027	8887.16
650.22	8731.51
650.413	8727.42
650.605	8913.78
650.798	8598.4
650.991	8543.1
651.183	8567.68
651.376	8557.44
651.568	8477.57
651.761	8549.25
651.954	8487.81
652.146	8246.15
652.339	8240
652.531	8436.61
652.724	8244.1
652.916	8297.35
653.109	8119.17
653.301	8041.35
653.494	8037.25
653.686	8004.49
653.879	7881.61
654.071	7943.05
654.263	7904.14
654.456	7838.6
654.648	7844.74
654.84	7615.37
655.033	7750.54
655.225	7795.59
655.417	7388.05
655.61	7689.1
655.802	7435.15
655.994	7494.54
656.186	7390.1
656.379	7365.52
656.571	7310.22
656.763	7390.1
656.955	7263.12
657.148	7365.52
657.34	7201.68
657.532	7207.83
657.724	7201.68
657.916	7103.38
658.108	7007.13
658.3	6964.12
658.492	7089.04
658.684	6908.82
658.876	6716.31
659.068	6986.65
659.26	6871.96
659.452	6855.58
659.644	6642.59
659.836	6822.81
660.028	6667.16
660.22	6456.22
660.412	6644.63
660.604	6513.56
660.796	6564.76
660.988	6333.34
661.18	6544.28
661.372	6349.73
661.563	6454.17
661.755	6460.32
661.947	6413.21
662.139	6374.3
662.331	6290.34
662.522	6110.11
662.714	6099.87
662.906	6226.85
663.097	6333.34
663.289	5997.48
663.481	6120.35
663.673	6083.49
663.864	5954.47
664.056	5983.14
664.247	6011.81
664.439	5909.41
664.631	5954.47
664.822	6020
665.014	6005.67
665.205	5870.5
665.397	5798.82
665.588	5796.78
665.78	5538.73
665.971	5675.95
666.163	5733.29
666.354	5518.25
666.546	5522.35
666.737	5600.17
666.929	5413.81
667.12	5534.64
667.311	5407.66
667.503	5381.04
667.694	5383.09
667.885	5354.41
668.077	5378.99
668.268	5364.65
668.459	5342.13
668.651	5280.69
668.842	5231.54
669.033	5249.97
669.224	5280.69
669.416	5274.54
669.607	5116.85
669.798	5118.9
669.989	5274.54
670.18	5022.64
670.371	5071.79
670.563	4987.83
670.754	4961.2
670.945	4969.4
671.136	5004.21
671.327	4987.83
671.518	4965.3
671.709	4993.97
671.9	4887.48
672.091	4838.33
672.282	4707.26
672.473	4713.4
672.664	4660.15
672.855	4711.35
673.046	4762.55
673.237	4717.5
673.428	4643.77
673.619	4701.11
673.809	4666.3
674	4629.43
674.191	4506.56
674.382	4545.47
674.573	4535.23
674.764	4479.93
674.954	4520.89
675.145	4641.72
675.336	4445.12
675.527	4293.57
675.717	4518.84
675.908	4395.96
676.099	4434.88
676.289	4377.53
676.48	4348.86
676.671	4357.05
676.861	4438.97
677.052	4322.24
677.243	4359.1
677.433	4238.27
677.624	4355.01
677.814	4264.89
678.005	4266.94
678.195	4318.14
678.386	4142.02
678.576	4256.7
678.767	4119.49
678.957	4076.48
679.148	4182.98
679.338	4152.26
679.529	4088.77
679.719	3998.66
679.909	4252.61
680.1	4092.87
680.29	4133.82
680.481	3982.28
680.671	4109.25
680.861	3996.61
681.052	4031.43
681.242	3871.68
681.432	3996.61
681.622	3986.37
681.813	3834.82
682.003	3961.8
682.193	3933.12
682.383	3967.94
682.573	3773.38
682.764	3941.32
682.954	3789.77
683.144	3838.92
683.334	3765.19
683.524	3763.14
683.714	3781.57
683.904	3759.05
684.094	3701.7
684.284	3888.07
684.474	3742.66
684.664	3691.46
684.854	3797.96
685.044	3773.38
685.234	3683.27
685.424	3740.61
685.614	3613.64
685.804	3746.76
685.994	3650.5
686.184	3677.13
686.374	3584.97
686.564	3699.66
686.753	3617.74
686.943	3535.82
687.133	3679.18
687.323	3568.59
687.513	3556.3
687.702	3587.02
687.892	3486.67
688.082	3398.6
688.272	3519.43
688.461	3496.91
688.651	3482.57
688.841	3382.22
689.03	3437.52
689.22	3433.42
689.41	3331.02
689.599	3349.45
689.789	3410.89
689.979	3347.4
690.168	3392.46
690.358	3306.45
690.547	3251.15
690.737	3324.88
690.926	3265.49
691.116	3312.59
691.305	3322.83
691.495	3226.57
691.684	3269.58
691.874	3210.19
692.063	3302.35
692.252	3185.62
692.442	3199.95
692.631	3130.32
692.82	3208.14
693.01	3044.31
693.199	3173.33
693.388	3079.12
693.578	3146.7
693.767	3134.42
693.956	3077.07
694.146	3015.63
694.335	3118.03
694.524	3101.65
694.713	3130.32
694.902	2993.11
695.092	2943.96
695.281	3099.6
695.47	3118.03
695.659	2978.77
695.848	2984.91
696.037	3044.31
696.226	2954.19
696.415	2946
696.604	3105.74
696.793	3103.7
696.982	3038.16
697.171	2974.67
697.36	3101.65
697.549	3032.02
697.738	2956.24
697.927	2896.85
698.116	3019.73
698.305	2956.24
698.494	2905.04
698.683	2980.82
698.872	2956.24
699.061	2921.43
699.25	2939.86
699.438	2821.08
699.627	2948.05
699.816	2972.63
700.005	2980.82
700.193	2911.19
700.382	2946
700.571	2896.85
700.76	2917.33
700.948	2989.01
701.137	2900.95
701.326	2892.76
701.514	2896.85
701.703	2829.27
701.892	2819.03
702.08	2845.65
702.269	2819.03
702.457	2939.86
702.646	2909.14
702.834	2931.67
703.023	2825.17
703.212	2884.56
703.4	2806.74
703.589	2792.41
703.777	2751.45
703.965	2773.97
704.154	2804.69
704.342	2763.73
704.531	2792.41
704.719	2798.55
704.907	2798.55
705.096	2720.73
705.284	2872.28
705.472	2769.88
705.661	2741.21
705.849	2778.07
706.037	2792.41
706.226	2773.97
706.414	2739.16
706.602	2722.77
706.79	2831.32
706.979	2708.44
707.167	2728.92
707.355	2573.27
707.543	2790.36
707.731	2683.86
707.919	2730.97
708.107	2671.58
708.296	2700.25
708.484	2585.56
708.672	2653.14
708.86	2659.29
709.048	2687.96
709.236	2710.49
709.424	2560.98
709.612	2683.86
709.8	2595.8
709.988	2618.33
710.176	2665.43
710.364	2718.68
710.551	2640.86
710.739	2663.38
710.927	2581.46
711.115	2655.19
711.303	2630.62
711.491	2624.47
711.679	2538.46
711.866	2653.14
712.054	2624.47
712.242	2517.98
712.43	2546.65
712.617	2522.07
712.805	2563.03
712.993	2585.56
713.181	2462.68
713.368	2513.88
713.556	2489.31
713.744	2520.03
713.931	2636.76
714.119	2462.68
714.306	2462.68
714.494	2485.21
714.682	2462.68
714.869	2485.21
715.057	2526.17
715.244	2489.31
715.432	2522.07
715.619	2323.42
715.807	2503.64
715.994	2376.67
716.182	2350.04
716.369	2481.11
716.556	2558.94
716.744	2298.84
716.931	2382.81
717.119	2444.25
717.306	2307.04
717.493	2378.72
717.681	2499.55
717.868	2376.67
718.055	2374.62
718.242	2388.96
718.43	2380.76
718.617	2341.85
718.804	2331.61
718.991	2302.94
719.179	2429.91
719.366	2327.52
719.553	2331.61
719.74	2300.89
719.927	2280.41
720.114	2245.6
720.301	2284.51
720.488	2331.61
720.676	2274.27
720.863	2272.22
721.05	2321.37
721.237	2307.04
721.424	2231.26
721.611	2327.52
721.798	2294.75
721.985	2302.94
722.172	2266.08
722.358	2350.04
722.545	2251.74
722.732	2198.49
722.919	2153.44
723.106	2292.7
723.293	2221.02
723.48	2216.93
723.667	2223.07
723.853	2261.98
724.04	2161.63
724.227	2163.68
724.414	2151.39
724.6	2137.06
724.787	2212.83
724.974	2180.06
725.161	2067.42
725.347	2175.97
725.534	2200.54
725.72	2169.82
725.907	2065.38
726.094	2130.91
726.28	2118.62
726.467	2126.82
726.653	2065.38
726.84	2151.39
727.027	2110.43
727.213	1954.79
727.4	2180.06
727.586	1999.84
727.773	2110.43
727.959	2087.9
728.145	2112.48
728.332	2079.71
728.518	2014.18
728.705	1973.22
728.891	2048.99
729.077	2001.89
729.264	2071.52
729.45	1987.55
729.636	2042.85
729.823	1926.11
730.009	2077.66
730.195	2053.09
730.382	2057.18
730.568	1897.44
730.754	1969.12
730.94	2030.56
731.126	2053.09
731.313	1954.79
731.499	2065.38
731.685	2008.03
731.871	1956.83
732.057	1971.17
732.243	2005.99
732.429	1989.6
732.615	2003.94
732.801	1917.92
732.987	1887.2
733.173	1825.76
733.359	1909.73
733.545	1876.96
733.731	1922.02
733.917	1954.79
734.103	1924.07
734.289	1864.68
734.475	1930.21
734.661	1952.74
734.847	1917.92
735.033	1856.48
735.219	2008.03
735.404	1895.4
735.59	1813.48
735.776	1754.09
735.962	1866.72
736.148	1917.92
736.333	1838.05
736.519	1831.91
736.705	1727.46
736.89	1805.28
737.076	1942.5
737.262	1747.94
737.447	1844.2
737.633	1747.94
737.819	1768.42
738.004	1893.35
738.19	1944.55
738.375	1799.14
738.561	1836
738.747	1770.47
738.932	1745.89
739.118	1774.56
739.303	1768.42
739.489	1756.13
739.674	1782.76
739.859	1704.93
740.045	1604.58
740.23	1760.23
740.416	1594.34
740.601	1692.65
740.786	1670.12
740.972	1659.88
741.157	1709.03
741.342	1635.3
741.528	1547.24
741.713	1655.78
741.898	1573.86
742.084	1594.34
742.269	1577.96
742.454	1555.43
742.639	1618.92
742.824	1620.97
743.01	1614.82
743.195	1637.35
743.38	1557.48
743.565	1600.49
743.75	1655.78
743.935	1532.9
744.12	1618.92
744.305	1512.42
744.49	1635.3
744.675	1537
744.86	1448.94
745.045	1586.15
745.23	1573.86
745.415	1504.23
745.6	1432.55
745.785	1508.33
745.97	1520.62
746.155	1387.5
746.34	1465.32
746.525	1340.4
746.71	1364.97
746.895	1379.31
747.079	1473.51
747.264	1364.97
747.449	1397.74
747.634	1352.68
747.819	1399.79
748.003	1401.83
748.188	1317.87
748.373	1391.59
748.557	1459.18
748.742	1367.02
748.927	1319.92
749.111	1301.48
749.296	1358.83
749.481	1336.3
749.665	1309.68
749.85	1334.25
750.034	1270.76
750.219	1317.87
750.404	1205.23
750.588	1252.33
750.773	1315.82
750.957	1268.72
751.141	1223.66
751.326	1303.53
751.51	1227.76
751.695	1258.48
751.879	1197.04
752.064	1283.05
752.248	1211.37
752.432	1201.13
752.617	1160.17
752.801	1143.79
752.985	1231.85
753.17	1145.84
753.354	1201.13
753.538	1203.18
753.722	1184.75
753.907	1104.88
754.091	1102.83
754.275	1106.93
754.459	1137.65
754.643	1092.59
754.828	1219.57
755.012	1186.8
755.196	1035.25
755.38	1070.06
755.564	1029.1
755.748	1106.93
755.932	1129.45
756.116	1006.58
756.3	1065.97
756.484	984.05
756.668	1033.2
756.852	1022.96
757.036	922.61
757.22	941.04
757.404	1014.77
757.588	955.38
757.772	1012.72
757.956	881.65
758.14	953.33
758.323	873.46
758.507	938.99
758.691	893.94
758.875	891.89
759.059	1031.15
759.242	906.23
759.426	943.09
759.61	988.14
759.794	861.17
759.977	975.86
760.161	850.93
760.345	945.14
760.528	906.23
760.712	836.6
760.895	891.89
761.079	916.47
761.263	842.74
761.446	807.92
761.63	852.98
761.813	916.47
761.997	809.97
762.18	918.51
762.364	885.75
762.547	844.79
762.731	795.64
762.914	900.08
763.098	826.36
763.281	869.36
763.464	736.24
763.648	863.22
763.831	799.73
764.015	865.27
764.198	828.4
764.381	805.88
764.564	836.6
764.748	766.96
764.931	801.78
765.114	807.92
765.297	762.87
765.481	758.77
765.664	795.64
765.847	769.01
766.03	760.82
766.213	693.24
766.397	775.16
766.58	783.35
766.763	818.16
766.946	812.02
767.129	758.77
767.312	799.73
767.495	693.24
767.678	750.58
767.861	773.11
768.044	832.5
768.227	668.66
768.41	715.77
768.593	730.1
768.776	656.37
768.959	693.24
769.142	775.16
769.324	717.81
769.507	648.18
769.69	670.71
769.873	736.24
770.056	818.16
770.239	693.24
770.421	769.01
770.604	697.33
770.787	791.54
770.97	635.89
771.152	713.72
771.335	787.44
771.518	717.81
771.7	701.43
771.883	697.33
772.066	662.52
772.248	726
772.431	654.33
772.613	676.85
772.796	613.37
772.978	664.57
773.161	678.9
773.343	693.24
773.526	689.14
773.708	570.36
773.891	635.89
774.073	619.51
774.256	603.13
774.438	703.48
774.621	637.94
774.803	646.13
774.985	611.32
775.168	572.41
775.35	570.36
775.532	564.22
775.715	539.64
775.897	623.61
776.079	502.78
776.261	570.36
776.444	623.61
776.626	596.98
776.808	580.6
776.99	521.21
777.173	574.46
777.355	580.6
777.537	556.02
777.719	506.87
777.901	472.06
778.083	529.4
778.265	488.44
778.447	496.63
778.629	539.64
778.811	488.44
778.993	515.06
779.175	611.32
779.357	537.59
779.539	455.67
779.721	478.2
779.903	414.71
780.085	523.26
780.267	517.11
780.449	476.15
780.631	482.3
780.812	467.96
780.994	465.91
781.176	492.54
781.358	406.52
781.54	480.25
781.721	414.71
781.903	474.1
782.085	451.58
782.267	457.72
782.448	396.28
782.63	422.91
782.812	424.95
782.993	451.58
783.175	414.71
783.357	394.23
783.538	422.91
783.72	447.48
783.901	455.67
784.083	408.57
784.264	400.38
784.446	363.51
784.627	386.04
784.809	402.43
784.99	443.39
785.172	400.38
785.353	410.62
785.535	343.03
785.716	357.37
785.897	412.67
786.079	326.65
786.26	381.95
786.441	402.43
786.623	340.99
786.804	383.99
786.985	394.23
787.167	365.56
787.348	367.61
787.529	295.93
787.71	455.67
787.891	371.71
788.073	289.79
788.254	316.41
788.435	394.23
788.616	308.22
788.797	324.6
788.978	340.99
789.159	308.22
789.34	392.19
789.522	308.22
789.703	207.87
789.884	349.18
790.065	285.69
790.246	273.4
790.427	375.8
790.607	326.65
790.788	291.84
790.969	365.56
791.15	330.75
791.331	300.03
791.512	297.98
791.693	211.96
791.874	349.18
792.054	304.12
792.235	328.7
792.416	222.2
792.597	250.88
792.778	187.39
792.958	308.22
793.139	242.68
793.32	291.84
793.5	187.39
793.681	269.31
793.862	314.36
794.042	238.59
794.223	265.21
794.404	332.79
794.584	140.29
794.765	238.59
794.945	271.36
795.126	283.64
795.306	340.99
795.487	203.77
795.667	300.03
795.848	300.03
796.028	271.36
796.209	244.73
796.389	244.73
796.57	230.4
796.75	312.32
796.93	259.07
797.111	242.68
797.291	193.53
797.471	287.74
797.652	177.15
797.832	185.34
798.012	230.4
798.192	197.63
798.373	244.73
798.553	281.6
798.733	259.07
798.913	193.53
799.093	238.59
799.274	257.02
799.454	238.59
799.634	214.01
799.814	250.88
799.994	250.88
800.174	201.72
800.354	279.55
800.534	201.72
800.714	209.92
800.894	111.61
801.074	189.44
801.254	201.72
801.434	222.2
801.614	209.92
801.794	218.11
801.974	801.78
802.154	185.34
802.334	271.36
802.514	226.3
802.693	197.63
802.873	179.2
803.053	187.39
803.233	195.58
803.413	177.15
803.592	144.38
803.772	269.31
803.952	191.49
804.131	191.49
804.311	252.92
804.491	230.4
804.67	154.62
804.85	189.44
805.03	259.07
805.209	189.44
805.389	201.72
805.568	220.16
805.748	154.62
805.928	191.49
806.107	226.3
806.287	209.92
806.466	232.44
806.646	168.96
806.825	99.33
807.004	134.14
807.184	156.67
807.363	228.35
807.543	177.15
807.722	105.47
807.901	181.25
808.081	162.81
808.26	113.66
808.439	78.85
808.619	152.57
808.798	146.43
808.977	187.39
809.156	193.53
809.336	117.76
809.515	164.86
809.694	148.48
809.873	168.96
810.052	193.53
810.231	132.09
810.411	138.24
810.59	189.44
810.769	218.11
810.948	140.29
811.127	99.33
811.306	205.82
811.485	128
811.664	181.25
811.843	183.29
812.022	152.57
812.201	91.13
812.38	197.63
812.559	181.25
812.737	146.43
812.916	78.85
813.095	152.57
813.274	144.38
813.453	197.63
813.632	95.23
813.811	181.25
813.989	171.01
814.168	152.57
814.347	140.29
814.526	173.05
814.704	173.05
814.883	128
815.062	105.47
815.24	164.86
815.419	87.04
815.598	185.34
815.776	27.65
815.955	144.38
816.133	41.98
816.312	99.33
816.49	103.42
816.669	130.05
816.847	150.53
817.026	144.38
817.204	179.2
817.383	138.24
817.561	33.79
817.74	115.71
817.918	148.48
818.097	125.95
818.275	111.61
818.453	91.13
818.632	152.57
818.81	148.48
818.988	113.66
819.167	121.85
819.345	105.47
819.523	160.77
819.701	91.13
819.879	105.47
820.058	91.13
820.236	144.38
820.414	101.37
820.592	130.05
820.77	103.42
820.948	128
821.127	82.94
821.305	113.66
821.483	144.38
821.661	58.37
821.839	39.94
822.017	89.09
822.195	74.75
822.373	189.44
822.551	107.52
822.729	87.04
822.907	107.52
823.085	91.13
823.262	31.74
823.44	80.89
823.618	121.85
823.796	148.48
823.974	148.48
824.152	171.01
824.329	89.09
824.507	80.89
824.685	78.85
824.863	64.51
825.04	160.77
825.218	109.57
825.396	89.09
825.574	113.66
825.751	158.72
825.929	173.05
826.107	41.98
826.284	80.89
826.462	25.6
826.639	82.94
826.817	111.61
826.994	113.66
827.172	70.65
827.349	99.33
827.527	1.02
827.704	111.61
827.882	185.34
828.059	128
828.237	52.22
828.414	113.66
828.591	130.05
828.769	87.04
828.946	-3.07
829.124	152.57
829.301	109.57
829.478	78.85
829.655	48.13
829.833	134.14
830.01	128
830.187	101.37
830.364	3.07
830.542	119.81
830.719	111.61
830.896	39.94
831.073	113.66
831.25	103.42
831.427	99.33
831.604	87.04
831.782	62.46
831.959	95.23
832.136	87.04
832.313	93.18
832.49	103.42
832.667	56.32
832.844	17.41
833.021	173.05
833.198	132.09
833.374	119.81
833.551	78.85
833.728	95.23
833.905	111.61
834.082	89.09
834.259	29.7
834.436	158.72
834.612	48.13
834.789	72.7
834.966	109.57
835.143	-3.07
835.319	103.42
835.496	82.94
835.673	56.32
835.85	103.42
836.026	144.38
836.203	128
836.38	37.89
836.556	78.85
836.733	89.09
836.909	107.52
837.086	48.13
837.262	27.65
837.439	39.94
837.616	56.32
837.792	84.99
837.968	105.47
838.145	33.79
838.321	39.94
838.498	72.7
838.674	72.7
838.851	62.46
839.027	144.38
839.203	58.37
839.38	54.27
839.556	13.31
839.732	101.37
839.909	62.46
840.085	58.37
840.261	17.41
840.437	66.56
840.614	50.18
840.79	97.28
840.966	80.89
841.142	140.29
841.318	78.85
841.494	-11.26
841.671	66.56
841.847	70.65
842.023	29.7
842.199	91.13
842.375	37.89
842.551	46.08
842.727	23.55
842.903	107.52
843.079	7.17
843.255	125.95
843.431	107.52
843.607	41.98
843.783	-60.42
843.959	87.04
844.134	80.89
844.31	119.81
844.486	78.85
844.662	23.55
844.838	105.47
845.013	123.9
845.189	128
845.365	103.42
845.541	-1.02
845.716	58.37
845.892	66.56
846.068	56.32
846.244	7.17
846.419	54.27
846.595	37.89
846.77	29.7
846.946	119.81
847.122	33.79
847.297	-21.5
847.473	128
847.648	9.22
847.824	68.61
847.999	11.26
848.175	56.32
848.35	-7.17
848.526	37.89
848.701	89.09
848.876	46.08
849.052	70.65
849.227	-9.22
849.403	37.89
849.578	46.08
849.753	39.94
849.929	17.41
850.104	-48.13
850.279	13.31
850.454	70.65
850.63	56.32
850.805	44.03
850.98	25.6
851.155	37.89
851.33	35.84
851.505	54.27
851.681	156.67
851.856	17.41
852.031	50.18
852.206	115.71
852.381	66.56
852.556	52.22
852.731	95.23
852.906	109.57
853.081	58.37
853.256	35.84
853.431	25.6
853.606	48.13
853.781	103.42
853.956	68.61
854.131	-19.46
854.305	-19.46
854.48	72.7
854.655	13.31
854.83	62.46
855.005	23.55
855.18	-19.46
855.354	17.41
855.529	11.26
855.704	29.7
855.879	46.08
856.053	-62.46
856.228	78.85
856.403	-21.5
856.577	74.75
856.752	46.08
856.926	89.09
857.101	64.51
857.276	54.27
857.45	52.22
857.625	54.27
857.799	29.7
857.974	89.09
858.148	27.65
858.323	13.31
858.497	3.07
858.672	19.46
858.846	-41.98
859.02	39.94
859.195	15.36
859.369	37.89
859.543	37.89
859.718	37.89
859.892	87.04
860.066	41.98
860.241	160.77
860.415	21.5
860.589	-3.07
860.763	87.04
860.938	-9.22
861.112	46.08
861.286	17.41
861.46	50.18
861.634	62.46
861.808	39.94
861.982	-72.7
862.157	-7.17
862.331	-3.07
862.505	-52.22
862.679	9.22
862.853	17.41
863.027	-3.07
863.201	58.37
863.375	62.46
863.549	1.02
863.722	23.55
863.896	72.7
864.07	23.55
864.244	62.46
864.418	111.61
864.592	-11.26
864.766	29.7
864.939	41.98
865.113	19.46
865.287	74.75
865.461	70.65
865.634	-3.07
865.808	29.7
865.982	105.47
866.156	37.89
866.329	17.41
866.503	3.07
866.676	46.08
866.85	13.31
867.024	62.46
867.197	46.08
867.371	-50.18
867.544	-29.7
867.718	9.22
867.891	62.46
868.065	13.31
868.238	-11.26
868.412	80.89
868.585	84.99
868.759	62.46
868.932	62.46
869.105	15.36
869.279	-46.08
869.452	-27.65
869.625	37.89
869.799	70.65
869.972	7.17
870.145	-7.17
870.319	50.18
870.492	41.98
870.665	29.7
870.838	-17.41
871.011	37.89
871.185	-48.13
871.358	-3.07
871.531	29.7
871.704	48.13
871.877	41.98
872.05	44.03
872.223	78.85
872.396	37.89
872.569	82.94
872.742	-35.84
872.915	95.23
873.088	15.36
873.261	9.22
873.434	62.46
873.607	37.89
873.78	1.02
873.953	23.55
874.126	15.36
874.299	21.5
874.471	25.6
874.644	25.6
874.817	54.27
874.99	89.09
875.163	72.7
875.335	39.94
875.508	-33.79
875.681	113.66
875.853	50.18
876.026	31.74
876.199	31.74
876.371	54.27
876.544	46.08
876.717	62.46
876.889	27.65
877.062	-3.07
877.234	-3.07
877.407	15.36
877.579	9.22
877.752	-39.94
877.924	11.26
878.097	48.13
878.269	48.13
878.442	48.13
878.614	-11.26
878.786	39.94
878.959	37.89
879.131	56.32
879.303	1.02
879.476	91.13
879.648	31.74
879.82	-9.22
879.993	21.5
880.165	29.7
880.337	-21.5
880.509	103.42
880.681	-44.03
880.854	17.41
881.026	60.42
881.198	46.08
881.37	29.7
881.542	46.08
881.714	33.79
881.886	9.22
882.058	41.98
882.23	46.08
882.402	37.89
882.574	27.65
882.746	-9.22
882.918	70.65
883.09	50.18
883.262	-7.17
883.434	44.03
883.606	17.41
883.778	111.61
883.95	48.13
884.122	66.56
884.293	58.37
884.465	39.94
884.637	72.7
884.809	13.31
884.98	-3.07
885.152	70.65
885.324	44.03
885.496	-27.65
885.667	89.09
885.839	-1.02
886.011	54.27
886.182	-7.17
886.354	50.18
886.525	46.08
886.697	-27.65
886.869	-7.17
887.04	54.27
887.212	17.41
887.383	78.85
887.555	17.41
887.726	-35.84
887.897	35.84
888.069	87.04
888.24	48.13
888.412	13.31
888.583	41.98
888.754	25.6
888.926	13.31
889.097	-5.12
889.268	5.12
889.44	15.36
889.611	-11.26
889.782	-3.07
889.953	5.12
890.125	-25.6
890.296	25.6
890.467	56.32
890.638	-3.07
890.809	7.17
890.98	46.08
891.151	113.66
891.323	17.41
891.494	21.5
891.665	-19.46
891.836	9.22
892.007	13.31
892.178	-9.22
892.349	66.56
892.52	7.17
892.691	-41.98
892.862	-11.26
893.032	-7.17
893.203	29.7
893.374	19.46
893.545	125.95
893.716	5.12
893.887	48.13
894.057	39.94
894.228	39.94
894.399	5.12
894.57	64.51
894.74	78.85
894.911	56.32
895.082	41.98
895.253	25.6
895.423	-27.65
895.594	78.85
895.764	-44.03
895.935	17.41
896.106	29.7
896.276	39.94
896.447	58.37
896.617	15.36
896.788	-52.22
896.958	17.41
897.129	29.7
897.299	13.31
897.47	23.55
897.64	39.94
897.81	3.07
897.981	-11.26
898.151	15.36
898.322	66.56
898.492	37.89
898.662	-9.22
898.832	-15.36
899.003	-31.74
899.173	-15.36
899.343	21.5
899.513	-41.98
