Data from USB4F104151__112__14-18-18-913.txt Node

Date: Thu Mar 13 14:18:18 EDT 2025
User: louis
Spectrometer: USB4F10415
Trigger mode: 4
Integration Time (sec): 2.000000E-2
Scans to average: 1
Electric dark correction enabled: true
Nonlinearity correction enabled: false
Boxcar width: 0
XAxis mode: Wavelengths
Number of Pixels in Spectrum: 3648
>>>>>Begin Spectral Data<<<<<
178.204	-125.27
178.424	-125.27
178.644	-125.27
178.864	-145.75
179.084	-51.54
179.304	-24.92
179.524	18.09
179.744	-16.73
179.964	-4.44
180.184	-57.68
180.404	52.91
180.624	20.14
180.844	54.95
181.064	-31.06
181.283	-31.06
181.503	-10.58
181.723	30.38
181.943	-59.73
182.163	67.24
182.383	-2.39
182.602	67.24
182.822	-22.87
183.042	50.86
183.262	36.52
183.482	48.81
183.701	20.14
183.921	18.09
184.141	20.14
184.361	61.1
184.58	22.19
184.8	30.38
185.02	22.19
185.239	110.25
185.459	-4.44
185.679	-4.44
185.898	-57.68
186.118	-2.39
186.338	93.87
186.557	61.1
186.777	79.53
186.997	9.9
187.216	44.71
187.436	138.92
187.655	22.19
187.875	85.67
188.095	11.95
188.314	106.15
188.534	38.57
188.753	102.06
188.973	44.71
189.192	61.1
189.412	32.43
189.631	3.75
189.851	57
190.07	71.34
190.29	-4.44
190.509	26.28
190.729	36.52
190.948	38.57
191.168	91.82
191.387	110.25
191.607	30.38
191.826	3.75
192.045	32.43
192.265	34.47
192.484	59.05
192.704	1.71
192.923	9.9
193.142	52.91
193.362	59.05
193.581	16.04
193.8	38.57
194.02	93.87
194.239	7.85
194.458	134.82
194.678	-18.77
194.897	50.86
195.116	-26.96
195.335	30.38
195.555	18.09
195.774	-35.16
195.993	30.38
196.212	-20.82
196.432	85.67
196.651	42.67
196.87	42.67
197.089	85.67
197.308	-12.63
197.528	91.82
197.747	9.9
197.966	97.96
198.185	104.11
198.404	-55.64
198.623	91.82
198.842	77.48
199.062	59.05
199.281	102.06
199.5	91.82
199.719	104.11
199.938	18.09
200.157	91.82
200.376	-31.06
200.595	13.99
200.814	71.34
201.033	67.24
201.252	110.25
201.471	26.28
201.69	112.3
201.909	24.23
202.128	26.28
202.347	26.28
202.566	61.1
202.785	44.71
203.004	13.99
203.223	108.2
203.442	69.29
203.661	22.19
203.879	83.63
204.098	36.52
204.317	-2.39
204.536	61.1
204.755	38.57
204.974	52.91
205.193	7.85
205.411	75.43
205.63	104.11
205.849	59.05
206.068	54.95
206.287	93.87
206.505	91.82
206.724	59.05
206.943	57
207.162	79.53
207.381	26.28
207.599	30.38
207.818	18.09
208.037	7.85
208.255	50.86
208.474	42.67
208.693	59.05
208.911	83.63
209.13	34.47
209.349	30.38
209.567	61.1
209.786	134.82
210.005	50.86
210.223	34.47
210.442	7.85
210.661	13.99
210.879	77.48
211.098	42.67
211.316	38.57
211.535	24.23
211.753	112.3
211.972	42.67
212.191	59.05
212.409	57
212.628	50.86
212.846	1.71
213.065	61.1
213.283	75.43
213.502	13.99
213.72	126.63
213.938	13.99
214.157	77.48
214.375	13.99
214.594	30.38
214.812	83.63
215.031	-6.49
215.249	34.47
215.467	13.99
215.686	46.76
215.904	110.25
216.122	59.05
216.341	83.63
216.559	85.67
216.778	30.38
216.996	120.49
217.214	5.8
217.432	93.87
217.651	36.52
217.869	18.09
218.087	22.19
218.306	26.28
218.524	54.95
218.742	42.67
218.96	50.86
219.179	32.43
219.397	-8.53
219.615	157.35
219.833	36.52
220.051	-18.77
220.27	75.43
220.488	52.91
220.706	-14.68
220.924	9.9
221.142	48.81
221.36	52.91
221.578	65.19
221.796	100.01
222.015	65.19
222.233	-29.01
222.451	67.24
222.669	50.86
222.887	42.67
223.105	44.71
223.323	50.86
223.541	75.43
223.759	124.58
223.977	-31.06
224.195	61.1
224.413	81.58
224.631	-4.44
224.849	59.05
225.067	118.44
225.285	20.14
225.503	61.1
225.721	30.38
225.939	108.2
226.157	-2.39
226.375	77.48
226.592	-37.2
226.81	85.67
227.028	20.14
227.246	108.2
227.464	102.06
227.682	61.1
227.9	77.48
228.117	5.8
228.335	57
228.553	34.47
228.771	93.87
228.989	36.52
229.206	44.71
229.424	108.2
229.642	38.57
229.86	13.99
230.077	34.47
230.295	42.67
230.513	1.71
230.731	16.04
230.948	34.47
231.166	75.43
231.384	59.05
231.601	-0.34
231.819	91.82
232.037	42.67
232.254	-10.58
232.472	13.99
232.689	34.47
232.907	122.54
233.125	77.48
233.342	20.14
233.56	18.09
233.777	11.95
233.995	95.91
234.213	120.49
234.43	-29.01
234.648	42.67
234.865	93.87
235.083	61.1
235.3	44.71
235.518	69.29
235.735	102.06
235.953	7.85
236.17	59.05
236.388	54.95
236.605	34.47
236.822	124.58
237.04	54.95
237.257	5.8
237.475	38.57
237.692	7.85
237.909	61.1
238.127	20.14
238.344	11.95
238.562	38.57
238.779	34.47
238.996	22.19
239.214	38.57
239.431	57
239.648	26.28
239.865	36.52
240.083	13.99
240.3	-4.44
240.517	1.71
240.735	36.52
240.952	143.02
241.169	13.99
241.386	48.81
241.603	67.24
241.821	32.43
242.038	108.2
242.255	-6.49
242.472	18.09
242.689	91.82
242.907	69.29
243.124	-55.64
243.341	3.75
243.558	67.24
243.775	-14.68
243.992	18.09
244.209	108.2
244.426	126.63
244.643	83.63
244.86	52.91
245.078	42.67
245.295	16.04
245.512	34.47
245.729	-12.63
245.946	-31.06
246.163	26.28
246.38	22.19
246.597	48.81
246.814	71.34
247.031	18.09
247.248	106.15
247.464	26.28
247.681	42.67
247.898	42.67
248.115	106.15
248.332	18.09
248.549	110.25
248.766	67.24
248.983	38.57
249.2	18.09
249.417	40.62
249.633	77.48
249.85	83.63
250.067	52.91
250.284	28.33
250.501	38.57
250.717	-31.06
250.934	50.86
251.151	34.47
251.368	11.95
251.585	75.43
251.801	61.1
252.018	20.14
252.235	52.91
252.451	-4.44
252.668	40.62
252.885	83.63
253.102	-22.87
253.318	28.33
253.535	32.43
253.752	46.76
253.968	13.99
254.185	-22.87
254.401	20.14
254.618	65.19
254.835	18.09
255.051	93.87
255.268	83.63
255.484	57
255.701	30.38
255.917	89.77
256.134	38.57
256.351	108.2
256.567	48.81
256.784	-4.44
257	-18.77
257.217	22.19
257.433	67.24
257.65	-4.44
257.866	151.21
258.082	-4.44
258.299	13.99
258.515	30.38
258.732	-8.53
258.948	16.04
259.165	26.28
259.381	77.48
259.597	77.48
259.814	-10.58
260.03	67.24
260.246	46.76
260.463	110.25
260.679	120.49
260.895	44.71
261.112	91.82
261.328	20.14
261.544	-2.39
261.761	59.05
261.977	77.48
262.193	-0.34
262.409	67.24
262.626	16.04
262.842	24.23
263.058	42.67
263.274	69.29
263.49	40.62
263.707	83.63
263.923	61.1
264.139	52.91
264.355	75.43
264.571	79.53
264.787	28.33
265.004	91.82
265.22	18.09
265.436	-14.68
265.652	34.47
265.868	69.29
266.084	44.71
266.3	59.05
266.516	52.91
266.732	34.47
266.948	65.19
267.164	50.86
267.38	75.43
267.596	-2.39
267.812	97.96
268.028	61.1
268.244	59.05
268.46	54.95
268.676	42.67
268.892	67.24
269.108	9.9
269.324	11.95
269.54	-26.96
269.756	9.9
269.972	54.95
270.188	9.9
270.403	83.63
270.619	18.09
270.835	30.38
271.051	54.95
271.267	34.47
271.483	42.67
271.698	132.78
271.914	-12.63
272.13	18.09
272.346	46.76
272.562	9.9
272.777	87.72
272.993	67.24
273.209	16.04
273.425	87.72
273.64	9.9
273.856	59.05
274.072	-14.68
274.287	-22.87
274.503	75.43
274.719	67.24
274.934	42.67
275.15	46.76
275.366	59.05
275.581	22.19
275.797	-4.44
276.012	-6.49
276.228	83.63
276.444	38.57
276.659	22.19
276.875	11.95
277.09	-16.73
277.306	52.91
277.521	20.14
277.737	89.77
277.952	-2.39
278.168	61.1
278.383	22.19
278.599	9.9
278.814	48.81
279.03	67.24
279.245	61.1
279.461	40.62
279.676	128.68
279.892	91.82
280.107	40.62
280.322	-14.68
280.538	87.72
280.753	-8.53
280.969	44.71
281.184	140.97
281.399	34.47
281.615	38.57
281.83	112.3
282.045	54.95
282.26	71.34
282.476	73.39
282.691	61.1
282.906	59.05
283.122	95.91
283.337	-2.39
283.552	83.63
283.767	5.8
283.983	28.33
284.198	-8.53
284.413	116.39
284.628	-2.39
284.843	36.52
285.058	81.58
285.274	79.53
285.489	46.76
285.704	110.25
285.919	13.99
286.134	91.82
286.349	71.34
286.564	69.29
286.779	91.82
286.995	75.43
287.21	16.04
287.425	91.82
287.64	44.71
287.855	110.25
288.07	26.28
288.285	114.34
288.5	108.2
288.715	26.28
288.93	50.86
289.145	-6.49
289.36	85.67
289.575	1.71
289.79	18.09
290.004	59.05
290.219	79.53
290.434	18.09
290.649	50.86
290.864	93.87
291.079	28.33
291.294	59.05
291.509	75.43
291.724	50.86
291.938	67.24
292.153	24.23
292.368	67.24
292.583	69.29
292.798	124.58
293.012	75.43
293.227	40.62
293.442	1.71
293.657	63.15
293.871	18.09
294.086	65.19
294.301	134.82
294.516	95.91
294.73	32.43
294.945	61.1
295.16	61.1
295.374	116.39
295.589	67.24
295.804	61.1
296.018	18.09
296.233	46.76
296.447	13.99
296.662	26.28
296.877	75.43
297.091	83.63
297.306	124.58
297.52	54.95
297.735	57
297.949	52.91
298.164	20.14
298.378	83.63
298.593	63.15
298.807	-2.39
299.022	106.15
299.236	34.47
299.451	5.8
299.665	9.9
299.88	61.1
300.094	63.15
300.309	87.72
300.523	61.1
300.737	3.75
300.952	71.34
301.166	36.52
301.381	-4.44
301.595	18.09
301.809	83.63
302.024	-12.63
302.238	91.82
302.452	128.68
302.667	71.34
302.881	116.39
303.095	69.29
303.309	46.76
303.524	-26.96
303.738	79.53
303.952	100.01
304.166	34.47
304.381	44.71
304.595	50.86
304.809	38.57
305.023	48.81
305.237	63.15
305.452	110.25
305.666	40.62
305.88	50.86
306.094	61.1
306.308	75.43
306.522	136.87
306.736	-55.64
306.95	116.39
307.164	59.05
307.379	61.1
307.593	112.3
307.807	69.29
308.021	83.63
308.235	32.43
308.449	5.8
308.663	50.86
308.877	91.82
309.091	59.05
309.305	9.9
309.519	-2.39
309.733	75.43
309.947	34.47
310.161	69.29
310.374	34.47
310.588	91.82
310.802	38.57
311.016	26.28
311.23	28.33
311.444	3.75
311.658	-24.92
311.872	77.48
312.085	83.63
312.299	18.09
312.513	42.67
312.727	83.63
312.941	1.71
313.154	9.9
313.368	75.43
313.582	75.43
313.796	147.11
314.009	-12.63
314.223	104.11
314.437	91.82
314.651	30.38
314.864	13.99
315.078	7.85
315.292	79.53
315.505	3.75
315.719	34.47
315.933	63.15
316.146	87.72
316.36	3.75
316.573	196.26
316.787	108.2
317.001	28.33
317.214	34.47
317.428	93.87
317.641	75.43
317.855	83.63
318.068	57
318.282	87.72
318.495	116.39
318.709	93.87
318.922	3.75
319.136	163.5
319.349	124.58
319.563	46.76
319.776	-14.68
319.99	69.29
320.203	30.38
320.417	87.72
320.63	71.34
320.843	132.78
321.057	110.25
321.27	116.39
321.483	-8.53
321.697	-10.58
321.91	83.63
322.124	102.06
322.337	67.24
322.55	42.67
322.763	11.95
322.977	36.52
323.19	-4.44
323.403	67.24
323.617	5.8
323.83	79.53
324.043	67.24
324.256	67.24
324.469	11.95
324.683	26.28
324.896	-6.49
325.109	69.29
325.322	18.09
325.535	95.91
325.748	13.99
325.962	91.82
326.175	-20.82
326.388	95.91
326.601	110.25
326.814	108.2
327.027	65.19
327.24	104.11
327.453	1.71
327.666	59.05
327.879	63.15
328.092	108.2
328.305	28.33
328.518	9.9
328.731	85.67
328.944	16.04
329.157	81.58
329.37	20.14
329.583	61.1
329.796	138.92
330.009	-0.34
330.222	61.1
330.435	40.62
330.648	108.2
330.861	38.57
331.073	50.86
331.286	89.77
331.499	-6.49
331.712	9.9
331.925	-37.2
332.138	38.57
332.35	83.63
332.563	18.09
332.776	9.9
332.989	5.8
333.202	5.8
333.414	83.63
333.627	77.48
333.84	18.09
334.053	32.43
334.265	91.82
334.478	77.48
334.691	40.62
334.903	87.72
335.116	83.63
335.329	44.71
335.541	26.28
335.754	38.57
335.966	18.09
336.179	30.38
336.392	40.62
336.604	26.28
336.817	100.01
337.029	44.71
337.242	97.96
337.454	91.82
337.667	13.99
337.88	63.15
338.092	7.85
338.305	83.63
338.517	38.57
338.729	13.99
338.942	97.96
339.154	52.91
339.367	3.75
339.579	95.91
339.792	-6.49
340.004	22.19
340.217	36.52
340.429	85.67
340.641	-14.68
340.854	-2.39
341.066	42.67
341.278	71.34
341.491	108.2
341.703	75.43
341.915	13.99
342.128	192.17
342.34	-4.44
342.552	116.39
342.764	73.39
342.977	132.78
343.189	38.57
343.401	52.91
343.613	93.87
343.826	124.58
344.038	-31.06
344.25	1.71
344.462	67.24
344.674	81.58
344.886	108.2
345.099	77.48
345.311	67.24
345.523	-10.58
345.735	75.43
345.947	54.95
346.159	54.95
346.371	52.91
346.583	75.43
346.795	134.82
347.007	71.34
347.219	85.67
347.431	3.75
347.643	122.54
347.855	42.67
348.067	120.49
348.279	59.05
348.491	63.15
348.703	26.28
348.915	9.9
349.127	75.43
349.339	20.14
349.551	-26.96
349.763	77.48
349.975	124.58
350.187	145.06
350.399	104.11
350.61	110.25
350.822	54.95
351.034	69.29
351.246	40.62
351.458	77.48
351.669	85.67
351.881	48.81
352.093	71.34
352.305	81.58
352.517	79.53
352.728	95.91
352.94	73.39
353.152	71.34
353.363	24.23
353.575	159.4
353.787	22.19
353.999	108.2
354.21	54.95
354.422	102.06
354.633	9.9
354.845	85.67
355.057	30.38
355.268	38.57
355.48	71.34
355.692	69.29
355.903	16.04
356.115	13.99
356.326	36.52
356.538	46.76
356.749	61.1
356.961	20.14
357.172	95.91
357.384	106.15
357.595	145.06
357.807	104.11
358.018	91.82
358.23	50.86
358.441	85.67
358.653	104.11
358.864	7.85
359.075	67.24
359.287	-39.25
359.498	110.25
359.709	75.43
359.921	108.2
360.132	79.53
360.344	106.15
360.555	104.11
360.766	28.33
360.977	59.05
361.189	126.63
361.4	42.67
361.611	132.78
361.823	100.01
362.034	91.82
362.245	-37.2
362.456	108.2
362.667	34.47
362.879	91.82
363.09	67.24
363.301	79.53
363.512	91.82
363.723	50.86
363.935	124.58
364.146	128.68
364.357	-6.49
364.568	42.67
364.779	-14.68
364.99	52.91
365.201	110.25
365.412	89.77
365.623	34.47
365.834	44.71
366.045	36.52
366.256	100.01
366.467	67.24
366.678	112.3
366.889	79.53
367.1	71.34
367.311	130.73
367.522	128.68
367.733	112.3
367.944	87.72
368.155	59.05
368.366	69.29
368.577	50.86
368.788	100.01
368.999	59.05
369.209	83.63
369.42	171.69
369.631	73.39
369.842	22.19
370.053	59.05
370.264	91.82
370.474	-0.34
370.685	-8.53
370.896	34.47
371.107	18.09
371.317	95.91
371.528	71.34
371.739	50.86
371.95	63.15
372.16	112.3
372.371	77.48
372.582	122.54
372.792	44.71
373.003	100.01
373.214	118.44
373.424	116.39
373.635	30.38
373.846	108.2
374.056	85.67
374.267	67.24
374.477	36.52
374.688	52.91
374.898	54.95
375.109	100.01
375.319	75.43
375.53	75.43
375.74	124.58
375.951	97.96
376.161	93.87
376.372	42.67
376.582	50.86
376.793	44.71
377.003	52.91
377.214	83.63
377.424	138.92
377.635	75.43
377.845	42.67
378.055	95.91
378.266	5.8
378.476	91.82
378.686	128.68
378.897	1.71
379.107	54.95
379.317	67.24
379.528	46.76
379.738	59.05
379.948	57
380.158	104.11
380.369	89.77
380.579	97.96
380.789	77.48
380.999	108.2
381.21	149.16
381.42	194.22
381.63	77.48
381.84	104.11
382.05	110.25
382.261	106.15
382.471	87.72
382.681	34.47
382.891	116.39
383.101	128.68
383.311	59.05
383.521	67.24
383.731	104.11
383.941	112.3
384.151	32.43
384.361	73.39
384.571	77.48
384.781	85.67
384.991	116.39
385.201	63.15
385.411	134.82
385.621	102.06
385.831	112.3
386.041	100.01
386.251	100.01
386.461	81.58
386.671	87.72
386.881	159.4
387.091	75.43
387.301	91.82
387.511	50.86
387.72	50.86
387.93	124.58
388.14	67.24
388.35	149.16
388.56	124.58
388.769	108.2
388.979	79.53
389.189	9.9
389.399	81.58
389.609	71.34
389.818	134.82
390.028	93.87
390.238	83.63
390.447	71.34
390.657	106.15
390.867	116.39
391.076	36.52
391.286	95.91
391.496	67.24
391.705	102.06
391.915	97.96
392.125	157.35
392.334	118.44
392.544	57
392.753	87.72
392.963	52.91
393.172	116.39
393.382	118.44
393.591	149.16
393.801	118.44
394.01	114.34
394.22	153.26
394.429	128.68
394.639	67.24
394.848	165.54
395.058	132.78
395.267	136.87
395.477	132.78
395.686	204.46
395.895	220.84
396.105	143.02
396.314	50.86
396.524	132.78
396.733	143.02
396.942	108.2
397.152	149.16
397.361	157.35
397.57	61.1
397.78	149.16
397.989	151.21
398.198	169.64
398.407	116.39
398.617	124.58
398.826	95.91
399.035	181.93
399.244	183.98
399.453	190.12
399.663	83.63
399.872	145.06
400.081	81.58
400.29	239.27
400.499	171.69
400.708	198.31
400.917	138.92
401.127	173.74
401.336	216.74
401.545	136.87
401.754	165.54
401.963	175.78
402.172	130.73
402.381	151.21
402.59	198.31
402.799	147.11
403.008	214.7
403.217	216.74
403.426	190.12
403.635	151.21
403.844	243.37
404.053	237.22
404.262	157.35
404.471	224.94
404.68	286.37
404.888	259.75
405.097	173.74
405.306	247.46
405.515	202.41
405.724	235.18
405.933	306.85
406.142	253.61
406.35	255.65
406.559	272.04
406.768	329.38
406.977	292.52
407.185	265.89
407.394	272.04
407.603	243.37
407.812	403.11
408.02	349.86
408.229	362.15
408.438	315.05
408.646	370.34
408.855	310.95
409.064	392.87
409.272	317.09
409.481	448.16
409.69	382.63
409.898	343.72
410.107	501.41
410.315	511.65
410.524	431.78
410.733	466.6
410.941	435.88
411.15	501.41
411.358	552.61
411.567	568.99
411.775	599.71
411.984	624.29
412.192	657.06
412.401	521.89
412.609	679.58
412.818	730.78
413.026	698.02
413.234	786.08
413.443	652.96
413.651	730.78
413.86	841.37
414.068	857.76
414.276	829.09
414.485	894.62
414.693	911
414.901	994.97
415.11	954.01
415.318	1099.42
415.526	1037.98
415.734	1021.6
415.943	1083.03
416.151	1123.99
416.359	1197.72
416.567	1234.58
416.776	1248.92
416.984	1336.98
417.192	1386.13
417.4	1275.54
417.608	1334.93
417.817	1496.72
418.025	1492.63
418.233	1666.71
418.441	1652.37
418.649	1613.46
418.857	1689.23
419.065	1900.17
419.273	1732.24
419.481	1848.97
419.689	2023.05
419.897	1961.61
420.105	2123.4
420.313	2135.69
420.521	2168.46
420.729	2270.86
420.937	2360.97
421.145	2440.84
421.353	2504.32
421.561	2557.57
421.769	2590.34
421.977	2836.1
422.185	2729.6
422.393	3028.6
422.601	3090.04
422.809	3090.04
423.017	3124.86
423.224	3257.98
423.432	3544.69
423.64	3473.01
423.848	3786.35
424.056	3720.82
424.263	3851.89
424.471	3948.14
424.679	4093.55
424.887	4288.11
425.094	4261.48
425.302	4353.64
425.51	4505.19
425.718	4677.22
425.925	4681.32
426.133	4836.96
426.341	5056.09
426.548	5365.34
426.756	5523.03
426.964	5449.3
427.171	5760.59
427.379	5729.88
427.586	6157.9
427.794	6141.52
428.001	6268.49
428.209	6719.04
428.417	6786.63
428.624	7134.78
428.832	7185.98
429.039	7087.68
429.247	7243.32
429.454	7751.22
429.662	8363.56
429.869	7843.38
430.076	8185.39
430.284	8152.62
430.491	8508.97
430.699	9014.82
430.906	8951.33
431.114	8896.03
431.321	9442.84
431.528	9469.47
431.736	9971.22
431.943	10749.45
432.15	10434.06
432.358	10286.61
432.565	11007.49
432.772	10876.42
432.979	11429.37
433.187	11488.76
433.394	11634.17
433.601	12428.78
433.808	12666.35
434.016	12369.39
434.223	12879.33
434.43	13565.4
434.637	13559.26
434.844	14312.91
435.052	14618.06
435.259	14298.58
435.466	14538.19
435.673	14446.03
435.88	15439.3
436.087	16254.39
436.294	16221.62
436.501	15771.07
436.708	16219.57
436.915	16600.49
437.122	17348
437.329	17393.06
437.537	17941.91
437.743	18052.5
437.95	17792.41
438.157	18990.47
438.364	19559.81
438.571	19768.7
438.778	19563.9
438.985	21249.38
439.192	20460.91
439.399	21319.01
439.606	20721.01
439.813	22107.48
440.02	23242.06
440.227	22738.26
440.433	22551.89
440.64	23254.34
440.847	23149.9
441.054	23639.36
441.261	25474.34
441.467	25011.5
441.674	25648.42
441.881	26203.42
442.088	26297.63
442.294	25845.02
442.501	26662.16
442.708	27305.23
442.914	28431.61
443.121	29568.23
443.328	28806.39
443.534	30362.84
443.741	29908.19
443.948	29445.35
444.154	31696.07
444.361	31171.79
444.568	31646.92
444.774	31603.91
444.981	32089.28
445.187	32824.5
445.394	34176.16
445.6	33750.18
445.807	36863.1
446.013	35755.15
446.22	35929.22
446.426	37323.89
446.633	37516.4
446.839	38968.41
447.046	37256.31
447.252	39511.12
447.459	39756.88
447.665	39193.68
447.871	40836.16
448.078	42695.71
448.284	40737.85
448.491	41626.67
448.697	43037.72
448.903	43807.76
449.11	44383.24
449.316	43615.25
449.522	43858.96
449.728	45167.61
449.935	45749.23
450.141	45816.82
450.347	46506.98
450.553	45079.55
450.76	45861.87
450.966	47186.91
451.172	47057.88
451.378	48186.32
451.584	46930.91
451.791	48051.15
451.997	47883.22
452.203	48630.72
452.409	49189.82
452.615	48454.6
452.821	46691.3
453.027	46558.18
453.233	48577.48
453.44	46685.15
453.646	47008.73
453.852	47498.2
454.058	48376.78
454.264	46492.65
454.47	47723.47
454.676	46302.18
454.882	47815.63
455.088	44102.67
455.294	44983.29
455.5	45628.4
455.705	45882.35
455.911	43873.29
456.117	43103.26
456.323	42896.41
456.529	40604.74
456.735	42349.6
456.941	41161.78
457.147	40582.21
457.352	39484.5
457.558	39009.37
457.764	39351.38
457.97	38833.24
458.176	37407.86
458.381	37670
458.587	35689.61
458.793	35775.62
458.999	34315.42
459.204	36531.33
459.41	35177.62
459.616	32808.12
459.821	33160.37
460.027	33248.43
460.233	32433.34
460.438	31038.67
460.644	31423.69
460.85	29947.11
461.055	29127.92
461.261	29404.39
461.466	26936.59
461.672	26326.3
461.878	28431.61
462.083	26127.64
462.289	25949.47
462.494	25494.82
462.7	24069.44
462.905	23735.62
463.111	24552.76
463.316	24716.59
463.522	23887.17
463.727	24048.96
463.932	24239.42
464.138	23493.96
464.343	24159.55
464.549	23412.04
464.754	23901.5
464.959	23803.2
465.165	23569.73
465.37	22478.16
465.575	21890.4
465.781	22799.69
465.986	23070.03
466.191	22132.06
466.397	21929.31
466.602	20723.05
466.807	21661.02
467.012	21628.26
467.218	21167.46
467.423	21112.17
467.628	21194.09
467.833	22125.91
468.038	21443.94
468.244	20764.01
468.449	21427.56
468.654	20811.12
468.859	20491.63
469.064	20548.98
469.269	19785.08
469.474	19891.58
469.679	20333.94
469.885	20006.27
470.09	20061.56
470.295	19985.79
470.5	19156.36
470.705	19776.89
470.91	19017.1
471.115	19131.78
471.32	19166.6
471.525	18879.88
471.73	18658.7
471.935	18392.47
472.139	17552.8
472.344	18212.24
472.549	17606.05
472.754	17599.9
472.959	17362.34
473.164	17028.52
473.369	16864.68
473.574	17784.22
473.778	17286.56
473.983	17296.8
474.188	17302.95
474.393	16475.57
474.598	16360.88
474.802	16354.74
475.007	16289.2
475.212	16186.8
475.417	15484.35
475.621	15619.52
475.826	15740.35
476.031	15402.43
476.235	14915.02
476.44	15480.25
476.645	15085
476.849	14738.89
477.054	14829
477.259	14495.18
477.463	14595.53
477.668	14081.49
477.872	14581.2
478.077	14024.15
478.282	13952.47
478.486	13714.91
478.691	13465.05
478.895	13719
479.1	13329.89
479.304	13424.09
479.509	13096.42
479.713	13231.58
479.918	13016.55
480.122	12778.98
480.326	13063.65
480.531	13065.7
480.735	12725.74
480.94	12703.21
481.144	13131.23
481.348	12633.58
481.553	12690.92
481.757	12185.07
481.961	12531.18
482.166	12848.61
482.37	12731.88
482.574	12361.2
482.778	12457.45
482.983	12678.63
483.187	12658.15
483.391	12443.12
483.595	12496.36
483.8	12312.05
484.004	12576.23
484.208	12406.25
484.412	12426.73
484.616	12469.74
484.821	12416.49
485.025	12266.99
485.229	12522.99
485.433	12463.6
485.637	12668.39
485.841	12340.72
486.045	12363.25
486.249	12473.84
486.453	12494.32
486.657	12457.45
486.861	12652.01
487.065	12234.22
487.269	12371.44
487.473	12324.33
487.677	12494.32
487.881	12557.8
488.085	12244.46
488.289	12510.7
488.493	12494.32
488.697	12404.21
488.901	12690.92
489.105	12408.3
489.309	12658.15
489.512	12711.4
489.716	12690.92
489.92	12516.84
490.124	12422.64
490.328	12977.64
490.531	12512.75
490.735	12742.12
490.939	12731.88
491.143	12555.76
491.346	12848.61
491.55	13114.85
491.754	12799.46
491.958	12897.77
492.161	12891.62
492.365	13092.32
492.569	12789.22
492.772	13112.8
492.976	13266.4
493.18	13075.94
493.383	13325.79
493.587	13333.98
493.79	13475.29
493.994	13159.91
494.197	13813.21
494.401	13831.64
494.605	13708.76
494.808	13968.85
495.012	14024.15
495.215	14077.4
495.419	14355.92
495.622	14034.39
495.825	14409.17
496.029	14400.97
496.232	14560.72
496.436	14501.33
496.639	14878.15
496.843	14847.43
497.046	15175.11
497.249	15527.36
497.453	15295.94
497.656	15386.05
497.859	15566.27
498.063	15566.27
498.266	16203.19
498.469	15943.1
498.673	16106.93
498.876	16410.03
499.079	16649.64
499.282	16477.62
499.485	16776.62
499.689	17071.53
499.892	17180.07
500.095	17280.42
500.298	17669.53
500.501	17720.73
500.705	18095.51
500.908	18044.31
501.111	18204.05
501.314	18390.42
501.517	18722.19
501.72	18871.69
501.923	18789.77
502.126	19342.72
502.329	19539.33
502.532	19590.53
502.735	19574.14
502.938	20133.24
503.141	20186.49
503.344	20688.24
503.547	20458.87
503.75	21040.49
503.953	21196.14
504.156	21220.71
504.359	21544.29
504.562	21710.18
504.765	21837.15
504.968	22547.79
505.17	22580.56
505.373	22570.32
505.576	22863.18
505.779	23358.79
505.982	23254.34
506.185	23708.99
506.387	23620.93
506.59	24233.27
506.793	24665.39
506.996	24282.42
507.198	24968.49
507.401	24802.61
507.604	25337.13
507.807	25685.28
508.009	26103.07
508.212	26000.67
508.415	26400.02
508.617	26557.72
508.82	26602.77
509.022	26635.54
509.225	27102.48
509.428	27454.73
509.63	28134.65
509.833	27901.18
510.035	28552.44
510.238	28493.05
510.44	28740.85
510.643	29328.62
510.845	29377.77
511.048	29297.9
511.25	29873.38
511.453	30258.4
511.655	30880.98
511.858	30573.78
512.06	30639.32
512.262	31106.26
512.465	31022.29
512.667	31698.12
512.87	32029.89
513.072	31896.77
513.274	32627.9
513.477	33105.07
513.679	33346.73
513.881	33770.66
514.084	33930.4
514.286	34137.25
514.488	34061.47
514.69	34991.25
514.893	35148.95
515.095	35216.53
515.297	35536.01
515.499	35734.67
515.701	36043.91
515.904	36611.2
516.106	36811.9
516.308	37031.03
516.51	37401.71
516.712	37487.73
516.914	37905.51
517.116	38509.66
517.318	38155.36
517.52	38466.66
517.722	38886.49
517.925	39578.7
518.127	39978.06
518.329	40100.93
518.531	39834.7
518.733	40623.17
518.935	41098.3
519.136	41088.06
519.338	41294.9
519.54	41473.07
519.742	42112.04
519.944	42122.28
520.146	42581.02
520.348	43156.5
520.55	43125.78
520.752	43340.82
520.954	44127.24
521.155	43586.58
521.357	44454.92
521.559	45102.07
521.761	45726.7
521.963	44936.19
522.164	45607.92
522.366	45306.87
522.568	46107.63
522.77	45949.93
522.971	46416.87
523.173	46283.75
523.375	46816.22
523.576	46904.29
523.778	47139.8
523.98	47659.99
524.181	47901.65
524.383	48124.88
524.584	48147.4
524.786	48505.8
524.988	48346.06
525.189	49150.91
525.391	49165.24
525.592	49398.71
525.794	49644.47
525.995	49662.9
526.197	49566.65
526.398	49863.6
526.6	50482.09
526.801	50467.75
527.003	50600.87
527.204	50633.64
527.406	50531.24
527.607	50658.21
527.808	50873.25
528.01	50189.23
528.211	51110.81
528.412	52220.81
528.614	51633.05
528.815	51624.85
529.016	52259.73
529.218	51827.6
529.419	52145.04
529.62	52366.22
529.822	52519.82
530.023	52122.51
530.224	52423.56
530.425	52405.13
530.626	51934.1
530.828	51950.48
531.029	53361.53
531.23	52312.97
531.431	52654.98
531.632	52845.44
531.833	53459.83
532.035	52657.03
532.236	52933.51
532.437	52904.84
532.638	52792.2
532.839	53019.52
533.04	53271.42
533.241	52474.76
533.442	53730.17
533.643	53054.34
533.844	53156.74
534.045	53351.29
534.246	52726.66
534.447	53631.86
534.648	53130.11
534.849	53179.26
535.05	53236.61
535.251	53300.09
535.451	52812.68
535.652	53377.92
535.853	53212.03
536.054	53283.71
536.255	53164.93
536.456	53132.16
536.657	53740.41
536.857	53044.1
537.058	53113.73
537.259	53932.92
537.46	53332.86
537.66	53101.44
537.861	53797.75
538.062	53343.1
538.263	53220.22
538.463	52984.71
538.664	53451.64
538.865	53334.91
539.065	53582.71
539.266	52900.74
539.466	53836.66
539.667	52884.36
539.868	53625.72
540.068	53050.24
540.269	52763.53
540.469	53408.64
540.67	52990.85
540.87	52597.64
541.071	53080.96
541.271	53457.79
541.472	53566.33
541.672	52902.79
541.873	53033.86
542.073	52652.94
542.274	53216.13
542.474	52880.26
542.675	52673.41
542.875	53156.74
543.075	52501.39
543.276	52468.62
543.476	53304.19
543.676	52675.46
543.877	53218.17
544.077	52788.1
544.277	52966.27
544.478	52497.29
544.678	53283.71
544.878	52571.02
545.078	53025.67
545.279	52642.7
545.479	52454.28
545.679	52992.9
545.879	52728.71
546.079	52638.6
546.28	52405.13
546.48	52558.73
546.68	52798.34
546.88	53089.15
547.08	52411.27
547.28	52435.85
547.48	52302.73
547.68	53078.91
547.88	52358.03
548.081	52671.37
548.281	52611.98
548.481	52581.26
548.681	52659.08
548.881	52636.55
549.081	52190.09
549.28	52573.06
549.48	52611.98
549.68	52616.07
549.88	53011.33
550.08	52308.88
550.28	52370.32
550.48	52476.81
550.68	52597.64
550.88	52431.75
551.08	52571.02
551.279	52075.41
551.479	52009.87
551.679	52247.44
551.879	52304.78
552.079	52439.95
552.278	52048.78
552.478	52233.1
552.678	52663.18
552.878	52607.88
553.077	52396.94
553.277	51444.63
553.477	52804.48
553.676	51884.95
553.876	52339.6
554.076	51575.7
554.275	51864.47
554.475	51278.75
554.674	51862.42
554.874	51882.9
555.074	51649.43
555.273	51737.49
555.473	51798.93
555.672	51831.7
555.872	51270.56
556.071	51600.28
556.271	52005.78
556.47	51461.02
556.67	51442.59
556.869	51241.88
557.068	51469.21
557.268	51155.87
557.467	51035.04
557.667	51182.49
557.866	51221.41
558.065	51010.46
558.265	51166.11
558.464	51119.01
558.663	51385.24
558.863	50541.48
559.062	51350.43
559.261	50148.27
559.461	51510.17
559.66	50690.98
559.859	50811.81
560.058	50217.9
560.258	50682.79
560.457	50590.63
560.656	50846.63
560.855	50592.68
561.054	50813.86
561.253	49867.7
561.453	50314.15
561.652	50211.76
561.851	50705.32
562.05	50174.89
562.249	50015.15
562.448	50256.81
562.647	50125.74
562.846	49941.42
563.045	49945.52
563.244	49351.61
563.443	50109.36
563.642	49527.73
563.841	49445.82
564.04	49533.88
564.239	50156.46
564.438	49382.33
564.637	49388.47
564.836	49738.68
565.035	48649.16
565.234	49200.06
565.432	48688.07
565.631	48544.71
565.83	48946.11
566.029	48812.99
566.228	48636.87
566.427	48638.92
566.625	48634.82
566.824	47791.06
567.023	48987.07
567.222	47936.46
567.42	48405.45
567.619	48262.09
567.818	47956.94
568.016	47868.88
568.215	48354.25
568.414	48018.38
568.612	48264.14
568.811	47563.73
569.01	47752.15
569.208	47205.34
569.407	47600.6
569.605	46779.36
569.804	47496.15
570.002	47021.02
570.201	47191
570.4	47141.85
570.598	46537.7
570.797	46611.43
570.995	47084.51
571.193	46214.12
571.392	46875.62
571.59	46494.69
571.789	46597.09
571.987	45997.04
572.186	46042.09
572.384	46046.19
572.582	45812.72
572.781	45681.65
572.979	45435.89
573.177	45962.22
573.376	46015.47
573.574	45188.09
573.772	45865.97
573.971	45093.88
574.169	45106.17
574.367	45071.35
574.565	45470.71
574.763	44608.51
574.962	44643.33
575.16	44676.1
575.358	44491.78
575.556	44018.7
575.754	45061.12
575.952	44233.74
576.151	44735.49
576.349	43912.2
576.547	44037.13
576.745	44317.7
576.943	44094.47
577.141	43490.32
577.339	43922.44
577.537	43256.85
577.735	43342.87
577.933	43494.42
578.131	43156.5
578.329	43195.42
578.527	42966.04
578.725	43160.6
578.923	43140.12
579.121	42742.81
579.319	42521.63
579.516	42837.02
579.714	42751.01
579.912	42447.91
580.11	42540.07
580.308	42398.76
580.506	42644.51
580.704	41925.67
580.901	42153
581.099	42267.69
581.297	41292.85
581.495	41319.48
581.692	41772.08
581.89	41385.01
582.088	41479.22
582.285	41253.94
582.483	41397.3
582.681	41331.76
582.878	40885.31
583.076	40655.93
583.274	41391.16
583.471	40401.99
583.669	40610.88
583.866	40533.06
584.064	40379.46
584.262	40375.36
584.459	40506.43
584.657	39687.25
584.854	40320.07
585.052	39533.65
585.249	39795.79
585.447	39801.93
585.644	39654.48
585.841	39298.13
586.039	39867.47
586.236	39015.51
586.434	39423.06
586.631	38812.76
586.828	38952.02
587.026	39148.63
587.223	39210.07
587.42	38698.08
587.618	38798.43
587.815	38804.57
588.012	38462.56
588.21	38433.89
588.407	38638.69
588.604	38169.7
588.801	37842.03
588.999	38177.89
589.196	37766.25
589.393	37969
589.59	37583.98
589.787	37121.14
589.984	37497.97
590.182	37180.53
590.379	37305.46
590.576	37115
590.773	37303.41
590.97	37010.55
591.167	37147.76
591.364	36541.57
591.561	37010.55
591.758	36412.54
591.955	36930.68
592.152	36752.51
592.349	36074.63
592.546	36435.07
592.743	36052.1
592.94	35499.15
593.137	35810.44
593.334	35742.86
593.531	35077.27
593.727	35753.1
593.924	35783.82
594.121	35189.91
594.318	35472.53
594.515	35372.17
594.712	35521.68
594.908	35048.6
595.105	35282.06
595.302	34851.99
595.499	34903.19
595.696	34815.13
595.892	34041
596.089	34608.28
596.286	34622.62
596.482	34163.87
596.679	34014.37
596.876	34276.51
597.072	33813.67
597.269	34131.11
597.466	33354.93
597.662	33842.34
597.859	33787.05
598.055	33596.59
598.252	33406.12
598.448	33262.77
598.645	33217.71
598.841	33105.07
599.038	33135.79
599.234	32971.96
599.431	32335.04
599.627	32871.61
599.824	33051.83
600.02	32218.3
600.217	32654.52
600.413	32877.75
600.609	32289.98
600.806	32177.34
601.002	32220.35
601.198	32081.09
601.395	31837.38
601.591	31745.22
601.787	31751.37
601.984	31356.11
602.18	32021.7
602.376	31505.61
602.572	31136.98
602.769	31386.83
602.965	30913.75
603.161	31093.97
603.357	31126.74
603.553	31020.24
603.75	30827.73
603.946	30661.85
604.142	30946.51
604.338	30061.79
604.534	30352.6
604.73	30156
604.926	30219.49
605.122	30356.7
605.318	30401.75
605.514	30033.12
605.71	30043.36
605.906	29932.77
606.102	29809.89
606.298	30117.09
606.494	29744.36
606.69	29783.27
606.886	29811.94
607.082	28966.13
607.278	29527.27
607.474	28943.6
607.67	29504.74
607.866	28773.62
608.062	29668.58
608.257	29162.73
608.453	28927.22
608.649	29324.52
608.845	29019.38
609.041	28607.73
609.236	28597.49
609.432	28544.25
609.628	28970.22
609.824	28574.97
610.019	28333.31
610.215	28574.97
610.411	28718.32
610.606	27995.39
610.802	28269.82
610.998	28683.51
611.193	28380.41
611.389	28347.64
611.584	28114.17
611.78	27888.9
611.976	28206.33
612.171	28230.91
612.367	28065.02
612.562	27649.28
612.758	27514.12
612.953	27593.99
613.149	27534.6
613.344	27593.99
613.539	27946.24
613.735	27591.94
613.93	27706.63
614.126	27516.17
614.321	27362.57
614.517	27231.5
614.712	27297.03
614.907	27075.85
615.103	27610.37
615.298	26866.96
615.493	27315.47
615.688	26963.22
615.884	27385.1
616.079	26592.53
616.274	27012.37
616.47	27024.65
616.665	26944.78
616.86	26633.49
617.055	26426.65
617.25	26817.81
617.445	26891.54
617.641	25734.43
617.836	26424.6
618.031	26049.82
618.226	26633.49
618.421	26168.6
618.616	26297.63
618.811	25763.11
619.006	26105.12
619.201	25722.15
619.396	26248.47
619.591	25406.76
619.786	26023.2
619.981	25230.63
620.176	25662.76
620.371	25152.81
620.566	25130.28
620.761	24907.05
620.956	24982.83
621.151	24499.51
621.346	24677.68
621.541	24479.03
621.735	24497.46
621.93	24491.32
622.125	24257.85
622.32	23870.78
622.515	23915.84
622.709	24020.28
622.904	23983.42
623.099	23459.14
623.294	23743.81
623.488	23672.13
623.683	23698.75
623.878	22951.24
624.072	22918.48
624.267	23176.52
624.462	23037.26
624.656	22820.17
624.851	22642
625.046	22637.91
625.24	22472.02
625.435	22504.79
625.629	22177.11
625.824	22197.59
626.018	22025.56
626.213	21603.68
626.407	21575.01
626.602	21466.47
626.796	21640.54
626.991	21513.57
627.185	21208.42
627.38	21112.17
627.574	21128.55
627.768	20864.36
627.963	20757.87
628.157	20729.2
628.352	20591.98
628.546	20241.78
628.74	20368.76
628.935	20249.97
629.129	20225.4
629.323	19991.93
629.517	20004.22
629.712	19713.41
629.906	20075.9
630.1	19498.37
630.294	19819.9
630.489	19221.89
630.683	19465.6
630.877	18914.7
631.071	19103.11
631.265	19215.75
631.459	18926.99
631.653	18933.13
631.848	19099.02
632.042	18707.85
632.236	18736.52
632.43	18623.89
632.624	18490.77
632.818	18414.99
633.012	18154.9
633.206	17946.01
633.4	17950.1
633.594	17776.03
633.788	18134.42
633.982	17372.58
634.176	17874.33
634.369	17524.13
634.563	17464.74
634.757	17608.09
634.951	17548.7
635.145	17343.91
635.339	17278.37
635.533	17141.16
635.726	17032.61
635.92	17014.18
636.114	16848.3
636.308	16625.07
636.501	16889.26
636.695	16543.15
636.889	16301.49
637.083	16356.79
637.276	16330.16
637.47	16358.83
637.664	16123.32
637.857	16027.06
638.051	16373.17
638.244	16000.44
638.438	15879.61
638.632	15695.29
638.825	15435.2
639.019	15293.89
639.212	15177.16
639.406	15328.7
639.599	15345.09
639.793	15449.53
639.986	14980.55
640.18	15117.76
640.373	15388.1
640.567	14747.08
640.76	14976.45
640.954	14702.03
641.147	14724.55
641.34	14663.11
641.534	14665.16
641.727	14497.23
641.92	14317.01
642.114	14374.35
642.307	14210.51
642.5	14460.37
642.694	14110.16
642.887	13866.46
643.08	14079.44
643.273	13956.57
643.467	13946.33
643.66	13731.29
643.853	13653.47
644.046	13559.26
644.239	13684.19
644.432	13460.96
644.626	13501.92
644.819	13108.71
645.012	13293.02
645.205	13114.85
645.398	13217.25
645.591	12996.07
645.784	12875.24
645.977	12641.77
646.17	12783.08
646.363	12670.44
646.556	12637.67
646.749	12766.7
646.942	12637.67
647.135	12445.16
647.328	12314.09
647.521	12592.62
647.714	12338.67
647.907	12275.18
648.099	12045.81
648.292	11990.52
648.485	11904.5
648.678	12078.58
648.871	11906.55
649.064	11949.56
649.256	11924.98
649.449	11724.28
649.642	11484.67
649.835	11585.02
650.027	11679.22
650.22	11630.07
650.413	11427.32
650.605	11394.56
650.798	11202.05
650.991	11200
651.183	11312.64
651.376	11052.55
651.568	11318.78
651.761	11095.55
651.954	11060.74
652.146	11218.43
652.339	10962.44
652.531	10835.46
652.724	10771.97
652.916	10767.88
653.109	10841.61
653.301	10601.99
653.494	10505.74
653.686	10669.58
653.879	10552.84
654.071	10481.16
654.263	10259.98
654.456	10296.85
654.648	10432.01
654.84	10044.95
655.033	9924.12
655.225	10214.93
655.417	9846.29
655.61	9965.07
655.802	9872.92
655.994	9844.24
656.186	9979.41
656.379	9745.94
656.571	9825.81
656.763	9866.77
656.955	9537.05
657.148	9651.74
657.34	9721.37
657.532	9479.71
657.724	9192.99
657.916	9430.55
658.108	9256.48
658.3	9244.19
658.492	9309.72
658.684	9102.88
658.876	9176.61
659.068	9023.01
659.26	8936.99
659.452	8992.29
659.644	8973.86
659.836	8719.91
660.028	8793.64
660.22	8734.25
660.412	8820.26
660.604	8711.72
660.796	8844.84
660.988	8558.12
661.18	8443.43
661.372	8459.82
661.563	8574.5
661.755	8379.95
661.947	8523.3
662.139	8252.97
662.331	8361.52
662.522	8042.03
662.714	8240.68
662.906	8099.38
663.097	8169.01
663.289	8062.51
663.481	8025.65
663.673	8056.37
663.864	8019.5
664.056	7747.12
664.247	7933.49
664.439	7886.39
664.631	7831.09
664.822	7867.95
665.014	7808.56
665.205	7851.57
665.397	7665.21
665.588	7630.39
665.78	7532.09
665.971	7507.51
666.163	7702.07
666.354	7454.26
666.546	7376.44
666.737	7173.69
666.929	7546.42
667.12	7470.65
667.311	7257.66
667.503	7063.1
667.694	7401.02
667.885	7034.43
668.077	7165.5
668.268	7188.03
668.459	7099.97
668.651	7161.41
668.842	7048.77
669.033	7124.54
669.224	6882.88
669.416	6962.75
669.607	6999.62
669.798	6907.46
669.989	6989.38
670.18	6886.98
670.371	6702.66
670.563	6760
670.754	6768.2
670.945	6518.34
671.136	6555.21
671.327	6807.11
671.518	6657.61
671.709	6530.63
671.9	6635.08
672.091	6614.6
672.282	6516.3
672.473	6362.7
672.664	6458.95
672.855	6415.94
673.046	6385.23
673.237	6280.78
673.428	6309.45
673.619	6334.03
673.809	6309.45
674	6325.83
674.191	6368.84
674.382	6057.55
674.573	6198.86
674.764	6202.96
674.954	6235.72
675.145	6071.89
675.336	6071.89
675.527	6217.29
675.717	6151.76
675.908	6037.07
676.099	6061.65
676.289	6080.08
676.48	6008.4
676.671	5875.28
676.861	5826.13
677.052	5928.53
677.243	5830.23
677.433	5641.81
677.624	6018.64
677.814	5797.46
678.005	5727.83
678.195	5729.88
678.386	6041.17
678.576	5699.16
678.767	5789.27
678.957	5664.34
679.148	5762.64
679.338	5738.07
679.529	5731.92
679.719	5477.98
679.909	5738.07
680.1	5645.91
680.29	5707.35
680.481	5539.41
680.671	5598.81
680.861	5539.41
681.052	5703.25
681.242	5508.69
681.432	5475.93
681.622	5408.34
681.813	5566.04
682.003	5539.41
682.193	5361.24
682.383	5383.77
682.573	5506.65
682.764	5471.83
682.954	5394.01
683.144	5426.78
683.334	5432.92
683.524	5291.61
683.714	5207.64
683.904	5402.2
684.094	5289.56
684.284	5320.28
684.474	5379.67
684.664	5228.12
684.854	5203.55
685.044	5394.01
685.234	5197.4
685.424	5138.01
685.614	5135.96
685.804	5195.36
685.994	5015.13
686.184	5148.25
686.374	5205.6
686.564	5129.82
686.753	5181.02
686.943	4843.1
687.133	5049.95
687.323	4994.65
687.513	4984.41
687.702	4976.22
687.892	4925.02
688.082	4900.45
688.272	4851.3
688.461	4943.46
688.651	4965.98
688.841	4781.67
689.03	4734.56
689.22	4814.43
689.41	4742.75
689.599	4634.21
689.789	4746.85
689.979	4855.39
690.168	4572.77
690.358	4529.77
690.547	4609.64
690.737	4701.79
690.926	4583.01
691.116	4527.72
691.305	4599.4
691.495	4494.95
691.684	4562.53
691.874	4621.92
692.063	4597.35
692.252	4521.57
692.442	4535.91
692.631	4320.87
692.82	4480.61
693.01	4284.01
693.199	4351.59
693.388	4228.71
693.578	4224.62
693.767	4374.12
693.956	4138.6
694.146	4435.56
694.335	4126.32
694.524	4267.63
694.713	4294.25
694.902	4097.64
695.092	4288.11
695.281	4118.12
695.47	4331.11
695.659	4042.35
695.848	4124.27
696.037	4134.51
696.226	4089.45
696.415	4009.58
696.604	4114.03
696.793	4042.35
696.982	4058.73
697.171	4060.78
697.36	4052.59
697.549	4083.31
697.738	3987.05
697.927	3954.29
698.116	3935.85
698.305	3999.34
698.494	3913.33
698.683	3974.77
698.872	3915.37
699.061	3917.42
699.25	4114.03
699.438	3835.5
699.627	3860.08
699.816	3927.66
700.005	3870.32
700.193	3901.04
700.382	3974.77
700.571	3860.08
700.76	3878.51
700.948	3798.64
701.137	3780.21
701.326	3808.88
701.514	3673.71
701.703	3860.08
701.892	3782.26
702.08	3796.59
702.269	3724.91
702.457	3620.47
702.646	3710.58
702.834	3745.39
703.023	3694.19
703.212	3749.49
703.4	3692.15
703.589	3503.73
703.777	3780.21
703.965	3786.35
704.154	3772.02
704.342	3681.91
704.531	3554.93
704.719	3556.98
704.907	3589.75
705.096	3587.7
705.284	3647.09
705.472	3526.26
705.661	3583.6
705.849	3618.42
706.037	3630.71
706.226	3411.57
706.414	3630.71
706.602	3532.4
706.79	3581.56
706.979	3479.16
707.167	3493.49
707.355	3403.38
707.543	3415.67
707.731	3577.46
707.919	3565.17
708.107	3491.45
708.296	3368.57
708.484	3395.19
708.672	3589.75
708.86	3499.64
709.048	3352.18
709.236	3499.64
709.424	3384.95
709.612	3413.62
709.8	3382.9
709.988	3298.94
710.176	3427.96
710.364	3317.37
710.551	3397.24
710.739	3405.43
710.927	3438.2
711.115	3427.96
711.303	3335.8
711.491	3405.43
711.679	3194.49
711.866	3352.18
712.054	3436.15
712.242	3245.69
712.43	3337.85
712.617	3286.65
712.805	3176.06
712.993	3298.94
713.181	3354.23
713.368	3212.92
713.556	3387
713.744	3116.67
713.931	3327.61
714.119	3245.69
714.306	3208.83
714.494	3370.62
714.682	3278.46
714.869	3190.39
715.057	3217.02
715.244	3122.81
715.432	3255.93
715.619	3278.46
715.807	3147.39
715.994	3196.54
716.182	3079.8
716.369	3163.77
716.556	3096.19
716.744	3126.91
716.931	3083.9
717.119	3118.72
717.306	3163.77
717.493	3223.16
717.681	3098.24
717.868	3163.77
718.055	3067.52
718.242	3227.26
718.43	3044.99
718.617	2973.31
718.804	3104.38
718.991	3026.56
719.179	3108.48
719.366	3008.12
719.553	3001.98
719.74	2936.45
719.927	3100.28
720.114	2961.02
720.301	3057.28
720.488	2977.41
720.676	3012.22
720.863	2952.83
721.05	2993.79
721.237	2868.86
721.424	2938.49
721.611	3016.32
721.798	3038.84
721.985	2940.54
722.172	2936.45
722.358	2934.4
722.545	2993.79
722.732	2827.9
722.919	2973.31
723.106	2854.53
723.293	3061.37
723.48	2897.53
723.667	2956.93
723.853	2926.21
724.04	2879.1
724.227	2950.78
724.414	2961.02
724.6	2918.01
724.787	2936.45
724.974	2932.35
725.161	2836.1
725.347	2860.67
725.534	2860.67
725.72	2891.39
725.907	2866.81
726.094	2786.94
726.28	2674.31
726.467	2838.14
726.653	2887.29
726.84	2762.37
727.027	2958.97
727.213	2827.9
727.4	2887.29
727.586	2731.65
727.773	2700.93
727.959	2786.94
728.145	2680.45
728.332	2565.76
728.518	2793.09
728.705	2694.79
728.891	2752.13
729.077	2899.58
729.264	2690.69
729.45	2682.5
729.636	2856.58
729.823	2678.4
730.009	2848.38
730.195	2707.07
730.382	2664.07
730.568	2866.81
730.754	2727.55
730.94	2668.16
731.126	2721.41
731.313	2705.03
731.499	2600.58
731.685	2813.57
731.871	2745.98
732.057	2725.51
732.243	2692.74
732.429	2619.01
732.615	2770.56
732.801	2754.18
732.987	2707.07
733.173	2666.11
733.359	2684.55
733.545	2672.26
733.731	2709.12
733.917	2664.07
734.103	2682.5
734.289	2623.11
734.475	2614.91
734.661	2698.88
734.847	2711.17
735.033	2651.78
735.219	2573.96
735.404	2576
735.59	2608.77
735.776	2524.8
735.962	2590.34
736.148	2606.72
736.333	2573.96
736.519	2461.32
736.705	2631.3
736.89	2535.04
737.076	2565.76
737.262	2516.61
737.447	2526.85
737.633	2481.8
737.819	2571.91
738.004	2557.57
738.19	2612.87
738.375	2485.89
738.561	2582.15
738.747	2489.99
738.932	2418.31
739.118	2410.12
739.303	2442.89
739.489	2471.56
739.674	2311.82
739.859	2492.04
740.045	2416.26
740.23	2418.31
740.416	2279.05
740.601	2483.84
740.786	2391.69
740.972	2387.59
741.157	2377.35
741.342	2432.65
741.528	2352.77
741.713	2451.08
741.898	2279.05
742.084	2330.25
742.269	2301.58
742.454	2326.15
742.639	2311.82
742.824	2281.1
743.01	2401.93
743.195	2320.01
743.38	2320.01
743.565	2311.82
743.75	2197.13
743.935	2279.05
744.12	2246.28
744.305	2180.75
744.49	2184.84
744.675	2264.71
744.86	2131.59
745.045	2201.23
745.23	2223.75
745.415	2143.88
745.6	2197.13
745.785	2207.37
745.97	2242.18
746.155	2166.41
746.34	2242.18
746.525	2115.21
746.71	2137.74
746.895	2016.91
747.079	2010.76
747.264	1951.37
747.449	2139.79
747.634	2096.78
747.819	2074.25
748.003	2117.26
748.188	2025.1
748.373	1896.08
748.557	1978
748.742	2018.96
748.927	2084.49
749.111	1937.04
749.296	1885.84
749.481	1953.42
749.665	1851.02
749.85	1967.76
750.034	1957.52
750.219	1875.6
750.404	1871.5
750.588	1832.59
750.773	1865.36
750.957	1799.82
751.141	1748.62
751.326	1781.39
751.51	1791.63
751.695	1793.68
751.879	1724.05
752.064	1791.63
752.248	1603.22
752.432	1730.19
752.617	1793.68
752.801	1619.6
752.985	1707.66
753.17	1740.43
753.354	1705.62
753.538	1683.09
753.722	1588.88
753.907	1609.36
754.091	1533.59
754.275	1549.97
754.459	1461.91
754.643	1631.89
754.828	1615.51
755.012	1502.87
755.196	1492.63
755.38	1377.94
755.564	1455.76
755.748	1437.33
755.932	1461.91
756.116	1547.92
756.3	1449.62
756.484	1379.99
756.668	1451.67
756.852	1404.57
757.036	1388.18
757.22	1377.94
757.404	1427.09
757.588	1379.99
757.772	1435.28
757.956	1398.42
758.14	1357.46
758.323	1361.56
758.507	1375.89
758.691	1359.51
758.875	1336.98
759.059	1336.98
759.242	1265.3
759.426	1336.98
759.61	1400.47
759.794	1242.78
759.977	1228.44
760.161	1283.74
760.345	1189.53
760.528	1248.92
760.712	1285.78
760.895	1205.91
761.079	1216.15
761.263	1177.24
761.446	1261.21
761.63	1214.1
761.813	1150.62
761.997	1250.97
762.18	1083.03
762.364	1210.01
762.547	1062.55
762.731	1115.8
762.914	1046.17
763.098	1080.99
763.281	1191.58
763.464	1152.67
763.648	1160.86
763.831	1060.51
764.015	1101.47
764.198	1107.61
764.381	1042.07
764.564	1191.58
764.748	1074.84
764.931	1007.26
765.114	1068.7
765.297	1085.08
765.481	1013.4
765.664	1050.27
765.847	1066.65
766.03	1146.52
766.213	1091.23
766.397	1076.89
766.58	1167
766.763	1070.75
766.946	970.4
767.129	1046.17
767.312	1017.5
767.495	960.16
767.678	997.02
767.861	1019.55
768.044	1025.69
768.227	992.92
768.41	988.83
768.593	964.25
768.776	976.54
768.959	941.72
769.142	915.1
769.324	994.97
769.507	947.87
769.69	960.16
769.873	921.24
770.056	1007.26
770.239	980.64
770.421	1019.55
770.604	915.1
770.787	984.73
770.97	919.2
771.152	878.24
771.335	927.39
771.518	886.43
771.7	896.67
771.883	894.62
772.066	837.28
772.248	962.2
772.431	960.16
772.613	837.28
772.796	923.29
772.978	874.14
773.161	874.14
773.343	923.29
773.526	911
773.708	790.17
773.891	779.93
774.073	831.13
774.256	816.8
774.438	816.8
774.621	841.37
774.803	857.76
774.985	784.03
775.168	894.62
775.35	784.03
775.532	726.69
775.715	806.56
775.897	802.46
776.079	812.7
776.261	872.09
776.444	710.3
776.626	763.55
776.808	669.34
776.99	732.83
777.173	671.39
777.355	779.93
777.537	685.73
777.719	695.97
777.901	648.86
778.083	730.78
778.265	663.2
778.447	708.26
778.629	700.06
778.811	661.15
778.993	603.81
779.175	732.83
779.357	759.46
779.539	618.15
779.721	640.67
779.903	632.48
780.085	585.38
780.267	683.68
780.449	689.82
780.631	661.15
780.812	710.3
780.994	544.42
781.176	700.06
781.358	607.91
781.54	618.15
781.721	601.76
781.903	675.49
782.085	579.23
782.267	544.42
782.448	571.04
782.63	568.99
782.812	585.38
782.993	560.8
783.175	593.57
783.357	558.75
783.538	548.51
783.72	519.84
783.901	601.76
784.083	568.99
784.264	452.26
784.446	501.41
784.627	542.37
784.809	575.14
784.99	534.18
785.172	501.41
785.353	493.22
785.535	497.32
785.716	564.9
785.897	450.21
786.079	509.6
786.26	480.93
786.441	485.03
786.623	523.94
786.804	427.68
786.985	456.36
787.167	491.17
787.348	478.88
787.529	433.83
787.71	548.51
787.891	493.22
788.073	433.83
788.254	413.35
788.435	499.36
788.616	390.82
788.797	470.69
788.978	429.73
789.159	427.68
789.34	464.55
789.522	464.55
789.703	392.87
789.884	466.6
790.065	386.72
790.246	435.88
790.427	403.11
790.607	478.88
790.788	429.73
790.969	319.14
791.15	317.09
791.331	306.85
791.512	399.01
791.693	345.77
791.874	370.34
792.054	360.1
792.235	366.25
792.416	403.11
792.597	362.15
792.778	472.74
792.958	366.25
793.139	284.33
793.32	388.77
793.5	300.71
793.681	427.68
793.862	337.57
794.042	396.96
794.223	259.75
794.404	333.48
794.584	296.61
794.765	384.68
794.945	300.71
795.126	343.72
795.306	304.81
795.487	321.19
795.667	282.28
795.848	411.3
796.028	298.66
796.209	405.16
796.389	327.33
796.57	329.38
796.75	290.47
796.93	313
797.111	255.65
797.291	329.38
797.471	329.38
797.652	257.7
797.832	319.14
798.012	278.18
798.192	349.86
798.373	257.7
798.553	292.52
798.733	251.56
798.913	231.08
799.093	313
799.274	257.7
799.454	274.09
799.634	296.61
799.814	274.09
799.994	325.29
800.174	292.52
800.354	255.65
800.534	239.27
800.714	251.56
800.894	255.65
801.074	186.02
801.254	263.85
801.434	304.81
801.614	224.94
801.794	214.7
801.974	751.26
802.154	280.23
802.334	257.7
802.514	235.18
802.693	224.94
802.873	257.7
803.053	247.46
803.233	263.85
803.413	218.79
803.592	290.47
803.772	200.36
803.952	222.89
804.131	265.89
804.311	272.04
804.491	304.81
804.67	222.89
804.85	259.75
805.03	222.89
805.209	192.17
805.389	239.27
805.568	306.85
805.748	276.13
805.928	247.46
806.107	194.22
806.287	216.74
806.466	186.02
806.646	177.83
806.825	132.78
807.004	224.94
807.184	265.89
807.363	231.08
807.543	173.74
807.722	239.27
807.901	263.85
808.081	245.41
808.26	229.03
808.439	181.93
808.619	212.65
808.798	224.94
808.977	231.08
809.156	286.37
809.336	204.46
809.515	231.08
809.694	100.01
809.873	116.39
810.052	175.78
810.231	218.79
810.411	175.78
810.59	188.07
810.769	247.46
810.948	181.93
811.127	118.44
811.306	243.37
811.485	116.39
811.664	239.27
811.843	190.12
812.022	190.12
812.201	216.74
812.38	165.54
812.559	190.12
812.737	192.17
812.916	77.48
813.095	214.7
813.274	114.34
813.453	212.65
813.632	198.31
813.811	194.22
813.989	134.82
814.168	136.87
814.347	126.63
814.526	204.46
814.704	149.16
814.883	194.22
815.062	116.39
815.24	212.65
815.419	136.87
815.598	145.06
815.776	177.83
815.955	210.6
816.133	132.78
816.312	190.12
816.49	116.39
816.669	128.68
816.847	151.21
817.026	179.88
817.204	157.35
817.383	153.26
817.561	120.49
817.74	110.25
817.918	161.45
818.097	149.16
818.275	149.16
818.453	206.5
818.632	102.06
818.81	149.16
818.988	179.88
819.167	140.97
819.345	134.82
819.523	124.58
819.701	143.02
819.879	175.78
820.058	120.49
820.236	52.91
820.414	124.58
820.592	136.87
820.77	153.26
820.948	179.88
821.127	181.93
821.305	198.31
821.483	151.21
821.661	210.6
821.839	124.58
822.017	175.78
822.195	177.83
822.373	241.32
822.551	132.78
822.729	224.94
822.907	126.63
823.085	190.12
823.262	93.87
823.44	173.74
823.618	124.58
823.796	145.06
823.974	165.54
824.152	71.34
824.329	42.67
824.507	194.22
824.685	63.15
824.863	81.58
825.04	149.16
825.218	108.2
825.396	140.97
825.574	116.39
825.751	100.01
825.929	200.36
826.107	97.96
826.284	40.62
826.462	186.02
826.639	50.86
826.817	46.76
826.994	239.27
827.172	5.8
827.349	177.83
827.527	93.87
827.704	63.15
827.882	157.35
828.059	206.5
828.237	67.24
828.414	124.58
828.591	50.86
828.769	159.4
828.946	116.39
829.124	136.87
829.301	132.78
829.478	67.24
829.655	132.78
829.833	93.87
830.01	40.62
830.187	130.73
830.364	151.21
830.542	67.24
830.719	77.48
830.896	143.02
831.073	59.05
831.25	79.53
831.427	132.78
831.604	79.53
831.782	112.3
831.959	110.25
832.136	85.67
832.313	126.63
832.49	13.99
832.667	71.34
832.844	91.82
833.021	169.64
833.198	124.58
833.374	77.48
833.551	59.05
833.728	91.82
833.905	128.68
834.082	59.05
834.259	114.34
834.436	71.34
834.612	91.82
834.789	120.49
834.966	81.58
835.143	169.64
835.319	46.76
835.496	126.63
835.673	140.97
835.85	95.91
836.026	65.19
836.203	157.35
836.38	61.1
836.556	130.73
836.733	104.11
836.909	104.11
837.086	106.15
837.262	-29.01
837.439	73.39
837.616	95.91
837.792	91.82
837.968	100.01
838.145	54.95
838.321	136.87
838.498	67.24
838.674	61.1
838.851	110.25
839.027	112.3
839.203	32.43
839.38	100.01
839.556	42.67
839.732	106.15
839.909	9.9
840.085	97.96
840.261	-29.01
840.437	95.91
840.614	13.99
840.79	153.26
840.966	32.43
841.142	153.26
841.318	50.86
841.494	38.57
841.671	13.99
841.847	22.19
842.023	61.1
842.199	95.91
842.375	104.11
842.551	102.06
842.727	40.62
842.903	73.39
843.079	100.01
843.255	52.91
843.431	104.11
843.607	63.15
843.783	52.91
843.959	116.39
844.134	28.33
844.31	124.58
844.486	69.29
844.662	124.58
844.838	-6.49
845.013	57
845.189	100.01
845.365	67.24
845.541	75.43
845.716	5.8
845.892	140.97
846.068	30.38
846.244	102.06
846.419	67.24
846.595	59.05
846.77	26.28
846.946	151.21
847.122	34.47
847.297	42.67
847.473	67.24
847.648	50.86
847.824	30.38
847.999	77.48
848.175	26.28
848.35	75.43
848.526	100.01
848.701	112.3
848.876	36.52
849.052	61.1
849.227	59.05
849.403	95.91
849.578	28.33
849.753	91.82
849.929	116.39
850.104	50.86
850.279	54.95
850.454	61.1
850.63	46.76
850.805	50.86
850.98	65.19
851.155	83.63
851.33	46.76
851.505	-14.68
851.681	91.82
851.856	-8.53
852.031	61.1
852.206	13.99
852.381	30.38
852.556	54.95
852.731	71.34
852.906	67.24
853.081	-0.34
853.256	112.3
853.431	104.11
853.606	42.67
853.781	9.9
853.956	-53.59
854.131	20.14
854.305	13.99
854.48	38.57
854.655	-108.88
854.83	77.48
855.005	116.39
855.18	100.01
855.354	48.81
855.529	26.28
855.704	87.72
855.879	112.3
856.053	-4.44
856.228	112.3
856.403	-10.58
856.577	71.34
856.752	-31.06
856.926	73.39
857.101	-29.01
857.276	42.67
857.45	-0.34
857.625	61.1
857.799	59.05
857.974	3.75
858.148	-33.11
858.323	22.19
858.497	34.47
858.672	9.9
858.846	-8.53
859.02	69.29
859.195	77.48
859.369	65.19
859.543	18.09
859.718	-29.01
859.892	9.9
860.066	87.72
860.241	44.71
860.415	40.62
860.589	69.29
860.763	24.23
860.938	20.14
861.112	52.91
861.286	9.9
861.46	5.8
861.634	75.43
861.808	26.28
861.982	20.14
862.157	11.95
862.331	54.95
862.505	63.15
862.679	18.09
862.853	-12.63
863.027	20.14
863.201	57
863.375	63.15
863.549	30.38
863.722	87.72
863.896	83.63
864.07	63.15
864.244	50.86
864.418	83.63
864.592	22.19
864.766	75.43
864.939	-37.2
865.113	44.71
865.287	71.34
865.461	13.99
865.634	11.95
865.808	9.9
865.982	-12.63
866.156	54.95
866.329	30.38
866.503	-2.39
866.676	73.39
866.85	59.05
867.024	50.86
867.197	110.25
867.371	-0.34
867.544	18.09
867.718	38.57
867.891	75.43
868.065	42.67
868.238	18.09
868.412	95.91
868.585	-39.25
868.759	42.67
868.932	40.62
869.105	-37.2
869.279	44.71
869.452	-47.44
869.625	59.05
869.799	44.71
869.972	9.9
870.145	50.86
870.319	26.28
870.492	-10.58
870.665	77.48
870.838	11.95
871.011	3.75
871.185	-6.49
871.358	-10.58
871.531	79.53
871.704	-82.26
871.877	75.43
872.05	-10.58
872.223	61.1
872.396	52.91
872.569	69.29
872.742	-26.96
872.915	34.47
873.088	28.33
873.261	24.23
873.434	67.24
873.607	48.81
873.78	48.81
873.953	59.05
874.126	50.86
874.299	42.67
874.471	-16.73
874.644	75.43
874.817	28.33
874.99	81.58
875.163	1.71
875.335	71.34
875.508	20.14
875.681	57
875.853	54.95
876.026	32.43
876.199	-31.06
876.371	75.43
876.544	22.19
876.717	34.47
876.889	9.9
877.062	85.67
877.234	-43.35
877.407	42.67
877.579	89.77
877.752	46.76
877.924	67.24
878.097	75.43
878.269	30.38
878.442	36.52
878.614	42.67
878.786	50.86
878.959	36.52
879.131	13.99
879.303	-20.82
879.476	52.91
879.648	83.63
879.82	-39.25
879.993	18.09
880.165	140.97
880.337	-55.64
880.509	28.33
880.681	28.33
880.854	81.58
881.026	75.43
881.198	63.15
881.37	-6.49
881.542	-4.44
881.714	-24.92
881.886	-53.59
882.058	-33.11
882.23	42.67
882.402	-45.4
882.574	20.14
882.746	24.23
882.918	77.48
883.09	-14.68
883.262	52.91
883.434	59.05
883.606	18.09
883.778	67.24
883.95	120.49
884.122	-12.63
884.293	42.67
884.465	36.52
884.637	65.19
884.809	-0.34
884.98	-0.34
885.152	30.38
885.324	26.28
885.496	40.62
885.667	-24.92
885.839	79.53
886.011	75.43
886.182	54.95
886.354	38.57
886.525	61.1
886.697	7.85
886.869	-12.63
887.04	38.57
887.212	26.28
887.383	48.81
887.555	57
887.726	3.75
887.897	-82.26
888.069	75.43
888.24	-16.73
888.412	-37.2
888.583	67.24
888.754	16.04
888.926	1.71
889.097	26.28
889.268	-31.06
889.44	-20.82
889.611	11.95
889.782	102.06
889.953	-24.92
890.125	100.01
890.296	34.47
890.467	54.95
890.638	-2.39
890.809	-2.39
890.98	28.33
891.151	-26.96
891.323	-37.2
891.494	-4.44
891.665	-10.58
891.836	-41.3
892.007	108.2
892.178	26.28
892.349	20.14
892.52	-14.68
892.691	30.38
892.862	93.87
893.032	-10.58
893.203	-14.68
893.374	-20.82
893.545	13.99
893.716	-26.96
893.887	36.52
894.057	-2.39
894.228	-57.68
894.399	34.47
894.57	26.28
894.74	48.81
894.911	-14.68
895.082	-47.44
895.253	77.48
895.423	67.24
895.594	50.86
895.764	-0.34
895.935	18.09
896.106	-26.96
896.276	13.99
896.447	-47.44
896.617	-6.49
896.788	-18.77
896.958	50.86
897.129	-45.4
897.299	102.06
897.47	71.34
897.64	93.87
897.81	20.14
897.981	59.05
898.151	34.47
898.322	-4.44
898.492	1.71
898.662	-14.68
898.832	-8.53
899.003	-14.68
899.173	24.23
899.343	1.71
899.513	-14.68
