Data from USB4F104151__151__14-19-28-648.txt Node

Date: Thu Mar 13 14:19:28 EDT 2025
User: louis
Spectrometer: USB4F10415
Trigger mode: 4
Integration Time (sec): 2.000000E-2
Scans to average: 1
Electric dark correction enabled: true
Nonlinearity correction enabled: false
Boxcar width: 0
XAxis mode: Wavelengths
Number of Pixels in Spectrum: 3648
>>>>>Begin Spectral Data<<<<<
178.204	-102.57
178.424	-102.57
178.644	-102.57
178.864	-188.58
179.084	-129.19
179.304	26.45
179.524	59.22
179.744	22.36
179.964	10.07
180.184	-12.46
180.404	-20.65
180.624	-106.67
180.844	-32.94
181.064	55.12
181.283	-16.55
181.503	-28.84
181.723	44.88
181.943	-57.51
182.163	69.46
182.383	3.93
182.602	-12.46
182.822	83.8
183.042	14.17
183.262	16.21
183.482	-41.13
183.701	40.79
183.921	20.31
184.141	8.02
184.361	100.18
184.58	16.21
184.8	-8.36
185.02	81.75
185.239	59.22
185.459	32.6
185.679	40.79
185.898	-71.85
186.118	-28.84
186.338	38.74
186.557	24.4
186.777	10.07
186.997	26.45
187.216	-0.17
187.436	40.79
187.655	65.36
187.875	20.31
188.095	42.84
188.314	36.69
188.534	71.51
188.753	22.36
188.973	-4.27
189.192	-22.7
189.412	30.55
189.631	-12.46
189.851	57.17
190.07	3.93
190.29	5.97
190.509	51.03
190.729	-0.17
190.948	48.98
191.168	151.38
191.387	30.55
191.607	-49.32
191.826	-16.55
192.045	-37.03
192.265	3.93
192.484	87.89
192.704	32.6
192.923	12.12
193.142	36.69
193.362	24.4
193.581	48.98
193.8	94.04
194.02	-6.31
194.239	-22.7
194.458	24.4
194.678	-24.75
194.897	42.84
195.116	8.02
195.335	22.36
195.555	65.36
195.774	46.93
195.993	8.02
196.212	10.07
196.432	89.94
196.651	5.97
196.87	-2.22
197.089	130.9
197.308	59.22
197.528	24.4
197.747	10.07
197.966	46.93
198.185	18.26
198.404	-32.94
198.623	22.36
198.842	106.32
199.062	53.08
199.281	57.17
199.5	-4.27
199.719	59.22
199.938	-20.65
200.157	98.13
200.376	89.94
200.595	24.4
200.814	1.88
201.033	53.08
201.252	32.6
201.471	116.56
201.69	32.6
201.909	96.08
202.128	30.55
202.347	20.31
202.566	10.07
202.785	-8.36
203.004	-47.27
203.223	102.23
203.442	-6.31
203.661	18.26
203.879	36.69
204.098	48.98
204.317	-8.36
204.536	65.36
204.755	10.07
204.974	42.84
205.193	71.51
205.411	108.37
205.63	-6.31
205.849	-16.55
206.068	-12.46
206.287	-14.51
206.505	-24.75
206.724	32.6
206.943	-28.84
207.162	-8.36
207.381	-26.79
207.599	61.27
207.818	38.74
208.037	1.88
208.255	-57.51
208.474	71.51
208.693	24.4
208.911	44.88
209.13	10.07
209.349	63.32
209.567	40.79
209.786	42.84
210.005	-32.94
210.223	8.02
210.442	-2.22
210.661	34.64
210.879	-0.17
211.098	-20.65
211.316	-26.79
211.535	26.45
211.753	-28.84
211.972	8.02
212.191	-18.6
212.409	67.41
212.628	57.17
212.846	8.02
213.065	73.56
213.283	89.94
213.502	10.07
213.72	18.26
213.938	26.45
214.157	30.55
214.375	57.17
214.594	87.89
214.812	-49.32
215.031	-14.51
215.249	57.17
215.467	51.03
215.686	40.79
215.904	114.52
216.122	32.6
216.341	61.27
216.559	51.03
216.778	24.4
216.996	100.18
217.214	42.84
217.432	20.31
217.651	-24.75
217.869	3.93
218.087	26.45
218.306	20.31
218.524	53.08
218.742	79.7
218.96	26.45
219.179	32.6
219.397	34.64
219.615	-2.22
219.833	48.98
220.051	30.55
220.27	8.02
220.488	40.79
220.706	28.5
220.924	14.17
221.142	48.98
221.36	89.94
221.578	44.88
221.796	22.36
222.015	-16.55
222.233	42.84
222.451	63.32
222.669	-41.13
222.887	114.52
223.105	-6.31
223.323	83.8
223.541	40.79
223.759	1.88
223.977	71.51
224.195	42.84
224.413	-14.51
224.631	44.88
224.849	36.69
225.067	73.56
225.285	3.93
225.503	38.74
225.721	48.98
225.939	65.36
226.157	16.21
226.375	188.24
226.592	-12.46
226.81	-12.46
227.028	-6.31
227.246	81.75
227.464	-43.18
227.682	-0.17
227.9	108.37
228.117	24.4
228.335	12.12
228.553	18.26
228.771	57.17
228.989	24.4
229.206	32.6
229.424	3.93
229.642	-28.84
229.86	-41.13
230.077	69.46
230.295	28.5
230.513	48.98
230.731	65.36
230.948	-6.31
231.166	32.6
231.384	51.03
231.601	-6.31
231.819	-28.84
232.037	65.36
232.254	-0.17
232.472	18.26
232.689	83.8
232.907	85.84
233.125	51.03
233.342	-22.7
233.56	16.21
233.777	36.69
233.995	-22.7
234.213	69.46
234.43	89.94
234.648	10.07
234.865	34.64
235.083	73.56
235.3	-49.32
235.518	10.07
235.735	40.79
235.953	59.22
236.17	81.75
236.388	36.69
236.605	-55.47
236.822	75.6
237.04	-37.03
237.257	55.12
237.475	34.64
237.692	18.26
237.909	26.45
238.127	32.6
238.344	8.02
238.562	63.32
238.779	44.88
238.996	1.88
239.214	71.51
239.431	-16.55
239.648	-49.32
239.865	12.12
240.083	46.93
240.3	32.6
240.517	-0.17
240.735	69.46
240.952	44.88
241.169	18.26
241.386	46.93
241.603	36.69
241.821	-10.41
242.038	102.23
242.255	-12.46
242.472	-37.03
242.689	91.99
242.907	65.36
243.124	53.08
243.341	26.45
243.558	63.32
243.775	-41.13
243.992	-47.27
244.209	55.12
244.426	114.52
244.643	26.45
244.86	59.22
245.078	18.26
245.295	48.98
245.512	5.97
245.729	-14.51
245.946	42.84
246.163	32.6
246.38	98.13
246.597	-24.75
246.814	3.93
247.031	3.93
247.248	34.64
247.464	3.93
247.681	12.12
247.898	12.12
248.115	98.13
248.332	24.4
248.549	40.79
248.766	-0.17
248.983	-8.36
249.2	40.79
249.417	65.36
249.633	55.12
249.85	-2.22
250.067	5.97
250.284	-16.55
250.501	77.65
250.717	100.18
250.934	-53.42
251.151	98.13
251.368	18.26
251.585	-30.89
251.801	20.31
252.018	75.6
252.235	44.88
252.451	-6.31
252.668	57.17
252.885	51.03
253.102	16.21
253.318	32.6
253.535	-4.27
253.752	40.79
253.968	-8.36
254.185	-24.75
254.401	-0.17
254.618	83.8
254.835	8.02
255.051	-8.36
255.268	32.6
255.484	65.36
255.701	118.61
255.917	85.84
256.134	-41.13
256.351	112.47
256.567	-6.31
256.784	36.69
257	57.17
257.217	61.27
257.433	59.22
257.65	108.37
257.866	114.52
258.082	-67.75
258.299	-8.36
258.515	57.17
258.732	18.26
258.948	-12.46
259.165	69.46
259.381	10.07
259.597	-22.7
259.814	83.8
260.03	1.88
260.246	79.7
260.463	28.5
260.679	-12.46
260.895	1.88
261.112	65.36
261.328	-22.7
261.544	-12.46
261.761	-14.51
261.977	73.56
262.193	-39.08
262.409	100.18
262.626	-24.75
262.842	51.03
263.058	-63.66
263.274	48.98
263.49	48.98
263.707	10.07
263.923	59.22
264.139	-16.55
264.355	55.12
264.571	81.75
264.787	143.19
265.004	157.52
265.22	10.07
265.436	8.02
265.652	-8.36
265.868	-4.27
266.084	53.08
266.3	36.69
266.516	14.17
266.732	-14.51
266.948	57.17
267.164	36.69
267.38	40.79
267.596	126.8
267.812	32.6
268.028	57.17
268.244	28.5
268.46	20.31
268.676	-4.27
268.892	-16.55
269.108	-51.37
269.324	-16.55
269.54	26.45
269.756	81.75
269.972	32.6
270.188	-0.17
270.403	83.8
270.619	26.45
270.835	98.13
271.051	75.6
271.267	32.6
271.483	8.02
271.698	-8.36
271.914	67.41
272.13	1.88
272.346	57.17
272.562	16.21
272.777	48.98
272.993	51.03
273.209	40.79
273.425	59.22
273.64	3.93
273.856	24.4
274.072	-6.31
274.287	67.41
274.503	51.03
274.719	30.55
274.934	-39.08
275.15	-59.56
275.366	48.98
275.581	42.84
275.797	59.22
276.012	73.56
276.228	71.51
276.444	-0.17
276.659	53.08
276.875	83.8
277.09	12.12
277.306	28.5
277.521	53.08
277.737	-0.17
277.952	59.22
278.168	18.26
278.383	61.27
278.599	-4.27
278.814	-0.17
279.03	28.5
279.245	94.04
279.461	40.79
279.676	-16.55
279.892	10.07
280.107	12.12
280.322	-12.46
280.538	18.26
280.753	12.12
280.969	20.31
281.184	32.6
281.399	36.69
281.615	40.79
281.83	26.45
282.045	18.26
282.26	20.31
282.476	3.93
282.691	48.98
282.906	81.75
283.122	-28.84
283.337	-28.84
283.552	57.17
283.767	24.4
283.983	26.45
284.198	87.89
284.413	24.4
284.628	51.03
284.843	-12.46
285.058	10.07
285.274	89.94
285.489	-8.36
285.704	10.07
285.919	40.79
286.134	-22.7
286.349	5.97
286.564	57.17
286.779	71.51
286.995	59.22
287.21	116.56
287.425	32.6
287.64	32.6
287.855	-20.65
288.07	12.12
288.285	59.22
288.5	-30.89
288.715	16.21
288.93	100.18
289.145	12.12
289.36	63.32
289.575	53.08
289.79	44.88
290.004	57.17
290.219	73.56
290.434	-0.17
290.649	8.02
290.864	8.02
291.079	8.02
291.294	42.84
291.509	106.32
291.724	34.64
291.938	22.36
292.153	-6.31
292.368	-4.27
292.583	57.17
292.798	61.27
293.012	18.26
293.227	-16.55
293.442	-2.22
293.657	32.6
293.871	53.08
294.086	18.26
294.301	81.75
294.516	40.79
294.73	8.02
294.945	-6.31
295.16	10.07
295.374	65.36
295.589	51.03
295.804	1.88
296.018	16.21
296.233	40.79
296.447	42.84
296.662	75.6
296.877	28.5
297.091	44.88
297.306	-39.08
297.52	40.79
297.735	10.07
297.949	36.69
298.164	32.6
298.378	3.93
298.593	26.45
298.807	-0.17
299.022	-37.03
299.236	77.65
299.451	57.17
299.665	57.17
299.88	55.12
300.094	24.4
300.309	59.22
300.523	-8.36
300.737	20.31
300.952	24.4
301.166	91.99
301.381	3.93
301.595	1.88
301.809	26.45
302.024	8.02
302.238	8.02
302.452	10.07
302.667	40.79
302.881	36.69
303.095	40.79
303.309	67.41
303.524	73.56
303.738	73.56
303.952	61.27
304.166	20.31
304.381	-16.55
304.595	57.17
304.809	-47.27
305.023	16.21
305.237	51.03
305.452	-32.94
305.666	3.93
305.88	89.94
306.094	36.69
306.308	81.75
306.522	3.93
306.736	36.69
306.95	102.23
307.164	132.95
307.379	32.6
307.593	73.56
307.807	51.03
308.021	51.03
308.235	48.98
308.449	18.26
308.663	-30.89
308.877	122.71
309.091	10.07
309.305	32.6
309.519	-53.42
309.733	71.51
309.947	55.12
310.161	57.17
310.374	36.69
310.588	100.18
310.802	-41.13
311.016	8.02
311.23	16.21
311.444	-32.94
311.658	10.07
311.872	91.99
312.085	51.03
312.299	139.09
312.513	61.27
312.727	44.88
312.941	24.4
313.154	57.17
313.368	-16.55
313.582	48.98
313.796	8.02
314.009	53.08
314.223	67.41
314.437	32.6
314.651	1.88
314.864	-26.79
315.078	42.84
315.292	-20.65
315.505	16.21
315.719	26.45
315.933	48.98
316.146	32.6
316.36	-4.27
316.573	77.65
316.787	48.98
317.001	114.52
317.214	-14.51
317.428	10.07
317.641	-16.55
317.855	51.03
318.068	-18.6
318.282	32.6
318.495	65.36
318.709	75.6
318.922	34.64
319.136	79.7
319.349	87.89
319.563	20.31
319.776	24.4
319.99	-6.31
320.203	28.5
320.417	51.03
320.63	63.32
320.843	67.41
321.057	46.93
321.27	-8.36
321.483	10.07
321.697	59.22
321.91	48.98
322.124	34.64
322.337	-4.27
322.55	-28.84
322.763	53.08
322.977	-43.18
323.19	73.56
323.403	-16.55
323.617	61.27
323.83	38.74
324.043	57.17
324.256	-28.84
324.469	12.12
324.683	102.23
324.896	36.69
325.109	-0.17
325.322	-0.17
325.535	30.55
325.748	53.08
325.962	-32.94
326.175	53.08
326.388	18.26
326.601	89.94
326.814	57.17
327.027	-12.46
327.24	40.79
327.453	-22.7
327.666	-39.08
327.879	-22.7
328.092	22.36
328.305	57.17
328.518	-6.31
328.731	-12.46
328.944	10.07
329.157	57.17
329.37	-39.08
329.583	12.12
329.796	135
330.009	-16.55
330.222	59.22
330.435	26.45
330.648	53.08
330.861	85.84
331.073	108.37
331.286	10.07
331.499	26.45
331.712	40.79
331.925	91.99
332.138	51.03
332.35	100.18
332.563	-2.22
332.776	40.79
332.989	-32.94
333.202	18.26
333.414	-2.22
333.627	36.69
333.84	10.07
334.053	-22.7
334.265	16.21
334.478	81.75
334.691	-6.31
334.903	65.36
335.116	1.88
335.329	73.56
335.541	44.88
335.754	128.85
335.966	32.6
336.179	73.56
336.392	-6.31
336.604	114.52
336.817	-12.46
337.029	20.31
337.242	57.17
337.454	67.41
337.667	-4.27
337.88	114.52
338.092	65.36
338.305	69.46
338.517	46.93
338.729	28.5
338.942	83.8
339.154	73.56
339.367	59.22
339.579	69.46
339.792	20.31
340.004	8.02
340.217	-0.17
340.429	83.8
340.641	-6.31
340.854	89.94
341.066	10.07
341.278	12.12
341.491	130.9
341.703	12.12
341.915	26.45
342.128	14.17
342.34	24.4
342.552	-16.55
342.764	-30.89
342.977	-0.17
343.189	20.31
343.401	10.07
343.613	32.6
343.826	-30.89
344.038	55.12
344.25	-18.6
344.462	-8.36
344.674	130.9
344.886	20.31
345.099	36.69
345.311	128.85
345.523	-41.13
345.735	44.88
345.947	77.65
346.159	75.6
346.371	130.9
346.583	-22.7
346.795	132.95
347.007	14.17
347.219	59.22
347.431	16.21
347.643	188.24
347.855	-32.94
348.067	106.32
348.279	10.07
348.491	59.22
348.703	32.6
348.915	81.75
349.127	8.02
349.339	89.94
349.551	87.89
349.763	89.94
349.975	28.5
350.187	34.64
350.399	91.99
350.61	16.21
350.822	-49.32
351.034	18.26
351.246	128.85
351.458	94.04
351.669	65.36
351.881	36.69
352.093	59.22
352.305	24.4
352.517	69.46
352.728	89.94
352.94	-14.51
353.152	59.22
353.363	-16.55
353.575	118.61
353.787	98.13
353.999	65.36
354.21	46.93
354.422	48.98
354.633	89.94
354.845	16.21
355.057	40.79
355.268	-0.17
355.48	65.36
355.692	24.4
355.903	83.8
356.115	98.13
356.326	53.08
356.538	44.88
356.749	73.56
356.961	87.89
357.172	18.26
357.384	-39.08
357.595	118.61
357.807	10.07
358.018	57.17
358.23	48.98
358.441	147.28
358.653	40.79
358.864	59.22
359.075	48.98
359.287	36.69
359.498	110.42
359.709	75.6
359.921	48.98
360.132	-4.27
360.344	147.28
360.555	89.94
360.766	42.84
360.977	48.98
361.189	26.45
361.4	5.97
361.611	53.08
361.823	22.36
362.034	48.98
362.245	-16.55
362.456	-16.55
362.667	73.56
362.879	40.79
363.09	53.08
363.301	79.7
363.512	-6.31
363.723	12.12
363.935	1.88
364.146	73.56
364.357	34.64
364.568	67.41
364.779	3.93
364.99	73.56
365.201	-32.94
365.412	106.32
365.623	24.4
365.834	40.79
366.045	-12.46
366.256	38.74
366.467	89.94
366.678	32.6
366.889	102.23
367.1	34.64
367.311	94.04
367.522	42.84
367.733	16.21
367.944	57.17
368.155	44.88
368.366	112.47
368.577	42.84
368.788	73.56
368.999	-24.75
369.209	24.4
369.42	122.71
369.631	114.52
369.842	40.79
370.053	-6.31
370.264	100.18
370.474	65.36
370.685	5.97
370.896	32.6
371.107	61.27
371.317	22.36
371.528	10.07
371.739	77.65
371.95	126.8
372.16	61.27
372.371	73.56
372.582	100.18
372.792	104.28
373.003	63.32
373.214	-8.36
373.424	48.98
373.635	-8.36
373.846	104.28
374.056	57.17
374.267	26.45
374.477	24.4
374.688	18.26
374.898	53.08
375.109	147.28
375.319	96.08
375.53	44.88
375.74	20.31
375.951	96.08
376.161	28.5
376.372	120.66
376.582	26.45
376.793	57.17
377.003	-24.75
377.214	55.12
377.424	10.07
377.635	83.8
377.845	34.64
378.055	24.4
378.266	57.17
378.476	57.17
378.686	73.56
378.897	57.17
379.107	34.64
379.317	65.36
379.528	132.95
379.738	135
379.948	34.64
380.158	96.08
380.369	48.98
380.579	108.37
380.789	18.26
380.999	81.75
381.21	48.98
381.42	114.52
381.63	1.88
381.84	32.6
382.05	32.6
382.261	28.5
382.471	44.88
382.681	65.36
382.891	130.9
383.101	122.71
383.311	-8.36
383.521	28.5
383.731	53.08
383.941	48.98
384.151	-16.55
384.361	69.46
384.571	44.88
384.781	147.28
384.991	51.03
385.201	106.32
385.411	63.32
385.621	10.07
385.831	122.71
386.041	106.32
386.251	102.23
386.461	65.36
386.671	34.64
386.881	61.27
387.091	85.84
387.301	73.56
387.511	51.03
387.72	48.98
387.93	-0.17
388.14	-22.7
388.35	108.37
388.56	91.99
388.769	161.62
388.979	104.28
389.189	16.21
389.399	12.12
389.609	94.04
389.818	57.17
390.028	110.42
390.238	102.23
390.447	3.93
390.657	89.94
390.867	77.65
391.076	79.7
391.286	-4.27
391.496	87.89
391.705	-12.46
391.915	81.75
392.125	67.41
392.334	94.04
392.544	157.52
392.753	94.04
392.963	114.52
393.172	135
393.382	51.03
393.591	42.84
393.801	59.22
394.01	130.9
394.22	130.9
394.429	65.36
394.639	98.13
394.848	112.47
395.058	40.79
395.267	108.37
395.477	147.28
395.686	91.99
395.895	98.13
396.105	175.95
396.314	91.99
396.524	163.67
396.733	53.08
396.942	167.76
397.152	161.62
397.361	89.94
397.57	79.7
397.78	57.17
397.989	147.28
398.198	130.9
398.407	55.12
398.617	114.52
398.826	139.09
399.035	130.9
399.244	89.94
399.453	106.32
399.663	81.75
399.872	67.41
400.081	71.51
400.29	186.19
400.499	40.79
400.708	147.28
400.917	171.86
401.127	116.56
401.336	118.61
401.545	128.85
401.754	196.43
401.963	188.24
402.172	130.9
402.381	147.28
402.59	104.28
402.799	122.71
403.008	141.14
403.217	135
403.426	143.19
403.635	198.48
403.844	216.91
404.053	221.01
404.262	169.81
404.471	114.52
404.68	225.11
404.888	186.19
405.097	167.76
405.306	223.06
405.515	137.04
405.724	153.43
405.933	190.29
406.142	192.34
406.35	180.05
406.559	284.5
406.768	249.68
406.977	188.24
407.185	264.02
407.394	237.39
407.603	237.39
407.812	290.64
408.02	192.34
408.229	261.97
408.438	280.4
408.646	319.31
408.855	309.07
409.064	282.45
409.272	321.36
409.481	380.75
409.69	296.78
409.898	319.31
410.107	309.07
410.315	311.12
410.524	354.13
410.733	384.85
410.941	403.28
411.15	407.38
411.358	485.2
411.567	454.48
411.775	458.57
411.984	450.38
412.192	526.16
412.401	520.01
412.609	499.53
412.818	522.06
413.026	544.59
413.234	577.36
413.443	632.65
413.651	569.16
413.86	728.91
414.068	728.91
414.276	765.77
414.485	689.99
414.693	802.63
414.901	812.87
415.11	851.78
415.318	810.82
415.526	776.01
415.734	976.71
415.943	958.28
416.151	909.13
416.359	900.94
416.567	1040.2
416.776	1146.69
416.984	1105.73
417.192	1181.51
417.4	1214.27
417.608	1220.42
417.817	1318.72
418.025	1302.34
418.233	1404.74
418.441	1400.64
418.649	1363.78
418.857	1523.52
419.065	1445.7
419.273	1468.22
419.481	1662.78
419.689	1752.89
419.897	1787.71
420.105	1877.82
420.313	1888.06
420.521	1974.07
420.729	1969.98
420.937	1937.21
421.145	2187.06
421.353	2234.16
421.561	2213.68
421.769	2352.95
421.977	2527.02
422.185	2449.2
422.393	2598.7
422.601	2697
422.809	2780.97
423.017	2682.67
423.224	2846.51
423.432	2893.61
423.64	2926.38
423.848	3172.13
424.056	3178.28
424.263	3264.29
424.471	3440.42
424.679	3481.38
424.887	3643.17
425.094	3862.3
425.302	3819.29
425.51	3921.69
425.718	4046.62
425.925	4071.19
426.133	4200.21
426.341	4448.02
426.548	4448.02
426.756	4695.82
426.964	4683.53
427.171	5023.5
427.379	5166.85
427.586	5275.4
427.794	5334.79
428.001	5435.14
428.209	5766.91
428.417	5666.56
428.624	6113.02
428.832	6250.23
429.039	6057.72
429.247	6160.12
429.454	6711.02
429.662	6991.59
429.869	6522.61
430.076	7241.45
430.284	6864.62
430.491	7134.95
430.699	7761.63
430.906	7472.87
431.114	7810.78
431.321	7913.18
431.528	8275.67
431.736	8822.48
431.943	9115.34
432.15	8648.4
432.358	8828.62
432.565	9436.87
432.772	9281.22
432.979	9920.19
433.187	10026.68
433.394	10219.19
433.601	10829.49
433.808	10849.97
434.016	10763.95
434.223	11273.9
434.43	11855.52
434.637	11732.64
434.844	12478.1
435.052	12646.04
435.259	12465.82
435.466	12703.38
435.673	12615.32
435.88	13362.83
436.087	13786.75
436.294	13952.64
436.501	13524.61
436.708	13930.11
436.915	14675.57
437.122	15021.68
437.329	15068.78
437.537	15423.08
437.743	15824.48
437.95	15756.9
438.157	16635.48
438.364	16946.77
438.571	16965.2
438.778	17059.41
438.985	18622.01
439.192	17833.54
439.399	18312.77
439.606	17958.47
439.813	18959.92
440.02	20295.2
440.227	19725.86
440.433	19910.18
440.64	20391.45
440.847	20020.77
441.054	20364.83
441.261	21954.05
441.467	21487.12
441.674	22175.23
441.881	23055.86
442.088	22730.23
442.294	22384.13
442.501	23504.37
442.708	23528.94
442.914	24401.38
443.121	25992.65
443.328	24860.12
443.534	26918.33
443.741	26115.53
443.948	25832.91
444.154	27379.12
444.361	27012.54
444.568	27184.57
444.774	27594.16
444.981	27602.35
445.187	28450.21
445.394	29388.18
445.6	29246.87
445.807	31968.62
446.013	30590.34
446.22	31147.39
446.426	32292.2
446.633	32439.65
446.839	33748.31
447.046	32185.71
447.252	34288.97
447.459	34084.17
447.665	34129.23
447.871	35695.92
448.078	36705.57
448.284	35198.27
448.491	36345.13
448.697	37397.79
448.903	38290.7
449.11	38337.8
449.316	37731.61
449.522	38354.19
449.728	39816.44
449.935	39855.35
450.141	39550.2
450.347	40371.44
450.553	39337.21
450.76	39576.83
450.966	41299.17
451.172	40385.77
451.378	41157.86
451.584	40709.35
451.791	42157.27
451.997	41178.34
452.203	42274
452.409	42114.26
452.615	41645.27
452.821	40170.74
453.027	40080.63
453.233	41981.14
453.44	40494.32
453.646	40887.53
453.852	41311.45
454.058	41684.19
454.264	40246.51
454.47	41647.32
454.676	40094.96
454.882	41366.75
455.088	37952.79
455.294	38968.58
455.5	39486.71
455.705	39761.14
455.911	38317.32
456.117	37625.11
456.323	36807.97
456.529	35155.26
456.735	36455.72
456.941	35945.78
457.147	35153.21
457.352	33783.12
457.558	33932.62
457.764	34037.07
457.97	32994.65
458.176	32517.48
458.381	32290.15
458.587	30838.14
458.793	30989.69
458.999	29291.93
459.204	31567.22
459.41	30293.38
459.616	28384.68
459.821	28489.12
460.027	28472.74
460.233	27921.84
460.438	26629.57
460.644	26588.61
460.85	25621.97
461.055	25011.67
461.261	25288.15
461.466	23236.08
461.672	22523.39
461.878	24212.96
462.083	22388.22
462.289	22115.84
462.494	22142.47
462.7	20909.59
462.905	20653.59
463.111	21147.15
463.316	21509.65
463.522	20651.55
463.727	20893.21
463.932	20665.88
464.138	20375.07
464.343	20407.84
464.549	19836.45
464.754	20610.59
464.959	20370.97
465.165	20319.78
465.37	19611.18
465.575	19023.41
465.781	19531.31
465.986	19779.11
466.191	19047.99
466.397	18368.06
466.602	17937.99
466.807	18640.44
467.012	18912.82
467.218	18714.17
467.423	18177.6
467.628	18193.98
467.833	18843.19
468.038	18193.98
468.244	17839.69
468.449	18656.82
468.654	17872.45
468.859	17636.94
469.064	17688.14
469.269	17075.79
469.474	16973.39
469.679	17194.57
469.885	16877.14
470.09	17167.95
470.295	17151.57
470.5	16670.29
470.705	16825.94
470.91	16236.13
471.115	16238.17
471.32	16533.08
471.525	16252.51
471.73	15670.89
471.935	15859.3
472.139	15312.49
472.344	15552.1
472.549	15437.42
472.754	15144.56
472.959	15105.65
473.164	14390.91
473.369	14487.16
473.574	15042.16
473.778	14843.51
473.983	14667.38
474.188	14581.37
474.393	14030.46
474.598	14003.84
474.802	13876.87
475.007	13645.45
475.212	13708.93
475.417	13590.15
475.621	13223.56
475.826	13450.89
476.031	13065.87
476.235	12895.89
476.44	12947.09
476.645	12699.28
476.849	12906.13
477.054	12412.57
477.259	12437.14
477.463	12465.82
477.668	12000.93
477.872	12435.1
478.077	11982.49
478.282	11681.44
478.486	11781.79
478.691	11687.59
478.895	11632.29
479.1	11382.44
479.304	11495.08
479.509	11060.91
479.713	11386.54
479.918	11083.44
480.122	10880.69
480.326	11185.83
480.531	11222.7
480.735	10870.45
480.94	10714.8
481.144	11191.98
481.348	10585.78
481.553	10927.79
481.757	10645.17
481.961	10763.95
482.166	10905.26
482.37	10757.81
482.574	10694.32
482.778	10626.74
482.983	10700.47
483.187	10579.64
483.391	10587.83
483.595	10493.62
483.8	10542.77
484.004	10507.96
484.208	10813.1
484.412	10774.19
484.616	10790.58
484.821	10512.05
485.025	10448.57
485.229	10673.84
485.433	10561.2
485.637	10550.96
485.841	10458.81
486.045	10501.81
486.249	10419.89
486.453	10401.46
486.657	10432.18
486.861	10677.94
487.065	10436.28
487.269	10438.33
487.473	10378.93
487.677	10579.64
487.881	10682.03
488.085	10585.78
488.289	10616.5
488.493	10483.38
488.697	10729.14
488.901	10706.61
489.105	10677.94
489.309	10512.05
489.512	10722.99
489.716	10667.7
489.92	10837.68
490.124	10600.12
490.328	10729.14
490.531	10667.7
490.735	10698.42
490.939	10888.88
491.143	10829.49
491.346	11132.59
491.55	11052.72
491.754	10913.45
491.958	10935.98
492.161	10933.93
492.365	11038.38
492.569	11124.4
492.772	11218.6
492.976	11286.19
493.18	11421.35
493.383	11490.98
493.587	11398.82
493.79	11454.12
493.994	11503.27
494.197	11654.82
494.401	11878.05
494.605	11738.79
494.808	11828.9
495.012	11894.43
495.215	11861.66
495.419	12132
495.622	11994.78
495.825	12095.13
496.029	12344.98
496.232	12420.76
496.436	12488.34
496.639	12457.62
496.843	12496.53
497.046	12955.28
497.249	13057.68
497.453	13164.17
497.656	13166.22
497.859	13074.06
498.063	13526.66
498.266	13596.29
498.469	13485.7
498.673	13680.26
498.876	13930.11
499.079	13934.21
499.282	14249.6
499.485	14296.7
499.689	14485.11
499.892	14481.02
500.095	14696.05
500.298	14827.12
500.501	14845.55
500.705	15081.07
500.908	15392.36
501.111	15484.52
501.314	15799.91
501.517	15998.56
501.72	16090.72
501.923	15875.68
502.126	16471.64
502.329	16741.97
502.532	16641.62
502.735	16850.52
502.938	17253.97
503.141	17163.86
503.344	17245.77
503.547	17391.18
503.75	17718.85
503.953	17862.21
504.156	18275.9
504.359	18302.53
504.562	18626.11
504.765	18828.85
504.968	18912.82
505.17	19271.22
505.373	19013.17
505.576	19570.22
505.779	19705.38
505.982	19836.45
506.185	20233.76
506.387	20299.3
506.59	20192.8
506.793	20997.65
506.996	20751.9
507.198	21284.37
507.401	21120.53
507.604	21708.3
507.807	21728.78
508.009	22068.74
508.212	22066.69
508.415	22324.74
508.617	22803.96
508.82	22726.14
509.022	22601.21
509.225	23625.2
509.428	23361.01
509.63	23676.4
509.833	23760.36
510.035	24393.19
510.238	24049.13
510.44	24501.73
510.643	24937.94
510.845	25163.22
511.048	24679.9
511.25	25339.35
511.453	25361.87
511.655	26594.75
511.858	25877.96
512.06	26082.76
512.262	26525.12
512.465	26586.56
512.667	27061.69
512.87	27225.53
513.072	27332.02
513.274	27966.89
513.477	28237.22
513.679	28147.11
513.881	28523.94
514.084	29150.62
514.286	28773.79
514.488	29224.34
514.69	29683.09
514.893	29846.93
515.095	29568.4
515.297	30195.08
515.499	30313.86
515.701	30776.7
515.904	31157.63
516.106	31272.31
516.308	31696.24
516.51	31866.22
516.712	32091.5
516.914	32470.37
517.116	32642.4
517.318	32892.26
517.52	32705.89
517.722	33166.68
517.925	33314.14
518.127	33916.24
518.329	34151.76
518.531	33994.06
518.733	34520.39
518.935	34630.98
519.136	34649.41
519.338	35501.37
519.54	35509.56
519.742	35603.77
519.944	35779.89
520.146	36381.99
520.348	36683.05
520.55	36603.17
520.752	37137.69
520.954	37807.38
521.155	37197.09
521.357	37694.74
521.559	38151.44
521.761	38546.7
521.963	38632.71
522.164	38933.76
522.366	38857.99
522.568	39468.28
522.77	39236.86
522.971	40396.01
523.173	39359.74
523.375	40121.59
523.576	39972.08
523.778	40537.32
523.98	40686.82
524.181	40948.96
524.383	40893.67
524.584	41528.54
524.786	41131.23
524.988	41149.67
525.189	42077.4
525.391	42443.98
525.592	42331.34
525.794	42493.13
525.995	42568.91
526.197	42984.65
526.398	41981.14
526.6	43093.19
526.801	43041.99
527.003	43128
527.204	43250.88
527.406	43500.73
527.607	43453.63
527.808	44104.88
528.01	43535.55
528.211	43424.96
528.412	44385.46
528.614	44100.79
528.815	44092.6
529.016	44653.74
529.218	44332.21
529.419	44154.04
529.62	44547.25
529.822	44549.29
530.023	44317.87
530.224	44645.55
530.425	44512.43
530.626	44641.45
530.828	44383.41
531.029	45329.57
531.23	44471.47
531.431	44354.74
531.632	44694.7
531.833	45044.9
532.035	45501.6
532.236	45188.26
532.437	45372.58
532.638	44627.12
532.839	45311.14
533.04	45280.42
533.241	44735.66
533.442	45708.44
533.643	45380.77
533.844	45339.81
534.045	45540.51
534.246	45010.09
534.447	45108.39
534.648	45296.8
534.849	45333.67
535.05	45231.27
535.251	45137.06
535.451	45323.43
535.652	45517.98
535.853	45464.74
536.054	45788.31
536.255	45386.91
536.456	45216.93
536.657	45536.41
536.857	45092.01
537.058	45175.97
537.259	45667.48
537.46	45132.96
537.66	45290.66
537.861	45796.51
538.062	45069.48
538.263	45241.51
538.463	44854.44
538.664	45294.75
538.865	45352.1
539.065	45274.27
539.266	45132.96
539.466	45761.69
539.667	44926.12
539.868	45978.78
540.068	45100.2
540.269	45018.28
540.469	45372.58
540.67	45337.76
540.87	45173.92
541.071	44760.23
541.271	45149.35
541.472	44965.03
541.672	44743.85
541.873	45089.96
542.073	44475.57
542.274	45106.34
542.474	45251.75
542.675	44692.65
542.875	45116.58
543.075	45057.19
543.276	44258.48
543.476	45020.33
543.676	44815.53
543.877	45053.09
544.077	45112.48
544.277	44549.29
544.478	44917.93
544.678	44909.74
544.878	44690.6
545.078	44942.5
545.279	44768.43
545.479	44815.53
545.679	44641.45
545.879	44618.92
546.079	44659.88
546.28	44418.22
546.48	44301.49
546.68	44459.18
546.88	44430.51
547.08	44506.29
547.28	44274.87
547.48	44405.94
547.68	44690.6
547.88	44176.56
548.081	44571.82
548.281	44389.55
548.481	44188.85
548.681	45153.44
548.881	44422.32
549.081	44494
549.28	43920.57
549.48	44436.66
549.68	44567.73
549.88	44950.7
550.08	44061.88
550.28	44326.06
550.48	44248.24
550.68	44346.54
550.88	43963.57
551.08	43799.74
551.279	44156.08
551.479	44113.08
551.679	44436.66
551.879	44217.52
552.079	44319.92
552.278	43594.94
552.478	44412.08
552.678	43762.87
552.878	44188.85
553.077	43758.78
553.277	43877.56
553.477	44401.84
553.676	43895.99
553.876	44194.99
554.076	43728.06
554.275	43650.24
554.475	43728.06
554.674	43615.42
554.874	43629.76
555.074	43484.35
555.273	43588.8
555.473	43932.85
555.672	43363.52
555.872	43582.65
556.071	43670.71
556.271	43914.42
556.47	43152.58
556.67	43150.53
556.869	43455.68
557.068	43435.2
557.268	43269.31
557.467	43441.34
557.667	43113.67
557.866	43183.3
558.065	43199.68
558.265	42829
558.464	43048.13
558.663	43750.59
558.863	42775.75
559.062	43302.08
559.261	42847.43
559.461	43406.53
559.66	41948.37
559.859	42581.2
560.058	42284.24
560.258	42527.95
560.457	42013.91
560.656	42652.87
560.855	42417.36
561.054	42192.08
561.253	41751.77
561.453	42130.64
561.652	42005.72
561.851	42675.4
562.05	42241.23
562.249	41956.57
562.448	42210.51
562.647	41987.28
562.846	41893.08
563.045	41843.93
563.244	41250.02
563.443	41436.38
563.642	41276.64
563.841	41516.25
564.04	41477.34
564.239	41635.03
564.438	41110.75
564.637	41577.69
564.836	41602.27
565.035	40852.71
565.234	40961.25
565.432	41266.4
565.631	40965.35
565.83	41219.3
566.029	40985.83
566.228	40781.03
566.427	40641.77
566.625	40383.73
566.824	40422.64
567.023	40510.7
567.222	40111.35
567.42	40250.61
567.619	40027.38
567.818	40264.94
568.016	40133.87
568.215	40672.49
568.414	40015.09
568.612	40176.88
568.811	39881.97
569.01	39783.67
569.208	39578.87
569.407	39902.45
569.605	39001.35
569.804	39621.88
570.002	38948.1
570.201	39462.14
570.4	39281.92
570.598	39038.21
570.797	38671.62
570.995	38999.3
571.193	38540.55
571.392	39068.93
571.59	38358.28
571.789	38784.26
571.987	38716.68
572.186	38432.01
572.384	38810.89
572.582	38440.2
572.781	38784.26
572.979	37879.06
573.177	38034.7
573.376	38133.01
573.574	37967.12
573.772	38112.53
573.971	37905.68
574.169	37774.61
574.367	37457.18
574.565	37696.79
574.763	37633.3
574.962	37328.16
575.16	37012.77
575.358	37793.04
575.556	36916.51
575.754	37129.5
575.952	36531.5
576.151	37068.06
576.349	36418.86
576.547	36541.74
576.745	36496.68
576.943	36711.72
577.141	36474.15
577.339	36474.15
577.537	36439.34
577.735	35894.58
577.933	35994.93
578.131	35960.11
578.329	35970.35
578.527	35644.73
578.725	36017.46
578.923	36087.09
579.121	35667.25
579.319	35386.68
579.516	35366.2
579.714	35683.64
579.912	35358.01
580.11	35331.39
580.308	35142.97
580.506	35200.32
580.704	34651.46
580.901	35087.68
581.099	35075.39
581.297	34245.96
581.495	34379.08
581.692	34950.46
581.89	34223.44
582.088	34614.6
582.285	34121.04
582.483	34153.8
582.681	34387.27
582.878	34086.22
583.076	33930.58
583.274	34227.53
583.471	33324.38
583.669	33705.3
583.866	33703.25
584.064	33723.73
584.262	33068.38
584.459	33709.39
584.657	33246.55
584.854	33652.05
585.052	32658.79
585.249	33160.54
585.447	33162.59
585.644	32548.2
585.841	32873.82
586.039	33203.55
586.236	32220.52
586.434	32456.04
586.631	32736.61
586.828	32396.65
587.026	32154.99
587.223	32300.39
587.42	32081.26
587.618	32050.54
587.815	31608.18
588.012	31753.58
588.21	31477.11
588.407	32234.86
588.604	31825.26
588.801	31346.04
588.999	31559.03
589.196	31792.5
589.393	31262.07
589.59	31421.81
589.787	31251.83
589.984	30668.16
590.182	30930.3
590.379	31063.42
590.576	30918.01
590.773	30522.76
590.97	30545.28
591.167	30770.56
591.364	30160.27
591.561	30766.46
591.758	30109.07
591.955	29885.84
592.152	30463.36
592.349	29793.68
592.546	30041.48
592.743	29732.24
592.94	29269.4
593.137	29756.82
593.334	29871.5
593.531	29459.86
593.727	29590.93
593.924	29230.49
594.121	29228.44
594.318	29277.59
594.515	28896.67
594.712	29373.85
594.908	29003.16
595.105	29083.03
595.302	28657.06
595.499	28640.67
595.696	28560.8
595.892	28679.58
596.089	28411.3
596.286	28702.11
596.482	28263.85
596.679	28310.95
596.876	28253.61
597.072	28310.95
597.269	28073.38
597.466	27540.91
597.662	27870.64
597.859	27846.06
598.055	27741.61
598.252	27813.29
598.448	27792.81
598.645	27506.1
598.841	27260.34
599.038	27452.85
599.234	27205.05
599.431	27082.17
599.627	27100.6
599.824	27456.95
600.02	26727.87
600.217	26787.26
600.413	26705.34
600.609	26619.33
600.806	26627.52
601.002	26619.33
601.198	26404.29
601.395	26373.57
601.591	26109.38
601.787	26219.97
601.984	26070.47
602.18	26123.72
602.376	25929.16
602.572	25814.48
602.769	26047.94
602.965	25443.79
603.161	25925.07
603.357	25722.32
603.553	25392.59
603.75	25564.62
603.946	25374.16
604.142	25189.84
604.338	24800.73
604.534	25069.01
604.73	25050.58
604.926	24884.7
605.122	25026.01
605.318	24952.28
605.514	25001.43
605.71	24727
605.906	24765.92
606.102	24671.71
606.298	24471.01
606.494	24718.81
606.69	24454.62
606.886	24161.76
607.082	23840.23
607.278	24106.47
607.474	23827.95
607.67	24034.79
607.866	23752.17
608.062	23985.64
608.257	23713.26
608.453	24024.55
608.649	24071.65
608.845	23821.8
609.041	23690.73
609.236	23623.15
609.432	23375.34
609.628	23647.72
609.824	23717.36
610.019	23420.4
610.215	23451.12
610.411	23256.56
610.606	23201.27
610.802	23596.53
610.998	23029.24
611.193	23533.04
611.389	23530.99
611.584	23268.85
611.78	23115.25
611.976	22883.83
612.171	23037.43
612.367	22900.22
612.562	22642.17
612.758	22676.99
612.953	22572.54
613.149	22988.28
613.344	22334.98
613.539	23229.94
613.735	22777.34
613.93	22550.01
614.126	22930.94
614.321	22279.68
614.517	22523.39
614.712	22550.01
614.907	22314.5
615.103	22433.28
615.298	22302.21
615.493	22394.37
615.688	21966.34
615.884	22668.8
616.079	22099.46
616.274	22203.91
616.47	22027.78
616.665	21855.75
616.86	21943.81
617.055	21880.33
617.25	21726.73
617.445	21917.19
617.641	21478.93
617.836	21743.11
618.031	21308.94
618.226	21384.72
618.421	21577.23
618.616	21693.96
618.811	21089.81
619.006	21691.91
619.201	21114.39
619.396	21155.35
619.591	20753.94
619.786	20760.09
619.981	20549.15
620.176	21046.8
620.371	20459.04
620.566	20731.42
620.761	20456.99
620.956	20596.25
621.151	19988
621.346	20270.62
621.541	20233.76
621.735	20336.16
621.93	19818.02
622.125	20098.59
622.32	19772.97
622.515	19826.21
622.709	19461.68
622.904	19375.66
623.099	19316.27
623.294	19639.85
623.488	18900.53
623.683	19273.26
623.878	18787.89
624.072	18978.36
624.267	18873.91
624.462	18691.64
624.656	18777.65
624.851	18337.34
625.046	18320.96
625.24	18296.38
625.435	18013.76
625.629	18497.08
625.824	18179.65
626.018	17976.9
626.213	17489.48
626.407	17933.89
626.602	17387.08
626.796	17747.53
626.991	17403.47
627.185	17591.88
627.38	17301.07
627.574	17210.96
627.768	17102.42
627.963	16899.67
628.157	16713.3
628.352	16641.62
628.546	16832.08
628.74	16762.45
628.935	16465.5
629.129	16543.32
629.323	16139.87
629.517	16272.99
629.712	16232.03
629.906	16008.8
630.1	15937.12
630.294	16002.66
630.489	15746.66
630.683	15859.3
630.877	15683.17
631.071	15617.64
631.265	15666.79
631.459	15478.38
631.653	15421.03
631.848	15148.65
632.042	15023.73
632.236	15158.89
632.43	15054.45
632.624	15097.45
632.818	15107.69
633.012	14599.8
633.206	14521.98
633.4	14634.61
633.594	14509.69
633.788	14624.37
633.982	14427.77
634.176	14485.11
634.369	14450.3
634.563	14392.95
634.757	14077.57
634.951	14186.11
635.145	14163.58
635.339	13999.74
635.533	13891.2
635.726	13926.02
635.92	13520.52
636.114	13555.33
636.308	13747.84
636.501	13561.48
636.695	13340.3
636.889	13315.72
637.083	13287.05
637.276	13328.01
637.47	12971.66
637.664	13096.59
637.857	13043.34
638.051	13002.38
638.244	13026.96
638.438	12795.54
638.632	12785.3
638.825	12664.47
639.019	12625.56
639.212	12441.24
639.406	12740.24
639.599	12451.48
639.793	12439.19
639.986	12502.68
640.18	12062.37
640.373	12336.79
640.567	12058.27
640.76	12093.08
640.954	12017.31
641.147	11890.34
641.34	11673.25
641.534	11896.48
641.727	11935.39
641.92	11769.51
642.114	11763.36
642.307	11517.61
642.5	11454.12
642.694	11239.08
642.887	11110.06
643.08	11402.92
643.273	11136.68
643.467	11198.12
643.66	11089.58
643.853	10972.85
644.046	11120.3
644.239	11026.09
644.432	10878.64
644.626	10770.1
644.819	10600.12
645.012	10817.2
645.205	10782.38
645.398	10530.48
645.591	10626.74
645.784	10550.96
645.977	10299.06
646.17	10321.59
646.363	10329.78
646.556	10133.18
646.749	10243.77
646.942	10276.54
647.135	10002.11
647.328	10022.59
647.521	10071.74
647.714	9897.66
647.907	9922.24
648.099	9998.01
648.292	9701.06
648.485	10006.2
648.678	9772.74
648.871	9633.47
649.064	9610.95
649.256	9813.7
649.449	9641.67
649.642	9508.55
649.835	9299.66
650.027	9137.87
650.22	9273.03
650.413	9240.26
650.605	9395.91
650.798	9129.67
650.991	8969.93
651.183	9146.06
651.376	9060.04
651.568	9027.28
651.761	8869.58
651.954	8957.64
652.146	8969.93
652.339	8722.13
652.531	8808.14
652.724	8691.41
652.916	8535.76
653.109	8623.83
653.301	8572.63
653.494	8505.04
653.686	8416.98
653.879	8470.23
654.071	8457.94
654.263	8251.1
654.456	8353.49
654.648	8183.51
654.84	8191.7
655.033	8253.14
655.225	8158.94
655.417	8050.39
655.61	8029.91
655.802	8003.29
655.994	7724.77
656.186	7900.89
656.379	7706.34
656.571	7839.45
656.763	7716.58
656.955	7802.59
657.148	7626.46
657.34	7552.74
657.532	7667.42
657.724	7515.87
657.916	7522.02
658.108	7636.7
658.3	7540.45
658.492	7358.18
658.684	7372.52
658.876	7239.4
659.068	7395.04
659.26	7395.04
659.452	7220.97
659.644	7257.83
659.836	7364.32
660.028	7116.52
660.22	7085.8
660.412	7093.99
660.604	6991.59
660.796	6889.2
660.988	7102.18
661.18	6840.04
661.372	6881
661.563	7048.94
661.755	6751.98
661.947	6772.46
662.139	6831.85
662.331	6692.59
662.522	6799.09
662.714	6637.3
662.906	6465.27
663.097	6547.19
663.289	6639.34
663.481	6500.08
663.673	6332.15
663.864	6336.24
664.056	6268.66
664.247	6459.12
664.439	6319.86
664.631	6481.65
664.822	6371.06
665.014	6293.24
665.205	6149.88
665.397	6104.82
665.588	6211.32
665.78	6055.67
665.971	6156.02
666.163	6115.06
666.354	6110.97
666.546	5936.89
666.737	5787.39
666.929	6008.57
667.12	5928.7
667.311	6078.2
667.503	5850.88
667.694	5861.12
667.885	5771.01
668.077	5781.25
668.268	5623.55
668.459	5826.3
668.651	5668.61
668.842	5824.25
669.033	5701.37
669.224	5689.09
669.416	5725.95
669.607	5578.5
669.798	5588.74
669.989	5558.02
670.18	5684.99
670.371	5578.5
670.563	5359.36
670.754	5521.15
670.945	5297.92
671.136	5537.54
671.327	5302.02
671.518	5218.05
671.709	5410.56
671.9	5379.84
672.091	5369.6
672.282	5234.44
672.473	5287.68
672.664	5250.82
672.855	5146.37
673.046	5334.79
673.237	5164.81
673.428	5269.25
673.619	5211.91
673.809	5304.07
674	5132.04
674.191	5340.93
674.382	5007.11
674.573	5066.5
674.764	4921.1
674.954	5023.5
675.145	4941.58
675.336	5078.79
675.527	5062.41
675.717	5119.75
675.908	4873.99
676.099	4984.59
676.289	4779.79
676.48	4798.22
676.671	4835.08
676.861	4878.09
677.052	4783.88
677.243	4701.97
677.433	4792.08
677.624	4824.84
677.814	4710.16
678.005	4718.35
678.195	4701.97
678.386	4603.66
678.576	4701.97
678.767	4638.48
678.957	4699.92
679.148	4640.53
679.338	4824.84
679.529	4579.09
679.719	4562.7
679.909	4726.54
680.1	4595.47
680.29	4554.51
680.481	4443.92
680.671	4718.35
680.861	4531.98
681.052	4697.87
681.242	4513.55
681.432	4390.67
681.622	4448.02
681.813	4488.98
682.003	4392.72
682.193	4519.7
682.383	4386.58
682.573	4353.81
682.764	4345.62
682.954	4538.13
683.144	4484.88
683.334	4460.31
683.524	4316.95
683.714	4362
683.904	4304.66
684.094	4286.23
684.284	4452.11
684.474	4284.18
684.664	4384.53
684.854	4402.96
685.044	4226.84
685.234	4319
685.424	4407.06
685.614	4140.82
685.804	4288.28
685.994	4173.59
686.184	4286.23
686.374	4149.01
686.564	4224.79
686.753	4181.78
686.943	4222.74
687.133	4136.73
687.323	3964.7
687.513	4046.62
687.702	3972.89
687.892	4046.62
688.082	4065.05
688.272	3966.74
688.461	4044.57
688.651	3972.89
688.841	3800.86
689.03	3917.59
689.22	3903.26
689.41	3929.88
689.599	4009.75
689.789	3835.67
689.979	3764
690.168	3866.39
690.358	3786.52
690.547	3778.33
690.737	3649.31
690.926	3702.56
691.116	3710.75
691.305	3714.84
691.495	3809.05
691.684	3524.38
691.874	3571.49
692.063	3577.63
692.252	3686.17
692.442	3559.2
692.631	3514.14
692.82	3528.48
693.01	3464.99
693.199	3612.45
693.388	3469.09
693.578	3481.38
693.767	3657.5
693.956	3489.57
694.146	3589.92
694.335	3493.66
694.524	3522.34
694.713	3489.57
694.902	3569.44
695.092	3532.58
695.281	3483.42
695.47	3331.87
695.659	3249.96
695.848	3426.08
696.037	3266.34
696.226	3301.15
696.415	3340.07
696.604	3344.16
696.793	3292.96
696.982	3358.5
697.171	3432.22
697.36	3260.2
697.549	3137.32
697.738	3145.51
697.927	3292.96
698.116	3198.76
698.305	3264.29
698.494	3303.2
698.683	3276.58
698.872	3229.48
699.061	3276.58
699.25	3331.87
699.438	3047.21
699.627	3178.28
699.816	3161.89
700.005	3086.12
700.193	3051.3
700.382	3157.8
700.571	3178.28
700.76	3149.61
700.948	3186.47
701.137	3135.27
701.326	3043.11
701.514	3055.4
701.703	3024.68
701.892	3028.78
702.08	3096.36
702.269	3055.4
702.457	3073.83
702.646	3073.83
702.834	2948.9
703.023	2924.33
703.212	3114.79
703.4	2957.1
703.589	2823.98
703.777	3034.92
703.965	2944.81
704.154	2877.23
704.342	2901.8
704.531	3039.01
704.719	2985.77
704.907	3098.41
705.096	2918.18
705.284	2932.52
705.472	2881.32
705.661	2932.52
705.849	2977.58
706.037	2998.06
706.226	2817.83
706.414	2969.38
706.602	2916.14
706.79	2981.67
706.979	2887.47
707.167	3006.25
707.355	2883.37
707.543	2817.83
707.731	2979.62
707.919	2842.41
708.107	2936.62
708.296	2846.51
708.484	2852.65
708.672	2918.18
708.86	2844.46
709.048	2940.71
709.236	2740.01
709.424	2764.59
709.612	2873.13
709.8	2795.31
709.988	2776.87
710.176	2774.83
710.364	2842.41
710.551	2727.72
710.739	2723.63
710.927	2752.3
711.115	2740.01
711.303	2819.88
711.491	2670.38
711.679	2723.63
711.866	2838.31
712.054	2680.62
712.242	2629.42
712.43	2727.72
712.617	2719.53
712.805	2641.71
712.993	2666.28
713.181	2674.48
713.368	2762.54
713.556	2737.96
713.744	2703.15
713.931	2678.57
714.119	2701.1
714.306	2621.23
714.494	2760.49
714.682	2623.28
714.869	2449.2
715.057	2662.19
715.244	2711.34
715.432	2678.57
715.619	2547.5
715.807	2541.36
715.994	2610.99
716.182	2604.85
716.369	2670.38
716.556	2600.75
716.744	2563.89
716.931	2547.5
717.119	2639.66
717.306	2707.24
717.493	2490.16
717.681	2623.28
717.868	2580.27
718.055	2557.74
718.242	2508.59
718.43	2449.2
718.617	2602.8
718.804	2484.02
718.991	2484.02
719.179	2619.18
719.366	2580.27
719.553	2479.92
719.74	2514.73
719.927	2490.16
720.114	2527.02
720.301	2486.06
720.488	2449.2
720.676	2551.6
720.863	2539.31
721.05	2510.64
721.237	2555.69
721.424	2527.02
721.611	2445.1
721.798	2428.72
721.985	2398
722.172	2412.34
722.358	2436.91
722.545	2441.01
722.732	2473.78
722.919	2508.59
723.106	2367.28
723.293	2410.29
723.48	2449.2
723.667	2350.9
723.853	2416.43
724.04	2395.95
724.227	2336.56
724.414	2361.14
724.6	2484.02
724.787	2385.71
724.974	2488.11
725.161	2385.71
725.347	2457.39
725.534	2350.9
725.72	2391.86
725.907	2404.14
726.094	2408.24
726.28	2481.97
726.467	2441.01
726.653	2363.19
726.84	2455.34
727.027	2377.52
727.213	2334.51
727.4	2309.94
727.586	2385.71
727.773	2361.14
727.959	2277.17
728.145	2311.99
728.332	2295.6
728.518	2467.63
728.705	2371.38
728.891	2377.52
729.077	2400.05
729.264	2240.31
729.45	2318.13
729.636	2367.28
729.823	2375.47
730.009	2391.86
730.195	2285.36
730.382	2346.8
730.568	2334.51
730.754	2416.43
730.94	2305.84
731.126	2367.28
731.313	2385.71
731.499	2375.47
731.685	2219.83
731.871	2195.25
732.057	2328.37
732.243	2223.92
732.429	2268.98
732.615	2207.54
732.801	2228.02
732.987	2121.52
733.173	2303.79
733.359	2285.36
733.545	2309.94
733.731	2199.35
733.917	2248.5
734.103	2264.88
734.289	2246.45
734.475	2217.78
734.661	2244.4
734.847	2219.83
735.033	2180.92
735.219	2199.35
735.404	2303.79
735.59	2209.59
735.776	2135.86
735.962	2182.96
736.148	2230.07
736.333	2203.44
736.519	2125.62
736.705	2170.68
736.89	2164.53
737.076	2182.96
737.262	2072.37
737.447	2164.53
737.633	2170.68
737.819	2072.37
738.004	2088.76
738.19	2158.39
738.375	2137.91
738.561	2277.17
738.747	2154.29
738.932	2051.89
739.118	2176.82
739.303	2162.48
739.489	2129.72
739.674	2017.08
739.859	2025.27
740.045	2088.76
740.23	2080.57
740.416	2039.61
740.601	2043.7
740.786	1924.92
740.972	2055.99
741.157	1969.98
741.342	1986.36
741.528	2023.22
741.713	2027.32
741.898	2117.43
742.084	1947.45
742.269	1953.59
742.454	2031.41
742.639	1990.45
742.824	2002.74
743.01	1888.06
743.195	2015.03
743.38	1951.54
743.565	2055.99
743.75	1908.54
743.935	1994.55
744.12	1992.5
744.305	1840.95
744.49	1910.58
744.675	1771.32
744.86	1834.81
745.045	1785.66
745.23	1857.34
745.415	1826.62
745.6	1845.05
745.785	1771.32
745.97	1834.81
746.155	1781.56
746.34	1877.82
746.525	1822.52
746.71	1881.91
746.895	1771.32
747.079	1754.94
747.264	1771.32
747.449	1777.47
747.634	1744.7
747.819	1720.12
748.003	1675.07
748.188	1677.12
748.373	1689.4
748.557	1707.84
748.742	1679.16
748.927	1584.96
749.111	1627.96
749.296	1589.05
749.481	1730.36
749.665	1527.61
749.85	1593.15
750.034	1589.05
750.219	1560.38
750.404	1599.29
750.588	1527.61
750.773	1513.28
750.957	1605.44
751.141	1529.66
751.326	1548.09
751.51	1595.2
751.695	1384.26
751.879	1531.71
752.064	1509.18
752.248	1417.02
752.432	1453.89
752.617	1443.65
752.801	1406.78
752.985	1523.52
753.17	1417.02
753.354	1367.87
753.538	1400.64
753.722	1380.16
753.907	1314.63
754.091	1316.67
754.275	1263.43
754.459	1304.39
754.643	1228.61
754.828	1322.82
755.012	1247.04
755.196	1259.33
755.38	1302.34
755.564	1320.77
755.748	1232.71
755.932	1322.82
756.116	1249.09
756.3	1279.81
756.484	1187.65
756.668	1136.45
756.852	1165.12
757.036	1193.8
757.22	1113.92
757.404	1220.42
757.588	1187.65
757.772	1253.19
757.956	1165.12
758.14	1140.55
758.323	1115.97
758.507	1130.31
758.691	1181.51
758.875	1146.69
759.059	1175.36
759.242	1079.11
759.426	1066.82
759.61	1130.31
759.794	1066.82
759.977	1146.69
760.161	1105.73
760.345	1109.83
760.528	1152.84
760.712	995.14
760.895	1138.5
761.079	999.24
761.263	984.9
761.446	999.24
761.63	1062.73
761.813	1021.77
761.997	929.61
762.18	970.57
762.364	986.95
762.547	1019.72
762.731	964.42
762.914	1034.05
763.098	974.66
763.281	927.56
763.464	956.23
763.648	962.37
763.831	1011.53
764.015	876.36
764.198	941.89
764.381	956.23
764.564	929.61
764.748	925.51
764.931	917.32
765.114	991.05
765.297	986.95
765.481	823.11
765.664	1001.29
765.847	821.06
766.03	976.71
766.213	876.36
766.397	866.12
766.58	835.4
766.763	888.65
766.946	870.22
767.129	804.68
767.312	819.02
767.495	819.02
767.678	765.77
767.861	945.99
768.044	855.88
768.227	872.26
768.41	876.36
768.593	878.41
768.776	800.59
768.959	874.31
769.142	925.51
769.324	839.5
769.507	810.82
769.69	859.98
769.873	859.98
770.056	870.22
770.239	771.91
770.421	796.49
770.604	802.63
770.787	747.34
770.97	767.82
771.152	728.91
771.335	829.26
771.518	786.25
771.7	751.43
771.883	802.63
772.066	753.48
772.248	802.63
772.431	763.72
772.613	730.95
772.796	720.71
772.978	796.49
773.161	730.95
773.343	802.63
773.526	616.27
773.708	692.04
773.891	735.05
774.073	700.23
774.256	696.14
774.438	712.52
774.621	708.43
774.803	761.67
774.985	730.95
775.168	642.89
775.35	630.6
775.532	601.93
775.715	708.43
775.897	681.8
776.079	642.89
776.261	792.39
776.444	630.6
776.626	565.07
776.808	663.37
776.99	665.42
777.173	575.31
777.355	706.38
777.537	692.04
777.719	649.04
777.901	530.25
778.083	567.12
778.265	595.79
778.447	665.42
778.629	593.74
778.811	567.12
778.993	595.79
779.175	571.21
779.357	638.8
779.539	454.48
779.721	540.49
779.903	436.05
780.085	468.81
780.267	552.78
780.449	587.6
780.631	522.06
780.812	511.82
780.994	509.77
781.176	499.53
781.358	520.01
781.54	452.43
781.721	470.86
781.903	491.34
782.085	468.81
782.267	458.57
782.448	487.25
782.63	511.82
782.812	448.33
782.993	503.63
783.175	507.73
783.357	448.33
783.538	427.85
783.72	474.96
783.901	485.2
784.083	384.85
784.264	491.34
784.446	360.27
784.627	395.09
784.809	335.7
784.99	450.38
785.172	427.85
785.353	454.48
785.535	415.57
785.716	368.46
785.897	335.7
786.079	339.79
786.26	364.37
786.441	395.09
786.623	321.36
786.804	481.1
786.985	364.37
787.167	343.89
787.348	452.43
787.529	472.91
787.71	397.14
787.891	378.7
788.073	333.65
788.254	307.02
788.435	417.61
788.616	374.61
788.797	270.16
788.978	403.28
789.159	350.03
789.34	372.56
789.522	368.46
789.703	401.23
789.884	364.37
790.065	311.12
790.246	315.22
790.427	343.89
790.607	345.94
790.788	409.42
790.969	354.13
791.15	341.84
791.331	276.31
791.512	221.01
791.693	243.54
791.874	311.12
792.054	321.36
792.235	352.08
792.416	288.59
792.597	315.22
792.778	311.12
792.958	311.12
793.139	343.89
793.32	229.2
793.5	216.91
793.681	329.55
793.862	321.36
794.042	270.16
794.223	241.49
794.404	257.87
794.584	237.39
794.765	286.54
794.945	272.21
795.126	294.74
795.306	360.27
795.487	192.34
795.667	261.97
795.848	341.84
796.028	302.93
796.209	282.45
796.389	331.6
796.57	282.45
796.75	270.16
796.93	255.83
797.111	278.35
797.291	251.73
797.471	182.1
797.652	257.87
797.832	245.59
798.012	196.43
798.192	163.67
798.373	261.97
798.553	255.83
798.733	192.34
798.913	231.25
799.093	261.97
799.274	225.11
799.454	237.39
799.634	247.63
799.814	333.65
799.994	188.24
800.174	270.16
800.354	171.86
800.534	196.43
800.714	214.87
800.894	173.91
801.074	204.63
801.254	194.39
801.434	319.31
801.614	163.67
801.794	188.24
801.974	769.87
802.154	167.76
802.334	239.44
802.514	218.96
802.693	190.29
802.873	214.87
803.053	276.31
803.233	190.29
803.413	180.05
803.592	208.72
803.772	206.67
803.952	155.47
804.131	206.67
804.311	239.44
804.491	221.01
804.67	161.62
804.85	173.91
805.03	163.67
805.209	192.34
805.389	165.71
805.568	106.32
805.748	118.61
805.928	196.43
806.107	200.53
806.287	157.52
806.466	200.53
806.646	155.47
806.825	149.33
807.004	141.14
807.184	194.39
807.363	135
807.543	153.43
807.722	165.71
807.901	155.47
808.081	124.76
808.26	114.52
808.439	231.25
808.619	165.71
808.798	182.1
808.977	194.39
809.156	231.25
809.336	147.28
809.515	155.47
809.694	106.32
809.873	118.61
810.052	182.1
810.231	75.6
810.411	180.05
810.59	190.29
810.769	116.56
810.948	200.53
811.127	132.95
811.306	106.32
811.485	188.24
811.664	233.3
811.843	167.76
812.022	194.39
812.201	106.32
812.38	132.95
812.559	59.22
812.737	106.32
812.916	221.01
813.095	143.19
813.274	126.8
813.453	122.71
813.632	108.37
813.811	132.95
813.989	163.67
814.168	196.43
814.347	139.09
814.526	128.85
814.704	188.24
814.883	165.71
815.062	89.94
815.24	132.95
815.419	122.71
815.598	159.57
815.776	94.04
815.955	216.91
816.133	132.95
816.312	139.09
816.49	59.22
816.669	100.18
816.847	132.95
817.026	48.98
817.204	81.75
817.383	100.18
817.561	165.71
817.74	94.04
817.918	151.38
818.097	75.6
818.275	106.32
818.453	124.76
818.632	130.9
818.81	124.76
818.988	81.75
819.167	126.8
819.345	155.47
819.523	157.52
819.701	81.75
819.879	89.94
820.058	65.36
820.236	85.84
820.414	147.28
820.592	108.37
820.77	91.99
820.948	98.13
821.127	59.22
821.305	69.46
821.483	120.66
821.661	130.9
821.839	91.99
822.017	65.36
822.195	73.56
822.373	110.42
822.551	139.09
822.729	91.99
822.907	104.28
823.085	81.75
823.262	135
823.44	61.27
823.618	34.64
823.796	46.93
823.974	118.61
824.152	100.18
824.329	26.45
824.507	26.45
824.685	102.23
824.863	44.88
825.04	161.62
825.218	65.36
825.396	67.41
825.574	36.69
825.751	139.09
825.929	10.07
826.107	94.04
826.284	81.75
826.462	59.22
826.639	89.94
826.817	83.8
826.994	89.94
827.172	51.03
827.349	147.28
827.527	112.47
827.704	122.71
827.882	32.6
828.059	126.8
828.237	94.04
828.414	85.84
828.591	61.27
828.769	96.08
828.946	75.6
829.124	100.18
829.301	104.28
829.478	171.86
829.655	139.09
829.833	57.17
830.01	71.51
830.187	141.14
830.364	40.79
830.542	116.56
830.719	94.04
830.896	67.41
831.073	108.37
831.25	69.46
831.427	141.14
831.604	55.12
831.782	94.04
831.959	106.32
832.136	65.36
832.313	69.46
832.49	20.31
832.667	24.4
832.844	81.75
833.021	79.7
833.198	65.36
833.374	75.6
833.551	48.98
833.728	73.56
833.905	114.52
834.082	32.6
834.259	51.03
834.436	96.08
834.612	-20.65
834.789	114.52
834.966	18.26
835.143	57.17
835.319	32.6
835.496	57.17
835.673	91.99
835.85	122.71
836.026	102.23
836.203	32.6
836.38	89.94
836.556	89.94
836.733	-69.8
836.909	85.84
837.086	32.6
837.262	40.79
837.439	67.41
837.616	79.7
837.792	59.22
837.968	-8.36
838.145	-0.17
838.321	26.45
838.498	57.17
838.674	87.89
838.851	98.13
839.027	18.26
839.203	65.36
839.38	57.17
839.556	46.93
839.732	81.75
839.909	28.5
840.085	73.56
840.261	16.21
840.437	151.38
840.614	24.4
840.79	57.17
840.966	48.98
841.142	139.09
841.318	85.84
841.494	104.28
841.671	141.14
841.847	8.02
842.023	71.51
842.199	12.12
842.375	42.84
842.551	48.98
842.727	69.46
842.903	91.99
843.079	-28.84
843.255	57.17
843.431	-4.27
843.607	55.12
843.783	-59.56
843.959	51.03
844.134	-0.17
844.31	34.64
844.486	-32.94
844.662	75.6
844.838	59.22
845.013	57.17
845.189	69.46
845.365	51.03
845.541	-41.13
845.716	79.7
845.892	114.52
846.068	106.32
846.244	-10.41
846.419	91.99
846.595	-12.46
846.77	24.4
846.946	26.45
847.122	94.04
847.297	14.17
847.473	32.6
847.648	12.12
847.824	55.12
847.999	12.12
848.175	-24.75
848.35	46.93
848.526	53.08
848.701	40.79
848.876	-2.22
849.052	44.88
849.227	91.99
849.403	65.36
849.578	91.99
849.753	104.28
849.929	100.18
850.104	-51.37
850.279	44.88
850.454	28.5
850.63	36.69
850.805	-32.94
850.98	-53.42
851.155	59.22
851.33	-37.03
851.505	-30.89
851.681	91.99
851.856	8.02
852.031	24.4
852.206	61.27
852.381	-30.89
852.556	71.51
852.731	91.99
852.906	12.12
853.081	-32.94
853.256	65.36
853.431	73.56
853.606	-0.17
853.781	42.84
853.956	-47.27
854.131	3.93
854.305	71.51
854.48	-41.13
854.655	10.07
854.83	57.17
855.005	46.93
855.18	67.41
855.354	-20.65
855.529	-14.51
855.704	-30.89
855.879	40.79
856.053	26.45
856.228	40.79
856.403	20.31
856.577	32.6
856.752	-30.89
856.926	38.74
857.101	59.22
857.276	-24.75
857.45	94.04
857.625	10.07
857.799	-26.79
857.974	3.93
858.148	30.55
858.323	12.12
858.497	10.07
858.672	51.03
858.846	-14.51
859.02	10.07
859.195	10.07
859.369	57.17
859.543	5.97
859.718	48.98
859.892	40.79
860.066	34.64
860.241	12.12
860.415	34.64
860.589	20.31
860.763	42.84
860.938	-24.75
861.112	65.36
861.286	18.26
861.46	-45.23
861.634	40.79
861.808	-22.7
861.982	22.36
862.157	8.02
862.331	-8.36
862.505	-22.7
862.679	-10.41
862.853	16.21
863.027	20.31
863.201	102.23
863.375	-28.84
863.549	8.02
863.722	-4.27
863.896	44.88
864.07	5.97
864.244	24.4
864.418	55.12
864.592	-14.51
864.766	-22.7
864.939	65.36
865.113	65.36
865.287	91.99
865.461	-41.13
865.634	3.93
865.808	42.84
865.982	-18.6
866.156	-41.13
866.329	-32.94
866.503	-8.36
866.676	81.75
866.85	-4.27
867.024	18.26
867.197	57.17
867.371	40.79
867.544	20.31
867.718	-32.94
867.891	-0.17
868.065	-8.36
868.238	-26.79
868.412	53.08
868.585	-16.55
868.759	26.45
868.932	1.88
869.105	12.12
869.279	-30.89
869.452	32.6
869.625	40.79
869.799	10.07
869.972	-65.71
870.145	-57.51
870.319	55.12
870.492	-6.31
870.665	16.21
870.838	16.21
871.011	-71.85
871.185	12.12
871.358	20.31
871.531	46.93
871.704	96.08
871.877	-37.03
872.05	-4.27
872.223	18.26
872.396	85.84
872.569	98.13
872.742	-6.31
872.915	3.93
873.088	-22.7
873.261	3.93
873.434	16.21
873.607	-18.6
873.78	65.36
873.953	-14.51
874.126	-16.55
874.299	81.75
874.471	65.36
874.644	-18.6
874.817	59.22
874.99	-32.94
875.163	-43.18
875.335	28.5
875.508	-8.36
875.681	77.65
875.853	-26.79
876.026	65.36
876.199	-47.27
876.371	10.07
876.544	-84.14
876.717	-4.27
876.889	26.45
877.062	-0.17
877.234	-32.94
877.407	55.12
877.579	28.5
877.752	57.17
877.924	-16.55
878.097	-41.13
878.269	46.93
878.442	-0.17
878.614	87.89
878.786	32.6
878.959	-47.27
879.131	65.36
879.303	-16.55
879.476	12.12
879.648	-71.85
879.82	91.99
879.993	-24.75
880.165	-32.94
880.337	-61.61
880.509	32.6
880.681	-94.38
880.854	1.88
881.026	44.88
881.198	40.79
881.37	-16.55
881.542	16.21
881.714	-86.19
881.886	16.21
882.058	32.6
882.23	22.36
882.402	-32.94
882.574	20.31
882.746	71.51
882.918	14.17
883.09	-30.89
883.262	18.26
883.434	20.31
883.606	-12.46
883.778	18.26
883.95	51.03
884.122	34.64
884.293	18.26
884.465	-10.41
884.637	-8.36
884.809	-20.65
884.98	28.5
885.152	126.8
885.324	-18.6
885.496	40.79
885.667	32.6
885.839	-16.55
886.011	132.95
886.182	24.4
886.354	73.56
886.525	75.6
886.697	40.79
886.869	-2.22
887.04	-8.36
887.212	53.08
887.383	32.6
887.555	-4.27
887.726	-16.55
887.897	40.79
888.069	32.6
888.24	65.36
888.412	8.02
888.583	57.17
888.754	32.6
888.926	40.79
889.097	32.6
889.268	-24.75
889.44	-24.75
889.611	-49.32
889.782	-75.95
889.953	5.97
890.125	-2.22
890.296	-2.22
890.467	-47.27
890.638	81.75
890.809	-49.32
890.98	-6.31
891.151	48.98
891.323	100.18
891.494	-14.51
891.665	24.4
891.836	61.27
892.007	16.21
892.178	83.8
892.349	71.51
892.52	-51.37
892.691	85.84
892.862	-14.51
893.032	20.31
893.203	81.75
893.374	-63.66
893.545	26.45
893.716	-30.89
893.887	-28.84
894.057	-0.17
894.228	40.79
894.399	-67.75
894.57	69.46
894.74	14.17
894.911	79.7
895.082	16.21
895.253	-12.46
895.423	-92.33
895.594	30.55
895.764	26.45
895.935	55.12
896.106	-2.22
896.276	42.84
896.447	48.98
896.617	-84.14
896.788	-37.03
896.958	10.07
897.129	-41.13
897.299	1.88
897.47	59.22
897.64	24.4
897.81	12.12
897.981	108.37
898.151	-24.75
898.322	24.4
898.492	-32.94
898.662	-22.7
898.832	-4.27
899.003	-14.51
899.173	-6.31
899.343	-32.94
899.513	-8.36
