Data from USB4F104151__45__13-11-14-821.txt Node

Date: Fri Mar 14 13:11:14 EDT 2025
User: louis
Spectrometer: USB4F10415
Trigger mode: 4
Integration Time (sec): 2.000000E-2
Scans to average: 1
Electric dark correction enabled: true
Nonlinearity correction enabled: false
Boxcar width: 0
XAxis mode: Wavelengths
Number of Pixels in Spectrum: 3648
>>>>>Begin Spectral Data<<<<<
178.204	-112.3
178.424	-112.3
178.644	-112.3
178.864	-57
179.084	-149.16
179.304	-13.99
179.524	-54.95
179.744	-85.67
179.964	117.08
180.184	-5.8
180.404	0.34
180.624	18.77
180.844	14.68
181.064	-11.95
181.283	4.44
181.503	18.77
181.723	-1.71
181.943	-30.38
182.163	0.34
182.383	-22.19
182.602	29.01
182.822	86.36
183.042	63.83
183.262	12.63
183.482	24.92
183.701	12.63
183.921	26.96
184.141	-28.33
184.361	16.73
184.58	-87.72
184.8	69.97
185.02	-52.91
185.239	72.02
185.459	92.5
185.679	74.07
185.898	10.58
186.118	74.07
186.338	-28.33
186.557	18.77
186.777	74.07
186.997	-28.33
187.216	51.54
187.436	94.55
187.655	59.73
187.875	53.59
188.095	35.16
188.314	39.25
188.534	86.36
188.753	35.16
188.973	12.63
189.192	-3.75
189.412	0.34
189.631	-16.04
189.851	102.74
190.07	24.92
190.29	0.34
190.509	72.02
190.729	29.01
190.948	74.07
191.168	139.6
191.387	12.63
191.607	8.53
191.826	49.49
192.045	-48.81
192.265	-22.19
192.484	4.44
192.704	10.58
192.923	-54.95
193.142	55.64
193.362	78.16
193.581	84.31
193.8	102.74
194.02	65.88
194.239	-5.8
194.458	10.58
194.678	8.53
194.897	37.2
195.116	96.6
195.335	74.07
195.555	63.83
195.774	12.63
195.993	4.44
196.212	20.82
196.432	10.58
196.651	39.25
196.87	69.97
197.089	110.93
197.308	18.77
197.528	59.73
197.747	-18.09
197.966	55.64
198.185	18.77
198.404	37.2
198.623	39.25
198.842	20.82
199.062	69.97
199.281	10.58
199.5	37.2
199.719	86.36
199.938	16.73
200.157	-16.04
200.376	67.92
200.595	-7.85
200.814	57.68
201.033	33.11
201.252	82.26
201.471	8.53
201.69	49.49
201.909	26.96
202.128	90.45
202.347	67.92
202.566	24.92
202.785	31.06
203.004	33.11
203.223	55.64
203.442	43.35
203.661	-16.04
203.879	16.73
204.098	10.58
204.317	47.44
204.536	51.54
204.755	92.5
204.974	76.12
205.193	98.64
205.411	115.03
205.63	8.53
205.849	16.73
206.068	72.02
206.287	-38.57
206.505	51.54
206.724	8.53
206.943	-20.14
207.162	24.92
207.381	65.88
207.599	39.25
207.818	59.73
208.037	74.07
208.255	12.63
208.474	24.92
208.693	12.63
208.911	-18.09
209.13	63.83
209.349	26.96
209.567	0.34
209.786	33.11
210.005	-13.99
210.223	18.77
210.442	-44.71
210.661	33.11
210.879	-44.71
211.098	49.49
211.316	-18.09
211.535	41.3
211.753	96.6
211.972	-28.33
212.191	22.87
212.409	37.2
212.628	-11.95
212.846	8.53
213.065	-11.95
213.283	65.88
213.502	92.5
213.72	-7.85
213.938	-7.85
214.157	37.2
214.375	-3.75
214.594	61.78
214.812	-24.23
215.031	74.07
215.249	-7.85
215.467	4.44
215.686	29.01
215.904	22.87
216.122	-1.71
216.341	69.97
216.559	-38.57
216.778	78.16
216.996	74.07
217.214	76.12
217.432	26.96
217.651	-28.33
217.869	35.16
218.087	76.12
218.306	61.78
218.524	35.16
218.742	24.92
218.96	10.58
219.179	-75.43
219.397	43.35
219.615	65.88
219.833	67.92
220.051	47.44
220.27	72.02
220.488	78.16
220.706	82.26
220.924	4.44
221.142	-44.71
221.36	45.4
221.578	24.92
221.796	59.73
222.015	69.97
222.233	72.02
222.451	129.36
222.669	22.87
222.887	26.96
223.105	-32.43
223.323	-40.62
223.541	8.53
223.759	92.5
223.977	-7.85
224.195	6.49
224.413	-7.85
224.631	16.73
224.849	-3.75
225.067	135.51
225.285	43.35
225.503	92.5
225.721	24.92
225.939	12.63
226.157	92.5
226.375	102.74
226.592	-16.04
226.81	31.06
227.028	26.96
227.246	119.12
227.464	45.4
227.682	29.01
227.9	8.53
228.117	90.45
228.335	49.49
228.553	24.92
228.771	96.6
228.989	57.68
229.206	94.55
229.424	-11.95
229.642	-16.04
229.86	53.59
230.077	-30.38
230.295	20.82
230.513	41.3
230.731	61.78
230.948	51.54
231.166	51.54
231.384	33.11
231.601	10.58
231.819	0.34
232.037	-40.62
232.254	-24.23
232.472	-16.04
232.689	33.11
232.907	35.16
233.125	43.35
233.342	-30.38
233.56	63.83
233.777	-3.75
233.995	24.92
234.213	90.45
234.43	22.87
234.648	33.11
234.865	39.25
235.083	4.44
235.3	8.53
235.518	63.83
235.735	31.06
235.953	-16.04
236.17	16.73
236.388	69.97
236.605	-9.9
236.822	4.44
237.04	14.68
237.257	43.35
237.475	16.73
237.692	86.36
237.909	53.59
238.127	8.53
238.344	20.82
238.562	4.44
238.779	0.34
238.996	74.07
239.214	8.53
239.431	31.06
239.648	-3.75
239.865	53.59
240.083	20.82
240.3	92.5
240.517	-32.43
240.735	-34.47
240.952	59.73
241.169	2.39
241.386	45.4
241.603	-5.8
241.821	-1.71
242.038	133.46
242.255	51.54
242.472	-22.19
242.689	65.88
242.907	37.2
243.124	112.98
243.341	37.2
243.558	-44.71
243.775	-3.75
243.992	41.3
244.209	35.16
244.426	123.22
244.643	24.92
244.86	-11.95
245.078	102.74
245.295	22.87
245.512	37.2
245.729	-50.86
245.946	67.92
246.163	33.11
246.38	37.2
246.597	-7.85
246.814	10.58
247.031	47.44
247.248	26.96
247.464	0.34
247.681	35.16
247.898	-13.99
248.115	26.96
248.332	0.34
248.549	104.79
248.766	92.5
248.983	51.54
249.2	2.39
249.417	45.4
249.633	-44.71
249.85	57.68
250.067	-32.43
250.284	67.92
250.501	90.45
250.717	41.3
250.934	-13.99
251.151	57.68
251.368	18.77
251.585	-13.99
251.801	31.06
252.018	45.4
252.235	100.69
252.451	82.26
252.668	-34.47
252.885	6.49
253.102	65.88
253.318	80.21
253.535	-20.14
253.752	-9.9
253.968	-1.71
254.185	-30.38
254.401	61.78
254.618	129.36
254.835	-32.43
255.051	147.8
255.268	-11.95
255.484	16.73
255.701	26.96
255.917	65.88
256.134	-28.33
256.351	49.49
256.567	-3.75
256.784	0.34
257	-20.14
257.217	35.16
257.433	24.92
257.65	72.02
257.866	121.17
258.082	-30.38
258.299	-3.75
258.515	35.16
258.732	-3.75
258.948	-20.14
259.165	16.73
259.381	51.54
259.597	65.88
259.814	74.07
260.03	29.01
260.246	2.39
260.463	47.44
260.679	-11.95
260.895	-5.8
261.112	24.92
261.328	-20.14
261.544	4.44
261.761	31.06
261.977	0.34
262.193	35.16
262.409	14.68
262.626	61.78
262.842	29.01
263.058	-24.23
263.274	-24.23
263.49	33.11
263.707	43.35
263.923	-22.19
264.139	-22.19
264.355	0.34
264.571	-3.75
264.787	29.01
265.004	8.53
265.22	49.49
265.436	57.68
265.652	45.4
265.868	24.92
266.084	-48.81
266.3	96.6
266.516	12.63
266.732	26.96
266.948	2.39
267.164	61.78
267.38	43.35
267.596	-5.8
267.812	102.74
268.028	0.34
268.244	12.63
268.46	51.54
268.676	-24.23
268.892	37.2
269.108	-32.43
269.324	8.53
269.54	-16.04
269.756	80.21
269.972	63.83
270.188	6.49
270.403	0.34
270.619	-40.62
270.835	16.73
271.051	10.58
271.267	-36.52
271.483	20.82
271.698	6.49
271.914	135.51
272.13	4.44
272.346	12.63
272.562	18.77
272.777	57.68
272.993	72.02
273.209	117.08
273.425	-13.99
273.64	33.11
273.856	18.77
274.072	31.06
274.287	53.59
274.503	43.35
274.719	45.4
274.934	-1.71
275.15	41.3
275.366	-9.9
275.581	22.87
275.797	51.54
276.012	57.68
276.228	41.3
276.444	47.44
276.659	37.2
276.875	-1.71
277.09	31.06
277.306	8.53
277.521	26.96
277.737	61.78
277.952	106.84
278.168	29.01
278.383	45.4
278.599	39.25
278.814	10.58
279.03	51.54
279.245	67.92
279.461	43.35
279.676	90.45
279.892	59.73
280.107	-3.75
280.322	78.16
280.538	31.06
280.753	78.16
280.969	86.36
281.184	104.79
281.399	59.73
281.615	41.3
281.83	69.97
282.045	-16.04
282.26	53.59
282.476	43.35
282.691	61.78
282.906	24.92
283.122	88.4
283.337	29.01
283.552	20.82
283.767	-11.95
283.983	10.58
284.198	84.31
284.413	86.36
284.628	53.59
284.843	24.92
285.058	78.16
285.274	74.07
285.489	-30.38
285.704	117.08
285.919	-61.1
286.134	24.92
286.349	41.3
286.564	24.92
286.779	74.07
286.995	16.73
287.21	-67.24
287.425	4.44
287.64	-16.04
287.855	55.64
288.07	41.3
288.285	61.78
288.5	55.64
288.715	41.3
288.93	-16.04
289.145	78.16
289.36	10.58
289.575	14.68
289.79	69.97
290.004	86.36
290.219	4.44
290.434	26.96
290.649	-36.52
290.864	45.4
291.079	43.35
291.294	6.49
291.509	47.44
291.724	69.97
291.938	117.08
292.153	131.41
292.368	26.96
292.583	59.73
292.798	-3.75
293.012	-28.33
293.227	2.39
293.442	37.2
293.657	31.06
293.871	37.2
294.086	57.68
294.301	69.97
294.516	-22.19
294.73	-28.33
294.945	49.49
295.16	88.4
295.374	6.49
295.589	47.44
295.804	45.4
296.018	59.73
296.233	106.84
296.447	10.58
296.662	51.54
296.877	51.54
297.091	102.74
297.306	-7.85
297.52	-1.71
297.735	57.68
297.949	59.73
298.164	59.73
298.378	14.68
298.593	20.82
298.807	76.12
299.022	8.53
299.236	43.35
299.451	74.07
299.665	74.07
299.88	49.49
300.094	20.82
300.309	0.34
300.523	57.68
300.737	49.49
300.952	67.92
301.166	59.73
301.381	26.96
301.595	-36.52
301.809	24.92
302.024	61.78
302.238	104.79
302.452	45.4
302.667	51.54
302.881	131.41
303.095	80.21
303.309	-5.8
303.524	-16.04
303.738	-11.95
303.952	8.53
304.166	45.4
304.381	20.82
304.595	82.26
304.809	55.64
305.023	41.3
305.237	16.73
305.452	49.49
305.666	82.26
305.88	57.68
306.094	78.16
306.308	35.16
306.522	45.4
306.736	45.4
306.95	76.12
307.164	2.39
307.379	18.77
307.593	31.06
307.807	119.12
308.021	16.73
308.235	78.16
308.449	0.34
308.663	39.25
308.877	110.93
309.091	74.07
309.305	98.64
309.519	-22.19
309.733	82.26
309.947	59.73
310.161	115.03
310.374	41.3
310.588	10.58
310.802	8.53
311.016	2.39
311.23	-5.8
311.444	-3.75
311.658	55.64
311.872	106.84
312.085	37.2
312.299	67.92
312.513	43.35
312.727	76.12
312.941	80.21
313.154	16.73
313.368	20.82
313.582	16.73
313.796	67.92
314.009	-52.91
314.223	24.92
314.437	55.64
314.651	63.83
314.864	18.77
315.078	-26.28
315.292	10.58
315.505	31.06
315.719	86.36
315.933	12.63
316.146	4.44
316.36	-13.99
316.573	90.45
316.787	67.92
317.001	16.73
317.214	67.92
317.428	51.54
317.641	2.39
317.855	41.3
318.068	49.49
318.282	31.06
318.495	22.87
318.709	67.92
318.922	39.25
319.136	33.11
319.349	6.49
319.563	-16.04
319.776	65.88
319.99	-40.62
320.203	12.63
320.417	33.11
320.63	-36.52
320.843	65.88
321.057	72.02
321.27	33.11
321.483	8.53
321.697	72.02
321.91	-9.9
322.124	14.68
322.337	43.35
322.55	-26.28
322.763	20.82
322.977	-11.95
323.19	26.96
323.403	51.54
323.617	22.87
323.83	69.97
324.043	53.59
324.256	82.26
324.469	24.92
324.683	47.44
324.896	59.73
325.109	59.73
325.322	-16.04
325.535	20.82
325.748	74.07
325.962	45.4
326.175	18.77
326.388	43.35
326.601	63.83
326.814	31.06
327.027	-24.23
327.24	53.59
327.453	-38.57
327.666	94.55
327.879	31.06
328.092	8.53
328.305	6.49
328.518	33.11
328.731	47.44
328.944	90.45
329.157	61.78
329.37	14.68
329.583	43.35
329.796	45.4
330.009	12.63
330.222	18.77
330.435	-1.71
330.648	-32.43
330.861	43.35
331.073	26.96
331.286	18.77
331.499	55.64
331.712	55.64
331.925	61.78
332.138	74.07
332.35	-13.99
332.563	33.11
332.776	90.45
332.989	37.2
333.202	-16.04
333.414	0.34
333.627	69.97
333.84	35.16
334.053	43.35
334.265	20.82
334.478	45.4
334.691	43.35
334.903	16.73
335.116	55.64
335.329	8.53
335.541	-34.47
335.754	82.26
335.966	-40.62
336.179	69.97
336.392	72.02
336.604	33.11
336.817	51.54
337.029	51.54
337.242	24.92
337.454	24.92
337.667	-5.8
337.88	57.68
338.092	102.74
338.305	84.31
338.517	20.82
338.729	29.01
338.942	-7.85
339.154	76.12
339.367	47.44
339.579	49.49
339.792	14.68
340.004	22.87
340.217	24.92
340.429	41.3
340.641	2.39
340.854	39.25
341.066	35.16
341.278	6.49
341.491	33.11
341.703	47.44
341.915	8.53
342.128	74.07
342.34	-13.99
342.552	16.73
342.764	65.88
342.977	-32.43
343.189	45.4
343.401	29.01
343.613	-28.33
343.826	14.68
344.038	39.25
344.25	-32.43
344.462	-36.52
344.674	10.58
344.886	26.96
345.099	-40.62
345.311	8.53
345.523	-1.71
345.735	16.73
345.947	67.92
346.159	-40.62
346.371	-34.47
346.583	10.58
346.795	84.31
347.007	22.87
347.219	51.54
347.431	-20.14
347.643	82.26
347.855	-42.67
348.067	61.78
348.279	47.44
348.491	35.16
348.703	82.26
348.915	39.25
349.127	-48.81
349.339	53.59
349.551	49.49
349.763	24.92
349.975	20.82
350.187	37.2
350.399	133.46
350.61	57.68
350.822	69.97
351.034	86.36
351.246	43.35
351.458	41.3
351.669	-11.95
351.881	43.35
352.093	69.97
352.305	33.11
352.517	125.27
352.728	106.84
352.94	65.88
353.152	84.31
353.363	-38.57
353.575	33.11
353.787	53.59
353.999	35.16
354.21	41.3
354.422	90.45
354.633	10.58
354.845	-52.91
355.057	69.97
355.268	82.26
355.48	76.12
355.692	-5.8
355.903	41.3
356.115	-5.8
356.326	-36.52
356.538	37.2
356.749	16.73
356.961	35.16
357.172	-22.19
357.384	10.58
357.595	170.32
357.807	96.6
358.018	65.88
358.23	49.49
358.441	57.68
358.653	-5.8
358.864	37.2
359.075	20.82
359.287	29.01
359.498	16.73
359.709	82.26
359.921	20.82
360.132	22.87
360.344	16.73
360.555	31.06
360.766	92.5
360.977	45.4
361.189	35.16
361.4	49.49
361.611	106.84
361.823	127.32
362.034	80.21
362.245	-34.47
362.456	45.4
362.667	57.68
362.879	22.87
363.09	20.82
363.301	4.44
363.512	-5.8
363.723	24.92
363.935	61.78
364.146	76.12
364.357	82.26
364.568	74.07
364.779	31.06
364.99	41.3
365.201	-16.04
365.412	33.11
365.623	26.96
365.834	78.16
366.045	24.92
366.256	106.84
366.467	16.73
366.678	20.82
366.889	43.35
367.1	-44.71
367.311	80.21
367.522	-77.48
367.733	45.4
367.944	92.5
368.155	53.59
368.366	166.23
368.577	80.21
368.788	35.16
368.999	49.49
369.209	29.01
369.42	78.16
369.631	76.12
369.842	-28.33
370.053	22.87
370.264	76.12
370.474	24.92
370.685	88.4
370.896	67.92
371.107	90.45
371.317	96.6
371.528	-22.19
371.739	96.6
371.95	82.26
372.16	-20.14
372.371	49.49
372.582	35.16
372.792	49.49
373.003	61.78
373.214	53.59
373.424	108.88
373.635	-13.99
373.846	63.83
374.056	63.83
374.267	41.3
374.477	88.4
374.688	26.96
374.898	45.4
375.109	33.11
375.319	41.3
375.53	92.5
375.74	47.44
375.951	26.96
376.161	26.96
376.372	86.36
376.582	-38.57
376.793	100.69
377.003	51.54
377.214	55.64
377.424	24.92
377.635	82.26
377.845	51.54
378.055	74.07
378.266	18.77
378.476	43.35
378.686	78.16
378.897	76.12
379.107	22.87
379.317	96.6
379.528	12.63
379.738	51.54
379.948	20.82
380.158	65.88
380.369	72.02
380.579	65.88
380.789	53.59
380.999	112.98
381.21	51.54
381.42	61.78
381.63	94.55
381.84	147.8
382.05	49.49
382.261	55.64
382.471	4.44
382.681	-11.95
382.891	55.64
383.101	-22.19
383.311	-16.04
383.521	69.97
383.731	57.68
383.941	94.55
384.151	65.88
384.361	39.25
384.571	117.08
384.781	74.07
384.991	112.98
385.201	65.88
385.411	37.2
385.621	24.92
385.831	-5.8
386.041	43.35
386.251	31.06
386.461	117.08
386.671	57.68
386.881	84.31
387.091	26.96
387.301	74.07
387.511	37.2
387.72	26.96
387.93	39.25
388.14	-32.43
388.35	39.25
388.56	74.07
388.769	43.35
388.979	37.2
389.189	69.97
389.399	4.44
389.609	41.3
389.818	78.16
390.028	49.49
390.238	92.5
390.447	0.34
390.657	43.35
390.867	51.54
391.076	67.92
391.286	86.36
391.496	72.02
391.705	53.59
391.915	57.68
392.125	72.02
392.334	22.87
392.544	53.59
392.753	18.77
392.963	35.16
393.172	90.45
393.382	14.68
393.591	155.99
393.801	33.11
394.01	69.97
394.22	117.08
394.429	18.77
394.639	51.54
394.848	76.12
395.058	47.44
395.267	0.34
395.477	160.08
395.686	61.78
395.895	110.93
396.105	78.16
396.314	33.11
396.524	12.63
396.733	84.31
396.942	18.77
397.152	137.56
397.361	153.94
397.57	78.16
397.78	72.02
397.989	135.51
398.198	123.22
398.407	155.99
398.617	98.64
398.826	135.51
399.035	90.45
399.244	51.54
399.453	65.88
399.663	74.07
399.872	108.88
400.081	121.17
400.29	143.7
400.499	110.93
400.708	90.45
400.917	-18.09
401.127	86.36
401.336	16.73
401.545	110.93
401.754	131.41
401.963	86.36
402.172	92.5
402.381	86.36
402.59	84.31
402.799	100.69
403.008	108.88
403.217	41.3
403.426	110.93
403.635	98.64
403.844	115.03
404.053	33.11
404.262	153.94
404.471	139.6
404.68	51.54
404.888	143.7
405.097	162.13
405.306	198.99
405.515	205.14
405.724	82.26
405.933	153.94
406.142	135.51
406.35	145.75
406.559	151.89
406.768	225.62
406.977	213.33
407.185	194.9
407.394	92.5
407.603	221.52
407.812	207.19
408.02	139.6
408.229	239.95
408.438	180.56
408.646	133.46
408.855	250.19
409.064	221.52
409.272	248.15
409.481	254.29
409.69	184.66
409.898	213.33
410.107	305.49
410.315	203.09
410.524	295.25
410.733	170.32
410.941	196.95
411.15	280.91
411.358	289.1
411.567	313.68
411.775	272.72
411.984	317.78
412.192	332.11
412.401	270.67
412.609	368.98
412.818	346.45
413.026	352.59
413.234	434.51
413.443	411.98
413.651	373.07
413.86	461.13
414.068	450.89
414.276	485.71
414.485	479.57
414.693	479.57
414.901	549.2
415.11	616.78
415.318	600.4
415.526	592.2
415.734	602.44
415.943	514.38
416.151	631.12
416.359	506.19
416.567	622.92
416.776	756.04
416.984	688.46
417.192	784.71
417.4	758.09
417.608	821.58
417.817	774.47
418.025	899.4
418.233	926.02
418.441	758.09
418.649	852.3
418.857	969.03
419.065	979.27
419.273	1003.85
419.481	977.22
419.689	1126.72
419.897	1139.01
420.105	1120.58
420.313	1296.71
420.521	1116.48
420.729	1288.51
420.937	1227.07
421.145	1395.01
421.353	1378.62
421.561	1390.91
421.769	1450.3
421.977	1603.9
422.185	1608
422.393	1651
422.601	1755.45
422.809	1653.05
423.017	1771.83
423.224	1837.37
423.432	1900.86
423.64	1810.75
423.848	2107.7
424.056	1984.82
424.263	2179.38
424.471	2212.15
424.679	2212.15
424.887	2441.52
425.094	2275.63
425.302	2371.89
425.51	2337.07
425.718	2550.06
425.925	2683.18
426.133	2621.74
426.341	2863.4
426.548	2867.5
426.756	2935.08
426.964	2904.36
427.171	3072.29
427.379	3303.71
427.586	3232.04
427.794	3326.24
428.001	3574.05
428.209	3733.79
428.417	3690.78
428.624	3948.83
428.832	3879.19
429.039	3801.37
429.247	3782.94
429.454	4229.4
429.662	4573.46
429.869	4395.28
430.076	4544.78
430.284	4555.02
430.491	4673.81
430.699	4903.18
430.906	4931.85
431.114	4974.86
431.321	5110.02
431.528	5105.93
431.736	5486.85
431.943	5755.13
432.15	5638.4
432.358	5728.51
432.565	6099.19
432.772	6062.33
432.979	6306.04
433.187	6359.28
433.394	6449.39
433.601	6799.6
433.808	6971.63
434.016	6848.75
434.223	7244.01
434.43	7694.56
434.637	7424.23
434.844	7915.74
435.052	8032.47
435.259	8116.44
435.466	8098.01
435.673	8073.43
435.88	8573.14
436.087	9040.08
436.294	9195.72
436.501	8978.64
436.708	8911.05
436.915	9220.3
437.122	9752.77
437.329	9932.99
437.537	9949.37
437.743	10150.07
437.95	10180.79
438.157	10721.46
438.364	10741.94
438.571	10834.1
438.778	10963.12
438.985	11989.15
439.192	11589.8
439.399	12009.63
439.606	11749.54
439.813	12486.81
440.02	13072.53
440.227	12990.61
440.433	12785.81
440.64	13301.9
440.847	13006.99
441.054	13719.68
441.261	14405.75
441.467	14168.19
441.674	14592.12
441.881	15114.35
442.088	15159.41
442.294	14960.75
442.501	15054.96
442.708	15532.14
442.914	16164.96
443.121	16965.71
443.328	16642.14
443.534	17862.72
443.741	17102.93
443.948	17010.77
444.154	17911.88
444.361	18004.03
444.568	18180.16
444.774	18034.75
444.981	18305.09
445.187	19015.73
445.394	19867.69
445.6	19542.06
445.807	21364.75
446.013	20363.29
446.22	20912.15
446.426	21600.27
446.633	21964.81
446.839	22489.09
447.046	21925.89
447.252	22798.33
447.459	22820.86
447.665	23005.17
447.871	23820.27
448.078	24942.55
448.284	23709.68
448.491	24412.13
448.697	25468.88
448.903	25966.54
449.11	25685.97
449.316	25591.76
449.522	26124.23
449.728	26886.08
449.935	27250.61
450.141	27064.25
450.347	27654.06
450.553	26845.12
450.76	26863.55
450.966	28176.3
451.172	27856.81
451.378	28282.79
451.584	28243.88
451.791	28944.28
451.997	28712.86
452.203	28932
452.409	28956.57
452.615	28899.23
452.821	27858.86
453.027	27586.48
453.233	29149.08
453.44	28151.72
453.646	28362.66
453.852	28712.86
454.058	28753.82
454.264	28006.31
454.47	28913.56
454.676	28049.32
454.882	29187.99
455.088	26605.5
455.294	26894.27
455.5	27303.86
455.705	27695.02
455.911	26437.57
456.117	25907.15
456.323	25853.9
456.529	24621.02
456.735	25540.56
456.941	24944.6
457.147	24549.34
457.352	23742.44
457.558	23535.6
457.764	23545.84
457.97	22974.45
458.176	22718.46
458.381	22628.35
458.587	21516.3
458.793	21577.74
458.999	20750.36
459.204	21751.82
459.41	21282.83
459.616	19802.15
459.821	19750.95
460.027	19910.69
460.233	19583.02
460.438	18415.68
460.644	18712.63
460.85	17821.77
461.055	17436.75
461.261	17485.9
461.466	16367.71
461.672	15978.59
461.878	16771.16
462.083	15771.75
462.289	15616.1
462.494	15347.82
462.7	14927.99
462.905	14039.17
463.111	14616.69
463.316	14743.67
463.522	14461.05
463.727	14530.68
463.932	14512.25
464.138	14252.16
464.343	14411.9
464.549	13846.66
464.754	14227.58
464.959	14223.48
465.165	14090.37
465.37	13557.89
465.575	13117.58
465.781	13559.94
465.986	13680.77
466.191	13338.76
466.397	12898.45
466.602	12392.6
466.807	12847.25
467.012	12884.11
467.218	12896.4
467.423	12656.79
467.628	12697.75
467.833	13398.15
468.038	12884.11
468.244	12509.33
468.449	12689.56
468.654	12693.65
468.859	12464.28
469.064	12138.65
469.269	11890.85
469.474	11913.38
469.679	12134.56
469.885	11911.33
470.09	11944.1
470.295	12030.11
470.5	11737.25
470.705	11651.24
470.91	11593.89
471.115	11307.18
471.32	11665.57
471.525	11528.36
471.73	11075.76
471.935	11315.37
472.139	10911.92
472.344	11114.67
472.549	10930.35
472.754	10625.2
472.959	10594.48
473.164	10395.83
473.369	10023.1
473.574	10571.96
473.778	10371.26
473.983	10311.86
474.188	10367.16
474.393	9912.51
474.598	9715.91
474.802	9683.14
475.007	9664.71
475.212	9885.89
475.417	9459.91
475.621	9355.46
475.826	9203.91
476.031	9183.43
476.235	9212.1
476.44	9150.67
476.645	8956.11
476.849	9017.55
477.054	8825.04
477.259	8827.09
477.463	8833.23
477.668	8511.7
477.872	8540.37
478.077	8415.44
478.282	8386.77
478.486	8257.75
478.691	8261.85
478.895	8249.56
479.1	8284.37
479.304	8118.49
479.509	7866.59
479.713	8259.8
479.918	7835.87
480.122	7686.37
480.326	7981.28
480.531	7944.41
480.735	7760.09
480.94	7829.73
481.144	7997.66
481.348	7487.72
481.553	7643.36
481.757	7436.52
481.961	7708.9
482.166	7645.41
482.37	7651.55
482.574	7491.81
482.778	7543.01
482.983	7647.46
483.187	7428.32
483.391	7686.37
483.595	7545.06
483.8	7569.63
484.004	7622.88
484.208	7692.51
484.412	7438.56
484.616	7594.21
484.821	7579.87
485.025	7311.59
485.229	7620.83
485.433	7409.89
485.637	7481.57
485.841	7446.76
486.045	7483.62
486.249	7536.87
486.453	7557.35
486.657	7473.38
486.861	7620.83
487.065	7293.16
487.269	7350.5
487.473	7530.72
487.677	7469.28
487.881	7688.42
488.085	7411.94
488.289	7610.59
488.493	7489.76
488.697	7610.59
488.901	7559.39
489.105	7674.08
489.309	7563.49
489.512	7583.97
489.716	7565.54
489.92	7606.5
490.124	7614.69
490.328	7557.35
490.531	7698.66
490.735	7770.33
490.939	7545.06
491.143	7559.39
491.346	7600.35
491.55	7889.12
491.754	7911.64
491.958	8059.1
492.161	7923.93
492.365	7858.4
492.569	8282.33
492.772	7938.27
492.976	8149.21
493.18	8095.96
493.383	8071.39
493.587	8337.62
493.79	8446.16
493.994	7993.56
494.197	8249.56
494.401	8304.85
494.605	8327.38
494.808	8487.12
495.012	8513.75
495.215	8650.96
495.419	8794.32
495.622	8667.35
495.825	8786.13
496.029	8833.23
496.232	9048.27
496.436	8845.52
496.639	9228.49
496.843	9158.86
497.046	9208.01
497.249	9283.78
497.453	9332.93
497.656	9539.78
497.859	9558.21
498.063	9683.14
498.266	9943.23
498.469	9775.3
498.673	10059.96
498.876	9945.28
499.079	10113.21
499.282	10102.97
499.485	10256.57
499.689	10410.17
499.892	10608.82
500.095	10727.6
500.298	10811.57
500.501	10973.36
500.705	11098.28
500.908	11061.42
501.111	11423.91
501.314	11464.87
501.517	11626.66
501.72	11757.73
501.923	11563.17
502.126	12060.83
502.329	12083.36
502.532	12126.36
502.735	12261.53
502.938	12644.5
503.141	12585.11
503.344	12914.83
503.547	12779.67
503.75	13174.92
503.953	13181.07
504.156	13344.91
504.359	13535.37
504.562	13574.28
504.765	13854.85
504.968	13707.4
505.17	13936.77
505.373	13936.77
505.576	14344.31
505.779	14426.23
505.982	14692.47
506.185	14608.5
506.387	14725.24
506.59	14917.75
506.793	15300.72
506.996	15405.16
507.198	15585.38
507.401	15542.38
507.604	15491.18
507.807	16093.28
508.009	16011.36
508.212	16437.34
508.415	16558.17
508.617	16769.11
508.82	16715.86
509.022	16719.96
509.225	17203.28
509.428	17487.95
509.63	17418.32
509.833	17729.61
510.035	18192.45
510.238	17868.87
510.44	17852.48
510.643	18473.02
510.845	18825.27
511.048	18532.41
511.25	19136.56
511.453	18923.57
511.655	19701.8
511.858	19367.98
512.06	19511.34
512.262	19779.62
512.465	19970.08
512.667	20058.15
512.87	20437.02
513.072	20684.83
513.274	20856.86
513.477	20826.14
513.679	21110.8
513.881	21708.81
514.084	21731.34
514.286	21698.57
514.488	21956.61
514.69	22415.36
514.893	22503.42
515.095	22638.59
515.297	22687.74
515.499	22888.44
515.701	23263.22
515.904	23740.4
516.106	23527.41
516.308	23879.66
516.51	24201.19
516.712	24448.99
516.914	24387.55
517.116	24897.5
517.318	25044.95
517.52	25153.49
517.722	25429.97
517.925	25669.58
518.127	25886.67
518.329	25708.49
518.531	25661.39
518.733	26650.56
518.935	26509.25
519.136	26937.27
519.338	27420.59
519.54	27318.2
519.742	27652.02
519.944	27703.21
520.146	28155.82
520.348	28278.69
520.55	28567.46
520.752	28450.72
520.954	29190.04
521.155	28653.47
521.357	29407.12
521.559	29697.94
521.761	30099.34
521.963	30146.44
522.164	30171.02
522.366	30105.48
522.568	30601.09
522.77	30834.56
522.971	31201.15
523.173	30916.48
523.375	31371.13
523.576	31156.09
523.778	31549.3
523.98	31862.64
524.181	31915.89
524.383	31741.81
524.584	32464.74
524.786	32497.51
524.988	32384.87
525.189	32958.3
525.391	33167.2
525.592	33333.08
525.794	33443.67
525.995	33210.2
526.197	33843.02
526.398	33683.28
526.6	33785.68
526.801	34471.75
527.003	34279.24
527.204	34570.05
527.406	34469.7
527.607	34197.32
527.808	34783.04
528.01	34508.61
528.211	34508.61
528.412	35469.11
528.614	34928.45
528.815	35288.89
529.016	35608.37
529.218	34971.46
529.419	35505.98
529.62	35262.27
529.822	35505.98
530.023	35596.09
530.224	35716.92
530.425	35970.86
530.626	35659.57
530.828	35718.96
531.029	36357.93
531.23	36177.71
531.431	35684.15
531.632	36136.75
531.833	36624.17
532.035	36153.13
532.236	36169.52
532.437	36855.59
532.638	36173.61
532.839	36372.27
533.04	36445.99
533.241	36198.19
533.442	36757.28
533.643	37058.34
533.844	36788
534.045	36525.86
534.246	36273.96
534.447	36220.72
534.648	36312.88
534.849	36636.45
535.05	36658.98
535.251	36673.32
535.451	36566.82
535.652	36972.32
535.853	36634.41
536.054	36509.48
536.255	36753.19
536.456	36509.48
536.657	37164.83
536.857	36740.9
537.058	36620.07
537.259	37082.91
537.46	37080.86
537.66	36923.17
537.861	36769.57
538.062	36808.48
538.263	36706.09
538.463	36714.28
538.664	36863.78
538.865	37377.82
539.065	37064.48
539.266	36351.79
539.466	37089.06
539.667	36327.21
539.868	37488.41
540.068	36695.85
540.269	36910.88
540.469	36861.73
540.67	37087.01
540.87	36679.46
541.071	36704.04
541.271	37099.3
541.472	36603.69
541.672	36714.28
541.873	37039.9
542.073	36341.55
542.274	36708.13
542.474	36910.88
542.675	36534.06
542.875	36923.17
543.075	36951.84
543.276	36140.85
543.476	36900.64
543.676	36570.92
543.877	36613.93
544.077	36562.73
544.277	36652.84
544.478	36642.6
544.678	36788
544.878	36806.44
545.078	36759.33
545.279	36769.57
545.479	36505.38
545.679	36597.54
545.879	36282.16
546.079	36454.19
546.28	36052.78
546.48	36433.71
546.68	36720.42
546.88	36640.55
547.08	36296.49
547.28	36294.44
547.48	36486.95
547.68	36517.67
547.88	36054.83
548.081	36570.92
548.281	36480.81
548.481	36183.85
548.681	37003.04
548.881	36499.24
549.081	36251.44
549.28	36093.74
549.48	36368.17
549.68	35989.3
549.88	36902.69
550.08	36355.88
550.28	36529.96
550.48	36376.36
550.68	36699.94
550.88	35991.34
551.08	36060.98
551.279	36450.09
551.479	35755.83
551.679	36245.29
551.879	36243.24
552.079	36382.51
552.278	35856.18
552.478	35956.53
552.678	36472.62
552.878	36575.02
553.077	35630.9
553.277	36155.18
553.477	36278.06
553.676	36398.89
553.876	36144.94
554.076	35673.91
554.275	35886.9
554.475	35575.61
554.674	36089.65
554.874	35936.05
555.074	35876.66
555.273	35657.53
555.473	35823.41
555.672	35368.76
555.872	35721.01
556.071	35792.69
556.271	36167.47
556.47	35678
556.67	35729.2
556.869	35909.43
557.068	35790.64
557.268	35411.77
557.467	35448.63
557.667	35542.84
557.866	35325.75
558.065	35444.54
558.265	35098.43
558.464	35235.64
558.663	35335.99
558.863	34983.74
559.062	35721.01
559.261	35100.48
559.461	35499.83
559.66	34864.96
559.859	35157.82
560.058	34537.29
560.258	35055.42
560.457	34418.5
560.656	34791.23
560.855	34412.36
561.054	34625.35
561.253	34232.14
561.453	34557.77
561.652	34633.54
561.851	34455.37
562.05	34287.43
562.249	34152.27
562.448	34492.23
562.647	34316.11
562.846	34234.19
563.045	33984.33
563.244	33935.18
563.443	33863.5
563.642	33531.73
563.841	33808.21
564.04	33646.42
564.239	34146.12
564.438	33679.19
564.637	33425.24
564.836	33718.1
565.035	33361.75
565.234	33605.46
565.432	33109.85
565.631	33255.26
565.83	33212.25
566.029	33474.39
566.228	33027.93
566.427	32898.91
566.625	33011.55
566.824	32692.07
567.023	32751.46
567.222	32407.4
567.42	32714.59
567.619	32649.06
567.818	32323.43
568.016	32169.83
568.215	32665.44
568.414	32462.69
568.612	32765.79
568.811	31948.65
569.01	31930.22
569.208	31532.92
569.407	32149.35
569.605	31883.12
569.804	32192.36
570.002	31782.77
570.201	31895.41
570.4	31537.01
570.598	31240.06
570.797	31180.67
570.995	31731.57
571.193	31260.54
571.392	31627.12
571.59	31004.54
571.789	31166.33
571.987	31117.18
572.186	30678.91
572.384	30402.44
572.582	30721.92
572.781	30734.21
572.979	30306.18
573.177	30478.21
573.376	30543.75
573.574	30146.44
573.772	30150.54
573.971	30349.19
574.169	29843.34
574.367	29902.73
574.565	30189.45
574.763	29876.11
574.962	30011.28
575.16	29353.88
575.358	29628.31
575.556	29097.88
575.754	29730.7
575.952	29441.94
576.151	29792.14
576.349	28676
576.547	28958.62
576.745	29233.05
576.943	28995.48
577.141	29048.73
577.339	29134.74
577.537	28929.95
577.735	28852.13
577.933	28628.9
578.131	28825.5
578.329	28518.31
578.527	28483.49
578.725	28446.63
578.923	28237.73
579.121	28096.42
579.319	28270.5
579.516	28159.91
579.714	28133.29
579.912	27684.78
580.11	27940.78
580.308	28340.13
580.506	27785.13
580.704	27461.55
580.901	27738.03
581.099	27561.9
581.297	27527.09
581.495	27424.69
581.692	27488.18
581.89	27262.9
582.088	27385.78
582.285	26888.12
582.483	27570.1
582.681	26961.85
582.878	26632.13
583.076	26845.12
583.274	27076.54
583.471	26525.63
583.669	26636.22
583.866	26570.69
584.064	26578.88
584.262	26210.25
584.459	26316.74
584.657	26302.4
584.854	26382.27
585.052	25843.66
585.249	26261.44
585.447	26298.31
585.644	25782.22
585.841	26001.35
586.039	26157
586.236	25812.94
586.434	25683.92
586.631	25567.18
586.828	25489.36
587.026	25587.66
587.223	25014.23
587.42	25411.54
587.618	25399.25
587.815	25216.98
588.012	24967.13
588.21	25036.76
588.407	25167.83
588.604	24752.09
588.801	24911.83
588.999	24831.96
589.196	24618.97
589.393	24487.9
589.59	24395.75
589.787	24836.06
589.984	24240.1
590.182	24340.45
590.379	24514.53
590.576	23965.67
590.773	24213.48
590.97	23758.83
591.167	23871.47
591.364	23742.44
591.561	24012.77
591.758	23740.4
591.955	23875.56
592.152	23511.02
592.349	23144.44
592.546	23826.41
592.743	23179.25
592.94	23230.45
593.137	23425.01
593.334	23941.1
593.531	23001.08
593.727	23298.03
593.924	23146.48
594.121	22978.55
594.318	23064.57
594.515	22808.57
594.712	23226.35
594.908	22681.6
595.105	22806.52
595.302	22472.7
595.499	22591.48
595.696	22423.55
595.892	22185.99
596.089	22462.46
596.286	22497.28
596.482	22374.4
596.679	22337.54
596.876	22218.75
597.072	22005.77
597.269	22128.64
597.466	21893.13
597.662	21796.87
597.859	21788.68
598.055	21807.11
598.252	21757.96
598.448	21676.04
598.645	21323.79
598.841	21364.75
599.038	21409.81
599.234	21456.91
599.431	21231.63
599.627	21364.75
599.824	21413.9
600.02	21022.74
600.217	20928.53
600.413	20844.57
600.609	20717.59
600.806	20873.24
601.002	20865.05
601.198	20789.27
601.395	20520.99
601.591	20787.22
601.787	20686.87
601.984	20316.19
602.18	20373.53
602.376	20430.88
602.572	20107.3
602.769	20310.05
602.965	19953.7
603.161	20154.4
603.357	19951.65
603.553	20121.63
603.75	19957.8
603.946	19793.96
604.142	19953.7
604.338	19789.86
604.534	19892.26
604.73	19234.86
604.926	19503.15
605.122	19642.41
605.318	19554.35
605.514	19243.06
605.71	19204.14
605.906	19247.15
606.102	19068.98
606.298	19206.19
606.494	19025.97
606.69	19404.85
606.886	19228.72
607.082	18726.97
607.278	18999.35
607.474	19034.16
607.67	19023.92
607.866	18626.62
608.062	18966.58
608.257	18712.63
608.453	18462.78
608.649	18669.62
608.845	18255.93
609.041	18716.73
609.236	18524.22
609.432	18370.62
609.628	18516.03
609.824	18335.81
610.019	18370.62
610.215	18335.81
610.411	18315.33
610.606	18180.16
610.802	18413.63
610.998	18186.3
611.193	18020.42
611.389	17961.03
611.584	17762.37
611.78	17979.46
611.976	17905.73
612.171	17985.6
612.367	18106.43
612.562	17807.43
612.758	17649.74
612.953	17578.06
613.149	17870.92
613.344	17473.61
613.539	17913.92
613.735	17702.98
613.93	17729.61
614.126	17549.39
614.321	17526.86
614.517	17483.85
614.712	17231.95
614.907	17111.12
615.103	17481.8
615.298	17598.54
615.493	17573.96
615.688	17201.23
615.884	17717.32
616.079	17135.7
616.274	17367.12
616.47	17104.98
616.665	16988.24
616.86	17000.53
617.055	16881.75
617.25	16994.39
617.445	17080.4
617.641	16760.92
617.836	16863.32
618.031	16773.21
618.226	16635.99
618.421	16590.94
618.616	16863.32
618.811	16261.21
619.006	16547.93
619.201	16320.6
619.396	16652.38
619.591	16273.5
619.786	16343.13
619.981	16003.17
620.176	16289.88
620.371	15911.01
620.566	16244.83
620.761	16019.55
620.956	16040.03
621.151	15898.72
621.346	15609.96
621.541	15528.04
621.735	15659.11
621.93	15407.21
622.125	15327.34
622.32	15216.75
622.515	15218.8
622.709	15077.49
622.904	15310.96
623.099	15208.56
623.294	15296.62
623.488	14682.23
623.683	14811.25
623.878	14573.69
624.072	14565.5
624.267	14540.92
624.462	14428.28
624.656	14454.9
624.851	14409.85
625.046	14336.12
625.24	14286.97
625.435	14280.83
625.629	13926.53
625.824	13959.3
626.018	14022.78
626.213	13695.11
626.407	13734.02
626.602	13527.17
626.796	13809.79
626.991	13480.07
627.185	13539.46
627.38	13367.43
627.574	13346.95
627.768	13334.67
627.963	12916.88
628.157	13054.09
628.352	13101.2
628.546	12828.82
628.74	13242.51
628.935	12873.87
629.129	12652.69
629.323	12583.06
629.517	12566.68
629.712	12490.9
629.906	12490.9
630.1	12288.15
630.294	12212.38
630.489	12300.44
630.683	12398.74
630.877	12306.59
631.071	12189.85
631.265	12376.22
631.459	11868.32
631.653	11950.24
631.848	11749.54
632.042	11956.38
632.236	11729.06
632.43	11743.39
632.624	11614.37
632.818	11655.33
633.012	11346.09
633.206	11600.04
633.4	11321.51
633.594	11137.2
633.788	11473.06
633.982	11298.98
634.176	11176.11
634.369	10944.69
634.563	10954.93
634.757	10895.54
634.951	11110.57
635.145	11010.22
635.339	10748.08
635.533	10678.45
635.726	10813.62
635.92	10786.99
636.114	10805.42
636.308	10565.81
636.501	10643.63
636.695	10432.69
636.889	10539.19
637.083	10367.16
637.276	10223.8
637.47	10141.88
637.664	10242.23
637.857	10123.45
638.051	10250.42
638.244	9957.57
638.438	9976
638.632	9902.27
638.825	9818.3
639.019	9851.07
639.212	9801.92
639.406	9736.38
639.599	9617.6
639.793	9683.14
639.986	9529.54
640.18	9676.99
640.373	9476.29
640.567	9322.7
640.76	9263.3
640.954	9263.3
641.147	9285.83
641.34	9261.26
641.534	9113.8
641.727	9058.51
641.92	9210.06
642.114	9083.08
642.307	8995.02
642.5	9081.03
642.694	8788.18
642.887	8835.28
643.08	8835.28
643.273	8816.85
643.467	8796.37
643.66	8487.12
643.853	8431.83
644.046	8532.18
644.239	8550.61
644.432	8448.21
644.626	8421.59
644.819	8370.39
645.012	8419.54
645.205	8515.8
645.398	8290.52
645.591	8210.65
645.784	8298.71
645.977	8130.78
646.17	8036.57
646.363	8028.38
646.556	8083.67
646.749	8093.91
646.942	8036.57
647.135	7930.08
647.328	7858.4
647.521	7885.02
647.714	7715.04
647.907	8118.49
648.099	7538.91
648.292	7532.77
648.485	7497.95
648.678	7500
648.871	7317.73
649.064	7457
649.256	7457
649.449	7336.17
649.642	7317.73
649.835	7244.01
650.027	7305.45
650.22	7381.22
650.413	7237.86
650.605	7235.81
650.798	7016.68
650.991	7061.74
651.183	7090.41
651.376	7014.63
651.568	6942.96
651.761	6902
651.954	6985.96
652.146	6910.19
652.339	6768.88
652.531	6815.98
652.724	6684.91
652.916	6652.14
653.109	6596.85
653.301	6746.35
653.494	6648.05
653.686	6568.18
653.879	6654.19
654.071	6617.33
654.263	6508.79
654.456	6281.46
654.648	6402.29
654.84	6349.04
655.033	6420.72
655.225	6291.7
655.417	6363.38
655.61	6127.86
655.802	6109.43
655.994	6193.4
656.186	6189.3
656.379	6177.02
656.571	6138.1
656.763	6060.28
656.955	6029.56
657.148	6080.76
657.34	5957.88
657.532	5744.89
657.724	5961.98
657.916	5957.88
658.108	5699.84
658.3	5763.33
658.492	5818.62
658.684	5728.51
658.876	5662.97
659.068	5673.21
659.26	5699.84
659.452	5495.04
659.644	5476.61
659.836	5669.12
660.028	5460.23
660.22	5406.98
660.412	5583.1
660.604	5499.14
660.796	5386.5
660.988	5327.11
661.18	5232.9
661.372	5370.12
661.563	5232.9
661.755	5200.13
661.947	5275.91
662.139	5300.48
662.331	5146.89
662.522	5062.92
662.714	5062.92
662.906	5054.73
663.097	5052.68
663.289	5099.78
663.481	4931.85
663.673	4954.38
663.864	5062.92
664.056	4923.66
664.247	4806.92
664.439	4888.84
664.631	4999.43
664.822	4800.78
665.014	4919.56
665.205	4845.84
665.397	4868.36
665.588	4884.75
665.78	4632.85
665.971	4686.09
666.163	4870.41
666.354	4522.26
666.546	4686.09
666.737	4518.16
666.929	4557.07
667.12	4686.09
667.311	4540.69
667.503	4446.48
667.694	4528.4
667.885	4280.6
668.077	4530.45
668.268	4477.2
668.459	4249.88
668.651	4432.15
668.842	4327.7
669.033	4350.23
669.224	4415.76
669.416	4278.55
669.607	4344.08
669.798	4210.97
669.989	4358.42
670.18	4301.08
670.371	4208.92
670.563	4147.48
670.754	4180.25
670.945	4141.33
671.136	4151.57
671.327	4092.18
671.518	4206.87
671.709	4153.62
671.9	4047.13
672.091	4061.46
672.282	4079.9
672.473	3997.98
672.664	4088.09
672.855	3850.52
673.046	3975.45
673.237	3938.59
673.428	3987.74
673.619	3782.94
673.809	3907.87
674	3926.3
674.191	3856.67
674.382	3705.12
674.573	3717.4
674.764	3809.56
674.954	3768.6
675.145	3813.66
675.336	3832.09
675.527	3711.26
675.717	3846.43
675.908	3670.3
676.099	3780.89
676.289	3752.22
676.48	3698.97
676.671	3541.28
676.861	3582.24
677.052	3496.22
677.243	3463.46
677.433	3549.47
677.624	3582.24
677.814	3668.25
678.005	3555.62
678.195	3485.98
678.386	3602.72
678.576	3512.61
678.767	3496.22
678.957	3479.84
679.148	3440.93
679.338	3469.6
679.529	3578.14
679.719	3369.25
679.909	3500.32
680.1	3363.11
680.29	3301.67
680.481	3369.25
680.671	3447.07
680.861	3205.41
681.052	3420.45
681.242	3285.28
681.432	3342.63
681.622	3252.52
681.813	3211.56
682.003	3295.52
682.193	3248.42
682.383	3262.76
682.573	3293.48
682.764	3279.14
682.954	3180.84
683.144	3303.71
683.334	3227.94
683.524	3060.01
683.714	3248.42
683.904	3197.22
684.094	3193.12
684.284	3092.77
684.474	3098.92
684.664	3164.45
684.854	3246.37
685.044	3152.17
685.234	3180.84
685.424	3113.25
685.614	2965.8
685.804	3105.06
685.994	3049.77
686.184	3113.25
686.374	3082.53
686.564	2941.22
686.753	2980.14
686.943	2902.31
687.133	3014.95
687.323	3139.88
687.513	3082.53
687.702	2914.6
687.892	2896.17
688.082	2971.94
688.272	2998.57
688.461	2937.13
688.651	2947.37
688.841	2992.42
689.03	2838.83
689.22	2924.84
689.41	2834.73
689.599	2826.54
689.789	2877.74
689.979	2922.79
690.168	2881.83
690.358	2707.76
690.547	2842.92
690.737	2910.5
690.926	2834.73
691.116	2836.78
691.305	2746.67
691.495	2804.01
691.684	2679.08
691.874	2699.56
692.063	2828.59
692.252	2656.56
692.442	2662.7
692.631	2679.08
692.82	2691.37
693.01	2773.29
693.199	2658.6
693.388	2539.82
693.578	2599.21
693.767	2556.21
693.956	2709.8
694.146	2631.98
694.335	2556.21
694.524	2523.44
694.713	2701.61
694.902	2527.53
695.092	2619.69
695.281	2578.73
695.47	2494.77
695.659	2642.22
695.848	2402.61
696.037	2535.73
696.226	2496.82
696.415	2564.4
696.604	2572.59
696.793	2502.96
696.982	2525.49
697.171	2591.02
697.36	2509.1
697.549	2562.35
697.738	2402.61
697.927	2435.38
698.116	2484.53
698.305	2621.74
698.494	2486.58
698.683	2410.8
698.872	2462
699.061	2543.92
699.25	2443.57
699.438	2406.7
699.627	2398.51
699.816	2412.85
700.005	2406.7
700.193	2457.9
700.382	2404.66
700.571	2414.9
700.76	2431.28
700.948	2511.15
701.137	2429.23
701.326	2457.9
701.514	2431.28
701.703	2355.51
701.892	2416.94
702.08	2459.95
702.269	2441.52
702.457	2343.22
702.646	2416.94
702.834	2416.94
703.023	2470.19
703.212	2361.65
703.4	2451.76
703.589	2347.31
703.777	2404.66
703.965	2447.66
704.154	2425.14
704.342	2304.31
704.531	2437.42
704.719	2421.04
704.907	2337.07
705.096	2427.18
705.284	2439.47
705.472	2437.42
705.661	2451.76
705.849	2412.85
706.037	2359.6
706.226	2322.74
706.414	2414.9
706.602	2388.27
706.79	2437.42
706.979	2253.11
707.167	2396.46
707.355	2386.22
707.543	2382.13
707.731	2402.61
707.919	2423.09
708.107	2394.42
708.296	2361.65
708.484	2339.12
708.672	2343.22
708.86	2349.36
709.048	2378.03
709.236	2328.88
709.424	2341.17
709.612	2400.56
709.8	2236.72
709.988	2369.84
710.176	2255.15
710.364	2310.45
710.551	2302.26
710.739	2265.39
710.927	2388.27
711.115	2332.98
711.303	2371.89
711.491	2392.37
711.679	2259.25
711.866	2380.08
712.054	2414.9
712.242	2339.12
712.43	2380.08
712.617	2300.21
712.805	2357.55
712.993	2345.27
713.181	2294.07
713.368	2380.08
713.556	2365.75
713.744	2261.3
713.931	2388.27
714.119	2302.26
714.306	2330.93
714.494	2304.31
714.682	2339.12
714.869	2197.81
715.057	2165.04
715.244	2326.83
715.432	2267.44
715.619	2347.31
715.807	2351.41
715.994	2173.24
716.182	2255.15
716.369	2292.02
716.556	2380.08
716.744	2314.55
716.931	2175.28
717.119	2361.65
717.306	2310.45
717.493	2271.54
717.681	2181.43
717.868	2326.83
718.055	2322.74
718.242	2386.22
718.43	2398.51
718.617	2308.4
718.804	2275.63
718.991	2292.02
719.179	2328.88
719.366	2394.42
719.553	2181.43
719.74	2289.97
719.927	2281.78
720.114	2165.04
720.301	2345.27
720.488	2181.43
720.676	2283.83
720.863	2244.92
721.05	2363.7
721.237	2191.67
721.424	2355.51
721.611	2265.39
721.798	2201.91
721.985	2302.26
722.172	2148.66
722.358	2228.53
722.545	2289.97
722.732	2281.78
722.919	2236.72
723.106	2281.78
723.293	2302.26
723.48	2310.45
723.667	2201.91
723.853	2296.11
724.04	2328.88
724.227	2332.98
724.414	2283.83
724.6	2167.09
724.787	2253.11
724.974	2265.39
725.161	2185.52
725.347	2271.54
725.534	2179.38
725.72	2197.81
725.907	2277.68
726.094	2287.92
726.28	2234.68
726.467	2144.56
726.653	2332.98
726.84	2306.35
727.027	2326.83
727.213	2238.77
727.4	2212.15
727.586	2218.29
727.773	2302.26
727.959	2197.81
728.145	2300.21
728.332	2238.77
728.518	2187.57
728.705	2302.26
728.891	2146.61
729.077	2289.97
729.264	2160.95
729.45	2158.9
729.636	2378.03
729.823	2212.15
730.009	2269.49
730.195	2244.92
730.382	2238.77
730.568	2232.63
730.754	2238.77
730.94	2203.96
731.126	2398.51
731.313	2212.15
731.499	2294.07
731.685	2165.04
731.871	2292.02
732.057	2255.15
732.243	2216.24
732.429	2236.72
732.615	2203.96
732.801	2048.31
732.987	2181.43
733.173	2187.57
733.359	2146.61
733.545	2275.63
733.731	2144.56
733.917	2294.07
734.103	2304.31
734.289	2181.43
734.475	2160.95
734.661	2146.61
734.847	2275.63
735.033	2136.37
735.219	2122.04
735.404	2138.42
735.59	2210.1
735.776	2158.9
735.962	2332.98
736.148	2093.37
736.333	2179.38
736.519	2163
736.705	2083.13
736.89	2228.53
737.076	2230.58
737.262	2136.37
737.447	2210.1
737.633	2083.13
737.819	2154.8
738.004	2230.58
738.19	2095.41
738.375	2146.61
738.561	2046.26
738.747	2103.61
738.932	2007.35
739.118	2185.52
739.303	2089.27
739.489	2099.51
739.674	2064.69
739.859	2109.75
740.045	2122.04
740.23	1935.67
740.416	2081.08
740.601	2056.5
740.786	2083.13
740.972	1943.86
741.157	1976.63
741.342	2005.3
741.528	2007.35
741.713	1982.78
741.898	2056.5
742.084	1950.01
742.269	2021.69
742.454	1917.24
742.639	2042.17
742.824	2062.65
743.01	2081.08
743.195	2101.56
743.38	1843.51
743.565	1970.49
743.75	1933.62
743.935	1927.48
744.12	1962.3
744.305	1964.34
744.49	1868.09
744.675	1868.09
744.86	1937.72
745.045	1812.79
745.23	1851.71
745.415	1814.84
745.6	1900.86
745.785	1835.32
745.97	1933.62
746.155	1870.14
746.34	1868.09
746.525	1780.03
746.71	1863.99
746.895	1790.27
747.079	1825.08
747.264	1751.35
747.449	1837.37
747.634	1751.35
747.819	1876.28
748.003	1710.4
748.188	1665.34
748.373	1753.4
748.557	1712.44
748.742	1673.53
748.927	1732.92
749.111	1777.98
749.296	1730.87
749.481	1673.53
749.665	1618.24
749.85	1612.09
750.034	1622.33
750.219	1638.72
750.404	1546.56
750.588	1642.81
750.773	1651
750.957	1599.8
751.141	1542.46
751.326	1540.41
751.51	1515.84
751.695	1554.75
751.879	1501.5
752.064	1487.17
752.248	1456.45
752.432	1534.27
752.617	1575.23
752.801	1556.8
752.985	1433.92
753.17	1540.41
753.354	1474.88
753.538	1468.73
753.722	1558.85
753.907	1339.71
754.091	1464.64
754.275	1552.7
754.459	1413.44
754.643	1360.19
754.828	1433.92
755.012	1399.1
755.196	1345.86
755.38	1376.58
755.564	1296.71
755.748	1341.76
755.932	1249.6
756.116	1380.67
756.3	1339.71
756.484	1311.04
756.668	1335.62
756.852	1263.94
757.036	1249.6
757.22	1218.88
757.404	1274.18
757.588	1225.03
757.772	1298.75
757.956	1134.92
758.14	1290.56
758.323	1239.36
758.507	1296.71
758.691	1200.45
758.875	1184.07
759.059	1130.82
759.242	1177.92
759.426	1161.54
759.61	1145.16
759.794	1204.55
759.977	1145.16
760.161	1132.87
760.345	1120.58
760.528	1190.21
760.712	1108.29
760.895	1083.72
761.079	1139.01
761.263	1096
761.446	1098.05
761.63	1083.72
761.813	1089.86
761.997	1145.16
762.18	1116.48
762.364	1091.91
762.547	952.65
762.731	975.17
762.914	1030.47
763.098	1044.81
763.281	1003.85
763.464	1110.34
763.648	1036.61
763.831	1091.91
764.015	1044.81
764.198	1071.43
764.381	1036.61
764.564	1007.94
764.748	979.27
764.931	1030.47
765.114	964.93
765.297	985.41
765.481	1048.9
765.664	1024.33
765.847	1053
766.03	1034.57
766.213	840.01
766.397	987.46
766.58	964.93
766.763	911.69
766.946	979.27
767.129	969.03
767.312	993.61
767.495	944.45
767.678	917.83
767.861	1048.9
768.044	911.69
768.227	899.4
768.41	878.92
768.593	956.74
768.776	956.74
768.959	887.11
769.142	977.22
769.324	958.79
769.507	1009.99
769.69	911.69
769.873	897.35
770.056	930.12
770.239	942.41
770.421	868.68
770.604	979.27
770.787	829.77
770.97	827.72
771.152	946.5
771.335	842.06
771.518	835.91
771.7	928.07
771.883	819.53
772.066	928.07
772.248	817.48
772.431	833.86
772.613	819.53
772.796	887.11
772.978	794.95
773.161	794.95
773.343	844.1
773.526	686.41
773.708	823.62
773.891	780.62
774.073	797
774.256	807.24
774.438	919.88
774.621	743.75
774.803	770.38
774.985	725.32
775.168	846.15
775.35	803.15
775.532	747.85
775.715	749.9
775.897	627.02
776.079	753.99
776.261	780.62
776.444	698.7
776.626	706.89
776.808	708.94
776.99	704.84
777.173	719.18
777.355	686.41
777.537	704.84
777.719	715.08
777.901	622.92
778.083	676.17
778.265	647.5
778.447	667.98
778.629	606.54
778.811	674.12
778.993	659.79
779.175	555.34
779.357	667.98
779.539	612.68
779.721	655.69
779.903	624.97
780.085	649.55
780.267	667.98
780.449	631.12
780.631	663.88
780.812	606.54
780.994	577.87
781.176	557.39
781.358	495.95
781.54	565.58
781.721	561.48
781.903	553.29
782.085	575.82
782.267	471.37
782.448	588.11
782.63	534.86
782.812	516.43
782.993	577.87
783.175	596.3
783.357	547.15
783.538	524.62
783.72	516.43
783.901	465.23
784.083	557.39
784.264	487.76
784.446	485.71
784.627	463.18
784.809	565.58
784.99	477.52
785.172	450.89
785.353	461.13
785.535	463.18
785.716	514.38
785.897	502.09
786.079	491.85
786.26	422.22
786.441	479.57
786.623	403.79
786.804	485.71
786.985	411.98
787.167	403.79
787.348	405.84
787.529	426.32
787.71	446.8
787.891	442.7
788.073	407.89
788.254	411.98
788.435	407.89
788.616	442.7
788.797	428.37
788.978	352.59
789.159	393.55
789.34	401.74
789.522	411.98
789.703	420.17
789.884	360.78
790.065	368.98
790.246	440.65
790.427	450.89
790.607	434.51
790.788	323.92
790.969	373.07
791.15	381.26
791.331	348.5
791.512	418.13
791.693	373.07
791.874	303.44
792.054	405.84
792.235	391.5
792.416	377.17
792.597	299.34
792.778	387.41
792.958	397.65
793.139	338.26
793.32	393.55
793.5	418.13
793.681	330.06
793.862	250.19
794.042	354.64
794.223	354.64
794.404	287.06
794.584	319.82
794.765	319.82
794.945	303.44
795.126	389.46
795.306	328.02
795.487	340.3
795.667	297.3
795.848	268.63
796.028	231.76
796.209	311.63
796.389	350.54
796.57	301.39
796.75	287.06
796.93	340.3
797.111	262.48
797.291	282.96
797.471	264.53
797.652	323.92
797.832	270.67
798.012	209.23
798.192	342.35
798.373	303.44
798.553	254.29
798.733	360.78
798.913	330.06
799.093	354.64
799.274	323.92
799.454	254.29
799.634	299.34
799.814	287.06
799.994	258.39
800.174	233.81
800.354	231.76
800.534	231.76
800.714	256.34
800.894	192.85
801.074	280.91
801.254	239.95
801.434	264.53
801.614	229.71
801.794	270.67
801.974	729.42
802.154	205.14
802.334	270.67
802.514	268.63
802.693	254.29
802.873	254.29
803.053	174.42
803.233	282.96
803.413	248.15
803.592	254.29
803.772	244.05
803.952	252.24
804.131	270.67
804.311	248.15
804.491	272.72
804.67	190.8
804.85	129.36
805.03	311.63
805.209	250.19
805.389	217.43
805.568	211.28
805.748	180.56
805.928	213.33
806.107	219.47
806.287	205.14
806.466	227.67
806.646	151.89
806.825	196.95
807.004	235.86
807.184	180.56
807.363	248.15
807.543	235.86
807.722	155.99
807.901	211.28
808.081	182.61
808.26	98.64
808.439	158.03
808.619	139.6
808.798	196.95
808.977	139.6
809.156	242
809.336	219.47
809.515	221.52
809.694	147.8
809.873	160.08
810.052	231.76
810.231	254.29
810.411	213.33
810.59	235.86
810.769	149.84
810.948	184.66
811.127	137.56
811.306	201.04
811.485	153.94
811.664	158.03
811.843	115.03
812.022	184.66
812.201	131.41
812.38	96.6
812.559	151.89
812.737	174.42
812.916	96.6
813.095	155.99
813.274	188.75
813.453	272.72
813.632	98.64
813.811	133.46
813.989	123.22
814.168	215.38
814.347	149.84
814.526	237.91
814.704	237.91
814.883	215.38
815.062	106.84
815.24	149.84
815.419	96.6
815.598	110.93
815.776	141.65
815.955	178.51
816.133	112.98
816.312	151.89
816.49	170.32
816.669	178.51
816.847	217.43
817.026	207.19
817.204	115.03
817.383	164.18
817.561	147.8
817.74	201.04
817.918	176.47
818.097	155.99
818.275	137.56
818.453	174.42
818.632	98.64
818.81	135.51
818.988	139.6
819.167	172.37
819.345	239.95
819.523	123.22
819.701	192.85
819.879	141.65
820.058	141.65
820.236	145.75
820.414	123.22
820.592	229.71
820.77	123.22
820.948	104.79
821.127	117.08
821.305	147.8
821.483	90.45
821.661	123.22
821.839	86.36
822.017	69.97
822.195	119.12
822.373	94.55
822.551	164.18
822.729	166.23
822.907	125.27
823.085	131.41
823.262	96.6
823.44	115.03
823.618	174.42
823.796	69.97
823.974	53.59
824.152	100.69
824.329	86.36
824.507	155.99
824.685	92.5
824.863	131.41
825.04	-5.8
825.218	43.35
825.396	143.7
825.574	110.93
825.751	37.2
825.929	127.32
826.107	100.69
826.284	100.69
826.462	151.89
826.639	155.99
826.817	61.78
826.994	88.4
827.172	78.16
827.349	123.22
827.527	16.73
827.704	123.22
827.882	117.08
828.059	92.5
828.237	90.45
828.414	57.68
828.591	55.64
828.769	26.96
828.946	4.44
829.124	108.88
829.301	96.6
829.478	6.49
829.655	57.68
829.833	65.88
830.01	6.49
830.187	125.27
830.364	84.31
830.542	127.32
830.719	90.45
830.896	117.08
831.073	129.36
831.25	133.46
831.427	76.12
831.604	65.88
831.782	80.21
831.959	96.6
832.136	84.31
832.313	80.21
832.49	29.01
832.667	51.54
832.844	164.18
833.021	76.12
833.198	35.16
833.374	82.26
833.551	110.93
833.728	100.69
833.905	196.95
834.082	158.03
834.259	12.63
834.436	59.73
834.612	74.07
834.789	135.51
834.966	104.79
835.143	72.02
835.319	41.3
835.496	92.5
835.673	22.87
835.85	49.49
836.026	115.03
836.203	123.22
836.38	53.59
836.556	10.58
836.733	57.68
836.909	108.88
837.086	61.78
837.262	12.63
837.439	18.77
837.616	106.84
837.792	82.26
837.968	80.21
838.145	24.92
838.321	65.88
838.498	67.92
838.674	8.53
838.851	74.07
839.027	117.08
839.203	39.25
839.38	-3.75
839.556	35.16
839.732	143.7
839.909	67.92
840.085	88.4
840.261	4.44
840.437	61.78
840.614	8.53
840.79	106.84
840.966	59.73
841.142	86.36
841.318	35.16
841.494	86.36
841.671	65.88
841.847	55.64
842.023	61.78
842.199	57.68
842.375	51.54
842.551	-13.99
842.727	108.88
842.903	153.94
843.079	35.16
843.255	22.87
843.431	-16.04
843.607	100.69
843.783	10.58
843.959	67.92
844.134	-1.71
844.31	96.6
844.486	76.12
844.662	43.35
844.838	74.07
845.013	-16.04
845.189	123.22
845.365	12.63
845.541	76.12
845.716	92.5
845.892	-22.19
846.068	8.53
846.244	-32.43
846.419	102.74
846.595	57.68
846.77	59.73
846.946	92.5
847.122	35.16
847.297	59.73
847.473	82.26
847.648	45.4
847.824	76.12
847.999	-9.9
848.175	-11.95
848.35	96.6
848.526	59.73
848.701	10.58
848.876	92.5
849.052	22.87
849.227	82.26
849.403	137.56
849.578	37.2
849.753	29.01
849.929	59.73
850.104	4.44
850.279	80.21
850.454	-5.8
850.63	39.25
850.805	49.49
850.98	69.97
851.155	8.53
851.33	80.21
851.505	31.06
851.681	76.12
851.856	29.01
852.031	-24.23
852.206	-22.19
852.381	16.73
852.556	10.58
852.731	41.3
852.906	39.25
853.081	41.3
853.256	74.07
853.431	4.44
853.606	-16.04
853.781	16.73
853.956	96.6
854.131	37.2
854.305	98.64
854.48	84.31
854.655	31.06
854.83	26.96
855.005	2.39
855.18	53.59
855.354	39.25
855.529	47.44
855.704	26.96
855.879	18.77
856.053	26.96
856.228	37.2
856.403	6.49
856.577	69.97
856.752	0.34
856.926	112.98
857.101	98.64
857.276	26.96
857.45	12.63
857.625	57.68
857.799	-40.62
857.974	18.77
858.148	8.53
858.323	80.21
858.497	-79.53
858.672	18.77
858.846	20.82
859.02	82.26
859.195	4.44
859.369	98.64
859.543	-3.75
859.718	90.45
859.892	-3.75
860.066	6.49
860.241	-7.85
860.415	61.78
860.589	33.11
860.763	69.97
860.938	-40.62
861.112	49.49
861.286	-30.38
861.46	41.3
861.634	49.49
861.808	57.68
861.982	4.44
862.157	18.77
862.331	65.88
862.505	-18.09
862.679	12.63
862.853	-32.43
863.027	37.2
863.201	20.82
863.375	-40.62
863.549	14.68
863.722	49.49
863.896	12.63
864.07	-11.95
864.244	12.63
864.418	14.68
864.592	-1.71
864.766	2.39
864.939	84.31
865.113	10.58
865.287	0.34
865.461	-65.19
865.634	76.12
865.808	-3.75
865.982	43.35
866.156	-16.04
866.329	0.34
866.503	-32.43
866.676	92.5
866.85	33.11
867.024	84.31
867.197	-20.14
867.371	43.35
867.544	8.53
867.718	41.3
867.891	2.39
868.065	43.35
868.238	6.49
868.412	16.73
868.585	72.02
868.759	-1.71
868.932	35.16
869.105	47.44
869.279	-46.76
869.452	20.82
869.625	18.77
869.799	22.87
869.972	-30.38
870.145	26.96
870.319	96.6
870.492	119.12
870.665	-69.29
870.838	-24.23
871.011	4.44
871.185	18.77
871.358	49.49
871.531	6.49
871.704	-61.1
871.877	45.4
872.05	69.97
872.223	-75.43
872.396	12.63
872.569	0.34
872.742	2.39
872.915	22.87
873.088	53.59
873.261	24.92
873.434	61.78
873.607	90.45
873.78	-65.19
873.953	33.11
874.126	35.16
874.299	18.77
874.471	41.3
874.644	-24.23
874.817	20.82
874.99	53.59
875.163	16.73
875.335	-20.14
875.508	-13.99
875.681	-24.23
875.853	31.06
876.026	65.88
876.199	-52.91
876.371	-52.91
876.544	31.06
876.717	16.73
876.889	29.01
877.062	24.92
877.234	-3.75
877.407	86.36
877.579	35.16
877.752	55.64
877.924	43.35
878.097	18.77
878.269	2.39
878.442	82.26
878.614	14.68
878.786	-30.38
878.959	26.96
879.131	41.3
879.303	22.87
879.476	31.06
879.648	80.21
879.82	-52.91
879.993	6.49
880.165	16.73
880.337	26.96
880.509	16.73
880.681	-63.15
880.854	31.06
881.026	-24.23
881.198	74.07
881.37	-32.43
881.542	12.63
881.714	-5.8
881.886	-34.47
882.058	51.54
882.23	-40.62
882.402	43.35
882.574	51.54
882.746	39.25
882.918	41.3
883.09	26.96
883.262	8.53
883.434	-16.04
883.606	0.34
883.778	41.3
883.95	53.59
884.122	4.44
884.293	12.63
884.465	-5.8
884.637	86.36
884.809	-36.52
884.98	29.01
885.152	-22.19
885.324	-28.33
885.496	31.06
885.667	16.73
885.839	45.4
886.011	35.16
886.182	86.36
886.354	24.92
886.525	-9.9
886.697	41.3
886.869	-3.75
887.04	-16.04
887.212	33.11
887.383	37.2
887.555	0.34
887.726	-16.04
887.897	10.58
888.069	63.83
888.24	10.58
888.412	-11.95
888.583	26.96
888.754	-46.76
888.926	-9.9
889.097	45.4
889.268	35.16
889.44	49.49
889.611	-26.28
889.782	33.11
889.953	-30.38
890.125	39.25
890.296	-36.52
890.467	-5.8
890.638	-89.77
890.809	47.44
890.98	-65.19
891.151	-48.81
891.323	16.73
891.494	22.87
891.665	24.92
891.836	0.34
892.007	-9.9
892.178	-20.14
892.349	0.34
892.52	8.53
892.691	20.82
892.862	22.87
893.032	16.73
893.203	-38.57
893.374	18.77
893.545	80.21
893.716	39.25
893.887	18.77
894.057	14.68
894.228	41.3
894.399	20.82
894.57	57.68
894.74	53.59
894.911	22.87
895.082	29.01
895.253	-32.43
895.423	41.3
895.594	37.2
895.764	12.63
895.935	8.53
896.106	-24.23
896.276	-16.04
896.447	-40.62
896.617	-32.43
896.788	-44.71
896.958	-22.19
897.129	-36.52
897.299	-7.85
897.47	14.68
897.64	57.68
897.81	43.35
897.981	26.96
898.151	49.49
898.322	-7.85
898.492	33.11
898.662	26.96
898.832	2.39
899.003	14.68
899.173	-5.8
899.343	49.49
899.513	-11.95
