Data from USB4F104151__80__13-12-29-493.txt Node

Date: Fri Mar 14 13:12:29 EDT 2025
User: louis
Spectrometer: USB4F10415
Trigger mode: 4
Integration Time (sec): 2.000000E-2
Scans to average: 1
Electric dark correction enabled: true
Nonlinearity correction enabled: false
Boxcar width: 0
XAxis mode: Wavelengths
Number of Pixels in Spectrum: 3648
>>>>>Begin Spectral Data<<<<<
178.204	-146.6
178.424	-146.6
178.644	-146.6
178.864	-97.45
179.084	-146.6
179.304	-9.39
179.524	13.14
179.744	29.52
179.964	47.96
180.184	19.29
180.404	-21.67
180.624	-31.91
180.844	15.19
181.064	-13.48
181.283	-76.97
181.503	41.81
181.723	-13.48
181.943	-52.39
182.163	95.06
182.383	62.29
182.602	-29.87
182.822	29.52
183.042	-15.53
183.262	15.19
183.482	-13.48
183.701	-31.91
183.921	45.91
184.141	-15.53
184.361	-27.82
184.58	-3.24
184.8	27.48
185.02	-31.91
185.239	-64.68
185.459	-42.15
185.679	-3.24
185.898	-38.06
186.118	56.15
186.338	-19.63
186.557	29.52
186.777	-40.11
186.997	-11.43
187.216	-17.58
187.436	19.29
187.655	-5.29
187.875	0.85
188.095	-29.87
188.314	21.33
188.534	-33.96
188.753	-91.31
188.973	-7.34
189.192	-1.19
189.412	62.29
189.631	-9.39
189.851	0.85
190.07	39.76
190.29	0.85
190.509	52.05
190.729	35.67
190.948	66.39
191.168	117.59
191.387	88.92
191.607	-38.06
191.826	-44.2
192.045	-9.39
192.265	29.52
192.484	-3.24
192.704	13.14
192.923	-5.29
193.142	37.72
193.362	23.38
193.581	19.29
193.8	-9.39
194.02	68.44
194.239	-1.19
194.458	76.63
194.678	-1.19
194.897	43.86
195.116	-11.43
195.335	-42.15
195.555	-5.29
195.774	47.96
195.993	21.33
196.212	19.29
196.432	-29.87
196.651	37.72
196.87	11.09
197.089	11.09
197.308	31.57
197.528	60.24
197.747	-25.77
197.966	-42.15
198.185	52.05
198.404	-48.3
198.623	31.57
198.842	52.05
199.062	-25.77
199.281	52.05
199.5	-21.67
199.719	-21.67
199.938	19.29
200.157	-3.24
200.376	33.62
200.595	-21.67
200.814	-25.77
201.033	-60.59
201.252	-1.19
201.471	-9.39
201.69	99.16
201.909	50
202.128	7
202.347	107.35
202.566	37.72
202.785	13.14
203.004	-60.59
203.223	78.68
203.442	31.57
203.661	-1.19
203.879	-64.68
204.098	23.38
204.317	-11.43
204.536	68.44
204.755	-58.54
204.974	78.68
205.193	-29.87
205.411	50
205.63	-1.19
205.849	-3.24
206.068	23.38
206.287	-29.87
206.505	45.91
206.724	52.05
206.943	-5.29
207.162	13.14
207.381	4.95
207.599	39.76
207.818	13.14
208.037	0.85
208.255	-23.72
208.474	37.72
208.693	-103.59
208.911	-5.29
209.13	15.19
209.349	13.14
209.567	47.96
209.786	-27.82
210.005	-1.19
210.223	-36.01
210.442	-50.35
210.661	-46.25
210.879	52.05
211.098	11.09
211.316	19.29
211.535	-3.24
211.753	-29.87
211.972	39.76
212.191	-5.29
212.409	13.14
212.628	19.29
212.846	-11.43
213.065	25.43
213.283	64.34
213.502	-31.91
213.72	52.05
213.938	47.96
214.157	-21.67
214.375	-13.48
214.594	37.72
214.812	-13.48
215.031	-66.73
215.249	4.95
215.467	21.33
215.686	31.57
215.904	47.96
216.122	-19.63
216.341	7
216.559	-27.82
216.778	-13.48
216.996	35.67
217.214	25.43
217.432	-103.59
217.651	-5.29
217.869	27.48
218.087	-54.44
218.306	-36.01
218.524	80.72
218.742	19.29
218.96	-38.06
219.179	41.81
219.397	13.14
219.615	27.48
219.833	-17.58
220.051	13.14
220.27	64.34
220.488	52.05
220.706	45.91
220.924	35.67
221.142	-68.78
221.36	33.62
221.578	-11.43
221.796	47.96
222.015	-11.43
222.233	13.14
222.451	119.64
222.669	11.09
222.887	99.16
223.105	13.14
223.323	-42.15
223.541	-60.59
223.759	43.86
223.977	-44.2
224.195	64.34
224.413	-1.19
224.631	-3.24
224.849	-15.53
225.067	41.81
225.285	-15.53
225.503	4.95
225.721	-38.06
225.939	-9.39
226.157	-3.24
226.375	23.38
226.592	29.52
226.81	97.11
227.028	90.96
227.246	11.09
227.464	-7.34
227.682	19.29
227.9	-17.58
228.117	60.24
228.335	37.72
228.553	27.48
228.771	-29.87
228.989	27.48
229.206	-11.43
229.424	23.38
229.642	25.43
229.86	47.96
230.077	-54.44
230.295	-62.63
230.513	-17.58
230.731	23.38
230.948	31.57
231.166	-19.63
231.384	-13.48
231.601	0.85
231.819	33.62
232.037	-7.34
232.254	-70.83
232.472	39.76
232.689	-5.29
232.907	27.48
233.125	60.24
233.342	35.67
233.56	-27.82
233.777	62.29
233.995	-87.21
234.213	54.1
234.43	11.09
234.648	13.14
234.865	17.24
235.083	84.82
235.3	-38.06
235.518	35.67
235.735	4.95
235.953	72.53
236.17	-23.72
236.388	2.9
236.605	-52.39
236.822	-33.96
237.04	-15.53
237.257	13.14
237.475	-23.72
237.692	-5.29
237.909	17.24
238.127	7
238.344	-56.49
238.562	-38.06
238.779	-21.67
238.996	60.24
239.214	-36.01
239.431	109.4
239.648	-29.87
239.865	41.81
240.083	4.95
240.3	21.33
240.517	-17.58
240.735	-3.24
240.952	29.52
241.169	23.38
241.386	33.62
241.603	105.3
241.821	-93.35
242.038	-9.39
242.255	52.05
242.472	-54.44
242.689	45.91
242.907	11.09
243.124	23.38
243.341	19.29
243.558	-52.39
243.775	11.09
243.992	-15.53
244.209	-46.25
244.426	119.64
244.643	-31.91
244.86	-44.2
245.078	43.86
245.295	35.67
245.512	-62.63
245.729	-33.96
245.946	29.52
246.163	-13.48
246.38	-5.29
246.597	-83.11
246.814	93.01
247.031	-27.82
247.248	-27.82
247.464	15.19
247.681	13.14
247.898	27.48
248.115	19.29
248.332	-58.54
248.549	-11.43
248.766	15.19
248.983	23.38
249.2	33.62
249.417	66.39
249.633	-25.77
249.85	2.9
250.067	41.81
250.284	-44.2
250.501	19.29
250.717	13.14
250.934	-81.07
251.151	35.67
251.368	21.33
251.585	-25.77
251.801	-21.67
252.018	-21.67
252.235	-3.24
252.451	29.52
252.668	31.57
252.885	15.19
253.102	-36.01
253.318	2.9
253.535	17.24
253.752	43.86
253.968	11.09
254.185	19.29
254.401	-21.67
254.618	37.72
254.835	27.48
255.051	27.48
255.268	-38.06
255.484	2.9
255.701	-29.87
255.917	64.34
256.134	-1.19
256.351	43.86
256.567	-54.44
256.784	-27.82
257	2.9
257.217	-19.63
257.433	-44.2
257.65	52.05
257.866	25.43
258.082	-29.87
258.299	-11.43
258.515	13.14
258.732	-9.39
258.948	2.9
259.165	-27.82
259.381	41.81
259.597	-9.39
259.814	-31.91
260.03	-15.53
260.246	52.05
260.463	-7.34
260.679	7
260.895	-13.48
261.112	-44.2
261.328	-56.49
261.544	37.72
261.761	19.29
261.977	19.29
262.193	9.05
262.409	31.57
262.626	17.24
262.842	-60.59
263.058	-70.83
263.274	-15.53
263.49	-21.67
263.707	33.62
263.923	-7.34
264.139	-44.2
264.355	2.9
264.571	133.97
264.787	-17.58
265.004	23.38
265.22	31.57
265.436	-66.73
265.652	-21.67
265.868	-21.67
266.084	13.14
266.3	0.85
266.516	-5.29
266.732	54.1
266.948	52.05
267.164	-42.15
267.38	-1.19
267.596	-62.63
267.812	9.05
268.028	11.09
268.244	27.48
268.46	-38.06
268.676	4.95
268.892	4.95
269.108	2.9
269.324	-29.87
269.54	-19.63
269.756	105.3
269.972	-46.25
270.188	68.44
270.403	-27.82
270.619	-36.01
270.835	21.33
271.051	-48.3
271.267	27.48
271.483	-58.54
271.698	-27.82
271.914	35.67
272.13	31.57
272.346	-11.43
272.562	-19.63
272.777	27.48
272.993	27.48
273.209	35.67
273.425	37.72
273.64	-58.54
273.856	0.85
274.072	31.57
274.287	-5.29
274.503	76.63
274.719	19.29
274.934	-13.48
275.15	-31.91
275.366	37.72
275.581	-11.43
275.797	-40.11
276.012	37.72
276.228	-56.49
276.444	52.05
276.659	-29.87
276.875	50
277.09	21.33
277.306	23.38
277.521	-5.29
277.737	15.19
277.952	-1.19
278.168	84.82
278.383	-54.44
278.599	23.38
278.814	99.16
279.03	17.24
279.245	52.05
279.461	60.24
279.676	27.48
279.892	9.05
280.107	35.67
280.322	45.91
280.538	-21.67
280.753	97.11
280.969	9.05
281.184	23.38
281.399	50
281.615	66.39
281.83	35.67
282.045	-85.16
282.26	-19.63
282.476	21.33
282.691	35.67
282.906	-50.35
283.122	31.57
283.337	-25.77
283.552	-62.63
283.767	-25.77
283.983	-3.24
284.198	-72.87
284.413	19.29
284.628	-21.67
284.843	-29.87
285.058	64.34
285.274	-27.82
285.489	15.19
285.704	-25.77
285.919	-7.34
286.134	72.53
286.349	-27.82
286.564	25.43
286.779	68.44
286.995	-33.96
287.21	-3.24
287.425	-19.63
287.64	86.87
287.855	31.57
288.07	-66.73
288.285	68.44
288.5	37.72
288.715	43.86
288.93	-27.82
289.145	29.52
289.36	31.57
289.575	-36.01
289.79	-5.29
290.004	35.67
290.219	31.57
290.434	-23.72
290.649	-15.53
290.864	11.09
291.079	31.57
291.294	-48.3
291.509	-27.82
291.724	54.1
291.938	13.14
292.153	27.48
292.368	-11.43
292.583	84.82
292.798	111.44
293.012	64.34
293.227	31.57
293.442	33.62
293.657	70.48
293.871	60.24
294.086	33.62
294.301	29.52
294.516	-13.48
294.73	47.96
294.945	2.9
295.16	-27.82
295.374	50
295.589	54.1
295.804	2.9
296.018	7
296.233	13.14
296.447	27.48
296.662	-27.82
296.877	17.24
297.091	-13.48
297.306	41.81
297.52	50
297.735	54.1
297.949	-62.63
298.164	11.09
298.378	21.33
298.593	37.72
298.807	-19.63
299.022	-33.96
299.236	45.91
299.451	-33.96
299.665	2.9
299.88	31.57
300.094	35.67
300.309	33.62
300.523	27.48
300.737	-15.53
300.952	7
301.166	58.2
301.381	43.86
301.595	-54.44
301.809	2.9
302.024	68.44
302.238	-23.72
302.452	-13.48
302.667	-19.63
302.881	13.14
303.095	23.38
303.309	43.86
303.524	-52.39
303.738	-5.29
303.952	-60.59
304.166	15.19
304.381	4.95
304.595	15.19
304.809	-60.59
305.023	-11.43
305.237	19.29
305.452	13.14
305.666	47.96
305.88	19.29
306.094	-13.48
306.308	68.44
306.522	-1.19
306.736	93.01
306.95	21.33
307.164	-40.11
307.379	-15.53
307.593	68.44
307.807	78.68
308.021	-46.25
308.235	17.24
308.449	-33.96
308.663	11.09
308.877	84.82
309.091	-17.58
309.305	23.38
309.519	-50.35
309.733	-5.29
309.947	7
310.161	-38.06
310.374	-15.53
310.588	23.38
310.802	-11.43
311.016	9.05
311.23	95.06
311.444	0.85
311.658	37.72
311.872	-5.29
312.085	41.81
312.299	56.15
312.513	80.72
312.727	-13.48
312.941	-74.92
313.154	21.33
313.368	11.09
313.582	-13.48
313.796	74.58
314.009	19.29
314.223	56.15
314.437	15.19
314.651	74.58
314.864	41.81
315.078	-29.87
315.292	-1.19
315.505	19.29
315.719	37.72
315.933	-15.53
316.146	74.58
316.36	68.44
316.573	-9.39
316.787	-101.55
317.001	43.86
317.214	7
317.428	2.9
317.641	11.09
317.855	-1.19
318.068	-9.39
318.282	-38.06
318.495	68.44
318.709	43.86
318.922	-31.91
319.136	45.91
319.349	33.62
319.563	-9.39
319.776	2.9
319.99	60.24
320.203	45.91
320.417	19.29
320.63	23.38
320.843	56.15
321.057	27.48
321.27	-13.48
321.483	4.95
321.697	13.14
321.91	109.4
322.124	4.95
322.337	60.24
322.55	-13.48
322.763	-23.72
322.977	19.29
323.19	-1.19
323.403	23.38
323.617	76.63
323.83	68.44
324.043	19.29
324.256	39.76
324.469	-11.43
324.683	45.91
324.896	-11.43
325.109	4.95
325.322	-31.91
325.535	99.16
325.748	-38.06
325.962	-36.01
326.175	-11.43
326.388	88.92
326.601	70.48
326.814	50
327.027	-7.34
327.24	17.24
327.453	-5.29
327.666	19.29
327.879	35.67
328.092	62.29
328.305	-1.19
328.518	-19.63
328.731	-38.06
328.944	19.29
329.157	-1.19
329.37	-46.25
329.583	-27.82
329.796	37.72
330.009	-62.63
330.222	19.29
330.435	-11.43
330.648	29.52
330.861	54.1
331.073	33.62
331.286	41.81
331.499	2.9
331.712	-48.3
331.925	15.19
332.138	45.91
332.35	68.44
332.563	-29.87
332.776	72.53
332.989	-13.48
333.202	84.82
333.414	31.57
333.627	68.44
333.84	7
334.053	47.96
334.265	-5.29
334.478	78.68
334.691	15.19
334.903	31.57
335.116	-60.59
335.329	52.05
335.541	19.29
335.754	84.82
335.966	29.52
336.179	52.05
336.392	25.43
336.604	-11.43
336.817	27.48
337.029	35.67
337.242	43.86
337.454	52.05
337.667	-48.3
337.88	7
338.092	11.09
338.305	4.95
338.517	-58.54
338.729	39.76
338.942	33.62
339.154	45.91
339.367	52.05
339.579	27.48
339.792	-58.54
340.004	35.67
340.217	43.86
340.429	19.29
340.641	-40.11
340.854	27.48
341.066	21.33
341.278	68.44
341.491	-38.06
341.703	-38.06
341.915	-76.97
342.128	60.24
342.34	-11.43
342.552	-9.39
342.764	23.38
342.977	41.81
343.189	47.96
343.401	2.9
343.613	9.05
343.826	-21.67
344.038	35.67
344.25	19.29
344.462	17.24
344.674	-1.19
344.886	9.05
345.099	78.68
345.311	-1.19
345.523	31.57
345.735	-46.25
345.947	-33.96
346.159	29.52
346.371	76.63
346.583	-17.58
346.795	109.4
347.007	-27.82
347.219	64.34
347.431	-13.48
347.643	95.06
347.855	2.9
348.067	47.96
348.279	-13.48
348.491	93.01
348.703	-7.34
348.915	-5.29
349.127	7
349.339	41.81
349.551	-52.39
349.763	15.19
349.975	-25.77
350.187	50
350.399	66.39
350.61	25.43
350.822	-13.48
351.034	-1.19
351.246	2.9
351.458	54.1
351.669	7
351.881	43.86
352.093	103.25
352.305	27.48
352.517	60.24
352.728	60.24
352.94	-5.29
353.152	9.05
353.363	21.33
353.575	-1.19
353.787	66.39
353.999	21.33
354.21	99.16
354.422	-48.3
354.633	-33.96
354.845	50
355.057	-40.11
355.268	39.76
355.48	39.76
355.692	4.95
355.903	2.9
356.115	58.2
356.326	-17.58
356.538	29.52
356.749	27.48
356.961	47.96
357.172	70.48
357.384	21.33
357.595	58.2
357.807	15.19
358.018	47.96
358.23	68.44
358.441	58.2
358.653	54.1
358.864	-33.96
359.075	54.1
359.287	-52.39
359.498	23.38
359.709	39.76
359.921	-11.43
360.132	66.39
360.344	35.67
360.555	-15.53
360.766	9.05
360.977	25.43
361.189	148.31
361.4	56.15
361.611	43.86
361.823	47.96
362.034	29.52
362.245	68.44
362.456	72.53
362.667	45.91
362.879	39.76
363.09	33.62
363.301	52.05
363.512	50
363.723	-52.39
363.935	23.38
364.146	47.96
364.357	-9.39
364.568	-17.58
364.779	-29.87
364.99	58.2
365.201	-3.24
365.412	66.39
365.623	17.24
365.834	33.62
366.045	-13.48
366.256	-25.77
366.467	-7.34
366.678	60.24
366.889	2.9
367.1	-54.44
367.311	25.43
367.522	25.43
367.733	-21.67
367.944	11.09
368.155	35.67
368.366	93.01
368.577	84.82
368.788	111.44
368.999	27.48
369.209	7
369.42	31.57
369.631	47.96
369.842	-42.15
370.053	0.85
370.264	-111.78
370.474	68.44
370.685	-29.87
370.896	-15.53
371.107	39.76
371.317	31.57
371.528	45.91
371.739	70.48
371.95	4.95
372.16	31.57
372.371	13.14
372.582	68.44
372.792	54.1
373.003	70.48
373.214	-1.19
373.424	43.86
373.635	13.14
373.846	111.44
374.056	0.85
374.267	56.15
374.477	84.82
374.688	-23.72
374.898	35.67
375.109	13.14
375.319	146.26
375.53	23.38
375.74	76.63
375.951	37.72
376.161	37.72
376.372	101.2
376.582	39.76
376.793	45.91
377.003	11.09
377.214	37.72
377.424	37.72
377.635	88.92
377.845	66.39
378.055	86.87
378.266	7
378.476	-25.77
378.686	103.25
378.897	47.96
379.107	39.76
379.317	68.44
379.528	2.9
379.738	11.09
379.948	-11.43
380.158	45.91
380.369	19.29
380.579	29.52
380.789	31.57
380.999	23.38
381.21	7
381.42	99.16
381.63	4.95
381.84	-15.53
382.05	62.29
382.261	97.11
382.471	103.25
382.681	76.63
382.891	54.1
383.101	-19.63
383.311	27.48
383.521	2.9
383.731	37.72
383.941	27.48
384.151	43.86
384.361	31.57
384.571	58.2
384.781	-5.29
384.991	109.4
385.201	78.68
385.411	43.86
385.621	56.15
385.831	76.63
386.041	-15.53
386.251	45.91
386.461	68.44
386.671	-1.19
386.881	78.68
387.091	-19.63
387.301	107.35
387.511	-25.77
387.72	27.48
387.93	41.81
388.14	-17.58
388.35	64.34
388.56	70.48
388.769	64.34
388.979	33.62
389.189	11.09
389.399	-13.48
389.609	-17.58
389.818	19.29
390.028	117.59
390.238	31.57
390.447	74.58
390.657	78.68
390.867	-3.24
391.076	25.43
391.286	31.57
391.496	35.67
391.705	31.57
391.915	23.38
392.125	86.87
392.334	-27.82
392.544	19.29
392.753	45.91
392.963	-9.39
393.172	15.19
393.382	-15.53
393.591	99.16
393.801	2.9
394.01	66.39
394.22	23.38
394.429	103.25
394.639	115.54
394.848	-13.48
395.058	80.72
395.267	60.24
395.477	86.87
395.686	97.11
395.895	78.68
396.105	162.64
396.314	60.24
396.524	11.09
396.733	0.85
396.942	50
397.152	68.44
397.361	142.16
397.57	66.39
397.78	60.24
397.989	45.91
398.198	21.33
398.407	80.72
398.617	88.92
398.826	45.91
399.035	62.29
399.244	11.09
399.453	95.06
399.663	21.33
399.872	117.59
400.081	52.05
400.29	125.78
400.499	-29.87
400.708	105.3
400.917	103.25
401.127	72.53
401.336	35.67
401.545	125.78
401.754	45.91
401.963	119.64
402.172	103.25
402.381	70.48
402.59	195.41
402.799	103.25
403.008	74.58
403.217	84.82
403.426	37.72
403.635	138.07
403.844	2.9
404.053	199.51
404.262	62.29
404.471	93.01
404.68	115.54
404.888	97.11
405.097	129.88
405.306	162.64
405.515	125.78
405.724	93.01
405.933	136.02
406.142	86.87
406.35	78.68
406.559	215.89
406.768	185.17
406.977	224.08
407.185	183.12
407.394	138.07
407.603	152.4
407.812	197.46
408.02	140.12
408.229	95.06
408.438	170.83
408.646	142.16
408.855	164.69
409.064	185.17
409.272	258.9
409.481	256.85
409.69	215.89
409.898	240.47
410.107	203.6
410.315	250.71
410.524	215.89
410.733	260.95
410.941	250.71
411.15	244.56
411.358	277.33
411.567	289.62
411.775	355.15
411.984	314.19
412.192	308.05
412.401	324.43
412.609	275.28
412.818	416.59
413.026	422.73
413.234	377.68
413.443	428.88
413.651	342.86
413.86	490.32
414.068	441.17
414.276	531.28
414.485	467.79
414.693	469.84
414.901	521.04
415.11	627.53
415.318	510.8
415.526	602.96
415.734	701.26
415.943	609.1
416.151	656.2
416.359	664.4
416.567	713.55
416.776	684.87
416.984	736.07
417.192	748.36
417.4	805.71
417.608	764.75
417.817	826.18
418.025	848.71
418.233	918.34
418.441	861
418.649	910.15
418.857	1028.93
419.065	1065.8
419.273	983.88
419.481	1121.09
419.689	1080.13
419.897	1166.15
420.105	1217.35
420.313	1264.45
420.521	1346.37
420.729	1321.79
420.937	1375.04
421.145	1397.57
421.353	1502.01
421.561	1579.84
421.769	1633.08
421.977	1645.37
422.185	1616.7
422.393	1821.5
422.601	1844.03
422.809	1923.9
423.017	1831.74
423.224	1979.19
423.432	2020.15
423.64	1985.34
423.848	2153.27
424.056	2124.6
424.263	2407.22
424.471	2376.5
424.679	2419.5
424.887	2493.23
425.094	2427.7
425.302	2462.51
425.51	2677.55
425.718	2681.64
425.925	2757.42
426.133	2747.18
426.341	3054.37
426.548	3087.14
426.756	3111.72
426.964	3160.87
427.171	3273.51
427.379	3388.19
427.586	3474.21
427.794	3545.89
428.001	3820.32
428.209	3967.77
428.417	3951.39
428.624	4115.22
428.832	4182.81
429.039	4143.89
429.247	4141.85
429.454	4596.5
429.662	4850.44
429.869	4598.54
430.076	4934.41
430.284	4688.65
430.491	4877.07
430.699	5241.61
430.906	5221.13
431.114	5395.2
431.321	5522.18
431.528	5643.01
431.736	5970.68
431.943	6195.96
432.15	6017.79
432.358	6025.98
432.565	6329.08
432.772	6460.15
432.979	6748.91
433.187	6988.52
433.394	6779.63
433.601	7426.79
433.808	7572.19
434.016	7389.92
434.223	7598.82
434.43	8116.95
434.637	8098.52
434.844	8604.37
435.052	8622.8
435.259	8487.64
435.466	8782.54
435.673	8641.23
435.88	9200.33
436.087	9609.92
436.294	9677.51
436.501	9304.78
436.708	9554.63
436.915	10080.96
437.122	10169.02
437.329	10535.6
437.537	10861.23
437.743	10902.19
437.95	10568.37
438.157	11492.01
438.364	11588.26
438.571	11596.45
438.778	11696.8
438.985	12749.46
439.192	12194.46
439.399	12608.15
439.606	12446.36
439.813	13310.6
440.02	13941.38
440.227	13810.31
440.433	13537.93
440.64	14070.4
440.847	14125.69
441.054	14434.94
441.261	15233.64
441.467	15067.76
441.674	15254.12
441.881	15878.76
442.088	15762.02
442.294	15739.49
442.501	16296.54
442.708	16632.41
442.914	17146.45
443.121	17693.26
443.328	17250.89
443.534	18569.79
443.741	18104.9
443.948	17836.61
444.154	19446.32
444.361	19302.96
444.568	19196.46
444.774	19257.9
444.981	19663.4
445.187	20156.96
445.394	21066.26
445.6	20650.52
445.807	22798.84
446.013	21613.07
446.22	22057.48
446.426	22757.88
446.633	23110.13
446.839	24148.45
447.046	23011.83
447.252	24246.76
447.459	24103.4
447.665	23935.46
447.871	25100.76
448.078	26081.74
448.284	25203.16
448.491	25645.52
448.697	27128.25
448.903	27255.22
449.11	27374
449.316	26937.79
449.522	27630
449.728	28191.14
449.935	28334.5
450.141	28295.59
450.347	29223.32
450.553	28465.57
450.76	28469.67
450.966	29653.39
451.172	29157.78
451.378	29893.01
451.584	29645.2
451.791	30050.7
451.997	29929.87
452.203	30755.2
452.409	30884.22
452.615	30443.91
452.821	29608.34
453.027	28961.18
453.233	30341.51
453.44	29448.6
453.646	29647.25
453.852	30114.19
454.058	30527.88
454.264	29409.68
454.47	30251.4
454.676	29311.38
454.882	30288.26
455.088	28027.31
455.294	28094.89
455.5	28613.02
455.705	29065.63
455.911	27701.68
456.117	27535.79
456.323	26872.25
456.529	25934.28
456.735	26698.17
456.941	26098.12
457.147	25694.67
457.352	24846.81
457.558	24406.5
457.764	24443.36
457.97	24273.38
458.176	23841.26
458.381	24001
458.587	22540.8
458.793	22358.53
458.999	21416.46
459.204	22860.28
459.41	22329.86
459.616	20996.63
459.821	20662.81
460.027	21033.49
460.233	20435.49
460.438	19554.86
460.644	19831.33
460.85	18786.87
461.055	18180.67
461.261	18301.5
461.466	17060.43
461.672	16253.53
461.878	17572.43
462.083	16374.36
462.289	16470.62
462.494	16050.78
462.7	15170.16
462.905	14715.51
463.111	15168.11
463.316	15497.83
463.522	14953.07
463.727	15178.35
463.932	14940.79
464.138	14936.69
464.343	14842.48
464.549	14723.7
464.754	15094.38
464.959	14873.2
465.165	14912.11
465.37	14330.49
465.575	13945.47
465.781	14281.34
465.986	14553.72
466.191	13855.36
466.397	13703.81
466.602	12974.74
466.807	13503.11
467.012	13535.88
467.218	13429.38
467.423	13337.23
467.628	13417.1
467.833	13707.91
468.038	13240.97
468.244	12950.16
468.449	13363.85
468.654	12845.71
468.859	13036.17
469.064	12806.8
469.269	12243.61
469.474	12436.12
469.679	12864.15
469.885	12432.02
470.09	12669.59
470.295	12425.88
470.5	12212.89
470.705	12298.91
470.91	12012.19
471.115	11934.37
471.32	12137.12
471.525	12016.29
471.73	11725.47
471.935	11610.79
472.139	11162.28
472.344	11430.57
472.549	11303.59
472.754	11451.05
472.959	10992.3
473.164	10832.56
473.369	10592.95
473.574	10994.35
473.778	10945.2
473.983	10939.05
474.188	10814.13
474.393	10322.62
474.598	10388.15
474.802	10152.63
475.007	10222.27
475.212	10187.45
475.417	9861.82
475.621	9751.23
475.826	9880.25
476.031	9669.31
476.235	9343.69
476.44	9607.87
476.645	9368.26
476.849	9401.03
477.054	9231.05
477.259	9308.87
477.463	9134.79
477.668	9054.92
477.872	9075.4
478.077	8743.63
478.282	8710.86
478.486	8497.88
478.691	8590.03
478.895	8630.99
479.1	8485.59
479.304	8702.67
479.509	7985.88
479.713	8385.24
479.918	8215.26
480.122	7946.97
480.326	8211.16
480.531	8299.22
480.735	8061.66
480.94	7867.1
481.144	8121.05
481.348	7873.25
481.553	7926.49
481.757	7791.33
481.961	7994.08
482.166	8127.19
482.37	7963.36
482.574	7789.28
482.778	7998.17
482.983	7867.1
483.187	7797.47
483.391	7908.06
483.595	7885.53
483.8	7717.6
484.004	7815.9
484.208	7852.77
484.412	7787.23
484.616	7932.64
484.821	7867.1
485.025	7672.54
485.229	7787.23
485.433	7682.78
485.637	7969.5
485.841	7785.18
486.045	7607.01
486.249	7891.68
486.453	7693.02
486.657	7768.8
486.861	7998.17
487.065	7553.76
487.269	7846.62
487.473	7719.65
487.677	7922.4
487.881	7944.92
488.085	7688.93
488.289	7850.72
488.493	7946.97
488.697	7797.47
488.901	7752.42
489.105	8018.65
489.309	7922.4
489.512	7955.16
489.716	7908.06
489.92	7783.13
490.124	8063.71
490.328	8073.95
490.531	8002.27
490.735	7998.17
490.939	8078.04
491.143	8006.36
491.346	8014.56
491.55	8004.32
491.754	8010.46
491.958	8184.54
492.161	8311.51
492.365	8121.05
492.569	8309.46
492.772	8254.17
492.976	8444.63
493.18	8321.75
493.383	8448.72
493.587	8377.05
493.79	8571.6
493.994	8399.57
494.197	8491.73
494.401	8723.15
494.605	8659.67
494.808	8760.02
495.012	8901.33
495.215	8848.08
495.419	8889.04
495.622	8891.09
495.825	8975.05
496.029	9169.61
496.232	9198.28
496.436	9319.11
496.639	9499.33
496.843	9263.82
497.046	9636.55
497.249	9622.21
497.453	9720.51
497.656	9781.95
497.859	9810.62
498.063	9956.03
498.266	10025.66
498.469	10007.23
498.673	10146.49
498.876	10117.82
499.079	10261.18
499.282	10447.54
499.485	10787.5
499.689	10709.68
499.892	10789.55
500.095	10732.21
500.298	11129.52
500.501	11106.99
500.705	11328.17
500.908	11637.41
501.111	11647.65
501.314	11686.56
501.517	12034.72
501.72	12059.29
501.923	11803.3
502.126	12188.32
502.329	12346.01
502.532	12554.9
502.735	12642.96
502.938	12690.07
503.141	12790.42
503.344	13224.59
503.547	12958.35
503.75	13083.28
503.953	13365.9
504.156	13474.44
504.359	13542.02
504.562	13712
504.765	14037.63
504.968	14307.96
505.17	14037.63
505.373	14185.08
505.576	14584.44
505.779	14576.25
505.982	14709.36
506.185	14805.62
506.387	15049.33
506.59	15022.7
506.793	15444.59
506.996	15350.38
507.198	15856.23
507.401	15848.04
507.604	16001.63
507.807	16431.71
508.009	16353.88
508.212	16573.02
508.415	16677.46
508.617	16808.53
508.82	17031.76
509.022	16902.74
509.225	17427.02
509.428	17429.07
509.63	17617.48
509.833	17703.5
510.035	18057.79
510.238	17672.78
510.44	18098.75
510.643	18551.35
510.845	18584.12
511.048	18358.85
511.25	18723.38
511.453	19024.44
511.655	19720.74
511.858	19466.8
512.06	19933.73
512.262	19929.64
512.465	19673.64
512.667	20197.92
512.87	20257.31
513.072	20161.06
513.274	20646.43
513.477	20859.42
513.679	21076.5
513.881	21273.1
514.084	21563.92
514.286	21518.86
514.488	21379.6
514.69	22295.04
514.893	22342.14
515.095	22139.4
515.297	22663.68
515.499	22632.96
515.701	22948.34
515.904	23024.12
516.106	23169.52
516.308	23501.29
516.51	23650.8
516.712	23597.55
516.914	23663.08
517.116	24285.67
517.318	24451.55
517.52	24576.48
517.722	24791.52
517.925	24969.69
518.127	25539.02
518.329	25522.64
518.531	25635.28
518.733	25698.77
518.935	25960.91
519.136	25909.71
519.338	26532.29
519.54	26653.12
519.742	26595.78
519.944	26972.6
520.146	27419.06
520.348	27470.26
520.55	27703.73
520.752	27783.6
520.954	27830.7
521.155	28051.88
521.357	28488.1
521.559	28694.94
521.761	29043.1
521.963	28547.49
522.164	29067.67
522.366	29233.56
522.568	29385.11
522.77	29594
522.971	29837.71
523.173	29927.82
523.375	29811.09
523.576	30206.34
523.778	30038.41
523.98	30599.55
524.181	30474.63
524.383	31076.73
524.584	31230.33
524.786	31287.67
524.988	31086.97
525.189	31568.24
525.391	31525.24
525.592	31732.08
525.794	31977.84
525.995	31953.26
526.197	32090.48
526.398	32090.48
526.6	32100.72
526.801	32264.55
527.003	32577.89
527.204	32924
527.406	33057.12
527.607	32967.01
527.808	32997.73
528.01	32573.8
528.211	33157.47
528.412	33601.88
528.614	33737.04
528.815	33302.87
529.016	33718.61
529.218	33323.35
529.419	33491.29
529.62	33470.81
529.822	33628.5
530.023	33792.34
530.224	33696.08
530.425	33550.68
530.626	33659.22
530.828	33704.28
531.029	34416.97
531.23	34271.56
531.431	34390.34
531.632	34158.92
531.833	34085.2
532.035	34345.29
532.236	34154.83
532.437	34214.22
532.638	34433.35
532.839	34457.93
533.04	34554.18
533.241	34228.56
533.442	34888
533.643	34398.54
533.844	34685.25
534.045	34306.38
534.246	34476.36
534.447	34931.01
534.648	34822.47
534.849	34564.42
535.05	34425.16
535.251	34617.67
535.451	34627.91
535.652	34273.61
535.853	34201.93
536.054	34482.5
536.255	34769.22
536.456	34203.98
536.657	34924.86
536.857	34316.62
537.058	34552.13
537.259	34560.33
537.46	34758.98
537.66	34466.12
537.861	34728.26
538.062	34236.75
538.263	34574.66
538.463	34603.33
538.664	34490.7
538.865	34392.39
539.065	34541.89
539.266	34703.68
539.466	34556.23
539.667	34185.55
539.868	34912.58
540.068	34416.97
540.269	34410.82
540.469	34892.1
540.67	34277.71
540.87	34142.54
541.071	34380.1
541.271	34564.42
541.472	34339.15
541.672	34527.56
541.873	34294.09
542.073	34093.39
542.274	34826.56
542.474	34144.59
542.675	34146.64
542.875	34953.54
543.075	34371.91
543.276	33823.06
543.476	34478.41
543.676	34294.09
543.877	34251.08
544.077	34369.86
544.277	34138.44
544.478	34242.89
544.678	34318.67
544.878	34031.95
545.078	34339.15
545.279	34271.56
545.479	34068.81
545.679	34298.19
545.879	34330.95
546.079	34253.13
546.28	34199.88
546.48	34056.53
546.68	34255.18
546.88	34539.85
547.08	34320.71
547.28	34181.45
547.48	34316.62
547.68	34376.01
547.88	34025.81
548.081	34228.56
548.281	33597.78
548.481	33929.55
548.681	34556.23
548.881	34117.96
549.081	34038.09
549.28	33780.05
549.48	34480.46
549.68	34103.63
549.88	34398.54
550.08	34220.36
550.28	34220.36
550.48	33718.61
550.68	34339.15
550.88	33800.53
551.08	33929.55
551.279	33886.54
551.479	33642.84
551.679	33947.98
551.879	33990.99
552.079	34310.47
552.278	33661.27
552.478	33636.69
552.678	33802.58
552.878	33761.62
553.077	33952.08
553.277	33417.56
553.477	34261.32
553.676	33839.44
553.876	33691.99
554.076	33712.47
554.275	33843.54
554.475	33468.76
554.674	33630.55
554.874	33882.45
555.074	33587.54
555.273	33741.14
555.473	33962.32
555.672	33427.8
555.872	33505.62
556.071	33522.01
556.271	33626.45
556.47	33036.64
556.67	33292.63
556.869	33284.44
557.068	33376.6
557.268	32993.63
557.467	33270.11
557.667	33395.03
557.866	33581.4
558.065	33245.53
558.265	33163.61
558.464	32837.98
558.663	33132.89
558.863	32987.49
559.062	33309.02
559.261	32815.46
559.461	33161.56
559.66	32930.14
559.859	32676.19
560.058	32792.93
560.258	32565.6
560.457	32362.86
560.656	32702.82
560.855	32242.03
561.054	33091.93
561.253	32301.42
561.453	32735.59
561.652	32450.92
561.851	32342.38
562.05	32342.38
562.249	32313.7
562.448	32758.11
562.647	32053.61
562.846	32342.38
563.045	32164.2
563.244	31938.93
563.443	32375.14
563.642	31435.13
563.841	31979.89
564.04	31801.71
564.239	32465.25
564.438	31500.66
564.637	31695.22
564.836	32029.04
565.035	31662.45
565.234	31605.11
565.432	31506.8
565.631	31396.21
565.83	32035.18
566.029	31535.48
566.228	31146.36
566.427	31363.45
566.625	31113.59
566.824	30648.71
567.023	31154.55
567.222	30513.54
567.42	31390.07
567.619	30964.09
567.818	31259
568.016	30800.26
568.215	31076.73
568.414	30962.04
568.612	31191.42
568.811	30581.12
569.01	30706.05
569.208	30044.55
569.407	30679.43
569.605	30167.43
569.804	30636.42
570.002	30187.91
570.201	30210.44
570.4	29946.25
570.598	30171.53
570.797	29774.22
570.995	29743.5
571.193	29632.91
571.392	29921.68
571.59	29577.62
571.789	29473.17
571.987	29356.44
572.186	29520.27
572.384	29620.63
572.582	29706.64
572.781	29432.21
572.979	28842.4
573.177	29137.3
573.376	29518.23
573.574	29057.43
573.772	28971.42
573.971	28823.97
574.169	28758.43
574.367	28914.08
574.565	28787.1
574.763	28592.55
574.962	28653.98
575.16	28242.34
575.358	28490.15
575.556	27910.57
575.754	28627.36
575.952	28076.46
576.151	28150.18
576.349	28111.27
576.547	27982.25
576.745	28000.68
576.943	28166.57
577.141	27435.44
577.339	27832.75
577.537	27726.25
577.735	27847.08
577.933	27345.33
578.131	27652.53
578.329	27273.65
578.527	27228.6
578.725	27503.03
578.923	27457.97
579.121	27052.47
579.319	27304.37
579.516	27564.46
579.714	26995.13
579.912	27169.21
580.11	27142.58
580.308	26708.41
580.506	26786.24
580.704	26507.71
580.901	26810.81
581.099	26898.87
581.297	26356.16
581.495	26874.3
581.692	26603.97
581.89	26169.8
582.088	26751.42
582.285	26294.72
582.483	26110.41
582.681	26038.73
582.878	26294.72
583.076	25878.99
583.274	26122.69
583.471	25649.61
583.669	26134.98
583.866	25713.1
584.064	25774.54
584.262	25653.71
584.459	25620.94
584.657	25291.22
584.854	25577.94
585.052	25149.91
585.249	25416.15
585.447	25303.51
585.644	24992.22
585.841	25295.32
586.039	25393.62
586.236	24898.01
586.434	24877.53
586.631	24865.24
586.828	24887.77
587.026	24930.78
587.223	24658.4
587.42	24732.12
587.618	24828.38
587.815	24246.76
588.012	24494.56
588.21	24576.48
588.407	24369.63
588.604	23996.9
588.801	24252.9
588.999	24113.64
589.196	23980.52
589.393	24029.67
589.59	24066.53
589.787	23945.7
589.984	23693.8
590.182	23454.19
590.379	23794.15
590.576	23405.04
590.773	23808.49
590.97	23298.55
591.167	23546.35
591.364	23302.64
591.561	23329.27
591.758	23007.73
591.955	23073.27
592.152	23171.57
592.349	23259.63
592.546	22913.53
592.743	22962.68
592.94	22673.92
593.137	23044.6
593.334	22665.72
593.531	22424.06
593.727	22718.97
593.924	22700.54
594.121	22555.13
594.318	22551.04
594.515	21967.37
594.712	22235.65
594.908	22217.22
595.105	22452.73
595.302	21844.49
595.499	22020.61
595.696	21840.39
595.892	21819.91
596.089	21754.38
596.286	21910.02
596.482	21989.89
596.679	21760.52
596.876	21856.78
597.072	21918.21
597.269	21398.03
597.466	21336.59
597.662	21199.38
597.859	21152.27
598.055	21070.36
598.252	21342.74
598.448	21058.07
598.645	21228.05
598.841	20808.22
599.038	20955.67
599.234	20875.8
599.431	20920.85
599.627	20742.68
599.824	20812.31
600.02	20574.75
600.217	21010.96
600.413	20382.24
600.609	20337.18
600.806	20322.85
601.002	20630.04
601.198	20349.47
601.395	20281.89
601.591	20523.55
601.787	20034.08
601.984	20285.98
602.18	20410.91
602.376	20128.29
602.572	19982.88
602.769	19880.49
602.965	19681.83
603.161	19747.37
603.357	19583.53
603.553	19532.33
603.75	19536.43
603.946	19542.57
604.142	19161.65
604.338	19122.74
604.534	19157.55
604.73	19202.61
604.926	19274.29
605.122	19094.07
605.318	19399.21
605.514	18952.76
605.71	18829.88
605.906	18809.4
606.102	19032.63
606.298	18831.93
606.494	19036.72
606.69	18805.3
606.886	18879.03
607.082	18709.05
607.278	18879.03
607.474	18600.51
607.67	18866.74
607.866	18426.43
608.062	18559.55
608.257	18268.73
608.453	18414.14
608.649	18268.73
608.845	18180.67
609.041	18217.54
609.236	18344.51
609.432	18043.46
609.628	18254.4
609.824	18117.18
610.019	17879.62
610.215	17836.61
610.411	18174.53
610.606	17881.67
610.802	18031.17
610.998	17848.9
611.193	18276.93
611.389	18108.99
611.584	18033.22
611.78	17691.21
611.976	17844.81
612.171	17912.39
612.367	17674.82
612.562	17508.94
612.758	17373.77
612.953	17582.67
613.149	17685.06
613.344	17537.61
613.539	17660.49
613.735	17492.55
613.93	17453.64
614.126	17298
614.321	17498.7
614.517	17424.97
614.712	17228.37
614.907	17021.52
615.103	17617.48
615.298	16982.61
615.493	17371.72
615.688	16796.25
615.884	17371.72
616.079	17175.12
616.274	17187.41
616.47	16847.44
616.665	17101.39
616.86	16915.03
617.055	16714.33
617.25	16757.33
617.445	16988.75
617.641	16548.44
617.836	16847.44
618.031	16677.46
618.226	16646.74
618.421	16317.02
618.616	16605.78
618.811	16319.07
619.006	16558.68
619.201	16228.96
619.396	16357.98
619.591	16056.93
619.786	16188
619.981	16040.54
620.176	16269.92
620.371	15733.35
620.566	16118.37
620.761	15766.12
620.956	15950.43
621.151	15604.33
621.346	15655.53
621.541	15538.79
621.735	15581.8
621.93	15299.18
622.125	15379.05
622.32	15223.41
622.515	15198.83
622.709	15008.37
622.904	14840.43
623.099	14879.35
623.294	14944.88
623.488	14740.08
623.683	14729.84
623.878	14332.54
624.072	14523
624.267	14445.18
624.462	14365.31
624.656	14242.43
624.851	14250.62
625.046	13843.07
625.24	14019.2
625.435	13781.64
625.629	14111.36
625.824	13963.9
626.018	13875.84
626.213	13587.08
626.407	13748.87
626.602	13558.41
626.796	13372.04
626.991	13585.03
627.185	13347.47
627.38	13300.36
627.574	13228.68
627.768	13134.48
627.963	13087.37
628.157	13052.56
628.352	12995.22
628.546	12888.72
628.74	12956.3
628.935	12559
629.129	12655.25
629.323	12931.73
629.517	12468.89
629.712	12520.09
629.906	12522.13
630.1	12223.13
630.294	12378.78
630.489	12327.58
630.683	12307.1
630.877	12067.49
631.071	12071.58
631.265	12044.96
631.459	12108.44
631.653	12047.01
631.848	12053.15
632.042	11645.6
632.236	11840.16
632.43	11432.61
632.624	11565.73
632.818	11473.57
633.012	11473.57
633.206	11401.9
633.4	11702.95
633.594	11160.24
633.788	11195.05
633.982	11213.48
634.176	11229.87
634.369	11178.67
634.563	11045.55
634.757	10924.72
634.951	10926.77
635.145	10816.18
635.339	10859.18
635.533	10570.42
635.726	10601.14
635.92	10730.16
636.114	10736.31
636.308	10613.43
636.501	10388.15
636.695	10597.04
636.889	10402.49
637.083	10248.89
637.276	10306.23
637.47	10212.03
637.664	10357.43
637.857	10226.36
638.051	10029.76
638.244	9970.37
638.438	9953.98
638.632	10003.13
638.825	9814.72
639.019	9611.97
639.212	9695.94
639.406	9763.52
639.599	9673.41
639.793	9740.99
639.986	9466.56
640.18	9439.94
640.373	9319.11
640.567	9343.69
640.76	9376.45
640.954	9226.95
641.147	9532.1
641.34	9198.28
641.534	9278.15
641.727	9079.5
641.92	9091.79
642.114	9089.74
642.307	9048.78
642.5	9022.16
642.694	8829.65
642.887	8805.07
643.08	8934.09
643.273	8850.13
643.467	8778.45
643.66	8915.66
643.853	8755.92
644.046	8370.9
644.239	8633.04
644.432	8458.96
644.626	8540.88
644.819	8547.03
645.012	8506.07
645.205	8340.18
645.398	8436.44
645.591	8133.34
645.784	8190.68
645.977	8102.62
646.17	8125.15
646.363	8088.28
646.556	7846.62
646.749	8047.32
646.942	8016.6
647.135	7799.52
647.328	7989.98
647.521	7836.38
647.714	7807.71
647.907	7842.53
648.099	7654.11
648.292	7871.2
648.485	7650.02
648.678	7496.42
648.871	7641.82
649.064	7420.64
649.256	7568.1
649.449	7541.47
649.642	7420.64
649.835	7336.68
650.027	7416.55
650.22	7324.39
650.413	7236.33
650.605	7211.75
650.798	7244.52
650.991	7072.49
651.183	7006.95
651.376	7080.68
651.568	7049.96
651.761	7029.48
651.954	7019.24
652.146	7035.63
652.339	6886.12
652.531	6828.78
652.724	6781.68
652.916	6669.04
653.109	6765.29
653.301	6705.9
653.494	6822.64
653.686	6652.66
653.879	6646.51
654.071	6695.66
654.263	6507.25
654.456	6290.17
654.648	6494.96
654.84	6464.24
655.033	6234.87
655.225	6281.97
655.417	6376.18
655.61	6212.34
655.802	6243.06
655.994	6216.44
656.186	6023.93
656.379	6040.31
656.571	6107.9
656.763	6195.96
656.955	6103.8
657.148	6130.42
657.34	5915.39
657.532	5919.48
657.724	5976.83
657.916	5993.21
658.108	5933.82
658.3	5929.72
658.492	5917.44
658.684	5806.84
658.876	5919.48
659.068	5763.84
659.26	5577.47
659.452	5632.77
659.644	5581.57
659.836	5552.9
660.028	5681.92
660.22	5606.14
660.412	5552.9
660.604	5493.51
660.796	5565.18
660.988	5554.94
661.18	5360.39
661.372	5354.24
661.563	5171.97
661.755	5270.28
661.947	5235.46
662.139	5253.89
662.331	5221.13
662.522	5180.17
662.714	5090.06
662.906	5163.78
663.097	5149.45
663.289	5147.4
663.481	5221.13
663.673	5153.54
663.864	4944.65
664.056	4877.07
664.247	4903.69
664.439	4975.37
664.631	5030.66
664.822	4807.44
665.014	4846.35
665.205	4872.97
665.397	4877.07
665.588	4793.1
665.78	4856.59
665.971	4719.37
666.163	4782.86
666.354	4815.63
666.546	4764.43
666.737	4737.81
666.929	4516.62
667.12	4610.83
667.311	4553.49
667.503	4582.16
667.694	4524.82
667.885	4524.82
668.077	4600.59
668.268	4502.29
668.459	4481.81
668.651	4406.03
668.842	4455.19
669.033	4490
669.224	4356.88
669.416	4555.54
669.607	4403.99
669.798	4264.72
669.989	4266.77
670.18	4367.12
670.371	4207.38
670.563	4221.72
670.754	4305.68
670.945	4086.55
671.136	4164.37
671.327	4084.5
671.518	4127.51
671.709	4086.55
671.9	4107.03
672.091	4029.21
672.282	3971.86
672.473	3922.71
672.664	3799.84
672.855	3996.44
673.046	4096.79
673.237	4008.73
673.428	3990.3
673.619	3953.43
673.809	3947.29
674	3822.36
674.191	3838.75
674.382	3894.04
674.573	4039.45
674.764	3822.36
674.954	3750.68
675.145	3679.01
675.336	3724.06
675.527	3730.2
675.717	3590.94
675.908	3580.7
676.099	3754.78
676.289	3679.01
676.48	3519.26
676.671	3750.68
676.861	3580.7
677.052	3580.7
677.243	3574.56
677.433	3545.89
677.624	3451.68
677.814	3490.59
678.005	3519.26
678.195	3625.76
678.386	3461.92
678.576	3533.6
678.767	3468.06
678.957	3558.18
679.148	3484.45
679.338	3459.87
679.529	3435.3
679.719	3484.45
679.909	3435.3
680.1	3320.61
680.29	3371.81
680.481	3406.63
680.671	3361.57
680.861	3308.32
681.052	3388.19
681.242	3287.84
681.432	3343.14
681.622	3255.08
681.813	3324.71
682.003	3191.59
682.193	3259.17
682.383	3173.16
682.573	3228.45
682.764	3160.87
682.954	3095.33
683.144	3191.59
683.334	3177.25
683.524	3183.4
683.714	3142.44
683.904	3156.77
684.094	3187.49
684.284	3132.2
684.474	3111.72
684.664	3089.19
684.854	3144.49
685.044	3066.66
685.234	3042.09
685.424	2997.03
685.614	3023.66
685.804	2976.55
685.994	2923.3
686.184	3001.13
686.374	2972.46
686.564	2888.49
686.753	3009.32
686.943	3025.7
687.133	2827.05
687.323	2884.39
687.513	2786.09
687.702	2927.4
687.892	2829.1
688.082	2847.53
688.272	2775.85
688.461	2829.1
688.651	2843.43
688.841	2757.42
689.03	2757.42
689.22	2878.25
689.41	2741.04
689.599	2718.51
689.789	2773.8
689.979	2724.65
690.168	2784.04
690.358	2679.6
690.547	2738.99
690.737	2738.99
690.926	2777.9
691.116	2755.37
691.305	2671.4
691.495	2657.07
691.684	2671.4
691.874	2405.17
692.063	2636.59
692.252	2523.95
692.442	2655.02
692.631	2474.8
692.82	2546.48
693.01	2530.09
693.199	2456.37
693.388	2495.28
693.578	2415.41
693.767	2460.46
693.956	2456.37
694.146	2454.32
694.335	2409.26
694.524	2413.36
694.713	2487.09
694.902	2464.56
695.092	2521.9
695.281	2419.5
695.47	2507.57
695.659	2331.44
695.848	2198.32
696.037	2315.06
696.226	2333.49
696.415	2401.07
696.604	2378.55
696.793	2349.87
696.982	2333.49
697.171	2317.11
697.36	2360.11
697.549	2353.97
697.738	2249.52
697.927	2288.43
698.116	2427.7
698.305	2126.64
698.494	2233.14
698.683	2247.48
698.872	2372.4
699.061	2304.82
699.25	2290.48
699.438	2237.24
699.627	2259.76
699.816	2298.67
700.005	2323.25
700.193	2329.39
700.382	2333.49
700.571	2183.99
700.76	2202.42
700.948	2298.67
701.137	2194.23
701.326	2198.32
701.514	2270
701.703	2198.32
701.892	2216.76
702.08	2206.52
702.269	2267.95
702.457	2145.08
702.646	2198.32
702.834	2095.93
703.023	2167.6
703.212	2120.5
703.4	2073.4
703.589	2155.32
703.777	2153.27
703.965	2183.99
704.154	2161.46
704.342	2210.61
704.531	2093.88
704.719	2208.56
704.907	2108.21
705.096	2067.25
705.284	2079.54
705.472	2126.64
705.661	2038.58
705.849	2159.41
706.037	2147.12
706.226	2083.64
706.414	2081.59
706.602	2145.08
706.79	2100.02
706.979	2102.07
707.167	2046.77
707.355	2102.07
707.543	2214.71
707.731	2132.79
707.919	2151.22
708.107	2181.94
708.296	2042.68
708.484	2112.31
708.672	2050.87
708.86	2034.49
709.048	2020.15
709.236	2036.53
709.424	2075.45
709.612	2003.77
709.8	2054.97
709.988	2059.06
710.176	2014.01
710.364	2095.93
710.551	2087.73
710.739	2083.64
710.927	2044.73
711.115	2077.49
711.303	2044.73
711.491	2091.83
711.679	1999.67
711.866	2057.01
712.054	2020.15
712.242	2069.3
712.43	2091.83
712.617	2059.06
712.805	2116.41
712.993	2069.3
713.181	1987.38
713.368	2024.25
713.556	2085.69
713.744	1987.38
713.931	2120.5
714.119	1936.18
714.306	1995.57
714.494	2087.73
714.682	2048.82
714.869	2044.73
715.057	2014.01
715.244	1995.57
715.432	2077.49
715.619	2106.17
715.807	2091.83
715.994	2022.2
716.182	1987.38
716.369	2120.5
716.556	2089.78
716.744	2048.82
716.931	2052.92
717.119	2116.41
717.306	2118.45
717.493	1964.86
717.681	2030.39
717.868	2028.34
718.055	2075.45
718.242	2097.97
718.43	1973.05
718.617	2067.25
718.804	2136.88
718.991	1960.76
719.179	2046.77
719.366	2014.01
719.553	2016.05
719.74	2005.81
719.927	2071.35
720.114	1948.47
720.301	2116.41
720.488	2042.68
720.676	1891.13
720.863	1944.38
721.05	2089.78
721.237	2036.53
721.424	1995.57
721.611	2022.2
721.798	1979.19
721.985	2083.64
722.172	2063.16
722.358	1927.99
722.545	1852.22
722.732	1966.9
722.919	2132.79
723.106	2018.1
723.293	1907.51
723.48	2032.44
723.667	2030.39
723.853	2046.77
724.04	2077.49
724.227	2079.54
724.414	2112.31
724.6	1958.71
724.787	2024.25
724.974	2093.88
725.161	2042.68
725.347	1995.57
725.534	1997.62
725.72	1971
725.907	2011.96
726.094	2028.34
726.28	1968.95
726.467	1973.05
726.653	1948.47
726.84	2036.53
727.027	2032.44
727.213	1882.94
727.4	1981.24
727.586	1977.14
727.773	1999.67
727.959	1968.95
728.145	2067.25
728.332	2007.86
728.518	2020.15
728.705	2083.64
728.891	2091.83
729.077	2030.39
729.264	1936.18
729.45	1956.66
729.636	2011.96
729.823	1936.18
730.009	1930.04
730.195	2052.92
730.382	1921.85
730.568	1934.14
730.754	2020.15
730.94	1925.94
731.126	2032.44
731.313	2009.91
731.499	2038.58
731.685	1985.34
731.871	1971
732.057	2059.06
732.243	1981.24
732.429	2030.39
732.615	1979.19
732.801	2114.36
732.987	2048.82
733.173	2067.25
733.359	1927.99
733.545	2048.82
733.731	1968.95
733.917	2009.91
734.103	2108.21
734.289	2024.25
734.475	1971
734.661	2114.36
734.847	1999.67
735.033	1872.7
735.219	2071.35
735.404	2003.77
735.59	2014.01
735.776	1940.28
735.962	2001.72
736.148	2009.91
736.333	1936.18
736.519	1936.18
736.705	1958.71
736.89	1887.03
737.076	1958.71
737.262	1948.47
737.447	1889.08
737.633	1952.57
737.819	1860.41
738.004	1833.79
738.19	2014.01
738.375	1878.84
738.561	1925.94
738.747	1846.07
738.932	1909.56
739.118	1923.9
739.303	1923.9
739.489	1917.75
739.674	1858.36
739.859	1923.9
740.045	1846.07
740.23	1805.11
740.416	1864.5
740.601	1966.9
740.786	1891.13
740.972	1876.79
741.157	1743.67
741.342	1911.61
741.528	1706.81
741.713	1891.13
741.898	1846.07
742.084	1782.59
742.269	1870.65
742.454	1948.47
742.639	1825.59
742.824	1858.36
743.01	1825.59
743.195	1887.03
743.38	1827.64
743.565	1737.53
743.75	1827.64
743.935	1823.55
744.12	1874.74
744.305	1725.24
744.49	1823.55
744.675	1735.48
744.86	1702.72
745.045	1778.49
745.23	1784.63
745.415	1723.2
745.6	1704.76
745.785	1755.96
745.97	1696.57
746.155	1643.32
746.34	1690.43
746.525	1661.76
746.71	1715
746.895	1706.81
747.079	1612.6
747.264	1633.08
747.449	1502.01
747.634	1680.19
747.819	1545.02
748.003	1663.8
748.188	1479.49
748.373	1588.03
748.557	1588.03
748.742	1600.32
748.927	1538.88
749.111	1583.93
749.296	1461.06
749.481	1547.07
749.665	1510.21
749.85	1555.26
750.034	1583.93
750.219	1536.83
750.404	1459.01
750.588	1461.06
750.773	1438.53
750.957	1510.21
751.141	1459.01
751.326	1495.87
751.51	1420.1
751.695	1381.18
751.879	1358.66
752.064	1424.19
752.248	1411.9
752.432	1497.92
752.617	1321.79
752.801	1399.62
752.985	1297.22
753.17	1430.34
753.354	1391.42
753.538	1325.89
753.722	1379.14
753.907	1325.89
754.091	1391.42
754.275	1389.38
754.459	1272.64
754.643	1295.17
754.828	1289.03
755.012	1301.31
755.196	1266.5
755.38	1286.98
755.564	1264.45
755.748	1215.3
755.932	1313.6
756.116	1309.51
756.3	1047.37
756.484	1157.96
756.668	1174.34
756.852	1155.91
757.036	1190.72
757.22	1243.97
757.404	1186.63
757.588	1096.52
757.772	1119.04
757.956	1141.57
758.14	1092.42
758.323	1135.43
758.507	1211.2
758.691	1088.32
758.875	1160
759.059	1125.19
759.242	1047.37
759.426	1047.37
759.61	1125.19
759.794	996.17
759.977	1149.76
760.161	1065.8
760.345	1141.57
760.528	1086.28
760.712	1117
760.895	1037.13
761.079	985.93
761.263	992.07
761.446	1059.65
761.63	992.07
761.813	1049.41
761.997	969.54
762.18	985.93
762.364	971.59
762.547	938.82
762.731	985.93
762.914	979.78
763.098	994.12
763.281	881.48
763.464	965.45
763.648	947.01
763.831	990.02
764.015	867.14
764.198	971.59
764.381	985.93
764.564	856.9
764.748	901.96
764.931	879.43
765.114	928.58
765.297	901.96
765.481	809.8
765.664	979.78
765.847	949.06
766.03	897.86
766.213	891.72
766.397	979.78
766.58	856.9
766.763	947.01
766.946	949.06
767.129	865.1
767.312	936.78
767.495	813.9
767.678	879.43
767.861	756.55
768.044	920.39
768.227	856.9
768.41	830.28
768.593	858.95
768.776	846.66
768.959	848.71
769.142	869.19
769.324	828.23
769.507	817.99
769.69	830.28
769.873	836.42
770.056	953.16
770.239	856.9
770.421	850.76
770.604	869.19
770.787	777.03
770.97	803.66
771.152	822.09
771.335	938.82
771.518	764.75
771.7	717.64
771.883	865.1
772.066	774.99
772.248	830.28
772.431	836.42
772.613	781.13
772.796	742.22
772.978	793.42
773.161	836.42
773.343	801.61
773.526	695.11
773.708	783.18
773.891	686.92
774.073	723.79
774.256	664.4
774.438	844.62
774.621	729.93
774.803	660.3
774.985	680.78
775.168	684.87
775.35	699.21
775.532	701.26
775.715	734.03
775.897	734.03
776.079	697.16
776.261	695.11
776.444	682.83
776.626	736.07
776.808	682.83
776.99	605
777.173	654.16
777.355	650.06
777.537	699.21
777.719	617.29
777.901	578.38
778.083	609.1
778.265	633.68
778.447	578.38
778.629	660.3
778.811	590.67
778.993	584.52
779.175	656.2
779.357	443.21
779.539	617.29
779.721	494.41
779.903	611.15
780.085	543.57
780.267	652.11
780.449	584.52
780.631	586.57
780.812	643.92
780.994	553.8
781.176	570.19
781.358	613.2
781.54	523.09
781.721	514.89
781.903	584.52
782.085	475.98
782.267	531.28
782.448	486.22
782.63	445.26
782.812	518.99
782.993	484.17
783.175	494.41
783.357	465.74
783.538	502.61
783.72	486.22
783.901	521.04
784.083	490.32
784.264	459.6
784.446	408.4
784.627	424.78
784.809	478.03
784.99	502.61
785.172	486.22
785.353	408.4
785.535	441.17
785.716	375.63
785.897	426.83
786.079	408.4
786.26	396.11
786.441	537.42
786.623	445.26
786.804	428.88
786.985	473.93
787.167	398.16
787.348	392.02
787.529	426.83
787.71	414.54
787.891	400.21
788.073	451.41
788.254	455.5
788.435	426.83
788.616	430.93
788.797	387.92
788.978	437.07
789.159	365.39
789.34	437.07
789.522	381.78
789.703	404.3
789.884	381.78
790.065	346.96
790.246	424.78
790.427	314.19
790.607	353.1
790.788	363.34
790.969	346.96
791.15	375.63
791.331	289.62
791.512	293.71
791.693	357.2
791.874	334.67
792.054	289.62
792.235	306
792.416	297.81
792.597	353.1
792.778	269.14
792.958	363.34
793.139	338.77
793.32	359.25
793.5	228.18
793.681	297.81
793.862	295.76
794.042	242.51
794.223	248.66
794.404	283.47
794.584	328.53
794.765	252.75
794.945	283.47
795.126	316.24
795.306	359.25
795.487	281.43
795.667	244.56
795.848	310.1
796.028	174.93
796.209	326.48
796.389	234.32
796.57	240.47
796.75	271.19
796.93	293.71
797.111	281.43
797.291	250.71
797.471	277.33
797.652	217.94
797.832	238.42
798.012	269.14
798.192	254.8
798.373	242.51
798.553	246.61
798.733	242.51
798.913	256.85
799.093	240.47
799.274	244.56
799.454	318.29
799.634	285.52
799.814	205.65
799.994	281.43
800.174	240.47
800.354	289.62
800.534	146.26
800.714	230.23
800.894	242.51
801.074	195.41
801.254	287.57
801.434	246.61
801.614	195.41
801.794	232.27
801.974	725.83
802.154	172.88
802.334	150.36
802.514	125.78
802.693	209.75
802.873	230.23
803.053	242.51
803.233	244.56
803.413	256.85
803.592	166.74
803.772	215.89
803.952	258.9
804.131	164.69
804.311	160.59
804.491	256.85
804.67	183.12
804.85	187.22
805.03	174.93
805.209	170.83
805.389	189.27
805.568	136.02
805.748	185.17
805.928	174.93
806.107	207.7
806.287	230.23
806.466	187.22
806.646	172.88
806.825	125.78
807.004	211.79
807.184	127.83
807.363	224.08
807.543	219.99
807.722	117.59
807.901	164.69
808.081	142.16
808.26	113.49
808.439	113.49
808.619	254.8
808.798	166.74
808.977	150.36
809.156	172.88
809.336	105.3
809.515	191.31
809.694	84.82
809.873	160.59
810.052	109.4
810.231	267.09
810.411	162.64
810.59	127.83
810.769	113.49
810.948	129.88
811.127	21.33
811.306	95.06
811.485	224.08
811.664	193.36
811.843	131.92
812.022	99.16
812.201	138.07
812.38	129.88
812.559	113.49
812.737	78.68
812.916	228.18
813.095	86.87
813.274	138.07
813.453	162.64
813.632	115.54
813.811	199.51
813.989	146.26
814.168	142.16
814.347	54.1
814.526	125.78
814.704	129.88
814.883	138.07
815.062	78.68
815.24	156.5
815.419	93.01
815.598	62.29
815.776	144.21
815.955	127.83
816.133	148.31
816.312	224.08
816.49	199.51
816.669	142.16
816.847	97.11
817.026	236.37
817.204	179.03
817.383	166.74
817.561	21.33
817.74	86.87
817.918	117.59
818.097	76.63
818.275	103.25
818.453	70.48
818.632	103.25
818.81	127.83
818.988	93.01
819.167	72.53
819.345	86.87
819.523	78.68
819.701	117.59
819.879	117.59
820.058	101.2
820.236	93.01
820.414	43.86
820.592	150.36
820.77	142.16
820.948	54.1
821.127	58.2
821.305	109.4
821.483	-5.29
821.661	154.45
821.839	125.78
822.017	19.29
822.195	27.48
822.373	62.29
822.551	84.82
822.729	43.86
822.907	78.68
823.085	93.01
823.262	54.1
823.44	39.76
823.618	70.48
823.796	60.24
823.974	19.29
824.152	127.83
824.329	97.11
824.507	103.25
824.685	68.44
824.863	152.4
825.04	56.15
825.218	39.76
825.396	50
825.574	93.01
825.751	150.36
825.929	97.11
826.107	41.81
826.284	93.01
826.462	95.06
826.639	62.29
826.817	25.43
826.994	117.59
827.172	119.64
827.349	84.82
827.527	31.57
827.704	95.06
827.882	54.1
828.059	127.83
828.237	82.77
828.414	109.4
828.591	-21.67
828.769	72.53
828.946	86.87
829.124	86.87
829.301	168.79
829.478	142.16
829.655	131.92
829.833	-19.63
830.01	78.68
830.187	95.06
830.364	9.05
830.542	11.09
830.719	136.02
830.896	31.57
831.073	68.44
831.25	84.82
831.427	68.44
831.604	60.24
831.782	-5.29
831.959	95.06
832.136	58.2
832.313	54.1
832.49	29.52
832.667	109.4
832.844	9.05
833.021	54.1
833.198	113.49
833.374	54.1
833.551	52.05
833.728	68.44
833.905	99.16
834.082	11.09
834.259	45.91
834.436	56.15
834.612	4.95
834.789	56.15
834.966	47.96
835.143	52.05
835.319	-25.77
835.496	35.67
835.673	35.67
835.85	47.96
836.026	95.06
836.203	47.96
836.38	29.52
836.556	43.86
836.733	27.48
836.909	117.59
837.086	43.86
837.262	-36.01
837.439	11.09
837.616	50
837.792	15.19
837.968	62.29
838.145	68.44
838.321	-50.35
838.498	56.15
838.674	99.16
838.851	35.67
839.027	31.57
839.203	11.09
839.38	172.88
839.556	111.44
839.732	-1.19
839.909	45.91
840.085	54.1
840.261	47.96
840.437	37.72
840.614	-1.19
840.79	52.05
840.966	33.62
841.142	43.86
841.318	97.11
841.494	74.58
841.671	23.38
841.847	58.2
842.023	43.86
842.199	29.52
842.375	35.67
842.551	-15.53
842.727	66.39
842.903	43.86
843.079	-5.29
843.255	95.06
843.431	60.24
843.607	101.2
843.783	66.39
843.959	21.33
844.134	-9.39
844.31	66.39
844.486	-9.39
844.662	35.67
844.838	13.14
845.013	66.39
845.189	21.33
845.365	21.33
845.541	35.67
845.716	29.52
845.892	21.33
846.068	93.01
846.244	7
846.419	62.29
846.595	27.48
846.77	19.29
846.946	-38.06
847.122	23.38
847.297	4.95
847.473	45.91
847.648	-54.44
847.824	80.72
847.999	-3.24
848.175	35.67
848.35	-38.06
848.526	78.68
848.701	39.76
848.876	-13.48
849.052	13.14
849.227	68.44
849.403	-1.19
849.578	64.34
849.753	7
849.929	4.95
850.104	43.86
850.279	19.29
850.454	7
850.63	19.29
850.805	-58.54
850.98	58.2
851.155	-19.63
851.33	60.24
851.505	-9.39
851.681	140.12
851.856	31.57
852.031	35.67
852.206	-23.72
852.381	-31.91
852.556	-60.59
852.731	21.33
852.906	115.54
853.081	86.87
853.256	37.72
853.431	19.29
853.606	-38.06
853.781	13.14
853.956	-46.25
854.131	47.96
854.305	52.05
854.48	-5.29
854.655	37.72
854.83	2.9
855.005	17.24
855.18	35.67
855.354	-60.59
855.529	19.29
855.704	-1.19
855.879	52.05
856.053	45.91
856.228	43.86
856.403	15.19
856.577	15.19
856.752	-44.2
856.926	-13.48
857.101	19.29
857.276	13.14
857.45	19.29
857.625	70.48
857.799	27.48
857.974	56.15
858.148	-19.63
858.323	31.57
858.497	56.15
858.672	2.9
858.846	-25.77
859.02	31.57
859.195	43.86
859.369	72.53
859.543	-9.39
859.718	-54.44
859.892	21.33
860.066	2.9
860.241	-3.24
860.415	2.9
860.589	31.57
860.763	-46.25
860.938	-5.29
861.112	31.57
861.286	0.85
861.46	101.2
861.634	-27.82
861.808	-1.19
861.982	-17.58
862.157	-11.43
862.331	37.72
862.505	0.85
862.679	33.62
862.853	-29.87
863.027	7
863.201	52.05
863.375	86.87
863.549	-21.67
863.722	-15.53
863.896	-23.72
864.07	-13.48
864.244	9.05
864.418	-7.34
864.592	0.85
864.766	29.52
864.939	-19.63
865.113	19.29
865.287	35.67
865.461	-58.54
865.634	19.29
865.808	21.33
865.982	-36.01
866.156	-1.19
866.329	-3.24
866.503	64.34
866.676	47.96
866.85	-33.96
867.024	47.96
867.197	2.9
867.371	-1.19
867.544	27.48
867.718	-52.39
867.891	66.39
868.065	11.09
868.238	27.48
868.412	31.57
868.585	-3.24
868.759	-11.43
868.932	-11.43
869.105	-19.63
869.279	15.19
869.452	0.85
869.625	17.24
869.799	82.77
869.972	19.29
870.145	58.2
870.319	88.92
870.492	-19.63
870.665	-9.39
870.838	-5.29
871.011	-44.2
871.185	27.48
871.358	-1.19
871.531	-40.11
871.704	43.86
871.877	68.44
872.05	-64.68
872.223	-38.06
872.396	-19.63
872.569	-13.48
872.742	-117.93
872.915	68.44
873.088	-3.24
873.261	-58.54
873.434	-11.43
873.607	4.95
873.78	11.09
873.953	-29.87
874.126	-62.63
874.299	74.58
874.471	-52.39
874.644	13.14
874.817	-3.24
874.99	-27.82
875.163	-21.67
875.335	2.9
875.508	29.52
875.681	-9.39
875.853	-33.96
876.026	-1.19
876.199	-56.49
876.371	15.19
876.544	35.67
876.717	84.82
876.889	37.72
877.062	62.29
877.234	-3.24
877.407	37.72
877.579	-17.58
877.752	47.96
877.924	-48.3
878.097	21.33
878.269	4.95
878.442	-58.54
878.614	11.09
878.786	-1.19
878.959	-52.39
879.131	-5.29
879.303	13.14
879.476	-19.63
879.648	-31.91
879.82	88.92
879.993	-42.15
880.165	-5.29
880.337	45.91
880.509	-38.06
880.681	2.9
880.854	9.05
881.026	23.38
881.198	103.25
881.37	27.48
881.542	15.19
881.714	-21.67
881.886	-40.11
882.058	-44.2
882.23	-9.39
882.402	-36.01
882.574	66.39
882.746	7
882.918	70.48
883.09	43.86
883.262	52.05
883.434	0.85
883.606	-79.02
883.778	9.05
883.95	21.33
884.122	9.05
884.293	74.58
884.465	-44.2
884.637	37.72
884.809	-11.43
884.98	-29.87
885.152	70.48
885.324	29.52
885.496	7
885.667	11.09
885.839	-44.2
886.011	-42.15
886.182	-21.67
886.354	45.91
886.525	52.05
886.697	-23.72
886.869	-19.63
887.04	2.9
887.212	19.29
887.383	64.34
887.555	60.24
887.726	27.48
887.897	2.9
888.069	17.24
888.24	35.67
888.412	-9.39
888.583	-33.96
888.754	56.15
888.926	-5.29
889.097	4.95
889.268	-40.11
889.44	-13.48
889.611	-5.29
889.782	-31.91
889.953	-62.63
890.125	29.52
890.296	-56.49
890.467	-7.34
890.638	2.9
890.809	-27.82
890.98	-76.97
891.151	-7.34
891.323	29.52
891.494	-52.39
891.665	-1.19
891.836	45.91
892.007	-13.48
892.178	-27.82
892.349	-72.87
892.52	7
892.691	-11.43
892.862	-64.68
893.032	-54.44
893.203	-7.34
893.374	-15.53
893.545	-64.68
893.716	-11.43
893.887	41.81
894.057	-42.15
894.228	43.86
894.399	-40.11
894.57	50
894.74	-27.82
894.911	29.52
895.082	-66.73
895.253	21.33
895.423	25.43
895.594	-3.24
895.764	-13.48
895.935	-5.29
896.106	-38.06
896.276	35.67
896.447	-15.53
896.617	-66.73
896.788	-48.3
896.958	-72.87
897.129	-44.2
897.299	-23.72
897.47	27.48
897.64	-46.25
897.81	-54.44
897.981	43.86
898.151	-21.67
898.322	72.53
898.492	-46.25
898.662	-44.2
898.832	-68.78
899.003	-5.29
899.173	25.43
899.343	-64.68
899.513	50
