Data from USB4F104151__87__13-13-03-090.txt Node

Date: Fri Mar 14 13:13:03 EDT 2025
User: louis
Spectrometer: USB4F10415
Trigger mode: 4
Integration Time (sec): 2.000000E-2
Scans to average: 1
Electric dark correction enabled: true
Nonlinearity correction enabled: false
Boxcar width: 0
XAxis mode: Wavelengths
Number of Pixels in Spectrum: 3648
>>>>>Begin Spectral Data<<<<<
178.204	-93.01
178.424	-93.01
178.644	-93.01
178.864	-144.21
179.084	-138.07
179.304	-54.1
179.524	23.72
179.744	15.53
179.964	38.06
180.184	-13.14
180.404	50.35
180.624	-54.1
180.844	13.48
181.064	-19.29
181.283	31.91
181.503	-33.62
181.723	1.19
181.943	-9.05
182.163	62.63
182.383	27.82
182.602	-9.05
182.822	11.43
183.042	-2.9
183.262	1.19
183.482	-35.67
183.701	21.67
183.921	9.39
184.141	-17.24
184.361	101.55
184.58	-35.67
184.8	13.48
185.02	-27.48
185.239	46.25
185.459	50.35
185.679	36.01
185.898	40.11
186.118	19.63
186.338	11.43
186.557	38.06
186.777	-56.15
186.997	38.06
187.216	7.34
187.436	-9.05
187.655	23.72
187.875	122.02
188.095	-2.9
188.314	-17.24
188.534	122.02
188.753	-29.52
188.973	-76.63
189.192	66.73
189.412	-37.72
189.631	-9.05
189.851	-13.14
190.07	76.97
190.29	-17.24
190.509	21.67
190.729	1.19
190.948	62.63
191.168	76.97
191.387	83.11
191.607	38.06
191.826	27.82
192.045	54.44
192.265	-7
192.484	13.48
192.704	50.35
192.923	-11.09
193.142	107.69
193.362	76.97
193.581	85.16
193.8	113.83
194.02	17.58
194.239	48.3
194.458	50.35
194.678	89.26
194.897	-17.24
195.116	13.48
195.335	15.53
195.555	29.87
195.774	87.21
195.993	44.2
196.212	-43.86
196.432	103.59
196.651	54.44
196.87	40.11
197.089	89.26
197.308	54.44
197.528	66.73
197.747	40.11
197.966	31.91
198.185	5.29
198.404	-4.95
198.623	54.44
198.842	25.77
199.062	42.15
199.281	13.48
199.5	46.25
199.719	25.77
199.938	25.77
200.157	91.31
200.376	1.19
200.595	103.59
200.814	-25.43
201.033	42.15
201.252	5.29
201.471	11.43
201.69	93.35
201.909	-50
202.128	9.39
202.347	64.68
202.566	-0.85
202.785	-9.05
203.004	17.58
203.223	42.15
203.442	-39.76
203.661	29.87
203.879	46.25
204.098	33.96
204.317	19.63
204.536	62.63
204.755	54.44
204.974	101.55
205.193	40.11
205.411	87.21
205.63	46.25
205.849	79.02
206.068	27.82
206.287	-21.33
206.505	58.54
206.724	66.73
206.943	13.48
207.162	29.87
207.381	33.96
207.599	-33.62
207.818	13.48
208.037	33.96
208.255	68.78
208.474	40.11
208.693	40.11
208.911	19.63
209.13	79.02
209.349	-33.62
209.567	52.39
209.786	70.83
210.005	72.87
210.223	23.72
210.442	-47.96
210.661	38.06
210.879	36.01
211.098	44.2
211.316	115.88
211.535	83.11
211.753	17.58
211.972	70.83
212.191	11.43
212.409	29.87
212.628	50.35
212.846	-25.43
213.065	58.54
213.283	72.87
213.502	52.39
213.72	-31.57
213.938	68.78
214.157	-11.09
214.375	3.24
214.594	15.53
214.812	40.11
215.031	-66.39
215.249	-19.29
215.467	38.06
215.686	52.39
215.904	23.72
216.122	42.15
216.341	87.21
216.559	79.02
216.778	83.11
216.996	81.07
217.214	19.63
217.432	13.48
217.651	-41.81
217.869	40.11
218.087	87.21
218.306	-11.09
218.524	1.19
218.742	-9.05
218.96	-7
219.179	-35.67
219.397	-2.9
219.615	1.19
219.833	21.67
220.051	25.77
220.27	68.78
220.488	79.02
220.706	21.67
220.924	60.59
221.142	38.06
221.36	17.58
221.578	7.34
221.796	25.77
222.015	-17.24
222.233	29.87
222.451	68.78
222.669	-50
222.887	56.49
223.105	38.06
223.323	5.29
223.541	9.39
223.759	-11.09
223.977	-13.14
224.195	81.07
224.413	21.67
224.631	5.29
224.849	1.19
225.067	99.5
225.285	7.34
225.503	58.54
225.721	-21.33
225.939	19.63
226.157	62.63
226.375	42.15
226.592	-47.96
226.81	76.97
227.028	-21.33
227.246	134.31
227.464	66.73
227.682	-21.33
227.9	9.39
228.117	15.53
228.335	56.49
228.553	29.87
228.771	31.91
228.989	29.87
229.206	79.02
229.424	95.4
229.642	9.39
229.86	-9.05
230.077	97.45
230.295	7.34
230.513	50.35
230.731	-2.9
230.948	64.68
231.166	23.72
231.384	25.77
231.601	5.29
231.819	128.17
232.037	-7
232.254	-21.33
232.472	29.87
232.689	40.11
232.907	-11.09
233.125	11.43
233.342	113.83
233.56	-62.29
233.777	40.11
233.995	89.26
234.213	-19.29
234.43	-41.81
234.648	7.34
234.865	-11.09
235.083	-17.24
235.3	-2.9
235.518	-0.85
235.735	60.59
235.953	36.01
236.17	-17.24
236.388	-27.48
236.605	46.25
236.822	-27.48
237.04	29.87
237.257	5.29
237.475	25.77
237.692	111.78
237.909	70.83
238.127	74.92
238.344	17.58
238.562	25.77
238.779	-9.05
238.996	-74.58
239.214	56.49
239.431	50.35
239.648	56.49
239.865	15.53
240.083	27.82
240.3	25.77
240.517	-29.52
240.735	122.02
240.952	3.24
241.169	25.77
241.386	-27.48
241.603	15.53
241.821	46.25
242.038	76.97
242.255	-15.19
242.472	50.35
242.689	21.67
242.907	70.83
243.124	13.48
243.341	-25.43
243.558	17.58
243.775	-0.85
243.992	-25.43
244.209	46.25
244.426	70.83
244.643	-29.52
244.86	-4.95
245.078	38.06
245.295	95.4
245.512	-11.09
245.729	27.82
245.946	50.35
246.163	9.39
246.38	54.44
246.597	13.48
246.814	56.49
247.031	25.77
247.248	70.83
247.464	62.63
247.681	27.82
247.898	38.06
248.115	19.63
248.332	23.72
248.549	7.34
248.766	74.92
248.983	87.21
249.2	58.54
249.417	158.89
249.633	-15.19
249.85	-11.09
250.067	11.43
250.284	40.11
250.501	66.73
250.717	21.67
250.934	-11.09
251.151	1.19
251.368	29.87
251.585	15.53
251.801	29.87
252.018	29.87
252.235	29.87
252.451	7.34
252.668	66.73
252.885	56.49
253.102	17.58
253.318	-2.9
253.535	-37.72
253.752	52.39
253.968	58.54
254.185	23.72
254.401	42.15
254.618	38.06
254.835	-17.24
255.051	42.15
255.268	15.53
255.484	52.39
255.701	29.87
255.917	103.59
256.134	-50
256.351	50.35
256.567	-27.48
256.784	-4.95
257	-68.44
257.217	-0.85
257.433	64.68
257.65	-15.19
257.866	9.39
258.082	-56.15
258.299	17.58
258.515	17.58
258.732	11.43
258.948	13.48
259.165	7.34
259.381	44.2
259.597	17.58
259.814	81.07
260.03	-39.76
260.246	-2.9
260.463	64.68
260.679	44.2
260.895	29.87
261.112	-13.14
261.328	-21.33
261.544	29.87
261.761	105.64
261.977	-0.85
262.193	23.72
262.409	58.54
262.626	25.77
262.842	11.43
263.058	21.67
263.274	1.19
263.49	15.53
263.707	7.34
263.923	27.82
264.139	-60.24
264.355	-4.95
264.571	33.96
264.787	-45.91
265.004	-7
265.22	97.45
265.436	38.06
265.652	7.34
265.868	115.88
266.084	-15.19
266.3	-31.57
266.516	23.72
266.732	40.11
266.948	56.49
267.164	81.07
267.38	54.44
267.596	21.67
267.812	119.98
268.028	15.53
268.244	-68.44
268.46	56.49
268.676	25.77
268.892	-15.19
269.108	46.25
269.324	40.11
269.54	101.55
269.756	50.35
269.972	-15.19
270.188	9.39
270.403	-7
270.619	1.19
270.835	1.19
271.051	-21.33
271.267	-13.14
271.483	21.67
271.698	46.25
271.914	40.11
272.13	115.88
272.346	-15.19
272.562	97.45
272.777	87.21
272.993	7.34
273.209	3.24
273.425	-23.38
273.64	66.73
273.856	40.11
274.072	5.29
274.287	-54.1
274.503	5.29
274.719	9.39
274.934	62.63
275.15	56.49
275.366	15.53
275.581	50.35
275.797	54.44
276.012	27.82
276.228	38.06
276.444	5.29
276.659	60.59
276.875	-7
277.09	89.26
277.306	25.77
277.521	50.35
277.737	40.11
277.952	40.11
278.168	7.34
278.383	15.53
278.599	-23.38
278.814	46.25
279.03	-62.29
279.245	58.54
279.461	52.39
279.676	13.48
279.892	-15.19
280.107	1.19
280.322	-11.09
280.538	68.78
280.753	33.96
280.969	85.16
281.184	33.96
281.399	40.11
281.615	-11.09
281.83	-7
282.045	5.29
282.26	9.39
282.476	-41.81
282.691	31.91
282.906	40.11
283.122	-27.48
283.337	-52.05
283.552	54.44
283.767	38.06
283.983	40.11
284.198	9.39
284.413	21.67
284.628	-45.91
284.843	-15.19
285.058	58.54
285.274	19.63
285.489	-2.9
285.704	79.02
285.919	13.48
286.134	74.92
286.349	13.48
286.564	-11.09
286.779	105.64
286.995	13.48
287.21	33.96
287.425	46.25
287.64	7.34
287.855	50.35
288.07	58.54
288.285	29.87
288.5	85.16
288.715	-21.33
288.93	-19.29
289.145	-43.86
289.36	66.73
289.575	38.06
289.79	13.48
290.004	-15.19
290.219	56.49
290.434	36.01
290.649	79.02
290.864	13.48
291.079	44.2
291.294	52.39
291.509	50.35
291.724	87.21
291.938	46.25
292.153	7.34
292.368	11.43
292.583	33.96
292.798	9.39
293.012	38.06
293.227	-52.05
293.442	7.34
293.657	58.54
293.871	54.44
294.086	99.5
294.301	9.39
294.516	103.59
294.73	-31.57
294.945	-15.19
295.16	74.92
295.374	-13.14
295.589	64.68
295.804	5.29
296.018	36.01
296.233	72.87
296.447	33.96
296.662	-41.81
296.877	46.25
297.091	46.25
297.306	3.24
297.52	-31.57
297.735	-43.86
297.949	-15.19
298.164	85.16
298.378	17.58
298.593	38.06
298.807	64.68
299.022	40.11
299.236	7.34
299.451	-50
299.665	72.87
299.88	13.48
300.094	36.01
300.309	54.44
300.523	44.2
300.737	103.59
300.952	-2.9
301.166	46.25
301.381	23.72
301.595	93.35
301.809	13.48
302.024	33.96
302.238	29.87
302.452	70.83
302.667	162.98
302.881	40.11
303.095	23.72
303.309	-0.85
303.524	-2.9
303.738	-25.43
303.952	17.58
304.166	70.83
304.381	-27.48
304.595	-33.62
304.809	15.53
305.023	21.67
305.237	13.48
305.452	27.82
305.666	46.25
305.88	-19.29
306.094	1.19
306.308	25.77
306.522	25.77
306.736	40.11
306.95	-39.76
307.164	7.34
307.379	15.53
307.593	27.82
307.807	-33.62
308.021	-17.24
308.235	-11.09
308.449	9.39
308.663	19.63
308.877	130.22
309.091	-58.2
309.305	83.11
309.519	-2.9
309.733	-27.48
309.947	-4.95
310.161	54.44
310.374	29.87
310.588	3.24
310.802	-33.62
311.016	13.48
311.23	21.67
311.444	-4.95
311.658	21.67
311.872	52.39
312.085	66.73
312.299	81.07
312.513	52.39
312.727	17.58
312.941	36.01
313.154	-23.38
313.368	23.72
313.582	-41.81
313.796	23.72
314.009	42.15
314.223	29.87
314.437	89.26
314.651	36.01
314.864	46.25
315.078	52.39
315.292	-25.43
315.505	-15.19
315.719	58.54
315.933	79.02
316.146	-7
316.36	-52.05
316.573	1.19
316.787	5.29
317.001	-31.57
317.214	-2.9
317.428	36.01
317.641	48.3
317.855	33.96
318.068	-27.48
318.282	15.53
318.495	33.96
318.709	21.67
318.922	60.59
319.136	29.87
319.349	66.73
319.563	38.06
319.776	91.31
319.99	1.19
320.203	33.96
320.417	-52.05
320.63	44.2
320.843	89.26
321.057	58.54
321.27	-60.24
321.483	42.15
321.697	72.87
321.91	19.63
322.124	9.39
322.337	23.72
322.55	-23.38
322.763	-13.14
322.977	-2.9
323.19	17.58
323.403	5.29
323.617	52.39
323.83	50.35
324.043	46.25
324.256	52.39
324.469	62.63
324.683	-25.43
324.896	-23.38
325.109	68.78
325.322	-25.43
325.535	15.53
325.748	83.11
325.962	21.67
326.175	81.07
326.388	-11.09
326.601	25.77
326.814	1.19
327.027	64.68
327.24	31.91
327.453	-41.81
327.666	46.25
327.879	62.63
328.092	105.64
328.305	48.3
328.518	44.2
328.731	-109.4
328.944	83.11
329.157	-15.19
329.37	56.49
329.583	72.87
329.796	48.3
330.009	25.77
330.222	50.35
330.435	-9.05
330.648	23.72
330.861	21.67
331.073	33.96
331.286	17.58
331.499	3.24
331.712	-31.57
331.925	-19.29
332.138	13.48
332.35	5.29
332.563	60.59
332.776	76.97
332.989	72.87
333.202	50.35
333.414	-64.34
333.627	111.78
333.84	70.83
334.053	64.68
334.265	46.25
334.478	-97.11
334.691	40.11
334.903	15.53
335.116	-2.9
335.329	31.91
335.541	130.22
335.754	89.26
335.966	44.2
336.179	-2.9
336.392	27.82
336.604	-45.91
336.817	-7
337.029	5.29
337.242	33.96
337.454	-2.9
337.667	-2.9
337.88	29.87
338.092	3.24
338.305	68.78
338.517	29.87
338.729	64.68
338.942	17.58
339.154	19.63
339.367	-72.53
339.579	25.77
339.792	-29.52
340.004	-4.95
340.217	54.44
340.429	38.06
340.641	-11.09
340.854	62.63
341.066	-7
341.278	62.63
341.491	76.97
341.703	7.34
341.915	-19.29
342.128	83.11
342.34	11.43
342.552	48.3
342.764	-17.24
342.977	7.34
343.189	7.34
343.401	103.59
343.613	17.58
343.826	-50
344.038	21.67
344.25	-9.05
344.462	-76.63
344.674	60.59
344.886	62.63
345.099	-15.19
345.311	105.64
345.523	81.07
345.735	-76.63
345.947	9.39
346.159	46.25
346.371	36.01
346.583	64.68
346.795	21.67
347.007	15.53
347.219	33.96
347.431	7.34
347.643	-11.09
347.855	87.21
348.067	31.91
348.279	58.54
348.491	31.91
348.703	-0.85
348.915	36.01
349.127	-88.92
349.339	-27.48
349.551	29.87
349.763	-11.09
349.975	27.82
350.187	13.48
350.399	101.55
350.61	50.35
350.822	54.44
351.034	13.48
351.246	-41.81
351.458	17.58
351.669	89.26
351.881	29.87
352.093	29.87
352.305	44.2
352.517	5.29
352.728	70.83
352.94	-47.96
353.152	52.39
353.363	-9.05
353.575	-37.72
353.787	23.72
353.999	-23.38
354.21	38.06
354.422	21.67
354.633	52.39
354.845	21.67
355.057	1.19
355.268	-41.81
355.48	42.15
355.692	99.5
355.903	42.15
356.115	-33.62
356.326	-35.67
356.538	50.35
356.749	40.11
356.961	58.54
357.172	-4.95
357.384	40.11
357.595	87.21
357.807	-4.95
358.018	1.19
358.23	29.87
358.441	29.87
358.653	17.58
358.864	11.43
359.075	83.11
359.287	-19.29
359.498	115.88
359.709	15.53
359.921	25.77
360.132	95.4
360.344	5.29
360.555	54.44
360.766	87.21
360.977	-47.96
361.189	134.31
361.4	-15.19
361.611	56.49
361.823	79.02
362.034	64.68
362.245	25.77
362.456	97.45
362.667	31.91
362.879	-9.05
363.09	60.59
363.301	33.96
363.512	79.02
363.723	23.72
363.935	-4.95
364.146	70.83
364.357	-4.95
364.568	7.34
364.779	-25.43
364.99	56.49
365.201	50.35
365.412	101.55
365.623	58.54
365.834	29.87
366.045	48.3
366.256	7.34
366.467	99.5
366.678	46.25
366.889	29.87
367.1	9.39
367.311	66.73
367.522	17.58
367.733	54.44
367.944	48.3
368.155	62.63
368.366	54.44
368.577	66.73
368.788	72.87
368.999	-17.24
369.209	38.06
369.42	44.2
369.631	46.25
369.842	33.96
370.053	17.58
370.264	83.11
370.474	5.29
370.685	70.83
370.896	64.68
371.107	31.91
371.317	56.49
371.528	-19.29
371.739	9.39
371.95	-15.19
372.16	21.67
372.371	-0.85
372.582	23.72
372.792	48.3
373.003	33.96
373.214	9.39
373.424	83.11
373.635	60.59
373.846	-4.95
374.056	7.34
374.267	40.11
374.477	72.87
374.688	105.64
374.898	44.2
375.109	58.54
375.319	17.58
375.53	99.5
375.74	9.39
375.951	11.43
376.161	27.82
376.372	58.54
376.582	13.48
376.793	60.59
377.003	64.68
377.214	-0.85
377.424	83.11
377.635	-2.9
377.845	1.19
378.055	9.39
378.266	58.54
378.476	7.34
378.686	7.34
378.897	23.72
379.107	64.68
379.317	29.87
379.528	19.63
379.738	1.19
379.948	-27.48
380.158	66.73
380.369	83.11
380.579	58.54
380.789	46.25
380.999	97.45
381.21	70.83
381.42	87.21
381.63	15.53
381.84	38.06
382.05	21.67
382.261	79.02
382.471	103.59
382.681	54.44
382.891	107.69
383.101	33.96
383.311	29.87
383.521	68.78
383.731	62.63
383.941	1.19
384.151	-11.09
384.361	-27.48
384.571	-27.48
384.781	-2.9
384.991	70.83
385.201	91.31
385.411	-15.19
385.621	-27.48
385.831	31.91
386.041	58.54
386.251	-35.67
386.461	-15.19
386.671	58.54
386.881	68.78
387.091	25.77
387.301	19.63
387.511	64.68
387.72	-64.34
387.93	25.77
388.14	-13.14
388.35	44.2
388.56	91.31
388.769	48.3
388.979	29.87
389.189	21.67
389.399	-2.9
389.609	25.77
389.818	87.21
390.028	169.13
390.238	81.07
390.447	111.78
390.657	70.83
390.867	66.73
391.076	-39.76
391.286	58.54
391.496	38.06
391.705	13.48
391.915	50.35
392.125	31.91
392.334	38.06
392.544	21.67
392.753	62.63
392.963	-2.9
393.172	42.15
393.382	27.82
393.591	17.58
393.801	79.02
394.01	111.78
394.22	72.87
394.429	107.69
394.639	-2.9
394.848	115.88
395.058	21.67
395.267	19.63
395.477	79.02
395.686	103.59
395.895	62.63
396.105	62.63
396.314	54.44
396.524	87.21
396.733	46.25
396.942	79.02
397.152	38.06
397.361	40.11
397.57	21.67
397.78	68.78
397.989	83.11
398.198	54.44
398.407	62.63
398.617	52.39
398.826	23.72
399.035	54.44
399.244	142.5
399.453	122.02
399.663	119.98
399.872	111.78
400.081	70.83
400.29	81.07
400.499	46.25
400.708	103.59
400.917	23.72
401.127	56.49
401.336	62.63
401.545	62.63
401.754	29.87
401.963	46.25
402.172	66.73
402.381	115.88
402.59	70.83
402.799	54.44
403.008	64.68
403.217	70.83
403.426	101.55
403.635	99.5
403.844	56.49
404.053	56.49
404.262	146.6
404.471	72.87
404.68	79.02
404.888	38.06
405.097	64.68
405.306	72.87
405.515	128.17
405.724	72.87
405.933	171.18
406.142	154.79
406.35	138.41
406.559	72.87
406.768	64.68
406.977	167.08
407.185	85.16
407.394	205.99
407.603	117.93
407.812	167.08
408.02	105.64
408.229	132.26
408.438	117.93
408.646	103.59
408.855	140.46
409.064	222.38
409.272	134.31
409.481	160.94
409.69	154.79
409.898	97.45
410.107	160.94
410.315	171.18
410.524	154.79
410.733	146.6
410.941	265.38
411.15	175.27
411.358	226.47
411.567	203.94
411.775	228.52
411.984	226.47
412.192	242.85
412.401	271.53
412.609	318.63
412.818	302.25
413.026	230.57
413.234	251.05
413.443	257.19
413.651	257.19
413.86	298.15
414.068	332.97
414.276	335.01
414.485	275.62
414.693	386.21
414.901	406.69
415.11	312.49
415.318	386.21
415.526	445.6
415.734	459.94
415.943	408.74
416.151	431.27
416.359	337.06
416.567	437.41
416.776	400.55
416.984	498.85
417.192	461.99
417.4	521.38
417.608	449.7
417.817	500.9
418.025	550.05
418.233	703.65
418.441	578.72
418.649	593.06
418.857	627.87
419.065	668.83
419.273	703.65
419.481	689.31
419.689	795.81
419.897	767.13
420.105	789.66
420.313	713.89
420.521	973.98
420.729	775.33
420.937	838.81
421.145	955.55
421.353	1014.94
421.561	998.56
421.769	996.51
421.977	1051.8
422.185	1066.14
422.393	1111.19
422.601	1148.06
422.809	1225.88
423.017	1262.74
423.224	1268.89
423.432	1303.7
423.64	1275.03
423.848	1393.81
424.056	1467.54
424.263	1479.83
424.471	1520.79
424.679	1430.68
424.887	1569.94
425.094	1643.67
425.302	1522.84
425.51	1707.15
425.718	1805.46
425.925	1799.31
426.133	1887.37
426.341	1977.48
426.548	1961.1
426.756	2059.4
426.964	2026.64
427.171	2145.42
427.379	2102.41
427.586	2135.18
427.794	2301.06
428.001	2409.61
428.209	2540.68
428.417	2438.28
428.624	2616.45
428.832	2747.52
429.039	2653.31
429.247	2647.17
429.454	2821.25
429.662	3089.53
429.869	2907.26
430.076	3114.11
430.284	2983.04
430.491	3175.55
430.699	3275.9
430.906	3359.86
431.114	3390.58
431.321	3556.47
431.528	3572.85
431.736	3755.12
431.943	3937.39
432.15	3773.55
432.358	3771.51
432.565	4170.86
432.772	4187.24
432.979	4459.62
433.187	4256.87
433.394	4316.26
433.601	4519.01
433.808	4830.3
434.016	4582.5
434.223	4820.07
434.43	5194.84
434.637	4938.85
434.844	5330.01
435.052	5424.22
435.259	5514.33
435.466	5549.14
435.673	5461.08
435.88	5766.23
436.087	6132.81
436.294	6118.48
436.501	5903.44
436.708	6186.06
436.915	6413.38
437.122	6642.76
437.329	6497.35
437.537	6730.82
437.743	6960.19
437.95	6931.52
438.157	7246.91
438.364	7402.55
438.571	7398.46
438.778	7752.76
438.985	8215.6
439.192	7754.8
439.399	8197.17
439.606	7697.46
439.813	8356.91
440.02	8983.59
440.227	8653.86
440.433	8647.72
440.64	9188.38
440.847	8854.56
441.054	9219.1
441.261	9722.9
441.467	9595.93
441.674	9776.15
441.881	10032.15
442.088	9878.55
442.294	10011.67
442.501	10288.14
442.708	10368.01
442.914	10820.61
443.121	11101.19
443.328	10957.83
443.534	11836.41
443.741	11430.91
443.948	11465.72
444.154	12145.65
444.361	11840.5
444.568	12018.68
444.774	12282.86
444.981	12366.83
445.187	12751.85
445.394	13167.59
445.6	13059.04
445.807	14318.54
446.013	13777.88
446.22	13800.41
446.426	14420.94
446.633	14652.36
446.839	15074.24
447.046	14427.09
447.252	15256.51
447.459	15461.31
447.665	15573.95
447.871	16112.56
448.078	16608.17
448.284	15926.2
448.491	16106.42
448.697	16927.66
448.903	17365.92
449.11	17437.6
449.316	17046.44
449.522	17433.5
449.728	17925.02
449.935	17941.4
450.141	18037.66
450.347	18326.42
450.553	17849.24
450.76	17933.21
450.966	18678.67
451.172	18641.81
451.378	19151.75
451.584	18690.96
451.791	19161.99
451.997	19018.63
452.203	19180.42
452.409	19520.38
452.615	19469.19
452.821	18785.16
453.027	18398.1
453.233	19719.04
453.44	18650
453.646	18996.1
453.852	19071.88
454.058	19489.67
454.264	18721.68
454.47	19442.56
454.676	18678.67
454.882	19532.67
455.088	17724.32
455.294	18158.49
455.5	18103.19
455.705	18477.97
455.911	17855.39
456.117	17372.07
456.323	17216.42
456.529	16499.63
456.735	17257.38
456.941	16708.52
457.147	16221.11
457.352	15637.44
457.558	15823.8
457.764	15623.1
457.97	15567.81
458.176	15113.16
458.381	15084.48
458.587	14455.76
458.793	14511.05
458.999	13757.4
459.204	14580.68
459.41	14156.75
459.616	13124.58
459.821	13321.18
460.027	13356
460.233	12860.39
460.438	12334.06
460.644	12680.17
460.85	11877.37
461.055	11561.98
461.261	11564.03
461.466	10798.09
461.672	10402.83
461.878	11232.26
462.083	10581
462.289	10335.24
462.494	10263.57
462.7	9802.77
462.905	9581.59
463.111	9720.85
463.316	9784.34
463.522	9899.03
463.727	9692.18
463.932	9575.45
464.138	9421.85
464.343	9317.4
464.549	9198.62
464.754	9516.06
464.959	9413.66
465.165	9487.39
465.37	8916
465.575	8684.58
465.781	8938.53
465.986	9167.9
466.191	8737.83
466.397	8518.7
466.602	8408.11
466.807	8506.41
467.012	8641.57
467.218	8520.74
467.423	8434.73
467.628	8483.88
467.833	8954.91
468.038	8467.5
468.244	8088.62
468.449	8432.68
468.654	8211.5
468.859	8358.96
469.064	8283.18
469.269	7998.51
469.474	7830.58
469.679	7982.13
469.885	7703.61
470.09	8004.66
470.295	8084.53
470.5	7611.45
470.705	7824.44
470.91	7674.93
471.115	7558.2
471.32	7736.37
471.525	7523.38
471.73	7433.27
471.935	7322.68
472.139	7332.92
472.344	7283.77
472.549	7384.12
472.754	7148.61
472.959	7042.11
473.164	6956.1
473.369	6710.34
473.574	6999.1
473.778	7019.58
473.983	6839.36
474.188	6786.12
474.393	6386.76
474.598	6706.24
474.802	6235.21
475.007	6411.34
475.212	6517.83
475.417	6233.16
475.621	6409.29
475.826	6231.12
476.031	6206.54
476.235	5864.53
476.44	6214.73
476.645	5848.15
476.849	6085.71
477.054	5993.55
477.259	5784.66
477.463	5821.52
477.668	5706.84
477.872	5751.89
478.077	5747.79
478.282	5579.86
478.486	5465.18
478.691	5430.36
478.895	5272.67
479.1	5387.35
479.304	5405.78
479.509	5272.67
479.713	5364.82
479.918	5188.7
480.122	5231.71
480.326	5082.21
480.531	5153.88
480.735	5174.36
480.94	5000.29
481.144	5334.11
481.348	4990.05
481.553	4944.99
481.757	4947.04
481.961	5012.57
482.166	5047.39
482.37	5024.86
482.574	4965.47
482.778	4961.37
482.983	5145.69
483.187	5129.31
483.391	5149.79
483.595	4924.51
483.8	4965.47
484.004	4936.8
484.208	5168.22
484.412	4910.18
484.616	4848.74
484.821	4934.75
485.025	5016.67
485.229	5043.29
485.433	4918.37
485.637	5012.57
485.841	4914.27
486.045	4949.09
486.249	5031.01
486.453	4924.51
486.657	5063.77
486.861	5031.01
487.065	4863.07
487.269	4975.71
487.473	4998.24
487.677	4959.33
487.881	5190.75
488.085	4777.06
488.289	4998.24
488.493	4912.22
488.697	4914.27
488.901	5020.77
489.105	5041.25
489.309	5149.79
489.512	5071.97
489.716	5137.5
489.92	5176.41
490.124	5033.05
490.328	5018.72
490.531	4969.57
490.735	5094.49
490.939	4949.09
491.143	5071.97
491.346	5184.6
491.55	5217.37
491.754	5057.63
491.958	5051.49
492.161	5182.56
492.365	5268.57
492.569	5211.23
492.772	5258.33
492.976	5311.58
493.18	5223.51
493.383	5338.2
493.587	5315.67
493.79	5489.75
493.994	5407.83
494.197	5614.68
494.401	5448.79
494.605	5485.65
494.808	5450.84
495.012	5624.92
495.215	5665.88
495.419	5663.83
495.622	5651.54
495.825	5780.56
496.029	5651.54
496.232	5813.33
496.436	5782.61
496.639	5975.12
496.843	5854.29
497.046	6038.61
497.249	6282.31
497.453	6165.58
497.656	6417.48
497.859	6239.31
498.063	6259.79
498.266	6452.3
498.469	6511.69
498.673	6497.35
498.876	6659.14
499.079	6718.53
499.282	6763.59
499.485	6960.19
499.689	6831.17
499.892	6886.47
500.095	6829.12
500.298	7220.28
500.501	7017.54
500.705	7361.59
500.908	7404.6
501.111	7429.18
501.314	7509.05
501.517	7384.12
501.72	7525.43
501.923	7472.18
502.126	7664.69
502.329	8055.86
502.532	7877.68
502.735	8123.44
502.938	8166.45
503.141	8444.97
503.344	8285.23
503.547	8180.78
503.75	8442.92
503.953	8356.91
504.156	8541.22
504.359	8758.31
504.562	8789.03
504.765	9057.31
504.968	8905.76
505.17	9303.07
505.373	9024.54
505.576	9368.6
505.779	9368.6
505.982	9567.26
506.185	9571.35
506.387	9888.79
506.59	9724.95
506.793	10060.82
506.996	9815.06
507.198	10286.09
507.401	10198.03
507.604	10263.57
507.807	10617.86
508.009	10697.74
508.212	10581
508.415	10949.64
508.617	10714.12
508.82	11146.24
509.022	10687.5
509.225	11299.84
509.428	11287.55
509.63	11539.45
509.833	11357.18
510.035	11695.1
510.238	11799.54
510.44	11893.75
510.643	11957.24
510.845	12129.27
511.048	11977.72
511.25	12409.84
511.453	12444.65
511.655	13009.89
511.858	12641.26
512.06	12811.24
512.262	12858.34
512.465	12917.73
512.667	13216.74
512.87	13140.96
513.072	13214.69
513.274	13749.21
513.477	13634.52
513.679	13804.5
513.881	13992.92
514.084	14005.2
514.286	14281.68
514.488	14455.76
514.69	14613.45
514.893	14533.58
515.095	14834.63
515.297	14971.85
515.499	15225.79
515.701	15360.96
515.904	15307.71
516.106	15414.21
516.308	15690.68
516.51	15883.19
516.712	15801.27
516.914	15840.18
517.116	16350.13
517.318	16487.34
517.52	16499.63
517.722	16642.99
517.925	16614.32
518.127	17036.2
518.329	17183.65
518.531	17120.17
518.733	17623.97
518.935	17345.44
519.136	17666.97
519.338	17843.1
519.54	17824.67
519.742	18127.77
519.944	18275.22
520.146	18627.47
520.348	18797.45
520.55	18584.46
520.752	18916.23
520.954	19547.01
521.155	18938.76
521.357	19401.6
521.559	19528.58
521.761	19841.92
521.963	19803
522.164	20069.24
522.366	20102.01
522.568	20226.93
522.77	20325.24
522.971	20704.11
523.173	20712.3
523.375	20855.66
523.576	20870
523.778	20816.75
523.98	21298.02
524.181	21619.55
524.383	21128.04
524.584	21621.6
524.786	21637.98
524.988	21877.6
525.189	21904.22
525.391	21961.56
525.592	22356.82
525.794	22305.62
525.995	22475.6
526.197	22371.16
526.398	22625.11
526.6	22803.28
526.801	22778.7
527.003	22956.88
527.204	23176.01
527.406	23333.7
527.607	23089.99
527.808	23397.19
528.01	23108.43
528.211	23395.14
528.412	23700.29
528.614	23731.01
528.815	23599.94
529.016	24372.02
529.218	23819.07
529.419	24025.92
529.62	24066.88
529.822	24259.38
530.023	24097.59
530.224	24046.4
530.425	24238.9
530.626	24226.62
530.828	24034.11
531.029	24701.75
531.23	24320.82
531.431	24705.84
531.632	24539.96
531.833	24841.01
532.035	24711.99
532.236	24681.27
532.437	24906.54
532.638	24609.59
532.839	24994.61
533.04	25010.99
533.241	24638.26
533.442	25031.47
533.643	25146.15
533.844	25101.1
534.045	24849.2
534.246	24707.89
534.447	25223.98
534.648	24953.65
534.849	24861.49
535.05	24662.83
535.251	24982.32
535.451	24922.93
535.652	25019.18
535.853	25396.01
536.054	25322.28
536.255	25367.34
536.456	24998.7
536.657	25097
536.857	25346.86
537.058	25113.39
537.259	25293.61
537.46	25465.64
537.66	25457.45
537.861	25541.41
538.062	25140.01
538.263	25406.25
538.463	25072.43
538.664	25172.78
538.865	25256.75
539.065	25355.05
539.266	24802.1
539.466	25770.79
539.667	25127.72
539.868	25318.18
540.068	25176.87
540.269	25287.46
540.469	25213.74
540.67	25361.19
540.87	25279.27
541.071	25111.34
541.271	25279.27
541.472	25502.5
541.672	25129.77
541.873	24916.78
542.073	24963.89
542.274	25348.9
542.474	25494.31
542.675	24912.69
542.875	25144.11
543.075	25234.22
543.276	25105.2
543.476	25244.46
543.676	25203.5
543.877	25209.64
544.077	25551.65
544.277	24937.26
544.478	24924.97
544.678	25125.68
544.878	25281.32
545.078	25170.73
545.279	25299.75
545.479	24963.89
545.679	25457.45
545.879	25111.34
546.079	25178.92
546.28	25176.87
546.48	24924.97
546.68	25432.87
546.88	25250.6
547.08	25262.89
547.28	25209.64
547.48	24908.59
547.68	24892.21
547.88	24832.82
548.081	25105.2
548.281	24769.33
548.481	24851.25
548.681	25199.4
548.881	25361.19
549.081	25086.76
549.28	24861.49
549.48	25193.26
549.68	25006.89
549.88	25422.63
550.08	24998.7
550.28	25314.09
550.48	25054
550.68	25240.36
550.88	25000.75
551.08	24949.55
551.279	25066.28
551.479	24820.53
551.679	25383.72
551.879	24959.79
552.079	25209.64
552.278	24863.54
552.478	24857.39
552.678	25152.3
552.878	25201.45
553.077	25045.8
553.277	24836.91
553.477	25004.85
553.676	24914.73
553.876	24730.42
554.076	24748.85
554.275	24591.16
554.475	24658.74
554.674	24748.85
554.874	24820.53
555.074	24699.7
555.273	24910.64
555.473	24851.25
555.672	24759.09
555.872	24863.54
556.071	24765.23
556.271	24691.51
556.47	24582.96
556.67	24677.17
556.869	24476.47
557.068	24615.73
557.268	24361.78
557.467	24591.16
557.667	24462.13
557.866	24488.76
558.065	24396.6
558.265	24247.1
558.464	24339.26
558.663	24595.25
558.863	23974.72
559.062	24527.67
559.261	24232.76
559.461	24439.61
559.66	23958.33
559.859	23900.99
560.058	23857.98
560.258	24023.87
560.457	23731.01
560.656	24148.79
560.855	23774.02
561.054	23855.93
561.253	23681.86
561.453	23835.45
561.652	23864.13
561.851	23917.37
562.05	23393.09
562.249	23505.73
562.448	23716.67
562.647	23360.33
562.846	23450.44
563.045	23460.68
563.244	23354.18
563.443	23417.67
563.642	23180.1
563.841	23216.97
564.04	22993.74
564.239	23364.42
564.438	23051.08
564.637	22901.58
564.836	22854.48
565.035	22782.8
565.234	22901.58
565.432	22633.3
565.631	22410.07
565.83	22612.82
566.029	22584.15
566.228	22641.49
566.427	22442.84
566.625	22172.5
566.824	22057.82
567.023	22295.38
567.222	21949.28
567.42	22301.53
567.619	21934.94
567.818	22393.68
568.016	22152.02
568.215	22045.53
568.414	21664.61
568.612	21965.66
568.811	21689.18
569.01	21556.07
569.208	21543.78
569.407	21678.94
569.605	21484.39
569.804	21588.83
570.002	21269.35
570.201	21400.42
570.4	21085.03
570.598	21101.42
570.797	20996.97
570.995	21212.01
571.193	20943.72
571.392	21003.11
571.59	20730.73
571.789	20933.48
571.987	20874.09
572.186	20597.62
572.384	20593.52
572.582	20710.25
572.781	20736.88
572.979	20261.75
573.177	20378.48
573.376	20564.85
573.574	20149.11
573.772	20521.84
573.971	20171.64
574.169	20196.21
574.367	19972.99
574.565	20163.45
574.763	20007.8
574.962	20005.75
575.16	19780.48
575.358	19618.69
575.556	19491.71
575.754	20009.85
575.952	19667.84
576.151	19702.65
576.349	19489.67
576.547	19293.06
576.745	19596.16
576.943	19342.21
577.141	18914.19
577.339	19284.87
577.537	18951.05
577.735	19280.77
577.933	19098.5
578.131	19106.7
578.329	18867.08
578.527	18729.87
578.725	18801.55
578.923	18989.96
579.121	18742.16
579.319	18656.14
579.516	18781.07
579.714	18486.16
579.912	18666.38
580.11	18539.41
580.308	18346.9
580.506	18506.64
580.704	18002.84
580.901	18123.67
581.099	18412.43
581.297	18027.42
581.495	18019.22
581.692	18301.84
581.89	18121.62
582.088	18316.18
582.285	17961.88
582.483	18277.27
582.681	17818.52
582.878	17873.82
583.076	18111.38
583.274	17943.45
583.471	17658.78
583.669	17714.08
583.866	17724.32
584.064	17613.73
584.262	17363.87
584.459	17415.07
584.657	17236.9
584.854	17478.56
585.052	17224.61
585.249	17224.61
585.447	17359.78
585.644	16896.94
585.841	17015.72
586.039	17400.74
586.236	16923.56
586.434	16890.79
586.631	16831.4
586.828	16862.12
587.026	16767.91
587.223	16749.48
587.42	16874.41
587.618	16761.77
587.815	16481.2
588.012	16360.37
588.21	16350.13
588.407	16585.65
588.604	16532.4
588.801	16468.91
588.999	16094.13
589.196	16438.19
589.393	16255.92
589.59	16198.58
589.787	16264.11
589.984	16069.56
590.182	15936.44
590.379	16120.76
590.576	15946.68
590.773	16065.46
590.97	15848.38
591.167	15993.78
591.364	15539.13
591.561	15625.15
591.758	15352.77
591.955	15526.85
592.152	15735.74
592.349	15487.93
592.546	15428.54
592.743	15639.48
592.94	15356.86
593.137	15369.15
593.334	15350.72
593.531	15141.83
593.727	15162.31
593.924	15471.55
594.121	15086.53
594.318	14971.85
594.515	14832.58
594.712	15121.35
594.908	14795.72
595.105	14928.84
595.302	14615.5
595.499	14783.43
595.696	14965.7
595.892	14654.41
596.089	14785.48
596.286	14646.22
596.482	14629.84
596.679	14762.95
596.876	14670.79
597.072	14513.1
597.269	14535.63
597.466	14277.58
597.662	14422.99
597.859	14283.73
598.055	14113.75
598.252	14152.66
598.448	14119.89
598.645	13956.05
598.841	13966.29
599.038	14029.78
599.234	14054.36
599.431	13816.79
599.627	13908.95
599.824	13917.14
600.02	13951.96
600.217	13710.3
600.413	13808.6
600.609	13591.52
600.806	13650.91
601.002	13679.58
601.198	13411.29
601.395	13460.45
601.591	13413.34
601.787	13542.36
601.984	13634.52
602.18	13442.01
602.376	13419.49
602.572	13390.81
602.769	13431.77
602.965	13038.56
603.161	13325.28
603.357	13153.25
603.553	13030.37
603.75	13177.83
603.946	12786.66
604.142	12907.49
604.338	12905.45
604.534	12884.97
604.73	12850.15
604.926	12741.61
605.122	12864.49
605.318	12616.68
605.514	12790.76
605.71	12458.99
605.906	12815.34
606.102	12747.75
606.298	12522.48
606.494	12557.29
606.69	12325.87
606.886	12553.2
607.082	12202.99
607.278	12219.38
607.474	12219.38
607.67	12530.67
607.866	12098.55
608.062	12424.17
608.257	12260.34
608.453	12168.18
608.649	12092.4
608.845	12178.42
609.041	11889.65
609.236	12106.74
609.432	11889.65
609.628	12047.35
609.824	11953.14
610.019	11932.66
610.215	11922.42
610.411	12030.96
610.606	11809.78
610.802	11721.72
610.998	11826.17
611.193	11967.48
611.389	11588.6
611.584	11756.54
611.78	11615.23
611.976	11633.66
612.171	11676.66
612.367	11539.45
612.562	11426.81
612.758	11281.41
612.953	11500.54
613.149	11774.97
613.344	11408.38
613.539	11561.98
613.735	11662.33
613.93	11484.16
614.126	11398.14
614.321	11695.1
614.517	11359.23
614.712	11222.02
614.907	11322.37
615.103	11375.61
615.298	11389.95
615.493	11383.8
615.688	11052.03
615.884	11285.5
616.079	11117.57
616.274	11101.19
616.47	11164.67
616.665	11041.79
616.86	11199.49
617.055	10947.59
617.25	11283.45
617.445	10933.25
617.641	10793.99
617.836	10925.06
618.031	10937.35
618.226	10974.21
618.421	10933.25
618.616	10824.71
618.811	10818.57
619.006	10859.52
619.201	10785.8
619.396	10750.98
619.591	10466.31
619.786	10632.2
619.981	10355.72
620.176	10654.73
620.371	10574.86
620.566	10392.59
620.761	10413.07
620.956	10411.02
621.151	10279.95
621.346	10398.73
621.541	10316.81
621.735	10030.1
621.93	9982.99
622.125	9831.44
622.32	9724.95
622.515	9796.63
622.709	9923.6
622.904	9729.05
623.099	9952.27
623.294	9815.06
623.488	9638.94
623.683	9663.51
623.878	9528.35
624.072	9499.67
624.267	9460.76
624.462	9499.67
624.656	9362.46
624.851	9391.13
625.046	9325.6
625.24	9223.2
625.435	9301.02
625.629	9131.04
625.824	9262.11
626.018	9286.68
626.213	8973.35
626.407	9088.03
626.602	8834.08
626.796	8864.8
626.991	8954.91
627.185	8782.88
627.38	8657.96
627.574	8778.79
627.768	8594.47
627.963	8559.66
628.157	8477.74
628.352	8502.31
628.546	8528.94
628.74	8457.26
628.935	8213.55
629.129	8293.42
629.323	8211.5
629.517	8092.72
629.712	8287.28
629.906	8203.31
630.1	8102.96
630.294	8037.42
630.489	8168.49
630.683	8105.01
630.877	7810.1
631.071	7963.7
631.265	7947.31
631.459	7818.29
631.653	7660.6
631.848	7838.77
632.042	7652.41
632.236	7820.34
632.43	7554.1
632.624	7674.93
632.818	7638.07
633.012	7435.32
633.206	7363.64
633.4	7455.8
633.594	7351.35
633.788	7369.79
633.982	7328.83
634.176	7271.48
634.369	7181.37
634.563	7093.31
634.757	7230.52
634.951	7216.19
635.145	7189.56
635.339	7029.82
635.533	7023.68
635.726	7169.09
635.92	7017.54
636.114	6958.14
636.308	6980.67
636.501	6792.26
636.695	6820.93
636.889	6800.45
637.083	6728.77
637.276	6599.75
637.47	6730.82
637.664	6542.41
637.857	6741.06
638.051	6605.89
638.244	6460.49
638.438	6499.4
638.632	6591.56
638.825	6470.73
639.019	6429.77
639.212	6247.5
639.406	6403.14
639.599	6304.84
639.793	6261.84
639.986	6210.64
640.18	6272.07
640.373	6243.4
640.567	6098
640.76	6104.14
640.954	5960.78
641.147	5909.58
641.34	5968.98
641.534	5819.47
641.727	5798.99
641.92	5747.79
642.114	5780.56
642.307	5885.01
642.5	5735.51
642.694	5598.29
642.887	5825.62
643.08	5772.37
643.273	5839.95
643.467	5532.76
643.66	5481.56
643.853	5456.98
644.046	5559.38
644.239	5436.5
644.432	5465.18
644.626	5483.61
644.819	5481.56
645.012	5448.79
645.205	5483.61
645.398	5301.34
645.591	5436.5
645.784	5360.73
645.977	5200.99
646.17	5260.38
646.363	5321.82
646.556	5047.39
646.749	5112.92
646.942	5176.41
647.135	4983.9
647.328	5063.77
647.521	5086.3
647.714	5110.88
647.907	4973.66
648.099	4858.98
648.292	4975.71
648.485	4928.61
648.678	5010.53
648.871	4854.88
649.064	4805.73
649.256	4766.82
649.449	4809.83
649.642	4668.52
649.835	4752.48
650.027	4676.71
650.22	4740.19
650.413	4650.08
650.605	4674.66
650.798	4611.17
650.991	4578.4
651.183	4594.79
651.376	4549.73
651.568	4570.21
651.761	4543.59
651.954	4443.24
652.146	4488.29
652.339	4322.41
652.531	4402.28
652.724	4293.74
652.916	4269.16
653.109	4244.59
653.301	4267.11
653.494	4369.51
653.686	4320.36
653.879	4293.74
654.071	4142.19
654.263	4113.52
654.456	4330.6
654.648	4183.15
654.84	4093.04
655.033	4158.57
655.225	4007.02
655.417	3968.11
655.61	4058.22
655.802	4054.12
655.994	4000.88
656.186	4119.66
656.379	4072.56
656.571	3984.49
656.763	4029.55
656.955	3886.19
657.148	4015.21
657.34	3933.29
657.532	3841.14
657.724	3783.79
657.916	3724.4
658.108	3781.74
658.3	3691.63
658.492	3783.79
658.684	3710.07
658.876	3677.3
659.068	3642.48
659.26	3566.71
659.452	3617.91
659.644	3658.87
659.836	3490.93
660.028	3529.84
660.22	3523.7
660.412	3615.86
660.604	3521.65
660.796	3556.47
660.988	3445.88
661.18	3531.89
661.372	3439.73
661.563	3394.68
661.755	3327.1
661.947	3386.49
662.139	3333.24
662.331	3241.08
662.522	3308.66
662.714	3353.72
662.906	3275.9
663.097	3239.03
663.289	3185.79
663.481	3122.3
663.673	3263.61
663.864	3165.31
664.056	3101.82
664.247	3187.83
664.439	3279.99
664.631	3105.92
664.822	3134.59
665.014	3196.03
665.205	3183.74
665.397	3034.24
665.588	3181.69
665.78	3040.38
665.971	3150.97
666.163	3044.48
666.354	3034.24
666.546	2966.65
666.737	2997.37
666.929	3083.39
667.12	3015.8
667.311	2937.98
667.503	2761.86
667.694	2980.99
667.885	2864.25
668.077	2944.13
668.268	2727.04
668.459	2960.51
668.651	2905.21
668.842	2894.97
669.033	2901.12
669.224	2757.76
669.416	2796.67
669.607	2798.72
669.798	2858.11
669.989	2722.95
670.18	2835.58
670.371	2679.94
670.563	2671.75
670.754	2745.47
670.945	2677.89
671.136	2669.7
671.327	2614.4
671.518	2741.38
671.709	2694.27
671.9	2743.42
672.091	2626.69
672.282	2595.97
672.473	2602.11
672.664	2548.87
672.855	2589.83
673.046	2567.3
673.237	2538.63
673.428	2479.24
673.619	2479.24
673.809	2663.55
674	2514.05
674.191	2540.68
674.382	2487.43
674.573	2421.89
674.764	2348.17
674.954	2505.86
675.145	2530.44
675.336	2446.47
675.527	2407.56
675.717	2425.99
675.908	2428.04
676.099	2456.71
676.289	2321.54
676.48	2342.02
676.671	2294.92
676.861	2294.92
677.052	2405.51
677.243	2389.13
677.433	2286.73
677.624	2200.71
677.814	2337.93
678.005	2319.5
678.195	2288.78
678.386	2172.04
678.576	2358.41
678.767	2352.26
678.957	2268.3
679.148	2325.64
679.338	2319.5
679.529	2282.63
679.719	2276.49
679.909	2294.92
680.1	2210.95
680.29	2194.57
680.481	2290.82
680.671	2151.56
680.861	2260.1
681.052	2196.62
681.242	2151.56
681.432	2110.6
681.622	2274.44
681.813	2120.84
682.003	2110.6
682.193	2126.99
682.383	2202.76
682.573	2124.94
682.764	2077.83
682.954	2102.41
683.144	2114.7
683.334	2083.98
683.524	2077.83
683.714	2026.64
683.904	2151.56
684.094	2008.2
684.284	1987.72
684.474	2122.89
684.664	2104.46
684.854	2100.36
685.044	2079.88
685.234	1995.92
685.424	1963.15
685.614	1928.33
685.804	2049.16
685.994	1957
686.184	2047.12
686.374	1889.42
686.564	1997.96
686.753	2008.2
686.943	1983.63
687.133	1989.77
687.323	1864.85
687.513	1856.65
687.702	1997.96
687.892	1840.27
688.082	1807.5
688.272	1916.05
688.461	1914
688.651	1907.85
688.841	1830.03
689.03	1805.46
689.22	1860.75
689.41	1914
689.599	1801.36
689.789	1780.88
689.979	1899.66
690.168	1899.66
690.358	1807.5
690.547	1772.69
690.737	1834.13
690.926	1754.26
691.116	1848.46
691.305	1832.08
691.495	1744.02
691.684	1739.92
691.874	1827.98
692.063	1725.58
692.252	1737.87
692.442	1664.15
692.631	1746.06
692.82	1756.3
693.01	1705.1
693.199	1825.93
693.388	1715.34
693.578	1604.75
693.767	1701.01
693.956	1701.01
694.146	1766.54
694.335	1678.48
694.524	1684.62
694.713	1701.01
694.902	1653.91
695.092	1694.86
695.281	1612.95
695.47	1809.55
695.659	1713.3
695.848	1705.1
696.037	1698.96
696.226	1674.39
696.415	1682.58
696.604	1731.73
696.793	1647.76
696.982	1643.67
697.171	1803.41
697.36	1617.04
697.549	1772.69
697.738	1676.43
697.927	1676.43
698.116	1539.22
698.305	1778.83
698.494	1756.3
698.683	1645.71
698.872	1692.82
699.061	1619.09
699.25	1621.14
699.438	1608.85
699.627	1684.62
699.816	1561.75
700.005	1662.1
700.193	1651.86
700.382	1676.43
700.571	1696.91
700.76	1617.04
700.948	1696.91
701.137	1709.2
701.326	1668.24
701.514	1637.52
701.703	1701.01
701.892	1645.71
702.08	1703.06
702.269	1610.9
702.457	1737.87
702.646	1698.96
702.834	1637.52
703.023	1709.2
703.212	1686.67
703.4	1649.81
703.589	1703.06
703.777	1758.35
703.965	1627.28
704.154	1637.52
704.342	1621.14
704.531	1651.86
704.719	1692.82
704.907	1715.34
705.096	1760.4
705.284	1694.86
705.472	1623.19
705.661	1758.35
705.849	1733.78
706.037	1670.29
706.226	1758.35
706.414	1658
706.602	1797.26
706.79	1750.16
706.979	1594.51
707.167	1631.38
707.355	1621.14
707.543	1799.31
707.731	1754.26
707.919	1676.43
708.107	1627.28
708.296	1787.02
708.484	1647.76
708.672	1701.01
708.86	1713.3
709.048	1647.76
709.236	1703.06
709.424	1692.82
709.612	1760.4
709.8	1735.82
709.988	1684.62
710.176	1696.91
710.364	1789.07
710.551	1815.69
710.739	1705.1
710.927	1674.39
711.115	1631.38
711.303	1780.88
711.491	1787.02
711.679	1694.86
711.866	1684.62
712.054	1701.01
712.242	1778.83
712.43	1735.82
712.617	1733.78
712.805	1698.96
712.993	1717.39
713.181	1660.05
713.368	1666.19
713.556	1713.3
713.744	1670.29
713.931	1731.73
714.119	1727.63
714.306	1715.34
714.494	1643.67
714.682	1705.1
714.869	1719.44
715.057	1748.11
715.244	1682.58
715.432	1731.73
715.619	1717.39
715.807	1780.88
715.994	1662.1
716.182	1660.05
716.369	1690.77
716.556	1813.65
716.744	1674.39
716.931	1784.98
717.119	1754.26
717.306	1647.76
717.493	1760.4
717.681	1719.44
717.868	1678.48
718.055	1694.86
718.242	1856.65
718.43	1813.65
718.617	1756.3
718.804	1696.91
718.991	1780.88
719.179	1731.73
719.366	1774.74
719.553	1801.36
719.74	1705.1
719.927	1727.63
720.114	1715.34
720.301	1715.34
720.488	1795.22
720.676	1776.78
720.863	1778.83
721.05	1789.07
721.237	1723.54
721.424	1739.92
721.611	1762.45
721.798	1692.82
721.985	1641.62
722.172	1715.34
722.358	1676.43
722.545	1705.1
722.732	1717.39
722.919	1670.29
723.106	1741.97
723.293	1744.02
723.48	1651.86
723.667	1668.24
723.853	1696.91
724.04	1709.2
724.227	1678.48
724.414	1731.73
724.6	1717.39
724.787	1766.54
724.974	1807.5
725.161	1733.78
725.347	1778.83
725.534	1762.45
725.72	1766.54
725.907	1815.69
726.094	1660.05
726.28	1668.24
726.467	1690.77
726.653	1684.62
726.84	1729.68
727.027	1733.78
727.213	1764.5
727.4	1735.82
727.586	1678.48
727.773	1608.85
727.959	1811.6
728.145	1748.11
728.332	1707.15
728.518	1684.62
728.705	1766.54
728.891	1713.3
729.077	1658
729.264	1694.86
729.45	1715.34
729.636	1670.29
729.823	1748.11
730.009	1787.02
730.195	1580.18
730.382	1709.2
730.568	1600.66
730.754	1684.62
730.94	1643.67
731.126	1664.15
731.313	1762.45
731.499	1662.1
731.685	1701.01
731.871	1668.24
732.057	1703.06
732.243	1606.8
732.429	1678.48
732.615	1692.82
732.801	1655.95
732.987	1703.06
733.173	1668.24
733.359	1703.06
733.545	1627.28
733.731	1668.24
733.917	1655.95
734.103	1664.15
734.289	1711.25
734.475	1541.27
734.661	1672.34
734.847	1610.9
735.033	1639.57
735.219	1549.46
735.404	1643.67
735.59	1676.43
735.776	1658
735.962	1619.09
736.148	1653.91
736.333	1658
736.519	1639.57
736.705	1627.28
736.89	1614.99
737.076	1619.09
737.262	1627.28
737.447	1582.23
737.633	1578.13
737.819	1655.95
738.004	1629.33
738.19	1569.94
738.375	1680.53
738.561	1514.64
738.747	1604.75
738.932	1701.01
739.118	1547.41
739.303	1512.6
739.489	1533.08
739.674	1545.36
739.859	1610.9
740.045	1576.08
740.23	1594.51
740.416	1481.88
740.601	1504.4
740.786	1580.18
740.972	1469.59
741.157	1555.6
741.342	1447.06
741.528	1522.84
741.713	1469.59
741.898	1520.79
742.084	1526.93
742.269	1496.21
742.454	1459.35
742.639	1592.47
742.824	1406.1
743.01	1410.2
743.195	1590.42
743.38	1424.53
743.565	1502.36
743.75	1500.31
743.935	1393.81
744.12	1422.48
744.305	1377.43
744.49	1438.87
744.675	1399.96
744.86	1363.09
745.045	1350.81
745.23	1420.44
745.415	1449.11
745.6	1430.68
745.785	1385.62
745.97	1420.44
746.155	1332.37
746.34	1367.19
746.525	1359
746.71	1406.1
746.895	1275.03
747.079	1348.76
747.264	1324.18
747.449	1371.29
747.634	1250.46
747.819	1324.18
748.003	1334.42
748.188	1332.37
748.373	1287.32
748.557	1250.46
748.742	1250.46
748.927	1256.6
749.111	1189.02
749.296	1234.07
749.481	1315.99
749.665	1178.78
749.85	1164.44
750.034	1244.31
750.219	1195.16
750.404	1217.69
750.588	1131.67
750.773	1098.91
750.957	1146.01
751.141	1184.92
751.326	1090.71
751.51	1234.07
751.695	1143.96
751.879	1164.44
752.064	1238.17
752.248	1119.39
752.432	1225.88
752.617	1143.96
752.801	1076.38
752.985	1129.63
753.17	1123.48
753.354	1143.96
753.538	1072.28
753.722	1037.47
753.907	1078.43
754.091	1121.43
754.275	980.12
754.459	1010.84
754.643	1039.51
754.828	1072.28
755.012	1121.43
755.196	937.12
755.38	1000.6
755.564	1057.95
755.748	1006.75
755.932	853.15
756.116	1027.23
756.3	1080.47
756.484	1033.37
756.668	1072.28
756.852	949.4
757.036	1008.8
757.22	890.01
757.404	799.9
757.588	1012.89
757.772	918.68
757.956	836.77
758.14	994.46
758.323	810.14
758.507	902.3
758.691	930.97
758.875	912.54
759.059	928.92
759.242	881.82
759.426	814.24
759.61	881.82
759.794	840.86
759.977	892.06
760.161	951.45
760.345	922.78
760.528	853.15
760.712	912.54
760.895	847.01
761.079	787.61
761.263	857.25
761.446	791.71
761.63	814.24
761.813	824.48
761.997	863.39
762.18	783.52
762.364	863.39
762.547	795.81
762.731	865.44
762.914	763.04
763.098	838.81
763.281	775.33
763.464	801.95
763.648	752.8
763.831	744.61
764.015	793.76
764.198	775.33
764.381	801.95
764.564	744.61
764.748	685.22
764.931	750.75
765.114	720.03
765.297	758.94
765.481	775.33
765.664	779.42
765.847	804
766.03	758.94
766.213	769.18
766.397	752.8
766.58	779.42
766.763	765.09
766.946	695.46
767.129	791.71
767.312	662.69
767.495	709.79
767.678	758.94
767.861	687.26
768.044	695.46
768.227	734.37
768.41	699.55
768.593	693.41
768.776	644.26
768.959	644.26
769.142	683.17
769.324	785.57
769.507	683.17
769.69	662.69
769.873	713.89
770.056	693.41
770.239	703.65
770.421	652.45
770.604	691.36
770.787	672.93
770.97	734.37
771.152	640.16
771.335	611.49
771.518	672.93
771.7	597.15
771.883	691.36
772.066	648.35
772.248	591.01
772.431	640.16
772.613	670.88
772.796	576.67
772.978	656.54
773.161	613.54
773.343	586.91
773.526	601.25
773.708	652.45
773.891	689.31
774.073	552.1
774.256	545.95
774.438	701.6
774.621	529.57
774.803	541.86
774.985	554.15
775.168	539.81
775.35	541.86
775.532	617.63
775.715	541.86
775.897	591.01
776.079	517.28
776.261	562.34
776.444	566.43
776.626	601.25
776.808	623.78
776.99	468.13
777.173	576.67
777.355	527.52
777.537	480.42
777.719	513.19
777.901	507.04
778.083	480.42
778.265	513.19
778.447	531.62
778.629	500.9
778.811	484.52
778.993	484.52
779.175	525.47
779.357	523.43
779.539	466.08
779.721	494.76
779.903	523.43
780.085	476.32
780.267	433.32
780.449	488.61
780.631	496.8
780.812	496.8
780.994	474.28
781.176	425.12
781.358	406.69
781.54	470.18
781.721	404.64
781.903	476.32
782.085	457.89
782.267	515.23
782.448	451.75
782.63	412.84
782.812	416.93
782.993	455.84
783.175	423.08
783.357	429.22
783.538	369.83
783.72	416.93
783.901	437.41
784.083	367.78
784.264	414.88
784.446	396.45
784.627	351.4
784.809	418.98
784.99	357.54
785.172	414.88
785.353	251.05
785.535	384.16
785.716	402.6
785.897	285.86
786.079	328.87
786.26	306.34
786.441	357.54
786.623	337.06
786.804	353.45
786.985	314.53
787.167	390.31
787.348	408.74
787.529	322.73
787.71	332.97
787.891	357.54
788.073	302.25
788.254	382.12
788.435	369.83
788.616	359.59
788.797	271.53
788.978	357.54
789.159	296.1
789.34	355.49
789.522	306.34
789.703	304.29
789.884	285.86
790.065	300.2
790.246	259.24
790.427	318.63
790.607	371.88
790.788	275.62
790.969	244.9
791.15	294.05
791.331	269.48
791.512	267.43
791.693	320.68
791.874	224.42
792.054	298.15
792.235	312.49
792.416	249
792.597	236.71
792.778	242.85
792.958	300.2
793.139	359.59
793.32	341.16
793.5	287.91
793.681	324.77
793.862	236.71
794.042	253.09
794.223	275.62
794.404	279.72
794.584	203.94
794.765	283.81
794.945	222.38
795.126	285.86
795.306	281.77
795.487	218.28
795.667	298.15
795.848	283.81
796.028	216.23
796.209	228.52
796.389	251.05
796.57	267.43
796.75	232.62
796.93	197.8
797.111	246.95
797.291	177.32
797.471	179.37
797.652	175.27
797.832	193.7
798.012	263.33
798.192	130.22
798.373	236.71
798.553	246.95
798.733	216.23
798.913	181.42
799.093	230.57
799.274	238.76
799.454	175.27
799.634	253.09
799.814	165.03
799.994	183.46
800.174	169.13
800.354	214.18
800.534	208.04
800.714	165.03
800.894	111.78
801.074	193.7
801.254	257.19
801.434	187.56
801.614	117.93
801.794	189.61
801.974	677.02
802.154	253.09
802.334	183.46
802.514	165.03
802.693	222.38
802.873	160.94
803.053	244.9
803.233	273.57
803.413	214.18
803.592	189.61
803.772	140.46
803.952	165.03
804.131	144.55
804.311	173.22
804.491	165.03
804.67	124.07
804.85	195.75
805.03	218.28
805.209	228.52
805.389	171.18
805.568	150.7
805.748	165.03
805.928	154.79
806.107	154.79
806.287	214.18
806.466	148.65
806.646	146.6
806.825	173.22
807.004	130.22
807.184	177.32
807.363	160.94
807.543	156.84
807.722	142.5
807.901	146.6
808.081	199.85
808.26	115.88
808.439	132.26
808.619	193.7
808.798	132.26
808.977	144.55
809.156	150.7
809.336	152.74
809.515	146.6
809.694	171.18
809.873	87.21
810.052	171.18
810.231	154.79
810.411	132.26
810.59	187.56
810.769	50.35
810.948	128.17
811.127	119.98
811.306	128.17
811.485	87.21
811.664	171.18
811.843	119.98
812.022	117.93
812.201	79.02
812.38	87.21
812.559	122.02
812.737	117.93
812.916	113.83
813.095	79.02
813.274	115.88
813.453	138.41
813.632	79.02
813.811	150.7
813.989	193.7
814.168	158.89
814.347	103.59
814.526	117.93
814.704	103.59
814.883	185.51
815.062	54.44
815.24	162.98
815.419	66.73
815.598	156.84
815.776	81.07
815.955	115.88
816.133	111.78
816.312	72.87
816.49	124.07
816.669	146.6
816.847	105.64
817.026	126.12
817.204	97.45
817.383	91.31
817.561	99.5
817.74	144.55
817.918	105.64
818.097	162.98
818.275	87.21
818.453	216.23
818.632	115.88
818.81	158.89
818.988	87.21
819.167	99.5
819.345	156.84
819.523	79.02
819.701	79.02
819.879	181.42
820.058	105.64
820.236	183.46
820.414	25.77
820.592	103.59
820.77	101.55
820.948	62.63
821.127	152.74
821.305	85.16
821.483	27.82
821.661	62.63
821.839	146.6
822.017	54.44
822.195	17.58
822.373	154.79
822.551	195.75
822.729	212.14
822.907	42.15
823.085	167.08
823.262	113.83
823.44	66.73
823.618	66.73
823.796	115.88
823.974	111.78
824.152	44.2
824.329	85.16
824.507	154.79
824.685	103.59
824.863	62.63
825.04	52.39
825.218	101.55
825.396	5.29
825.574	-9.05
825.751	117.93
825.929	111.78
826.107	54.44
826.284	76.97
826.462	132.26
826.639	83.11
826.817	44.2
826.994	85.16
827.172	60.59
827.349	101.55
827.527	91.31
827.704	33.96
827.882	117.93
828.059	111.78
828.237	107.69
828.414	56.49
828.591	17.58
828.769	95.4
828.946	42.15
829.124	56.49
829.301	54.44
829.478	13.48
829.655	105.64
829.833	40.11
830.01	-35.67
830.187	81.07
830.364	60.59
830.542	62.63
830.719	89.26
830.896	105.64
831.073	50.35
831.25	97.45
831.427	95.4
831.604	119.98
831.782	122.02
831.959	46.25
832.136	119.98
832.313	48.3
832.49	122.02
832.667	87.21
832.844	85.16
833.021	23.72
833.198	54.44
833.374	113.83
833.551	74.92
833.728	119.98
833.905	95.4
834.082	56.49
834.259	89.26
834.436	95.4
834.612	-11.09
834.789	62.63
834.966	50.35
835.143	101.55
835.319	25.77
835.496	154.79
835.673	95.4
835.85	48.3
836.026	136.36
836.203	36.01
836.38	58.54
836.556	7.34
836.733	21.67
836.909	105.64
837.086	17.58
837.262	-21.33
837.439	81.07
837.616	1.19
837.792	93.35
837.968	-47.96
838.145	79.02
838.321	23.72
838.498	83.11
838.674	72.87
838.851	52.39
839.027	27.82
839.203	54.44
839.38	146.6
839.556	72.87
839.732	132.26
839.909	29.87
840.085	31.91
840.261	-4.95
840.437	-9.05
840.614	7.34
840.79	40.11
840.966	5.29
841.142	50.35
841.318	-31.57
841.494	40.11
841.671	46.25
841.847	27.82
842.023	-2.9
842.199	21.67
842.375	58.54
842.551	-11.09
842.727	44.2
842.903	54.44
843.079	-11.09
843.255	62.63
843.431	3.24
843.607	23.72
843.783	40.11
843.959	31.91
844.134	-33.62
844.31	38.06
844.486	50.35
844.662	-39.76
844.838	111.78
845.013	79.02
845.189	72.87
845.365	3.24
845.541	36.01
845.716	-13.14
845.892	-15.19
846.068	-9.05
846.244	-41.81
846.419	5.29
846.595	15.53
846.77	48.3
846.946	17.58
847.122	91.31
847.297	56.49
847.473	124.07
847.648	31.91
847.824	58.54
847.999	5.29
848.175	36.01
848.35	13.48
848.526	83.11
848.701	64.68
848.876	119.98
849.052	-19.29
849.227	66.73
849.403	13.48
849.578	1.19
849.753	74.92
849.929	64.68
850.104	25.77
850.279	46.25
850.454	3.24
850.63	-19.29
850.805	5.29
850.98	-9.05
851.155	17.58
851.33	17.58
851.505	-62.29
851.681	27.82
851.856	74.92
852.031	-2.9
852.206	-19.29
852.381	-31.57
852.556	-13.14
852.731	60.59
852.906	-13.14
853.081	119.98
853.256	44.2
853.431	-9.05
853.606	-45.91
853.781	62.63
853.956	3.24
854.131	25.77
854.305	17.58
854.48	7.34
854.655	-19.29
854.83	3.24
855.005	9.39
855.18	72.87
855.354	-37.72
855.529	29.87
855.704	64.68
855.879	89.26
856.053	21.67
856.228	3.24
856.403	31.91
856.577	5.29
856.752	-33.62
856.926	29.87
857.101	-9.05
857.276	46.25
857.45	25.77
857.625	23.72
857.799	19.63
857.974	15.53
858.148	-7
858.323	64.68
858.497	23.72
858.672	17.58
858.846	5.29
859.02	79.02
859.195	1.19
859.369	-23.38
859.543	-35.67
859.718	-31.57
859.892	-19.29
860.066	-9.05
860.241	-31.57
860.415	23.72
860.589	15.53
860.763	21.67
860.938	25.77
861.112	29.87
861.286	72.87
861.46	-11.09
861.634	-17.24
861.808	27.82
861.982	-39.76
862.157	17.58
862.331	25.77
862.505	31.91
862.679	23.72
862.853	40.11
863.027	40.11
863.201	-27.48
863.375	27.82
863.549	23.72
863.722	7.34
863.896	25.77
864.07	33.96
864.244	33.96
864.418	56.49
864.592	-82.77
864.766	19.63
864.939	-0.85
865.113	7.34
865.287	13.48
865.461	-11.09
865.634	44.2
865.808	-2.9
865.982	1.19
866.156	3.24
866.329	-41.81
866.503	7.34
866.676	27.82
866.85	-37.72
867.024	3.24
867.197	56.49
867.371	1.19
867.544	13.48
867.718	-11.09
867.891	70.83
868.065	-0.85
868.238	-11.09
868.412	9.39
868.585	48.3
868.759	15.53
868.932	-43.86
869.105	-27.48
869.279	31.91
869.452	-43.86
869.625	27.82
869.799	46.25
869.972	44.2
870.145	13.48
870.319	-25.43
870.492	68.78
870.665	-27.48
870.838	9.39
871.011	-19.29
871.185	15.53
871.358	-64.34
871.531	27.82
871.704	7.34
871.877	1.19
872.05	-70.48
872.223	-41.81
872.396	50.35
872.569	-0.85
872.742	-23.38
872.915	29.87
873.088	44.2
873.261	-29.52
873.434	19.63
873.607	-43.86
873.78	62.63
873.953	11.43
874.126	-25.43
874.299	23.72
874.471	25.77
874.644	36.01
874.817	1.19
874.99	40.11
875.163	-58.2
875.335	50.35
875.508	-7
875.681	89.26
875.853	25.77
876.026	-35.67
876.199	-11.09
876.371	62.63
876.544	54.44
876.717	13.48
876.889	13.48
877.062	17.58
877.234	-25.43
877.407	46.25
877.579	5.29
877.752	46.25
877.924	38.06
878.097	21.67
878.269	83.11
878.442	-19.29
878.614	5.29
878.786	-0.85
878.959	-52.05
879.131	74.92
879.303	17.58
879.476	-9.05
879.648	95.4
879.82	44.2
879.993	89.26
880.165	64.68
880.337	-23.38
880.509	31.91
880.681	25.77
880.854	64.68
881.026	-11.09
881.198	74.92
881.37	-27.48
881.542	-35.67
881.714	21.67
881.886	25.77
882.058	-4.95
882.23	50.35
882.402	44.2
882.574	-62.29
882.746	66.73
882.918	64.68
883.09	13.48
883.262	85.16
883.434	-9.05
883.606	-9.05
883.778	-9.05
883.95	140.46
884.122	13.48
884.293	-50
884.465	13.48
884.637	9.39
884.809	-17.24
884.98	103.59
885.152	46.25
885.324	19.63
885.496	-0.85
885.667	15.53
885.839	-41.81
886.011	29.87
886.182	46.25
886.354	38.06
886.525	-43.86
886.697	46.25
886.869	29.87
887.04	-11.09
887.212	29.87
887.383	89.26
887.555	9.39
887.726	48.3
887.897	-2.9
888.069	-2.9
888.24	11.43
888.412	11.43
888.583	48.3
888.754	11.43
888.926	62.63
889.097	11.43
889.268	19.63
889.44	1.19
889.611	-29.52
889.782	-0.85
889.953	-9.05
890.125	95.4
890.296	-21.33
890.467	46.25
890.638	21.67
890.809	-43.86
890.98	13.48
891.151	1.19
891.323	33.96
891.494	-25.43
891.665	36.01
891.836	27.82
892.007	-11.09
892.178	-35.67
892.349	-9.05
892.52	-11.09
892.691	11.43
892.862	25.77
893.032	-43.86
893.203	15.53
893.374	17.58
893.545	48.3
893.716	-33.62
893.887	13.48
894.057	5.29
894.228	1.19
894.399	-27.48
894.57	-7
894.74	-35.67
894.911	29.87
895.082	-21.33
895.253	44.2
895.423	89.26
895.594	62.63
895.764	21.67
895.935	-11.09
896.106	46.25
896.276	27.82
896.447	13.48
896.617	48.3
896.788	64.68
896.958	29.87
897.129	66.73
897.299	79.02
897.47	9.39
897.64	40.11
897.81	-41.81
897.981	79.02
898.151	31.91
898.322	46.25
898.492	-7
898.662	-27.48
898.832	17.58
899.003	83.11
899.173	-2.9
899.343	-68.44
899.513	-52.05
