Data from USB4F104151__53__13-11-28-580.txt Node

Date: Fri Mar 14 13:11:28 EDT 2025
User: louis
Spectrometer: USB4F10415
Trigger mode: 4
Integration Time (sec): 2.000000E-2
Scans to average: 1
Electric dark correction enabled: true
Nonlinearity correction enabled: false
Boxcar width: 0
XAxis mode: Wavelengths
Number of Pixels in Spectrum: 3648
>>>>>Begin Spectral Data<<<<<
178.204	-129.88
178.424	-129.88
178.644	-129.88
178.864	-76.63
179.084	-58.2
179.304	13.48
179.524	-9.05
179.744	-19.29
179.964	-7
180.184	17.58
180.404	21.67
180.624	11.43
180.844	-2.9
181.064	19.63
181.283	36.01
181.503	-72.53
181.723	-9.05
181.943	33.96
182.163	40.11
182.383	-4.95
182.602	97.45
182.822	23.72
183.042	42.15
183.262	58.54
183.482	52.39
183.701	54.44
183.921	-41.81
184.141	11.43
184.361	74.92
184.58	19.63
184.8	46.25
185.02	23.72
185.239	-2.9
185.459	21.67
185.679	87.21
185.898	-11.09
186.118	101.55
186.338	27.82
186.557	105.64
186.777	23.72
186.997	1.19
187.216	56.49
187.436	93.35
187.655	19.63
187.875	9.39
188.095	-11.09
188.314	19.63
188.534	72.87
188.753	9.39
188.973	5.29
189.192	56.49
189.412	93.35
189.631	13.48
189.851	11.43
190.07	87.21
190.29	-9.05
190.509	-56.15
190.729	31.91
190.948	40.11
191.168	91.31
191.387	132.26
191.607	58.54
191.826	21.67
192.045	27.82
192.265	9.39
192.484	17.58
192.704	-23.38
192.923	-9.05
193.142	50.35
193.362	48.3
193.581	9.39
193.8	79.02
194.02	70.83
194.239	36.01
194.458	54.44
194.678	64.68
194.897	7.34
195.116	13.48
195.335	-21.33
195.555	29.87
195.774	-11.09
195.993	52.39
196.212	-41.81
196.432	11.43
196.651	44.2
196.87	-0.85
197.089	23.72
197.308	50.35
197.528	103.59
197.747	-21.33
197.966	111.78
198.185	50.35
198.404	15.53
198.623	91.31
198.842	52.39
199.062	1.19
199.281	38.06
199.5	38.06
199.719	29.87
199.938	64.68
200.157	91.31
200.376	38.06
200.595	36.01
200.814	36.01
201.033	-0.85
201.252	9.39
201.471	13.48
201.69	27.82
201.909	81.07
202.128	-7
202.347	7.34
202.566	44.2
202.785	7.34
203.004	13.48
203.223	130.22
203.442	79.02
203.661	25.77
203.879	25.77
204.098	85.16
204.317	50.35
204.536	-4.95
204.755	-17.24
204.974	23.72
205.193	29.87
205.411	21.67
205.63	54.44
205.849	13.48
206.068	21.67
206.287	50.35
206.505	60.59
206.724	21.67
206.943	-11.09
207.162	40.11
207.381	-54.1
207.599	44.2
207.818	62.63
208.037	-27.48
208.255	1.19
208.474	62.63
208.693	101.55
208.911	13.48
209.13	3.24
209.349	83.11
209.567	-25.43
209.786	50.35
210.005	1.19
210.223	17.58
210.442	-19.29
210.661	79.02
210.879	11.43
211.098	48.3
211.316	-2.9
211.535	72.87
211.753	9.39
211.972	1.19
212.191	13.48
212.409	38.06
212.628	13.48
212.846	13.48
213.065	97.45
213.283	66.73
213.502	7.34
213.72	13.48
213.938	-2.9
214.157	38.06
214.375	64.68
214.594	7.34
214.812	62.63
215.031	33.96
215.249	74.92
215.467	21.67
215.686	-25.43
215.904	48.3
216.122	1.19
216.341	-9.05
216.559	5.29
216.778	42.15
216.996	31.91
217.214	13.48
217.432	-2.9
217.651	-52.05
217.869	9.39
218.087	76.97
218.306	91.31
218.524	25.77
218.742	3.24
218.96	74.92
219.179	-0.85
219.397	31.91
219.615	42.15
219.833	15.53
220.051	44.2
220.27	76.97
220.488	62.63
220.706	7.34
220.924	87.21
221.142	70.83
221.36	1.19
221.578	58.54
221.796	107.69
222.015	44.2
222.233	-2.9
222.451	91.31
222.669	33.96
222.887	38.06
223.105	-21.33
223.323	99.5
223.541	-11.09
223.759	25.77
223.977	-4.95
224.195	56.49
224.413	13.48
224.631	91.31
224.849	101.55
225.067	105.64
225.285	13.48
225.503	-45.91
225.721	-21.33
225.939	17.58
226.157	-11.09
226.375	36.01
226.592	-11.09
226.81	60.59
227.028	54.44
227.246	-0.85
227.464	56.49
227.682	38.06
227.9	44.2
228.117	70.83
228.335	64.68
228.553	-13.14
228.771	-31.57
228.989	9.39
229.206	54.44
229.424	50.35
229.642	-4.95
229.86	33.96
230.077	54.44
230.295	31.91
230.513	66.73
230.731	17.58
230.948	38.06
231.166	-2.9
231.384	46.25
231.601	11.43
231.819	17.58
232.037	85.16
232.254	89.26
232.472	5.29
232.689	-66.39
232.907	50.35
233.125	-15.19
233.342	46.25
233.56	31.91
233.777	29.87
233.995	27.82
234.213	48.3
234.43	70.83
234.648	66.73
234.865	23.72
235.083	87.21
235.3	91.31
235.518	79.02
235.735	11.43
235.953	95.4
236.17	70.83
236.388	23.72
236.605	46.25
236.822	-33.62
237.04	117.93
237.257	46.25
237.475	-7
237.692	19.63
237.909	5.29
238.127	33.96
238.344	17.58
238.562	25.77
238.779	1.19
238.996	74.92
239.214	56.49
239.431	21.67
239.648	1.19
239.865	62.63
240.083	46.25
240.3	-41.81
240.517	-21.33
240.735	3.24
240.952	40.11
241.169	17.58
241.386	15.53
241.603	-2.9
241.821	29.87
242.038	23.72
242.255	29.87
242.472	46.25
242.689	40.11
242.907	29.87
243.124	21.67
243.341	91.31
243.558	21.67
243.775	15.53
243.992	5.29
244.209	52.39
244.426	148.65
244.643	91.31
244.86	33.96
245.078	-0.85
245.295	50.35
245.512	-27.48
245.729	38.06
245.946	-33.62
246.163	44.2
246.38	17.58
246.597	23.72
246.814	-15.19
247.031	25.77
247.248	74.92
247.464	99.5
247.681	13.48
247.898	56.49
248.115	33.96
248.332	-74.58
248.549	-11.09
248.766	128.17
248.983	91.31
249.2	95.4
249.417	13.48
249.633	25.77
249.85	9.39
250.067	17.58
250.284	29.87
250.501	29.87
250.717	-11.09
250.934	-58.2
251.151	-15.19
251.368	79.02
251.585	79.02
251.801	54.44
252.018	21.67
252.235	5.29
252.451	70.83
252.668	1.19
252.885	50.35
253.102	15.53
253.318	5.29
253.535	21.67
253.752	-37.72
253.968	64.68
254.185	9.39
254.401	31.91
254.618	9.39
254.835	-2.9
255.051	-2.9
255.268	31.91
255.484	36.01
255.701	21.67
255.917	9.39
256.134	42.15
256.351	38.06
256.567	21.67
256.784	89.26
257	-27.48
257.217	33.96
257.433	99.5
257.65	-43.86
257.866	-56.15
258.082	15.53
258.299	89.26
258.515	13.48
258.732	3.24
258.948	-0.85
259.165	3.24
259.381	-9.05
259.597	50.35
259.814	31.91
260.03	52.39
260.246	-64.34
260.463	-27.48
260.679	5.29
260.895	70.83
261.112	50.35
261.328	1.19
261.544	48.3
261.761	33.96
261.977	52.39
262.193	-23.38
262.409	48.3
262.626	-9.05
262.842	54.44
263.058	33.96
263.274	48.3
263.49	119.98
263.707	1.19
263.923	79.02
264.139	-23.38
264.355	70.83
264.571	91.31
264.787	-17.24
265.004	52.39
265.22	-17.24
265.436	81.07
265.652	-31.57
265.868	42.15
266.084	33.96
266.3	-7
266.516	-47.96
266.732	91.31
266.948	56.49
267.164	64.68
267.38	9.39
267.596	64.68
267.812	56.49
268.028	-31.57
268.244	-21.33
268.46	62.63
268.676	13.48
268.892	1.19
269.108	27.82
269.324	17.58
269.54	7.34
269.756	81.07
269.972	93.35
270.188	-31.57
270.403	70.83
270.619	64.68
270.835	103.59
271.051	1.19
271.267	70.83
271.483	27.82
271.698	-13.14
271.914	56.49
272.13	58.54
272.346	70.83
272.562	103.59
272.777	70.83
272.993	11.43
273.209	81.07
273.425	-0.85
273.64	3.24
273.856	93.35
274.072	-33.62
274.287	5.29
274.503	54.44
274.719	-7
274.934	54.44
275.15	25.77
275.366	29.87
275.581	-66.39
275.797	111.78
276.012	33.96
276.228	40.11
276.444	25.77
276.659	17.58
276.875	-17.24
277.09	70.83
277.306	29.87
277.521	-21.33
277.737	-13.14
277.952	-9.05
278.168	48.3
278.383	-19.29
278.599	1.19
278.814	-4.95
279.03	56.49
279.245	36.01
279.461	66.73
279.676	42.15
279.892	1.19
280.107	-7
280.322	21.67
280.538	50.35
280.753	-11.09
280.969	31.91
281.184	25.77
281.399	23.72
281.615	7.34
281.83	95.4
282.045	-19.29
282.26	17.58
282.476	-11.09
282.691	13.48
282.906	-11.09
283.122	13.48
283.337	31.91
283.552	36.01
283.767	62.63
283.983	70.83
284.198	38.06
284.413	48.3
284.628	15.53
284.843	-13.14
285.058	-7
285.274	91.31
285.489	33.96
285.704	21.67
285.919	25.77
286.134	64.68
286.349	19.63
286.564	33.96
286.779	70.83
286.995	62.63
287.21	-41.81
287.425	-21.33
287.64	29.87
287.855	21.67
288.07	40.11
288.285	23.72
288.5	5.29
288.715	38.06
288.93	-0.85
289.145	11.43
289.36	15.53
289.575	-21.33
289.79	23.72
290.004	-43.86
290.219	11.43
290.434	-4.95
290.649	29.87
290.864	-27.48
291.079	-56.15
291.294	-23.38
291.509	60.59
291.724	46.25
291.938	60.59
292.153	23.72
292.368	19.63
292.583	1.19
292.798	48.3
293.012	89.26
293.227	-21.33
293.442	72.87
293.657	107.69
293.871	101.55
294.086	46.25
294.301	48.3
294.516	48.3
294.73	54.44
294.945	-52.05
295.16	38.06
295.374	-33.62
295.589	-13.14
295.804	-2.9
296.018	36.01
296.233	70.83
296.447	-29.52
296.662	42.15
296.877	74.92
297.091	19.63
297.306	48.3
297.52	46.25
297.735	38.06
297.949	91.31
298.164	-19.29
298.378	-11.09
298.593	60.59
298.807	13.48
299.022	-0.85
299.236	25.77
299.451	46.25
299.665	33.96
299.88	70.83
300.094	87.21
300.309	42.15
300.523	19.63
300.737	72.87
300.952	52.39
301.166	54.44
301.381	46.25
301.595	9.39
301.809	-11.09
302.024	7.34
302.238	42.15
302.452	36.01
302.667	-35.67
302.881	87.21
303.095	111.78
303.309	66.73
303.524	-2.9
303.738	42.15
303.952	-11.09
304.166	91.31
304.381	-11.09
304.595	54.44
304.809	-39.76
305.023	7.34
305.237	48.3
305.452	-7
305.666	70.83
305.88	113.83
306.094	52.39
306.308	79.02
306.522	25.77
306.736	132.26
306.95	64.68
307.164	9.39
307.379	-21.33
307.593	60.59
307.807	48.3
308.021	60.59
308.235	52.39
308.449	-41.81
308.663	36.01
308.877	169.13
309.091	-41.81
309.305	33.96
309.519	3.24
309.733	21.67
309.947	23.72
310.161	140.46
310.374	99.5
310.588	101.55
310.802	-27.48
311.016	21.67
311.23	-39.76
311.444	7.34
311.658	58.54
311.872	72.87
312.085	38.06
312.299	62.63
312.513	54.44
312.727	52.39
312.941	-0.85
313.154	-2.9
313.368	-0.85
313.582	38.06
313.796	66.73
314.009	87.21
314.223	70.83
314.437	103.59
314.651	70.83
314.864	23.72
315.078	-2.9
315.292	-11.09
315.505	15.53
315.719	23.72
315.933	5.29
316.146	66.73
316.36	52.39
316.573	-2.9
316.787	38.06
317.001	79.02
317.214	46.25
317.428	79.02
317.641	54.44
317.855	17.58
318.068	-52.05
318.282	79.02
318.495	31.91
318.709	-35.67
318.922	21.67
319.136	48.3
319.349	105.64
319.563	81.07
319.776	-27.48
319.99	50.35
320.203	-7
320.417	11.43
320.63	-13.14
320.843	66.73
321.057	38.06
321.27	1.19
321.483	50.35
321.697	11.43
321.91	76.97
322.124	48.3
322.337	42.15
322.55	29.87
322.763	54.44
322.977	29.87
323.19	25.77
323.403	70.83
323.617	-23.38
323.83	58.54
324.043	1.19
324.256	70.83
324.469	89.26
324.683	64.68
324.896	60.59
325.109	-7
325.322	-76.63
325.535	85.16
325.748	25.77
325.962	95.4
326.175	9.39
326.388	50.35
326.601	44.2
326.814	70.83
327.027	93.35
327.24	79.02
327.453	-23.38
327.666	54.44
327.879	25.77
328.092	-0.85
328.305	23.72
328.518	25.77
328.731	-21.33
328.944	79.02
329.157	62.63
329.37	-39.76
329.583	101.55
329.796	17.58
330.009	9.39
330.222	95.4
330.435	52.39
330.648	46.25
330.861	58.54
331.073	124.07
331.286	40.11
331.499	-47.96
331.712	-4.95
331.925	17.58
332.138	72.87
332.35	25.77
332.563	-64.34
332.776	38.06
332.989	25.77
333.202	48.3
333.414	38.06
333.627	13.48
333.84	23.72
334.053	83.11
334.265	-33.62
334.478	56.49
334.691	-17.24
334.903	-0.85
335.116	-50
335.329	-4.95
335.541	70.83
335.754	13.48
335.966	58.54
336.179	-70.48
336.392	17.58
336.604	99.5
336.817	9.39
337.029	48.3
337.242	1.19
337.454	33.96
337.667	-0.85
337.88	38.06
338.092	-4.95
338.305	107.69
338.517	50.35
338.729	74.92
338.942	52.39
339.154	-56.15
339.367	44.2
339.579	-19.29
339.792	5.29
340.004	105.64
340.217	15.53
340.429	79.02
340.641	68.78
340.854	23.72
341.066	-7
341.278	21.67
341.491	46.25
341.703	66.73
341.915	81.07
342.128	-23.38
342.34	-27.48
342.552	7.34
342.764	48.3
342.977	54.44
343.189	70.83
343.401	7.34
343.613	-68.44
343.826	-9.05
344.038	15.53
344.25	87.21
344.462	46.25
344.674	23.72
344.886	9.39
345.099	93.35
345.311	21.67
345.523	85.16
345.735	13.48
345.947	-35.67
346.159	-11.09
346.371	25.77
346.583	33.96
346.795	56.49
347.007	54.44
347.219	79.02
347.431	9.39
347.643	46.25
347.855	79.02
348.067	76.97
348.279	-17.24
348.491	42.15
348.703	60.59
348.915	36.01
349.127	21.67
349.339	85.16
349.551	-52.05
349.763	42.15
349.975	29.87
350.187	31.91
350.399	46.25
350.61	111.78
350.822	21.67
351.034	15.53
351.246	27.82
351.458	-2.9
351.669	66.73
351.881	17.58
352.093	91.31
352.305	42.15
352.517	66.73
352.728	15.53
352.94	-11.09
353.152	13.48
353.363	33.96
353.575	36.01
353.787	11.43
353.999	70.83
354.21	38.06
354.422	25.77
354.633	-19.29
354.845	52.39
355.057	40.11
355.268	38.06
355.48	54.44
355.692	38.06
355.903	60.59
356.115	15.53
356.326	-4.95
356.538	68.78
356.749	25.77
356.961	21.67
357.172	74.92
357.384	25.77
357.595	87.21
357.807	-7
358.018	64.68
358.23	-11.09
358.441	23.72
358.653	31.91
358.864	-17.24
359.075	15.53
359.287	66.73
359.498	58.54
359.709	50.35
359.921	-0.85
360.132	76.97
360.344	46.25
360.555	-11.09
360.766	66.73
360.977	-52.05
361.189	64.68
361.4	-39.76
361.611	7.34
361.823	93.35
362.034	68.78
362.245	-39.76
362.456	68.78
362.667	3.24
362.879	27.82
363.09	64.68
363.301	19.63
363.512	23.72
363.723	-2.9
363.935	5.29
364.146	7.34
364.357	13.48
364.568	83.11
364.779	7.34
364.99	101.55
365.201	52.39
365.412	62.63
365.623	-88.92
365.834	52.39
366.045	56.49
366.256	154.79
366.467	38.06
366.678	-2.9
366.889	23.72
367.1	19.63
367.311	23.72
367.522	9.39
367.733	72.87
367.944	-41.81
368.155	42.15
368.366	70.83
368.577	-9.05
368.788	38.06
368.999	56.49
369.209	72.87
369.42	177.32
369.631	115.88
369.842	-15.19
370.053	56.49
370.264	48.3
370.474	42.15
370.685	-23.38
370.896	54.44
371.107	72.87
371.317	29.87
371.528	56.49
371.739	42.15
371.95	64.68
372.16	36.01
372.371	29.87
372.582	79.02
372.792	25.77
373.003	54.44
373.214	62.63
373.424	62.63
373.635	66.73
373.846	89.26
374.056	-2.9
374.267	-58.2
374.477	46.25
374.688	17.58
374.898	-31.57
375.109	-33.62
375.319	64.68
375.53	25.77
375.74	33.96
375.951	9.39
376.161	38.06
376.372	79.02
376.582	-0.85
376.793	1.19
377.003	-7
377.214	3.24
377.424	38.06
377.635	1.19
377.845	23.72
378.055	70.83
378.266	-37.72
378.476	38.06
378.686	-52.05
378.897	-9.05
379.107	33.96
379.317	21.67
379.528	7.34
379.738	40.11
379.948	-27.48
380.158	103.59
380.369	38.06
380.579	64.68
380.789	-41.81
380.999	38.06
381.21	-7
381.42	62.63
381.63	42.15
381.84	60.59
382.05	25.77
382.261	83.11
382.471	-0.85
382.681	93.35
382.891	128.17
383.101	101.55
383.311	-4.95
383.521	54.44
383.731	46.25
383.941	87.21
384.151	13.48
384.361	79.02
384.571	-7
384.781	91.31
384.991	87.21
385.201	171.18
385.411	62.63
385.621	21.67
385.831	64.68
386.041	-7
386.251	64.68
386.461	91.31
386.671	-17.24
386.881	13.48
387.091	56.49
387.301	25.77
387.511	-25.43
387.72	93.35
387.93	46.25
388.14	9.39
388.35	-7
388.56	56.49
388.769	29.87
388.979	79.02
389.189	42.15
389.399	31.91
389.609	58.54
389.818	-11.09
390.028	-2.9
390.238	144.55
390.447	58.54
390.657	62.63
390.867	-37.72
391.076	76.97
391.286	13.48
391.496	27.82
391.705	42.15
391.915	9.39
392.125	70.83
392.334	7.34
392.544	54.44
392.753	50.35
392.963	-11.09
393.172	66.73
393.382	21.67
393.591	66.73
393.801	48.3
394.01	132.26
394.22	76.97
394.429	19.63
394.639	31.91
394.848	54.44
395.058	42.15
395.267	128.17
395.477	91.31
395.686	103.59
395.895	50.35
396.105	122.02
396.314	52.39
396.524	140.46
396.733	13.48
396.942	113.83
397.152	46.25
397.361	103.59
397.57	23.72
397.78	105.64
397.989	29.87
398.198	136.36
398.407	83.11
398.617	95.4
398.826	56.49
399.035	54.44
399.244	85.16
399.453	74.92
399.663	58.54
399.872	64.68
400.081	19.63
400.29	103.59
400.499	25.77
400.708	144.55
400.917	42.15
401.127	25.77
401.336	7.34
401.545	76.97
401.754	87.21
401.963	64.68
402.172	31.91
402.381	74.92
402.59	29.87
402.799	136.36
403.008	64.68
403.217	109.74
403.426	48.3
403.635	-19.29
403.844	93.35
404.053	68.78
404.262	33.96
404.471	181.42
404.68	150.7
404.888	38.06
405.097	85.16
405.306	64.68
405.515	107.69
405.724	97.45
405.933	105.64
406.142	99.5
406.35	79.02
406.559	58.54
406.768	109.74
406.977	79.02
407.185	81.07
407.394	126.12
407.603	64.68
407.812	29.87
408.02	93.35
408.229	148.65
408.438	160.94
408.646	169.13
408.855	185.51
409.064	85.16
409.272	187.56
409.481	218.28
409.69	181.42
409.898	177.32
410.107	189.61
410.315	259.24
410.524	130.22
410.733	226.47
410.941	156.84
411.15	136.36
411.358	242.85
411.567	238.76
411.775	199.85
411.984	281.77
412.192	224.42
412.401	316.58
412.609	220.33
412.818	289.96
413.026	287.91
413.234	300.2
413.443	279.72
413.651	234.66
413.86	324.77
414.068	255.14
414.276	388.26
414.485	283.81
414.693	349.35
414.901	349.35
415.11	394.4
415.318	349.35
415.526	449.7
415.734	412.84
415.943	459.94
416.151	502.95
416.359	398.5
416.567	431.27
416.776	494.76
416.984	507.04
417.192	486.56
417.4	494.76
417.608	591.01
417.817	562.34
418.025	582.82
418.233	631.97
418.441	646.3
418.649	566.43
418.857	695.46
419.065	656.54
419.273	623.78
419.481	763.04
419.689	648.35
419.897	687.26
420.105	769.18
420.313	683.17
420.521	801.95
420.729	824.48
420.937	890.01
421.145	896.16
421.353	842.91
421.561	965.79
421.769	1006.75
421.977	1035.42
422.185	1068.19
422.393	1062.04
422.601	1189.02
422.809	1146.01
423.017	1172.63
423.224	1293.46
423.432	1311.89
423.64	1324.18
423.848	1328.28
424.056	1277.08
424.263	1350.81
424.471	1381.53
424.679	1528.98
424.887	1541.27
425.094	1592.47
425.302	1524.88
425.51	1670.29
425.718	1703.06
425.925	1713.3
426.133	1827.98
426.341	1950.86
426.548	2014.35
426.756	1983.63
426.964	1873.04
427.171	2102.41
427.379	2110.6
427.586	2184.33
427.794	2350.21
428.001	2415.75
428.209	2397.32
428.417	2528.39
428.624	2651.27
428.832	2655.36
429.039	2585.73
429.247	2704.51
429.454	2811.01
429.662	3142.78
429.869	2956.41
430.076	3019.9
430.284	2991.23
430.491	3046.52
430.699	3261.56
430.906	3300.47
431.114	3263.61
431.321	3470.45
431.528	3478.65
431.736	3566.71
431.943	3857.52
432.15	3775.6
432.358	3865.71
432.565	3935.34
432.772	4013.17
432.979	4236.39
433.187	4334.7
433.394	4263.02
433.601	4621.41
433.808	4586.6
434.016	4666.47
434.223	4895.84
434.43	5000.29
434.637	4975.71
434.844	5352.54
435.052	5237.85
435.259	5123.16
435.466	5293.15
435.673	5411.93
435.88	5745.75
436.087	5811.28
436.294	6065.23
436.501	5968.98
436.708	5880.91
436.915	6149.2
437.122	6503.5
437.329	6464.58
437.537	6759.49
437.743	6806.59
437.95	6743.11
438.157	7236.67
438.364	7105.6
438.571	7191.61
438.778	7273.53
438.985	7871.54
439.192	7701.56
439.399	7973.94
439.606	7605.3
439.813	8037.42
440.02	8750.12
440.227	8518.7
440.433	8457.26
440.64	8731.69
440.847	8588.33
441.054	8909.86
441.261	9323.55
441.467	9319.45
441.674	9475.1
441.881	9716.76
442.088	9808.92
442.294	9677.85
442.501	10054.67
442.708	10132.5
442.914	10513.42
443.121	11037.7
443.328	10673.16
443.534	11721.72
443.741	11373.57
443.948	10890.24
444.154	11768.82
444.361	11684.86
444.568	12012.53
444.774	11758.58
444.981	12033.01
445.187	12375.02
445.394	13013.99
445.6	12723.18
445.807	14033.88
446.013	13298.66
446.22	13734.87
446.426	14273.49
446.633	14232.53
446.839	14689.23
447.046	14146.51
447.252	14969.8
447.459	14867.4
447.665	14955.46
447.871	15551.42
448.078	16241.59
448.284	15561.66
448.491	16026.55
448.697	16743.34
448.903	16882.6
449.11	16905.13
449.316	16516.01
449.522	16888.74
449.728	17533.86
449.935	17738.65
450.141	17476.51
450.347	18213.78
450.553	17492.9
450.76	17521.57
450.966	18381.71
451.172	18142.1
451.378	18594.7
451.584	18238.36
451.791	18633.61
451.997	18674.57
452.203	18916.23
452.409	19037.06
452.615	18758.54
452.821	18275.22
453.027	18273.17
453.233	18965.39
453.44	18426.77
453.646	18494.35
453.852	18568.08
454.058	18926.47
454.264	18432.91
454.47	18867.08
454.676	18183.06
454.882	19098.5
455.088	17378.21
455.294	17601.44
455.5	17714.08
455.705	17832.86
455.911	17150.88
456.117	17052.58
456.323	16800.68
456.529	15985.59
456.735	16649.13
456.941	15913.91
457.147	15694.78
457.352	15387.58
457.558	15213.51
457.764	15262.66
457.97	14984.13
458.176	14539.72
458.381	14597.07
458.587	13859.8
458.793	13822.94
458.999	13052.9
459.204	14207.95
459.41	13784.02
459.616	12850.15
459.821	12819.43
460.027	12995.56
460.233	12592.11
460.438	12114.93
460.644	12030.96
460.85	11408.38
461.055	11260.93
461.261	11529.21
461.466	10378.25
461.672	10255.37
461.878	10904.58
462.083	10034.19
462.289	10052.63
462.494	9823.25
462.7	9514.01
462.905	9071.65
463.111	9436.19
463.316	9479.19
463.522	9237.53
463.727	9425.95
463.932	9378.84
464.138	9165.85
464.343	9290.78
464.549	9124.9
464.754	9305.12
464.959	9315.36
465.165	9094.18
465.37	8692.77
465.575	8731.69
465.781	8950.82
465.986	8916
466.191	8662.05
466.397	8459.31
466.602	7910.45
466.807	8391.72
467.012	8291.37
467.218	8354.86
467.423	8115.25
467.628	8180.78
467.833	8539.18
468.038	8152.11
468.244	8004.66
468.449	8363.05
468.654	8076.34
468.859	8010.8
469.064	8137.77
469.269	7806
469.474	7820.34
469.679	7818.29
469.885	7719.99
470.09	7740.47
470.295	7693.37
470.5	7425.08
470.705	7476.28
470.91	7408.7
471.115	7461.94
471.32	7588.92
471.525	7441.47
471.73	7095.36
471.935	7154.75
472.139	6906.95
472.344	7173.18
472.549	7087.17
472.754	6972.48
472.959	6829.12
473.164	6665.28
473.369	6519.88
473.574	6755.4
473.778	6681.67
473.983	6632.52
474.188	6753.35
474.393	6429.77
474.598	6419.53
474.802	6298.7
475.007	6194.25
475.212	6366.28
475.417	5940.3
475.621	5928.02
475.826	6149.2
476.031	6011.98
476.235	5858.39
476.44	6024.27
476.645	6007.89
476.849	5911.63
477.054	5850.19
477.259	5581.91
477.463	5749.84
477.668	5573.72
477.872	5579.86
478.077	5381.21
478.282	5364.82
478.486	5313.63
478.691	5334.11
478.895	5266.52
479.1	5401.69
479.304	5188.7
479.509	5078.11
479.713	5313.63
479.918	5221.47
480.122	5076.06
480.326	4990.05
480.531	5053.53
480.735	5108.83
480.94	5018.72
481.144	5131.36
481.348	4934.75
481.553	4944.99
481.757	4873.31
481.961	5004.38
482.166	4965.47
482.37	4797.54
482.574	4803.68
482.778	4869.22
482.983	5139.55
483.187	4963.42
483.391	5010.53
483.595	4926.56
483.8	4715.62
484.004	4865.12
484.208	4908.13
484.412	4764.77
484.616	4942.94
484.821	4998.24
485.025	4797.54
485.229	4922.46
485.433	4793.44
485.637	4715.62
485.841	4768.87
486.045	4854.88
486.249	4858.98
486.453	4768.87
486.657	5014.62
486.861	4942.94
487.065	4779.11
487.269	4875.36
487.473	4869.22
487.677	4988
487.881	4877.41
488.085	4797.54
488.289	4881.5
488.493	4729.95
488.697	4920.42
488.901	4910.18
489.105	4881.5
489.309	5039.2
489.512	4963.42
489.716	4879.46
489.92	4998.24
490.124	4965.47
490.328	4996.19
490.531	4942.94
490.735	5051.49
490.939	5006.43
491.143	5045.34
491.346	4879.46
491.55	5117.02
491.754	5067.87
491.958	5157.98
492.161	5135.45
492.365	5207.13
492.569	5094.49
492.772	5108.83
492.976	5141.6
493.18	5225.56
493.383	5014.62
493.587	5233.75
493.79	5428.31
493.994	5160.03
494.197	5411.93
494.401	5536.85
494.605	5448.79
494.808	5448.79
495.012	5450.84
495.215	5499.99
495.419	5524.57
495.622	5669.97
495.825	5669.97
496.029	5604.44
496.232	5758.03
496.436	5782.61
496.639	6001.74
496.843	5917.78
497.046	5899.34
497.249	6122.57
497.453	5995.6
497.656	6061.13
497.859	6093.9
498.063	6270.03
498.266	6308.94
498.469	6190.16
498.673	6509.64
498.876	6347.85
499.079	6657.09
499.282	6579.27
499.485	6685.76
499.689	6782.02
499.892	6935.62
500.095	6718.53
500.298	7156.8
500.501	6800.45
500.705	7050.3
500.908	7267.39
501.111	7027.78
501.314	7402.55
501.517	7480.38
501.72	7533.62
501.923	7468.09
502.126	7582.77
502.329	7767.09
502.532	7828.53
502.735	7699.51
502.938	7935.03
503.141	8082.48
503.344	7945.27
503.547	8057.9
503.75	8258.6
503.953	8479.79
504.156	8506.41
504.359	8520.74
504.562	8588.33
504.765	8623.14
504.968	8625.19
505.17	9075.74
505.373	8918.05
505.576	9182.24
505.779	9176.09
505.982	9100.32
506.185	9356.32
506.387	9384.99
506.59	9614.36
506.793	9665.56
506.996	9688.09
507.198	10034.19
507.401	10128.4
507.604	10028.05
507.807	10370.06
508.009	10296.33
508.212	10497.03
508.415	10480.65
508.617	10576.91
508.82	10759.17
509.022	10484.75
509.225	10945.54
509.428	11000.83
509.63	11260.93
509.833	11232.26
510.035	11451.39
510.238	11205.63
510.44	11598.84
510.643	11557.88
510.845	11774.97
511.048	11762.68
511.25	11891.7
511.453	12241.9
511.655	12557.29
511.858	12342.25
512.06	12336.11
512.262	12678.12
512.465	12579.82
512.667	12757.99
512.87	12833.77
513.072	12999.65
513.274	13327.33
513.477	13370.33
513.679	13485.02
513.881	13388.77
514.084	13730.78
514.286	13704.15
514.488	13890.52
514.69	14375.89
514.893	14179.28
515.095	14379.98
515.297	14349.26
515.499	14785.48
515.701	14777.29
515.904	14992.33
516.106	14949.32
516.308	15354.82
516.51	15393.73
516.712	15426.5
516.914	15481.79
517.116	15733.69
517.318	15889.34
517.52	16010.17
517.722	16171.96
517.925	16196.53
518.127	16491.44
518.329	16610.22
518.531	16554.93
518.733	16698.28
518.935	16743.34
519.136	16739.24
519.338	17263.52
519.54	17292.19
519.742	17247.14
519.944	17783.71
520.146	17990.55
520.348	18088.85
520.55	17877.91
520.752	18219.92
520.954	18242.45
521.155	18172.82
521.357	18324.37
521.559	18447.25
521.761	18930.57
521.963	19039.11
522.164	19172.23
522.366	19293.06
522.568	19424.13
522.77	19432.32
522.971	19538.82
523.173	19667.84
523.375	19882.88
523.576	20120.44
523.778	19975.03
523.98	20116.34
524.181	20413.3
524.383	20382.58
524.584	20509.55
524.786	20341.62
524.988	20583.28
525.189	20783.98
525.391	21148.52
525.592	21130.09
525.794	21189.48
525.995	21052.27
526.197	21261.16
526.398	21498.72
526.6	21302.12
526.801	21793.63
527.003	21879.64
527.204	21773.15
527.406	21891.93
527.607	21799.77
527.808	22516.56
528.01	21922.65
528.211	22195.03
528.412	22326.1
528.614	22629.2
528.815	22395.73
529.016	22827.85
529.218	22422.36
529.419	22422.36
529.62	22641.49
529.822	22506.32
530.023	22887.25
530.224	22672.21
530.425	22827.85
530.626	22768.46
530.828	22731.6
531.029	23182.15
531.23	22799.18
531.431	22727.5
531.632	23100.23
531.833	23212.87
532.035	22971.21
532.236	22936.4
532.437	23059.27
532.638	23325.51
532.839	23159.63
533.04	23368.52
533.241	22985.55
533.442	23800.64
533.643	23458.63
533.844	23497.54
534.045	23206.73
534.246	23391.05
534.447	23280.46
534.648	23116.62
534.849	23671.62
535.05	23247.69
535.251	23655.23
535.451	23298.89
535.652	23612.23
535.853	23515.97
536.054	23620.42
536.255	23688
536.456	23270.22
536.657	23857.98
536.857	23794.5
537.058	23212.87
537.259	23923.52
537.46	23618.37
537.66	23343.94
537.861	23401.29
538.062	23352.13
538.263	23601.99
538.463	23616.32
538.664	23616.32
538.865	23505.73
539.065	23720.77
539.266	23237.45
539.466	23499.59
539.667	23618.37
539.868	23495.49
540.068	23272.26
540.269	23538.5
540.469	23731.01
540.67	23235.4
540.87	23272.26
541.071	23483.2
541.271	23702.34
541.472	23710.53
541.672	23589.7
541.873	23382.85
542.073	22844.24
542.274	23774.02
542.474	23399.24
542.675	23397.19
542.875	23665.47
543.075	23362.37
543.276	23194.44
543.476	23784.26
543.676	22842.19
543.877	23241.54
544.077	23221.06
544.277	23210.82
544.478	23395.14
544.678	23296.84
544.878	23477.06
545.078	23604.03
545.279	23190.34
545.479	23315.27
545.679	23182.15
545.879	23061.32
546.079	23368.52
546.28	23366.47
546.48	23208.78
546.68	23286.6
546.88	23548.74
547.08	23421.77
547.28	23223.11
547.48	23106.38
547.68	23264.07
547.88	23247.69
548.081	23337.8
548.281	23016.27
548.481	23151.43
548.681	23233.35
548.881	23436.1
549.081	23065.42
549.28	22993.74
549.48	23249.74
549.68	23208.78
549.88	23427.91
550.08	23083.85
550.28	23237.45
550.48	23083.85
550.68	23472.96
550.88	23249.74
551.08	23190.34
551.279	23243.59
551.479	23126.86
551.679	23106.38
551.879	23098.19
552.079	23413.57
552.278	23139.15
552.478	22958.92
552.678	23182.15
552.878	23239.5
553.077	23030.6
553.277	23180.1
553.477	23030.6
553.676	23114.57
553.876	22938.44
554.076	22711.12
554.275	22776.66
554.475	22541.14
554.674	22954.83
554.874	23057.23
555.074	22690.64
555.273	23089.99
555.473	23006.03
555.672	22725.46
555.872	22881.1
556.071	23171.91
556.271	22909.77
556.47	22813.52
556.67	22520.66
556.869	22618.96
557.068	22567.76
557.268	22557.52
557.467	22432.6
557.667	22336.34
557.866	22821.71
558.065	22631.25
558.265	22762.32
558.464	22610.77
558.663	22463.32
558.863	22463.32
559.062	22561.62
559.261	22082.39
559.461	22371.16
559.66	22123.35
559.859	22217.56
560.058	22049.63
560.258	22217.56
560.457	21969.76
560.656	22051.67
560.855	22014.81
561.054	22223.7
561.253	21977.95
561.453	22164.31
561.652	21742.43
561.851	22070.11
562.05	21943.13
562.249	22061.91
562.448	21793.63
562.647	21832.54
562.846	21633.89
563.045	21719.9
563.244	21386.08
563.443	21695.33
563.642	21222.25
563.841	21457.76
564.04	21472.1
564.239	21373.8
564.438	21447.52
564.637	21300.07
564.836	21549.92
565.035	20941.68
565.234	21093.22
565.432	20945.77
565.631	20984.68
565.83	21095.27
566.029	20960.11
566.228	20982.63
566.427	20695.92
566.625	20558.7
566.824	20659.06
567.023	20755.31
567.222	20527.99
567.42	20581.23
567.619	20642.67
567.818	20413.3
568.016	20415.35
568.215	20484.98
568.414	20429.68
568.612	20468.59
568.811	20304.76
569.01	20169.59
569.208	20022.14
569.407	20151.16
569.605	19798.91
569.804	20071.29
570.002	20030.33
570.201	20032.38
570.4	19940.22
570.598	19749.76
570.797	19673.98
570.995	19753.85
571.193	19471.23
571.392	19538.82
571.59	19508.1
571.789	19669.89
571.987	19501.95
572.186	19350.4
572.384	19239.81
572.582	19532.67
572.781	19346.31
572.979	19055.5
573.177	19405.7
573.376	19200.9
573.574	19217.29
573.772	18944.91
573.971	18842.51
574.169	18957.19
574.367	18926.47
574.565	19078.02
574.763	18740.11
574.962	18701.2
575.16	18699.15
575.358	18533.26
575.556	18207.64
575.754	18711.44
575.952	18480.02
576.151	18621.33
576.349	18430.87
576.547	18195.35
576.745	18486.16
576.943	18422.67
577.141	17961.88
577.339	18355.09
577.537	17978.26
577.735	18256.79
577.933	17914.78
578.131	18031.51
578.329	17752.99
578.527	17623.97
578.725	17925.02
578.923	17933.21
579.121	17568.67
579.319	17634.21
579.516	17771.42
579.714	17605.53
579.912	17662.88
580.11	17449.89
580.308	17542.05
580.506	17636.25
580.704	17296.29
580.901	17406.88
581.099	17374.11
581.297	17277.86
581.495	17017.77
581.692	17230.76
581.89	17040.29
582.088	17052.58
582.285	16921.51
582.483	17083.3
582.681	17134.5
582.878	16855.98
583.076	16778.15
583.274	16933.8
583.471	16874.41
583.669	16755.63
583.866	16561.07
584.064	16958.38
584.262	16657.32
584.459	16696.24
584.657	16454.58
584.854	16364.46
585.052	16071.61
585.249	16524.21
585.447	16284.59
585.644	16034.74
585.841	16333.75
586.039	16571.31
586.236	16178.1
586.434	15924.15
586.631	16159.67
586.828	15883.19
587.026	15973.3
587.223	16098.23
587.42	15750.07
587.618	16026.55
587.815	15700.92
588.012	15682.49
588.21	15829.95
588.407	15688.64
588.604	15756.22
588.801	15485.89
588.999	15709.11
589.196	15459.26
589.393	15692.73
589.59	15365.06
589.787	15145.92
589.984	15455.17
590.182	14816.2
590.379	15375.3
590.576	15258.56
590.773	15090.63
590.97	15082.44
591.167	15072.2
591.364	15014.85
591.561	14939.08
591.758	14844.87
591.955	14918.6
592.152	14846.92
592.349	14732.23
592.546	14812.1
592.743	14689.23
592.94	14562.25
593.137	14662.6
593.334	14660.55
593.531	14400.46
593.727	14324.69
593.924	14500.81
594.121	14263.25
594.318	14429.13
594.515	14328.78
594.712	14607.31
594.908	14130.13
595.105	14330.83
595.302	13921.24
595.499	14298.06
595.696	14103.51
595.892	13886.42
596.089	14355.41
596.286	13988.82
596.482	13874.13
596.679	14109.65
596.876	13972.44
597.072	13808.6
597.269	13706.2
597.466	13878.23
597.662	13788.12
597.859	13771.74
598.055	13781.98
598.252	13499.36
598.448	13341.66
598.645	13392.86
598.841	13528.03
599.038	13417.44
599.234	13460.45
599.431	13173.73
599.627	13405.15
599.824	13325.28
600.02	13120.48
600.217	13509.6
600.413	13132.77
600.609	13089.76
600.806	12923.88
601.002	13077.48
601.198	12817.38
601.395	12817.38
601.591	12803.05
601.787	12782.57
601.984	12778.47
602.18	12874.73
602.376	12653.55
602.572	12766.18
602.769	12766.18
602.965	12147.7
603.161	12751.85
603.357	12665.83
603.553	12409.84
603.75	12616.68
603.946	12362.73
604.142	12436.46
604.338	12352.49
604.534	12401.65
604.73	12368.88
604.926	12258.29
605.122	12313.58
605.318	12276.72
605.514	12112.88
605.71	11967.48
605.906	11975.67
606.102	12039.15
606.298	11650.04
606.494	12037.11
606.69	12088.31
606.886	12041.2
607.082	11678.71
607.278	11795.45
607.474	11762.68
607.67	11881.46
607.866	11715.58
608.062	11820.02
608.257	11766.78
608.453	11553.79
608.649	11693.05
608.845	11635.71
609.041	11447.29
609.236	11598.84
609.432	11383.8
609.628	11625.47
609.824	11635.71
610.019	11432.96
610.215	11418.62
610.411	11334.65
610.606	11459.58
610.802	11424.76
610.998	11346.94
611.193	11514.87
611.389	11430.91
611.584	11170.82
611.78	11334.65
611.976	11166.72
612.171	11293.69
612.367	11205.63
612.562	11256.83
612.758	10961.92
612.953	11011.07
613.149	11332.61
613.344	11041.79
613.539	11101.19
613.735	11015.17
613.93	11086.85
614.126	11035.65
614.321	11027.46
614.517	11123.71
614.712	10867.72
614.907	10765.32
615.103	10834.95
615.298	10705.93
615.493	11064.32
615.688	10763.27
615.884	11090.95
616.079	10841.09
616.274	10810.37
616.47	10691.59
616.665	10857.48
616.86	10681.35
617.055	10581
617.25	10691.59
617.445	10718.22
617.641	10640.39
617.836	10460.17
618.031	10411.02
618.226	10566.67
618.421	10523.66
618.616	10398.73
618.811	10218.51
619.006	10445.84
619.201	10202.13
619.396	10341.39
619.591	10179.6
619.786	10343.44
619.981	9923.6
620.176	10193.94
620.371	10273.81
620.566	10064.91
620.761	9939.99
620.956	9915.41
621.151	9972.75
621.346	10114.06
621.541	9757.72
621.735	9896.98
621.93	9618.46
622.125	9935.89
622.32	9649.18
622.515	9532.44
622.709	9649.18
622.904	9591.83
623.099	9313.31
623.294	9294.88
623.488	9364.51
623.683	9372.7
623.878	9174.05
624.072	9309.21
624.267	9266.21
624.462	9165.85
624.656	8967.2
624.851	9120.8
625.046	8873
625.24	9167.9
625.435	9012.26
625.629	8971.3
625.824	8731.69
626.018	8842.28
626.213	8741.93
626.407	8524.84
626.602	8352.81
626.796	8670.25
626.991	8487.98
627.185	8326.19
627.38	8416.3
627.574	8371.24
627.768	8322.09
627.963	8252.46
628.157	8021.04
628.352	8238.12
628.546	8035.38
628.74	8244.27
628.935	8057.9
629.129	8092.72
629.323	8107.05
629.517	7863.35
629.712	7967.79
629.906	7875.63
630.1	7713.84
630.294	7785.52
630.489	7664.69
630.683	7715.89
630.877	7574.58
631.071	7713.84
631.265	7660.6
631.459	7498.81
631.653	7504.95
631.848	7443.51
632.042	7484.47
632.236	7640.12
632.43	7400.51
632.624	7357.5
632.818	7271.48
633.012	7183.42
633.206	7208
633.4	7271.48
633.594	7052.35
633.788	7169.09
633.982	6954.05
634.176	7060.54
634.369	6878.27
634.563	6995.01
634.757	6837.31
634.951	6939.71
635.145	6937.66
635.339	6835.27
635.533	6880.32
635.726	6673.48
635.92	6558.79
636.114	6751.3
636.308	6640.71
636.501	6853.7
636.695	6669.38
636.889	6472.78
637.083	6470.73
637.276	6480.97
637.47	6351.95
637.664	6454.34
637.857	6489.16
638.051	6380.62
638.244	6116.43
638.438	6480.97
638.632	6386.76
638.825	6157.39
639.019	6241.36
639.212	5897.3
639.406	6136.91
639.599	6028.37
639.793	6077.52
639.986	6093.9
640.18	5977.17
640.373	5930.06
640.567	5872.72
640.76	5985.36
640.954	5829.71
641.147	6057.04
641.34	5987.41
641.534	5733.46
641.727	5821.52
641.92	5751.89
642.114	5669.97
642.307	5686.36
642.5	5682.26
642.694	5622.87
642.887	5532.76
643.08	5553.24
643.273	5669.97
643.467	5635.16
643.66	5430.36
643.853	5403.74
644.046	5483.61
644.239	5381.21
644.432	5469.27
644.626	5293.15
644.819	5278.81
645.012	5301.34
645.205	5293.15
645.398	5366.87
645.591	5153.88
645.784	5231.71
645.977	5174.36
646.17	5373.02
646.363	5076.06
646.556	4951.14
646.749	5031.01
646.942	5020.77
647.135	4838.5
647.328	5037.15
647.521	4891.74
647.714	4803.68
647.907	4758.63
648.099	4895.84
648.292	4858.98
648.485	4889.7
648.678	4789.35
648.871	4748.39
649.064	4625.51
649.256	4678.76
649.449	4641.89
649.642	4652.13
649.835	4652.13
650.027	4650.08
650.22	4645.99
650.413	4467.81
650.605	4473.96
650.798	4445.29
650.991	4437.09
651.183	4510.82
651.376	4473.96
651.568	4476.01
651.761	4389.99
651.954	4445.29
652.146	4389.99
652.339	4303.98
652.531	4312.17
652.724	4263.02
652.916	4250.73
653.109	4183.15
653.301	4275.31
653.494	4359.27
653.686	4160.62
653.879	4187.24
654.071	4101.23
654.263	4007.02
654.456	4029.55
654.648	4142.19
654.84	4086.89
655.033	4039.79
655.225	3914.86
655.417	3998.83
655.61	4107.37
655.802	4019.31
655.994	3923.05
656.186	4052.08
656.379	3947.63
656.571	3931.25
656.763	3710.07
656.955	3757.17
657.148	3800.18
657.34	3765.36
657.532	3648.63
657.724	3724.4
657.916	3769.46
658.108	3701.87
658.3	3519.6
658.492	3701.87
658.684	3574.9
658.876	3454.07
659.068	3585.14
659.26	3607.67
659.452	3736.69
659.644	3619.96
659.836	3509.37
660.028	3585.14
660.22	3509.37
660.412	3511.41
660.604	3478.65
660.796	3480.69
660.988	3486.84
661.18	3359.86
661.372	3411.06
661.563	3423.35
661.755	3388.53
661.947	3433.59
662.139	3337.34
662.331	3304.57
662.522	3263.61
662.714	3245.18
662.906	3290.23
663.097	3159.16
663.289	3191.93
663.481	3224.7
663.673	3269.75
663.864	3128.44
664.056	3222.65
664.247	3175.55
664.439	3142.78
664.631	3118.2
664.822	3140.73
665.014	3169.4
665.205	2927.74
665.397	3067
665.588	3075.2
665.78	2993.28
665.971	2980.99
666.163	2962.56
666.354	2919.55
666.546	2974.85
666.737	2946.17
666.929	2903.17
667.12	2950.27
667.311	2915.45
667.503	2843.78
667.694	2851.97
667.885	2954.37
668.077	2854.02
668.268	2946.17
668.459	2886.78
668.651	2927.74
668.842	2745.47
669.033	2874.49
669.224	2708.61
669.416	2843.78
669.607	2804.86
669.798	2618.5
669.989	2804.86
670.18	2677.89
670.371	2692.23
670.563	2700.42
670.754	2630.79
670.945	2765.95
671.136	2712.71
671.327	2579.59
671.518	2700.42
671.709	2684.03
671.9	2606.21
672.091	2600.07
672.282	2600.07
672.473	2569.35
672.664	2616.45
672.855	2585.73
673.046	2575.49
673.237	2581.64
673.428	2651.27
673.619	2555.01
673.809	2544.77
674	2458.76
674.191	2516.1
674.382	2493.57
674.573	2512
674.764	2526.34
674.954	2481.28
675.145	2401.41
675.336	2368.65
675.527	2423.94
675.717	2385.03
675.908	2460.81
676.099	2374.79
676.289	2448.52
676.48	2391.17
676.671	2397.32
676.861	2356.36
677.052	2307.21
677.243	2350.21
677.433	2358.41
677.624	2368.65
677.814	2272.39
678.005	2409.61
678.195	2407.56
678.386	2278.54
678.576	2329.74
678.767	2188.43
678.957	2419.85
679.148	2247.82
679.338	2245.77
679.529	2290.82
679.719	2387.08
679.909	2311.3
680.1	2237.58
680.29	2233.48
680.481	2290.82
680.671	2169.99
680.861	2311.3
681.052	2227.34
681.242	2233.48
681.432	2096.27
681.622	2167.95
681.813	2284.68
682.003	2129.03
682.193	2151.56
682.383	2141.32
682.573	2059.4
682.764	2196.62
682.954	2016.4
683.144	2241.67
683.334	2069.64
683.524	2208.9
683.714	2258.06
683.904	2124.94
684.094	2088.07
684.284	2055.31
684.474	2137.23
684.664	2038.92
684.854	2104.46
685.044	2141.32
685.234	2100.36
685.424	2071.69
685.614	2045.07
685.804	2143.37
685.994	2024.59
686.184	2094.22
686.374	2014.35
686.564	2104.46
686.753	2126.99
686.943	1897.61
687.133	2053.26
687.323	2104.46
687.513	2000.01
687.702	2047.12
687.892	1879.18
688.082	2006.16
688.272	1926.29
688.461	1924.24
688.651	1836.17
688.841	1948.81
689.03	1965.2
689.22	1924.24
689.41	1901.71
689.599	1942.67
689.789	1922.19
689.979	1920.14
690.168	1873.04
690.358	1844.37
690.547	1836.17
690.737	1797.26
690.926	1938.57
691.116	1793.17
691.305	1846.41
691.495	1864.85
691.684	1758.35
691.874	1832.08
692.063	1795.22
692.252	1864.85
692.442	1823.89
692.631	1762.45
692.82	1868.94
693.01	1768.59
693.199	1733.78
693.388	1754.26
693.578	1768.59
693.767	1907.85
693.956	1614.99
694.146	1744.02
694.335	1645.71
694.524	1717.39
694.713	1678.48
694.902	1694.86
695.092	1787.02
695.281	1676.43
695.47	1668.24
695.659	1676.43
695.848	1750.16
696.037	1635.47
696.226	1719.44
696.415	1653.91
696.604	1662.1
696.793	1610.9
696.982	1588.37
697.171	1590.42
697.36	1598.61
697.549	1594.51
697.738	1653.91
697.927	1541.27
698.116	1580.18
698.305	1551.51
698.494	1680.53
698.683	1670.29
698.872	1633.43
699.061	1629.33
699.25	1617.04
699.438	1776.78
699.627	1598.61
699.816	1631.38
700.005	1608.85
700.193	1569.94
700.382	1676.43
700.571	1606.8
700.76	1500.31
700.948	1713.3
701.137	1703.06
701.326	1627.28
701.514	1610.9
701.703	1571.99
701.892	1582.23
702.08	1684.62
702.269	1664.15
702.457	1635.47
702.646	1637.52
702.834	1528.98
703.023	1592.47
703.212	1660.05
703.4	1578.13
703.589	1645.71
703.777	1586.32
703.965	1594.51
704.154	1569.94
704.342	1651.86
704.531	1541.27
704.719	1561.75
704.907	1713.3
705.096	1645.71
705.284	1490.07
705.472	1643.67
705.661	1481.88
705.849	1610.9
706.037	1631.38
706.226	1639.57
706.414	1623.19
706.602	1670.29
706.79	1741.97
706.979	1647.76
707.167	1621.14
707.355	1600.66
707.543	1578.13
707.731	1512.6
707.919	1651.86
708.107	1633.43
708.296	1588.37
708.484	1559.7
708.672	1592.47
708.86	1703.06
709.048	1524.88
709.236	1561.75
709.424	1701.01
709.612	1625.23
709.8	1617.04
709.988	1500.31
710.176	1612.95
710.364	1590.42
710.551	1670.29
710.739	1578.13
710.927	1651.86
711.115	1651.86
711.303	1586.32
711.491	1608.85
711.679	1647.76
711.866	1598.61
712.054	1643.67
712.242	1627.28
712.43	1762.45
712.617	1676.43
712.805	1653.91
712.993	1557.65
713.181	1590.42
713.368	1621.14
713.556	1686.67
713.744	1627.28
713.931	1651.86
714.119	1608.85
714.306	1641.62
714.494	1670.29
714.682	1639.57
714.869	1676.43
715.057	1604.75
715.244	1598.61
715.432	1690.77
715.619	1729.68
715.807	1694.86
715.994	1594.51
716.182	1725.58
716.369	1698.96
716.556	1670.29
716.744	1619.09
716.931	1658
717.119	1725.58
717.306	1696.91
717.493	1709.2
717.681	1676.43
717.868	1635.47
718.055	1643.67
718.242	1641.62
718.43	1709.2
718.617	1627.28
718.804	1698.96
718.991	1717.39
719.179	1733.78
719.366	1645.71
719.553	1651.86
719.74	1692.82
719.927	1705.1
720.114	1764.5
720.301	1655.95
720.488	1647.76
720.676	1774.74
720.863	1703.06
721.05	1735.82
721.237	1641.62
721.424	1752.21
721.611	1756.3
721.798	1643.67
721.985	1692.82
722.172	1795.22
722.358	1719.44
722.545	1631.38
722.732	1655.95
722.919	1746.06
723.106	1655.95
723.293	1840.27
723.48	1619.09
723.667	1684.62
723.853	1594.51
724.04	1803.41
724.227	1723.54
724.414	1711.25
724.6	1758.35
724.787	1713.3
724.974	1838.22
725.161	1668.24
725.347	1690.77
725.534	1764.5
725.72	1619.09
725.907	1764.5
726.094	1727.63
726.28	1811.6
726.467	1727.63
726.653	1705.1
726.84	1670.29
727.027	1766.54
727.213	1723.54
727.4	1729.68
727.586	1703.06
727.773	1877.13
727.959	1725.58
728.145	1733.78
728.332	1705.1
728.518	1799.31
728.705	1864.85
728.891	1772.69
729.077	1701.01
729.264	1750.16
729.45	1782.93
729.636	1811.6
729.823	1838.22
730.009	1649.81
730.195	1813.65
730.382	1793.17
730.568	1727.63
730.754	1631.38
730.94	1789.07
731.126	1754.26
731.313	1823.89
731.499	1727.63
731.685	1698.96
731.871	1776.78
732.057	1782.93
732.243	1748.11
732.429	1782.93
732.615	1735.82
732.801	1772.69
732.987	1698.96
733.173	1672.34
733.359	1825.93
733.545	1680.53
733.731	1696.91
733.917	1778.83
734.103	1793.17
734.289	1856.65
734.475	1797.26
734.661	1795.22
734.847	1764.5
735.033	1836.17
735.219	1760.4
735.404	1758.35
735.59	1744.02
735.776	1729.68
735.962	1817.74
736.148	1729.68
736.333	1832.08
736.519	1762.45
736.705	1832.08
736.89	1664.15
737.076	1787.02
737.262	1696.91
737.447	1770.64
737.633	1678.48
737.819	1600.66
738.004	1729.68
738.19	1807.5
738.375	1729.68
738.561	1733.78
738.747	1727.63
738.932	1705.1
739.118	1758.35
739.303	1811.6
739.489	1668.24
739.674	1653.91
739.859	1703.06
740.045	1692.82
740.23	1666.19
740.416	1660.05
740.601	1666.19
740.786	1797.26
740.972	1592.47
741.157	1602.71
741.342	1676.43
741.528	1651.86
741.713	1649.81
741.898	1690.77
742.084	1664.15
742.269	1594.51
742.454	1664.15
742.639	1703.06
742.824	1578.13
743.01	1578.13
743.195	1664.15
743.38	1533.08
743.565	1594.51
743.75	1539.22
743.935	1586.32
744.12	1647.76
744.305	1655.95
744.49	1629.33
744.675	1643.67
744.86	1647.76
745.045	1608.85
745.23	1645.71
745.415	1629.33
745.6	1563.79
745.785	1504.4
745.97	1612.95
746.155	1465.49
746.34	1545.36
746.525	1541.27
746.71	1531.03
746.895	1404.05
747.079	1492.12
747.264	1469.59
747.449	1512.6
747.634	1512.6
747.819	1428.63
748.003	1365.14
748.188	1465.49
748.373	1531.03
748.557	1449.11
748.742	1440.92
748.927	1418.39
749.111	1459.35
749.296	1422.48
749.481	1453.2
749.665	1420.44
749.85	1385.62
750.034	1340.57
750.219	1330.33
750.404	1340.57
750.588	1404.05
750.773	1320.09
750.957	1379.48
751.141	1279.13
751.326	1291.41
751.51	1244.31
751.695	1328.28
751.879	1301.65
752.064	1340.57
752.248	1256.6
752.432	1315.99
752.617	1238.17
752.801	1315.99
752.985	1170.58
753.17	1215.64
753.354	1143.96
753.538	1291.41
753.722	1258.65
753.907	1184.92
754.091	1211.54
754.275	1270.94
754.459	1131.67
754.643	1150.11
754.828	1152.15
755.012	1232.02
755.196	1119.39
755.38	1174.68
755.564	1107.1
755.748	1115.29
755.932	1053.85
756.116	1064.09
756.3	1045.66
756.484	1105.05
756.668	976.03
756.852	1070.23
757.036	1045.66
757.22	1100.95
757.404	1074.33
757.588	1152.15
757.772	1096.86
757.956	1041.56
758.14	1014.94
758.323	992.41
758.507	1094.81
758.691	1002.65
758.875	955.55
759.059	1064.09
759.242	1041.56
759.426	1002.65
759.61	1025.18
759.794	969.88
759.977	986.27
760.161	1029.27
760.345	963.74
760.528	994.46
760.712	914.59
760.895	949.4
761.079	930.97
761.263	955.55
761.446	926.88
761.63	982.17
761.813	867.49
761.997	879.77
762.18	871.58
762.364	957.6
762.547	855.2
762.731	890.01
762.914	904.35
763.098	906.4
763.281	945.31
763.464	924.83
763.648	851.1
763.831	881.82
764.015	797.85
764.198	904.35
764.381	877.73
764.564	861.34
764.748	834.72
764.931	857.25
765.114	808.09
765.297	808.09
765.481	783.52
765.664	767.13
765.847	920.73
766.03	801.95
766.213	832.67
766.397	832.67
766.58	824.48
766.763	810.14
766.946	834.72
767.129	851.1
767.312	713.89
767.495	847.01
767.678	732.32
767.861	750.75
768.044	836.77
768.227	740.51
768.41	851.1
768.593	832.67
768.776	808.09
768.959	818.33
769.142	773.28
769.324	705.7
769.507	795.81
769.69	724.13
769.873	709.79
770.056	783.52
770.239	746.66
770.421	767.13
770.604	742.56
770.787	738.46
770.97	758.94
771.152	709.79
771.335	644.26
771.518	775.33
771.7	830.62
771.883	631.97
772.066	795.81
772.248	713.89
772.431	705.7
772.613	758.94
772.796	648.35
772.978	728.22
773.161	699.55
773.343	619.68
773.526	656.54
773.708	586.91
773.891	636.06
774.073	691.36
774.256	707.74
774.438	707.74
774.621	621.73
774.803	636.06
774.985	668.83
775.168	644.26
775.35	642.21
775.532	672.93
775.715	595.11
775.897	621.73
776.079	677.02
776.261	619.68
776.444	601.25
776.626	607.39
776.808	582.82
776.99	646.3
777.173	562.34
777.355	677.02
777.537	523.43
777.719	502.95
777.901	605.35
778.083	584.87
778.265	550.05
778.447	545.95
778.629	519.33
778.811	562.34
778.993	533.67
779.175	488.61
779.357	500.9
779.539	515.23
779.721	509.09
779.903	533.67
780.085	593.06
780.267	564.39
780.449	449.7
780.631	464.04
780.812	541.86
780.994	466.08
781.176	457.89
781.358	492.71
781.54	410.79
781.721	496.8
781.903	474.28
782.085	466.08
782.267	548
782.448	464.04
782.63	484.52
782.812	537.76
782.993	437.41
783.175	459.94
783.357	429.22
783.538	330.92
783.72	425.12
783.901	423.08
784.083	472.23
784.264	433.32
784.446	449.7
784.627	408.74
784.809	431.27
784.99	373.92
785.172	435.36
785.353	363.69
785.535	406.69
785.716	429.22
785.897	404.64
786.079	414.88
786.26	341.16
786.441	402.6
786.623	369.83
786.804	384.16
786.985	416.93
787.167	414.88
787.348	326.82
787.529	386.21
787.71	330.92
787.891	371.88
788.073	337.06
788.254	414.88
788.435	386.21
788.616	357.54
788.797	294.05
788.978	341.16
789.159	412.84
789.34	345.25
789.522	304.29
789.703	384.16
789.884	283.81
790.065	322.73
790.246	349.35
790.427	263.33
790.607	337.06
790.788	287.91
790.969	289.96
791.15	316.58
791.331	363.69
791.512	275.62
791.693	287.91
791.874	349.35
792.054	343.21
792.235	304.29
792.416	283.81
792.597	302.25
792.778	332.97
792.958	230.57
793.139	308.39
793.32	253.09
793.5	195.75
793.681	322.73
793.862	371.88
794.042	255.14
794.223	208.04
794.404	259.24
794.584	240.81
794.765	224.42
794.945	302.25
795.126	281.77
795.306	259.24
795.487	216.23
795.667	193.7
795.848	271.53
796.028	296.1
796.209	216.23
796.389	267.43
796.57	242.85
796.75	249
796.93	283.81
797.111	255.14
797.291	292.01
797.471	263.33
797.652	234.66
797.832	263.33
798.012	355.49
798.192	244.9
798.373	169.13
798.553	228.52
798.733	214.18
798.913	175.27
799.093	203.94
799.274	279.72
799.454	283.81
799.634	300.2
799.814	242.85
799.994	195.75
800.174	201.9
800.354	220.33
800.534	275.62
800.714	218.28
800.894	218.28
801.074	246.95
801.254	218.28
801.434	267.43
801.614	130.22
801.794	255.14
801.974	732.32
802.154	228.52
802.334	236.71
802.514	187.56
802.693	255.14
802.873	197.8
803.053	246.95
803.233	214.18
803.413	220.33
803.592	201.9
803.772	156.84
803.952	150.7
804.131	208.04
804.311	195.75
804.491	251.05
804.67	218.28
804.85	148.65
805.03	177.32
805.209	197.8
805.389	142.5
805.568	216.23
805.748	181.42
805.928	199.85
806.107	173.22
806.287	144.55
806.466	218.28
806.646	189.61
806.825	189.61
807.004	165.03
807.184	169.13
807.363	109.74
807.543	195.75
807.722	99.5
807.901	179.37
808.081	119.98
808.26	140.46
808.439	238.76
808.619	187.56
808.798	156.84
808.977	105.64
809.156	187.56
809.336	171.18
809.515	199.85
809.694	132.26
809.873	95.4
810.052	128.17
810.231	154.79
810.411	140.46
810.59	136.36
810.769	124.07
810.948	173.22
811.127	144.55
811.306	205.99
811.485	144.55
811.664	169.13
811.843	122.02
812.022	146.6
812.201	76.97
812.38	152.74
812.559	81.07
812.737	150.7
812.916	158.89
813.095	54.44
813.274	79.02
813.453	148.65
813.632	154.79
813.811	160.94
813.989	70.83
814.168	154.79
814.347	138.41
814.526	91.31
814.704	124.07
814.883	162.98
815.062	95.4
815.24	146.6
815.419	146.6
815.598	191.66
815.776	97.45
815.955	146.6
816.133	138.41
816.312	152.74
816.49	128.17
816.669	46.25
816.847	111.78
817.026	117.93
817.204	85.16
817.383	117.93
817.561	117.93
817.74	146.6
817.918	165.03
818.097	154.79
818.275	83.11
818.453	140.46
818.632	95.4
818.81	99.5
818.988	101.55
819.167	68.78
819.345	54.44
819.523	81.07
819.701	111.78
819.879	169.13
820.058	195.75
820.236	148.65
820.414	95.4
820.592	119.98
820.77	97.45
820.948	54.44
821.127	62.63
821.305	136.36
821.483	103.59
821.661	214.18
821.839	23.72
822.017	181.42
822.195	87.21
822.373	72.87
822.551	97.45
822.729	103.59
822.907	81.07
823.085	97.45
823.262	111.78
823.44	23.72
823.618	68.78
823.796	107.69
823.974	119.98
824.152	103.59
824.329	76.97
824.507	91.31
824.685	72.87
824.863	60.59
825.04	83.11
825.218	191.66
825.396	36.01
825.574	140.46
825.751	83.11
825.929	154.79
826.107	56.49
826.284	99.5
826.462	109.74
826.639	87.21
826.817	33.96
826.994	87.21
827.172	85.16
827.349	103.59
827.527	72.87
827.704	91.31
827.882	89.26
828.059	122.02
828.237	79.02
828.414	105.64
828.591	-52.05
828.769	95.4
828.946	62.63
829.124	122.02
829.301	132.26
829.478	142.5
829.655	146.6
829.833	74.92
830.01	46.25
830.187	95.4
830.364	128.17
830.542	48.3
830.719	50.35
830.896	27.82
831.073	85.16
831.25	152.74
831.427	165.03
831.604	70.83
831.782	44.2
831.959	83.11
832.136	60.59
832.313	70.83
832.49	23.72
832.667	21.67
832.844	29.87
833.021	62.63
833.198	97.45
833.374	91.31
833.551	54.44
833.728	97.45
833.905	89.26
834.082	72.87
834.259	23.72
834.436	79.02
834.612	79.02
834.789	83.11
834.966	54.44
835.143	87.21
835.319	13.48
835.496	81.07
835.673	66.73
835.85	101.55
836.026	68.78
836.203	68.78
836.38	60.59
836.556	60.59
836.733	76.97
836.909	152.74
837.086	11.43
837.262	-33.62
837.439	29.87
837.616	74.92
837.792	50.35
837.968	64.68
838.145	44.2
838.321	97.45
838.498	128.17
838.674	83.11
838.851	50.35
839.027	13.48
839.203	25.77
839.38	68.78
839.556	7.34
839.732	128.17
839.909	52.39
840.085	91.31
840.261	-9.05
840.437	107.69
840.614	56.49
840.79	48.3
840.966	74.92
841.142	5.29
841.318	40.11
841.494	89.26
841.671	103.59
841.847	-7
842.023	25.77
842.199	89.26
842.375	72.87
842.551	48.3
842.727	36.01
842.903	89.26
843.079	31.91
843.255	48.3
843.431	42.15
843.607	87.21
843.783	-2.9
843.959	54.44
844.134	52.39
844.31	56.49
844.486	23.72
844.662	-23.38
844.838	40.11
845.013	-0.85
845.189	62.63
845.365	38.06
845.541	68.78
845.716	25.77
845.892	38.06
846.068	-19.29
846.244	70.83
846.419	38.06
846.595	19.63
846.77	72.87
846.946	17.58
847.122	87.21
847.297	-19.29
847.473	36.01
847.648	33.96
847.824	56.49
847.999	15.53
848.175	29.87
848.35	66.73
848.526	93.35
848.701	58.54
848.876	64.68
849.052	93.35
849.227	70.83
849.403	-9.05
849.578	122.02
849.753	50.35
849.929	48.3
850.104	27.82
850.279	72.87
850.454	95.4
850.63	89.26
850.805	48.3
850.98	70.83
851.155	68.78
851.33	87.21
851.505	60.59
851.681	15.53
851.856	54.44
852.031	27.82
852.206	50.35
852.381	9.39
852.556	13.48
852.731	60.59
852.906	44.2
853.081	72.87
853.256	52.39
853.431	70.83
853.606	38.06
853.781	21.67
853.956	36.01
854.131	48.3
854.305	38.06
854.48	91.31
854.655	-9.05
854.83	13.48
855.005	48.3
855.18	70.83
855.354	93.35
855.529	81.07
855.704	58.54
855.879	19.63
856.053	-4.95
856.228	31.91
856.403	-56.15
856.577	15.53
856.752	1.19
856.926	31.91
857.101	23.72
857.276	54.44
857.45	83.11
857.625	31.91
857.799	33.96
857.974	60.59
858.148	21.67
858.323	17.58
858.497	-27.48
858.672	1.19
858.846	-11.09
859.02	111.78
859.195	19.63
859.369	74.92
859.543	56.49
859.718	25.77
859.892	15.53
860.066	25.77
860.241	23.72
860.415	-11.09
860.589	38.06
860.763	46.25
860.938	11.43
861.112	38.06
861.286	-2.9
861.46	60.59
861.634	-9.05
861.808	-9.05
861.982	-47.96
862.157	58.54
862.331	-33.62
862.505	-9.05
862.679	7.34
862.853	74.92
863.027	-76.63
863.201	83.11
863.375	21.67
863.549	64.68
863.722	-11.09
863.896	3.24
864.07	13.48
864.244	62.63
864.418	70.83
864.592	81.07
864.766	21.67
864.939	13.48
865.113	21.67
865.287	29.87
865.461	38.06
865.634	-41.81
865.808	40.11
865.982	25.77
866.156	-25.43
866.329	36.01
866.503	11.43
866.676	52.39
866.85	-25.43
867.024	5.29
867.197	-4.95
867.371	29.87
867.544	11.43
867.718	7.34
867.891	36.01
868.065	29.87
868.238	46.25
868.412	56.49
868.585	66.73
868.759	-4.95
868.932	15.53
869.105	1.19
869.279	-7
869.452	38.06
869.625	72.87
869.799	25.77
869.972	-11.09
870.145	46.25
870.319	136.36
870.492	21.67
870.665	17.58
870.838	-23.38
871.011	-19.29
871.185	-0.85
871.358	-31.57
871.531	9.39
871.704	13.48
871.877	52.39
872.05	46.25
872.223	-43.86
872.396	-27.48
872.569	7.34
872.742	-11.09
872.915	5.29
873.088	3.24
873.261	9.39
873.434	79.02
873.607	3.24
873.78	33.96
873.953	-60.24
874.126	79.02
874.299	15.53
874.471	-39.76
874.644	-0.85
874.817	109.74
874.99	95.4
875.163	40.11
875.335	-21.33
875.508	42.15
875.681	111.78
875.853	-50
876.026	15.53
876.199	52.39
876.371	87.21
876.544	19.63
876.717	1.19
876.889	-45.91
877.062	40.11
877.234	-25.43
877.407	5.29
877.579	27.82
877.752	76.97
877.924	27.82
878.097	7.34
878.269	95.4
878.442	-4.95
878.614	42.15
878.786	58.54
878.959	5.29
879.131	15.53
879.303	13.48
879.476	48.3
879.648	31.91
879.82	13.48
879.993	19.63
880.165	5.29
880.337	1.19
880.509	-27.48
880.681	62.63
880.854	54.44
881.026	21.67
881.198	70.83
881.37	21.67
881.542	-50
881.714	36.01
881.886	15.53
882.058	-25.43
882.23	-7
882.402	-58.2
882.574	85.16
882.746	15.53
882.918	-11.09
883.09	-9.05
883.262	-2.9
883.434	-7
883.606	-47.96
883.778	13.48
883.95	31.91
884.122	9.39
884.293	62.63
884.465	-7
884.637	29.87
884.809	29.87
884.98	-0.85
885.152	48.3
885.324	62.63
885.496	-23.38
885.667	-7
885.839	-54.1
886.011	89.26
886.182	-25.43
886.354	56.49
886.525	-17.24
886.697	7.34
886.869	48.3
887.04	29.87
887.212	50.35
887.383	79.02
887.555	54.44
887.726	38.06
887.897	60.59
888.069	27.82
888.24	-2.9
888.412	74.92
888.583	1.19
888.754	19.63
888.926	-52.05
889.097	66.73
889.268	33.96
889.44	117.93
889.611	-35.67
889.782	-66.39
889.953	-2.9
890.125	50.35
890.296	-27.48
890.467	-27.48
890.638	-50
890.809	-13.14
890.98	-31.57
891.151	50.35
891.323	-62.29
891.494	44.2
891.665	-2.9
891.836	9.39
892.007	33.96
892.178	13.48
892.349	68.78
892.52	50.35
892.691	62.63
892.862	23.72
893.032	-33.62
893.203	-7
893.374	17.58
893.545	38.06
893.716	5.29
893.887	15.53
894.057	62.63
894.228	58.54
894.399	76.97
894.57	72.87
894.74	-9.05
894.911	-23.38
895.082	36.01
895.253	-39.76
895.423	29.87
895.594	-0.85
895.764	9.39
895.935	-45.91
896.106	-15.19
896.276	19.63
896.447	-7
896.617	56.49
896.788	-9.05
896.958	27.82
897.129	21.67
897.299	-9.05
897.47	25.77
897.64	27.82
897.81	9.39
897.981	11.43
898.151	21.67
898.322	21.67
898.492	81.07
898.662	-66.39
898.832	-41.81
899.003	-13.14
899.173	-23.38
899.343	23.72
899.513	-19.29
