Data from USB4F104151__85__13-13-02-249.txt Node

Date: Fri Mar 14 13:13:02 EDT 2025
User: louis
Spectrometer: USB4F10415
Trigger mode: 4
Integration Time (sec): 2.000000E-2
Scans to average: 1
Electric dark correction enabled: true
Nonlinearity correction enabled: false
Boxcar width: 0
XAxis mode: Wavelengths
Number of Pixels in Spectrum: 3648
>>>>>Begin Spectral Data<<<<<
178.204	-83.28
178.424	-83.28
178.644	-83.28
178.864	-140.63
179.084	-71
179.304	-75.09
179.524	-48.47
179.744	-15.7
179.964	146.09
180.184	8.87
180.404	41.64
180.624	17.07
180.844	-42.32
181.064	-42.32
181.283	-11.61
181.503	-23.89
181.723	45.74
181.943	-5.46
182.163	45.74
182.383	-3.41
182.602	12.97
182.822	41.64
183.042	12.97
183.262	-9.56
183.482	-34.13
183.701	-15.7
183.921	-19.8
184.141	17.07
184.361	39.59
184.58	-38.23
184.8	115.37
185.02	-13.65
185.239	55.98
185.459	-7.51
185.679	58.03
185.898	-9.56
186.118	15.02
186.338	12.97
186.557	72.36
186.777	-7.51
186.997	-25.94
187.216	-17.75
187.436	55.98
187.655	66.22
187.875	62.12
188.095	51.88
188.314	49.83
188.534	8.87
188.753	-52.56
188.973	-32.08
189.192	10.92
189.412	-3.41
189.631	-11.61
189.851	15.02
190.07	55.98
190.29	45.74
190.509	-21.85
190.729	117.42
190.948	29.35
191.168	86.7
191.387	111.27
191.607	-7.51
191.826	49.83
192.045	-27.99
192.265	2.73
192.484	-44.37
192.704	-5.46
192.923	12.97
193.142	27.31
193.362	21.16
193.581	98.99
193.8	19.11
194.02	17.07
194.239	-3.41
194.458	10.92
194.678	4.78
194.897	-19.8
195.116	66.22
195.335	39.59
195.555	60.07
195.774	-13.65
195.993	51.88
196.212	-32.08
196.432	-58.71
196.651	21.16
196.87	2.73
197.089	70.31
197.308	39.59
197.528	35.5
197.747	35.5
197.966	37.55
198.185	90.79
198.404	6.83
198.623	66.22
198.842	-9.56
199.062	55.98
199.281	-17.75
199.5	0.68
199.719	58.03
199.938	47.79
200.157	-11.61
200.376	41.64
200.595	-34.13
200.814	-25.94
201.033	31.4
201.252	80.55
201.471	58.03
201.69	21.16
201.909	74.41
202.128	4.78
202.347	41.64
202.566	35.5
202.785	-3.41
203.004	27.31
203.223	113.32
203.442	53.93
203.661	-27.99
203.879	70.31
204.098	53.93
204.317	21.16
204.536	82.6
204.755	6.83
204.974	74.41
205.193	-1.37
205.411	86.7
205.63	21.16
205.849	-5.46
206.068	82.6
206.287	55.98
206.505	70.31
206.724	12.97
206.943	25.26
207.162	21.16
207.381	15.02
207.599	-25.94
207.818	29.35
208.037	15.02
208.255	-7.51
208.474	39.59
208.693	49.83
208.911	-81.24
209.13	-15.7
209.349	41.64
209.567	8.87
209.786	15.02
210.005	70.31
210.223	19.11
210.442	-58.71
210.661	41.64
210.879	92.84
211.098	37.55
211.316	-21.85
211.535	29.35
211.753	-52.56
211.972	113.32
212.191	0.68
212.409	12.97
212.628	-27.99
212.846	15.02
213.065	47.79
213.283	62.12
213.502	29.35
213.72	29.35
213.938	-9.56
214.157	-9.56
214.375	35.5
214.594	10.92
214.812	-25.94
215.031	-19.8
215.249	37.55
215.467	21.16
215.686	29.35
215.904	-3.41
216.122	58.03
216.341	84.65
216.559	6.83
216.778	19.11
216.996	45.74
217.214	-11.61
217.432	-15.7
217.651	27.31
217.869	-11.61
218.087	31.4
218.306	15.02
218.524	25.26
218.742	-50.52
218.96	29.35
219.179	12.97
219.397	47.79
219.615	78.51
219.833	6.83
220.051	-27.99
220.27	2.73
220.488	66.22
220.706	-19.8
220.924	-17.75
221.142	-25.94
221.36	-60.76
221.578	60.07
221.796	-32.08
222.015	31.4
222.233	58.03
222.451	12.97
222.669	-27.99
222.887	62.12
223.105	-25.94
223.323	23.21
223.541	-36.18
223.759	-5.46
223.977	21.16
224.195	25.26
224.413	-13.65
224.631	10.92
224.849	-7.51
225.067	86.7
225.285	37.55
225.503	-9.56
225.721	-19.8
225.939	62.12
226.157	35.5
226.375	86.7
226.592	0.68
226.81	74.41
227.028	90.79
227.246	66.22
227.464	-36.18
227.682	39.59
227.9	0.68
228.117	-52.56
228.335	47.79
228.553	-3.41
228.771	35.5
228.989	72.36
229.206	29.35
229.424	-56.66
229.642	6.83
229.86	21.16
230.077	4.78
230.295	-60.76
230.513	72.36
230.731	51.88
230.948	-58.71
231.166	86.7
231.384	15.02
231.601	6.83
231.819	111.27
232.037	31.4
232.254	-15.7
232.472	86.7
232.689	-111.96
232.907	78.51
233.125	6.83
233.342	8.87
233.56	-50.52
233.777	21.16
233.995	66.22
234.213	43.69
234.43	-5.46
234.648	-23.89
234.865	-32.08
235.083	45.74
235.3	45.74
235.518	33.45
235.735	15.02
235.953	70.31
236.17	90.79
236.388	115.37
236.605	111.27
236.822	8.87
237.04	82.6
237.257	55.98
237.475	-120.15
237.692	66.22
237.909	55.98
238.127	2.73
238.344	78.51
238.562	-9.56
238.779	29.35
238.996	53.93
239.214	15.02
239.431	6.83
239.648	4.78
239.865	21.16
240.083	66.22
240.3	80.55
240.517	35.5
240.735	-21.85
240.952	133.8
241.169	-7.51
241.386	-17.75
241.603	43.69
241.821	-15.7
242.038	53.93
242.255	115.37
242.472	-7.51
242.689	29.35
242.907	103.08
243.124	12.97
243.341	86.7
243.558	19.11
243.775	-15.7
243.992	15.02
244.209	23.21
244.426	29.35
244.643	64.17
244.86	21.16
245.078	111.27
245.295	-7.51
245.512	15.02
245.729	-23.89
245.946	12.97
246.163	31.4
246.38	37.55
246.597	-23.89
246.814	98.99
247.031	-48.47
247.248	8.87
247.464	12.97
247.681	45.74
247.898	47.79
248.115	31.4
248.332	-13.65
248.549	72.36
248.766	39.59
248.983	64.17
249.2	17.07
249.417	2.73
249.633	17.07
249.85	84.65
250.067	41.64
250.284	35.5
250.501	96.94
250.717	17.07
250.934	-40.28
251.151	66.22
251.368	-21.85
251.585	72.36
251.801	17.07
252.018	15.02
252.235	76.46
252.451	-32.08
252.668	-52.56
252.885	6.83
253.102	-3.41
253.318	-3.41
253.535	47.79
253.752	-5.46
253.968	27.31
254.185	-48.47
254.401	10.92
254.618	-38.23
254.835	8.87
255.051	111.27
255.268	31.4
255.484	39.59
255.701	17.07
255.917	35.5
256.134	66.22
256.351	21.16
256.567	-13.65
256.784	35.5
257	43.69
257.217	-56.66
257.433	33.45
257.65	43.69
257.866	53.93
258.082	19.11
258.299	-5.46
258.515	37.55
258.732	55.98
258.948	-52.56
259.165	-11.61
259.381	31.4
259.597	-42.32
259.814	10.92
260.03	-54.61
260.246	2.73
260.463	43.69
260.679	66.22
260.895	2.73
261.112	-5.46
261.328	53.93
261.544	62.12
261.761	82.6
261.977	47.79
262.193	15.02
262.409	8.87
262.626	33.45
262.842	17.07
263.058	10.92
263.274	141.99
263.49	-73.04
263.707	12.97
263.923	25.26
264.139	17.07
264.355	70.31
264.571	101.03
264.787	2.73
265.004	41.64
265.22	37.55
265.436	62.12
265.652	-32.08
265.868	47.79
266.084	-60.76
266.3	17.07
266.516	-5.46
266.732	88.75
266.948	43.69
267.164	-3.41
267.38	4.78
267.596	58.03
267.812	62.12
268.028	15.02
268.244	74.41
268.46	4.78
268.676	-5.46
268.892	-15.7
269.108	-7.51
269.324	-23.89
269.54	-19.8
269.756	-9.56
269.972	-19.8
270.188	-13.65
270.403	45.74
270.619	4.78
270.835	27.31
271.051	27.31
271.267	10.92
271.483	45.74
271.698	35.5
271.914	-21.85
272.13	-9.56
272.346	-11.61
272.562	62.12
272.777	62.12
272.993	53.93
273.209	-27.99
273.425	8.87
273.64	21.16
273.856	-1.37
274.072	51.88
274.287	-11.61
274.503	55.98
274.719	21.16
274.934	8.87
275.15	25.26
275.366	-27.99
275.581	-9.56
275.797	-3.41
276.012	-107.86
276.228	4.78
276.444	55.98
276.659	58.03
276.875	47.79
277.09	10.92
277.306	62.12
277.521	39.59
277.737	6.83
277.952	12.97
278.168	19.11
278.383	37.55
278.599	39.59
278.814	27.31
279.03	94.89
279.245	66.22
279.461	4.78
279.676	62.12
279.892	8.87
280.107	39.59
280.322	-19.8
280.538	39.59
280.753	6.83
280.969	25.26
281.184	19.11
281.399	-19.8
281.615	66.22
281.83	-7.51
282.045	-9.56
282.26	-38.23
282.476	41.64
282.691	15.02
282.906	78.51
283.122	39.59
283.337	0.68
283.552	21.16
283.767	6.83
283.983	33.45
284.198	25.26
284.413	94.89
284.628	0.68
284.843	-9.56
285.058	-3.41
285.274	29.35
285.489	-60.76
285.704	25.26
285.919	-19.8
286.134	62.12
286.349	41.64
286.564	8.87
286.779	8.87
286.995	-3.41
287.21	-11.61
287.425	-5.46
287.64	43.69
287.855	98.99
288.07	49.83
288.285	55.98
288.5	45.74
288.715	58.03
288.93	19.11
289.145	-17.75
289.36	-7.51
289.575	49.83
289.79	-7.51
290.004	-34.13
290.219	25.26
290.434	17.07
290.649	12.97
290.864	0.68
291.079	29.35
291.294	15.02
291.509	-13.65
291.724	-17.75
291.938	21.16
292.153	2.73
292.368	45.74
292.583	29.35
292.798	23.21
293.012	31.4
293.227	0.68
293.442	29.35
293.657	25.26
293.871	23.21
294.086	8.87
294.301	27.31
294.516	53.93
294.73	12.97
294.945	12.97
295.16	-15.7
295.374	82.6
295.589	45.74
295.804	-7.51
296.018	10.92
296.233	96.94
296.447	111.27
296.662	4.78
296.877	0.68
297.091	39.59
297.306	12.97
297.52	6.83
297.735	23.21
297.949	64.17
298.164	84.65
298.378	37.55
298.593	-11.61
298.807	49.83
299.022	10.92
299.236	64.17
299.451	-21.85
299.665	-9.56
299.88	31.4
300.094	-9.56
300.309	72.36
300.523	53.93
300.737	12.97
300.952	12.97
301.166	107.18
301.381	-9.56
301.595	25.26
301.809	33.45
302.024	66.22
302.238	23.21
302.452	74.41
302.667	6.83
302.881	-19.8
303.095	17.07
303.309	-13.65
303.524	-30.04
303.738	51.88
303.952	37.55
304.166	41.64
304.381	-1.37
304.595	55.98
304.809	-60.76
305.023	-32.08
305.237	15.02
305.452	-17.75
305.666	55.98
305.88	12.97
306.094	53.93
306.308	12.97
306.522	25.26
306.736	47.79
306.95	27.31
307.164	70.31
307.379	74.41
307.593	49.83
307.807	58.03
308.021	53.93
308.235	19.11
308.449	10.92
308.663	64.17
308.877	27.31
309.091	25.26
309.305	103.08
309.519	21.16
309.733	25.26
309.947	25.26
310.161	64.17
310.374	94.89
310.588	60.07
310.802	23.21
311.016	43.69
311.23	107.18
311.444	-13.65
311.658	39.59
311.872	90.79
312.085	62.12
312.299	141.99
312.513	88.75
312.727	-3.41
312.941	31.4
313.154	41.64
313.368	-83.28
313.582	37.55
313.796	60.07
314.009	0.68
314.223	37.55
314.437	64.17
314.651	47.79
314.864	39.59
315.078	35.5
315.292	-1.37
315.505	80.55
315.719	8.87
315.933	-32.08
316.146	53.93
316.36	29.35
316.573	-25.94
316.787	-34.13
317.001	58.03
317.214	27.31
317.428	19.11
317.641	41.64
317.855	31.4
318.068	6.83
318.282	62.12
318.495	60.07
318.709	17.07
318.922	12.97
319.136	55.98
319.349	-32.08
319.563	51.88
319.776	12.97
319.99	-19.8
320.203	-52.56
320.417	55.98
320.63	37.55
320.843	6.83
321.057	58.03
321.27	6.83
321.483	19.11
321.697	33.45
321.91	70.31
322.124	12.97
322.337	60.07
322.55	-30.04
322.763	-15.7
322.977	37.55
323.19	74.41
323.403	27.31
323.617	49.83
323.83	64.17
324.043	55.98
324.256	84.65
324.469	-13.65
324.683	41.64
324.896	62.12
325.109	6.83
325.322	55.98
325.535	4.78
325.748	-15.7
325.962	78.51
326.175	-1.37
326.388	-9.56
326.601	23.21
326.814	-9.56
327.027	41.64
327.24	82.6
327.453	19.11
327.666	17.07
327.879	6.83
328.092	0.68
328.305	70.31
328.518	-3.41
328.731	-17.75
328.944	-23.89
329.157	12.97
329.37	-32.08
329.583	84.65
329.796	70.31
330.009	15.02
330.222	-3.41
330.435	-3.41
330.648	35.5
330.861	6.83
331.073	53.93
331.286	15.02
331.499	-17.75
331.712	8.87
331.925	43.69
332.138	12.97
332.35	49.83
332.563	-27.99
332.776	45.74
332.989	29.35
333.202	37.55
333.414	31.4
333.627	90.79
333.84	-17.75
334.053	31.4
334.265	51.88
334.478	45.74
334.691	-1.37
334.903	-19.8
335.116	-11.61
335.329	21.16
335.541	2.73
335.754	58.03
335.966	23.21
336.179	25.26
336.392	35.5
336.604	33.45
336.817	47.79
337.029	-40.28
337.242	64.17
337.454	103.08
337.667	43.69
337.88	64.17
338.092	33.45
338.305	-7.51
338.517	-7.51
338.729	76.46
338.942	27.31
339.154	45.74
339.367	-11.61
339.579	62.12
339.792	23.21
340.004	66.22
340.217	-9.56
340.429	33.45
340.641	8.87
340.854	41.64
341.066	25.26
341.278	78.51
341.491	-1.37
341.703	8.87
341.915	10.92
342.128	82.6
342.34	72.36
342.552	60.07
342.764	4.78
342.977	66.22
343.189	21.16
343.401	60.07
343.613	4.78
343.826	72.36
344.038	47.79
344.25	8.87
344.462	-1.37
344.674	86.7
344.886	25.26
345.099	23.21
345.311	6.83
345.523	10.92
345.735	-27.99
345.947	21.16
346.159	53.93
346.371	121.51
346.583	23.21
346.795	84.65
347.007	10.92
347.219	53.93
347.431	47.79
347.643	105.13
347.855	-3.41
348.067	92.84
348.279	0.68
348.491	37.55
348.703	80.55
348.915	92.84
349.127	17.07
349.339	-9.56
349.551	-32.08
349.763	86.7
349.975	-9.56
350.187	10.92
350.399	92.84
350.61	23.21
350.822	-3.41
351.034	-19.8
351.246	29.35
351.458	25.26
351.669	98.99
351.881	25.26
352.093	23.21
352.305	15.02
352.517	62.12
352.728	33.45
352.94	10.92
353.152	23.21
353.363	23.21
353.575	4.78
353.787	74.41
353.999	15.02
354.21	76.46
354.422	78.51
354.633	4.78
354.845	47.79
355.057	-15.7
355.268	27.31
355.48	49.83
355.692	43.69
355.903	6.83
356.115	-19.8
356.326	8.87
356.538	72.36
356.749	29.35
356.961	70.31
357.172	53.93
357.384	41.64
357.595	33.45
357.807	-15.7
358.018	19.11
358.23	-15.7
358.441	94.89
358.653	45.74
358.864	64.17
359.075	58.03
359.287	84.65
359.498	-1.37
359.709	-7.51
359.921	37.55
360.132	6.83
360.344	76.46
360.555	25.26
360.766	60.07
360.977	-34.13
361.189	98.99
361.4	10.92
361.611	72.36
361.823	39.59
362.034	19.11
362.245	19.11
362.456	12.97
362.667	-36.18
362.879	35.5
363.09	-11.61
363.301	21.16
363.512	29.35
363.723	39.59
363.935	10.92
364.146	72.36
364.357	10.92
364.568	12.97
364.779	-27.99
364.99	62.12
365.201	-15.7
365.412	88.75
365.623	23.21
365.834	70.31
366.045	19.11
366.256	78.51
366.467	66.22
366.678	55.98
366.889	29.35
367.1	-25.94
367.311	-1.37
367.522	23.21
367.733	64.17
367.944	41.64
368.155	84.65
368.366	31.4
368.577	45.74
368.788	-19.8
368.999	58.03
369.209	80.55
369.42	58.03
369.631	45.74
369.842	82.6
370.053	6.83
370.264	70.31
370.474	37.55
370.685	2.73
370.896	45.74
371.107	45.74
371.317	51.88
371.528	10.92
371.739	37.55
371.95	25.26
372.16	15.02
372.371	33.45
372.582	15.02
372.792	119.46
373.003	23.21
373.214	53.93
373.424	23.21
373.635	41.64
373.846	2.73
374.056	-9.56
374.267	47.79
374.477	62.12
374.688	76.46
374.898	29.35
375.109	35.5
375.319	58.03
375.53	78.51
375.74	152.23
375.951	72.36
376.161	-27.99
376.372	58.03
376.582	-15.7
376.793	70.31
377.003	31.4
377.214	-25.94
377.424	51.88
377.635	17.07
377.845	17.07
378.055	80.55
378.266	12.97
378.476	47.79
378.686	0.68
378.897	72.36
379.107	51.88
379.317	96.94
379.528	15.02
379.738	92.84
379.948	27.31
380.158	113.32
380.369	58.03
380.579	6.83
380.789	-9.56
380.999	41.64
381.21	17.07
381.42	72.36
381.63	31.4
381.84	70.31
382.05	0.68
382.261	35.5
382.471	47.79
382.681	-15.7
382.891	70.31
383.101	37.55
383.311	60.07
383.521	-52.56
383.731	55.98
383.941	72.36
384.151	90.79
384.361	-17.75
384.571	-71
384.781	35.5
384.991	47.79
385.201	113.32
385.411	66.22
385.621	21.16
385.831	15.02
386.041	86.7
386.251	-62.8
386.461	-32.08
386.671	72.36
386.881	47.79
387.091	10.92
387.301	88.75
387.511	33.45
387.72	53.93
387.93	39.59
388.14	31.4
388.35	37.55
388.56	68.27
388.769	45.74
388.979	12.97
389.189	27.31
389.399	60.07
389.609	10.92
389.818	103.08
390.028	-5.46
390.238	72.36
390.447	-15.7
390.657	35.5
390.867	-9.56
391.076	-13.65
391.286	29.35
391.496	60.07
391.705	-32.08
391.915	41.64
392.125	33.45
392.334	78.51
392.544	125.61
392.753	62.12
392.963	-1.37
393.172	88.75
393.382	39.59
393.591	76.46
393.801	-32.08
394.01	123.56
394.22	43.69
394.429	64.17
394.639	10.92
394.848	29.35
395.058	107.18
395.267	113.32
395.477	88.75
395.686	76.46
395.895	41.64
396.105	88.75
396.314	72.36
396.524	123.56
396.733	45.74
396.942	94.89
397.152	31.4
397.361	101.03
397.57	-17.75
397.78	58.03
397.989	113.32
398.198	0.68
398.407	29.35
398.617	53.93
398.826	60.07
399.035	17.07
399.244	29.35
399.453	66.22
399.663	29.35
399.872	-3.41
400.081	33.45
400.29	39.59
400.499	-13.65
400.708	51.88
400.917	23.21
401.127	60.07
401.336	-32.08
401.545	64.17
401.754	70.31
401.963	68.27
402.172	55.98
402.381	4.78
402.59	39.59
402.799	2.73
403.008	70.31
403.217	68.27
403.426	51.88
403.635	49.83
403.844	62.12
404.053	88.75
404.262	66.22
404.471	164.52
404.68	21.16
404.888	62.12
405.097	119.46
405.306	19.11
405.515	113.32
405.724	107.18
405.933	119.46
406.142	127.66
406.35	119.46
406.559	96.94
406.768	60.07
406.977	115.37
407.185	109.22
407.394	62.12
407.603	49.83
407.812	105.13
408.02	131.75
408.229	90.79
408.438	174.76
408.646	80.55
408.855	189.1
409.064	199.34
409.272	86.7
409.481	213.67
409.69	144.04
409.898	146.09
410.107	135.85
410.315	133.8
410.524	187.05
410.733	160.42
410.941	158.38
411.15	195.24
411.358	236.2
411.567	244.39
411.775	98.99
411.984	225.96
412.192	260.77
412.401	205.48
412.609	254.63
412.818	297.64
413.026	371.37
413.234	287.4
413.443	297.64
413.651	180.9
413.86	240.3
414.068	301.73
414.276	248.49
414.485	275.11
414.693	354.98
414.901	332.45
415.11	322.21
415.318	406.18
415.526	375.46
415.734	430.76
415.943	426.66
416.151	416.42
416.359	373.41
416.567	436.9
416.776	506.53
416.984	512.67
417.192	545.44
417.4	477.86
417.608	527.01
417.817	617.12
418.025	602.79
418.233	651.94
418.441	529.06
418.649	559.78
418.857	610.98
419.065	711.33
419.273	670.37
419.481	647.84
419.689	805.53
419.897	768.67
420.105	684.7
420.313	776.86
420.521	772.77
420.729	846.49
420.937	864.93
421.145	916.12
421.353	934.56
421.561	993.95
421.769	1028.76
421.977	1053.34
422.185	1045.15
422.393	1172.12
422.601	1161.88
422.809	1172.12
423.017	1208.98
423.224	1157.79
423.432	1206.94
423.64	1225.37
423.848	1383.06
424.056	1376.92
424.263	1413.78
424.471	1450.64
424.679	1460.88
424.887	1491.6
425.094	1485.46
425.302	1600.15
425.51	1655.44
425.718	1786.51
425.925	1669.78
426.133	1843.85
426.341	1854.09
426.548	2038.41
426.756	1989.26
426.964	2011.79
427.171	2077.32
427.379	2134.67
427.586	2153.1
427.794	2323.08
428.001	2347.65
428.209	2617.99
428.417	2497.16
428.624	2560.64
428.832	2570.88
429.039	2554.5
429.247	2554.5
429.454	2861.69
429.662	3056.25
429.869	2757.25
430.076	3043.96
430.284	2974.33
430.491	2996.86
430.699	3283.58
430.906	3218.04
431.114	3236.47
431.321	3381.88
431.528	3553.91
431.736	3705.46
431.943	3887.73
432.15	3707.51
432.358	3773.04
432.565	3992.17
432.772	4061.8
432.979	4094.57
433.187	4270.7
433.394	4285.03
433.601	4581.99
433.808	4547.17
434.016	4592.23
434.223	4788.83
434.43	5036.64
434.637	4921.95
434.844	5270.11
435.052	5309.02
435.259	5347.93
435.466	5317.21
435.673	5343.83
435.88	5560.92
436.087	5962.32
436.294	6034
436.501	5849.68
436.708	6085.2
436.915	6130.25
437.122	6410.82
437.329	6453.83
437.537	6795.84
437.743	6738.5
437.95	6746.69
438.157	6978.11
438.364	7295.55
438.571	7346.75
438.778	7346.75
438.985	7918.13
439.192	7664.18
439.399	7969.33
439.606	7686.71
439.813	8067.63
440.02	8479.27
440.227	8399.4
440.433	8475.18
440.64	8923.68
440.847	8688.17
441.054	8890.91
441.261	9503.26
441.467	9306.65
441.674	9507.35
441.881	9794.07
442.088	9849.36
442.294	9814.55
442.501	9921.04
442.708	10363.4
442.914	10553.87
443.121	11024.9
443.328	10646.02
443.534	11442.68
443.741	11190.78
443.948	10990.08
444.154	11829.75
444.361	11870.71
444.568	11993.59
444.774	12032.5
444.981	11975.16
445.187	12325.36
445.394	12974.56
445.6	13095.39
445.807	13986.26
446.013	13580.76
446.22	13529.56
446.426	14207.44
446.633	14291.41
446.839	14686.67
447.046	14217.68
447.252	15000.01
447.459	14922.18
447.665	14940.61
447.871	15520.19
448.078	16273.84
448.284	15438.27
448.491	16349.62
448.697	16712.11
448.903	16939.43
449.11	16955.82
449.316	16581.04
449.522	16961.96
449.728	17418.66
449.935	17613.21
450.141	17768.86
450.347	17955.22
450.553	17574.3
450.76	18039.19
450.966	18229.65
451.172	18243.99
451.378	18667.92
451.584	18252.18
451.791	19005.83
451.997	18739.6
452.203	18983.3
452.409	19036.55
452.615	19208.58
452.821	18289.04
453.027	18041.24
453.233	19134.85
453.44	18434.45
453.646	18555.28
453.852	18766.22
454.058	18866.57
454.264	18274.71
454.47	18977.16
454.676	18555.28
454.882	19091.85
455.088	17529.25
455.294	17562.01
455.5	17779.1
455.705	18239.89
455.911	17414.56
456.117	17000.87
456.323	16802.22
456.529	16271.79
456.735	16822.7
456.941	16464.3
457.147	16040.37
457.352	15372.74
457.558	15217.09
457.764	15182.27
457.97	15016.39
458.176	14752.2
458.381	14741.96
458.587	14178.77
458.793	13971.93
458.999	13330.91
459.204	14326.22
459.41	13857.24
459.616	12933.61
459.821	12925.41
460.027	13009.38
460.233	12704.23
460.438	12116.47
460.644	12130.8
460.85	11616.76
461.055	11495.93
461.261	11657.72
461.466	10764.81
461.672	10070.54
461.878	11016.71
462.083	10246.67
462.289	10263.05
462.494	10054.16
462.7	9585.18
462.905	9185.82
463.111	9738.77
463.316	9574.94
463.522	9609.75
463.727	9312.8
463.932	9370.14
464.138	9310.75
464.343	9456.15
464.549	9015.84
464.754	9503.26
464.959	9302.56
465.165	9245.21
465.37	8688.17
465.575	8596.01
465.781	9103.9
465.986	8903.2
466.191	8651.3
466.397	8362.54
466.602	7987.76
466.807	8452.65
467.012	8518.18
467.218	8213.04
467.423	8403.5
467.628	8434.22
467.833	8524.33
468.038	8165.93
468.244	8100.4
468.449	8438.31
468.654	7899.7
468.859	8106.54
469.064	8094.26
469.269	7692.85
469.474	7635.51
469.679	7850.55
469.885	7660.09
470.09	7793.2
470.295	7801.4
470.5	7653.94
470.705	7748.15
470.91	7451.19
471.115	7475.77
471.32	7422.52
471.525	7475.77
471.73	7260.73
471.935	7359.03
472.139	6791.75
472.344	7076.41
472.549	6894.15
472.754	7055.94
472.959	6767.17
473.164	6654.53
473.369	6722.12
473.574	6888
473.778	6668.87
473.983	6525.51
474.188	6693.44
474.393	6466.12
474.598	6367.82
474.802	6459.98
475.007	6333
475.212	6306.38
475.417	6115.92
475.621	6060.62
475.826	6081.1
476.031	6021.71
476.235	5892.69
476.44	6025.81
476.645	5700.18
476.849	5821.01
477.054	5759.57
477.259	5800.53
477.463	5778
477.668	5642.84
477.872	5612.12
478.077	5524.05
478.282	5460.57
478.486	5372.5
478.691	5343.83
478.895	5302.87
479.1	5235.29
479.304	5272.15
479.509	5042.78
479.713	5298.78
479.918	5128.8
480.122	5083.74
480.326	5149.28
480.531	5134.94
480.735	5063.26
480.94	5116.51
481.144	5212.76
481.348	4915.81
481.553	4973.15
481.757	4964.96
481.961	5096.03
482.166	4962.91
482.37	5087.84
482.574	4878.94
482.778	4862.56
482.983	4977.25
483.187	4807.27
483.391	4874.85
483.595	4768.35
483.8	4772.45
484.004	4874.85
484.208	5003.87
484.412	4921.95
484.616	4940.38
484.821	4821.6
485.025	4762.21
485.229	4903.52
485.433	4780.64
485.637	4862.56
485.841	4823.65
486.045	5007.97
486.249	4827.74
486.453	4772.45
486.657	4821.6
486.861	4815.46
487.065	4758.11
487.269	4813.41
487.473	4692.58
487.677	4911.71
487.881	4944.48
488.085	4663.91
488.289	4983.39
488.493	4901.47
488.697	4895.33
488.901	4905.57
489.105	4850.27
489.309	4924
489.512	4872.8
489.716	4915.81
489.92	4846.18
490.124	4938.34
490.328	5177.95
490.531	4903.52
490.735	5083.74
490.939	4960.86
491.143	5018.21
491.346	4924
491.55	5126.75
491.754	5069.41
491.958	5190.24
492.161	4924
492.365	5083.74
492.569	5040.73
492.772	5108.32
492.976	5280.35
493.18	5067.36
493.383	5124.7
493.587	5329.5
493.79	5382.74
493.994	5280.35
494.197	5390.94
494.401	5343.83
494.605	5460.57
494.808	5472.86
495.012	5442.14
495.215	5509.72
495.419	5630.55
495.622	5472.86
495.825	5495.38
496.029	5716.56
496.232	5714.52
496.436	5741.14
496.639	5841.49
496.843	5708.37
497.046	5945.94
497.249	6081.1
497.453	6060.62
497.656	5917.26
497.859	6146.64
498.063	6120.01
498.266	6476.36
498.469	6304.33
498.673	6314.57
498.876	6543.94
499.079	6615.62
499.282	6437.45
499.485	6625.86
499.689	6734.4
499.892	6808.13
500.095	6775.36
500.298	6894.15
500.501	6734.4
500.705	6920.77
500.908	7111.23
501.111	7139.9
501.314	7432.76
501.517	7572.02
501.72	7455.29
501.923	7354.94
502.126	7649.85
502.329	7680.57
502.532	7809.59
502.735	7813.68
502.938	8043.06
503.141	8065.58
503.344	8067.63
503.547	7971.38
503.75	8116.78
503.953	8534.57
504.156	8401.45
504.359	8387.11
504.562	8725.03
504.765	8827.43
504.968	8786.47
505.17	8776.23
505.373	8655.4
505.576	9191.97
505.779	9165.34
505.982	9265.69
506.185	9364
506.387	9331.23
506.59	9572.89
506.793	9624.09
506.996	9800.21
507.198	9949.71
507.401	10074.64
507.604	10091.02
507.807	10357.26
508.009	10365.45
508.212	10347.02
508.415	10289.68
508.617	10531.34
508.82	10717.7
509.022	10592.78
509.225	10992.13
509.428	10912.26
509.63	11100.67
509.833	11241.98
510.035	11540.99
510.238	11477.5
510.44	11575.8
510.643	11749.88
510.845	11883
511.048	11739.64
511.25	12169.71
511.453	12245.49
511.655	12452.33
511.858	12399.09
512.06	12622.31
512.262	12659.18
512.465	12906.98
512.667	12790.25
512.87	12868.07
513.072	13005.28
513.274	13304.29
513.477	13332.96
513.679	13500.89
513.881	13584.86
514.084	13861.34
514.286	13480.41
514.488	13957.59
514.69	14391.76
514.893	14367.18
515.095	14373.33
515.297	14778.83
515.499	14617.04
515.701	14752.2
515.904	15188.42
516.106	15122.88
516.308	15137.22
516.51	15352.26
516.712	15579.58
516.914	15731.13
517.116	15821.24
517.318	15878.58
517.52	16134.58
517.722	16187.83
517.925	16421.3
518.127	16642.48
518.329	16685.48
518.531	16505.26
518.733	16828.84
518.935	16935.34
519.136	17340.83
519.338	17435.04
519.54	17506.72
519.742	17680.8
519.944	17801.63
520.146	18043.29
520.348	18231.7
520.55	18266.52
520.752	18260.37
520.954	18825.61
521.155	18622.86
521.357	18977.16
521.559	19347.84
521.761	19431.81
521.963	19194.25
522.164	19601.79
522.366	19732.86
522.568	19868.03
522.77	19749.25
522.971	20185.46
523.173	19808.64
523.375	20496.75
523.576	20394.36
523.778	20361.59
523.98	20746.61
524.181	20580.72
524.383	20881.77
524.584	21250.41
524.786	21184.87
524.988	21260.65
525.189	21600.61
525.391	21643.62
525.592	21825.89
525.794	21784.93
525.995	21893.47
526.197	21932.38
526.398	22026.59
526.6	22260.05
526.801	22481.24
527.003	22647.12
527.204	22368.6
527.406	22958.41
527.607	22524.24
527.808	22710.61
528.01	22380.89
528.211	22751.57
528.412	23228.74
528.614	23224.65
528.815	23376.2
529.016	23406.92
529.218	23142.73
529.419	23298.38
529.62	23617.86
529.822	23390.53
530.023	23828.8
530.224	23789.89
530.425	23707.97
530.626	23488.84
530.828	23259.46
531.029	23974.2
531.23	23867.71
531.431	23845.18
531.632	24099.13
531.833	24095.03
532.035	24146.23
532.236	23896.38
532.437	23986.49
532.638	24230.2
532.839	24494.39
533.04	24457.53
533.241	24455.48
533.442	24418.61
533.643	24361.27
533.844	24506.68
534.045	24305.98
534.246	24133.95
534.447	24355.13
534.648	24385.85
534.849	24469.81
535.05	24289.59
535.251	24328.5
535.451	24744.24
535.652	24684.85
535.853	24523.06
536.054	24363.32
536.255	24727.86
536.456	24602.93
536.657	24826.16
536.857	24299.83
537.058	24480.05
537.259	24566.07
537.46	24463.67
537.66	24564.02
537.861	24785.2
538.062	24531.25
538.263	24719.67
538.463	24750.38
538.664	24484.15
538.865	24803.63
539.065	24912.17
539.266	24463.67
539.466	24811.82
539.667	24568.12
539.868	24658.23
540.068	24615.22
540.269	24709.43
540.469	24752.43
540.67	24277.3
540.87	24609.08
541.071	24484.15
541.271	24662.32
541.472	24701.23
541.672	24770.86
541.873	24723.76
542.073	24498.48
542.274	24731.95
542.474	24590.64
542.675	24238.39
542.875	24717.62
543.075	24604.98
543.276	24312.12
543.476	24785.2
543.676	24670.51
543.877	24543.54
544.077	24680.75
544.277	24365.37
544.478	24461.62
544.678	24914.22
544.878	24590.64
545.078	24473.91
545.279	24344.89
545.479	24322.36
545.679	24678.71
545.879	24641.84
546.079	24271.16
546.28	24572.21
546.48	24535.35
546.68	24596.79
546.88	24332.6
547.08	24553.78
547.28	24387.89
547.48	24586.55
547.68	24496.44
547.88	24381.75
548.081	24897.84
548.281	24537.4
548.481	24494.39
548.681	24873.26
548.881	24389.94
549.081	24774.96
549.28	24613.17
549.48	24666.42
549.68	24373.56
549.88	24678.71
550.08	24516.92
550.28	24766.77
550.48	24459.57
550.68	24934.7
550.88	24418.61
551.08	24236.34
551.279	24693.04
551.479	24361.27
551.679	24561.97
551.879	24217.91
552.079	24639.79
552.278	24203.58
552.478	24602.93
552.678	24344.89
552.878	24400.18
553.077	24527.16
553.277	24129.85
553.477	24527.16
553.676	24260.92
553.876	24359.22
554.076	24449.33
554.275	23970.11
554.475	23959.87
554.674	24228.15
554.874	24297.78
555.074	24070.46
555.273	24578.36
555.473	24041.79
555.672	24207.67
555.872	24265.02
556.071	24293.69
556.271	24002.88
556.47	23972.16
556.67	23779.65
556.869	23767.36
557.068	23871.81
557.268	23810.37
557.467	23832.89
557.667	23767.36
557.866	23757.12
558.065	23771.46
558.265	23791.94
558.464	23499.08
558.663	23783.74
558.863	23576.9
559.062	23705.92
559.261	23669.06
559.461	23808.32
559.66	23294.28
559.859	23208.26
560.058	23085.39
560.258	23157.07
560.457	22942.03
560.656	23368.01
560.855	23159.11
561.054	23318.85
561.253	23021.9
561.453	23128.39
561.652	23163.21
561.851	23224.65
562.05	22856.01
562.249	23023.95
562.448	22964.56
562.647	22923.6
562.846	22976.84
563.045	22438.23
563.244	22292.82
563.443	22880.59
563.642	22427.99
563.841	22716.75
564.04	22272.34
564.239	22612.31
564.438	22325.59
564.637	22520.15
564.836	22432.08
565.035	22112.6
565.234	22243.67
565.432	22217.05
565.631	22131.03
565.83	22012.25
566.029	22018.39
566.228	22067.55
566.427	21778.78
566.625	21631.33
566.824	21555.55
567.023	21383.52
567.222	21356.9
567.42	21715.3
567.619	21549.41
567.818	21236.07
568.016	21379.43
568.215	21754.21
568.414	21184.87
568.612	21582.18
568.811	21393.76
569.01	21297.51
569.208	20828.52
569.407	21105
569.605	20973.93
569.804	21240.17
570.002	20898.16
570.201	20918.64
570.4	20599.15
570.598	20527.47
570.797	20605.3
570.995	20853.1
571.193	20326.77
571.392	20570.48
571.59	20320.63
571.789	19949.95
571.987	20205.94
572.186	20189.56
572.384	19927.42
572.582	20068.73
572.781	20052.34
572.979	19632.51
573.177	19927.42
573.376	19902.84
573.574	19661.18
573.772	19642.75
573.971	19538.3
574.169	19523.97
574.367	19636.61
574.565	19648.89
574.763	19634.56
574.962	19353.99
575.16	19229.06
575.358	19161.48
575.556	19294.6
575.754	19399.04
575.952	19202.44
576.151	19118.47
576.349	19071.37
576.547	18942.35
576.745	18805.13
576.943	18743.69
577.141	18710.93
577.339	18678.16
577.537	18731.4
577.735	18739.6
577.933	18514.32
578.131	18520.46
578.329	18581.9
578.527	18200.98
578.725	18307.48
578.923	18377.11
579.121	18301.33
579.319	18084.25
579.516	18108.82
579.714	18078.1
579.912	18239.89
580.11	17992.09
580.308	17781.15
580.506	18051.48
580.704	17725.85
580.901	17846.68
581.099	17875.35
581.297	17549.73
581.495	17783.2
581.692	17584.54
581.89	17713.56
582.088	17832.35
582.285	17342.88
582.483	17641.89
582.681	17549.73
582.878	17424.8
583.076	17138.09
583.274	17605.02
583.471	17095.08
583.669	17346.98
583.866	16882.09
584.064	17299.87
584.262	16830.89
584.459	17224.1
584.657	16828.84
584.854	17021.35
585.052	16691.63
585.249	16867.75
585.447	16601.52
585.644	16726.44
585.841	16634.28
586.039	16681.39
586.236	16398.77
586.434	16304.56
586.631	16345.52
586.828	16388.53
587.026	16361.9
587.223	16490.93
587.42	16292.27
587.618	16341.43
587.815	16163.25
588.012	16040.37
588.21	16069.05
588.407	16212.4
588.604	16058.81
588.801	15903.16
588.999	15835.58
589.196	15808.95
589.393	15815.1
589.59	15616.44
589.787	15675.84
589.984	15671.74
590.182	15438.27
590.379	15716.79
590.576	15432.13
590.773	15595.96
590.97	15380.93
591.167	15641.02
591.364	15339.97
591.561	15317.44
591.758	15073.73
591.955	15163.84
592.152	15276.48
592.349	14838.22
592.546	15102.4
592.743	15288.77
592.94	14840.26
593.137	14893.51
593.334	15059.4
593.531	14754.25
593.727	14660.04
593.924	14721.48
594.121	15000.01
594.318	14713.29
594.515	14318.03
594.712	14830.02
594.908	14610.89
595.105	14381.52
595.302	14293.46
595.499	14447.05
595.696	14336.46
595.892	14297.55
596.089	14244.31
596.286	14457.29
596.482	14088.66
596.679	14064.08
596.876	14414.29
597.072	14219.73
597.269	14354.9
597.466	13949.4
597.662	13711.83
597.859	13847
598.055	13885.91
598.252	13861.34
598.448	13674.97
598.645	13779.42
598.841	13562.33
599.038	13844.95
599.234	13697.5
599.431	13638.11
599.627	13726.17
599.824	13468.13
600.02	13437.41
600.217	13294.05
600.413	13193.7
600.609	13267.42
600.806	13275.62
601.002	13330.91
601.198	13001.19
601.395	13072.87
601.591	13095.39
601.787	13181.41
601.984	13009.38
602.18	12949.99
602.376	13087.2
602.572	13072.87
602.769	12904.93
602.965	12890.6
603.161	12882.41
603.357	12597.74
603.553	12663.27
603.75	12700.14
603.946	12579.31
604.142	12720.62
604.338	12589.55
604.534	12491.24
604.73	12304.88
604.926	12425.71
605.122	12540.4
605.318	12429.8
605.514	12386.8
605.71	12306.93
605.906	12339.69
606.102	12253.68
606.298	12106.23
606.494	12265.97
606.69	12110.32
606.886	11977.2
607.082	11944.44
607.278	12235.25
607.474	11950.58
607.67	12210.67
607.866	11555.32
608.062	12091.89
608.257	11934.2
608.453	11733.5
608.649	11885.05
608.845	11821.56
609.041	11903.48
609.236	11792.89
609.432	11934.2
609.628	11839.99
609.824	11600.38
610.019	11559.42
610.215	11653.62
610.411	11657.72
610.606	11420.16
610.802	11704.82
610.998	11483.64
611.193	11504.12
611.389	11418.11
611.584	11409.92
611.78	11444.73
611.976	11260.41
612.171	11469.31
612.367	11213.31
612.562	11307.52
612.758	11031.04
612.953	11055.62
613.149	11211.26
613.344	11024.9
613.539	11362.81
613.735	11069.95
613.93	10983.94
614.126	11000.32
614.321	11182.59
614.517	11319.81
614.712	11059.71
614.907	10760.71
615.103	11069.95
615.298	10990.08
615.493	11115.01
615.688	10840.58
615.884	11024.9
616.079	10801.67
616.274	10940.93
616.47	10899.97
616.665	10883.59
616.86	10648.07
617.055	10801.67
617.25	10615.3
617.445	10893.83
617.641	10607.11
617.836	10732.04
618.031	10408.46
618.226	10723.85
618.421	10379.79
618.616	10775.05
618.811	10344.97
619.006	10615.3
619.201	10209.81
619.396	10523.15
619.591	10039.83
619.786	10273.29
619.981	10025.49
620.176	10228.24
620.371	10189.33
620.566	10154.51
620.761	10113.55
620.956	10203.66
621.151	9814.55
621.346	9867.8
621.541	9863.7
621.735	10009.11
621.93	9792.02
622.125	9742.87
622.32	9691.67
622.515	9742.87
622.709	9486.87
622.904	9699.86
623.099	9591.32
623.294	9499.16
623.488	9337.37
623.683	9568.79
623.878	9308.7
624.072	9378.33
624.267	9267.74
624.462	9196.06
624.656	8927.78
624.851	9048.61
625.046	9079.33
625.24	8991.27
625.435	8966.69
625.629	8827.43
625.824	8870.44
626.018	8841.76
626.213	8669.73
626.407	8878.63
626.602	8669.73
626.796	8606.25
626.991	8722.98
627.185	8663.59
627.38	8288.81
627.574	8407.59
627.768	8419.88
627.963	8276.52
628.157	8165.93
628.352	8366.63
628.546	8084.02
628.74	8311.34
628.935	8016.43
629.129	8104.49
629.323	7920.18
629.517	8036.91
629.712	8004.14
629.906	7901.75
630.1	7756.34
630.294	7926.32
630.489	7823.92
630.683	7754.29
630.877	7707.19
631.071	7649.85
631.265	7688.76
631.459	7739.96
631.653	7658.04
631.848	7619.13
632.042	7481.91
632.236	7535.16
632.43	7262.78
632.624	7412.28
632.818	7465.53
633.012	7225.92
633.206	7189.05
633.4	7260.73
633.594	7008.83
633.788	7164.48
633.982	7055.94
634.176	7279.16
634.369	7096.89
634.563	7117.37
634.757	7080.51
634.951	6898.24
635.145	6988.35
635.339	6871.62
635.533	6861.38
635.726	6943.3
635.92	6814.27
636.114	6810.18
636.308	6558.28
636.501	6697.54
636.695	6568.52
636.889	6570.57
637.083	6435.4
637.276	6584.9
637.47	6541.89
637.664	6361.67
637.857	6367.82
638.051	6388.3
638.244	6187.6
638.438	6238.8
638.632	6228.56
638.825	6378.06
639.019	6314.57
639.212	6091.34
639.406	6218.32
639.599	6173.26
639.793	6187.6
639.986	6060.62
640.18	6023.76
640.373	5929.55
640.567	5941.84
640.76	5921.36
640.954	5866.07
641.147	6001.23
641.34	5845.59
641.534	5810.77
641.727	5827.15
641.92	5831.25
642.114	5644.88
642.307	5567.06
642.5	5505.62
642.694	5653.08
642.887	5575.25
643.08	5528.15
643.273	5585.49
643.467	5444.18
643.66	5452.38
643.853	5476.95
644.046	5384.79
644.239	5419.61
644.432	5300.83
644.626	5345.88
644.819	5429.85
645.012	5198.43
645.205	5276.25
645.398	5167.71
645.591	5309.02
645.784	5188.19
645.977	5077.6
646.17	5044.83
646.363	5053.02
646.556	4846.18
646.749	4993.63
646.942	5118.56
647.135	4969.05
647.328	4938.34
647.521	4911.71
647.714	4708.96
647.907	4731.49
648.099	4921.95
648.292	5005.92
648.485	4827.74
648.678	4846.18
648.871	4631.14
649.064	4762.21
649.256	4641.38
649.449	4575.84
649.642	4510.31
649.835	4485.73
650.027	4692.58
650.22	4536.93
650.413	4608.61
650.605	4659.81
650.798	4405.86
650.991	4350.57
651.183	4575.84
651.376	4342.38
651.568	4553.32
651.761	4356.71
651.954	4332.14
652.146	4352.62
652.339	4369
652.531	4346.47
652.724	4250.22
652.916	4201.07
653.109	4145.77
653.301	4117.1
653.494	4319.85
653.686	3994.22
653.879	4231.79
654.071	4104.81
654.263	4199.02
654.456	4070
654.648	3953.26
654.84	4029.04
655.033	4100.72
655.225	4080.24
655.417	3920.49
655.61	3842.67
655.802	4053.61
655.994	3930.73
656.186	3885.68
656.379	3891.82
656.571	3832.43
656.763	3924.59
656.955	3930.73
657.148	3889.78
657.34	3799.66
657.532	3646.07
657.724	3730.03
657.916	3826.29
658.108	3854.96
658.3	3840.62
658.492	3670.64
658.684	3644.02
658.876	3609.2
659.068	3594.87
659.26	3496.57
659.452	3580.53
659.644	3478.13
659.836	3533.43
660.028	3598.96
660.22	3457.65
660.412	3410.55
660.604	3398.26
660.796	3488.37
660.988	3396.21
661.18	3428.98
661.372	3265.14
661.563	3410.55
661.755	3330.68
661.947	3433.08
662.139	3390.07
662.331	3310.2
662.522	3136.12
662.714	3183.23
662.906	3146.36
663.097	3265.14
663.289	3166.84
663.481	3240.57
663.673	3129.98
663.864	3043.96
664.056	3084.92
664.247	3129.98
664.439	3136.12
664.631	3152.51
664.822	2962.05
665.014	2927.23
665.205	3084.92
665.397	2945.66
665.588	2939.52
665.78	2943.61
665.971	3082.88
666.163	2953.85
666.354	2929.28
666.546	3031.68
666.737	2843.26
666.929	2837.12
667.12	2931.33
667.311	2914.94
667.503	2935.42
667.694	2835.07
667.885	2818.69
668.077	2828.93
668.268	2835.07
668.459	2808.45
668.651	2806.4
668.842	2830.98
669.033	2675.33
669.224	2714.24
669.416	2802.3
669.607	2652.8
669.798	2683.52
669.989	2693.76
670.18	2736.77
670.371	2628.23
670.563	2720.39
670.754	2660.99
670.945	2701.95
671.136	2617.99
671.327	2552.45
671.518	2585.22
671.709	2622.08
671.9	2568.84
672.091	2542.21
672.282	2544.26
672.473	2581.12
672.664	2611.84
672.855	2511.49
673.046	2558.6
673.237	2638.47
673.428	2445.96
673.619	2548.36
673.809	2386.57
674	2531.97
674.191	2411.14
674.382	2474.63
674.573	2405
674.764	2456.2
674.954	2302.6
675.145	2353.8
675.336	2400.9
675.527	2325.13
675.717	2405
675.908	2235.02
676.099	2382.47
676.289	2437.77
676.48	2247.3
676.671	2327.18
676.861	2308.74
677.052	2290.31
677.243	2275.98
677.433	2222.73
677.624	2235.02
677.814	2138.76
678.005	2265.74
678.195	2349.7
678.386	2259.59
678.576	2245.26
678.767	2241.16
678.957	2146.95
679.148	2275.98
679.338	2116.23
679.529	2232.97
679.719	2126.47
679.909	2353.8
680.1	2136.71
680.29	2163.34
680.481	2091.66
680.671	2103.95
680.861	2077.32
681.052	2001.55
681.242	2077.32
681.432	2073.23
681.622	2128.52
681.813	2095.75
682.003	2011.79
682.193	1997.45
682.383	2185.87
682.573	2114.19
682.764	2026.12
682.954	2099.85
683.144	2105.99
683.334	2030.22
683.524	2073.23
683.714	2075.27
683.904	2032.27
684.094	2032.27
684.284	2136.71
684.474	1942.16
684.664	1917.58
684.854	1974.92
685.044	1966.73
685.234	1999.5
685.424	1956.49
685.614	1960.59
685.804	2003.6
685.994	1979.02
686.184	1999.5
686.374	1979.02
686.564	1942.16
686.753	2022.03
686.943	1776.27
687.133	1929.87
687.323	1903.25
687.513	1813.13
687.702	1841.81
687.892	1747.6
688.082	1884.81
688.272	1979.02
688.461	1833.61
688.651	1931.92
688.841	1878.67
689.03	1811.09
689.22	1766.03
689.41	1880.72
689.599	1856.14
689.789	1776.27
689.979	1864.33
690.168	1837.71
690.358	1768.08
690.547	1766.03
690.737	1831.57
690.926	1745.55
691.116	1800.85
691.305	1772.18
691.495	1747.6
691.684	1753.74
691.874	1733.26
692.063	1643.15
692.252	1763.98
692.442	1684.11
692.631	1698.45
692.82	1694.35
693.01	1741.46
693.199	1704.59
693.388	1673.87
693.578	1630.87
693.767	1618.58
693.956	1684.11
694.146	1768.08
694.335	1626.77
694.524	1675.92
694.713	1675.92
694.902	1622.67
695.092	1579.67
695.281	1647.25
695.47	1630.87
695.659	1628.82
695.848	1632.91
696.037	1528.47
696.226	1643.15
696.415	1557.14
696.604	1741.46
696.793	1469.08
696.982	1710.74
697.171	1720.98
697.36	1643.15
697.549	1583.76
697.738	1469.08
697.927	1579.67
698.116	1692.3
698.305	1714.83
698.494	1671.83
698.683	1700.5
698.872	1659.54
699.061	1733.26
699.25	1528.47
699.438	1563.28
699.627	1643.15
699.816	1659.54
700.005	1563.28
700.193	1551
700.382	1655.44
700.571	1626.77
700.76	1692.3
700.948	1626.77
701.137	1718.93
701.326	1657.49
701.514	1663.63
701.703	1675.92
701.892	1626.77
702.08	1700.5
702.269	1594
702.457	1600.15
702.646	1727.12
702.834	1544.85
703.023	1583.76
703.212	1618.58
703.4	1618.58
703.589	1596.05
703.777	1759.89
703.965	1557.14
704.154	1587.86
704.342	1567.38
704.531	1645.2
704.719	1733.26
704.907	1637.01
705.096	1583.76
705.284	1651.35
705.472	1641.11
705.661	1659.54
705.849	1710.74
706.037	1663.63
706.226	1596.05
706.414	1688.21
706.602	1690.26
706.79	1690.26
706.979	1731.22
707.167	1684.11
707.355	1669.78
707.543	1692.3
707.731	1684.11
707.919	1565.33
708.107	1645.2
708.296	1532.56
708.484	1659.54
708.672	1657.49
708.86	1755.79
709.048	1714.83
709.236	1628.82
709.424	1725.07
709.612	1643.15
709.8	1747.6
709.988	1675.92
710.176	1669.78
710.364	1704.59
710.551	1673.87
710.739	1727.12
710.927	1716.88
711.115	1743.5
711.303	1671.83
711.491	1708.69
711.679	1591.95
711.866	1637.01
712.054	1632.91
712.242	1589.91
712.43	1806.99
712.617	1677.97
712.805	1702.54
712.993	1692.3
713.181	1747.6
713.368	1757.84
713.556	1692.3
713.744	1667.73
713.931	1673.87
714.119	1659.54
714.306	1751.7
714.494	1708.69
714.682	1751.7
714.869	1655.44
715.057	1663.63
715.244	1710.74
715.432	1784.46
715.619	1657.49
715.807	1688.21
715.994	1782.42
716.182	1741.46
716.369	1712.78
716.556	1802.9
716.744	1696.4
716.931	1729.17
717.119	1694.35
717.306	1698.45
717.493	1714.83
717.681	1637.01
717.868	1700.5
718.055	1802.9
718.242	1737.36
718.43	1680.02
718.617	1710.74
718.804	1667.73
718.991	1686.16
719.179	1716.88
719.366	1766.03
719.553	1741.46
719.74	1716.88
719.927	1739.41
720.114	1667.73
720.301	1630.87
720.488	1684.11
720.676	1606.29
720.863	1694.35
721.05	1743.5
721.237	1741.46
721.424	1686.16
721.611	1802.9
721.798	1655.44
721.985	1632.91
722.172	1690.26
722.358	1751.7
722.545	1710.74
722.732	1708.69
722.919	1659.54
723.106	1634.96
723.293	1649.3
723.48	1591.95
723.667	1700.5
723.853	1749.65
724.04	1751.7
724.227	1782.42
724.414	1778.32
724.6	1755.79
724.787	1725.07
724.974	1757.84
725.161	1634.96
725.347	1694.35
725.534	1688.21
725.72	1669.78
725.907	1733.26
726.094	1591.95
726.28	1743.5
726.467	1594
726.653	1731.22
726.84	1770.13
727.027	1659.54
727.213	1716.88
727.4	1675.92
727.586	1739.41
727.773	1655.44
727.959	1645.2
728.145	1776.27
728.332	1610.39
728.518	1630.87
728.705	1704.59
728.891	1622.67
729.077	1628.82
729.264	1735.31
729.45	1606.29
729.636	1692.3
729.823	1655.44
730.009	1729.17
730.195	1677.97
730.382	1790.61
730.568	1618.58
730.754	1690.26
730.94	1569.43
731.126	1733.26
731.313	1634.96
731.499	1673.87
731.685	1720.98
731.871	1583.76
732.057	1675.92
732.243	1647.25
732.429	1694.35
732.615	1602.19
732.801	1591.95
732.987	1616.53
733.173	1612.43
733.359	1727.12
733.545	1653.39
733.731	1637.01
733.917	1677.97
734.103	1743.5
734.289	1641.11
734.475	1596.05
734.661	1698.45
734.847	1575.57
735.033	1688.21
735.219	1618.58
735.404	1667.73
735.59	1637.01
735.776	1618.58
735.962	1637.01
736.148	1626.77
736.333	1632.91
736.519	1653.39
736.705	1720.98
736.89	1555.09
737.076	1534.61
737.262	1626.77
737.447	1596.05
737.633	1653.39
737.819	1661.59
738.004	1569.43
738.19	1522.32
738.375	1569.43
738.561	1581.71
738.747	1622.67
738.932	1577.62
739.118	1542.8
739.303	1532.56
739.489	1624.72
739.674	1561.23
739.859	1663.63
740.045	1479.32
740.23	1493.65
740.416	1522.32
740.601	1536.66
740.786	1536.66
740.972	1479.32
741.157	1528.47
741.342	1489.56
741.528	1553.04
741.713	1481.36
741.898	1426.07
742.084	1436.31
742.269	1434.26
742.454	1430.16
742.639	1487.51
742.824	1452.69
743.01	1446.55
743.195	1436.31
743.38	1460.88
743.565	1528.47
743.75	1536.66
743.935	1583.76
744.12	1432.21
744.305	1479.32
744.49	1430.16
744.675	1424.02
744.86	1329.81
745.045	1481.36
745.23	1323.67
745.415	1301.14
745.6	1397.4
745.785	1301.14
745.97	1315.48
746.155	1385.11
746.34	1360.53
746.525	1284.76
746.71	1421.97
746.895	1262.23
747.079	1303.19
747.264	1372.82
747.449	1315.48
747.634	1331.86
747.819	1346.2
748.003	1227.42
748.188	1309.33
748.373	1313.43
748.557	1157.79
748.742	1180.31
748.927	1241.75
749.111	1229.46
749.296	1139.35
749.481	1254.04
749.665	1286.81
749.85	1145.5
750.034	1309.33
750.219	1135.26
750.404	1168.02
750.588	1231.51
750.773	1145.5
750.957	1219.22
751.141	1075.87
751.326	1186.46
751.51	1065.63
751.695	1075.87
751.879	1100.44
752.064	1188.5
752.248	1086.11
752.432	1133.21
752.617	1151.64
752.801	1092.25
752.985	1065.63
753.17	1176.22
753.354	1129.11
753.538	1102.49
753.722	1112.73
753.907	1147.55
754.091	1055.39
754.275	1053.34
754.459	944.8
754.643	989.85
754.828	1028.76
755.012	969.37
755.196	1004.19
755.38	973.47
755.564	924.32
755.748	965.28
755.932	1002.14
756.116	885.41
756.3	993.95
756.484	1004.19
756.668	996
756.852	934.56
757.036	950.94
757.22	981.66
757.404	963.23
757.588	912.03
757.772	873.12
757.956	981.66
758.14	836.25
758.323	905.88
758.507	895.64
758.691	887.45
758.875	907.93
759.059	930.46
759.242	852.64
759.426	819.87
759.61	811.68
759.794	838.3
759.977	905.88
760.161	920.22
760.345	860.83
760.528	879.26
760.712	828.06
760.895	899.74
761.079	840.35
761.263	795.29
761.446	836.25
761.63	905.88
761.813	875.17
761.997	754.34
762.18	778.91
762.364	873.12
762.547	801.44
762.731	807.58
762.914	766.62
763.098	811.68
763.281	737.95
763.464	846.49
763.648	840.35
763.831	836.25
764.015	727.71
764.198	733.86
764.381	754.34
764.564	807.58
764.748	821.92
764.931	625.31
765.114	692.9
765.297	805.53
765.481	688.8
765.664	776.86
765.847	684.7
766.03	768.67
766.213	729.76
766.397	740
766.58	762.53
766.763	668.32
766.946	799.39
767.129	733.86
767.312	694.94
767.495	737.95
767.678	705.18
767.861	690.85
768.044	725.66
768.227	723.62
768.41	637.6
768.593	770.72
768.776	639.65
768.959	717.47
769.142	678.56
769.324	670.37
769.507	670.37
769.69	631.46
769.873	752.29
770.056	649.89
770.239	715.42
770.421	668.32
770.604	600.74
770.787	748.19
770.97	606.88
771.152	629.41
771.335	549.54
771.518	596.64
771.7	651.94
771.883	656.03
772.066	635.55
772.248	676.51
772.431	680.61
772.613	686.75
772.796	545.44
772.978	664.22
773.161	608.93
773.343	514.72
773.526	578.21
773.708	594.59
773.891	586.4
774.073	524.96
774.256	516.77
774.438	699.04
774.621	590.5
774.803	619.17
774.985	584.35
775.168	610.98
775.35	551.59
775.532	656.03
775.715	496.29
775.897	539.3
776.079	570.02
776.261	602.79
776.444	502.44
776.626	545.44
776.808	453.28
776.99	512.67
777.173	535.2
777.355	561.83
777.537	527.01
777.719	498.34
777.901	522.91
778.083	416.42
778.265	484
778.447	549.54
778.629	479.91
778.811	441
778.993	457.38
779.175	506.53
779.357	553.63
779.539	428.71
779.721	512.67
779.903	438.95
780.085	447.14
780.267	504.48
780.449	426.66
780.631	414.37
780.812	508.58
780.994	504.48
781.176	484
781.358	455.33
781.54	408.23
781.721	410.28
781.903	459.43
782.085	455.33
782.267	402.08
782.448	383.65
782.63	385.7
782.812	451.24
782.993	473.76
783.175	397.99
783.357	303.78
783.538	408.23
783.72	397.99
783.901	348.84
784.083	377.51
784.264	410.28
784.446	410.28
784.627	404.13
784.809	350.89
784.99	397.99
785.172	344.74
785.353	397.99
785.535	324.26
785.716	299.69
785.897	293.54
786.079	324.26
786.26	402.08
786.441	404.13
786.623	318.12
786.804	340.65
786.985	301.73
787.167	357.03
787.348	381.6
787.529	334.5
787.71	371.37
787.891	348.84
788.073	318.12
788.254	320.17
788.435	311.97
788.616	357.03
788.797	275.11
788.978	307.88
789.159	352.93
789.34	289.45
789.522	281.25
789.703	268.97
789.884	232.1
790.065	318.12
790.246	277.16
790.427	248.49
790.607	348.84
790.788	266.92
790.969	334.5
791.15	311.97
791.331	242.34
791.512	248.49
791.693	234.15
791.874	322.21
792.054	326.31
792.235	299.69
792.416	207.53
792.597	230.06
792.778	293.54
792.958	295.59
793.139	219.82
793.32	275.11
793.5	252.58
793.681	287.4
793.862	211.62
794.042	164.52
794.223	201.38
794.404	176.81
794.584	295.59
794.765	178.86
794.945	299.69
795.126	303.78
795.306	275.11
795.487	189.1
795.667	180.9
795.848	209.58
796.028	240.3
796.209	217.77
796.389	262.82
796.57	228.01
796.75	131.75
796.93	236.2
797.111	193.19
797.291	230.06
797.471	193.19
797.652	162.47
797.832	191.14
798.012	271.01
798.192	152.23
798.373	187.05
798.553	174.76
798.733	96.94
798.913	191.14
799.093	176.81
799.274	146.09
799.454	264.87
799.634	127.66
799.814	176.81
799.994	246.44
800.174	207.53
800.354	213.67
800.534	287.4
800.714	275.11
800.894	197.29
801.074	148.14
801.254	139.94
801.434	240.3
801.614	211.62
801.794	148.14
801.974	670.37
802.154	211.62
802.334	201.38
802.514	172.71
802.693	176.81
802.873	146.09
803.053	156.33
803.233	150.18
803.413	254.63
803.592	164.52
803.772	164.52
803.952	152.23
804.131	92.84
804.311	223.91
804.491	148.14
804.67	191.14
804.85	127.66
805.03	121.51
805.209	158.38
805.389	191.14
805.568	141.99
805.748	135.85
805.928	158.38
806.107	166.57
806.287	174.76
806.466	148.14
806.646	185
806.825	117.42
807.004	154.28
807.184	234.15
807.363	121.51
807.543	158.38
807.722	127.66
807.901	164.52
808.081	164.52
808.26	162.47
808.439	152.23
808.619	185
808.798	103.08
808.977	185
809.156	164.52
809.336	119.46
809.515	180.9
809.694	62.12
809.873	74.41
810.052	109.22
810.231	174.76
810.411	86.7
810.59	111.27
810.769	139.94
810.948	94.89
811.127	37.55
811.306	148.14
811.485	60.07
811.664	225.96
811.843	55.98
812.022	121.51
812.201	115.37
812.38	80.55
812.559	90.79
812.737	105.13
812.916	119.46
813.095	105.13
813.274	119.46
813.453	176.81
813.632	117.42
813.811	92.84
813.989	55.98
814.168	187.05
814.347	96.94
814.526	76.46
814.704	113.32
814.883	160.42
815.062	121.51
815.24	152.23
815.419	74.41
815.598	86.7
815.776	72.36
815.955	78.51
816.133	-9.56
816.312	88.75
816.49	150.18
816.669	129.7
816.847	125.61
817.026	74.41
817.204	135.85
817.383	146.09
817.561	121.51
817.74	103.08
817.918	29.35
818.097	111.27
818.275	80.55
818.453	45.74
818.632	109.22
818.81	137.9
818.988	94.89
819.167	111.27
819.345	115.37
819.523	105.13
819.701	82.6
819.879	74.41
820.058	96.94
820.236	113.32
820.414	62.12
820.592	105.13
820.77	66.22
820.948	88.75
821.127	25.26
821.305	113.32
821.483	80.55
821.661	35.5
821.839	86.7
822.017	82.6
822.195	62.12
822.373	139.94
822.551	98.99
822.729	129.7
822.907	90.79
823.085	127.66
823.262	84.65
823.44	29.35
823.618	115.37
823.796	37.55
823.974	121.51
824.152	121.51
824.329	88.75
824.507	90.79
824.685	84.65
824.863	127.66
825.04	103.08
825.218	70.31
825.396	133.8
825.574	68.27
825.751	0.68
825.929	119.46
826.107	6.83
826.284	78.51
826.462	76.46
826.639	78.51
826.817	-9.56
826.994	55.98
827.172	31.4
827.349	62.12
827.527	105.13
827.704	94.89
827.882	152.23
828.059	66.22
828.237	92.84
828.414	47.79
828.591	23.21
828.769	41.64
828.946	64.17
829.124	101.03
829.301	70.31
829.478	41.64
829.655	72.36
829.833	49.83
830.01	35.5
830.187	82.6
830.364	39.59
830.542	127.66
830.719	51.88
830.896	88.75
831.073	74.41
831.25	-17.75
831.427	103.08
831.604	12.97
831.782	68.27
831.959	53.93
832.136	45.74
832.313	68.27
832.49	-9.56
832.667	94.89
832.844	33.45
833.021	86.7
833.198	98.99
833.374	103.08
833.551	27.31
833.728	37.55
833.905	72.36
834.082	62.12
834.259	49.83
834.436	86.7
834.612	-42.32
834.789	90.79
834.966	129.7
835.143	8.87
835.319	55.98
835.496	115.37
835.673	64.17
835.85	33.45
836.026	45.74
836.203	53.93
836.38	96.94
836.556	49.83
836.733	53.93
836.909	152.23
837.086	66.22
837.262	21.16
837.439	10.92
837.616	58.03
837.792	72.36
837.968	17.07
838.145	27.31
838.321	43.69
838.498	10.92
838.674	70.31
838.851	-48.47
839.027	70.31
839.203	-17.75
839.38	74.41
839.556	15.02
839.732	49.83
839.909	103.08
840.085	88.75
840.261	47.79
840.437	78.51
840.614	37.55
840.79	62.12
840.966	66.22
841.142	37.55
841.318	55.98
841.494	123.56
841.671	103.08
841.847	25.26
842.023	31.4
842.199	70.31
842.375	53.93
842.551	70.31
842.727	68.27
842.903	72.36
843.079	33.45
843.255	152.23
843.431	12.97
843.607	62.12
843.783	-32.08
843.959	29.35
844.134	64.17
844.31	-3.41
844.486	-1.37
844.662	12.97
844.838	105.13
845.013	41.64
845.189	105.13
845.365	47.79
845.541	23.21
845.716	88.75
845.892	64.17
846.068	12.97
846.244	55.98
846.419	31.4
846.595	-11.61
846.77	53.93
846.946	70.31
847.122	90.79
847.297	92.84
847.473	86.7
847.648	51.88
847.824	-9.56
847.999	6.83
848.175	55.98
848.35	25.26
848.526	23.21
848.701	39.59
848.876	47.79
849.052	29.35
849.227	21.16
849.403	4.78
849.578	17.07
849.753	19.11
849.929	-3.41
850.104	39.59
850.279	17.07
850.454	113.32
850.63	92.84
850.805	58.03
850.98	37.55
851.155	29.35
851.33	25.26
851.505	-81.24
851.681	74.41
851.856	-23.89
852.031	6.83
852.206	-3.41
852.381	8.87
852.556	12.97
852.731	-30.04
852.906	2.73
853.081	62.12
853.256	12.97
853.431	27.31
853.606	55.98
853.781	55.98
853.956	-17.75
854.131	121.51
854.305	23.21
854.48	-1.37
854.655	-38.23
854.83	-7.51
855.005	17.07
855.18	6.83
855.354	-34.13
855.529	82.6
855.704	-5.46
855.879	96.94
856.053	-3.41
856.228	121.51
856.403	15.02
856.577	58.03
856.752	25.26
856.926	72.36
857.101	21.16
857.276	23.21
857.45	41.64
857.625	70.31
857.799	19.11
857.974	72.36
858.148	27.31
858.323	47.79
858.497	78.51
858.672	-13.65
858.846	-25.94
859.02	17.07
859.195	29.35
859.369	35.5
859.543	41.64
859.718	8.87
859.892	60.07
860.066	31.4
860.241	27.31
860.415	15.02
860.589	12.97
860.763	49.83
860.938	8.87
861.112	55.98
861.286	-34.13
861.46	47.79
861.634	15.02
861.808	47.79
861.982	21.16
862.157	-5.46
862.331	94.89
862.505	-3.41
862.679	74.41
862.853	-27.99
863.027	47.79
863.201	21.16
863.375	-7.51
863.549	92.84
863.722	27.31
863.896	84.65
864.07	12.97
864.244	8.87
864.418	-7.51
864.592	70.31
864.766	29.35
864.939	68.27
865.113	29.35
865.287	94.89
865.461	12.97
865.634	21.16
865.808	-11.61
865.982	25.26
866.156	-11.61
866.329	23.21
866.503	72.36
866.676	37.55
866.85	-32.08
867.024	-52.56
867.197	-25.94
867.371	37.55
867.544	39.59
867.718	49.83
867.891	64.17
868.065	-58.71
868.238	-15.7
868.412	39.59
868.585	8.87
868.759	17.07
868.932	51.88
869.105	0.68
869.279	47.79
869.452	33.45
869.625	15.02
869.799	41.64
869.972	31.4
870.145	-11.61
870.319	15.02
870.492	21.16
870.665	53.93
870.838	-42.32
871.011	62.12
871.185	49.83
871.358	49.83
871.531	15.02
871.704	15.02
871.877	23.21
872.05	-40.28
872.223	-3.41
872.396	72.36
872.569	62.12
872.742	23.21
872.915	41.64
873.088	37.55
873.261	-11.61
873.434	-25.94
873.607	-25.94
873.78	82.6
873.953	37.55
874.126	21.16
874.299	17.07
874.471	33.45
874.644	47.79
874.817	-11.61
874.99	12.97
875.163	15.02
875.335	31.4
875.508	55.98
875.681	70.31
875.853	72.36
876.026	-3.41
876.199	27.31
876.371	-9.56
876.544	39.59
876.717	29.35
876.889	19.11
877.062	41.64
877.234	-21.85
877.407	39.59
877.579	8.87
877.752	12.97
877.924	66.22
878.097	6.83
878.269	17.07
878.442	-25.94
878.614	-11.61
878.786	17.07
878.959	-77.14
879.131	-52.56
879.303	21.16
879.476	60.07
879.648	0.68
879.82	21.16
879.993	64.17
880.165	-44.37
880.337	-3.41
880.509	-30.04
880.681	-75.09
880.854	19.11
881.026	17.07
881.198	60.07
881.37	-46.42
881.542	12.97
881.714	-38.23
881.886	-27.99
882.058	-42.32
882.23	53.93
882.402	-13.65
882.574	15.02
882.746	-17.75
882.918	33.45
883.09	-7.51
883.262	-36.18
883.434	-9.56
883.606	-3.41
883.778	-25.94
883.95	39.59
884.122	-36.18
884.293	66.22
884.465	72.36
884.637	-3.41
884.809	21.16
884.98	33.45
885.152	21.16
885.324	-66.9
885.496	-7.51
885.667	33.45
885.839	-32.08
886.011	2.73
886.182	37.55
886.354	37.55
886.525	39.59
886.697	-54.61
886.869	-27.99
887.04	0.68
887.212	74.41
887.383	68.27
887.555	-1.37
887.726	41.64
887.897	-25.94
888.069	-52.56
888.24	-9.56
888.412	21.16
888.583	-30.04
888.754	47.79
888.926	-71
889.097	-58.71
889.268	-23.89
889.44	-32.08
889.611	15.02
889.782	-30.04
889.953	-62.8
890.125	29.35
890.296	25.26
890.467	19.11
890.638	-19.8
890.809	-5.46
890.98	-25.94
891.151	72.36
891.323	29.35
891.494	72.36
891.665	55.98
891.836	-17.75
892.007	47.79
892.178	78.51
892.349	39.59
892.52	-50.52
892.691	2.73
892.862	47.79
893.032	-11.61
893.203	-42.32
893.374	-30.04
893.545	6.83
893.716	-64.85
893.887	78.51
894.057	2.73
894.228	12.97
894.399	-11.61
894.57	58.03
894.74	19.11
894.911	33.45
895.082	19.11
895.253	-19.8
895.423	-19.8
895.594	21.16
895.764	8.87
895.935	-3.41
896.106	-21.85
896.276	23.21
896.447	17.07
896.617	-23.89
896.788	-3.41
896.958	12.97
897.129	37.55
897.299	-1.37
897.47	-27.99
897.64	58.03
897.81	-25.94
897.981	47.79
898.151	55.98
898.322	12.97
898.492	-38.23
898.662	21.16
898.832	-23.89
899.003	94.89
899.173	-66.9
899.343	-19.8
899.513	8.87
