Data from USB4F104151__8__13-10-21-067.txt Node

Date: Fri Mar 14 13:10:21 EDT 2025
User: louis
Spectrometer: USB4F10415
Trigger mode: 4
Integration Time (sec): 2.000000E-2
Scans to average: 1
Electric dark correction enabled: true
Nonlinearity correction enabled: false
Boxcar width: 0
XAxis mode: Wavelengths
Number of Pixels in Spectrum: 3648
>>>>>Begin Spectral Data<<<<<
178.204	-115.54
178.424	-115.54
178.644	-115.54
178.864	-142.16
179.084	-56.15
179.304	58.54
179.524	50.35
179.744	-21.33
179.964	-11.09
180.184	-68.44
180.404	7.34
180.624	15.53
180.844	17.58
181.064	3.24
181.283	40.11
181.503	-62.29
181.723	-29.52
181.943	1.19
182.163	13.48
182.383	9.39
182.602	-21.33
182.822	-23.38
183.042	38.06
183.262	-70.48
183.482	-41.81
183.701	-17.24
183.921	-2.9
184.141	-52.05
184.361	-47.96
184.58	44.2
184.8	70.83
185.02	5.29
185.239	21.67
185.459	27.82
185.679	50.35
185.898	-45.91
186.118	48.3
186.338	-35.67
186.557	1.19
186.777	13.48
186.997	-41.81
187.216	-80.72
187.436	70.83
187.655	31.91
187.875	-2.9
188.095	-19.29
188.314	72.87
188.534	130.22
188.753	-11.09
188.973	-17.24
189.192	81.07
189.412	-17.24
189.631	-29.52
189.851	62.63
190.07	-19.29
190.29	-37.72
190.509	5.29
190.729	3.24
190.948	-7
191.168	83.11
191.387	38.06
191.607	-23.38
191.826	50.35
192.045	1.19
192.265	46.25
192.484	38.06
192.704	76.97
192.923	27.82
193.142	79.02
193.362	9.39
193.581	99.5
193.8	44.2
194.02	95.4
194.239	17.58
194.458	72.87
194.678	62.63
194.897	-0.85
195.116	-68.44
195.335	44.2
195.555	-2.9
195.774	5.29
195.993	44.2
196.212	48.3
196.432	23.72
196.651	46.25
196.87	27.82
197.089	48.3
197.308	17.58
197.528	46.25
197.747	21.67
197.966	29.87
198.185	23.72
198.404	-27.48
198.623	83.11
198.842	89.26
199.062	97.45
199.281	70.83
199.5	54.44
199.719	58.54
199.938	-9.05
200.157	13.48
200.376	13.48
200.595	70.83
200.814	3.24
201.033	38.06
201.252	62.63
201.471	-43.86
201.69	83.11
201.909	105.64
202.128	58.54
202.347	7.34
202.566	5.29
202.785	33.96
203.004	-15.19
203.223	40.11
203.442	31.91
203.661	31.91
203.879	-2.9
204.098	38.06
204.317	60.59
204.536	40.11
204.755	-31.57
204.974	7.34
205.193	54.44
205.411	74.92
205.63	-13.14
205.849	52.39
206.068	54.44
206.287	-45.91
206.505	48.3
206.724	58.54
206.943	60.59
207.162	5.29
207.381	42.15
207.599	5.29
207.818	-50
208.037	-11.09
208.255	-11.09
208.474	29.87
208.693	54.44
208.911	-13.14
209.13	66.73
209.349	87.21
209.567	1.19
209.786	23.72
210.005	62.63
210.223	70.83
210.442	-25.43
210.661	-23.38
210.879	42.15
211.098	-25.43
211.316	-2.9
211.535	31.91
211.753	-15.19
211.972	29.87
212.191	25.77
212.409	-27.48
212.628	74.92
212.846	-31.57
213.065	40.11
213.283	70.83
213.502	-0.85
213.72	29.87
213.938	56.49
214.157	9.39
214.375	64.68
214.594	17.58
214.812	87.21
215.031	23.72
215.249	-17.24
215.467	31.91
215.686	91.31
215.904	31.91
216.122	-23.38
216.341	38.06
216.559	70.83
216.778	27.82
216.996	9.39
217.214	-76.63
217.432	36.01
217.651	19.63
217.869	89.26
218.087	21.67
218.306	-35.67
218.524	-4.95
218.742	52.39
218.96	-13.14
219.179	44.2
219.397	-17.24
219.615	138.41
219.833	91.31
220.051	54.44
220.27	27.82
220.488	91.31
220.706	42.15
220.924	-31.57
221.142	58.54
221.36	66.73
221.578	-0.85
221.796	-76.63
222.015	-11.09
222.233	17.58
222.451	81.07
222.669	21.67
222.887	19.63
223.105	9.39
223.323	-41.81
223.541	31.91
223.759	72.87
223.977	-13.14
224.195	38.06
224.413	58.54
224.631	38.06
224.849	-41.81
225.067	91.31
225.285	-37.72
225.503	-21.33
225.721	21.67
225.939	46.25
226.157	-31.57
226.375	58.54
226.592	60.59
226.81	-11.09
227.028	40.11
227.246	31.91
227.464	-11.09
227.682	48.3
227.9	89.26
228.117	29.87
228.335	23.72
228.553	-4.95
228.771	15.53
228.989	-2.9
229.206	29.87
229.424	52.39
229.642	27.82
229.86	7.34
230.077	56.49
230.295	-19.29
230.513	15.53
230.731	17.58
230.948	5.29
231.166	48.3
231.384	62.63
231.601	58.54
231.819	50.35
232.037	-11.09
232.254	23.72
232.472	38.06
232.689	17.58
232.907	58.54
233.125	17.58
233.342	-7
233.56	-4.95
233.777	15.53
233.995	76.97
234.213	138.41
234.43	-33.62
234.648	122.02
234.865	21.67
235.083	81.07
235.3	38.06
235.518	72.87
235.735	5.29
235.953	33.96
236.17	-29.52
236.388	9.39
236.605	1.19
236.822	9.39
237.04	87.21
237.257	-9.05
237.475	44.2
237.692	46.25
237.909	9.39
238.127	79.02
238.344	56.49
238.562	-7
238.779	-19.29
238.996	54.44
239.214	1.19
239.431	50.35
239.648	-33.62
239.865	46.25
240.083	-4.95
240.3	-0.85
240.517	5.29
240.735	-4.95
240.952	60.59
241.169	23.72
241.386	7.34
241.603	21.67
241.821	-2.9
242.038	79.02
242.255	-2.9
242.472	-35.67
242.689	64.68
242.907	7.34
243.124	17.58
243.341	83.11
243.558	-31.57
243.775	48.3
243.992	44.2
244.209	54.44
244.426	62.63
244.643	29.87
244.86	-4.95
245.078	42.15
245.295	17.58
245.512	-37.72
245.729	-43.86
245.946	54.44
246.163	-7
246.38	58.54
246.597	54.44
246.814	81.07
247.031	44.2
247.248	21.67
247.464	27.82
247.681	-19.29
247.898	21.67
248.115	29.87
248.332	56.49
248.549	85.16
248.766	13.48
248.983	95.4
249.2	68.78
249.417	-25.43
249.633	3.24
249.85	36.01
250.067	5.29
250.284	87.21
250.501	64.68
250.717	56.49
250.934	56.49
251.151	50.35
251.368	-0.85
251.585	17.58
251.801	48.3
252.018	15.53
252.235	107.69
252.451	-35.67
252.668	-33.62
252.885	50.35
253.102	25.77
253.318	-2.9
253.535	54.44
253.752	83.11
253.968	107.69
254.185	-58.2
254.401	27.82
254.618	81.07
254.835	70.83
255.051	9.39
255.268	44.2
255.484	9.39
255.701	25.77
255.917	23.72
256.134	-11.09
256.351	-2.9
256.567	-25.43
256.784	27.82
257	15.53
257.217	29.87
257.433	79.02
257.65	54.44
257.866	107.69
258.082	23.72
258.299	23.72
258.515	56.49
258.732	1.19
258.948	-15.19
259.165	76.97
259.381	-33.62
259.597	97.45
259.814	38.06
260.03	-35.67
260.246	15.53
260.463	79.02
260.679	13.48
260.895	87.21
261.112	15.53
261.328	25.77
261.544	-2.9
261.761	64.68
261.977	54.44
262.193	-37.72
262.409	13.48
262.626	7.34
262.842	-31.57
263.058	-35.67
263.274	5.29
263.49	83.11
263.707	48.3
263.923	-9.05
264.139	31.91
264.355	13.48
264.571	21.67
264.787	97.45
265.004	87.21
265.22	46.25
265.436	76.97
265.652	38.06
265.868	29.87
266.084	13.48
266.3	62.63
266.516	23.72
266.732	97.45
266.948	-39.76
267.164	15.53
267.38	1.19
267.596	17.58
267.812	48.3
268.028	81.07
268.244	-43.86
268.46	-9.05
268.676	40.11
268.892	-23.38
269.108	33.96
269.324	-4.95
269.54	-11.09
269.756	-0.85
269.972	9.39
270.188	64.68
270.403	13.48
270.619	-88.92
270.835	52.39
271.051	-7
271.267	83.11
271.483	50.35
271.698	36.01
271.914	21.67
272.13	40.11
272.346	40.11
272.562	-2.9
272.777	52.39
272.993	29.87
273.209	-0.85
273.425	99.5
273.64	33.96
273.856	9.39
274.072	50.35
274.287	11.43
274.503	27.82
274.719	42.15
274.934	7.34
275.15	-31.57
275.366	31.91
275.581	1.19
275.797	54.44
276.012	42.15
276.228	21.67
276.444	17.58
276.659	83.11
276.875	-70.48
277.09	25.77
277.306	33.96
277.521	-21.33
277.737	21.67
277.952	81.07
278.168	-13.14
278.383	-0.85
278.599	44.2
278.814	58.54
279.03	44.2
279.245	-15.19
279.461	58.54
279.676	-0.85
279.892	95.4
280.107	58.54
280.322	-21.33
280.538	-11.09
280.753	-21.33
280.969	83.11
281.184	17.58
281.399	83.11
281.615	-25.43
281.83	58.54
282.045	7.34
282.26	40.11
282.476	15.53
282.691	70.83
282.906	-19.29
283.122	9.39
283.337	13.48
283.552	85.16
283.767	83.11
283.983	31.91
284.198	5.29
284.413	132.26
284.628	-4.95
284.843	95.4
285.058	54.44
285.274	36.01
285.489	-19.29
285.704	31.91
285.919	83.11
286.134	25.77
286.349	31.91
286.564	15.53
286.779	60.59
286.995	1.19
287.21	9.39
287.425	42.15
287.64	52.39
287.855	15.53
288.07	36.01
288.285	38.06
288.5	50.35
288.715	60.59
288.93	54.44
289.145	62.63
289.36	111.78
289.575	13.48
289.79	66.73
290.004	29.87
290.219	70.83
290.434	-31.57
290.649	29.87
290.864	83.11
291.079	9.39
291.294	17.58
291.509	5.29
291.724	11.43
291.938	-29.52
292.153	42.15
292.368	122.02
292.583	11.43
292.798	50.35
293.012	29.87
293.227	62.63
293.442	-25.43
293.657	40.11
293.871	23.72
294.086	21.67
294.301	87.21
294.516	11.43
294.73	64.68
294.945	-62.29
295.16	-11.09
295.374	38.06
295.589	46.25
295.804	17.58
296.018	89.26
296.233	79.02
296.447	119.98
296.662	-33.62
296.877	-19.29
297.091	13.48
297.306	-9.05
297.52	21.67
297.735	33.96
297.949	13.48
298.164	27.82
298.378	5.29
298.593	70.83
298.807	44.2
299.022	15.53
299.236	64.68
299.451	33.96
299.665	-0.85
299.88	79.02
300.094	-4.95
300.309	64.68
300.523	25.77
300.737	3.24
300.952	52.39
301.166	13.48
301.381	29.87
301.595	56.49
301.809	-2.9
302.024	31.91
302.238	15.53
302.452	36.01
302.667	-2.9
302.881	99.5
303.095	119.98
303.309	122.02
303.524	-41.81
303.738	21.67
303.952	27.82
304.166	58.54
304.381	-29.52
304.595	29.87
304.809	50.35
305.023	17.58
305.237	-31.57
305.452	60.59
305.666	-15.19
305.88	56.49
306.094	87.21
306.308	62.63
306.522	13.48
306.736	1.19
306.95	23.72
307.164	58.54
307.379	68.78
307.593	56.49
307.807	17.58
308.021	54.44
308.235	85.16
308.449	42.15
308.663	1.19
308.877	7.34
309.091	52.39
309.305	31.91
309.519	-54.1
309.733	115.88
309.947	-11.09
310.161	40.11
310.374	58.54
310.588	33.96
310.802	-17.24
311.016	54.44
311.23	5.29
311.444	-31.57
311.658	21.67
311.872	76.97
312.085	42.15
312.299	66.73
312.513	40.11
312.727	17.58
312.941	-11.09
313.154	-2.9
313.368	72.87
313.582	-19.29
313.796	-9.05
314.009	5.29
314.223	85.16
314.437	113.83
314.651	58.54
314.864	101.55
315.078	-0.85
315.292	40.11
315.505	38.06
315.719	79.02
315.933	-47.96
316.146	-11.09
316.36	-33.62
316.573	124.07
316.787	-4.95
317.001	56.49
317.214	11.43
317.428	60.59
317.641	23.72
317.855	62.63
318.068	54.44
318.282	130.22
318.495	87.21
318.709	83.11
318.922	27.82
319.136	74.92
319.349	29.87
319.563	17.58
319.776	64.68
319.99	-31.57
320.203	111.78
320.417	13.48
320.63	60.59
320.843	74.92
321.057	23.72
321.27	85.16
321.483	68.78
321.697	48.3
321.91	21.67
322.124	-27.48
322.337	46.25
322.55	-15.19
322.763	56.49
322.977	40.11
323.19	-29.52
323.403	-2.9
323.617	1.19
323.83	85.16
324.043	54.44
324.256	87.21
324.469	-54.1
324.683	9.39
324.896	11.43
325.109	44.2
325.322	-11.09
325.535	33.96
325.748	85.16
325.962	62.63
326.175	-2.9
326.388	58.54
326.601	-35.67
326.814	36.01
327.027	83.11
327.24	62.63
327.453	48.3
327.666	27.82
327.879	83.11
328.092	72.87
328.305	81.07
328.518	-60.24
328.731	56.49
328.944	-11.09
329.157	11.43
329.37	33.96
329.583	81.07
329.796	70.83
330.009	56.49
330.222	72.87
330.435	13.48
330.648	97.45
330.861	64.68
331.073	54.44
331.286	27.82
331.499	-23.38
331.712	56.49
331.925	40.11
332.138	70.83
332.35	89.26
332.563	-0.85
332.776	97.45
332.989	54.44
333.202	107.69
333.414	27.82
333.627	48.3
333.84	-9.05
334.053	70.83
334.265	-2.9
334.478	79.02
334.691	-29.52
334.903	1.19
335.116	-60.24
335.329	91.31
335.541	29.87
335.754	38.06
335.966	72.87
336.179	23.72
336.392	-33.62
336.604	42.15
336.817	-25.43
337.029	-31.57
337.242	70.83
337.454	11.43
337.667	62.63
337.88	95.4
338.092	50.35
338.305	70.83
338.517	-0.85
338.729	113.83
338.942	68.78
339.154	48.3
339.367	25.77
339.579	87.21
339.792	7.34
340.004	128.17
340.217	-13.14
340.429	58.54
340.641	83.11
340.854	40.11
341.066	-23.38
341.278	64.68
341.491	36.01
341.703	-23.38
341.915	7.34
342.128	42.15
342.34	70.83
342.552	27.82
342.764	17.58
342.977	-11.09
343.189	31.91
343.401	42.15
343.613	-11.09
343.826	113.83
344.038	27.82
344.25	25.77
344.462	21.67
344.674	68.78
344.886	15.53
345.099	87.21
345.311	33.96
345.523	23.72
345.735	-4.95
345.947	42.15
346.159	-25.43
346.371	105.64
346.583	-0.85
346.795	44.2
347.007	21.67
347.219	15.53
347.431	15.53
347.643	42.15
347.855	5.29
348.067	60.59
348.279	7.34
348.491	38.06
348.703	29.87
348.915	52.39
349.127	-21.33
349.339	56.49
349.551	13.48
349.763	85.16
349.975	19.63
350.187	122.02
350.399	79.02
350.61	64.68
350.822	68.78
351.034	144.55
351.246	-4.95
351.458	83.11
351.669	46.25
351.881	19.63
352.093	19.63
352.305	79.02
352.517	115.88
352.728	62.63
352.94	36.01
353.152	70.83
353.363	-2.9
353.575	42.15
353.787	91.31
353.999	15.53
354.21	21.67
354.422	23.72
354.633	5.29
354.845	33.96
355.057	40.11
355.268	111.78
355.48	105.64
355.692	74.92
355.903	-0.85
356.115	40.11
356.326	-72.53
356.538	72.87
356.749	48.3
356.961	7.34
357.172	13.48
357.384	33.96
357.595	134.31
357.807	76.97
358.018	27.82
358.23	105.64
358.441	42.15
358.653	103.59
358.864	5.29
359.075	23.72
359.287	109.74
359.498	54.44
359.709	79.02
359.921	54.44
360.132	64.68
360.344	87.21
360.555	58.54
360.766	17.58
360.977	11.43
361.189	138.41
361.4	1.19
361.611	74.92
361.823	81.07
362.034	66.73
362.245	-17.24
362.456	72.87
362.667	15.53
362.879	62.63
363.09	74.92
363.301	79.02
363.512	64.68
363.723	62.63
363.935	38.06
364.146	66.73
364.357	68.78
364.568	33.96
364.779	-11.09
364.99	81.07
365.201	25.77
365.412	25.77
365.623	33.96
365.834	107.69
366.045	54.44
366.256	83.11
366.467	46.25
366.678	-17.24
366.889	31.91
367.1	42.15
367.311	54.44
367.522	74.92
367.733	97.45
367.944	50.35
368.155	52.39
368.366	111.78
368.577	38.06
368.788	21.67
368.999	48.3
369.209	66.73
369.42	162.98
369.631	111.78
369.842	64.68
370.053	-19.29
370.264	54.44
370.474	31.91
370.685	79.02
370.896	44.2
371.107	72.87
371.317	66.73
371.528	33.96
371.739	83.11
371.95	-41.81
372.16	122.02
372.371	25.77
372.582	74.92
372.792	117.93
373.003	-11.09
373.214	76.97
373.424	15.53
373.635	48.3
373.846	74.92
374.056	-23.38
374.267	48.3
374.477	-9.05
374.688	36.01
374.898	64.68
375.109	103.59
375.319	15.53
375.53	128.17
375.74	81.07
375.951	9.39
376.161	128.17
376.372	91.31
376.582	40.11
376.793	70.83
377.003	36.01
377.214	46.25
377.424	89.26
377.635	13.48
377.845	97.45
378.055	85.16
378.266	62.63
378.476	70.83
378.686	-27.48
378.897	79.02
379.107	38.06
379.317	138.41
379.528	46.25
379.738	40.11
379.948	97.45
380.158	76.97
380.369	19.63
380.579	85.16
380.789	40.11
380.999	-13.14
381.21	17.58
381.42	70.83
381.63	-50
381.84	25.77
382.05	7.34
382.261	91.31
382.471	95.4
382.681	68.78
382.891	74.92
383.101	64.68
383.311	44.2
383.521	29.87
383.731	79.02
383.941	134.31
384.151	50.35
384.361	54.44
384.571	87.21
384.781	70.83
384.991	128.17
385.201	99.5
385.411	-11.09
385.621	56.49
385.831	7.34
386.041	21.67
386.251	87.21
386.461	70.83
386.671	62.63
386.881	79.02
387.091	46.25
387.301	130.22
387.511	52.39
387.72	56.49
387.93	1.19
388.14	42.15
388.35	56.49
388.56	93.35
388.769	95.4
388.979	62.63
389.189	95.4
389.399	-23.38
389.609	58.54
389.818	122.02
390.028	62.63
390.238	87.21
390.447	85.16
390.657	13.48
390.867	54.44
391.076	29.87
391.286	70.83
391.496	9.39
391.705	25.77
391.915	128.17
392.125	76.97
392.334	15.53
392.544	3.24
392.753	21.67
392.963	48.3
393.172	42.15
393.382	-7
393.591	126.12
393.801	109.74
394.01	70.83
394.22	122.02
394.429	50.35
394.639	165.03
394.848	150.7
395.058	21.67
395.267	76.97
395.477	111.78
395.686	152.74
395.895	48.3
396.105	128.17
396.314	228.52
396.524	85.16
396.733	124.07
396.942	48.3
397.152	167.08
397.361	113.83
397.57	54.44
397.78	136.36
397.989	31.91
398.198	115.88
398.407	136.36
398.617	126.12
398.826	99.5
399.035	128.17
399.244	154.79
399.453	115.88
399.663	154.79
399.872	160.94
400.081	156.84
400.29	117.93
400.499	109.74
400.708	148.65
400.917	25.77
401.127	124.07
401.336	89.26
401.545	134.31
401.754	154.79
401.963	81.07
402.172	138.41
402.381	111.78
402.59	89.26
402.799	128.17
403.008	201.9
403.217	130.22
403.426	99.5
403.635	70.83
403.844	140.46
404.053	103.59
404.262	150.7
404.471	210.09
404.68	111.78
404.888	187.56
405.097	130.22
405.306	218.28
405.515	111.78
405.724	167.08
405.933	189.61
406.142	165.03
406.35	203.94
406.559	242.85
406.768	269.48
406.977	177.32
407.185	201.9
407.394	187.56
407.603	158.89
407.812	203.94
408.02	316.58
408.229	251.05
408.438	267.43
408.646	175.27
408.855	267.43
409.064	316.58
409.272	236.71
409.481	375.97
409.69	242.85
409.898	230.57
410.107	226.47
410.315	267.43
410.524	392.36
410.733	443.56
410.941	410.79
411.15	373.92
411.358	359.59
411.567	396.45
411.775	390.31
411.984	439.46
412.192	541.86
412.401	482.47
412.609	437.41
412.818	513.19
413.026	552.1
413.234	531.62
413.443	529.57
413.651	570.53
413.86	570.53
414.068	545.95
414.276	611.49
414.485	558.24
414.693	654.5
414.901	648.35
415.11	705.7
415.318	720.03
415.526	806.05
415.734	779.42
415.943	777.37
416.151	873.63
416.359	873.63
416.567	867.49
416.776	851.1
416.984	947.36
417.192	1047.71
417.4	1137.82
417.608	988.32
417.817	1096.86
418.025	1135.77
418.233	1205.4
418.441	1184.92
418.649	1221.78
418.857	1256.6
419.065	1303.7
419.273	1334.42
419.481	1397.91
419.689	1457.3
419.897	1537.17
420.105	1635.47
420.313	1528.98
420.521	1631.38
420.729	1754.26
420.937	1748.11
421.145	1846.41
421.353	1891.47
421.561	2016.4
421.769	2006.16
421.977	2196.62
422.185	2106.51
422.393	2241.67
422.601	2432.13
422.809	2309.26
423.017	2301.06
423.224	2350.21
423.432	2581.64
423.64	2573.44
423.848	2831.49
424.056	2727.04
424.263	2933.89
424.471	2858.11
424.679	2980.99
424.887	3275.9
425.094	3206.27
425.302	3306.62
425.51	3458.17
425.718	3546.23
425.925	3480.69
426.133	3570.8
426.341	3808.37
426.548	4138.09
426.756	3968.11
426.964	4185.19
427.171	4324.46
427.379	4482.15
427.586	4506.73
427.794	4815.97
428.001	4928.61
428.209	4912.22
428.417	4916.32
428.624	5506.13
428.832	5346.39
429.039	5340.25
429.247	5383.26
429.454	5782.61
429.662	5997.65
429.869	5801.04
430.076	6198.35
430.284	6179.92
430.491	6306.89
430.699	6730.82
430.906	6808.64
431.114	6921.28
431.321	7081.02
431.528	7359.55
431.736	7836.72
431.943	7967.79
432.15	7838.77
432.358	7982.13
432.565	8393.77
432.772	8264.75
432.979	8617
433.187	8838.18
433.394	8877.09
433.601	9491.48
433.808	9548.82
434.016	9499.67
434.223	9985.04
434.43	10486.79
434.637	10415.12
434.844	10785.8
435.052	11299.84
435.259	10935.3
435.466	11117.57
435.673	11179.01
435.88	11801.59
436.087	12428.27
436.294	12497.9
436.501	12311.53
436.708	12622.83
436.915	12956.64
437.122	13237.22
437.329	13351.9
437.537	13575.13
437.743	14062.55
437.95	13980.63
438.157	14566.35
438.364	15324.1
438.571	15117.25
438.778	15170.5
438.985	16542.64
439.192	16079.8
439.399	16286.64
439.606	16110.52
439.813	17056.68
440.02	18232.21
440.227	17599.39
440.433	17294.24
440.64	18158.49
440.847	18379.67
441.054	18467.73
441.261	19811.2
441.467	19598.21
441.674	19966.84
441.881	20597.62
442.088	20532.08
442.294	20403.06
442.501	20855.66
442.708	21472.1
442.914	22262.61
443.121	23116.62
443.328	22590.29
443.534	24060.73
443.741	23481.16
443.948	22860.62
444.154	24752.94
444.361	24404.79
444.568	24972.08
444.774	24703.79
444.981	25168.68
445.187	26260.25
445.394	26895.12
445.6	26845.97
445.807	29135.6
446.013	27982.59
446.22	28709.62
446.426	29532.9
446.633	30022.37
446.839	30837.46
447.046	29809.38
447.252	31245.01
447.459	31386.32
447.665	31269.58
447.871	32477.88
448.078	34294.43
448.284	32254.65
448.491	33110.71
448.697	34749.08
448.903	35082.9
449.11	35367.57
449.316	34874.01
449.522	35799.69
449.728	36647.55
449.935	36870.78
450.141	36928.12
450.347	37487.21
450.553	36168.32
450.76	36803.19
450.966	37892.71
451.172	37761.64
451.378	38726.24
451.584	38105.7
451.791	38931.03
451.997	38769.24
452.203	39494.22
452.409	39299.67
452.615	39600.72
452.821	38085.22
453.027	37724.78
453.233	39494.22
453.44	38259.3
453.646	38382.18
453.852	38605.41
454.058	39305.81
454.264	37773.93
454.47	39385.68
454.676	37689.96
454.882	39455.31
455.088	36037.25
455.294	36457.09
455.5	36981.37
455.705	37440.11
455.911	35949.19
456.117	35832.46
456.323	34886.29
456.529	33192.62
456.735	34669.21
456.941	33508.01
457.147	33591.98
457.352	32324.29
457.558	31992.51
457.764	32129.73
457.97	31654.6
458.176	30642.9
458.381	31066.83
458.587	29342.44
458.793	29221.61
458.999	27532.04
459.204	29700.84
459.41	28943.09
459.616	27024.14
459.821	27007.76
460.027	26891.02
460.233	26594.07
460.438	25058.09
460.644	25514.79
460.85	24324.92
461.055	23944
461.261	23817.02
461.466	22053.72
461.672	21468
461.878	22913.87
462.083	21480.29
462.289	20980.59
462.494	20718.45
462.7	19841.92
462.905	19321.73
463.111	20036.47
463.316	20009.85
463.522	19522.43
463.727	19641.21
463.932	19633.02
464.138	19305.35
464.343	19499.91
464.549	19073.93
464.754	19487.62
464.959	19379.07
465.165	19043.21
465.37	18115.48
465.575	18011.03
465.781	18631.57
465.986	18854.79
466.191	18152.34
466.397	17822.62
466.602	16716.72
466.807	17511.33
467.012	17507.23
467.218	17265.57
467.423	17263.52
467.628	17300.39
467.833	18045.85
468.038	17384.35
468.244	16624.56
468.449	17652.64
468.654	16892.84
468.859	16915.37
469.064	16573.36
469.269	16178.1
469.474	16098.23
469.679	16759.72
469.885	16092.09
470.09	16337.84
470.295	16303.03
470.5	15821.75
470.705	15940.54
470.91	15578.04
471.115	15506.37
471.32	15571.9
471.525	15449.02
471.73	15090.63
471.935	15270.85
472.139	14791.62
472.344	14887.88
472.549	14769.1
472.754	14572.49
472.959	14353.36
473.164	13863.9
473.369	13818.84
473.574	14130.13
473.778	13964.25
473.983	13841.37
474.188	14123.99
474.393	13308.9
474.598	13226.98
474.802	13423.58
475.007	13118.43
475.212	12940.26
475.417	12698.6
475.621	12815.34
475.826	12907.49
476.031	12491.76
476.235	12377.07
476.44	12340.21
476.645	12291.06
476.849	12241.9
477.054	12039.15
477.259	11863.03
477.463	11918.32
477.668	11596.79
477.872	11756.54
478.077	11514.87
478.282	11183.1
478.486	11193.34
478.691	11035.65
478.895	11287.55
479.1	10802.18
479.304	11052.03
479.509	10669.06
479.713	10916.87
479.918	10685.45
480.122	10443.79
480.326	10697.74
480.531	10687.5
480.735	10554.38
480.94	10365.96
481.144	10890.24
481.348	10294.29
481.553	10208.27
481.757	10105.87
481.961	10249.23
482.166	10365.96
482.37	10193.94
482.574	10071.06
482.778	10140.69
482.983	10427.4
483.187	10302.48
483.391	10343.44
483.595	10107.92
483.8	10116.11
484.004	10261.52
484.208	10337.29
484.412	10015.76
484.616	10380.3
484.821	10195.98
485.025	10064.91
485.229	10220.56
485.433	10286.09
485.637	10015.76
485.841	9997.33
486.045	9968.66
486.249	10249.23
486.453	10075.15
486.657	10198.03
486.861	10574.86
487.065	9796.63
487.269	10146.83
487.473	9847.83
487.677	10204.17
487.881	10349.58
488.085	9991.19
488.289	10042.39
488.493	9999.38
488.697	10191.89
488.901	10316.81
489.105	10202.13
489.309	10273.81
489.512	10171.41
489.716	10509.32
489.92	10374.16
490.124	10251.28
490.328	10509.32
490.531	10402.83
490.735	10363.92
490.939	10531.85
491.143	10458.12
491.346	10527.75
491.55	10640.39
491.754	10507.27
491.958	10673.16
492.161	10830.85
492.365	10886.15
492.569	10703.88
492.772	10750.98
492.976	10703.88
493.18	10953.73
493.383	11029.51
493.587	11191.3
493.79	11367.42
493.994	10933.25
494.197	11070.47
494.401	11369.47
494.605	11138.05
494.808	11164.67
495.012	11570.17
495.215	11529.21
495.419	11725.82
495.622	11564.03
495.825	11944.95
496.029	11779.06
496.232	11883.51
496.436	12129.27
496.639	12377.07
496.843	12284.91
497.046	12327.92
497.249	12659.69
497.453	12489.71
497.656	12882.92
497.859	12741.61
498.063	13028.32
498.266	13224.93
498.469	13134.82
498.673	13347.81
498.876	13470.69
499.079	13628.38
499.282	13638.62
499.485	13915.09
499.689	13931.48
499.892	14095.32
500.095	14050.26
500.298	14494.67
500.501	14267.34
500.705	14971.85
500.908	14959.56
501.111	14963.65
501.314	15264.71
501.517	15453.12
501.72	15492.03
501.923	15619
502.126	16133.04
502.329	16329.65
502.532	16196.53
502.735	16376.75
502.938	16651.18
503.141	16841.64
503.344	17171.36
503.547	16860.07
503.75	17318.82
503.953	17726.36
504.156	17709.98
504.359	17892.25
504.562	18076.57
504.765	18277.27
504.968	18410.39
505.17	18666.38
505.373	18699.15
505.576	18887.56
505.779	19436.42
505.982	19446.66
506.185	19692.41
506.387	19944.31
506.59	19985.27
506.793	20536.18
506.996	20319.09
507.198	20611.95
507.401	20695.92
507.604	21054.31
507.807	21513.06
508.009	21617.5
508.212	21511.01
508.415	22033.24
508.617	22131.54
508.82	22143.83
509.022	22041.43
509.225	23016.27
509.428	23210.82
509.63	23102.28
509.833	23376.71
510.035	23903.04
510.238	23528.26
510.44	24150.84
510.643	24351.54
510.845	24560.44
511.048	24410.93
511.25	24832.82
511.453	24814.38
511.655	25895.71
511.858	25731.87
512.06	25760.55
512.262	25932.57
512.465	25991.97
512.667	26608.4
512.87	26860.3
513.072	26727.19
513.274	27327.24
513.477	27620.1
513.679	28058.37
513.881	28136.19
514.084	28633.85
514.286	28513.02
514.488	28629.75
514.69	29360.87
514.893	29700.84
515.095	29913.83
515.297	29836
515.499	30114.53
515.701	30311.13
515.904	30935.76
516.106	30931.67
516.308	31275.73
516.51	31666.89
516.712	31486.67
516.914	31900.36
517.116	32457.4
517.318	32539.32
517.52	33061.55
517.722	32840.37
517.925	33458.86
518.127	33768.1
518.329	33929.89
518.531	33882.79
518.733	34402.97
518.935	34790.04
519.136	34822.81
519.338	35521.16
519.54	35611.28
519.742	35717.77
519.944	35877.51
520.146	36637.31
520.348	36997.75
520.55	36770.43
520.752	36608.64
520.954	37606
521.155	37280.37
521.357	37692.01
521.559	37991.01
521.761	38707.8
521.963	38603.36
522.164	38826.59
522.366	39066.2
522.568	39080.53
522.77	39615.05
522.971	40247.88
523.173	39995.98
523.375	40520.26
523.576	40319.56
523.778	39928.39
523.98	40968.76
524.181	41335.35
524.383	41275.96
524.584	41876.01
524.786	41855.53
524.988	41476.66
525.189	41820.72
525.391	42099.24
525.592	42631.71
525.794	42437.16
525.995	42967.58
526.197	42373.67
526.398	42523.17
526.6	43143.7
526.801	43117.08
527.003	43577.87
527.204	43373.08
527.406	44173.83
527.607	43840.01
527.808	44618.24
528.01	43729.42
528.211	44130.83
528.412	45281.78
528.614	44532.23
528.815	45230.58
529.016	45040.12
529.218	44583.43
529.419	45099.51
529.62	44900.86
529.822	44861.95
530.023	45511.16
530.224	45144.57
530.425	44780.03
530.626	44722.69
530.828	44882.43
531.029	45949.42
531.23	45109.75
531.431	45609.46
531.632	45603.31
531.833	45801.97
532.035	45705.71
532.236	45797.87
532.437	46094.83
532.638	46064.11
532.839	46072.3
533.04	46152.17
533.241	45779.44
533.442	46719.46
533.643	45867.5
533.844	45713.91
534.045	46227.95
534.246	46229.99
534.447	46766.56
534.648	45758.96
534.849	46426.6
535.05	46234.09
535.251	46445.03
535.451	46027.24
535.652	46596.58
535.853	45986.28
536.054	46680.55
536.255	46166.51
536.456	45879.79
536.657	46850.53
536.857	46252.52
537.058	46143.98
537.259	46688.74
537.46	46496.23
537.66	46363.11
537.861	46299.62
538.062	46549.48
538.263	46572
538.463	46182.89
538.664	46268.9
538.865	46258.66
539.065	46621.16
539.266	46313.96
539.466	46995.93
539.667	45838.83
539.868	46658.02
540.068	46031.34
540.269	45949.42
540.469	46647.78
540.67	45861.36
540.87	45900.27
541.071	46612.96
541.271	46270.95
541.472	46051.82
541.672	46047.72
541.873	45808.11
542.073	45423.09
542.274	46463.46
542.474	46012.91
542.675	46225.9
542.875	46762.47
543.075	46002.67
543.276	45787.63
543.476	45967.85
543.676	45679.09
543.877	46244.33
544.077	45593.07
544.277	46033.39
544.478	46318.06
544.678	46103.02
544.878	46084.59
545.078	46012.91
545.279	45607.41
545.479	45787.63
545.679	46166.51
545.879	45922.8
546.079	45814.26
546.28	45961.71
546.48	45521.4
546.68	46051.82
546.88	45781.49
547.08	45699.57
547.28	45459.96
547.48	45695.47
547.68	45887.98
547.88	45666.8
548.081	45902.32
548.281	45775.34
548.481	45728.24
548.681	46135.79
548.881	45763.06
549.081	45806.06
549.28	45709.81
549.48	45912.56
549.68	45490.68
549.88	46154.22
550.08	45388.28
550.28	45814.26
550.48	45797.87
550.68	45945.33
550.88	45326.84
551.08	45910.51
551.279	45519.35
551.479	45588.98
551.679	45636.08
551.879	45683.19
552.079	45787.63
552.278	45199.86
552.478	45822.45
552.678	45631.99
552.878	45695.47
553.077	45732.34
553.277	44835.33
553.477	45609.46
553.676	45330.93
553.876	45400.57
554.076	45287.93
554.275	45314.55
554.475	44841.47
554.674	45396.47
554.874	45144.57
555.074	44997.12
555.273	45308.41
555.473	45539.83
555.672	44716.54
555.872	44982.78
556.071	45044.22
556.271	45371.89
556.47	44847.61
556.67	44595.71
556.869	44788.22
557.068	45062.65
557.268	44526.08
557.467	45031.93
557.667	44427.78
557.866	44890.62
558.065	44976.64
558.265	44141.07
558.464	44104.2
558.663	44796.42
558.863	44290.57
559.062	44636.67
559.261	43958.8
559.461	44481.03
559.66	43850.25
559.859	43911.69
560.058	43792.91
560.258	43825.68
560.457	43205.14
560.656	44038.67
560.855	43592.21
561.054	43948.56
561.253	43452.95
561.453	43414.04
561.652	43541.01
561.851	43725.33
562.05	43264.53
562.249	43319.83
562.448	43455
562.647	43115.03
562.846	42961.44
563.045	43334.17
563.244	43008.54
563.443	43676.18
563.642	42447.39
563.841	42842.65
564.04	42572.32
564.239	43295.25
564.438	42437.16
564.637	42639.9
564.836	42822.17
565.035	42279.46
565.234	42220.07
565.432	41912.88
565.631	42234.41
565.83	42566.18
566.029	41867.82
566.228	41640.5
566.427	41988.65
566.625	42099.24
566.824	41577.01
567.023	41908.78
567.222	41220.66
567.42	41796.14
567.619	41673.26
567.818	41273.91
568.016	41132.6
568.215	41357.88
568.414	41122.36
568.612	41517.62
568.811	41032.25
569.01	41128.5
569.208	40612.41
569.407	40970.81
569.605	40297.03
569.804	40989.24
570.002	40239.68
570.201	40690.24
570.4	40311.36
570.598	40213.06
570.797	40051.27
570.995	39877.19
571.193	39637.58
571.392	39930.44
571.59	39551.57
571.789	39725.64
571.987	39819.85
572.186	39400.02
572.384	39234.13
572.582	39391.83
572.781	39227.99
572.979	38943.32
573.177	39117.4
573.376	38912.6
573.574	38619.74
573.772	38920.79
573.971	38623.84
574.169	38615.65
574.367	38070.89
574.565	38750.81
574.763	38382.18
574.962	37995.11
575.16	38003.3
575.358	38097.51
575.556	37628.52
575.754	38273.63
575.952	37653.1
576.151	38052.45
576.349	37671.53
576.547	37446.26
576.745	37597.8
576.943	37626.48
577.141	37237.36
577.339	37571.18
577.537	37206.64
577.735	37024.37
577.933	36637.31
578.131	36950.65
578.329	36840.06
578.527	36629.12
578.725	36489.85
578.923	36641.4
579.121	36364.93
579.319	36045.44
579.516	36459.13
579.714	36313.73
579.912	36096.64
580.11	36045.44
580.308	36139.65
580.506	35818.12
580.704	35451.53
580.901	35603.08
581.099	35910.28
581.297	35064.47
581.495	35386
581.692	35560.08
581.89	34871.96
582.088	34927.25
582.285	34904.73
582.483	35078.8
582.681	34796.18
582.878	34497.18
583.076	34620.06
583.274	34990.74
583.471	34210.46
583.669	35115.67
583.866	34095.78
584.064	34407.07
584.262	33872.55
584.459	34402.97
584.657	33985.19
584.854	34462.36
585.052	33821.35
585.249	33907.37
585.447	34120.35
585.644	33417.9
585.841	33612.46
586.039	33690.28
586.236	33194.67
586.434	33299.12
586.631	33108.66
586.828	33280.69
587.026	33028.79
587.223	33184.43
587.42	32484.03
587.618	32776.89
587.815	32895.67
588.012	32514.75
588.21	32246.46
588.407	32721.59
588.604	32281.28
588.801	31945.41
588.999	31982.27
589.196	32082.63
589.393	31791.81
589.59	31619.78
589.787	32004.8
589.984	31466.19
590.182	31412.94
590.379	31773.38
590.576	31228.62
590.773	31535.82
590.97	31048.4
591.167	31167.18
591.364	30962.39
591.561	30859.99
591.758	30458.59
591.955	30726.87
592.152	30710.49
592.349	30806.74
592.546	30675.67
592.743	30677.72
592.94	29983.46
593.137	30208.73
593.334	30372.57
593.531	29997.79
593.727	30237.41
593.924	29887.2
594.121	29844.2
594.318	30036.7
594.515	29414.12
594.712	29692.65
594.908	29444.84
595.105	29756.13
595.302	29367.02
595.499	29461.23
595.696	29635.3
595.892	29262.57
596.089	29117.17
596.286	29135.6
596.482	28855.03
596.679	29053.68
596.876	28971.76
597.072	28500.73
597.269	28572.41
597.466	28242.68
597.662	28353.27
597.859	28367.61
598.055	28371.71
598.252	28230.4
598.448	28132.09
598.645	28164.86
598.841	27659.01
599.038	27515.65
599.234	27908.86
599.431	27441.93
599.627	27407.11
599.824	27564.81
600.02	27403.02
600.217	27097.87
600.413	27282.19
600.609	27190.03
600.806	26938.13
601.002	27073.29
601.198	26899.22
601.395	26632.98
601.591	26884.88
601.787	26778.39
601.984	26589.97
602.18	26755.86
602.376	26608.4
602.572	26493.72
602.769	26628.88
602.965	26092.32
603.161	26305.31
603.357	26387.22
603.553	25830.18
603.75	26227.48
603.946	25611.04
604.142	25885.47
604.338	25434.92
604.534	25561.89
604.73	25729.83
604.926	25355.05
605.122	25416.49
605.318	25342.76
605.514	25582.37
605.71	25135.92
605.906	25322.28
606.102	24898.35
606.298	24859.44
606.494	24814.38
606.69	24927.02
606.886	24703.79
607.082	24034.11
607.278	24929.07
607.474	24474.42
607.67	24804.14
607.866	24238.9
608.062	24824.62
608.257	24281.91
608.453	24179.51
608.649	24544.05
608.845	24116.03
609.041	24189.75
609.236	24105.79
609.432	24068.92
609.628	24128.31
609.824	24007.48
610.019	23690.05
610.215	24113.98
610.411	23812.93
610.606	23679.81
610.802	23714.62
610.998	23532.36
611.193	23792.45
611.389	23393.09
611.584	23386.95
611.78	23122.76
611.976	23540.55
612.171	23190.34
612.367	23393.09
612.562	23180.1
612.758	23067.47
612.953	22844.24
613.149	23102.28
613.344	22952.78
613.539	23255.88
613.735	23116.62
613.93	23126.86
614.126	22915.92
614.321	22874.96
614.517	22934.35
614.712	22528.85
614.907	22657.87
615.103	22999.88
615.298	22614.87
615.493	22899.53
615.688	22457.17
615.884	22897.49
616.079	22324.05
616.274	22498.13
616.47	22434.64
616.665	22405.97
616.86	22225.75
617.055	21840.73
617.25	22137.69
617.445	22256.47
617.641	21826.4
617.836	21953.37
618.031	21697.38
618.226	21691.23
618.421	21955.42
618.616	22051.67
618.811	21582.69
619.006	21844.83
619.201	21312.36
619.396	21255.01
619.591	21312.36
619.786	21494.63
619.981	20947.82
620.176	21091.18
620.371	20767.6
620.566	20929.39
620.761	20771.69
620.956	21113.7
621.151	20362.1
621.346	20671.34
621.541	20220.79
621.735	20585.33
621.93	20116.34
622.125	20173.69
622.32	20044.66
622.515	20073.34
622.709	19755.9
622.904	19837.82
623.099	19901.31
623.294	19839.87
623.488	19213.19
623.683	19800.96
623.878	19073.93
624.072	19188.61
624.267	19297.16
624.462	19178.37
624.656	19127.17
624.851	18856.84
625.046	18987.91
625.24	18639.76
625.435	18543.5
625.629	18240.4
625.824	18281.36
626.018	18105.24
626.213	17943.45
626.407	18152.34
626.602	17746.84
626.796	18006.94
626.991	17728.41
627.185	18008.98
627.38	17587.1
627.574	17372.07
627.768	17355.68
627.963	17195.94
628.157	17052.58
628.352	17228.71
628.546	16960.42
628.74	17019.81
628.935	16827.31
629.129	16829.35
629.323	16530.35
629.517	16690.09
629.712	16657.32
629.906	16647.08
630.1	16262.07
630.294	16131
630.489	16231.35
630.683	16126.9
630.877	15625.15
631.071	15860.66
631.265	15838.14
631.459	15547.33
631.653	15758.27
631.848	15870.9
632.042	15434.69
632.236	15496.13
632.43	15444.93
632.624	15152.07
632.818	15113.16
633.012	14914.5
633.206	14941.13
633.4	14934.98
633.594	14660.55
633.788	14889.93
633.982	14898.12
634.176	14633.93
634.369	14808.01
634.563	14832.58
634.757	14488.53
634.951	14267.34
635.145	14289.87
635.339	14324.69
635.533	14236.63
635.726	14080.98
635.92	14003.16
636.114	13935.57
636.308	14052.31
636.501	13646.81
636.695	13784.02
636.889	13843.42
637.083	13370.33
637.276	13474.78
637.47	13626.33
637.664	13480.92
637.857	13362.14
638.051	13282.27
638.244	13138.91
638.438	13040.61
638.632	12844.01
638.825	12786.66
639.019	12895.21
639.212	12714.98
639.406	12850.15
639.599	12780.52
639.793	12598.25
639.986	12456.94
640.18	12403.69
640.373	12489.71
640.567	12174.32
640.76	12264.43
640.954	12157.94
641.147	12094.45
641.34	11994.1
641.534	12227.57
641.727	12262.38
641.92	11875.32
642.114	11979.76
642.307	11779.06
642.5	11764.73
642.694	11521.02
642.887	11637.75
643.08	11557.88
643.273	11529.21
643.467	11371.52
643.66	11369.47
643.853	11193.34
644.046	11217.92
644.239	11228.16
644.432	11031.55
644.626	11011.07
644.819	10931.2
645.012	10994.69
645.205	10951.68
645.398	10896.39
645.591	10810.37
645.784	10853.38
645.977	10523.66
646.17	10474.51
646.363	10417.16
646.556	10232.85
646.749	10339.34
646.942	10454.03
647.135	10273.81
647.328	10415.12
647.521	10343.44
647.714	9886.74
647.907	9896.98
648.099	9802.77
648.292	9896.98
648.485	10099.73
648.678	9790.49
648.871	9628.7
649.064	9755.67
649.256	9755.67
649.449	9577.5
649.642	9663.51
649.835	9473.05
650.027	9636.89
650.22	9479.19
650.413	9524.25
650.605	9440.28
650.798	9270.3
650.991	9184.29
651.183	9303.07
651.376	9153.57
651.568	9194.53
651.761	9200.67
651.954	8948.77
652.146	9024.54
652.339	9045.02
652.531	8916
652.724	8829.99
652.916	8731.69
653.109	8799.27
653.301	8672.29
653.494	8571.94
653.686	8596.52
653.879	8590.38
654.071	8430.63
654.263	8576.04
654.456	8485.93
654.648	8336.43
654.84	8420.39
655.033	8330.28
655.225	8203.31
655.417	8256.56
655.61	8383.53
655.802	8121.39
655.994	8107.05
656.186	8164.4
656.379	8098.86
656.571	7869.49
656.763	7795.76
656.955	7992.37
657.148	7935.03
657.34	7681.08
657.532	7709.75
657.724	7672.89
657.916	7601.21
658.108	7447.61
658.3	7547.96
658.492	7652.41
658.684	7513.14
658.876	7306.3
659.068	7488.57
659.26	7134.27
659.452	7588.92
659.644	7265.34
659.836	7183.42
660.028	7361.59
660.22	7148.61
660.412	7083.07
660.604	6898.75
660.796	7029.82
660.988	7115.84
661.18	6935.62
661.372	7078.97
661.563	7167.04
661.755	6646.85
661.947	6816.83
662.139	6687.81
662.331	6884.42
662.522	6724.68
662.714	6792.26
662.906	6644.81
663.097	6657.09
663.289	6415.43
663.481	6562.89
663.673	6530.12
663.864	6503.5
664.056	6208.59
664.247	6333.51
664.439	6456.39
664.631	6370.38
664.822	6290.51
665.014	6282.31
665.205	6300.75
665.397	6288.46
665.588	6263.88
665.78	5971.02
665.971	6057.04
666.163	6265.93
666.354	6077.52
666.546	5977.17
666.737	5897.3
666.929	5907.54
667.12	5852.24
667.311	5815.38
667.503	5831.76
667.694	5950.54
667.885	5721.17
668.077	5780.56
668.268	5768.27
668.459	5659.73
668.651	5657.68
668.842	5549.14
669.033	5641.3
669.224	5571.67
669.416	5614.68
669.607	5555.29
669.798	5469.27
669.989	5485.65
670.18	5510.23
670.371	5219.42
670.563	5215.32
670.754	5299.29
670.945	5221.47
671.136	5336.15
671.327	5221.47
671.518	5293.15
671.709	5063.77
671.9	5317.72
672.091	5172.32
672.282	5096.54
672.473	5018.72
672.664	5047.39
672.855	5082.21
673.046	4924.51
673.237	4996.19
673.428	4985.95
673.619	4805.73
673.809	4912.22
674	4822.11
674.191	4691.04
674.382	4871.26
674.573	4809.83
674.764	4723.81
674.954	4781.15
675.145	4738.15
675.336	4697.19
675.527	4740.19
675.717	4756.58
675.908	4459.62
676.099	4484.2
676.289	4600.93
676.48	4543.59
676.671	4502.63
676.861	4590.69
677.052	4633.7
677.243	4519.01
677.433	4484.2
677.624	4453.48
677.814	4293.74
678.005	4252.78
678.195	4461.67
678.386	4328.55
678.576	4314.22
678.767	4389.99
678.957	4445.29
679.148	4217.96
679.338	4437.09
679.529	4215.91
679.719	4177
679.909	4199.53
680.1	4095.08
680.29	4189.29
680.481	4183.15
680.671	4113.52
680.861	4144.24
681.052	4195.43
681.242	4084.84
681.432	4123.76
681.622	4086.89
681.813	4039.79
682.003	3955.82
682.193	3931.25
682.383	3900.53
682.573	3988.59
682.764	3894.38
682.954	3902.58
683.144	4056.17
683.334	3781.74
683.524	3890.29
683.714	3912.81
683.904	3859.57
684.094	3806.32
684.284	3677.3
684.474	3742.83
684.664	3755.12
684.854	3726.45
685.044	3742.83
685.234	3736.69
685.424	3769.46
685.614	3638.39
685.804	3589.24
685.994	3591.28
686.184	3650.67
686.374	3703.92
686.564	3632.24
686.753	3554.42
686.943	3366.01
687.133	3535.99
687.323	3492.98
687.513	3558.52
687.702	3601.52
687.892	3345.53
688.082	3456.12
688.272	3529.84
688.461	3495.03
688.651	3488.89
688.841	3447.93
689.03	3282.04
689.22	3411.06
689.41	3290.23
689.599	3286.14
689.789	3294.33
689.979	3329.14
690.168	3210.36
690.358	3318.9
690.547	3312.76
690.737	3368.06
690.926	3425.4
691.116	3273.85
691.305	3226.75
691.495	3208.31
691.684	3269.75
691.874	3245.18
692.063	3177.59
692.252	3089.53
692.442	3128.44
692.631	3128.44
692.82	3118.2
693.01	3175.55
693.199	3161.21
693.388	2966.65
693.578	3179.64
693.767	3163.26
693.956	2997.37
694.146	3030.14
694.335	2980.99
694.524	3075.2
694.713	2980.99
694.902	3040.38
695.092	3134.59
695.281	2942.08
695.47	3019.9
695.659	3079.29
695.848	3011.71
696.037	3103.87
696.226	2940.03
696.415	2999.42
696.604	2954.37
696.793	2933.89
696.982	2894.97
697.171	3019.9
697.36	2933.89
697.549	2927.74
697.738	2800.77
697.927	2825.34
698.116	2974.85
698.305	2921.6
698.494	2888.83
698.683	2964.61
698.872	2903.17
699.061	2905.21
699.25	2880.64
699.438	2860.16
699.627	2866.3
699.816	2741.38
700.005	2663.55
700.193	2837.63
700.382	2825.34
700.571	2643.07
700.76	2907.26
700.948	2790.53
701.137	2679.94
701.326	2743.42
701.514	2761.86
701.703	2880.64
701.892	2714.75
702.08	2860.16
702.269	2716.8
702.457	2718.85
702.646	2735.23
702.834	2796.67
703.023	2761.86
703.212	2712.71
703.4	2757.76
703.589	2606.21
703.777	2737.28
703.965	2688.13
704.154	2774.14
704.342	2571.4
704.531	2626.69
704.719	2653.31
704.907	2698.37
705.096	2743.42
705.284	2550.92
705.472	2692.23
705.661	2704.51
705.849	2587.78
706.037	2739.33
706.226	2610.31
706.414	2645.12
706.602	2608.26
706.79	2796.67
706.979	2587.78
707.167	2712.71
707.355	2561.16
707.543	2579.59
707.731	2559.11
707.919	2575.49
708.107	2608.26
708.296	2536.58
708.484	2503.81
708.672	2626.69
708.86	2544.77
709.048	2720.9
709.236	2473.09
709.424	2606.21
709.612	2514.05
709.8	2569.35
709.988	2544.77
710.176	2569.35
710.364	2636.93
710.551	2589.83
710.739	2509.96
710.927	2585.73
711.115	2493.57
711.303	2471.04
711.491	2585.73
711.679	2608.26
711.866	2456.71
712.054	2475.14
712.242	2538.63
712.43	2501.76
712.617	2544.77
712.805	2491.52
712.993	2423.94
713.181	2428.04
713.368	2438.28
713.556	2628.74
713.744	2503.81
713.931	2557.06
714.119	2516.1
714.306	2489.48
714.494	2497.67
714.682	2534.53
714.869	2389.13
715.057	2491.52
715.244	2466.95
715.432	2407.56
715.619	2434.18
715.807	2548.87
715.994	2358.41
716.182	2440.33
716.369	2469
716.556	2456.71
716.744	2436.23
716.931	2458.76
717.119	2448.52
717.306	2520.2
717.493	2464.9
717.681	2366.6
717.868	2366.6
718.055	2409.61
718.242	2356.36
718.43	2382.98
718.617	2446.47
718.804	2407.56
718.991	2299.02
719.179	2446.47
719.366	2438.28
719.553	2487.43
719.74	2368.65
719.927	2397.32
720.114	2438.28
720.301	2479.24
720.488	2464.9
720.676	2444.42
720.863	2301.06
721.05	2296.97
721.237	2348.17
721.424	2299.02
721.611	2311.3
721.798	2430.09
721.985	2217.1
722.172	2401.41
722.358	2399.37
722.545	2370.69
722.732	2362.5
722.919	2288.78
723.106	2397.32
723.293	2333.83
723.48	2309.26
723.667	2227.34
723.853	2307.21
724.04	2192.52
724.227	2301.06
724.414	2301.06
724.6	2309.26
724.787	2249.86
724.974	2235.53
725.161	2268.3
725.347	2112.65
725.534	2229.38
725.72	2243.72
725.907	2331.78
726.094	2188.43
726.28	2229.38
726.467	2219.14
726.653	2260.1
726.84	2200.71
727.027	2215.05
727.213	2124.94
727.4	2358.41
727.586	2288.78
727.773	2288.78
727.959	2194.57
728.145	2346.12
728.332	2237.58
728.518	2208.9
728.705	2309.26
728.891	2104.46
729.077	2092.17
729.264	2194.57
729.45	2217.1
729.636	2213
729.823	2161.8
730.009	2303.11
730.195	2088.07
730.382	2167.95
730.568	2165.9
730.754	2104.46
730.94	2219.14
731.126	2202.76
731.313	2256.01
731.499	2239.62
731.685	2167.95
731.871	2229.38
732.057	2223.24
732.243	2186.38
732.429	2110.6
732.615	2169.99
732.801	1975.44
732.987	2112.65
733.173	2098.31
733.359	2129.03
733.545	2143.37
733.731	2034.83
733.917	2145.42
734.103	2176.14
734.289	2151.56
734.475	2053.26
734.661	2176.14
734.847	2047.12
735.033	2145.42
735.219	2040.97
735.404	2059.4
735.59	2120.84
735.776	2073.74
735.962	2043.02
736.148	2028.68
736.333	2006.16
736.519	2049.16
736.705	2053.26
736.89	2079.88
737.076	2016.4
737.262	1987.72
737.447	2110.6
737.633	2022.54
737.819	2120.84
738.004	2000.01
738.19	2047.12
738.375	1954.96
738.561	2049.16
738.747	1881.23
738.932	1954.96
739.118	2038.92
739.303	1875.09
739.489	1997.96
739.674	1893.52
739.859	1864.85
740.045	1952.91
740.23	1991.82
740.416	1907.85
740.601	1971.34
740.786	1866.89
740.972	1932.43
741.157	1942.67
741.342	1952.91
741.528	1832.08
741.713	1936.53
741.898	1938.57
742.084	1868.94
742.269	1807.5
742.454	1926.29
742.639	1848.46
742.824	1797.26
743.01	1811.6
743.195	1846.41
743.38	1811.6
743.565	1903.76
743.75	1862.8
743.935	1752.21
744.12	1852.56
744.305	1762.45
744.49	1647.76
744.675	1762.45
744.86	1756.3
745.045	1762.45
745.23	1725.58
745.415	1823.89
745.6	1793.17
745.785	1668.24
745.97	1684.62
746.155	1698.96
746.34	1770.64
746.525	1725.58
746.71	1709.2
746.895	1553.55
747.079	1621.14
747.264	1660.05
747.449	1717.39
747.634	1711.25
747.819	1612.95
748.003	1660.05
748.188	1512.6
748.373	1610.9
748.557	1600.66
748.742	1637.52
748.927	1598.61
749.111	1481.88
749.296	1490.07
749.481	1571.99
749.665	1543.32
749.85	1510.55
750.034	1614.99
750.219	1645.71
750.404	1434.77
750.588	1379.48
750.773	1490.07
750.957	1485.97
751.141	1389.72
751.326	1395.86
751.51	1430.68
751.695	1309.85
751.879	1463.44
752.064	1442.96
752.248	1350.81
752.432	1447.06
752.617	1354.9
752.801	1406.1
752.985	1369.24
753.17	1410.2
753.354	1352.85
753.538	1334.42
753.722	1416.34
753.907	1326.23
754.091	1289.37
754.275	1279.13
754.459	1344.66
754.643	1240.22
754.828	1217.69
755.012	1307.8
755.196	1275.03
755.38	1277.08
755.564	1232.02
755.748	1176.73
755.932	1279.13
756.116	1162.39
756.3	1156.25
756.484	1148.06
756.668	1197.21
756.852	1225.88
757.036	1174.68
757.22	1203.35
757.404	1189.02
757.588	1156.25
757.772	1113.24
757.956	1195.16
758.14	1160.34
758.323	1135.77
758.507	1135.77
758.691	1158.3
758.875	1195.16
759.059	1152.15
759.242	1143.96
759.426	1037.47
759.61	1059.99
759.794	1053.85
759.977	1123.48
760.161	1127.58
760.345	1080.47
760.528	1037.47
760.712	1049.75
760.895	1041.56
761.079	967.84
761.263	980.12
761.446	1019.04
761.63	994.46
761.813	951.45
761.997	941.21
762.18	969.88
762.364	1062.04
762.547	935.07
762.731	1137.82
762.914	1000.6
763.098	914.59
763.281	976.03
763.464	973.98
763.648	914.59
763.831	1051.8
764.015	939.16
764.198	953.5
764.381	955.55
764.564	951.45
764.748	967.84
764.931	1025.18
765.114	844.96
765.297	963.74
765.481	832.67
765.664	951.45
765.847	824.48
766.03	892.06
766.213	892.06
766.397	910.49
766.58	908.44
766.763	967.84
766.946	951.45
767.129	924.83
767.312	920.73
767.495	949.4
767.678	804
767.861	988.32
768.044	820.38
768.227	926.88
768.41	828.57
768.593	867.49
768.776	873.63
768.959	824.48
769.142	892.06
769.324	849.05
769.507	863.39
769.69	857.25
769.873	859.29
770.056	853.15
770.239	885.92
770.421	861.34
770.604	851.1
770.787	791.71
770.97	890.01
771.152	818.33
771.335	799.9
771.518	875.68
771.7	795.81
771.883	842.91
772.066	795.81
772.248	875.68
772.431	826.53
772.613	824.48
772.796	775.33
772.978	853.15
773.161	750.75
773.343	822.43
773.526	795.81
773.708	756.9
773.891	840.86
774.073	814.24
774.256	791.71
774.438	742.56
774.621	713.89
774.803	777.37
774.985	681.12
775.168	773.28
775.35	701.6
775.532	677.02
775.715	679.07
775.897	785.57
776.079	705.7
776.261	717.98
776.444	644.26
776.626	693.41
776.808	662.69
776.99	677.02
777.173	666.78
777.355	713.89
777.537	619.68
777.719	683.17
777.901	650.4
778.083	689.31
778.265	646.3
778.447	640.16
778.629	687.26
778.811	644.26
778.993	554.15
779.175	621.73
779.357	595.11
779.539	597.15
779.721	603.3
779.903	709.79
780.085	545.95
780.267	638.11
780.449	603.3
780.631	586.91
780.812	662.69
780.994	588.96
781.176	597.15
781.358	537.76
781.54	492.71
781.721	578.72
781.903	550.05
782.085	570.53
782.267	529.57
782.448	507.04
782.63	478.37
782.812	537.76
782.993	588.96
783.175	517.28
783.357	525.47
783.538	482.47
783.72	461.99
783.901	504.99
784.083	449.7
784.264	441.51
784.446	439.46
784.627	480.42
784.809	488.61
784.99	496.8
785.172	560.29
785.353	457.89
785.535	480.42
785.716	425.12
785.897	482.47
786.079	384.16
786.26	418.98
786.441	492.71
786.623	500.9
786.804	425.12
786.985	459.94
787.167	480.42
787.348	355.49
787.529	433.32
787.71	504.99
787.891	445.6
788.073	384.16
788.254	423.08
788.435	464.04
788.616	398.5
788.797	406.69
788.978	414.88
789.159	310.44
789.34	431.27
789.522	373.92
789.703	361.64
789.884	386.21
790.065	406.69
790.246	396.45
790.427	390.31
790.607	451.75
790.788	439.46
790.969	388.26
791.15	294.05
791.331	394.4
791.512	310.44
791.693	373.92
791.874	384.16
792.054	433.32
792.235	294.05
792.416	351.4
792.597	322.73
792.778	322.73
792.958	373.92
793.139	316.58
793.32	269.48
793.5	398.5
793.681	429.22
793.862	345.25
794.042	281.77
794.223	289.96
794.404	306.34
794.584	251.05
794.765	322.73
794.945	267.43
795.126	312.49
795.306	404.64
795.487	353.45
795.667	287.91
795.848	265.38
796.028	255.14
796.209	296.1
796.389	308.39
796.57	269.48
796.75	275.62
796.93	269.48
797.111	210.09
797.291	238.76
797.471	343.21
797.652	281.77
797.832	253.09
798.012	363.69
798.192	224.42
798.373	242.85
798.553	189.61
798.733	244.9
798.913	304.29
799.093	298.15
799.274	320.68
799.454	296.1
799.634	273.57
799.814	271.53
799.994	269.48
800.174	216.23
800.354	259.24
800.534	226.47
800.714	212.14
800.894	144.55
801.074	253.09
801.254	144.55
801.434	289.96
801.614	242.85
801.794	230.57
801.974	646.3
802.154	193.7
802.334	236.71
802.514	251.05
802.693	271.53
802.873	214.18
803.053	216.23
803.233	212.14
803.413	222.38
803.592	249
803.772	195.75
803.952	212.14
804.131	197.8
804.311	220.33
804.491	210.09
804.67	199.85
804.85	66.73
805.03	210.09
805.209	244.9
805.389	212.14
805.568	195.75
805.748	199.85
805.928	201.9
806.107	238.76
806.287	230.57
806.466	199.85
806.646	197.8
806.825	269.48
807.004	251.05
807.184	253.09
807.363	226.47
807.543	226.47
807.722	193.7
807.901	216.23
808.081	179.37
808.26	183.46
808.439	220.33
808.619	87.21
808.798	183.46
808.977	144.55
809.156	238.76
809.336	148.65
809.515	199.85
809.694	181.42
809.873	148.65
810.052	89.26
810.231	232.62
810.411	167.08
810.59	195.75
810.769	146.6
810.948	181.42
811.127	68.78
811.306	148.65
811.485	93.35
811.664	183.46
811.843	148.65
812.022	179.37
812.201	224.42
812.38	130.22
812.559	156.84
812.737	142.5
812.916	99.5
813.095	222.38
813.274	140.46
813.453	91.31
813.632	111.78
813.811	173.22
813.989	165.03
814.168	169.13
814.347	205.99
814.526	138.41
814.704	203.94
814.883	146.6
815.062	128.17
815.24	119.98
815.419	152.74
815.598	212.14
815.776	122.02
815.955	146.6
816.133	122.02
816.312	158.89
816.49	126.12
816.669	205.99
816.847	128.17
817.026	93.35
817.204	128.17
817.383	169.13
817.561	136.36
817.74	105.64
817.918	185.51
818.097	95.4
818.275	126.12
818.453	74.92
818.632	46.25
818.81	193.7
818.988	64.68
819.167	117.93
819.345	146.6
819.523	97.45
819.701	205.99
819.879	95.4
820.058	193.7
820.236	146.6
820.414	146.6
820.592	152.74
820.77	140.46
820.948	138.41
821.127	95.4
821.305	134.31
821.483	97.45
821.661	177.32
821.839	48.3
822.017	130.22
822.195	89.26
822.373	175.27
822.551	44.2
822.729	85.16
822.907	119.98
823.085	154.79
823.262	132.26
823.44	171.18
823.618	128.17
823.796	201.9
823.974	146.6
824.152	52.39
824.329	128.17
824.507	122.02
824.685	183.46
824.863	113.83
825.04	167.08
825.218	128.17
825.396	111.78
825.574	76.97
825.751	124.07
825.929	87.21
826.107	79.02
826.284	-0.85
826.462	111.78
826.639	111.78
826.817	70.83
826.994	113.83
827.172	52.39
827.349	58.54
827.527	154.79
827.704	144.55
827.882	64.68
828.059	99.5
828.237	33.96
828.414	70.83
828.591	5.29
828.769	99.5
828.946	-15.19
829.124	134.31
829.301	119.98
829.478	91.31
829.655	38.06
829.833	70.83
830.01	87.21
830.187	81.07
830.364	105.64
830.542	60.59
830.719	101.55
830.896	140.46
831.073	111.78
831.25	72.87
831.427	89.26
831.604	99.5
831.782	111.78
831.959	185.51
832.136	134.31
832.313	103.59
832.49	144.55
832.667	11.43
832.844	9.39
833.021	111.78
833.198	79.02
833.374	85.16
833.551	46.25
833.728	62.63
833.905	111.78
834.082	50.35
834.259	46.25
834.436	130.22
834.612	46.25
834.789	122.02
834.966	74.92
835.143	85.16
835.319	126.12
835.496	62.63
835.673	160.94
835.85	81.07
836.026	87.21
836.203	15.53
836.38	-4.95
836.556	23.72
836.733	-9.05
836.909	72.87
837.086	95.4
837.262	60.59
837.439	79.02
837.616	66.73
837.792	38.06
837.968	138.41
838.145	48.3
838.321	62.63
838.498	38.06
838.674	103.59
838.851	21.67
839.027	56.49
839.203	5.29
839.38	48.3
839.556	-41.81
839.732	76.97
839.909	83.11
840.085	29.87
840.261	83.11
840.437	60.59
840.614	-33.62
840.79	109.74
840.966	154.79
841.142	46.25
841.318	42.15
841.494	99.5
841.671	42.15
841.847	46.25
842.023	97.45
842.199	46.25
842.375	74.92
842.551	-15.19
842.727	-7
842.903	40.11
843.079	70.83
843.255	62.63
843.431	58.54
843.607	119.98
843.783	-35.67
843.959	-7
844.134	144.55
844.31	38.06
844.486	25.77
844.662	25.77
844.838	13.48
845.013	105.64
845.189	17.58
845.365	91.31
845.541	-2.9
845.716	97.45
845.892	40.11
846.068	56.49
846.244	25.77
846.419	56.49
846.595	38.06
846.77	54.44
846.946	29.87
847.122	91.31
847.297	58.54
847.473	66.73
847.648	50.35
847.824	13.48
847.999	21.67
848.175	13.48
848.35	50.35
848.526	101.55
848.701	17.58
848.876	48.3
849.052	50.35
849.227	48.3
849.403	17.58
849.578	68.78
849.753	21.67
849.929	56.49
850.104	-0.85
850.279	17.58
850.454	79.02
850.63	54.44
850.805	56.49
850.98	83.11
851.155	40.11
851.33	13.48
851.505	62.63
851.681	70.83
851.856	31.91
852.031	33.96
852.206	-21.33
852.381	13.48
852.556	46.25
852.731	44.2
852.906	56.49
853.081	7.34
853.256	105.64
853.431	-25.43
853.606	62.63
853.781	5.29
853.956	3.24
854.131	-0.85
854.305	-7
854.48	93.35
854.655	-7
854.83	-11.09
855.005	62.63
855.18	29.87
855.354	-7
855.529	54.44
855.704	3.24
855.879	42.15
856.053	-50
856.228	103.59
856.403	-56.15
856.577	-33.62
856.752	-25.43
856.926	62.63
857.101	9.39
857.276	70.83
857.45	58.54
857.625	60.59
857.799	-23.38
857.974	-58.2
858.148	27.82
858.323	79.02
858.497	70.83
858.672	23.72
858.846	50.35
859.02	54.44
859.195	-82.77
859.369	64.68
859.543	19.63
859.718	46.25
859.892	13.48
860.066	74.92
860.241	9.39
860.415	9.39
860.589	44.2
860.763	122.02
860.938	-56.15
861.112	31.91
861.286	38.06
861.46	38.06
861.634	107.69
861.808	42.15
861.982	89.26
862.157	72.87
862.331	-9.05
862.505	31.91
862.679	-11.09
862.853	-9.05
863.027	42.15
863.201	105.64
863.375	-15.19
863.549	19.63
863.722	99.5
863.896	103.59
864.07	81.07
864.244	1.19
864.418	54.44
864.592	23.72
864.766	-13.14
864.939	66.73
865.113	1.19
865.287	5.29
865.461	48.3
865.634	27.82
865.808	-58.2
865.982	31.91
866.156	7.34
866.329	13.48
866.503	87.21
866.676	-27.48
866.85	27.82
867.024	21.67
867.197	9.39
867.371	21.67
867.544	46.25
867.718	-52.05
867.891	103.59
868.065	-4.95
868.238	-0.85
868.412	-11.09
868.585	-29.52
868.759	-37.72
868.932	9.39
869.105	25.77
869.279	7.34
869.452	1.19
869.625	36.01
869.799	-39.76
869.972	25.77
870.145	91.31
870.319	56.49
870.492	-4.95
870.665	1.19
870.838	42.15
871.011	-0.85
871.185	-4.95
871.358	-66.39
871.531	-33.62
871.704	3.24
871.877	56.49
872.05	-11.09
872.223	23.72
872.396	42.15
872.569	3.24
872.742	27.82
872.915	56.49
873.088	-27.48
873.261	-2.9
873.434	5.29
873.607	54.44
873.78	15.53
873.953	17.58
874.126	31.91
874.299	89.26
874.471	-7
874.644	-11.09
874.817	64.68
874.99	46.25
875.163	5.29
875.335	56.49
875.508	-33.62
875.681	7.34
875.853	-27.48
876.026	38.06
876.199	-4.95
876.371	19.63
876.544	-4.95
876.717	9.39
876.889	-82.77
877.062	17.58
877.234	-27.48
877.407	-7
877.579	62.63
877.752	29.87
877.924	54.44
878.097	21.67
878.269	-7
878.442	29.87
878.614	-2.9
878.786	29.87
878.959	21.67
879.131	46.25
879.303	-54.1
879.476	42.15
879.648	-0.85
879.82	89.26
879.993	48.3
880.165	38.06
880.337	-29.52
880.509	48.3
880.681	31.91
880.854	40.11
881.026	19.63
881.198	46.25
881.37	72.87
881.542	-4.95
881.714	46.25
881.886	42.15
882.058	-27.48
882.23	-54.1
882.402	-11.09
882.574	83.11
882.746	21.67
882.918	-0.85
883.09	1.19
883.262	29.87
883.434	-23.38
883.606	29.87
883.778	25.77
883.95	-37.72
884.122	-35.67
884.293	-11.09
884.465	21.67
884.637	7.34
884.809	11.43
884.98	-7
885.152	13.48
885.324	-68.44
885.496	-19.29
885.667	-21.33
885.839	-15.19
886.011	40.11
886.182	11.43
886.354	-7
886.525	5.29
886.697	38.06
886.869	11.43
887.04	-11.09
887.212	36.01
887.383	38.06
887.555	-19.29
887.726	-15.19
887.897	-7
888.069	15.53
888.24	23.72
888.412	21.67
888.583	-0.85
888.754	21.67
888.926	3.24
889.097	-41.81
889.268	-7
889.44	52.39
889.611	-52.05
889.782	15.53
889.953	-35.67
890.125	-7
890.296	-13.14
890.467	23.72
890.638	-7
890.809	66.73
890.98	1.19
891.151	19.63
891.323	15.53
891.494	21.67
891.665	36.01
891.836	31.91
892.007	-19.29
892.178	74.92
892.349	-2.9
892.52	-7
892.691	-2.9
892.862	-56.15
893.032	85.16
893.203	-27.48
893.374	-19.29
893.545	56.49
893.716	-52.05
893.887	-9.05
894.057	40.11
894.228	-9.05
894.399	38.06
894.57	-56.15
894.74	-7
894.911	5.29
895.082	5.29
895.253	5.29
895.423	93.35
895.594	70.83
895.764	56.49
895.935	-19.29
896.106	66.73
896.276	42.15
896.447	13.48
896.617	-29.52
896.788	-19.29
896.958	11.43
897.129	31.91
897.299	-4.95
897.47	48.3
897.64	54.44
897.81	5.29
897.981	33.96
898.151	-9.05
898.322	17.58
898.492	38.06
898.662	29.87
898.832	-64.34
899.003	-56.15
899.173	29.87
899.343	-56.15
899.513	-27.48
