Data from USB4F104151__13__13-10-25-872.txt Node

Date: Fri Mar 14 13:10:25 EDT 2025
User: louis
Spectrometer: USB4F10415
Trigger mode: 4
Integration Time (sec): 2.000000E-2
Scans to average: 1
Electric dark correction enabled: true
Nonlinearity correction enabled: false
Boxcar width: 0
XAxis mode: Wavelengths
Number of Pixels in Spectrum: 3648
>>>>>Begin Spectral Data<<<<<
178.204	-83.63
178.424	-83.63
178.644	-83.63
178.864	-73.39
179.084	-63.15
179.304	-24.23
179.524	-11.95
179.744	-52.91
179.964	-11.95
180.184	-5.8
180.404	-7.85
180.624	2.39
180.844	29.01
181.064	-44.71
181.283	24.92
181.503	31.06
181.723	72.02
181.943	-16.04
182.163	98.64
182.383	45.4
182.602	24.92
182.822	12.63
183.042	-36.52
183.262	45.4
183.482	43.35
183.701	-38.57
183.921	12.63
184.141	8.53
184.361	24.92
184.58	22.87
184.8	49.49
185.02	24.92
185.239	94.55
185.459	35.16
185.679	6.49
185.898	6.49
186.118	61.78
186.338	112.98
186.557	-22.19
186.777	-22.19
186.997	8.53
187.216	-1.71
187.436	69.97
187.655	65.88
187.875	47.44
188.095	49.49
188.314	6.49
188.534	10.58
188.753	-38.57
188.973	76.12
189.192	53.59
189.412	10.58
189.631	37.2
189.851	41.3
190.07	63.83
190.29	-106.15
190.509	37.2
190.729	-50.86
190.948	-1.71
191.168	115.03
191.387	43.35
191.607	35.16
191.826	22.87
192.045	35.16
192.265	-9.9
192.484	31.06
192.704	55.64
192.923	67.92
193.142	74.07
193.362	29.01
193.581	41.3
193.8	-57
194.02	18.77
194.239	-11.95
194.458	80.21
194.678	14.68
194.897	-1.71
195.116	-18.09
195.335	-63.15
195.555	51.54
195.774	39.25
195.993	6.49
196.212	-24.23
196.432	12.63
196.651	12.63
196.87	2.39
197.089	135.51
197.308	67.92
197.528	-22.19
197.747	-5.8
197.966	24.92
198.185	88.4
198.404	-5.8
198.623	92.5
198.842	63.83
199.062	39.25
199.281	100.69
199.5	37.2
199.719	63.83
199.938	-9.9
200.157	49.49
200.376	-40.62
200.595	72.02
200.814	26.96
201.033	59.73
201.252	51.54
201.471	49.49
201.69	47.44
201.909	72.02
202.128	43.35
202.347	29.01
202.566	39.25
202.785	65.88
203.004	-40.62
203.223	16.73
203.442	16.73
203.661	2.39
203.879	39.25
204.098	37.2
204.317	-18.09
204.536	35.16
204.755	26.96
204.974	82.26
205.193	-7.85
205.411	94.55
205.63	102.74
205.849	57.68
206.068	35.16
206.287	0.34
206.505	-9.9
206.724	51.54
206.943	-11.95
207.162	22.87
207.381	-16.04
207.599	88.4
207.818	14.68
208.037	18.77
208.255	-1.71
208.474	33.11
208.693	96.6
208.911	24.92
209.13	12.63
209.349	41.3
209.567	63.83
209.786	51.54
210.005	-11.95
210.223	78.16
210.442	-9.9
210.661	14.68
210.879	61.78
211.098	-34.47
211.316	53.59
211.535	96.6
211.753	35.16
211.972	98.64
212.191	63.83
212.409	-1.71
212.628	47.44
212.846	14.68
213.065	49.49
213.283	76.12
213.502	16.73
213.72	24.92
213.938	67.92
214.157	24.92
214.375	-7.85
214.594	39.25
214.812	47.44
215.031	22.87
215.249	43.35
215.467	41.3
215.686	8.53
215.904	74.07
216.122	31.06
216.341	110.93
216.559	35.16
216.778	80.21
216.996	72.02
217.214	35.16
217.432	29.01
217.651	14.68
217.869	-26.28
218.087	100.69
218.306	-18.09
218.524	-18.09
218.742	33.11
218.96	47.44
219.179	29.01
219.397	-30.38
219.615	104.79
219.833	115.03
220.051	37.2
220.27	-54.95
220.488	-3.75
220.706	26.96
220.924	16.73
221.142	-18.09
221.36	14.68
221.578	-40.62
221.796	-46.76
222.015	61.78
222.233	53.59
222.451	63.83
222.669	51.54
222.887	35.16
223.105	-38.57
223.323	24.92
223.541	-32.43
223.759	39.25
223.977	6.49
224.195	55.64
224.413	43.35
224.631	72.02
224.849	-16.04
225.067	22.87
225.285	55.64
225.503	51.54
225.721	59.73
225.939	115.03
226.157	43.35
226.375	92.5
226.592	12.63
226.81	59.73
227.028	104.79
227.246	65.88
227.464	49.49
227.682	65.88
227.9	39.25
228.117	69.97
228.335	2.39
228.553	-7.85
228.771	72.02
228.989	55.64
229.206	57.68
229.424	49.49
229.642	26.96
229.86	33.11
230.077	106.84
230.295	-18.09
230.513	29.01
230.731	78.16
230.948	43.35
231.166	55.64
231.384	53.59
231.601	16.73
231.819	92.5
232.037	63.83
232.254	-34.47
232.472	4.44
232.689	-34.47
232.907	55.64
233.125	-1.71
233.342	-26.28
233.56	-32.43
233.777	65.88
233.995	39.25
234.213	49.49
234.43	47.44
234.648	63.83
234.865	86.36
235.083	-13.99
235.3	-5.8
235.518	31.06
235.735	53.59
235.953	80.21
236.17	26.96
236.388	-30.38
236.605	33.11
236.822	86.36
237.04	-20.14
237.257	24.92
237.475	67.92
237.692	35.16
237.909	-36.52
238.127	47.44
238.344	59.73
238.562	33.11
238.779	-11.95
238.996	12.63
239.214	33.11
239.431	26.96
239.648	8.53
239.865	20.82
240.083	16.73
240.3	63.83
240.517	47.44
240.735	22.87
240.952	57.68
241.169	39.25
241.386	45.4
241.603	49.49
241.821	65.88
242.038	63.83
242.255	0.34
242.472	39.25
242.689	29.01
242.907	-7.85
243.124	26.96
243.341	29.01
243.558	39.25
243.775	2.39
243.992	-1.71
244.209	-9.9
244.426	100.69
244.643	55.64
244.86	-38.57
245.078	84.31
245.295	-16.04
245.512	98.64
245.729	-3.75
245.946	61.78
246.163	72.02
246.38	-1.71
246.597	31.06
246.814	90.45
247.031	61.78
247.248	18.77
247.464	117.08
247.681	8.53
247.898	37.2
248.115	108.88
248.332	8.53
248.549	88.4
248.766	98.64
248.983	49.49
249.2	-7.85
249.417	63.83
249.633	123.22
249.85	67.92
250.067	-24.23
250.284	24.92
250.501	6.49
250.717	92.5
250.934	-9.9
251.151	-18.09
251.368	49.49
251.585	69.97
251.801	47.44
252.018	35.16
252.235	10.58
252.451	104.79
252.668	26.96
252.885	22.87
253.102	10.58
253.318	43.35
253.535	43.35
253.752	33.11
253.968	18.77
254.185	6.49
254.401	51.54
254.618	51.54
254.835	49.49
255.051	47.44
255.268	26.96
255.484	74.07
255.701	55.64
255.917	55.64
256.134	-16.04
256.351	96.6
256.567	0.34
256.784	59.73
257	115.03
257.217	2.39
257.433	43.35
257.65	37.2
257.866	53.59
258.082	-11.95
258.299	20.82
258.515	10.58
258.732	51.54
258.948	39.25
259.165	49.49
259.381	-1.71
259.597	92.5
259.814	24.92
260.03	43.35
260.246	0.34
260.463	45.4
260.679	76.12
260.895	18.77
261.112	49.49
261.328	39.25
261.544	-36.52
261.761	74.07
261.977	12.63
262.193	45.4
262.409	35.16
262.626	16.73
262.842	-13.99
263.058	-16.04
263.274	14.68
263.49	45.4
263.707	31.06
263.923	10.58
264.139	39.25
264.355	35.16
264.571	43.35
264.787	22.87
265.004	82.26
265.22	8.53
265.436	63.83
265.652	-11.95
265.868	14.68
266.084	4.44
266.3	86.36
266.516	49.49
266.732	10.58
266.948	22.87
267.164	59.73
267.38	57.68
267.596	33.11
267.812	92.5
268.028	90.45
268.244	45.4
268.46	51.54
268.676	33.11
268.892	49.49
269.108	22.87
269.324	6.49
269.54	8.53
269.756	16.73
269.972	-24.23
270.188	-9.9
270.403	-34.47
270.619	14.68
270.835	65.88
271.051	80.21
271.267	-34.47
271.483	-1.71
271.698	59.73
271.914	55.64
272.13	115.03
272.346	8.53
272.562	26.96
272.777	86.36
272.993	16.73
273.209	4.44
273.425	-13.99
273.64	47.44
273.856	100.69
274.072	-7.85
274.287	-22.19
274.503	72.02
274.719	31.06
274.934	49.49
275.15	-16.04
275.366	14.68
275.581	39.25
275.797	76.12
276.012	6.49
276.228	-16.04
276.444	84.31
276.659	108.88
276.875	57.68
277.09	67.92
277.306	31.06
277.521	-26.28
277.737	20.82
277.952	90.45
278.168	14.68
278.383	18.77
278.599	31.06
278.814	74.07
279.03	26.96
279.245	94.55
279.461	16.73
279.676	74.07
279.892	41.3
280.107	31.06
280.322	24.92
280.538	24.92
280.753	51.54
280.969	76.12
281.184	33.11
281.399	96.6
281.615	-5.8
281.83	55.64
282.045	-26.28
282.26	24.92
282.476	-1.71
282.691	31.06
282.906	18.77
283.122	29.01
283.337	65.88
283.552	-9.9
283.767	18.77
283.983	47.44
284.198	-11.95
284.413	55.64
284.628	45.4
284.843	0.34
285.058	72.02
285.274	26.96
285.489	6.49
285.704	49.49
285.919	-18.09
286.134	10.58
286.349	61.78
286.564	-26.28
286.779	14.68
286.995	37.2
287.21	-1.71
287.425	35.16
287.64	47.44
287.855	80.21
288.07	14.68
288.285	82.26
288.5	10.58
288.715	22.87
288.93	84.31
289.145	-5.8
289.36	6.49
289.575	0.34
289.79	51.54
290.004	22.87
290.219	67.92
290.434	31.06
290.649	31.06
290.864	33.11
291.079	129.36
291.294	88.4
291.509	55.64
291.724	20.82
291.938	35.16
292.153	-40.62
292.368	33.11
292.583	61.78
292.798	67.92
293.012	72.02
293.227	29.01
293.442	45.4
293.657	139.6
293.871	39.25
294.086	-13.99
294.301	18.77
294.516	74.07
294.73	-13.99
294.945	-3.75
295.16	96.6
295.374	-18.09
295.589	55.64
295.804	8.53
296.018	26.96
296.233	84.31
296.447	41.3
296.662	8.53
296.877	-9.9
297.091	102.74
297.306	16.73
297.52	67.92
297.735	80.21
297.949	6.49
298.164	31.06
298.378	26.96
298.593	-26.28
298.807	24.92
299.022	41.3
299.236	8.53
299.451	41.3
299.665	6.49
299.88	45.4
300.094	90.45
300.309	31.06
300.523	86.36
300.737	8.53
300.952	6.49
301.166	6.49
301.381	-5.8
301.595	41.3
301.809	6.49
302.024	-7.85
302.238	-9.9
302.452	55.64
302.667	10.58
302.881	-7.85
303.095	59.73
303.309	69.97
303.524	-38.57
303.738	14.68
303.952	-20.14
304.166	76.12
304.381	6.49
304.595	47.44
304.809	55.64
305.023	18.77
305.237	8.53
305.452	37.2
305.666	108.88
305.88	6.49
306.094	-5.8
306.308	39.25
306.522	119.12
306.736	-3.75
306.95	37.2
307.164	6.49
307.379	35.16
307.593	26.96
307.807	47.44
308.021	-16.04
308.235	92.5
308.449	63.83
308.663	98.64
308.877	74.07
309.091	-3.75
309.305	78.16
309.519	-9.9
309.733	80.21
309.947	43.35
310.161	16.73
310.374	39.25
310.588	57.68
310.802	47.44
311.016	-18.09
311.23	35.16
311.444	-26.28
311.658	20.82
311.872	45.4
312.085	53.59
312.299	16.73
312.513	82.26
312.727	65.88
312.941	6.49
313.154	39.25
313.368	43.35
313.582	47.44
313.796	59.73
314.009	45.4
314.223	31.06
314.437	2.39
314.651	65.88
314.864	35.16
315.078	26.96
315.292	22.87
315.505	18.77
315.719	90.45
315.933	125.27
316.146	-13.99
316.36	31.06
316.573	16.73
316.787	-20.14
317.001	129.36
317.214	98.64
317.428	51.54
317.641	20.82
317.855	-18.09
318.068	92.5
318.282	86.36
318.495	72.02
318.709	82.26
318.922	-18.09
319.136	80.21
319.349	43.35
319.563	-46.76
319.776	41.3
319.99	29.01
320.203	-20.14
320.417	43.35
320.63	92.5
320.843	-18.09
321.057	26.96
321.27	-26.28
321.483	57.68
321.697	78.16
321.91	67.92
322.124	22.87
322.337	14.68
322.55	72.02
322.763	12.63
322.977	123.22
323.19	29.01
323.403	72.02
323.617	31.06
323.83	76.12
324.043	41.3
324.256	-48.81
324.469	29.01
324.683	119.12
324.896	6.49
325.109	-9.9
325.322	0.34
325.535	82.26
325.748	39.25
325.962	47.44
326.175	-1.71
326.388	35.16
326.601	63.83
326.814	-22.19
327.027	47.44
327.24	-26.28
327.453	33.11
327.666	110.93
327.879	63.83
328.092	35.16
328.305	108.88
328.518	112.98
328.731	10.58
328.944	2.39
329.157	110.93
329.37	47.44
329.583	160.08
329.796	125.27
330.009	14.68
330.222	80.21
330.435	72.02
330.648	-7.85
330.861	26.96
331.073	69.97
331.286	0.34
331.499	57.68
331.712	-3.75
331.925	26.96
332.138	72.02
332.35	100.69
332.563	98.64
332.776	121.17
332.989	55.64
333.202	-42.67
333.414	88.4
333.627	76.12
333.84	24.92
334.053	153.94
334.265	39.25
334.478	-9.9
334.691	41.3
334.903	35.16
335.116	59.73
335.329	4.44
335.541	94.55
335.754	78.16
335.966	-26.28
336.179	88.4
336.392	41.3
336.604	26.96
336.817	84.31
337.029	45.4
337.242	-26.28
337.454	112.98
337.667	49.49
337.88	145.75
338.092	33.11
338.305	88.4
338.517	22.87
338.729	-1.71
338.942	43.35
339.154	37.2
339.367	57.68
339.579	98.64
339.792	-5.8
340.004	106.84
340.217	-1.71
340.429	-5.8
340.641	55.64
340.854	-9.9
341.066	102.74
341.278	47.44
341.491	78.16
341.703	12.63
341.915	-1.71
342.128	115.03
342.34	22.87
342.552	59.73
342.764	88.4
342.977	49.49
343.189	61.78
343.401	16.73
343.613	41.3
343.826	-16.04
344.038	49.49
344.25	2.39
344.462	51.54
344.674	-18.09
344.886	88.4
345.099	6.49
345.311	82.26
345.523	39.25
345.735	41.3
345.947	90.45
346.159	47.44
346.371	41.3
346.583	20.82
346.795	104.79
347.007	10.58
347.219	55.64
347.431	41.3
347.643	96.6
347.855	-9.9
348.067	112.98
348.279	14.68
348.491	6.49
348.703	31.06
348.915	82.26
349.127	-16.04
349.339	22.87
349.551	6.49
349.763	84.31
349.975	76.12
350.187	104.79
350.399	59.73
350.61	26.96
350.822	22.87
351.034	115.03
351.246	8.53
351.458	129.36
351.669	47.44
351.881	78.16
352.093	26.96
352.305	-9.9
352.517	166.23
352.728	49.49
352.94	74.07
353.152	39.25
353.363	-26.28
353.575	39.25
353.787	119.12
353.999	22.87
354.21	43.35
354.422	57.68
354.633	108.88
354.845	0.34
355.057	-9.9
355.268	74.07
355.48	39.25
355.692	14.68
355.903	-1.71
356.115	69.97
356.326	12.63
356.538	80.21
356.749	51.54
356.961	137.56
357.172	-1.71
357.384	16.73
357.595	106.84
357.807	37.2
358.018	16.73
358.23	100.69
358.441	90.45
358.653	102.74
358.864	123.22
359.075	29.01
359.287	86.36
359.498	33.11
359.709	98.64
359.921	80.21
360.132	59.73
360.344	139.6
360.555	12.63
360.766	119.12
360.977	84.31
361.189	69.97
361.4	53.59
361.611	2.39
361.823	96.6
362.034	88.4
362.245	41.3
362.456	88.4
362.667	80.21
362.879	-16.04
363.09	29.01
363.301	35.16
363.512	55.64
363.723	76.12
363.935	4.44
364.146	37.2
364.357	80.21
364.568	43.35
364.779	0.34
364.99	104.79
365.201	26.96
365.412	57.68
365.623	-16.04
365.834	63.83
366.045	16.73
366.256	119.12
366.467	29.01
366.678	8.53
366.889	100.69
367.1	39.25
367.311	106.84
367.522	6.49
367.733	67.92
367.944	20.82
368.155	8.53
368.366	72.02
368.577	35.16
368.788	112.98
368.999	16.73
369.209	115.03
369.42	104.79
369.631	110.93
369.842	47.44
370.053	102.74
370.264	90.45
370.474	26.96
370.685	59.73
370.896	72.02
371.107	45.4
371.317	57.68
371.528	8.53
371.739	74.07
371.95	76.12
372.16	80.21
372.371	-3.75
372.582	69.97
372.792	65.88
373.003	29.01
373.214	72.02
373.424	90.45
373.635	39.25
373.846	61.78
374.056	31.06
374.267	18.77
374.477	37.2
374.688	45.4
374.898	86.36
375.109	74.07
375.319	14.68
375.53	29.01
375.74	72.02
375.951	45.4
376.161	39.25
376.372	57.68
376.582	-5.8
376.793	88.4
377.003	18.77
377.214	14.68
377.424	16.73
377.635	47.44
377.845	2.39
378.055	55.64
378.266	51.54
378.476	14.68
378.686	47.44
378.897	51.54
379.107	6.49
379.317	108.88
379.528	78.16
379.738	96.6
379.948	-9.9
380.158	74.07
380.369	29.01
380.579	20.82
380.789	37.2
380.999	86.36
381.21	88.4
381.42	98.64
381.63	80.21
381.84	59.73
382.05	84.31
382.261	110.93
382.471	139.6
382.681	20.82
382.891	61.78
383.101	96.6
383.311	12.63
383.521	55.64
383.731	51.54
383.941	51.54
384.151	39.25
384.361	63.83
384.571	-1.71
384.781	43.35
384.991	158.03
385.201	41.3
385.411	123.22
385.621	22.87
385.831	55.64
386.041	-1.71
386.251	121.17
386.461	100.69
386.671	61.78
386.881	72.02
387.091	63.83
387.301	84.31
387.511	119.12
387.72	55.64
387.93	127.32
388.14	16.73
388.35	104.79
388.56	100.69
388.769	82.26
388.979	104.79
389.189	35.16
389.399	41.3
389.609	41.3
389.818	125.27
390.028	14.68
390.238	90.45
390.447	88.4
390.657	55.64
390.867	84.31
391.076	-5.8
391.286	55.64
391.496	84.31
391.705	29.01
391.915	88.4
392.125	84.31
392.334	84.31
392.544	104.79
392.753	55.64
392.963	158.03
393.172	10.58
393.382	100.69
393.591	90.45
393.801	24.92
394.01	47.44
394.22	41.3
394.429	72.02
394.639	45.4
394.848	67.92
395.058	74.07
395.267	129.36
395.477	90.45
395.686	84.31
395.895	172.37
396.105	76.12
396.314	78.16
396.524	137.56
396.733	92.5
396.942	194.9
397.152	121.17
397.361	80.21
397.57	143.7
397.78	110.93
397.989	39.25
398.198	117.08
398.407	86.36
398.617	141.65
398.826	43.35
399.035	112.98
399.244	43.35
399.453	117.08
399.663	110.93
399.872	129.36
400.081	78.16
400.29	117.08
400.499	106.84
400.708	84.31
400.917	125.27
401.127	88.4
401.336	166.23
401.545	119.12
401.754	112.98
401.963	98.64
402.172	137.56
402.381	78.16
402.59	127.32
402.799	129.36
403.008	90.45
403.217	78.16
403.426	78.16
403.635	141.65
403.844	127.32
404.053	115.03
404.262	53.59
404.471	123.22
404.68	153.94
404.888	137.56
405.097	110.93
405.306	121.17
405.515	94.55
405.724	125.27
405.933	174.42
406.142	129.36
406.35	106.84
406.559	178.51
406.768	98.64
406.977	135.51
407.185	203.09
407.394	190.8
407.603	207.19
407.812	180.56
408.02	248.15
408.229	170.32
408.438	227.67
408.646	94.55
408.855	153.94
409.064	231.76
409.272	203.09
409.481	209.23
409.69	297.3
409.898	184.66
410.107	295.25
410.315	295.25
410.524	293.2
410.733	260.43
410.941	219.47
411.15	364.88
411.358	360.78
411.567	334.16
411.775	457.04
411.984	319.82
412.192	350.54
412.401	393.55
412.609	469.33
412.818	432.46
413.026	450.89
413.234	422.22
413.443	426.32
413.651	459.09
413.86	508.24
414.068	506.19
414.276	543.05
414.485	498
414.693	555.34
414.901	588.11
415.11	571.72
415.318	624.97
415.526	635.21
415.734	629.07
415.943	639.31
416.151	647.5
416.359	739.66
416.567	690.51
416.776	790.86
416.984	801.1
417.192	842.06
417.4	844.1
417.608	825.67
417.817	899.4
418.025	858.44
418.233	934.22
418.441	981.32
418.649	977.22
418.857	1055.05
419.065	1108.29
419.273	1081.67
419.481	1208.64
419.689	1130.82
419.897	1259.84
420.105	1317.19
420.313	1235.27
420.521	1333.57
420.729	1433.92
420.937	1366.34
421.145	1530.17
421.353	1417.54
421.561	1673.53
421.769	1595.71
421.977	1638.72
422.185	1653.05
422.393	1874.23
422.601	1945.91
422.809	1972.54
423.017	1952.06
423.224	1947.96
423.432	2044.21
423.64	2103.61
423.848	2304.31
424.056	2193.72
424.263	2394.42
424.471	2251.06
424.679	2539.82
424.887	2396.46
425.094	2677.04
425.302	2617.65
425.51	2836.78
425.718	2711.85
425.925	2873.64
426.133	3000.62
426.341	3268.9
426.548	3299.62
426.756	3365.15
426.964	3365.15
427.171	3473.7
427.379	3633.44
427.586	3610.91
427.794	3856.67
428.001	3905.82
428.209	4020.5
428.417	3981.59
428.624	4423.95
428.832	4526.35
429.039	4454.67
429.247	4352.27
429.454	4606.22
429.662	5126.41
429.869	4882.7
430.076	4931.85
430.284	4937.99
430.491	5243.14
430.699	5388.55
430.906	5335.3
431.114	5468.42
431.321	5812.48
431.528	5703.93
431.736	6170.87
431.943	6422.77
432.15	6256.89
432.358	6455.54
432.565	6754.54
432.772	6775.02
432.979	7098.6
433.187	6895.85
433.394	7391.46
433.601	7633.12
433.808	7801.05
434.016	7739.62
434.223	7827.68
434.43	8556.75
434.637	8167.64
434.844	8818.89
435.052	9042.12
435.259	8853.71
435.466	9011.4
435.673	9044.17
435.88	9515.2
436.087	9896.13
436.294	9863.36
436.501	9867.45
436.708	9910.46
436.915	10254.52
437.122	10762.42
437.329	10698.93
437.537	11100.33
437.743	11200.68
437.95	11126.96
438.157	11862.18
438.364	12388.5
438.571	12116.12
438.778	12220.57
438.985	13301.9
439.192	12734.61
439.399	13158.54
439.606	13027.47
439.813	13695.11
440.02	14717.04
440.227	14119.04
440.433	13961.34
440.64	14590.07
440.847	14450.81
441.054	14876.79
441.261	15788.13
441.467	15601.77
441.674	15640.68
441.881	16451.67
442.088	16547.93
442.294	16296.03
442.501	16699.48
442.708	17221.71
442.914	17877.06
443.121	18251.84
443.328	18081.86
443.534	19572.78
443.741	18722.87
443.948	18358.33
444.154	19800.1
444.361	19691.56
444.568	19791.91
444.774	19800.1
444.981	20371.49
445.187	20809.75
445.394	21805.06
445.6	21379.09
445.807	23361.52
446.013	22675.45
446.22	22630.4
446.426	23597.04
446.633	23871.47
446.839	24434.66
447.046	24061.93
447.252	24999.9
447.459	25253.84
447.665	25184.21
447.871	26034.12
448.078	27256.76
448.284	25884.62
448.491	26793.92
448.697	27639.73
448.903	28129.19
449.11	28293.03
449.316	27961.26
449.522	28284.84
449.728	29294.49
449.935	29374.36
450.141	29417.36
450.347	29980.56
450.553	29472.66
450.76	29542.29
450.966	30486.4
451.172	30457.73
451.378	30984.06
451.584	30404.49
451.791	31192.95
451.997	30844.8
452.203	31711.09
452.409	31872.88
452.615	31270.78
452.821	30308.23
453.027	29988.75
453.233	31692.66
453.44	30322.57
453.646	30742.4
453.852	30904.19
454.058	31311.74
454.264	30652.29
454.47	31197.05
454.676	30306.18
454.882	31362.93
455.088	28741.53
455.294	29302.68
455.5	29595.54
455.705	30009.23
455.911	28540.83
456.117	28231.59
456.323	27670.45
456.529	26255.3
456.735	27807.66
456.941	26959.8
457.147	26306.5
457.352	25550.8
457.558	25317.33
457.764	25728.97
457.97	25001.94
458.176	24563.68
458.381	24549.34
458.587	22947.83
458.793	23197.68
458.999	21981.19
459.204	23627.76
459.41	23042.04
459.616	21405.71
459.821	21135.38
460.027	21501.97
460.233	20807.7
460.438	20109.35
460.644	20013.09
460.85	19042.35
461.055	18831.41
461.261	18901.04
461.466	17715.27
461.672	16699.48
461.878	18151.49
462.083	16922.71
462.289	16701.53
462.494	16304.22
462.7	15986.79
462.905	15226.99
463.111	15925.35
463.316	15722.6
463.522	15659.11
463.727	15417.45
463.932	15419.5
464.138	15216.75
464.343	15480.94
464.549	15130.73
464.754	15370.35
464.959	15327.34
465.165	15194.22
465.37	14610.55
465.575	14020.74
465.781	14919.79
465.986	15087.73
466.191	14395.51
466.397	14155.9
466.602	13324.43
466.807	13805.7
467.012	13926.53
467.218	13875.33
467.423	13703.3
467.628	13766.79
467.833	14483.58
468.038	13811.84
468.244	13590.66
468.449	13949.06
468.654	13498.5
468.859	13363.34
469.064	13353.1
469.269	12669.08
469.474	13062.29
469.679	13101.2
469.885	12558.49
470.09	12904.59
470.295	12992.66
470.5	12550.29
470.705	12605.59
470.91	12597.4
471.115	12245.15
471.32	12316.83
471.525	12443.8
471.73	12077.21
471.935	12056.73
472.139	11767.97
472.344	11528.36
472.549	11712.67
472.754	11696.29
472.959	11102.38
473.164	11219.11
473.369	11079.85
473.574	11483.3
473.778	11083.95
473.983	11051.18
474.188	11040.94
474.393	10803.38
474.598	10723.51
474.802	10461.37
475.007	10483.89
475.212	10625.2
475.417	9951.42
475.621	10295.48
475.826	9916.61
476.031	9767.1
476.235	9691.33
476.44	10041.53
476.645	9629.89
476.849	9584.84
477.054	9453.77
477.259	9560.26
477.463	9478.34
477.668	9054.41
477.872	9359.56
478.077	9150.67
478.282	8952.01
478.486	8988.88
478.691	8683.73
478.895	8978.64
479.1	8698.06
479.304	8734.93
479.509	8632.53
479.713	8497.36
479.918	8345.81
480.122	8304.85
480.326	8442.07
480.531	8241.37
480.735	8280.28
480.94	8364.25
481.144	8343.77
481.348	7934.17
481.553	8349.91
481.757	7925.98
481.961	7968.99
482.166	8341.72
482.37	8300.76
482.574	7885.02
482.778	8077.53
482.983	8143.07
483.187	7979.23
483.391	8224.98
483.595	8016.09
483.8	7899.36
484.004	8050.91
484.208	8220.89
484.412	8124.63
484.616	8038.62
484.821	8141.02
485.025	7930.08
485.229	8120.54
485.433	8055
485.637	8026.33
485.841	8059.1
486.045	7985.37
486.249	7909.6
486.453	8177.88
486.657	7954.65
486.861	8030.43
487.065	7839.97
487.269	7993.56
487.473	8022.23
487.677	7921.88
487.881	8255.7
488.085	7909.6
488.289	8104.15
488.493	8085.72
488.697	7999.71
488.901	8138.97
489.105	8233.18
489.309	8073.43
489.512	8206.55
489.716	8235.22
489.92	8079.58
490.124	8087.77
490.328	8288.47
490.531	8116.44
490.735	8407.25
490.939	8403.16
491.143	8210.65
491.346	8415.44
491.55	8550.61
491.754	8364.25
491.958	8472.79
492.161	8407.25
492.365	8495.32
492.569	8446.16
492.772	8450.26
492.976	8700.11
493.18	8583.38
493.383	8847.57
493.587	8706.26
493.79	8872.14
493.994	8794.32
494.197	8927.44
494.401	8890.57
494.605	8943.82
494.808	9060.56
495.012	9029.84
495.215	9072.84
495.419	9234.63
495.622	8945.87
495.825	9255.11
496.029	9515.2
496.232	9353.41
496.436	9535.68
496.639	9701.57
496.843	9488.58
497.046	9871.55
497.249	9945.28
497.453	10057.92
497.656	10098.88
497.859	10270.9
498.063	10141.88
498.266	10352.82
498.469	10447.03
498.673	10426.55
498.876	10715.31
499.079	10793.14
499.282	10799.28
499.485	10977.45
499.689	10854.58
499.892	11182.25
500.095	11100.33
500.298	11528.36
500.501	11319.46
500.705	11638.95
500.908	11802.79
501.111	11952.29
501.314	11880.61
501.517	11761.83
501.72	12241.05
501.923	12425.37
502.126	12576.92
502.329	12644.5
502.532	12726.42
502.735	12867.73
502.938	13172.88
503.141	13213.84
503.344	13547.65
503.547	13346.95
503.75	13490.31
503.953	13906.05
504.156	13863.04
504.359	14256.25
504.562	14063.74
504.765	14219.39
504.968	14610.55
505.17	14432.38
505.373	14674.04
505.576	14917.75
505.779	14934.13
505.982	15460.46
506.185	15450.22
506.387	15503.46
506.59	15548.52
506.793	15986.79
506.996	15849.57
507.198	16265.31
507.401	16150.62
507.604	16582.74
507.807	16816.21
508.009	16771.16
508.212	16992.34
508.415	17064.02
508.617	17594.44
508.82	17422.41
509.022	17557.58
509.225	17784.9
509.428	17838.15
509.63	18176.06
509.833	18051.14
510.035	18595.9
510.238	18493.5
510.44	18931.76
510.643	18997.3
510.845	19085.36
511.048	19134.51
511.25	19392.56
511.453	19687.46
511.655	20090.91
511.858	19943.46
512.06	20142.11
512.262	20357.15
512.465	20545.56
512.667	20813.85
512.87	21254.16
513.072	21108.76
513.274	21415.95
513.477	21499.92
513.679	21757.96
513.881	21852.17
514.084	21987.33
514.286	22302.72
514.488	22523.9
514.69	22849.53
514.893	22794.23
515.095	22855.67
515.297	23394.29
515.499	23451.63
515.701	23642.09
515.904	23937
516.106	24334.31
516.308	24508.38
516.51	24432.61
516.712	24987.61
516.914	24741.85
517.116	25343.95
517.318	25305.04
517.52	25206.74
517.722	25636.81
517.925	26034.12
518.127	26097.61
518.329	26322.88
518.531	26322.88
518.733	26812.35
518.935	26865.6
519.136	27066.3
519.338	27336.63
519.54	27494.32
519.742	27500.47
519.944	27836.33
520.146	28338.08
520.348	28452.77
520.55	28704.67
520.752	28667.81
520.954	29142.94
521.155	28899.23
521.357	29353.88
521.559	29339.54
521.761	30175.11
521.963	29886.35
522.164	30009.23
522.366	30422.92
522.568	30695.3
522.77	30642.05
522.971	31025.02
523.173	30683.01
523.375	31197.05
523.576	31242.1
523.778	31291.26
523.98	31692.66
524.181	31987.57
524.383	31780.72
524.584	32229.23
524.786	32053.1
524.988	32315.24
525.189	32712.55
525.391	32804.7
525.592	32978.78
525.794	32634.72
525.995	33019.74
526.197	33113.95
526.398	33165.15
526.6	33728.34
526.801	33711.95
527.003	33703.76
527.204	33740.63
527.406	34142.03
527.607	33998.67
527.808	34684.74
528.01	33855.31
528.211	34269
528.412	34918.21
528.614	34205.52
528.815	34791.23
529.016	35114.81
529.218	34516.81
529.419	34785.09
529.62	34760.51
529.822	35112.77
530.023	34832.19
530.224	35258.17
530.425	35366.71
530.626	35004.22
530.828	34877.25
531.029	35694.39
531.23	35233.6
531.431	35354.43
531.632	35288.89
531.833	35591.99
532.035	35727.16
532.236	35514.17
532.437	35856.18
532.638	35544.89
532.839	35825.46
533.04	35794.74
533.241	35110.72
533.442	36224.81
533.643	35718.96
533.844	36024.11
534.045	36204.33
534.246	35278.65
534.447	36138.8
534.648	35786.55
534.849	36220.72
535.05	35845.94
535.251	36386.6
535.451	35575.61
535.652	35921.71
535.853	35940.14
536.054	35895.09
536.255	35839.79
536.456	36011.82
536.657	36144.94
536.857	35792.69
537.058	35911.47
537.259	36190
537.46	36091.69
537.66	35917.62
537.861	36067.12
538.062	36015.92
538.263	36013.87
538.463	35962.67
538.664	35749.68
538.865	35952.43
539.065	35942.19
539.266	35747.64
539.466	36101.93
539.667	35630.9
539.868	36374.31
540.068	35923.76
540.269	35786.55
540.469	35987.25
540.67	35811.12
540.87	35725.11
541.071	35809.07
541.271	35815.22
541.472	35757.88
541.672	35460.92
541.873	35673.91
542.073	35649.33
542.274	36030.26
542.474	35927.86
542.675	35630.9
542.875	36218.67
543.075	35999.54
543.276	35409.72
543.476	35938.1
543.676	35821.36
543.877	35970.86
544.077	35704.63
544.277	35450.68
544.478	35927.86
544.678	36028.21
544.878	35917.62
545.078	35569.46
545.279	35743.54
545.479	35448.63
545.679	35911.47
545.879	36030.26
546.079	35962.67
546.28	35684.15
546.48	35516.22
546.68	35456.82
546.88	35534.65
547.08	35825.46
547.28	35665.72
547.48	35424.06
547.68	35776.31
547.88	35411.77
548.081	35327.8
548.281	35682.1
548.481	35446.58
548.681	35862.32
548.881	35712.82
549.081	35333.95
549.28	35469.11
549.48	35866.42
549.68	35217.21
549.88	35727.16
550.08	35301.18
550.28	35477.3
550.48	35223.36
550.68	35575.61
550.88	35376.95
551.08	35258.17
551.279	35608.37
551.479	35188.54
551.679	35473.21
551.879	35243.84
552.079	35262.27
552.278	35012.42
552.478	35344.19
552.678	35118.91
552.878	35589.94
553.077	35245.88
553.277	34967.36
553.477	35346.23
553.676	35430.2
553.876	35432.25
554.076	35356.47
554.275	35262.27
554.475	34727.75
554.674	35075.9
554.874	34924.35
555.074	34948.93
555.273	35174.2
555.473	35252.03
555.672	34950.98
555.872	34797.38
556.071	34643.78
556.271	35004.22
556.47	34551.62
556.67	34879.3
556.869	34731.84
557.068	34907.97
557.268	34629.44
557.467	34707.27
557.667	34287.43
557.866	34338.63
558.065	34404.17
558.265	34099.02
558.464	34193.23
558.663	35016.51
558.863	34150.22
559.062	34543.43
559.261	34211.66
559.461	34625.35
559.66	33742.67
559.859	34146.12
560.058	33783.63
560.258	34355.02
560.457	34178.89
560.656	33859.41
560.855	33881.94
561.054	34010.96
561.253	33488.73
561.453	33736.53
561.652	33904.46
561.851	33812.31
562.05	33517.4
562.249	33912.66
562.448	33742.67
562.647	33970
562.846	33288.03
563.045	33539.93
563.244	33191.77
563.443	33804.11
563.642	32808.8
563.841	33341.27
564.04	32831.33
564.239	33474.39
564.438	32905.06
564.637	33093.47
564.836	33279.83
565.035	32556.9
565.234	32706.4
565.432	32253.8
565.631	32356.2
565.83	32667.49
566.029	32280.42
566.228	32534.37
566.427	32558.95
566.625	32524.13
566.824	31786.86
567.023	32352.1
567.222	32110.44
567.42	32223.08
567.619	32276.33
567.818	32288.62
568.016	31614.83
568.215	32202.6
568.414	31889.26
568.612	32044.91
568.811	31565.68
569.01	31956.85
569.208	31422.33
569.407	31440.76
569.605	31330.17
569.804	31606.64
570.002	31115.13
570.201	31176.57
570.4	31088.51
570.598	31133.56
570.797	30932.86
570.995	30691.2
571.193	30787.46
571.392	31004.54
571.59	30312.33
571.789	30482.31
571.987	30150.54
572.186	30470.02
572.384	30300.04
572.582	30164.87
572.781	30590.85
572.979	29745.04
573.177	30017.42
573.376	30107.53
573.574	30113.67
573.772	30252.94
573.971	29507.48
574.169	29581.2
574.367	29695.89
574.565	29704.08
574.763	29675.41
574.962	29353.88
575.16	29075.35
575.358	29542.29
575.556	28942.24
575.754	29478.8
575.952	29026.2
576.151	28805.02
576.349	28866.46
576.547	28786.59
576.745	29007.77
576.943	28624.8
577.141	28956.57
577.339	28815.26
577.537	28809.12
577.735	28587.94
577.933	28250.02
578.131	28223.4
578.329	28409.76
578.527	28276.65
578.725	28161.96
578.923	28409.76
579.121	28041.13
579.319	28061.61
579.516	28106.66
579.714	28022.7
579.912	27858.86
580.11	27711.41
580.308	27908.01
580.506	27805.61
580.704	27402.16
580.901	27692.97
581.099	27568.05
581.297	27381.68
581.495	27355.06
581.692	27566
581.89	26765.24
582.088	27312.05
582.285	27162.55
582.483	26967.99
582.681	26689.47
582.878	26992.57
583.076	26732.48
583.274	26931.13
583.471	26582.98
583.669	27039.67
583.866	26472.39
584.064	26433.47
584.262	26345.41
584.459	26744.77
584.657	25929.67
584.854	26392.51
585.052	25798.6
585.249	26058.7
585.447	25982.92
585.644	25733.07
585.841	25778.12
586.039	26001.35
586.236	25542.61
586.434	25303
586.631	25307.09
586.828	25487.31
587.026	25571.28
587.223	25518.03
587.42	25147.35
587.618	25534.42
587.815	25047
588.012	24860.63
588.21	24979.42
588.407	24866.78
588.604	24950.74
588.801	24584.16
588.999	24838.11
589.196	24461.28
589.393	24471.52
589.59	24444.9
589.787	24287.2
589.984	24344.55
590.182	24350.69
590.379	24332.26
590.576	23873.51
590.773	24258.53
590.97	24207.33
591.167	24227.81
591.364	23842.79
591.561	23965.67
591.758	23785.45
591.955	23707.63
592.152	24063.97
592.349	23332.85
592.546	23603.18
592.743	23832.55
592.94	23121.91
593.137	23543.79
593.334	23572.46
593.531	23193.59
593.727	23160.82
593.924	23017.46
594.121	22769.66
594.318	23332.85
594.515	22818.81
594.712	23099.38
594.908	22783.99
595.105	22939.64
595.302	22521.85
595.499	22636.54
595.696	22632.44
595.892	22331.39
596.089	22484.99
596.286	22431.74
596.482	22286.34
596.679	22378.5
596.876	22280.19
597.072	21805.06
597.269	22157.32
597.466	21860.36
597.662	21669.9
597.859	21997.57
598.055	21676.04
598.252	21512.21
598.448	21800.97
598.645	21323.79
598.841	21319.7
599.038	21475.34
599.234	21196.82
599.431	21215.25
599.627	21291.02
599.824	21286.93
600.02	21397.52
600.217	21110.8
600.413	20695.07
600.609	20871.19
600.806	20965.4
601.002	20658.2
601.198	20473.88
601.395	20899.86
601.591	20504.6
601.787	20834.33
601.984	20613.15
602.18	20772.89
602.376	20459.55
602.572	20209.7
602.769	20060.2
602.965	20230.18
603.161	20107.3
603.357	20477.98
603.553	20041.76
603.75	19871.78
603.946	19765.29
604.142	20107.3
604.338	19705.9
604.534	19791.91
604.73	19802.15
604.926	19640.36
605.122	19734.57
605.318	19386.41
605.514	19472.43
605.71	19451.95
605.906	19421.23
606.102	19376.17
606.298	19091.51
606.494	19142.71
606.69	19216.43
606.886	19126.32
607.082	19044.4
607.278	19157.04
607.474	18741.3
607.67	18970.68
607.866	18612.28
608.062	18950.2
608.257	18835.51
608.453	18960.44
608.649	18847.8
608.845	18518.07
609.041	18817.08
609.236	18624.57
609.432	18401.34
609.628	18505.79
609.824	18528.31
610.019	18333.76
610.215	18681.91
610.411	18597.95
610.606	18305.09
610.802	18217.02
610.998	18466.88
611.193	18227.26
611.389	18102.34
611.584	17985.6
611.78	18020.42
611.976	18038.85
612.171	18184.26
612.367	18028.61
612.562	18100.29
612.758	17846.34
612.953	17725.51
613.149	18083.91
613.344	17676.36
613.539	17885.25
613.735	17647.69
613.93	17911.88
614.126	17764.42
614.321	17856.58
614.517	17666.12
614.712	17770.57
614.907	17680.46
615.103	17858.63
615.298	17477.71
615.493	17526.86
615.688	17322.06
615.884	17539.15
616.079	17248.33
616.274	17524.81
616.47	17410.12
616.665	17391.69
616.86	17311.82
617.055	17342.54
617.25	17363.02
617.445	17344.59
617.641	16838.74
617.836	16877.65
618.031	16670.81
618.226	17004.63
618.421	16963.67
618.616	16842.84
618.811	16681.05
619.006	16851.03
619.201	16396.38
619.396	16646.23
619.591	16441.43
619.786	16431.19
619.981	16298.08
620.176	16609.37
620.371	16136.29
620.566	16126.05
620.761	16136.29
620.956	16095.33
621.151	16048.22
621.346	15997.03
621.541	15659.11
621.735	16031.84
621.93	15591.53
622.125	15720.55
622.32	15515.75
622.515	15728.74
622.709	15607.91
622.904	15276.14
623.099	15229.04
623.294	15349.87
623.488	15218.8
623.683	15376.49
623.878	14776.44
624.072	14901.36
624.267	14893.17
624.462	14614.65
624.656	14598.26
624.851	14624.89
625.046	14526.58
625.24	14481.53
625.435	14209.15
625.629	14250.11
625.824	14268.54
626.018	14391.42
626.213	13844.61
626.407	14016.64
626.602	13809.79
626.796	13916.29
626.991	13787.27
627.185	13613.19
627.38	13713.54
627.574	13336.71
627.768	13404.3
627.963	13275.27
628.157	13371.53
628.352	13252.75
628.546	13166.73
628.74	13203.6
628.935	12865.68
629.129	12953.74
629.323	13058.19
629.517	12949.65
629.712	12937.36
629.906	12861.59
630.1	12542.1
630.294	12718.23
630.489	12646.55
630.683	12581.01
630.877	12064.93
631.071	12241.05
631.265	12441.75
631.459	12114.08
631.653	12109.98
631.848	12193.95
632.042	11876.51
632.236	12109.98
632.43	11933.86
632.624	11817.12
632.818	12013.73
633.012	11800.74
633.206	11544.74
633.4	11610.28
633.594	11591.84
633.788	11520.17
633.982	11493.54
634.176	11462.82
634.369	11327.66
634.563	11303.08
634.757	11133.1
634.951	11341.99
635.145	10985.65
635.339	10979.5
635.533	10879.15
635.726	11002.03
635.92	10834.1
636.114	10797.23
636.308	10737.84
636.501	10725.55
636.695	10735.79
636.889	10565.81
637.083	10500.28
637.276	10397.88
637.47	10289.34
637.664	10463.41
637.857	10479.8
638.051	10258.62
638.244	10184.89
638.438	10348.73
638.632	10170.55
638.825	10135.74
639.019	10150.07
639.212	9941.18
639.406	9922.75
639.599	9855.17
639.793	9816.26
639.986	9765.06
640.18	9658.56
640.373	9689.28
640.567	9705.67
640.76	9697.47
640.954	9476.29
641.147	9599.17
641.34	9382.09
641.534	9222.34
641.727	9316.55
641.92	9439.43
642.114	9165
642.307	9128.14
642.5	9255.11
642.694	9060.56
642.887	8986.83
643.08	8995.02
643.273	9017.55
643.467	8997.07
643.66	8962.25
643.853	8749.26
644.046	8659.15
644.239	8624.34
644.432	8718.54
644.626	8632.53
644.819	8726.74
645.012	8394.97
645.205	8507.6
645.398	8657.11
645.591	8384.73
645.784	8468.69
645.977	8540.37
646.17	8319.19
646.363	8206.55
646.556	8026.33
646.749	8255.7
646.942	8349.91
647.135	8104.15
647.328	8069.34
647.521	7987.42
647.714	8030.43
647.907	7878.88
648.099	7835.87
648.292	7893.21
648.485	7956.7
648.678	7823.58
648.871	7784.67
649.064	7661.79
649.256	7667.94
649.449	7581.92
649.642	7459.04
649.835	7440.61
650.027	7370.98
650.22	7416.04
650.413	7469.28
650.605	7254.25
650.798	7266.53
650.991	7295.21
651.183	7397.6
651.376	7147.75
651.568	7133.42
651.761	7031.02
651.954	7133.42
652.146	7061.74
652.339	7045.35
652.531	7168.23
652.724	6955.24
652.916	6822.13
653.109	6906.09
653.301	6818.03
653.494	6820.08
653.686	6748.4
653.879	6824.17
654.071	6633.71
654.263	6670.58
654.456	6600.94
654.648	6617.33
654.84	6615.28
655.033	6449.39
655.225	6541.55
655.417	6449.39
655.61	6418.68
655.802	6365.43
655.994	6347
656.186	6463.73
656.379	6314.23
656.571	6273.27
656.763	6070.52
656.955	6179.06
657.148	6238.45
657.34	6361.33
657.532	6041.85
657.724	5982.46
657.916	6174.97
658.108	6099.19
658.3	5998.84
658.492	6068.47
658.684	5808.38
658.876	5988.6
659.068	5802.24
659.26	5775.61
659.452	5832.96
659.644	5671.17
659.836	5708.03
660.028	5748.99
660.22	5460.23
660.412	5814.52
660.604	5579.01
660.796	5800.19
660.988	5603.58
661.18	5533.95
661.372	5333.25
661.563	5495.04
661.755	5380.36
661.947	5437.7
662.139	5435.65
662.331	5361.92
662.522	5153.03
662.714	5224.71
662.906	5273.86
663.097	5220.61
663.289	5089.54
663.481	5126.41
663.673	5173.51
663.864	5019.91
664.056	5118.22
664.247	5148.93
664.439	4974.86
664.631	4915.47
664.822	5101.83
665.014	4954.38
665.205	5030.15
665.397	4997.39
665.588	4937.99
665.78	5032.2
665.971	4880.65
666.163	4837.64
666.354	4833.55
666.546	4702.48
666.737	4751.63
666.929	4731.15
667.12	4663.57
667.311	4671.76
667.503	4710.67
667.694	4718.86
667.885	4557.07
668.077	4585.74
668.268	4489.49
668.459	4487.44
668.651	4481.3
668.842	4614.41
669.033	4407.57
669.224	4290.84
669.416	4440.34
669.607	4350.23
669.798	4294.93
669.989	4307.22
670.18	4317.46
670.371	4114.71
670.563	4301.08
670.754	4133.14
670.945	4217.11
671.136	4208.92
671.327	4225.3
671.518	4018.46
671.709	4229.4
671.9	4172.05
672.091	4192.53
672.282	4143.38
672.473	4024.6
672.664	4067.61
672.855	3961.11
673.046	4059.42
673.237	3987.74
673.428	4018.46
673.619	4002.07
673.809	4057.37
674	3752.22
674.191	3954.97
674.382	3907.87
674.573	3778.84
674.764	3799.32
674.954	3850.52
675.145	3772.7
675.336	3744.03
675.527	3930.39
675.717	3830.04
675.908	3725.6
676.099	3711.26
676.289	3680.54
676.48	3768.6
676.671	3653.92
676.861	3733.79
677.052	3615.01
677.243	3557.66
677.433	3627.29
677.624	3643.68
677.814	3686.69
678.005	3590.43
678.195	3557.66
678.386	3574.05
678.576	3504.42
678.767	3516.7
678.957	3440.93
679.148	3567.9
679.338	3547.42
679.529	3373.35
679.719	3488.03
679.909	3580.19
680.1	3502.37
680.29	3375.39
680.481	3422.5
680.671	3379.49
680.861	3383.59
681.052	3369.25
681.242	3324.19
681.432	3393.83
681.622	3336.48
681.813	3354.91
682.003	3299.62
682.193	3201.32
682.383	3250.47
682.573	3168.55
682.764	3387.68
682.954	3207.46
683.144	3193.12
683.334	3178.79
683.524	3236.13
683.714	3176.74
683.904	3164.45
684.094	3172.64
684.284	3092.77
684.474	3195.17
684.664	3019.05
684.854	3082.53
685.044	3098.92
685.234	3115.3
685.424	3043.62
685.614	3051.81
685.804	3041.57
685.994	2980.14
686.184	3078.44
686.374	2990.38
686.564	2930.98
686.753	3057.96
686.943	3043.62
687.133	3031.34
687.323	2769.2
687.513	2824.49
687.702	2973.99
687.892	2822.44
688.082	2881.83
688.272	2883.88
688.461	2801.96
688.651	2961.7
688.841	2810.15
689.03	2789.67
689.22	2730.28
689.41	2799.91
689.599	2797.87
689.789	2705.71
689.979	2726.19
690.168	2820.39
690.358	2744.62
690.547	2824.49
690.737	2799.91
690.926	2595.12
691.116	2629.93
691.305	2695.47
691.495	2613.55
691.684	2677.04
691.874	2556.21
692.063	2670.89
692.252	2685.23
692.442	2734.38
692.631	2625.84
692.82	2513.2
693.01	2603.31
693.199	2548.01
693.388	2558.25
693.578	2511.15
693.767	2556.21
693.956	2627.89
694.146	2566.45
694.335	2468.14
694.524	2464.05
694.713	2453.81
694.902	2498.86
695.092	2384.18
695.281	2466.1
695.47	2492.72
695.659	2414.9
695.848	2570.54
696.037	2320.69
696.226	2455.86
696.415	2455.86
696.604	2451.76
696.793	2431.28
696.982	2378.03
697.171	2373.94
697.36	2425.14
697.549	2316.59
697.738	2375.99
697.927	2206
698.116	2468.14
698.305	2279.73
698.494	2279.73
698.683	2279.73
698.872	2357.55
699.061	2292.02
699.25	2378.03
699.438	2373.94
699.627	2275.63
699.816	2294.07
700.005	2349.36
700.193	2214.2
700.382	2249.01
700.571	2285.87
700.76	2283.83
700.948	2373.94
701.137	2171.19
701.326	2222.39
701.514	2234.68
701.703	2322.74
701.892	2142.52
702.08	2259.25
702.269	2195.76
702.457	2255.15
702.646	2300.21
702.834	2193.72
703.023	2113.85
703.212	2146.61
703.4	2232.63
703.589	2175.28
703.777	2224.44
703.965	2191.67
704.154	2226.48
704.342	2169.14
704.531	2230.58
704.719	2156.85
704.907	2369.84
705.096	2134.32
705.284	2210.1
705.472	2277.68
705.661	2201.91
705.849	2318.64
706.037	2259.25
706.226	2105.65
706.414	2193.72
706.602	2201.91
706.79	2296.11
706.979	2253.11
707.167	2146.61
707.355	2117.94
707.543	2177.33
707.731	2251.06
707.919	2107.7
708.107	2132.28
708.296	2160.95
708.484	2165.04
708.672	2238.77
708.86	2089.27
709.048	2175.28
709.236	2257.2
709.424	2152.76
709.612	2218.29
709.8	2119.99
709.988	2111.8
710.176	2275.63
710.364	2203.96
710.551	2115.89
710.739	2267.44
710.927	2210.1
711.115	2087.22
711.303	2085.17
711.491	2146.61
711.679	2107.7
711.866	2087.22
712.054	2177.33
712.242	2177.33
712.43	2203.96
712.617	2126.13
712.805	2220.34
712.993	2171.19
713.181	2076.98
713.368	2136.37
713.556	2224.44
713.744	2095.41
713.931	2206
714.119	2119.99
714.306	2111.8
714.494	2189.62
714.682	2230.58
714.869	2062.65
715.057	2124.08
715.244	2025.78
715.432	2179.38
715.619	2199.86
715.807	2136.37
715.994	2105.65
716.182	2117.94
716.369	2128.18
716.556	2064.69
716.744	2165.04
716.931	2109.75
717.119	2222.39
717.306	1970.49
717.493	2052.41
717.681	2056.5
717.868	2163
718.055	2134.32
718.242	2138.42
718.43	2238.77
718.617	2128.18
718.804	2111.8
718.991	2169.14
719.179	2128.18
719.366	2132.28
719.553	2117.94
719.74	2089.27
719.927	2076.98
720.114	2214.2
720.301	2070.84
720.488	1990.97
720.676	2132.28
720.863	2144.56
721.05	2242.87
721.237	2017.59
721.424	2099.51
721.611	2197.81
721.798	2191.67
721.985	2128.18
722.172	2064.69
722.358	2083.13
722.545	2132.28
722.732	2163
722.919	2085.17
723.106	2119.99
723.293	2040.12
723.48	2033.97
723.667	2212.15
723.853	2103.61
724.04	2150.71
724.227	2146.61
724.414	2038.07
724.6	2105.65
724.787	2107.7
724.974	2103.61
725.161	2203.96
725.347	2052.41
725.534	1962.3
725.72	2255.15
725.907	2060.6
726.094	2160.95
726.28	2130.23
726.467	1990.97
726.653	2019.64
726.84	2187.57
727.027	2181.43
727.213	1993.01
727.4	2066.74
727.586	2216.24
727.773	2062.65
727.959	2005.3
728.145	2177.33
728.332	2056.5
728.518	2183.48
728.705	2060.6
728.891	2154.8
729.077	2070.84
729.264	2023.73
729.45	2017.59
729.636	2154.8
729.823	1964.34
730.009	2038.07
730.195	2169.14
730.382	2146.61
730.568	2183.48
730.754	2197.81
730.94	2232.63
731.126	2046.26
731.313	2163
731.499	2107.7
731.685	2122.04
731.871	2058.55
732.057	2124.08
732.243	2154.8
732.429	2173.24
732.615	2025.78
732.801	2029.88
732.987	2128.18
733.173	2124.08
733.359	2103.61
733.545	2091.32
733.731	2058.55
733.917	1995.06
734.103	2140.47
734.289	2119.99
734.475	2203.96
734.661	2113.85
734.847	2081.08
735.033	2070.84
735.219	2056.5
735.404	2103.61
735.59	2132.28
735.776	2046.26
735.962	2046.26
736.148	2111.8
736.333	2140.47
736.519	2072.89
736.705	2033.97
736.89	2027.83
737.076	1990.97
737.262	2122.04
737.447	2007.35
737.633	2038.07
737.819	2138.42
738.004	2040.12
738.19	2107.7
738.375	2027.83
738.561	1993.01
738.747	1980.73
738.932	1986.87
739.118	2087.22
739.303	1950.01
739.489	2003.25
739.674	1929.53
739.859	1833.27
740.045	2021.69
740.23	1902.9
740.416	1966.39
740.601	2017.59
740.786	1825.08
740.972	1933.62
741.157	1990.97
741.342	1915.19
741.528	2015.54
741.713	1968.44
741.898	1876.28
742.084	1954.1
742.269	1837.37
742.454	1911.1
742.639	1882.42
742.824	1902.9
743.01	1857.85
743.195	1890.62
743.38	1931.58
743.565	1907
743.75	1818.94
743.935	1761.59
744.12	1927.48
744.305	1812.79
744.49	1800.51
744.675	1808.7
744.86	1884.47
745.045	1853.75
745.23	1853.75
745.415	1771.83
745.6	1857.85
745.785	1847.61
745.97	1796.41
746.155	1853.75
746.34	1806.65
746.525	1706.3
746.71	1677.63
746.895	1777.98
747.079	1665.34
747.264	1706.3
747.449	1722.68
747.634	1622.33
747.819	1677.63
748.003	1655.1
748.188	1638.72
748.373	1677.63
748.557	1669.44
748.742	1614.14
748.927	1612.09
749.111	1632.57
749.296	1702.2
749.481	1571.13
749.665	1548.61
749.85	1589.57
750.034	1593.66
750.219	1526.08
750.404	1620.28
750.588	1534.27
750.773	1524.03
750.957	1462.59
751.141	1485.12
751.326	1456.45
751.51	1454.4
751.695	1583.42
751.879	1481.02
752.064	1507.65
752.248	1470.78
752.432	1489.21
752.617	1339.71
752.801	1440.06
752.985	1431.87
753.17	1466.69
753.354	1366.34
753.538	1452.35
753.722	1341.76
753.907	1429.82
754.091	1384.77
754.275	1294.66
754.459	1423.68
754.643	1333.57
754.828	1268.03
755.012	1335.62
755.196	1325.38
755.38	1376.58
755.564	1259.84
755.748	1210.69
755.932	1280.32
756.116	1306.95
756.3	1263.94
756.484	1302.85
756.668	1220.93
756.852	1243.46
757.036	1274.18
757.22	1302.85
757.404	1214.79
757.588	1196.36
757.772	1218.88
757.956	1143.11
758.14	1173.83
758.323	1128.77
758.507	1276.23
758.691	1206.59
758.875	1153.35
759.059	1177.92
759.242	1202.5
759.426	1098.05
759.61	1057.09
759.794	1055.05
759.977	1169.73
760.161	1235.27
760.345	1227.07
760.528	1114.44
760.712	1128.77
760.895	1073.48
761.079	1128.77
761.263	1059.14
761.446	1071.43
761.63	993.61
761.813	1020.23
761.997	1139.01
762.18	983.37
762.364	1063.24
762.547	1065.29
762.731	1106.24
762.914	1044.81
763.098	1030.47
763.281	1091.91
763.464	1128.77
763.648	1007.94
763.831	956.74
764.015	977.22
764.198	1046.85
764.381	1005.89
764.564	1022.28
764.748	1024.33
764.931	1032.52
765.114	960.84
765.297	975.17
765.481	981.32
765.664	936.26
765.847	934.22
766.03	1048.9
766.213	913.74
766.397	1016.13
766.58	946.5
766.763	930.12
766.946	928.07
767.129	909.64
767.312	932.17
767.495	952.65
767.678	926.02
767.861	944.45
768.044	852.3
768.227	835.91
768.41	799.05
768.593	907.59
768.776	872.78
768.959	921.93
769.142	948.55
769.324	854.34
769.507	854.34
769.69	866.63
769.873	846.15
770.056	1007.94
770.239	893.26
770.421	909.64
770.604	876.87
770.787	926.02
770.97	760.14
771.152	852.3
771.335	846.15
771.518	780.62
771.7	799.05
771.883	743.75
772.066	827.72
772.248	825.67
772.431	858.44
772.613	821.58
772.796	883.02
772.978	770.38
773.161	825.67
773.343	850.25
773.526	856.39
773.708	739.66
773.891	782.67
774.073	729.42
774.256	758.09
774.438	803.15
774.621	799.05
774.803	823.62
774.985	846.15
775.168	866.63
775.35	670.03
775.532	772.43
775.715	698.7
775.897	719.18
776.079	780.62
776.261	790.86
776.444	676.17
776.626	696.65
776.808	704.84
776.99	797
777.173	696.65
777.355	782.67
777.537	645.45
777.719	667.98
777.901	618.83
778.083	690.51
778.265	606.54
778.447	663.88
778.629	692.55
778.811	622.92
778.993	710.99
779.175	612.68
779.357	622.92
779.539	555.34
779.721	610.64
779.903	678.22
780.085	612.68
780.267	604.49
780.449	481.61
780.631	639.31
780.812	612.68
780.994	608.59
781.176	633.16
781.358	532.81
781.54	631.12
781.721	532.81
781.903	504.14
782.085	569.68
782.267	600.4
782.448	520.53
782.63	567.63
782.812	571.72
782.993	526.67
783.175	543.05
783.357	459.09
783.538	440.65
783.72	502.09
783.901	538.96
784.083	489.81
784.264	508.24
784.446	438.61
784.627	526.67
784.809	530.77
784.99	516.43
785.172	543.05
785.353	594.25
785.535	473.42
785.716	426.32
785.897	489.81
786.079	475.47
786.26	575.82
786.441	477.52
786.623	409.94
786.804	504.14
786.985	489.81
787.167	442.7
787.348	409.94
787.529	444.75
787.71	448.85
787.891	387.41
788.073	457.04
788.254	475.47
788.435	434.51
788.616	434.51
788.797	426.32
788.978	383.31
789.159	457.04
789.34	498
789.522	461.13
789.703	387.41
789.884	379.22
790.065	416.08
790.246	461.13
790.427	407.89
790.607	391.5
790.788	360.78
790.969	348.5
791.15	411.98
791.331	325.97
791.512	391.5
791.693	377.17
791.874	371.02
792.054	311.63
792.235	350.54
792.416	368.98
792.597	354.64
792.778	368.98
792.958	358.74
793.139	309.58
793.32	356.69
793.5	252.24
793.681	395.6
793.862	293.2
794.042	368.98
794.223	366.93
794.404	414.03
794.584	268.63
794.765	309.58
794.945	254.29
795.126	328.02
795.306	239.95
795.487	358.74
795.667	282.96
795.848	336.21
796.028	330.06
796.209	348.5
796.389	258.39
796.57	317.78
796.75	313.68
796.93	334.16
797.111	237.91
797.291	352.59
797.471	295.25
797.652	289.1
797.832	254.29
798.012	317.78
798.192	336.21
798.373	270.67
798.553	190.8
798.733	293.2
798.913	254.29
799.093	264.53
799.274	250.19
799.454	328.02
799.634	307.54
799.814	323.92
799.994	231.76
800.174	256.34
800.354	219.47
800.534	248.15
800.714	219.47
800.894	285.01
801.074	168.27
801.254	180.56
801.434	278.87
801.614	276.82
801.794	201.04
801.974	700.75
802.154	285.01
802.334	248.15
802.514	176.47
802.693	268.63
802.873	201.04
803.053	289.1
803.233	246.1
803.413	186.71
803.592	172.37
803.772	237.91
803.952	244.05
804.131	170.32
804.311	311.63
804.491	227.67
804.67	242
804.85	221.52
805.03	225.62
805.209	229.71
805.389	276.82
805.568	268.63
805.748	209.23
805.928	155.99
806.107	231.76
806.287	264.53
806.466	227.67
806.646	170.32
806.825	178.51
807.004	147.8
807.184	258.39
807.363	223.57
807.543	289.1
807.722	219.47
807.901	205.14
808.081	223.57
808.26	121.17
808.439	215.38
808.619	274.77
808.798	125.27
808.977	213.33
809.156	190.8
809.336	223.57
809.515	205.14
809.694	186.71
809.873	205.14
810.052	137.56
810.231	125.27
810.411	194.9
810.59	235.86
810.769	115.03
810.948	203.09
811.127	190.8
811.306	139.6
811.485	229.71
811.664	176.47
811.843	188.75
812.022	149.84
812.201	55.64
812.38	170.32
812.559	106.84
812.737	207.19
812.916	155.99
813.095	176.47
813.274	180.56
813.453	239.95
813.632	129.36
813.811	164.18
813.989	112.98
814.168	76.12
814.347	129.36
814.526	115.03
814.704	125.27
814.883	215.38
815.062	94.55
815.24	225.62
815.419	129.36
815.598	227.67
815.776	76.12
815.955	151.89
816.133	153.94
816.312	131.41
816.49	182.61
816.669	102.74
816.847	149.84
817.026	172.37
817.204	110.93
817.383	149.84
817.561	145.75
817.74	153.94
817.918	149.84
818.097	246.1
818.275	108.88
818.453	164.18
818.632	155.99
818.81	129.36
818.988	155.99
819.167	112.98
819.345	172.37
819.523	139.6
819.701	96.6
819.879	131.41
820.058	88.4
820.236	221.52
820.414	121.17
820.592	123.22
820.77	90.45
820.948	55.64
821.127	125.27
821.305	80.21
821.483	162.13
821.661	129.36
821.839	119.12
822.017	80.21
822.195	51.54
822.373	176.47
822.551	172.37
822.729	137.56
822.907	84.31
823.085	172.37
823.262	115.03
823.44	108.88
823.618	123.22
823.796	133.46
823.974	121.17
824.152	47.44
824.329	133.46
824.507	219.47
824.685	162.13
824.863	182.61
825.04	129.36
825.218	174.42
825.396	96.6
825.574	125.27
825.751	104.79
825.929	98.64
826.107	67.92
826.284	119.12
826.462	129.36
826.639	112.98
826.817	67.92
826.994	78.16
827.172	127.32
827.349	94.55
827.527	112.98
827.704	141.65
827.882	147.8
828.059	45.4
828.237	106.84
828.414	80.21
828.591	18.77
828.769	59.73
828.946	151.89
829.124	96.6
829.301	119.12
829.478	69.97
829.655	141.65
829.833	129.36
830.01	-9.9
830.187	104.79
830.364	67.92
830.542	84.31
830.719	145.75
830.896	90.45
831.073	86.36
831.25	78.16
831.427	82.26
831.604	82.26
831.782	45.4
831.959	115.03
832.136	84.31
832.313	43.35
832.49	106.84
832.667	106.84
832.844	92.5
833.021	57.68
833.198	63.83
833.374	104.79
833.551	26.96
833.728	53.59
833.905	67.92
834.082	108.88
834.259	53.59
834.436	98.64
834.612	0.34
834.789	88.4
834.966	74.07
835.143	35.16
835.319	63.83
835.496	4.44
835.673	108.88
835.85	104.79
836.026	141.65
836.203	186.71
836.38	74.07
836.556	80.21
836.733	6.49
836.909	115.03
837.086	49.49
837.262	14.68
837.439	26.96
837.616	117.08
837.792	37.2
837.968	72.02
838.145	22.87
838.321	63.83
838.498	43.35
838.674	65.88
838.851	78.16
839.027	178.51
839.203	76.12
839.38	90.45
839.556	100.69
839.732	145.75
839.909	55.64
840.085	145.75
840.261	65.88
840.437	59.73
840.614	45.4
840.79	39.25
840.966	65.88
841.142	86.36
841.318	47.44
841.494	80.21
841.671	96.6
841.847	74.07
842.023	76.12
842.199	59.73
842.375	-28.33
842.551	-5.8
842.727	41.3
842.903	80.21
843.079	31.06
843.255	139.6
843.431	29.01
843.607	121.17
843.783	22.87
843.959	92.5
844.134	4.44
844.31	80.21
844.486	45.4
844.662	12.63
844.838	47.44
845.013	45.4
845.189	90.45
845.365	74.07
845.541	22.87
845.716	104.79
845.892	14.68
846.068	108.88
846.244	100.69
846.419	137.56
846.595	35.16
846.77	-42.67
846.946	65.88
847.122	0.34
847.297	4.44
847.473	76.12
847.648	39.25
847.824	16.73
847.999	22.87
848.175	59.73
848.35	45.4
848.526	82.26
848.701	59.73
848.876	143.7
849.052	92.5
849.227	43.35
849.403	65.88
849.578	51.54
849.753	49.49
849.929	33.11
850.104	-5.8
850.279	10.58
850.454	57.68
850.63	24.92
850.805	80.21
850.98	51.54
851.155	51.54
851.33	98.64
851.505	63.83
851.681	86.36
851.856	65.88
852.031	43.35
852.206	63.83
852.381	119.12
852.556	45.4
852.731	72.02
852.906	-18.09
853.081	100.69
853.256	47.44
853.431	-13.99
853.606	63.83
853.781	100.69
853.956	-30.38
854.131	162.13
854.305	-32.43
854.48	41.3
854.655	49.49
854.83	35.16
855.005	39.25
855.18	10.58
855.354	0.34
855.529	63.83
855.704	-7.85
855.879	86.36
856.053	-9.9
856.228	35.16
856.403	2.39
856.577	53.59
856.752	-22.19
856.926	63.83
857.101	-1.71
857.276	63.83
857.45	55.64
857.625	76.12
857.799	82.26
857.974	20.82
858.148	-16.04
858.323	-36.52
858.497	72.02
858.672	76.12
858.846	16.73
859.02	35.16
859.195	10.58
859.369	14.68
859.543	53.59
859.718	26.96
859.892	16.73
860.066	69.97
860.241	-7.85
860.415	16.73
860.589	55.64
860.763	35.16
860.938	12.63
861.112	61.78
861.286	-9.9
861.46	8.53
861.634	-24.23
861.808	84.31
861.982	31.06
862.157	8.53
862.331	-30.38
862.505	37.2
862.679	-32.43
862.853	35.16
863.027	82.26
863.201	63.83
863.375	-59.05
863.549	94.55
863.722	18.77
863.896	45.4
864.07	41.3
864.244	-11.95
864.418	-5.8
864.592	82.26
864.766	14.68
864.939	43.35
865.113	61.78
865.287	115.03
865.461	41.3
865.634	57.68
865.808	0.34
865.982	59.73
866.156	-18.09
866.329	-22.19
866.503	6.49
866.676	14.68
866.85	-3.75
867.024	39.25
867.197	-3.75
867.371	74.07
867.544	12.63
867.718	26.96
867.891	51.54
868.065	57.68
868.238	24.92
868.412	55.64
868.585	74.07
868.759	0.34
868.932	-18.09
869.105	-11.95
869.279	-9.9
869.452	43.35
869.625	41.3
869.799	47.44
869.972	-5.8
870.145	39.25
870.319	100.69
870.492	35.16
870.665	59.73
870.838	8.53
871.011	-44.71
871.185	-18.09
871.358	10.58
871.531	24.92
871.704	63.83
871.877	43.35
872.05	55.64
872.223	14.68
872.396	-5.8
872.569	24.92
872.742	35.16
872.915	49.49
873.088	26.96
873.261	29.01
873.434	26.96
873.607	63.83
873.78	6.49
873.953	22.87
874.126	12.63
874.299	41.3
874.471	47.44
874.644	16.73
874.817	6.49
874.99	41.3
875.163	-34.47
875.335	6.49
875.508	49.49
875.681	61.78
875.853	-57
876.026	2.39
876.199	33.11
876.371	16.73
876.544	-26.28
876.717	65.88
876.889	26.96
877.062	47.44
877.234	-48.81
877.407	16.73
877.579	31.06
877.752	14.68
877.924	-50.86
878.097	94.55
878.269	-5.8
878.442	-32.43
878.614	47.44
878.786	104.79
878.959	16.73
879.131	65.88
879.303	-16.04
879.476	59.73
879.648	26.96
879.82	29.01
879.993	6.49
880.165	57.68
880.337	14.68
880.509	-13.99
880.681	-24.23
880.854	-1.71
881.026	49.49
881.198	51.54
881.37	76.12
881.542	14.68
881.714	18.77
881.886	57.68
882.058	14.68
882.23	31.06
882.402	16.73
882.574	78.16
882.746	0.34
882.918	74.07
883.09	37.2
883.262	-1.71
883.434	-5.8
883.606	-1.71
883.778	59.73
883.95	-7.85
884.122	45.4
884.293	37.2
884.465	0.34
884.637	-18.09
884.809	41.3
884.98	20.82
885.152	16.73
885.324	39.25
885.496	-61.1
885.667	-26.28
885.839	12.63
886.011	131.41
886.182	-18.09
886.354	37.2
886.525	18.77
886.697	2.39
886.869	14.68
887.04	33.11
887.212	39.25
887.383	37.2
887.555	24.92
887.726	-9.9
887.897	26.96
888.069	24.92
888.24	14.68
888.412	39.25
888.583	26.96
888.754	-13.99
888.926	-9.9
889.097	33.11
889.268	-40.62
889.44	22.87
889.611	45.4
889.782	65.88
889.953	10.58
890.125	-11.95
890.296	0.34
890.467	39.25
890.638	-16.04
890.809	-5.8
890.98	-1.71
891.151	-5.8
891.323	86.36
891.494	-22.19
891.665	45.4
891.836	35.16
892.007	-9.9
892.178	82.26
892.349	41.3
892.52	49.49
892.691	47.44
892.862	-7.85
893.032	-32.43
893.203	-32.43
893.374	0.34
893.545	47.44
893.716	-5.8
893.887	90.45
894.057	76.12
894.228	-24.23
894.399	-16.04
894.57	20.82
894.74	-9.9
894.911	49.49
895.082	35.16
895.253	41.3
895.423	26.96
895.594	24.92
895.764	31.06
895.935	41.3
896.106	55.64
896.276	18.77
896.447	16.73
896.617	8.53
896.788	-34.47
896.958	14.68
897.129	72.02
897.299	-16.04
897.47	35.16
897.64	22.87
897.81	-38.57
897.981	59.73
898.151	-13.99
898.322	47.44
898.492	78.16
898.662	67.92
898.832	67.92
899.003	26.96
899.173	-40.62
899.343	-9.9
899.513	2.39
