Data from USB4F104151__27__13-10-47-664.txt Node

Date: Fri Mar 14 13:10:47 EDT 2025
User: louis
Spectrometer: USB4F10415
Trigger mode: 4
Integration Time (sec): 2.000000E-2
Scans to average: 1
Electric dark correction enabled: true
Nonlinearity correction enabled: false
Boxcar width: 0
XAxis mode: Wavelengths
Number of Pixels in Spectrum: 3648
>>>>>Begin Spectral Data<<<<<
178.204	-71.85
178.424	-71.85
178.644	-71.85
178.864	-114.86
179.084	-47.27
179.304	-12.46
179.524	-45.23
179.744	16.21
179.964	-6.31
180.184	16.21
180.404	-32.94
180.624	20.31
180.844	-16.55
181.064	-16.55
181.283	42.84
181.503	-10.41
181.723	44.88
181.943	-96.43
182.163	69.46
182.383	-82.09
182.602	44.88
182.822	-47.27
183.042	18.26
183.262	-6.31
183.482	59.22
183.701	34.64
183.921	-39.08
184.141	-22.7
184.361	32.6
184.58	28.5
184.8	12.12
185.02	30.55
185.239	-2.22
185.459	30.55
185.679	108.37
185.898	-45.23
186.118	34.64
186.338	-4.27
186.557	24.4
186.777	20.31
186.997	-6.31
187.216	67.41
187.436	51.03
187.655	-18.6
187.875	112.47
188.095	34.64
188.314	-14.51
188.534	83.8
188.753	69.46
188.973	-39.08
189.192	100.18
189.412	-92.33
189.631	28.5
189.851	-51.37
190.07	10.07
190.29	63.32
190.509	32.6
190.729	-14.51
190.948	51.03
191.168	163.67
191.387	128.85
191.607	-34.99
191.826	-20.65
192.045	-8.36
192.265	28.5
192.484	-73.9
192.704	79.7
192.923	-10.41
193.142	-4.27
193.362	-12.46
193.581	112.47
193.8	1.88
194.02	36.69
194.239	28.5
194.458	18.26
194.678	26.45
194.897	-14.51
195.116	46.93
195.335	3.93
195.555	38.74
195.774	94.04
195.993	42.84
196.212	-43.18
196.432	26.45
196.651	-10.41
196.87	32.6
197.089	48.98
197.308	-4.27
197.528	1.88
197.747	-14.51
197.966	14.17
198.185	85.84
198.404	-26.79
198.623	28.5
198.842	32.6
199.062	85.84
199.281	94.04
199.5	3.93
199.719	24.4
199.938	1.88
200.157	89.94
200.376	42.84
200.595	34.64
200.814	91.99
201.033	-12.46
201.252	61.27
201.471	22.36
201.69	1.88
201.909	65.36
202.128	20.31
202.347	96.08
202.566	61.27
202.785	-18.6
203.004	16.21
203.223	53.08
203.442	53.08
203.661	16.21
203.879	34.64
204.098	69.46
204.317	12.12
204.536	77.65
204.755	26.45
204.974	65.36
205.193	8.02
205.411	85.84
205.63	-4.27
205.849	-37.03
206.068	16.21
206.287	20.31
206.505	12.12
206.724	-12.46
206.943	22.36
207.162	-67.75
207.381	57.17
207.599	-8.36
207.818	75.6
208.037	48.98
208.255	42.84
208.474	10.07
208.693	59.22
208.911	-16.55
209.13	51.03
209.349	132.95
209.567	61.27
209.786	81.75
210.005	-53.42
210.223	65.36
210.442	-53.42
210.661	149.33
210.879	14.17
211.098	59.22
211.316	77.65
211.535	-51.37
211.753	46.93
211.972	42.84
212.191	-30.89
212.409	77.65
212.628	32.6
212.846	-73.9
213.065	42.84
213.283	63.32
213.502	24.4
213.72	5.97
213.938	-16.55
214.157	26.45
214.375	75.6
214.594	-37.03
214.812	42.84
215.031	-37.03
215.249	-4.27
215.467	42.84
215.686	22.36
215.904	24.4
216.122	-34.99
216.341	-18.6
216.559	42.84
216.778	5.97
216.996	40.79
217.214	-22.7
217.432	32.6
217.651	-0.17
217.869	5.97
218.087	10.07
218.306	34.64
218.524	51.03
218.742	-55.47
218.96	53.08
219.179	14.17
219.397	85.84
219.615	26.45
219.833	71.51
220.051	38.74
220.27	42.84
220.488	51.03
220.706	40.79
220.924	16.21
221.142	16.21
221.36	18.26
221.578	16.21
221.796	53.08
222.015	12.12
222.233	26.45
222.451	53.08
222.669	22.36
222.887	73.56
223.105	8.02
223.323	-0.17
223.541	79.7
223.759	48.98
223.977	46.93
224.195	85.84
224.413	26.45
224.631	48.98
224.849	87.89
225.067	135
225.285	12.12
225.503	34.64
225.721	14.17
225.939	40.79
226.157	48.98
226.375	-8.36
226.592	87.89
226.81	32.6
227.028	59.22
227.246	18.26
227.464	44.88
227.682	34.64
227.9	96.08
228.117	77.65
228.335	36.69
228.553	-0.17
228.771	-30.89
228.989	18.26
229.206	18.26
229.424	16.21
229.642	42.84
229.86	3.93
230.077	46.93
230.295	22.36
230.513	53.08
230.731	104.28
230.948	100.18
231.166	34.64
231.384	5.97
231.601	46.93
231.819	44.88
232.037	-14.51
232.254	61.27
232.472	10.07
232.689	-59.56
232.907	12.12
233.125	28.5
233.342	24.4
233.56	-53.42
233.777	59.22
233.995	30.55
234.213	94.04
234.43	-8.36
234.648	26.45
234.865	81.75
235.083	-49.32
235.3	8.02
235.518	34.64
235.735	73.56
235.953	12.12
236.17	28.5
236.388	48.98
236.605	20.31
236.822	104.28
237.04	87.89
237.257	-53.42
237.475	-0.17
237.692	10.07
237.909	-30.89
238.127	106.32
238.344	30.55
238.562	81.75
238.779	87.89
238.996	69.46
239.214	112.47
239.431	36.69
239.648	18.26
239.865	14.17
240.083	71.51
240.3	-14.51
240.517	-45.23
240.735	67.41
240.952	102.23
241.169	-39.08
241.386	89.94
241.603	20.31
241.821	1.88
242.038	3.93
242.255	18.26
242.472	-75.95
242.689	42.84
242.907	89.94
243.124	26.45
243.341	55.12
243.558	-45.23
243.775	-12.46
243.992	24.4
244.209	20.31
244.426	98.13
244.643	63.32
244.86	-12.46
245.078	53.08
245.295	24.4
245.512	-32.94
245.729	-28.84
245.946	34.64
246.163	14.17
246.38	30.55
246.597	5.97
246.814	5.97
247.031	-28.84
247.248	69.46
247.464	32.6
247.681	120.66
247.898	40.79
248.115	59.22
248.332	-12.46
248.549	51.03
248.766	100.18
248.983	73.56
249.2	36.69
249.417	38.74
249.633	-28.84
249.85	59.22
250.067	26.45
250.284	3.93
250.501	135
250.717	36.69
250.934	-6.31
251.151	59.22
251.368	63.32
251.585	59.22
251.801	59.22
252.018	20.31
252.235	26.45
252.451	-30.89
252.668	38.74
252.885	22.36
253.102	42.84
253.318	-51.37
253.535	83.8
253.752	1.88
253.968	57.17
254.185	28.5
254.401	59.22
254.618	-4.27
254.835	-37.03
255.051	30.55
255.268	-4.27
255.484	83.8
255.701	38.74
255.917	-2.22
256.134	-2.22
256.351	53.08
256.567	20.31
256.784	30.55
257	22.36
257.217	51.03
257.433	51.03
257.65	36.69
257.866	79.7
258.082	26.45
258.299	-41.13
258.515	-14.51
258.732	-47.27
258.948	1.88
259.165	10.07
259.381	-20.65
259.597	-32.94
259.814	61.27
260.03	8.02
260.246	40.79
260.463	59.22
260.679	91.99
260.895	-6.31
261.112	51.03
261.328	38.74
261.544	38.74
261.761	-12.46
261.977	48.98
262.193	38.74
262.409	-30.89
262.626	34.64
262.842	89.94
263.058	3.93
263.274	42.84
263.49	-10.41
263.707	-6.31
263.923	71.51
264.139	-24.75
264.355	83.8
264.571	34.64
264.787	59.22
265.004	34.64
265.22	132.95
265.436	87.89
265.652	-12.46
265.868	18.26
266.084	-12.46
266.3	8.02
266.516	-47.27
266.732	10.07
266.948	77.65
267.164	67.41
267.38	96.08
267.596	12.12
267.812	14.17
268.028	46.93
268.244	34.64
268.46	100.18
268.676	24.4
268.892	16.21
269.108	38.74
269.324	18.26
269.54	-75.95
269.756	20.31
269.972	-2.22
270.188	94.04
270.403	1.88
270.619	10.07
270.835	83.8
271.051	81.75
271.267	1.88
271.483	34.64
271.698	112.47
271.914	1.88
272.13	28.5
272.346	51.03
272.562	67.41
272.777	87.89
272.993	-20.65
273.209	-14.51
273.425	116.56
273.64	40.79
273.856	-8.36
274.072	46.93
274.287	57.17
274.503	18.26
274.719	-28.84
274.934	16.21
275.15	-73.9
275.366	-47.27
275.581	36.69
275.797	48.98
276.012	85.84
276.228	12.12
276.444	40.79
276.659	38.74
276.875	8.02
277.09	-4.27
277.306	30.55
277.521	67.41
277.737	61.27
277.952	20.31
278.168	34.64
278.383	96.08
278.599	-43.18
278.814	59.22
279.03	-14.51
279.245	63.32
279.461	5.97
279.676	34.64
279.892	-12.46
280.107	-49.32
280.322	-28.84
280.538	87.89
280.753	40.79
280.969	42.84
281.184	10.07
281.399	12.12
281.615	38.74
281.83	-39.08
282.045	-4.27
282.26	67.41
282.476	32.6
282.691	61.27
282.906	32.6
283.122	71.51
283.337	14.17
283.552	-32.94
283.767	24.4
283.983	112.47
284.198	14.17
284.413	22.36
284.628	-43.18
284.843	59.22
285.058	22.36
285.274	94.04
285.489	-34.99
285.704	-14.51
285.919	-0.17
286.134	67.41
286.349	-61.61
286.564	-59.56
286.779	108.37
286.995	-16.55
287.21	53.08
287.425	71.51
287.64	-24.75
287.855	102.23
288.07	-12.46
288.285	79.7
288.5	51.03
288.715	75.6
288.93	83.8
289.145	-0.17
289.36	-10.41
289.575	100.18
289.79	67.41
290.004	38.74
290.219	12.12
290.434	40.79
290.649	-10.41
290.864	-12.46
291.079	1.88
291.294	42.84
291.509	42.84
291.724	-14.51
291.938	55.12
292.153	24.4
292.368	16.21
292.583	96.08
292.798	96.08
293.012	34.64
293.227	-26.79
293.442	51.03
293.657	1.88
293.871	55.12
294.086	46.93
294.301	77.65
294.516	79.7
294.73	14.17
294.945	-2.22
295.16	69.46
295.374	69.46
295.589	53.08
295.804	-12.46
296.018	61.27
296.233	-10.41
296.447	14.17
296.662	32.6
296.877	75.6
297.091	-10.41
297.306	112.47
297.52	-12.46
297.735	12.12
297.949	65.36
298.164	5.97
298.378	16.21
298.593	12.12
298.807	-118.95
299.022	34.64
299.236	5.97
299.451	1.88
299.665	10.07
299.88	12.12
300.094	3.93
300.309	42.84
300.523	-6.31
300.737	18.26
300.952	44.88
301.166	63.32
301.381	1.88
301.595	67.41
301.809	18.26
302.024	24.4
302.238	-10.41
302.452	26.45
302.667	69.46
302.881	73.56
303.095	141.14
303.309	69.46
303.524	36.69
303.738	48.98
303.952	-30.89
304.166	89.94
304.381	1.88
304.595	53.08
304.809	69.46
305.023	30.55
305.237	22.36
305.452	1.88
305.666	89.94
305.88	120.66
306.094	83.8
306.308	91.99
306.522	26.45
306.736	46.93
306.95	-0.17
307.164	104.28
307.379	69.46
307.593	-2.22
307.807	42.84
308.021	-6.31
308.235	14.17
308.449	-2.22
308.663	1.88
308.877	132.95
309.091	-18.6
309.305	-26.79
309.519	-10.41
309.733	91.99
309.947	12.12
310.161	-2.22
310.374	28.5
310.588	89.94
310.802	40.79
311.016	20.31
311.23	94.04
311.444	30.55
311.658	-14.51
311.872	85.84
312.085	57.17
312.299	67.41
312.513	48.98
312.727	-14.51
312.941	-6.31
313.154	53.08
313.368	28.5
313.582	24.4
313.796	55.12
314.009	12.12
314.223	59.22
314.437	26.45
314.651	-10.41
314.864	22.36
315.078	-47.27
315.292	-47.27
315.505	57.17
315.719	44.88
315.933	38.74
316.146	36.69
316.36	16.21
316.573	59.22
316.787	-14.51
317.001	94.04
317.214	-28.84
317.428	55.12
317.641	32.6
317.855	5.97
318.068	-14.51
318.282	34.64
318.495	38.74
318.709	-10.41
318.922	55.12
319.136	26.45
319.349	87.89
319.563	5.97
319.776	57.17
319.99	-47.27
320.203	18.26
320.417	34.64
320.63	59.22
320.843	85.84
321.057	-22.7
321.27	141.14
321.483	87.89
321.697	83.8
321.91	46.93
322.124	73.56
322.337	34.64
322.55	51.03
322.763	63.32
322.977	-10.41
323.19	-30.89
323.403	-37.03
323.617	81.75
323.83	91.99
324.043	69.46
324.256	5.97
324.469	55.12
324.683	8.02
324.896	51.03
325.109	26.45
325.322	55.12
325.535	14.17
325.748	44.88
325.962	-45.23
326.175	40.79
326.388	-8.36
326.601	12.12
326.814	57.17
327.027	3.93
327.24	77.65
327.453	-2.22
327.666	51.03
327.879	-18.6
328.092	67.41
328.305	42.84
328.518	75.6
328.731	98.13
328.944	-41.13
329.157	46.93
329.37	67.41
329.583	61.27
329.796	73.56
330.009	10.07
330.222	14.17
330.435	12.12
330.648	-4.27
330.861	81.75
331.073	16.21
331.286	26.45
331.499	1.88
331.712	-30.89
331.925	-12.46
332.138	79.7
332.35	94.04
332.563	85.84
332.776	102.23
332.989	24.4
333.202	83.8
333.414	-2.22
333.627	-51.37
333.84	-10.41
334.053	83.8
334.265	53.08
334.478	65.36
334.691	20.31
334.903	28.5
335.116	51.03
335.329	3.93
335.541	-20.65
335.754	-2.22
335.966	5.97
336.179	38.74
336.392	34.64
336.604	10.07
336.817	75.6
337.029	69.46
337.242	3.93
337.454	3.93
337.667	75.6
337.88	108.37
338.092	24.4
338.305	36.69
338.517	55.12
338.729	48.98
338.942	28.5
339.154	96.08
339.367	10.07
339.579	153.43
339.792	34.64
340.004	-0.17
340.217	46.93
340.429	-73.9
340.641	34.64
340.854	69.46
341.066	-6.31
341.278	77.65
341.491	94.04
341.703	79.7
341.915	44.88
342.128	132.95
342.34	69.46
342.552	34.64
342.764	16.21
342.977	83.8
343.189	91.99
343.401	14.17
343.613	26.45
343.826	28.5
344.038	36.69
344.25	85.84
344.462	30.55
344.674	-12.46
344.886	-14.51
345.099	65.36
345.311	14.17
345.523	-4.27
345.735	36.69
345.947	42.84
346.159	83.8
346.371	8.02
346.583	44.88
346.795	61.27
347.007	28.5
347.219	34.64
347.431	44.88
347.643	34.64
347.855	22.36
348.067	26.45
348.279	57.17
348.491	96.08
348.703	69.46
348.915	-12.46
349.127	-26.79
349.339	14.17
349.551	-18.6
349.763	34.64
349.975	118.61
350.187	-14.51
350.399	55.12
350.61	12.12
350.822	36.69
351.034	110.42
351.246	44.88
351.458	53.08
351.669	79.7
351.881	-6.31
352.093	57.17
352.305	36.69
352.517	116.56
352.728	-8.36
352.94	-2.22
353.152	87.89
353.363	26.45
353.575	71.51
353.787	30.55
353.999	94.04
354.21	26.45
354.422	18.26
354.633	71.51
354.845	67.41
355.057	-8.36
355.268	53.08
355.48	46.93
355.692	34.64
355.903	26.45
356.115	12.12
356.326	44.88
356.538	122.71
356.749	14.17
356.961	83.8
357.172	10.07
357.384	46.93
357.595	128.85
357.807	108.37
358.018	1.88
358.23	51.03
358.441	61.27
358.653	22.36
358.864	59.22
359.075	8.02
359.287	63.32
359.498	5.97
359.709	16.21
359.921	53.08
360.132	48.98
360.344	65.36
360.555	69.46
360.766	30.55
360.977	34.64
361.189	118.61
361.4	118.61
361.611	5.97
361.823	24.4
362.034	44.88
362.245	36.69
362.456	10.07
362.667	42.84
362.879	55.12
363.09	53.08
363.301	94.04
363.512	26.45
363.723	67.41
363.935	53.08
364.146	108.37
364.357	26.45
364.568	34.64
364.779	22.36
364.99	83.8
365.201	57.17
365.412	28.5
365.623	48.98
365.834	79.7
366.045	137.04
366.256	42.84
366.467	12.12
366.678	40.79
366.889	-14.51
367.1	-26.79
367.311	67.41
367.522	34.64
367.733	63.32
367.944	-6.31
368.155	51.03
368.366	-2.22
368.577	73.56
368.788	112.47
368.999	24.4
369.209	73.56
369.42	85.84
369.631	75.6
369.842	53.08
370.053	44.88
370.264	102.23
370.474	42.84
370.685	94.04
370.896	55.12
371.107	73.56
371.317	18.26
371.528	75.6
371.739	22.36
371.95	51.03
372.16	108.37
372.371	-6.31
372.582	112.47
372.792	12.12
373.003	36.69
373.214	16.21
373.424	132.95
373.635	12.12
373.846	36.69
374.056	16.21
374.267	53.08
374.477	38.74
374.688	42.84
374.898	55.12
375.109	57.17
375.319	104.28
375.53	89.94
375.74	30.55
375.951	91.99
376.161	79.7
376.372	36.69
376.582	73.56
376.793	132.95
377.003	55.12
377.214	5.97
377.424	122.71
377.635	22.36
377.845	75.6
378.055	63.32
378.266	-14.51
378.476	20.31
378.686	130.9
378.897	79.7
379.107	85.84
379.317	65.36
379.528	79.7
379.738	91.99
379.948	-2.22
380.158	91.99
380.369	44.88
380.579	59.22
380.789	38.74
380.999	132.95
381.21	14.17
381.42	57.17
381.63	51.03
381.84	67.41
382.05	34.64
382.261	69.46
382.471	59.22
382.681	-6.31
382.891	57.17
383.101	-2.22
383.311	34.64
383.521	18.26
383.731	79.7
383.941	130.9
384.151	46.93
384.361	46.93
384.571	36.69
384.781	51.03
384.991	44.88
385.201	59.22
385.411	36.69
385.621	85.84
385.831	67.41
386.041	69.46
386.251	102.23
386.461	124.76
386.671	91.99
386.881	-51.37
387.091	155.47
387.301	116.56
387.511	-47.27
387.72	59.22
387.93	71.51
388.14	-10.41
388.35	132.95
388.56	149.33
388.769	48.98
388.979	108.37
389.189	116.56
389.399	85.84
389.609	135
389.818	69.46
390.028	36.69
390.238	67.41
390.447	87.89
390.657	34.64
390.867	36.69
391.076	59.22
391.286	67.41
391.496	44.88
391.705	-4.27
391.915	83.8
392.125	59.22
392.334	-18.6
392.544	100.18
392.753	102.23
392.963	87.89
393.172	65.36
393.382	24.4
393.591	75.6
393.801	-6.31
394.01	104.28
394.22	169.81
394.429	110.42
394.639	55.12
394.848	44.88
395.058	149.33
395.267	81.75
395.477	85.84
395.686	42.84
395.895	151.38
396.105	169.81
396.314	77.65
396.524	118.61
396.733	59.22
396.942	55.12
397.152	89.94
397.361	63.32
397.57	120.66
397.78	110.42
397.989	65.36
398.198	145.24
398.407	106.32
398.617	110.42
398.826	51.03
399.035	116.56
399.244	91.99
399.453	71.51
399.663	44.88
399.872	110.42
400.081	116.56
400.29	96.08
400.499	36.69
400.708	143.19
400.917	192.34
401.127	24.4
401.336	149.33
401.545	135
401.754	141.14
401.963	75.6
402.172	145.24
402.381	173.91
402.59	132.95
402.799	85.84
403.008	153.43
403.217	137.04
403.426	167.76
403.635	128.85
403.844	149.33
404.053	137.04
404.262	63.32
404.471	149.33
404.68	223.06
404.888	141.14
405.097	169.81
405.306	200.53
405.515	149.33
405.724	229.2
405.933	223.06
406.142	169.81
406.35	167.76
406.559	214.87
406.768	214.87
406.977	272.21
407.185	188.24
407.394	216.91
407.603	221.01
407.812	292.69
408.02	223.06
408.229	157.52
408.438	200.53
408.646	227.15
408.855	237.39
409.064	304.98
409.272	304.98
409.481	370.51
409.69	264.02
409.898	296.78
410.107	358.22
410.315	366.42
410.524	429.9
410.733	292.69
410.941	276.31
411.15	319.31
411.358	333.65
411.567	382.8
411.775	421.71
411.984	372.56
412.192	380.75
412.401	427.85
412.609	495.44
412.818	554.83
413.026	522.06
413.234	438.09
413.443	517.97
413.651	601.93
413.86	589.64
414.068	558.92
414.276	616.27
414.485	733
414.693	616.27
414.901	606.03
415.11	739.15
415.318	669.52
415.526	702.28
415.734	786.25
415.943	735.05
416.151	847.69
416.359	835.4
416.567	1003.33
416.776	796.49
416.984	960.33
417.192	1034.05
417.4	1077.06
417.608	999.24
417.817	1025.86
418.025	1087.3
418.233	1163.08
418.441	1197.89
418.649	1259.33
418.857	1275.71
419.065	1353.54
419.273	1298.24
419.481	1378.11
419.689	1500.99
419.897	1537.85
420.105	1455.94
420.313	1560.38
420.521	1587.01
420.729	1582.91
420.937	1666.88
421.145	1697.6
421.353	1855.29
421.561	1920.82
421.769	2021.17
421.977	2234.16
422.185	2004.79
422.393	2191.16
422.601	2246.45
422.809	2303.79
423.017	2279.22
423.224	2418.48
423.432	2539.31
423.64	2563.89
423.848	2828.07
424.056	2703.15
424.263	2940.71
424.471	2953
424.679	2848.55
424.887	3110.69
425.094	3221.28
425.302	3227.43
425.51	3360.55
425.718	3528.48
425.925	3540.77
426.133	3651.36
426.341	3790.62
426.548	3970.84
426.756	4106.01
426.964	4192.02
427.171	4345.62
427.379	4409.11
427.586	4542.22
427.794	4591.38
428.001	4884.23
428.209	5013.26
428.417	4966.15
428.624	5232.39
428.832	5207.81
429.039	5342.98
429.247	5351.17
429.454	5689.09
429.662	6211.32
429.869	5760.77
430.076	6205.17
430.284	6100.73
430.491	6270.71
430.699	6678.26
430.906	6625.01
431.114	6852.33
431.321	7007.98
431.528	7319.27
431.736	7601.89
431.943	8027.87
432.15	7681.76
432.358	7948
432.565	8259.29
432.772	8140.51
432.979	8666.83
433.187	8767.18
433.394	8791.76
433.601	9432.77
433.808	9483.97
434.016	9578.18
434.223	9780.93
434.43	10415.8
434.637	10323.64
434.844	10718.9
435.052	11030.19
435.259	10966.7
435.466	10940.08
435.673	11034.28
435.88	11613.86
436.087	12215.96
436.294	12453.53
436.501	12015.26
436.708	12396.18
436.915	12701.33
437.122	13432.46
437.329	13338.25
437.537	13680.26
437.743	13805.19
437.95	13733.51
438.157	14601.85
438.364	14902.9
438.571	14722.68
438.778	15052.4
438.985	16512.6
439.192	15560.3
439.399	16254.56
439.606	15787.62
439.813	16645.72
440.02	17849.92
440.227	17675.85
440.433	17266.25
440.64	17768.01
440.847	17849.92
441.054	18441.79
441.261	19420.72
441.467	19269.17
441.674	19428.91
441.881	20420.13
442.088	20383.26
442.294	20069.92
442.501	20637.21
442.708	21016.08
442.914	21726.73
443.121	22525.44
443.328	21829.13
443.534	23621.1
443.741	23401.97
443.948	22949.37
444.154	24751.58
444.361	24335.84
444.568	24749.53
444.774	24548.83
444.981	24608.22
445.187	25327.06
445.394	26703.29
445.6	26463.68
445.807	28749.21
446.013	27370.93
446.22	28249.51
446.426	29394.32
446.633	29521.3
446.839	30715.26
447.046	29445.52
447.252	31067.52
447.459	30928.25
447.665	31022.46
447.871	32200.04
448.078	33518.93
448.284	32050.54
448.491	32824.67
448.697	34307.4
448.903	35142.97
449.11	34913.6
449.316	34317.64
449.522	35087.68
449.728	36226.35
449.935	36349.23
450.141	36126
450.347	37152.03
450.553	36031.79
450.76	36603.17
450.966	37649.69
451.172	37448.99
451.378	38335.76
451.584	37369.12
451.791	38749.45
451.997	38583.56
452.203	39367.93
452.409	39073.03
452.615	39185.66
452.821	37549.34
453.027	37238.05
453.233	39574.78
453.44	37922.07
453.646	38180.11
453.852	38235.41
454.058	39191.81
454.264	37692.69
454.47	38896.9
454.676	37924.11
454.882	39105.79
455.088	35904.82
455.294	36265.26
455.5	37080.35
455.705	37274.91
455.911	35933.49
456.117	35044.67
456.323	34815.3
456.529	33041.76
456.735	34344.27
456.941	33572.18
457.147	33133.92
457.352	31757.68
457.558	31712.63
457.764	32011.63
457.97	31405.43
458.176	30881.15
458.381	30668.16
458.587	28824.99
458.793	28935.58
458.999	27651.5
459.204	29957.52
459.41	28845.47
459.616	26797.5
459.821	26963.39
460.027	26979.77
460.233	26131.91
460.438	24841.69
460.644	25073.11
460.85	23803.37
461.055	24022.5
461.261	23354.86
461.466	22060.55
461.672	21435.92
461.878	22693.37
462.083	21153.3
462.289	21061.14
462.494	20581.92
462.7	19580.46
462.905	19197.49
463.111	19795.5
463.316	20006.44
463.522	19469.87
463.727	19664.43
463.932	19793.45
464.138	19144.24
464.343	19086.9
464.549	18767.41
464.754	19584.55
464.959	19119.67
465.165	19072.56
465.37	18269.76
465.575	17925.7
465.781	18628.15
465.986	18830.9
466.191	17985.09
466.397	17426
466.602	16836.18
466.807	17559.11
467.012	17649.22
467.218	17256.01
467.423	17004.11
467.628	17215.05
467.833	17876.55
468.038	17323.6
468.244	16881.24
468.449	17514.06
468.654	16688.73
468.859	16791.13
469.064	16686.68
469.269	16232.03
469.474	16275.04
469.679	16426.59
469.885	16084.58
470.09	16369.24
470.295	16060
470.5	15877.73
470.705	15711.85
470.91	15552.1
471.115	15341.16
471.32	15826.53
471.525	15605.35
471.73	15267.44
471.935	15138.41
472.139	14583.41
472.344	14804.6
472.549	14747.25
472.754	14401.15
472.959	14343.8
473.164	13954.69
473.369	13698.69
473.574	14460.54
473.778	13905.54
473.983	13921.92
474.188	14005.89
474.393	13264.52
474.598	13483.66
474.802	13203.08
475.007	13182.6
475.212	13033.1
475.417	12660.37
475.621	12740.24
475.826	12863.12
476.031	12369.56
476.235	12240.54
476.44	12525.21
476.645	12136.09
476.849	12152.48
477.054	11947.68
477.259	11755.17
477.463	11947.68
477.668	11617.96
477.872	11765.41
478.077	11460.26
478.282	11220.65
478.486	11122.35
478.691	11042.48
478.895	11132.59
479.1	10919.6
479.304	11206.31
479.509	10610.36
479.713	10856.11
479.918	10886.83
480.122	10495.67
480.326	10524.34
480.531	10655.41
480.735	10405.56
480.94	10579.64
481.144	10641.07
481.348	10272.44
481.553	10372.79
481.757	10092.22
481.961	10348.22
482.166	10364.6
482.37	10282.68
482.574	10155.71
482.778	10053.31
482.983	10309.3
483.187	10147.51
483.391	10202.81
483.595	10114.75
483.8	10090.17
484.004	10280.63
484.208	10176.19
484.412	10245.82
484.616	10278.58
484.821	10059.45
485.025	10114.75
485.229	10157.75
485.433	10219.19
485.637	10288.82
485.841	10028.73
486.045	10276.54
486.249	10192.57
486.453	9989.82
486.657	10325.69
486.861	10356.41
487.065	9946.81
487.269	10094.27
487.473	10049.21
487.677	10184.38
487.881	10028.73
488.085	10012.35
488.289	10159.8
488.493	10196.67
488.697	10184.38
488.901	10084.03
489.105	10149.56
489.309	10331.83
489.512	10495.67
489.716	10434.23
489.92	10274.49
490.124	10208.95
490.328	10600.12
490.531	10278.58
490.735	10462.9
490.939	10446.52
491.143	10391.22
491.346	10512.05
491.55	10454.71
491.754	10778.29
491.958	10811.06
492.161	10497.72
492.365	10847.92
492.569	10770.1
492.772	10735.28
492.976	10755.76
493.18	10976.94
493.383	10919.6
493.587	11019.95
493.79	11275.95
493.994	10890.93
494.197	11030.19
494.401	11087.53
494.605	11331.24
494.808	11382.44
495.012	11503.27
495.215	11554.47
495.419	11683.49
495.622	11495.08
495.825	11855.52
496.029	11839.14
496.232	12066.46
496.436	11878.05
496.639	12248.73
496.843	12340.89
497.046	12234.39
497.249	12406.42
497.453	12648.08
497.656	12648.08
497.859	12879.5
498.063	12983.95
498.266	13248.14
498.469	13084.3
498.673	13084.3
498.876	13272.71
499.079	13665.92
499.282	13604.49
499.485	13940.35
499.689	13956.74
499.892	13958.78
500.095	14306.94
500.298	14509.69
500.501	14612.09
500.705	14796.4
500.908	14683.77
501.111	15132.27
501.314	15101.55
501.517	15453.8
501.72	15558.25
501.923	15480.43
502.126	15998.56
502.329	16182.88
502.532	16311.9
502.735	16369.24
502.938	16518.75
503.141	16813.65
503.344	16936.53
503.547	16799.32
503.75	17466.95
503.953	17684.04
504.156	17442.38
504.359	18005.57
504.562	17960.52
504.765	18308.67
504.968	18411.07
505.17	18583.1
505.373	18718.26
505.576	18959.92
505.779	19377.71
505.982	19500.59
506.185	19793.45
506.387	19775.02
506.59	19754.54
506.793	20491.8
506.996	20438.56
507.198	20954.65
507.401	20819.48
507.604	20997.65
507.807	21435.92
508.009	21577.23
508.212	21556.75
508.415	22048.26
508.617	22169.09
508.82	22226.43
509.022	22183.43
509.225	22840.82
509.428	22810.11
509.63	23193.08
509.833	23424.5
510.035	23782.89
510.238	23905.77
510.44	24190.44
510.643	24446.43
510.845	24792.54
511.048	24415.71
511.25	25349.59
511.453	25603.53
511.655	25968.07
511.858	25750.99
512.06	25920.97
512.262	26056.14
512.465	26076.62
512.667	26781.12
512.87	27016.63
513.072	27467.19
513.274	27397.56
513.477	27868.59
513.679	27794.86
513.881	28218.79
514.084	28243.37
514.286	28710.3
514.488	28722.59
514.69	29525.39
514.893	29533.59
515.095	29971.85
515.297	30121.35
515.499	30016.91
515.701	30600.58
515.904	30762.37
516.106	30784.9
516.308	31133.05
516.51	31692.15
516.712	31507.83
516.914	32312.68
517.116	32578.92
517.318	32593.25
517.52	32890.21
517.722	33045.85
517.925	33301.85
518.127	33762.64
518.329	33787.22
518.531	33928.53
518.733	34641.22
518.935	34680.13
519.136	34655.56
519.338	35421.5
519.54	35548.47
519.742	35591.48
519.944	35937.58
520.146	36371.75
520.348	36869.41
520.55	37037.34
520.752	36730.15
520.954	37471.51
521.155	37334.3
521.357	37844.24
521.559	38036.75
521.761	38733.06
521.963	38630.66
522.164	38837.51
522.366	39146.75
522.568	39267.58
522.77	39492.86
522.971	40185.07
523.173	39654.65
523.375	40527.08
523.576	40232.18
523.778	40764.65
523.98	41088.23
524.181	40877.29
524.383	40908.01
524.584	41727.19
524.786	41782.49
524.988	41503.96
525.189	42245.33
525.391	42446.03
525.592	42521.8
525.794	42712.27
525.995	42448.08
526.197	43099.33
526.398	43023.56
526.6	43377.86
526.801	43472.06
527.003	43560.12
527.204	43728.06
527.406	44012.73
527.607	44072.12
527.808	44360.88
528.01	43990.2
528.211	44434.61
528.412	44950.7
528.614	44758.19
528.815	44749.99
529.016	45153.44
529.218	44950.7
529.419	44946.6
529.62	44979.37
529.822	44922.02
530.023	45356.19
530.224	45417.63
530.425	45061.29
530.626	45065.38
530.828	44811.43
531.029	46060.69
531.23	45517.98
531.431	45038.76
531.632	45622.43
531.833	46005.4
532.035	45892.76
532.236	45913.24
532.437	46472.34
532.638	45905.05
532.839	46371.99
533.04	46288.02
533.241	45640.86
533.442	46810.25
533.643	46288.02
533.844	46181.52
534.045	46316.69
534.246	45892.76
534.447	46867.59
534.648	46054.55
534.849	46122.13
535.05	46054.55
535.251	46318.74
535.451	45964.44
535.652	46263.44
535.853	45946.01
536.054	46435.47
536.255	46511.25
536.456	45874.33
536.657	47252.61
536.857	46718.09
537.058	46288.02
537.259	46611.6
537.46	46570.64
537.66	46408.85
537.861	46392.47
538.062	46238.87
538.263	46574.73
538.463	46318.74
538.664	46509.2
538.865	45991.06
539.065	46582.93
539.266	46353.55
539.466	46759.05
539.667	45847.71
539.868	46589.07
540.068	46365.84
540.269	46271.64
540.469	46464.14
540.67	46212.24
540.87	46191.76
541.071	46271.64
541.271	46294.16
541.472	46447.76
541.672	46079.13
541.873	45847.71
542.073	45530.27
542.274	46879.88
542.474	46183.57
542.675	45724.83
542.875	46509.2
543.075	46070.93
543.276	45790.36
543.476	46267.54
543.676	46128.28
543.877	45880.47
544.077	46324.88
544.277	45917.34
544.478	45884.57
544.678	46367.89
544.878	45726.88
545.078	45776.03
545.279	46068.89
545.479	45767.83
545.679	45970.58
545.879	46101.65
546.079	45948.06
546.28	45911.19
546.48	45409.44
546.68	45773.98
546.88	45720.73
547.08	45894.81
547.28	46202
547.48	45663.39
547.68	45739.16
547.88	45544.61
548.081	46134.42
548.281	45794.46
548.481	45638.81
548.681	45853.85
548.881	45546.65
549.081	45759.64
549.28	45468.83
549.48	45651.1
549.68	45311.14
549.88	46308.5
550.08	45859.99
550.28	45663.39
550.48	45446.3
550.68	46339.22
550.88	45892.76
551.08	45462.69
551.279	45530.27
551.479	45477.02
551.679	45534.37
551.879	45204.64
552.079	45878.43
552.278	45110.44
552.478	45743.26
552.678	45526.17
552.878	45511.84
553.077	45419.68
553.277	45198.5
553.477	45862.04
553.676	45554.85
553.876	45208.74
554.076	45343.91
554.275	44995.75
554.475	44973.22
554.674	45307.04
554.874	45218.98
555.074	45108.39
555.273	44981.41
555.473	45470.88
555.672	44713.13
555.872	44870.82
556.071	45286.56
556.271	44999.85
556.47	44962.98
556.67	44211.38
556.869	44663.98
557.068	44866.73
557.268	44713.13
557.467	44498.09
557.667	44455.09
557.866	44541.1
558.065	44721.32
558.265	44397.74
558.464	44164.28
558.663	44680.36
558.863	44223.67
559.062	44889.26
559.261	44197.04
559.461	44338.35
559.66	43674.81
559.859	44061.88
560.058	43640
560.258	44129.46
560.457	43820.22
560.656	44164.28
560.855	43603.13
561.054	43568.32
561.253	43588.8
561.453	43662.52
561.652	43963.57
561.851	44113.08
562.05	43588.8
562.249	43400.38
562.448	43414.72
562.647	43572.41
562.846	43191.49
563.045	43695.29
563.244	42773.7
563.443	43185.35
563.642	42697.93
563.841	42964.17
564.04	42904.77
564.239	43171.01
564.438	42771.66
564.637	43048.13
564.836	42702.03
565.035	42374.35
565.234	42855.62
565.432	42214.61
565.631	42126.55
565.83	42196.18
566.029	41866.45
566.228	42075.35
566.427	41903.32
566.625	41823.45
566.824	41678.04
567.023	42374.35
567.222	41196.77
567.42	42360.01
567.619	41893.08
567.818	41581.79
568.016	41542.88
568.215	41639.13
568.414	41338.08
568.612	41481.44
568.811	41022.69
569.01	41450.72
569.208	40711.4
569.407	41137.38
569.605	40230.13
569.804	41123.04
570.002	40680.68
570.201	40842.47
570.4	40469.74
570.598	40193.26
570.797	40051.95
570.995	40301.81
571.193	39546.11
571.392	40525.03
571.59	39970.04
571.789	39877.88
571.987	39703.8
572.186	39787.77
572.384	39652.6
572.582	39523.58
572.781	39922.93
572.979	39146.75
573.177	39169.28
573.376	39406.84
573.574	38714.63
573.772	39222.53
573.971	38960.39
574.169	38722.82
574.367	38421.77
574.565	38651.14
574.763	38733.06
574.962	38651.14
575.16	37893.4
575.358	38505.74
575.556	38401.29
575.754	38944
575.952	38042.9
576.151	38339.85
576.349	37567.77
576.547	37655.83
576.745	37901.59
576.943	37844.24
577.141	37715.22
577.339	37459.23
577.537	37547.29
577.735	37600.54
577.933	37023.01
578.131	37489.95
578.329	37186.85
578.527	36707.62
578.725	36959.52
578.923	37172.51
579.121	36613.41
579.319	36584.74
579.516	36640.04
579.714	36666.66
579.912	36461.86
580.11	36287.79
580.308	36248.88
580.506	36238.64
580.704	35861.81
580.901	36166.96
581.099	36220.2
581.297	35636.53
581.495	35816.75
581.692	35837.23
581.89	35327.29
582.088	35999.02
582.285	35140.93
582.483	35376.44
582.681	35282.23
582.878	35358.01
583.076	35114.3
583.274	35218.75
583.471	34800.96
583.669	34860.35
583.866	34884.93
584.064	34692.42
584.262	34252.11
584.459	34903.36
584.657	34276.68
584.854	34600.26
585.052	33826.13
585.249	34219.34
585.447	33932.62
585.644	33906
585.841	33764.69
586.039	33807.7
586.236	33525.08
586.434	33742.16
586.631	33486.17
586.828	33279.32
587.026	33539.41
587.223	33219.93
587.42	33062.24
587.618	33088.86
587.815	32572.77
588.012	33211.74
588.21	32914.78
588.407	32814.43
588.604	32734.56
588.801	32396.65
588.999	32472.42
589.196	32197.99
589.393	32107.88
589.59	32255.34
589.787	31915.37
589.984	32183.66
590.182	31712.63
590.379	32308.58
590.576	31704.43
590.773	31786.35
590.97	31468.92
591.167	31931.76
591.364	31133.05
591.561	31309.18
591.758	31096.19
591.955	31214.97
592.152	31456.63
592.349	31188.35
592.546	30915.97
592.743	30764.42
592.94	30619.01
593.137	30666.11
593.334	30770.56
593.531	30102.92
593.727	30717.31
593.924	30598.53
594.121	29920.65
594.318	30563.71
594.515	29875.6
594.712	30258.57
594.908	29875.6
595.105	29873.55
595.302	29826.45
595.499	29896.08
595.696	29744.53
595.892	29400.47
596.089	29541.78
596.286	29523.35
596.482	29474.2
596.679	29449.62
596.876	29560.21
597.072	28951.96
597.269	28868
597.466	28884.38
597.662	28892.57
597.859	28732.83
598.055	28845.47
598.252	28323.24
598.448	28710.3
598.645	28435.88
598.841	28134.82
599.038	28255.65
599.234	28571.04
599.431	28085.67
599.627	27454.9
599.824	28394.92
600.02	27428.27
600.217	27956.65
600.413	27723.18
600.609	27925.93
600.806	27403.7
601.002	27682.22
601.198	26994.11
601.395	27286.96
601.591	26944.95
601.787	26889.66
601.984	26934.71
602.18	27246.01
602.376	26889.66
602.572	26903.99
602.769	26725.82
602.965	26523.07
603.161	26533.31
603.357	26535.36
603.553	26334.66
603.75	26408.39
603.946	26357.19
604.142	26547.65
604.338	25853.39
604.534	26156.49
604.73	25966.03
604.926	25722.32
605.122	25916.87
605.318	25779.66
605.514	25769.42
605.71	25740.75
605.906	25601.49
606.102	25605.58
606.298	25480.66
606.494	25494.99
606.69	25107.93
606.886	25331.15
607.082	24675.8
607.278	25218.52
607.474	24917.47
607.67	25218.52
607.866	24673.76
608.062	24847.83
608.257	24913.37
608.453	24894.94
608.649	24741.34
608.845	24542.69
609.041	24806.87
609.236	24757.72
609.432	24327.65
609.628	24430.05
609.824	24618.46
610.019	24153.57
610.215	24288.74
610.411	24301.03
610.606	23789.03
610.802	24085.99
610.998	24034.79
611.193	24198.63
611.389	23815.66
611.584	23973.35
611.78	23619.05
611.976	23887.34
612.171	23891.43
612.367	23844.33
612.562	23496.17
612.758	23107.06
612.953	23078.39
613.149	23688.68
613.344	23514.61
613.539	23684.59
613.735	23371.25
613.93	23686.64
614.126	23121.4
614.321	23672.3
614.517	23076.34
614.712	23172.6
614.907	23154.16
615.103	23371.25
615.298	22889.98
615.493	22873.59
615.688	22873.59
615.884	23426.54
616.079	22689.28
616.274	22840.82
616.47	22447.61
616.665	22908.41
616.86	22754.81
617.055	22474.24
617.25	22216.19
617.445	22633.98
617.641	22367.74
617.836	22494.72
618.031	22232.58
618.226	22230.53
618.421	22162.95
618.616	22169.09
618.811	21849.61
619.006	22367.74
619.201	21401.1
619.396	22046.21
619.591	21689.87
619.786	21923.33
619.981	21022.23
620.176	21704.2
620.371	21231.12
620.566	21315.09
620.761	21407.25
620.956	21671.43
621.151	20846.1
621.346	21245.46
621.541	20667.93
621.735	20803.1
621.93	20751.9
622.125	20581.92
622.32	20459.04
622.515	20170.27
622.709	20309.54
622.904	20192.8
623.099	20100.64
623.294	19858.98
623.488	19926.57
623.683	19930.66
623.878	19613.23
624.072	19533.36
624.267	19684.9
624.462	19168.82
624.656	19172.91
624.851	19291.69
625.046	19107.38
625.24	19152.43
625.435	19146.29
625.629	18880.05
625.824	18904.63
626.018	18947.64
626.213	18294.33
626.407	18236.99
626.602	18128.45
626.796	18218.56
626.991	18112.06
627.185	18044.48
627.38	17980.99
627.574	18013.76
627.768	17675.85
627.963	17520.2
628.157	17557.07
628.352	17606.22
628.546	17321.55
628.74	17227.34
628.935	17026.64
629.129	17245.77
629.323	16940.63
629.517	17104.46
629.712	16823.89
629.906	16760.41
630.1	16733.78
630.294	16692.82
630.489	16363.1
630.683	16518.75
630.877	16586.33
631.071	16156.25
631.265	16338.52
631.459	16039.52
631.653	15908.45
631.848	15967.84
632.042	15863.4
632.236	15924.83
632.43	15732.33
632.624	15588.97
632.818	15642.21
633.012	15214.19
633.206	15429.23
633.4	15361.64
633.594	15187.57
633.788	15052.4
633.982	15144.56
634.176	15197.81
634.369	14999.15
634.563	14794.36
634.757	14745.2
634.951	14698.1
635.145	14818.93
635.339	14614.13
635.533	14462.58
635.726	14591.61
635.92	14171.77
636.114	14423.67
636.308	14245.5
636.501	14438.01
636.695	14268.03
636.889	14091.9
637.083	13837.95
637.276	13964.93
637.47	13620.87
637.664	13706.88
637.857	13672.07
638.051	13592.2
638.244	13414.02
638.438	13541
638.632	13338.25
638.825	13051.53
639.019	13246.09
639.212	13166.22
639.406	13022.86
639.599	12947.09
639.793	12902.03
639.986	12682.9
640.18	12576.41
640.373	12830.35
640.567	12627.6
640.76	12811.92
640.954	12586.65
641.147	12304.03
641.34	12490.39
641.534	12396.18
641.727	12361.37
641.92	12240.54
642.114	12054.17
642.307	12213.91
642.5	12183.2
642.694	11882.14
642.887	11830.94
643.08	12132
643.273	11978.4
643.467	11642.53
643.66	11658.92
643.853	11669.16
644.046	11443.88
644.239	11646.63
644.432	11333.29
644.626	11245.23
644.819	11198.12
645.012	11277.99
645.205	11144.88
645.398	11333.29
645.591	10907.31
645.784	11032.24
645.977	11003.57
646.17	10811.06
646.363	10776.24
646.556	10532.53
646.749	10647.22
646.942	10841.78
647.135	10618.55
647.328	10471.09
647.521	10444.47
647.714	10337.98
647.907	10323.64
648.099	10292.92
648.292	10282.68
648.485	10176.19
648.678	10002.11
648.871	10192.57
649.064	10063.55
649.256	10208.95
649.449	10020.54
649.642	9721.54
649.835	9846.46
650.027	9631.43
650.22	9832.13
650.413	9701.06
650.605	9672.39
650.798	9688.77
650.991	9647.81
651.183	9557.7
651.376	9213.64
651.568	9393.86
651.761	9385.67
651.954	9582.28
652.146	9162.44
652.339	9080.52
652.531	9285.32
652.724	9158.35
652.916	9103.05
653.109	9078.47
653.301	8982.22
653.494	8896.21
653.686	8802
653.879	9049.8
654.071	8875.73
654.263	8677.07
654.456	8691.41
654.648	8730.32
654.84	8644.31
655.033	8558.29
655.225	8537.81
655.417	8314.58
655.61	8568.53
655.802	8546
655.994	8521.43
656.186	8249.05
656.379	8273.62
656.571	8251.1
656.763	8158.94
656.955	8214.23
657.148	8251.1
657.34	8120.03
657.532	7915.23
657.724	8040.15
657.916	7913.18
658.108	7900.89
658.3	7841.5
658.492	7827.17
658.684	7759.58
658.876	7730.91
659.068	7692
659.26	7601.89
659.452	7714.53
659.644	7540.45
659.836	7511.78
660.028	7442.15
660.22	7595.75
660.412	7403.24
660.604	7212.78
660.796	7296.74
660.988	7409.38
661.18	7171.82
661.372	7177.96
661.563	7214.82
661.755	7055.08
661.947	7245.54
662.139	7071.47
662.331	6936.3
662.522	6993.64
662.714	6942.44
662.906	6911.72
663.097	6731.5
663.289	6958.83
663.481	6639.34
663.673	6813.42
663.864	6797.04
664.056	6702.83
664.247	6713.07
664.439	6674.16
664.631	6729.45
664.822	6592.24
665.014	6561.52
665.205	6401.78
665.397	6428.4
665.588	6495.99
665.78	6432.5
665.971	6326
666.163	6242.04
666.354	6268.66
666.546	6184.69
666.737	6225.65
666.929	6203.13
667.12	6110.97
667.311	6121.21
667.503	6090.49
667.694	6045.43
667.885	6010.62
668.077	6119.16
668.268	6053.62
668.459	5889.79
668.651	5994.23
668.842	5879.55
669.033	5828.35
669.224	5783.29
669.416	5768.96
669.607	5799.68
669.798	5555.97
669.989	5840.64
670.18	5748.48
670.371	5635.84
670.563	5598.98
670.754	5705.47
670.945	5416.71
671.136	5701.37
671.327	5578.5
671.518	5535.49
671.709	5451.52
671.9	5592.83
672.091	5420.8
672.282	5463.81
672.473	5240.58
672.664	5408.51
672.855	5377.8
673.046	5267.2
673.237	5254.92
673.428	5273.35
673.619	5285.64
673.809	5195.53
674	5213.96
674.191	4998.92
674.382	5205.77
674.573	4988.68
674.764	5050.12
674.954	5091.08
675.145	5068.55
675.336	4939.53
675.527	4964.11
675.717	4968.2
675.908	5013.26
676.099	5123.85
676.289	4939.53
676.48	4886.28
676.671	4894.47
676.861	4878.09
677.052	4935.43
677.243	4650.77
677.433	4755.21
677.624	4896.52
677.814	4753.16
678.005	4501.26
678.195	4636.43
678.386	4595.47
678.576	4675.34
678.767	4644.62
678.957	4613.9
679.148	4751.12
679.338	4599.57
679.529	4650.77
679.719	4552.46
679.909	4640.53
680.1	4417.3
680.29	4415.25
680.481	4454.16
680.671	4362
680.861	4480.78
681.052	4511.5
681.242	4376.34
681.432	4437.78
681.622	4321.04
681.813	4337.43
682.003	4271.89
682.193	4306.71
682.383	4425.49
682.573	4269.84
682.764	4325.14
682.954	4388.63
683.144	4300.56
683.334	4114.2
683.524	4269.84
683.714	4095.77
683.904	4071.19
684.094	4138.77
684.284	4112.15
684.474	4134.68
684.664	4218.64
684.854	4239.12
685.044	4058.9
685.234	3983.13
685.424	4056.86
685.614	4007.7
685.804	4026.14
685.994	4011.8
686.184	4187.93
686.374	4054.81
686.564	3940.12
686.753	4032.28
686.943	3870.49
687.133	4009.75
687.323	3923.74
687.513	3723.04
687.702	3893.02
687.892	3764
688.082	3868.44
688.272	3759.9
688.461	3872.54
688.651	3784.48
688.841	3622.69
689.03	3852.06
689.22	3671.84
689.41	3647.26
689.599	3669.79
689.789	3602.21
689.979	3557.15
690.168	3706.65
690.358	3682.08
690.547	3569.44
690.737	3768.09
690.926	3557.15
691.116	3536.67
691.305	3579.68
691.495	3548.96
691.684	3497.76
691.874	3426.08
692.063	3536.67
692.252	3714.84
692.442	3452.7
692.631	3464.99
692.82	3344.16
693.01	3266.34
693.199	3483.42
693.388	3419.94
693.578	3358.5
693.767	3385.12
693.956	3280.68
694.146	3385.12
694.335	3399.46
694.524	3393.31
694.713	3344.16
694.902	3381.03
695.092	3272.48
695.281	3274.53
695.47	3262.24
695.659	3286.82
695.848	3178.28
696.037	3295.01
696.226	3198.76
696.415	3182.37
696.604	3200.8
696.793	3209
696.982	3118.89
697.171	3122.98
697.36	3190.56
697.549	3116.84
697.738	3100.45
697.927	3077.93
698.116	3213.09
698.305	3092.26
698.494	2957.1
698.683	3071.78
698.872	3104.55
699.061	3139.37
699.25	3020.58
699.438	3088.17
699.627	3141.41
699.816	3112.74
700.005	3053.35
700.193	3014.44
700.382	3155.75
700.571	2948.9
700.76	3004.2
700.948	3041.06
701.137	2926.38
701.326	3067.69
701.514	2897.71
701.703	2914.09
701.892	2848.55
702.08	3041.06
702.269	2993.96
702.457	2883.37
702.646	3018.54
702.834	2840.36
703.023	2912.04
703.212	2838.31
703.4	2875.18
703.589	2869.03
703.777	2993.96
703.965	2830.12
704.154	2854.7
704.342	2912.04
704.531	2946.86
704.719	2887.47
704.907	2922.28
705.096	2912.04
705.284	2819.88
705.472	2840.36
705.661	2770.73
705.849	2918.18
706.037	2805.55
706.226	2877.23
706.414	2881.32
706.602	2742.06
706.79	2891.56
706.979	2803.5
707.167	2809.64
707.355	2805.55
707.543	2819.88
707.731	2852.65
707.919	2856.75
708.107	2871.08
708.296	2776.87
708.484	2754.35
708.672	2670.38
708.86	2758.44
709.048	2776.87
709.236	2719.53
709.424	2756.4
709.612	2750.25
709.8	2725.68
709.988	2758.44
710.176	2819.88
710.364	2740.01
710.551	2619.18
710.739	2803.5
710.927	2633.52
711.115	2678.57
711.303	2639.66
711.491	2690.86
711.679	2705.2
711.866	2637.61
712.054	2654
712.242	2639.66
712.43	2733.87
712.617	2701.1
712.805	2735.92
712.993	2613.04
713.181	2619.18
713.368	2721.58
713.556	2557.74
713.744	2674.48
713.931	2651.95
714.119	2664.24
714.306	2582.32
714.494	2690.86
714.682	2627.37
714.869	2660.14
715.057	2584.37
715.244	2594.61
715.432	2621.23
715.619	2555.69
715.807	2686.76
715.994	2516.78
716.182	2602.8
716.369	2586.41
716.556	2635.57
716.744	2555.69
716.931	2518.83
717.119	2551.6
717.306	2621.23
717.493	2692.91
717.681	2621.23
717.868	2684.72
718.055	2649.9
718.242	2594.61
718.43	2660.14
718.617	2586.41
718.804	2684.72
718.991	2625.33
719.179	2557.74
719.366	2588.46
719.553	2533.17
719.74	2524.97
719.927	2471.73
720.114	2443.06
720.301	2516.78
720.488	2494.26
720.676	2514.73
720.863	2547.5
721.05	2492.21
721.237	2518.83
721.424	2619.18
721.611	2535.21
721.798	2477.87
721.985	2484.02
722.172	2527.02
722.358	2469.68
722.545	2504.5
722.732	2473.78
722.919	2524.97
723.106	2613.04
723.293	2471.73
723.48	2377.52
723.667	2524.97
723.853	2436.91
724.04	2477.87
724.227	2348.85
724.414	2514.73
724.6	2469.68
724.787	2475.82
724.974	2445.1
725.161	2402.1
725.347	2363.19
725.534	2490.16
725.72	2457.39
725.907	2350.9
726.094	2465.58
726.28	2492.21
726.467	2459.44
726.653	2422.58
726.84	2484.02
727.027	2391.86
727.213	2420.53
727.4	2443.06
727.586	2412.34
727.773	2504.5
727.959	2426.67
728.145	2354.99
728.332	2426.67
728.518	2416.43
728.705	2344.75
728.891	2449.2
729.077	2436.91
729.264	2398
729.45	2357.04
729.636	2457.39
729.823	2447.15
730.009	2443.06
730.195	2385.71
730.382	2357.04
730.568	2385.71
730.754	2307.89
730.94	2457.39
731.126	2408.24
731.313	2410.29
731.499	2285.36
731.685	2516.78
731.871	2367.28
732.057	2273.07
732.243	2381.62
732.429	2510.64
732.615	2334.51
732.801	2285.36
732.987	2332.47
733.173	2463.54
733.359	2320.18
733.545	2352.95
733.731	2314.03
733.917	2324.27
734.103	2348.85
734.289	2252.59
734.475	2293.55
734.661	2320.18
734.847	2385.71
735.033	2301.75
735.219	2334.51
735.404	2252.59
735.59	2275.12
735.776	2256.69
735.962	2324.27
736.148	2414.38
736.333	2408.24
736.519	2273.07
736.705	2166.58
736.89	2385.71
737.076	2279.22
737.262	2383.66
737.447	2209.59
737.633	2359.09
737.819	2293.55
738.004	2252.59
738.19	2350.9
738.375	2230.07
738.561	2228.02
738.747	2168.63
738.932	2156.34
739.118	2236.21
739.303	2205.49
739.489	2185.01
739.674	2219.83
739.859	2137.91
740.045	2221.88
740.23	2148.15
740.416	2123.57
740.601	2111.29
740.786	2133.81
740.972	2088.76
741.157	2240.31
741.342	2074.42
741.528	2228.02
741.713	2148.15
741.898	2150.2
742.084	2105.14
742.269	2144.05
742.454	2082.61
742.639	2027.32
742.824	2049.85
743.01	2053.94
743.195	2000.69
743.38	2058.04
743.565	2002.74
743.75	2000.69
743.935	2135.86
744.12	1990.45
744.305	1916.73
744.49	2082.61
744.675	2017.08
744.86	1920.82
745.045	1894.2
745.23	1947.45
745.415	2002.74
745.6	2023.22
745.785	1865.53
745.97	1935.16
746.155	1922.87
746.34	1908.54
746.525	1933.11
746.71	1918.78
746.895	1886.01
747.079	1756.99
747.264	1832.76
747.449	1812.28
747.634	1926.97
747.819	1838.91
748.003	1769.27
748.188	1818.43
748.373	1828.67
748.557	1830.71
748.742	1724.22
748.927	1795.9
749.111	1722.17
749.296	1787.71
749.481	1732.41
749.665	1799.99
749.85	1636.16
750.034	1722.17
750.219	1791.8
750.404	1670.97
750.588	1740.6
750.773	1570.62
750.957	1638.2
751.141	1744.7
751.326	1668.92
751.51	1732.41
751.695	1658.68
751.879	1621.82
752.064	1601.34
752.248	1541.95
752.432	1562.43
752.617	1664.83
752.801	1634.11
752.985	1486.65
753.17	1503.04
753.354	1554.24
753.538	1484.61
753.722	1439.55
753.907	1470.27
754.091	1584.96
754.275	1509.18
754.459	1476.41
754.643	1380.16
754.828	1539.9
755.012	1480.51
755.196	1390.4
755.38	1290.05
755.564	1435.46
755.748	1308.48
755.932	1402.69
756.116	1337.15
756.3	1292.1
756.484	1275.71
756.668	1322.82
756.852	1380.16
757.036	1406.78
757.22	1279.81
757.404	1279.81
757.588	1337.15
757.772	1314.63
757.956	1320.77
758.14	1312.58
758.323	1296.19
758.507	1290.05
758.691	1242.95
758.875	1290.05
759.059	1255.23
759.242	1302.34
759.426	1204.03
759.61	1179.46
759.794	1222.47
759.977	1191.75
760.161	1271.62
760.345	1152.84
760.528	1136.45
760.712	1142.6
760.895	1187.65
761.079	1099.59
761.263	1113.92
761.446	1107.78
761.63	1165.12
761.813	1150.79
761.997	1140.55
762.18	1128.26
762.364	1165.12
762.547	976.71
762.731	1105.73
762.914	1107.78
763.098	1077.06
763.281	1107.78
763.464	1062.73
763.648	1042.25
763.831	1132.36
764.015	1077.06
764.198	1029.96
764.381	1091.4
764.564	1046.34
764.748	1013.57
764.931	1013.57
765.114	1070.92
765.297	1025.86
765.481	1058.63
765.664	1132.36
765.847	997.19
766.03	1013.57
766.213	945.99
766.397	1011.53
766.58	1011.53
766.763	1085.25
766.946	913.22
767.129	980.81
767.312	989
767.495	950.09
767.678	923.46
767.861	1001.29
768.044	1017.67
768.227	1009.48
768.41	945.99
768.593	802.63
768.776	984.9
768.959	962.37
769.142	913.22
769.324	935.75
769.507	956.23
769.69	919.37
769.873	872.26
770.056	1017.67
770.239	945.99
770.421	841.54
770.604	878.41
770.787	997.19
770.97	907.08
771.152	890.7
771.335	966.47
771.518	776.01
771.7	870.22
771.883	812.87
772.066	874.31
772.248	874.31
772.431	913.22
772.613	870.22
772.796	872.26
772.978	878.41
773.161	876.36
773.343	792.39
773.526	782.15
773.708	802.63
773.891	855.88
774.073	833.35
774.256	769.87
774.438	853.83
774.621	859.98
774.803	794.44
774.985	757.58
775.168	870.22
775.35	802.63
775.532	788.3
775.715	767.82
775.897	720.71
776.079	722.76
776.261	845.64
776.444	755.53
776.626	792.39
776.808	692.04
776.99	698.19
777.173	714.57
777.355	671.56
777.537	790.35
777.719	804.68
777.901	759.63
778.083	735.05
778.265	726.86
778.447	683.85
778.629	730.95
778.811	757.58
778.993	671.56
779.175	692.04
779.357	630.6
779.539	677.71
779.721	677.71
779.903	659.28
780.085	663.37
780.267	601.93
780.449	601.93
780.631	659.28
780.812	653.13
780.994	700.23
781.176	694.09
781.358	538.45
781.54	610.12
781.721	601.93
781.903	593.74
782.085	591.69
782.267	577.36
782.448	511.82
782.63	665.42
782.812	575.31
782.993	606.03
783.175	540.49
783.357	542.54
783.538	532.3
783.72	503.63
783.901	567.12
784.083	575.31
784.264	530.25
784.446	477.01
784.627	419.66
784.809	530.25
784.99	534.35
785.172	454.48
785.353	452.43
785.535	429.9
785.716	452.43
785.897	464.72
786.079	511.82
786.26	491.34
786.441	448.33
786.623	474.96
786.804	495.44
786.985	417.61
787.167	464.72
787.348	487.25
787.529	388.94
787.71	438.09
787.891	446.29
788.073	407.38
788.254	421.71
788.435	335.7
788.616	436.05
788.797	399.18
788.978	415.57
789.159	411.47
789.34	427.85
789.522	487.25
789.703	464.72
789.884	390.99
790.065	347.98
790.246	397.14
790.427	413.52
790.607	417.61
790.788	407.38
790.969	403.28
791.15	370.51
791.331	331.6
791.512	380.75
791.693	341.84
791.874	358.22
792.054	409.42
792.235	364.37
792.416	335.7
792.597	329.55
792.778	399.18
792.958	335.7
793.139	388.94
793.32	362.32
793.5	321.36
793.681	446.29
793.862	364.37
794.042	364.37
794.223	311.12
794.404	268.11
794.584	304.98
794.765	331.6
794.945	341.84
795.126	384.85
795.306	264.02
795.487	331.6
795.667	370.51
795.848	343.89
796.028	292.69
796.209	282.45
796.389	266.07
796.57	313.17
796.75	282.45
796.93	307.02
797.111	335.7
797.291	313.17
797.471	309.07
797.652	284.5
797.832	257.87
798.012	296.78
798.192	278.35
798.373	280.4
798.553	223.06
798.733	264.02
798.913	270.16
799.093	245.59
799.274	247.63
799.454	278.35
799.634	264.02
799.814	329.55
799.994	315.22
800.174	266.07
800.354	251.73
800.534	247.63
800.714	298.83
800.894	274.26
801.074	249.68
801.254	280.4
801.434	249.68
801.614	307.02
801.794	225.11
801.974	759.63
802.154	198.48
802.334	321.36
802.514	327.5
802.693	292.69
802.873	233.3
803.053	192.34
803.233	257.87
803.413	272.21
803.592	282.45
803.772	282.45
803.952	255.83
804.131	216.91
804.311	218.96
804.491	208.72
804.67	198.48
804.85	178
805.03	214.87
805.209	255.83
805.389	266.07
805.568	173.91
805.748	221.01
805.928	198.48
806.107	208.72
806.287	235.35
806.466	249.68
806.646	216.91
806.825	147.28
807.004	202.58
807.184	214.87
807.363	249.68
807.543	210.77
807.722	184.15
807.901	282.45
808.081	233.3
808.26	161.62
808.439	169.81
808.619	212.82
808.798	190.29
808.977	206.67
809.156	175.95
809.336	132.95
809.515	221.01
809.694	184.15
809.873	190.29
810.052	180.05
810.231	141.14
810.411	173.91
810.59	259.92
810.769	178
810.948	149.33
811.127	124.76
811.306	167.76
811.485	178
811.664	206.67
811.843	173.91
812.022	198.48
812.201	202.58
812.38	223.06
812.559	143.19
812.737	227.15
812.916	159.57
813.095	196.43
813.274	73.56
813.453	218.96
813.632	132.95
813.811	137.04
813.989	210.77
814.168	165.71
814.347	143.19
814.526	192.34
814.704	157.52
814.883	175.95
815.062	159.57
815.24	169.81
815.419	141.14
815.598	132.95
815.776	67.41
815.955	126.8
816.133	153.43
816.312	159.57
816.49	143.19
816.669	102.23
816.847	178
817.026	120.66
817.204	178
817.383	171.86
817.561	169.81
817.74	155.47
817.918	128.85
818.097	122.71
818.275	85.84
818.453	159.57
818.632	180.05
818.81	200.53
818.988	120.66
819.167	102.23
819.345	159.57
819.523	100.18
819.701	147.28
819.879	182.1
820.058	200.53
820.236	63.32
820.414	102.23
820.592	75.6
820.77	175.95
820.948	75.6
821.127	85.84
821.305	83.8
821.483	141.14
821.661	79.7
821.839	100.18
822.017	110.42
822.195	79.7
822.373	151.38
822.551	87.89
822.729	79.7
822.907	112.47
823.085	182.1
823.262	71.51
823.44	130.9
823.618	108.37
823.796	122.71
823.974	63.32
824.152	132.95
824.329	137.04
824.507	108.37
824.685	87.89
824.863	77.65
825.04	108.37
825.218	216.91
825.396	106.32
825.574	34.64
825.751	126.8
825.929	130.9
826.107	34.64
826.284	91.99
826.462	65.36
826.639	59.22
826.817	128.85
826.994	83.8
827.172	48.98
827.349	112.47
827.527	124.76
827.704	132.95
827.882	96.08
828.059	143.19
828.237	106.32
828.414	102.23
828.591	71.51
828.769	85.84
828.946	79.7
829.124	69.46
829.301	126.8
829.478	100.18
829.655	34.64
829.833	67.41
830.01	53.08
830.187	116.56
830.364	12.12
830.542	102.23
830.719	149.33
830.896	100.18
831.073	55.12
831.25	75.6
831.427	147.28
831.604	79.7
831.782	38.74
831.959	87.89
832.136	28.5
832.313	65.36
832.49	57.17
832.667	12.12
832.844	44.88
833.021	51.03
833.198	151.38
833.374	106.32
833.551	100.18
833.728	157.52
833.905	110.42
834.082	85.84
834.259	94.04
834.436	116.56
834.612	28.5
834.789	81.75
834.966	79.7
835.143	83.8
835.319	87.89
835.496	1.88
835.673	71.51
835.85	75.6
836.026	128.85
836.203	57.17
836.38	-0.17
836.556	63.32
836.733	116.56
836.909	108.37
837.086	36.69
837.262	26.45
837.439	26.45
837.616	18.26
837.792	51.03
837.968	53.08
838.145	83.8
838.321	63.32
838.498	79.7
838.674	48.98
838.851	12.12
839.027	61.27
839.203	67.41
839.38	26.45
839.556	108.37
839.732	91.99
839.909	79.7
840.085	108.37
840.261	48.98
840.437	94.04
840.614	48.98
840.79	98.13
840.966	114.52
841.142	135
841.318	24.4
841.494	42.84
841.671	69.46
841.847	94.04
842.023	18.26
842.199	16.21
842.375	59.22
842.551	30.55
842.727	-12.46
842.903	75.6
843.079	67.41
843.255	42.84
843.431	10.07
843.607	46.93
843.783	-16.55
843.959	128.85
844.134	-12.46
844.31	178
844.486	91.99
844.662	40.79
844.838	-12.46
845.013	91.99
845.189	98.13
845.365	85.84
845.541	69.46
845.716	77.65
845.892	34.64
846.068	65.36
846.244	-30.89
846.419	79.7
846.595	87.89
846.77	69.46
846.946	81.75
847.122	94.04
847.297	83.8
847.473	143.19
847.648	14.17
847.824	139.09
847.999	-30.89
848.175	-16.55
848.35	34.64
848.526	10.07
848.701	67.41
848.876	22.36
849.052	71.51
849.227	3.93
849.403	118.61
849.578	85.84
849.753	130.9
849.929	38.74
850.104	44.88
850.279	-12.46
850.454	55.12
850.63	87.89
850.805	77.65
850.98	30.55
851.155	-28.84
851.33	75.6
851.505	91.99
851.681	102.23
851.856	46.93
852.031	42.84
852.206	89.94
852.381	77.65
852.556	26.45
852.731	24.4
852.906	18.26
853.081	48.98
853.256	-6.31
853.431	98.13
853.606	-12.46
853.781	18.26
853.956	10.07
854.131	46.93
854.305	83.8
854.48	51.03
854.655	-12.46
854.83	3.93
855.005	-20.65
855.18	75.6
855.354	22.36
855.529	83.8
855.704	46.93
855.879	108.37
856.053	10.07
856.228	3.93
856.403	16.21
856.577	75.6
856.752	-8.36
856.926	10.07
857.101	22.36
857.276	-8.36
857.45	28.5
857.625	67.41
857.799	-41.13
857.974	46.93
858.148	14.17
858.323	16.21
858.497	3.93
858.672	42.84
858.846	30.55
859.02	81.75
859.195	-20.65
859.369	75.6
859.543	34.64
859.718	55.12
859.892	-14.51
860.066	22.36
860.241	46.93
860.415	1.88
860.589	42.84
860.763	-4.27
860.938	28.5
861.112	1.88
861.286	-16.55
861.46	-30.89
861.634	83.8
861.808	38.74
861.982	-2.22
862.157	-30.89
862.331	-37.03
862.505	3.93
862.679	-43.18
862.853	-41.13
863.027	-26.79
863.201	20.31
863.375	-26.79
863.549	-8.36
863.722	16.21
863.896	69.46
864.07	-49.32
864.244	51.03
864.418	18.26
864.592	85.84
864.766	51.03
864.939	53.08
865.113	32.6
865.287	75.6
865.461	18.26
865.634	-45.23
865.808	8.02
865.982	30.55
866.156	14.17
866.329	-30.89
866.503	63.32
866.676	75.6
866.85	14.17
867.024	-6.31
867.197	-22.7
867.371	24.4
867.544	28.5
867.718	34.64
867.891	77.65
868.065	18.26
868.238	81.75
868.412	34.64
868.585	55.12
868.759	63.32
868.932	22.36
869.105	3.93
869.279	-43.18
869.452	73.56
869.625	-16.55
869.799	85.84
869.972	71.51
870.145	-28.84
870.319	20.31
870.492	46.93
870.665	-34.99
870.838	30.55
871.011	-2.22
871.185	-51.37
871.358	40.79
871.531	12.12
871.704	-14.51
871.877	69.46
872.05	67.41
872.223	20.31
872.396	-14.51
872.569	-10.41
872.742	12.12
872.915	46.93
873.088	-14.51
873.261	-65.71
873.434	-10.41
873.607	65.36
873.78	30.55
873.953	36.69
874.126	10.07
874.299	-18.6
874.471	14.17
874.644	-10.41
874.817	20.31
874.99	87.89
875.163	-55.47
875.335	32.6
875.508	-22.7
875.681	53.08
875.853	-34.99
876.026	-28.84
876.199	34.64
876.371	36.69
876.544	-10.41
876.717	26.45
876.889	-30.89
877.062	-16.55
877.234	-65.71
877.407	-10.41
877.579	36.69
877.752	-61.61
877.924	3.93
878.097	-22.7
878.269	-4.27
878.442	-28.84
878.614	1.88
878.786	3.93
878.959	55.12
879.131	-26.79
879.303	-37.03
879.476	34.64
879.648	20.31
879.82	1.88
879.993	3.93
880.165	71.51
880.337	-47.27
880.509	42.84
880.681	1.88
880.854	3.93
881.026	-8.36
881.198	-22.7
881.37	-4.27
881.542	53.08
881.714	-18.6
881.886	36.69
882.058	40.79
882.23	-2.22
882.402	44.88
882.574	44.88
882.746	-71.85
882.918	3.93
883.09	-10.41
883.262	38.74
883.434	-16.55
883.606	-45.23
883.778	18.26
883.95	-12.46
884.122	-12.46
884.293	46.93
884.465	36.69
884.637	108.37
884.809	24.4
884.98	61.27
885.152	34.64
885.324	10.07
885.496	-30.89
885.667	-8.36
885.839	5.97
886.011	63.32
886.182	14.17
886.354	3.93
886.525	20.31
886.697	57.17
886.869	-16.55
887.04	16.21
887.212	22.36
887.383	34.64
887.555	3.93
887.726	3.93
887.897	-12.46
888.069	14.17
888.24	3.93
888.412	10.07
888.583	-2.22
888.754	-37.03
888.926	20.31
889.097	-71.85
889.268	28.5
889.44	30.55
889.611	-22.7
889.782	44.88
889.953	-51.37
890.125	-14.51
890.296	-12.46
890.467	-2.22
890.638	26.45
890.809	118.61
890.98	42.84
891.151	-4.27
891.323	59.22
891.494	-63.66
891.665	22.36
891.836	-6.31
892.007	-69.8
892.178	-10.41
892.349	5.97
892.52	-49.32
892.691	-2.22
892.862	-73.9
893.032	14.17
893.203	8.02
893.374	-26.79
893.545	20.31
893.716	3.93
893.887	16.21
894.057	26.45
894.228	8.02
894.399	48.98
894.57	79.7
894.74	-55.47
894.911	-28.84
895.082	-8.36
895.253	26.45
895.423	12.12
895.594	22.36
895.764	57.17
895.935	51.03
896.106	-10.41
896.276	61.27
896.447	34.64
896.617	-30.89
896.788	-65.71
896.958	44.88
897.129	61.27
897.299	18.26
897.47	75.6
897.64	-30.89
897.81	-37.03
897.981	44.88
898.151	-41.13
898.322	-2.22
898.492	63.32
898.662	-61.61
898.832	-16.55
899.003	-14.51
899.173	42.84
899.343	-18.6
899.513	-39.08
