Data from USB4F104151__12__13-10-25-846.txt Node

Date: Fri Mar 14 13:10:25 EDT 2025
User: louis
Spectrometer: USB4F10415
Trigger mode: 4
Integration Time (sec): 2.000000E-2
Scans to average: 1
Electric dark correction enabled: true
Nonlinearity correction enabled: false
Boxcar width: 0
XAxis mode: Wavelengths
Number of Pixels in Spectrum: 3648
>>>>>Begin Spectral Data<<<<<
178.204	-59.39
178.424	-59.39
178.644	-59.39
178.864	-45.06
179.084	-40.96
179.304	30.72
179.524	2.05
179.744	34.82
179.964	43.01
180.184	28.67
180.404	14.34
180.624	-10.24
180.844	-38.91
181.064	-24.58
181.283	8.19
181.503	-40.96
181.723	-47.1
181.943	34.82
182.163	30.72
182.383	-38.91
182.602	10.24
182.822	59.39
183.042	106.49
183.262	12.29
183.482	32.77
183.701	18.43
183.921	-32.77
184.141	12.29
184.361	-30.72
184.58	53.25
184.8	45.06
185.02	2.05
185.239	59.39
185.459	51.2
185.679	65.54
185.898	22.53
186.118	75.77
186.338	24.58
186.557	73.73
186.777	8.19
186.997	24.58
187.216	-30.72
187.436	98.3
187.655	-2.05
187.875	90.11
188.095	10.24
188.314	51.2
188.534	63.49
188.753	18.43
188.973	-32.77
189.192	69.63
189.412	71.68
189.631	75.77
189.851	122.88
190.07	32.77
190.29	-18.43
190.509	16.38
190.729	2.05
190.948	106.49
191.168	108.54
191.387	79.87
191.607	32.77
191.826	77.82
192.045	4.1
192.265	51.2
192.484	63.49
192.704	36.86
192.923	69.63
193.142	57.34
193.362	100.35
193.581	149.5
193.8	-6.14
194.02	61.44
194.239	28.67
194.458	45.06
194.678	16.38
194.897	26.62
195.116	53.25
195.335	67.58
195.555	43.01
195.774	16.38
195.993	40.96
196.212	36.86
196.432	-36.86
196.651	100.35
196.87	75.77
197.089	106.49
197.308	106.49
197.528	98.3
197.747	40.96
197.966	6.14
198.185	61.44
198.404	90.11
198.623	90.11
198.842	94.21
199.062	-16.38
199.281	73.73
199.5	63.49
199.719	53.25
199.938	69.63
200.157	67.58
200.376	55.3
200.595	79.87
200.814	94.21
201.033	-22.53
201.252	61.44
201.471	34.82
201.69	59.39
201.909	47.1
202.128	30.72
202.347	14.34
202.566	18.43
202.785	26.62
203.004	-24.58
203.223	47.1
203.442	30.72
203.661	73.73
203.879	49.15
204.098	77.82
204.317	-4.1
204.536	102.4
204.755	22.53
204.974	61.44
205.193	79.87
205.411	88.06
205.63	2.05
205.849	30.72
206.068	34.82
206.287	63.49
206.505	55.3
206.724	69.63
206.943	30.72
207.162	-8.19
207.381	55.3
207.599	65.54
207.818	-20.48
208.037	45.06
208.255	30.72
208.474	73.73
208.693	43.01
208.911	20.48
209.13	108.54
209.349	14.34
209.567	71.68
209.786	28.67
210.005	81.92
210.223	34.82
210.442	24.58
210.661	8.19
210.879	10.24
211.098	10.24
211.316	69.63
211.535	126.97
211.753	-53.25
211.972	92.16
212.191	65.54
212.409	16.38
212.628	12.29
212.846	18.43
213.065	124.93
213.283	108.54
213.502	-16.38
213.72	32.77
213.938	75.77
214.157	20.48
214.375	63.49
214.594	10.24
214.812	59.39
215.031	86.01
215.249	8.19
215.467	-8.19
215.686	6.14
215.904	53.25
216.122	81.92
216.341	77.82
216.559	71.68
216.778	110.59
216.996	92.16
217.214	51.2
217.432	-6.14
217.651	8.19
217.869	153.6
218.087	22.53
218.306	45.06
218.524	-28.67
218.742	55.3
218.96	36.86
219.179	36.86
219.397	24.58
219.615	69.63
219.833	20.48
220.051	16.38
220.27	47.1
220.488	47.1
220.706	67.58
220.924	100.35
221.142	2.05
221.36	18.43
221.578	86.01
221.796	18.43
222.015	55.3
222.233	129.02
222.451	75.77
222.669	79.87
222.887	73.73
223.105	0
223.323	53.25
223.541	75.77
223.759	24.58
223.977	-26.62
224.195	16.38
224.413	-24.58
224.631	63.49
224.849	26.62
225.067	96.25
225.285	157.69
225.503	-12.29
225.721	20.48
225.939	40.96
226.157	16.38
226.375	83.97
226.592	0
226.81	45.06
227.028	137.21
227.246	86.01
227.464	90.11
227.682	10.24
227.9	12.29
228.117	92.16
228.335	34.82
228.553	77.82
228.771	8.19
228.989	65.54
229.206	61.44
229.424	-40.96
229.642	75.77
229.86	32.77
230.077	36.86
230.295	34.82
230.513	18.43
230.731	157.69
230.948	88.06
231.166	114.69
231.384	61.44
231.601	47.1
231.819	63.49
232.037	57.34
232.254	-10.24
232.472	55.3
232.689	-28.67
232.907	24.58
233.125	57.34
233.342	43.01
233.56	65.54
233.777	69.63
233.995	45.06
234.213	92.16
234.43	24.58
234.648	57.34
234.865	-16.38
235.083	32.77
235.3	8.19
235.518	12.29
235.735	-12.29
235.953	59.39
236.17	67.58
236.388	-14.34
236.605	32.77
236.822	67.58
237.04	43.01
237.257	8.19
237.475	0
237.692	30.72
237.909	73.73
238.127	43.01
238.344	83.97
238.562	22.53
238.779	16.38
238.996	30.72
239.214	-24.58
239.431	16.38
239.648	45.06
239.865	120.83
240.083	69.63
240.3	-2.05
240.517	-20.48
240.735	57.34
240.952	110.59
241.169	14.34
241.386	45.06
241.603	24.58
241.821	73.73
242.038	69.63
242.255	81.92
242.472	6.14
242.689	81.92
242.907	98.3
243.124	-24.58
243.341	65.54
243.558	-24.58
243.775	24.58
243.992	16.38
244.209	24.58
244.426	38.91
244.643	59.39
244.86	-6.14
245.078	63.49
245.295	73.73
245.512	51.2
245.729	0
245.946	65.54
246.163	131.07
246.38	40.96
246.597	12.29
246.814	0
247.031	8.19
247.248	61.44
247.464	81.92
247.681	34.82
247.898	57.34
248.115	100.35
248.332	20.48
248.549	18.43
248.766	67.58
248.983	10.24
249.2	-38.91
249.417	34.82
249.633	81.92
249.85	79.87
250.067	-40.96
250.284	38.91
250.501	65.54
250.717	45.06
250.934	2.05
251.151	96.25
251.368	22.53
251.585	4.1
251.801	73.73
252.018	34.82
252.235	69.63
252.451	67.58
252.668	16.38
252.885	73.73
253.102	0
253.318	38.91
253.535	22.53
253.752	-12.29
253.968	69.63
254.185	-6.14
254.401	53.25
254.618	151.55
254.835	106.49
255.051	133.12
255.268	73.73
255.484	71.68
255.701	26.62
255.917	-53.25
256.134	10.24
256.351	4.1
256.567	43.01
256.784	32.77
257	-14.34
257.217	10.24
257.433	79.87
257.65	51.2
257.866	69.63
258.082	8.19
258.299	38.91
258.515	81.92
258.732	34.82
258.948	53.25
259.165	4.1
259.381	12.29
259.597	18.43
259.814	43.01
260.03	30.72
260.246	40.96
260.463	12.29
260.679	59.39
260.895	36.86
261.112	-6.14
261.328	86.01
261.544	65.54
261.761	110.59
261.977	-6.14
262.193	32.77
262.409	106.49
262.626	67.58
262.842	106.49
263.058	24.58
263.274	65.54
263.49	38.91
263.707	114.69
263.923	24.58
264.139	77.82
264.355	18.43
264.571	61.44
264.787	90.11
265.004	94.21
265.22	61.44
265.436	45.06
265.652	-6.14
265.868	53.25
266.084	30.72
266.3	16.38
266.516	-14.34
266.732	57.34
266.948	57.34
267.164	57.34
267.38	45.06
267.596	22.53
267.812	51.2
268.028	47.1
268.244	45.06
268.46	-20.48
268.676	16.38
268.892	32.77
269.108	4.1
269.324	-18.43
269.54	-14.34
269.756	45.06
269.972	-6.14
270.188	6.14
270.403	73.73
270.619	57.34
270.835	73.73
271.051	26.62
271.267	65.54
271.483	18.43
271.698	32.77
271.914	106.49
272.13	88.06
272.346	51.2
272.562	4.1
272.777	20.48
272.993	40.96
273.209	57.34
273.425	0
273.64	18.43
273.856	28.67
274.072	24.58
274.287	57.34
274.503	59.39
274.719	59.39
274.934	10.24
275.15	8.19
275.366	-8.19
275.581	22.53
275.797	75.77
276.012	43.01
276.228	32.77
276.444	45.06
276.659	51.2
276.875	-6.14
277.09	57.34
277.306	45.06
277.521	20.48
277.737	47.1
277.952	94.21
278.168	53.25
278.383	69.63
278.599	12.29
278.814	40.96
279.03	34.82
279.245	116.73
279.461	49.15
279.676	92.16
279.892	-65.53
280.107	40.96
280.322	32.77
280.538	61.44
280.753	30.72
280.969	118.78
281.184	137.21
281.399	114.69
281.615	36.86
281.83	45.06
282.045	34.82
282.26	28.67
282.476	38.91
282.691	67.58
282.906	40.96
283.122	139.26
283.337	-38.91
283.552	65.54
283.767	59.39
283.983	73.73
284.198	2.05
284.413	-20.48
284.628	-22.53
284.843	34.82
285.058	18.43
285.274	26.62
285.489	75.77
285.704	96.25
285.919	16.38
286.134	10.24
286.349	45.06
286.564	67.58
286.779	83.97
286.995	75.77
287.21	4.1
287.425	20.48
287.64	-2.05
287.855	63.49
288.07	24.58
288.285	110.59
288.5	26.62
288.715	116.73
288.93	155.65
289.145	-4.1
289.36	69.63
289.575	57.34
289.79	30.72
290.004	75.77
290.219	26.62
290.434	43.01
290.649	43.01
290.864	94.21
291.079	14.34
291.294	12.29
291.509	67.58
291.724	118.78
291.938	10.24
292.153	135.17
292.368	-24.58
292.583	149.5
292.798	141.31
293.012	36.86
293.227	34.82
293.442	34.82
293.657	59.39
293.871	69.63
294.086	28.67
294.301	34.82
294.516	73.73
294.73	57.34
294.945	73.73
295.16	83.97
295.374	118.78
295.589	65.54
295.804	69.63
296.018	34.82
296.233	118.78
296.447	14.34
296.662	18.43
296.877	22.53
297.091	40.96
297.306	83.97
297.52	45.06
297.735	22.53
297.949	90.11
298.164	59.39
298.378	49.15
298.593	69.63
298.807	98.3
299.022	20.48
299.236	22.53
299.451	73.73
299.665	47.1
299.88	81.92
300.094	-2.05
300.309	49.15
300.523	16.38
300.737	-18.43
300.952	28.67
301.166	8.19
301.381	28.67
301.595	-6.14
301.809	36.86
302.024	57.34
302.238	65.54
302.452	57.34
302.667	108.54
302.881	131.07
303.095	100.35
303.309	94.21
303.524	-8.19
303.738	2.05
303.952	73.73
304.166	49.15
304.381	24.58
304.595	94.21
304.809	88.06
305.023	-16.38
305.237	69.63
305.452	43.01
305.666	98.3
305.88	51.2
306.094	71.68
306.308	20.48
306.522	-8.19
306.736	57.34
306.95	108.54
307.164	8.19
307.379	16.38
307.593	86.01
307.807	16.38
308.021	135.17
308.235	10.24
308.449	106.49
308.663	77.82
308.877	49.15
309.091	98.3
309.305	59.39
309.519	4.1
309.733	98.3
309.947	4.1
310.161	106.49
310.374	47.1
310.588	69.63
310.802	77.82
311.016	43.01
311.23	24.58
311.444	34.82
311.658	81.92
311.872	53.25
312.085	108.54
312.299	67.58
312.513	12.29
312.727	8.19
312.941	59.39
313.154	63.49
313.368	59.39
313.582	2.05
313.796	59.39
314.009	102.4
314.223	59.39
314.437	81.92
314.651	86.01
314.864	-24.58
315.078	-12.29
315.292	-16.38
315.505	53.25
315.719	51.2
315.933	0
316.146	65.54
316.36	-8.19
316.573	18.43
316.787	139.26
317.001	108.54
317.214	57.34
317.428	83.97
317.641	75.77
317.855	47.1
318.068	114.69
318.282	-14.34
318.495	57.34
318.709	12.29
318.922	51.2
319.136	92.16
319.349	98.3
319.563	-4.1
319.776	135.17
319.99	20.48
320.203	18.43
320.417	-10.24
320.63	6.14
320.843	65.54
321.057	63.49
321.27	40.96
321.483	40.96
321.697	59.39
321.91	32.77
322.124	24.58
322.337	88.06
322.55	71.68
322.763	63.49
322.977	124.93
323.19	45.06
323.403	59.39
323.617	22.53
323.83	79.87
324.043	67.58
324.256	57.34
324.469	53.25
324.683	-6.14
324.896	32.77
325.109	30.72
325.322	32.77
325.535	116.73
325.748	-45.06
325.962	49.15
326.175	8.19
326.388	34.82
326.601	57.34
326.814	43.01
327.027	36.86
327.24	26.62
327.453	-81.92
327.666	26.62
327.879	-2.05
328.092	92.16
328.305	71.68
328.518	51.2
328.731	59.39
328.944	26.62
329.157	34.82
329.37	20.48
329.583	38.91
329.796	88.06
330.009	65.54
330.222	81.92
330.435	53.25
330.648	90.11
330.861	18.43
331.073	28.67
331.286	34.82
331.499	57.34
331.712	45.06
331.925	14.34
332.138	81.92
332.35	108.54
332.563	67.58
332.776	32.77
332.989	2.05
333.202	81.92
333.414	94.21
333.627	67.58
333.84	24.58
334.053	65.54
334.265	30.72
334.478	12.29
334.691	77.82
334.903	40.96
335.116	47.1
335.329	61.44
335.541	88.06
335.754	120.83
335.966	16.38
336.179	116.73
336.392	8.19
336.604	133.12
336.817	57.34
337.029	49.15
337.242	98.3
337.454	20.48
337.667	38.91
337.88	79.87
338.092	8.19
338.305	73.73
338.517	-26.62
338.729	8.19
338.942	90.11
339.154	18.43
339.367	-10.24
339.579	71.68
339.792	59.39
340.004	73.73
340.217	6.14
340.429	26.62
340.641	30.72
340.854	114.69
341.066	45.06
341.278	32.77
341.491	114.69
341.703	81.92
341.915	106.49
342.128	53.25
342.34	114.69
342.552	73.73
342.764	69.63
342.977	83.97
343.189	28.67
343.401	94.21
343.613	24.58
343.826	106.49
344.038	47.1
344.25	20.48
344.462	86.01
344.674	16.38
344.886	16.38
345.099	88.06
345.311	22.53
345.523	110.59
345.735	67.58
345.947	-28.67
346.159	45.06
346.371	34.82
346.583	73.73
346.795	83.97
347.007	-6.14
347.219	49.15
347.431	-14.34
347.643	40.96
347.855	49.15
348.067	106.49
348.279	24.58
348.491	45.06
348.703	106.49
348.915	102.4
349.127	24.58
349.339	92.16
349.551	94.21
349.763	102.4
349.975	-2.05
350.187	0
350.399	118.78
350.61	94.21
350.822	77.82
351.034	34.82
351.246	26.62
351.458	61.44
351.669	116.73
351.881	20.48
352.093	98.3
352.305	88.06
352.517	100.35
352.728	69.63
352.94	65.54
353.152	112.64
353.363	69.63
353.575	53.25
353.787	-12.29
353.999	18.43
354.21	114.69
354.422	32.77
354.633	47.1
354.845	106.49
355.057	8.19
355.268	30.72
355.48	-32.77
355.692	53.25
355.903	45.06
356.115	-12.29
356.326	0
356.538	22.53
356.749	53.25
356.961	30.72
357.172	69.63
357.384	26.62
357.595	102.4
357.807	83.97
358.018	26.62
358.23	71.68
358.441	57.34
358.653	73.73
358.864	63.49
359.075	90.11
359.287	51.2
359.498	57.34
359.709	49.15
359.921	67.58
360.132	116.73
360.344	18.43
360.555	16.38
360.766	-32.77
360.977	28.67
361.189	118.78
361.4	63.49
361.611	96.25
361.823	47.1
362.034	118.78
362.245	45.06
362.456	73.73
362.667	-12.29
362.879	40.96
363.09	100.35
363.301	67.58
363.512	-12.29
363.723	18.43
363.935	6.14
364.146	90.11
364.357	67.58
364.568	98.3
364.779	45.06
364.99	98.3
365.201	16.38
365.412	59.39
365.623	0
365.834	139.26
366.045	67.58
366.256	79.87
366.467	73.73
366.678	-6.14
366.889	-32.77
367.1	53.25
367.311	49.15
367.522	61.44
367.733	129.02
367.944	61.44
368.155	-43.01
368.366	90.11
368.577	98.3
368.788	43.01
368.999	-16.38
369.209	75.77
369.42	143.36
369.631	135.17
369.842	47.1
370.053	18.43
370.264	67.58
370.474	38.91
370.685	79.87
370.896	49.15
371.107	118.78
371.317	73.73
371.528	53.25
371.739	96.25
371.95	65.54
372.16	26.62
372.371	8.19
372.582	98.3
372.792	55.3
373.003	22.53
373.214	-8.19
373.424	63.49
373.635	55.3
373.846	98.3
374.056	12.29
374.267	65.54
374.477	32.77
374.688	75.77
374.898	106.49
375.109	61.44
375.319	16.38
375.53	79.87
375.74	30.72
375.951	92.16
376.161	40.96
376.372	96.25
376.582	20.48
376.793	96.25
377.003	94.21
377.214	55.3
377.424	139.26
377.635	12.29
377.845	24.58
378.055	94.21
378.266	40.96
378.476	26.62
378.686	110.59
378.897	32.77
379.107	51.2
379.317	14.34
379.528	47.1
379.738	32.77
379.948	67.58
380.158	86.01
380.369	110.59
380.579	49.15
380.789	53.25
380.999	77.82
381.21	100.35
381.42	36.86
381.63	47.1
381.84	122.88
382.05	122.88
382.261	47.1
382.471	102.4
382.681	57.34
382.891	110.59
383.101	65.54
383.311	67.58
383.521	90.11
383.731	114.69
383.941	98.3
384.151	92.16
384.361	67.58
384.571	141.31
384.781	18.43
384.991	69.63
385.201	90.11
385.411	53.25
385.621	47.1
385.831	55.3
386.041	4.1
386.251	100.35
386.461	77.82
386.671	94.21
386.881	65.54
387.091	75.77
387.301	104.45
387.511	26.62
387.72	40.96
387.93	73.73
388.14	65.54
388.35	45.06
388.56	59.39
388.769	131.07
388.979	88.06
389.189	-4.1
389.399	157.69
389.609	139.26
389.818	147.45
390.028	137.21
390.238	53.25
390.447	20.48
390.657	8.19
390.867	116.73
391.076	10.24
391.286	6.14
391.496	4.1
391.705	116.73
391.915	34.82
392.125	83.97
392.334	-43.01
392.544	61.44
392.753	67.58
392.963	47.1
393.172	151.55
393.382	96.25
393.591	139.26
393.801	102.4
394.01	124.93
394.22	90.11
394.429	49.15
394.639	135.17
394.848	49.15
395.058	106.49
395.267	88.06
395.477	114.69
395.686	131.07
395.895	139.26
396.105	83.97
396.314	159.74
396.524	55.3
396.733	98.3
396.942	90.11
397.152	186.37
397.361	106.49
397.57	122.88
397.78	59.39
397.989	75.77
398.198	124.93
398.407	145.41
398.617	108.54
398.826	141.31
399.035	100.35
399.244	114.69
399.453	147.45
399.663	112.64
399.872	139.26
400.081	151.55
400.29	172.03
400.499	116.73
400.708	147.45
400.917	75.77
401.127	151.55
401.336	106.49
401.545	116.73
401.754	102.4
401.963	139.26
402.172	28.67
402.381	79.87
402.59	157.69
402.799	108.54
403.008	116.73
403.217	94.21
403.426	174.08
403.635	137.21
403.844	118.78
404.053	114.69
404.262	153.6
404.471	163.84
404.68	122.88
404.888	133.12
405.097	126.97
405.306	200.7
405.515	174.08
405.724	155.65
405.933	176.13
406.142	147.45
406.35	215.04
406.559	145.41
406.768	167.93
406.977	114.69
407.185	165.89
407.394	229.37
407.603	221.18
407.812	167.93
408.02	180.22
408.229	227.32
408.438	165.89
408.646	219.13
408.855	233.47
409.064	245.76
409.272	196.61
409.481	262.14
409.69	294.91
409.898	292.86
410.107	229.37
410.315	278.52
410.524	368.63
410.733	247.8
410.941	264.19
411.15	331.77
411.358	305.15
411.567	389.11
411.775	360.44
411.984	311.29
412.192	335.87
412.401	327.68
412.609	405.5
412.818	444.41
413.026	491.51
413.234	419.83
413.443	464.89
413.651	376.83
413.86	378.87
414.068	538.62
414.276	606.2
414.485	534.52
414.693	497.66
414.901	626.68
415.11	608.25
415.318	548.86
415.526	628.73
415.734	690.17
415.943	681.97
416.151	739.32
416.359	753.65
416.567	749.56
416.776	679.93
416.984	776.18
417.192	815.09
417.4	874.48
417.608	899.06
417.817	933.87
418.025	956.4
418.233	1034.22
418.441	1015.79
418.649	1048.56
418.857	1130.48
419.065	1124.33
419.273	1150.96
419.481	1066.99
419.689	1165.29
419.897	1302.51
420.105	1294.32
420.313	1318.89
420.521	1429.48
420.729	1415.15
420.937	1343.47
421.145	1546.22
421.353	1454.06
421.561	1703.91
421.769	1607.66
421.977	1738.73
422.185	1746.92
422.393	1769.44
422.601	1877.99
422.809	1912.8
423.017	1931.23
423.224	2123.74
423.432	2088.93
423.64	2107.36
423.848	2346.97
424.056	2252.77
424.263	2551.77
424.471	2344.92
424.679	2445.27
424.887	2613.21
425.094	2609.11
425.302	2803.67
425.51	2738.13
425.718	2920.4
425.925	2936.79
426.133	3086.29
426.341	3180.5
426.548	3395.53
426.756	3338.19
426.964	3516.36
427.171	3497.93
427.379	3565.51
427.586	3667.91
427.794	3835.85
428.001	3850.18
428.209	4210.62
428.417	3995.59
428.624	4319.17
428.832	4405.18
429.039	4351.93
429.247	4310.97
429.454	4722.62
429.662	5046.19
429.869	4636.6
430.076	5205.94
430.284	4960.18
430.491	5187.5
430.699	5423.02
430.906	5550
431.114	5433.26
431.321	5765.03
431.528	5889.96
431.736	6375.33
431.943	6561.69
432.15	6123.43
432.358	6549.4
432.565	6887.32
432.772	6703
432.979	7227.28
433.187	7114.64
433.394	7317.39
433.601	7618.44
433.808	7729.03
434.016	7661.45
434.223	8005.51
434.43	8564.61
434.637	8241.03
434.844	8920.95
435.052	8830.84
435.259	9092.98
435.466	9082.74
435.673	8941.43
435.88	9344.88
436.087	10028.9
436.294	9985.9
436.501	9742.19
436.708	9906.02
436.915	10428.26
437.122	10835.8
437.329	10915.67
437.537	11192.15
437.743	11194.2
437.95	11065.18
438.157	11943.75
438.364	12113.74
438.571	11976.52
438.778	12062.54
438.985	13305.65
439.192	12627.78
439.399	13287.22
439.606	12922.68
439.813	13664.05
440.02	14280.49
440.227	14247.72
440.433	14233.38
440.64	14505.76
440.847	14616.35
441.054	14923.55
441.261	15857.42
441.467	15492.88
441.674	16088.84
441.881	16525.06
442.088	16492.29
442.294	16348.93
442.501	16856.83
442.708	17157.88
442.914	17868.53
443.121	18798.31
443.328	18233.07
443.534	19451.61
443.741	18761.44
443.948	18355.94
444.154	19982.03
444.361	19578.58
444.568	20004.56
444.774	19885.78
444.981	20289.23
445.187	20694.72
445.394	21720.76
445.6	21122.75
445.807	23377.56
446.013	22478.5
446.22	22906.53
446.426	23871.12
446.633	23817.88
446.839	24690.31
447.046	23758.49
447.252	25085.57
447.459	25222.78
447.665	25380.48
447.871	26580.59
448.078	27113.06
448.284	25937.52
448.491	26590.83
448.697	27743.83
448.903	28094.04
449.11	28362.32
449.316	27874.9
449.522	28292.69
449.728	29032
449.935	29584.96
450.141	29204.03
450.347	30457.39
450.553	29333.06
450.76	29572.67
450.966	30799.4
451.172	30213.68
451.378	31161.89
451.584	30338.61
451.791	31526.43
451.997	30742.06
452.203	31563.29
452.409	31485.47
452.615	31419.94
452.821	30533.17
453.027	30215.73
453.233	31608.35
453.44	30510.64
453.646	30821.93
453.852	30543.41
454.058	31688.22
454.264	30420.53
454.47	31028.77
454.676	30520.88
454.882	31084.07
455.088	28853.83
455.294	29148.74
455.5	29498.94
455.705	29900.34
455.911	28708.43
456.117	28202.58
456.323	27881.05
456.529	26324.59
456.735	27508.32
456.941	26779.24
457.147	26138.23
457.352	25724.54
457.558	25261.69
457.764	25353.85
457.97	24907.4
458.176	24440.46
458.381	24462.99
458.587	23260.83
458.793	22998.69
458.999	22085.29
459.204	23672.47
459.41	22970.02
459.616	21485.24
459.821	21540.54
460.027	21243.58
460.233	20747.97
460.438	19967.7
460.644	20278.99
460.85	19250.91
461.055	19082.97
461.261	19058.4
461.466	17401.59
461.672	17024.76
461.878	18036.46
462.083	17172.22
462.289	16817.92
462.494	16385.8
462.7	15712.02
462.905	15116.06
463.111	16006.92
463.316	16051.98
463.522	15402.77
463.727	15572.75
463.932	15673.1
464.138	15322.9
464.343	15599.38
464.549	14974.75
464.754	15648.53
464.959	15259.42
465.165	15234.84
465.37	14599.97
465.575	14061.35
465.781	14692.13
465.986	15001.37
466.191	14458.66
466.397	14012.2
466.602	13352.76
466.807	13973.29
467.012	13901.61
467.218	13674.29
467.423	13731.63
467.628	13702.96
467.833	14073.64
468.038	13780.78
468.244	13346.61
468.449	13797.17
468.654	13334.32
468.859	13596.46
469.064	13158.2
469.269	12713.79
469.474	12756.8
469.679	13143.86
469.885	13072.18
470.09	12715.84
470.295	12781.37
470.5	12701.5
470.705	12662.59
470.91	12621.63
471.115	12214.09
471.32	12508.99
471.525	12134.21
471.73	12197.7
471.935	11951.95
472.139	11507.54
472.344	11831.12
472.549	11611.98
472.754	11544.4
472.959	11351.89
473.164	11140.95
473.369	10960.73
473.574	11495.25
473.778	11253.59
473.983	11085.65
474.188	11040.6
474.393	10626.91
474.598	10657.63
474.802	10647.39
475.007	10420.06
475.212	10624.86
475.417	10108.77
475.621	10014.57
475.826	10008.42
476.031	9934.7
476.235	9617.26
476.44	9918.31
476.645	9643.88
476.849	9660.27
477.054	9596.78
477.259	9322.35
477.463	9353.07
477.668	9043.83
477.872	9381.74
478.077	9201.52
478.282	8918.9
478.486	9142.13
478.691	8902.52
478.895	8648.57
479.1	8695.68
479.304	8556.41
479.509	8439.68
479.713	8691.58
479.918	8273.79
480.122	8126.34
480.326	8519.55
480.531	8392.58
480.735	8281.99
480.94	8251.27
481.144	8580.99
481.348	8062.85
481.553	8255.36
481.757	8089.48
481.961	8396.67
482.166	8224.64
482.37	8179.59
482.574	8138.63
482.778	8030.09
482.983	8392.58
483.187	8081.28
483.391	8101.76
483.595	8087.43
483.8	7950.21
484.004	8181.64
484.208	8234.88
484.412	8105.86
484.616	8081.28
484.821	8202.11
485.025	8112
485.229	8103.81
485.433	7966.6
485.637	8052.61
485.841	7841.67
486.045	7894.92
486.249	7909.26
486.453	7997.32
486.657	8042.37
486.861	8101.76
487.065	7925.64
487.269	7927.69
487.473	7739.27
487.677	8105.86
487.881	8060.8
488.085	7995.27
488.289	8038.28
488.493	7997.32
488.697	8288.13
488.901	8021.89
489.105	8040.33
489.309	8159.11
489.512	7980.93
489.716	8210.31
489.92	8206.21
490.124	8150.92
490.328	8173.44
490.531	8152.96
490.735	8251.27
490.939	8306.56
491.143	8286.08
491.346	8273.79
491.55	8480.64
491.754	8365.95
491.958	8451.97
492.161	8437.63
492.365	8523.65
492.569	8355.71
492.772	8533.89
492.976	8509.31
493.18	8568.7
493.383	8447.87
493.587	8804.22
493.79	8699.77
493.994	8769.4
494.197	8978.29
494.401	8736.63
494.605	8939.38
494.808	9183.09
495.012	8984.44
495.215	9224.05
495.419	9285.49
495.622	9299.83
495.825	9338.74
496.029	9387.89
496.232	9543.53
496.436	9305.97
496.639	9539.44
496.843	9725.8
497.046	9752.43
497.249	9934.7
497.453	9983.85
497.656	9977.7
497.859	10045.29
498.063	10368.87
498.266	10344.29
498.469	10190.69
498.673	10536.8
498.876	10563.42
499.079	10874.71
499.282	10862.43
499.485	11061.08
499.689	11036.5
499.892	11214.68
500.095	11169.62
500.298	11493.2
500.501	11269.97
500.705	11595.6
500.908	11806.54
501.111	11978.57
501.314	12091.21
501.517	12068.68
501.72	12463.94
501.923	12253
502.126	12414.79
502.329	12799.8
502.532	12721.98
502.735	12851
502.938	12922.68
503.141	13018.94
503.344	13377.33
503.547	13272.89
503.75	13682.48
503.953	13846.32
504.156	13903.66
504.359	13928.24
504.562	14092.07
504.765	14391.08
504.968	14548.77
505.17	14792.48
505.373	14454.56
505.576	14958.36
505.779	14960.41
505.982	15312.66
506.185	15490.84
506.387	15400.72
506.59	15652.63
506.793	16054.03
506.996	15853.33
507.198	16305.93
507.401	16127.75
507.604	16420.61
507.807	16811.78
508.009	16852.73
508.212	16862.97
508.415	17006.33
508.617	17276.66
508.82	17481.46
509.022	17221.37
509.225	17886.96
509.428	17903.34
509.63	17995.5
509.833	18091.76
510.035	18644.71
510.238	18460.39
510.44	18851.55
510.643	19015.39
510.845	19230.43
511.048	19101.4
511.25	19443.42
511.453	19576.53
511.655	20420.3
511.858	20072.14
512.06	19963.6
512.262	20522.69
512.465	20725.44
512.667	20817.6
512.87	20737.73
513.072	20926.14
513.274	21116.61
513.477	21427.9
513.679	21522.1
513.881	21974.7
514.084	21999.28
514.286	22036.14
514.488	22455.98
514.69	22734.5
514.893	22836.9
515.095	23223.97
515.297	23217.82
515.499	23273.12
515.701	23635.61
515.904	23801.49
516.106	23881.36
516.308	24618.63
516.51	24391.31
516.712	24624.78
516.914	24626.82
517.116	25525.88
517.318	25198.21
517.52	25661.05
517.722	25564.79
517.925	26130.03
518.127	26168.94
518.329	26543.72
518.531	26457.71
518.733	26629.74
518.935	26965.6
519.136	26930.79
519.338	27479.64
519.54	27399.77
519.742	27569.76
519.944	27696.73
520.146	28157.52
520.348	28769.86
520.55	28603.98
520.752	28610.12
520.954	28876.36
521.155	28941.89
521.357	29617.72
521.559	29716.03
521.761	29898.3
521.963	30168.63
522.164	30217.78
522.366	30289.46
522.568	30907.94
522.77	30563.89
522.971	30936.62
523.173	30971.43
523.375	31122.98
523.576	31012.39
523.778	31520.29
523.98	31598.11
524.181	31991.32
524.383	31761.95
524.584	32200.21
524.786	32042.52
524.988	32470.54
525.189	32873.99
525.391	32769.55
525.592	33201.67
525.794	33062.41
525.995	32943.63
526.197	33455.62
526.398	33187.33
526.6	33881.6
526.801	34027
527.003	33865.21
527.204	33760.76
527.406	33904.12
527.607	34344.44
527.808	34414.07
528.01	34215.41
528.211	34035.19
528.412	34866.67
528.614	35177.96
528.815	34809.32
529.016	35481.06
529.218	34471.41
529.419	34862.57
529.62	35186.15
529.822	34692.59
530.023	34967.02
530.224	35298.79
530.425	34924.01
530.626	34502.13
530.828	35053.03
531.029	35941.85
531.23	35436
531.431	35284.45
531.632	35640.8
531.833	35681.76
532.035	35208.68
532.236	35687.9
532.437	35657.18
532.638	35671.52
532.839	36171.22
533.04	36052.44
533.241	35419.62
533.442	36007.39
533.643	36236.76
533.844	35706.34
534.045	35892.7
534.246	35767.77
534.447	35747.29
534.648	35556.83
534.849	35929.56
535.05	35659.23
535.251	35841.5
535.451	35741.15
535.652	36113.88
535.853	35843.55
536.054	36271.57
536.255	36349.4
536.456	35515.87
536.657	36224.47
536.857	35839.45
537.058	36085.21
537.259	36154.84
537.46	36058.59
537.66	35991
537.861	35929.56
538.062	35681.76
538.263	36093.4
538.463	35964.38
538.664	35956.19
538.865	36257.24
539.065	36384.21
539.266	35755.49
539.466	36236.76
539.667	35694.05
539.868	36179.42
540.068	35673.57
540.269	35784.16
540.469	36623.83
540.67	35771.87
540.87	36212.18
541.071	35673.57
541.271	36175.32
541.472	35720.67
541.672	36054.49
541.873	35755.49
542.073	35667.42
542.274	36230.62
542.474	35644.9
542.675	35775.97
542.875	36132.31
543.075	36257.24
543.276	35177.96
543.476	35921.37
543.676	35628.51
543.877	35757.53
544.077	36232.66
544.277	35513.83
544.478	35624.42
544.678	35995.1
544.878	35986.91
545.078	35474.91
545.279	35419.62
545.479	35544.55
545.679	35755.49
545.879	35325.41
546.079	35956.19
546.28	35689.95
546.48	35278.31
546.68	35825.12
546.88	35605.98
547.08	35737.05
547.28	35460.58
547.48	35550.69
547.68	35489.25
547.88	35452.39
548.081	35544.55
548.281	35565.03
548.481	35444.2
548.681	36206.04
548.881	35538.4
549.081	35603.94
549.28	35292.65
549.48	35837.41
549.68	35618.27
549.88	35847.65
550.08	35278.31
550.28	35550.69
550.48	35718.62
550.68	35730.91
550.88	35694.05
551.08	35212.77
551.279	35397.09
551.479	35118.57
551.679	35231.21
551.879	35429.86
552.079	35538.4
552.278	35280.36
552.478	35304.93
552.678	35298.79
552.878	35552.74
553.077	35534.31
553.277	35126.76
553.477	35784.16
553.676	35081.7
553.876	35288.55
554.076	35274.21
554.275	35407.33
554.475	34770.41
554.674	34975.21
554.874	35571.17
555.074	35147.24
555.273	34565.62
555.473	35149.29
555.672	35046.89
555.872	34622.96
556.071	34833.9
556.271	35141.1
556.47	34868.72
556.67	34817.52
556.869	34903.53
557.068	34915.82
557.268	34887.15
557.467	34536.94
557.667	34602.48
557.866	34518.51
558.065	34506.23
558.265	34491.89
558.464	34012.67
558.663	34715.12
558.863	34139.64
559.062	34549.23
559.261	34037.24
559.461	34584.05
559.66	33977.85
559.859	34315.76
560.058	33854.97
560.258	34035.19
560.457	33785.34
560.656	34336.24
560.855	34055.67
561.054	33793.53
561.253	33451.52
561.453	33914.36
561.652	33836.54
561.851	34106.87
562.05	33619.46
562.249	33054.22
562.448	33684.99
562.647	33254.92
562.846	33433.09
563.045	33549.82
563.244	32996.87
563.443	33652.22
563.642	32937.48
563.841	33308.16
564.04	33103.37
564.239	33168.9
564.438	32998.92
564.637	33379.84
564.836	32841.23
565.035	32615.95
565.234	32867.85
565.432	32716.3
565.631	32517.65
565.83	32704.01
566.029	32357.91
566.228	32634.38
566.427	32192.02
566.625	32380.43
566.824	31936.02
567.023	32122.39
567.222	31649.31
567.42	32151.06
567.619	32075.29
567.818	31643.17
568.016	31903.26
568.215	31880.73
568.414	31663.64
568.612	32108.05
568.811	31448.61
569.01	31745.56
569.208	31184.42
569.407	31585.82
569.605	31219.24
569.804	31399.46
570.002	30987.82
570.201	31282.72
570.4	31075.88
570.598	30850.6
570.797	30795.31
570.995	31114.79
571.193	30608.94
571.392	30848.55
571.59	30467.63
571.789	30608.94
571.987	30389.81
572.186	30649.9
572.384	30434.86
572.582	30660.14
572.781	30504.49
572.979	29953.59
573.177	30496.3
573.376	30432.82
573.574	29824.57
573.772	30314.03
573.971	29744.7
574.169	29836.86
574.367	29347.39
574.565	29728.31
574.763	29617.72
574.962	29535.81
575.16	29337.15
575.358	29509.18
575.556	29425.21
575.754	29591.1
575.952	29288
576.151	29228.61
576.349	28667.47
576.547	28948.04
576.745	29218.37
576.943	29060.68
577.141	28683.85
577.339	29083.2
577.537	28864.07
577.735	28669.51
577.933	28294.74
578.131	28540.49
578.329	28411.47
578.527	28425.81
578.725	28419.66
578.923	28143.19
579.121	28204.63
579.319	27801.18
579.516	28284.5
579.714	27919.96
579.912	27815.51
580.11	27770.46
580.308	27911.77
580.506	27571.8
580.704	27287.14
580.901	27792.98
581.099	27676.25
581.297	27321.95
581.495	27471.45
581.692	27299.42
581.89	27127.39
582.088	27311.71
582.285	27145.83
582.483	26715.75
582.681	27117.15
582.878	26744.42
583.076	26635.88
583.274	26769
583.471	26453.61
583.669	26967.65
583.866	26109.55
584.064	26615.4
584.262	26087.03
584.459	26510.96
584.657	26203.76
584.854	26109.55
585.052	25968.24
585.249	26107.51
585.447	26314.35
585.644	25493.11
585.841	25945.72
586.039	26289.77
586.236	25460.35
586.434	25476.73
586.631	25654.9
586.828	25572.99
587.026	25413.24
587.223	25439.87
587.42	25200.26
587.618	25134.72
587.815	25052.8
588.012	25226.88
588.21	25124.48
588.407	25206.4
588.604	24960.64
588.801	24891.01
588.999	24829.57
589.196	24733.32
589.393	24645.26
589.59	24534.67
589.787	24385.16
589.984	24342.16
590.182	24178.32
590.379	24161.94
590.576	23973.52
590.773	24270.48
590.97	24262.29
591.167	24176.27
591.364	23979.67
591.561	24182.41
591.758	23608.98
591.955	24092.3
592.152	23926.42
592.349	23735.96
592.546	23738.01
592.743	23613.08
592.94	23176.86
593.137	23621.27
593.334	23459.48
593.531	22847.14
593.727	23232.16
593.924	23119.52
594.121	22752.93
594.318	23285.4
594.515	22611.62
594.712	23144.09
594.908	22812.32
595.105	22759.08
595.302	22572.71
595.499	22859.43
595.696	22791.84
595.892	22380.2
596.089	22902.43
596.286	22451.88
596.482	22134.45
596.679	22433.45
596.876	22068.91
597.072	22187.69
597.269	22324.91
597.466	21978.8
597.662	21808.82
597.859	21798.58
598.055	21810.87
598.252	21720.76
598.448	21841.59
598.645	21606.07
598.841	21225.15
599.038	21919.41
599.234	21335.74
599.431	21323.45
599.627	21126.85
599.824	21421.75
600.02	20985.54
600.217	21014.21
600.413	21036.73
600.609	20930.24
600.806	20762.31
601.002	21196.48
601.198	20795.07
601.395	20737.73
601.591	20668.1
601.787	20373.19
601.984	20553.41
602.18	20899.52
602.376	20659.91
602.572	20303.56
602.769	20311.75
602.965	20141.77
603.161	20301.51
603.357	19975.89
603.553	20025.04
603.75	20268.75
603.946	19707.6
604.142	20149.96
604.338	19863.25
604.534	19930.83
604.73	19787.47
604.926	19582.68
605.122	19789.52
605.318	19435.22
605.514	19457.75
605.71	19392.22
605.906	19427.03
606.102	19336.92
606.298	19093.21
606.494	19125.98
606.69	19211.99
606.886	19416.79
607.082	18974.43
607.278	19252.95
607.474	18956
607.67	18966.24
607.866	18513.64
608.062	19001.05
608.257	18724.58
608.453	18863.84
608.649	18736.87
608.845	18487.01
609.041	18687.71
609.236	18759.39
609.432	18585.32
609.628	18558.69
609.824	18386.66
610.019	18521.83
610.215	18517.73
610.411	18501.35
610.606	18210.54
610.802	18329.32
610.998	18167.53
611.193	18560.74
611.389	17989.36
611.584	18058.99
611.78	17993.45
611.976	18079.47
612.171	17927.92
612.367	17837.81
612.562	18122.48
612.758	17831.66
612.953	17858.29
613.149	17794.8
613.344	17700.59
613.539	18233.07
613.735	17977.07
613.93	17798.9
614.126	17692.4
614.321	17704.69
614.517	17587.96
614.712	17878.77
614.907	17624.82
615.103	17645.3
615.298	17471.22
615.493	17665.78
615.688	17311.48
615.884	17491.7
616.079	17409.78
616.274	17450.74
616.47	17442.55
616.665	17493.75
616.86	17104.63
617.055	17084.16
617.25	17202.94
617.445	17102.59
617.641	16817.92
617.836	16955.13
618.031	17092.35
618.226	16899.84
618.421	17000.19
618.616	17012.48
618.811	16731.9
619.006	16977.66
619.201	16207.62
619.396	16494.34
619.591	16336.65
619.786	16480
619.981	16226.06
620.176	16312.07
620.371	16314.12
620.566	16312.07
620.761	16137.99
620.956	16156.43
621.151	15875.85
621.346	16060.17
621.541	15683.34
621.735	16008.97
621.93	15621.91
622.125	15734.54
622.32	15539.99
622.515	15572.75
622.709	15370.01
622.904	15314.71
623.099	15361.81
623.294	15288.09
623.488	15322.9
623.683	14800.67
623.878	14905.12
624.072	15154.97
624.267	14763.81
624.462	14665.5
624.656	14544.67
624.851	14905.12
625.046	14702.37
625.24	14401.32
625.435	14206.76
625.629	14264.1
625.824	14194.47
626.018	14169.9
626.213	13690.67
626.407	14141.22
626.602	13852.46
626.796	13907.76
626.991	14044.97
627.185	13678.38
627.38	13614.9
627.574	13363
627.768	13412.15
627.963	13500.21
628.157	13406
628.352	13514.55
628.546	13115.19
628.74	13303.6
628.935	13082.42
629.129	13076.28
629.323	12650.3
629.517	12789.56
629.712	12877.63
629.906	13063.99
630.1	12537.66
630.294	12607.3
630.489	12609.34
630.683	12717.89
630.877	12463.94
631.071	12298.05
631.265	12197.7
631.459	12134.21
631.653	12220.23
631.848	12193.61
632.042	11917.13
632.236	11972.43
632.43	12005.19
632.624	11867.98
632.818	11702.09
633.012	11730.76
633.206	11546.45
633.4	11587.41
633.594	11386.71
633.788	11624.27
633.982	11482.96
634.176	11218.77
634.369	11288.4
634.563	11460.43
634.757	11243.35
634.951	11181.91
635.145	11050.84
635.339	11147.09
635.533	11034.46
635.726	11022.17
635.92	10772.32
636.114	10717.02
636.308	10620.77
636.501	10805.08
636.695	10714.97
636.889	10436.45
637.083	10514.27
637.276	10579.81
637.47	10477.41
637.664	10475.36
637.857	10383.2
638.051	10409.83
638.244	10297.19
638.438	10542.94
638.632	10166.12
638.825	10057.57
639.019	10010.47
639.212	10116.97
639.406	9822.06
639.599	9764.71
639.793	9973.61
639.986	9772.91
640.18	9568.11
640.373	9715.56
640.567	9359.22
640.76	9791.34
640.954	9549.68
641.147	9400.18
641.34	9484.14
641.534	9592.69
641.727	9377.65
641.92	9465.71
642.114	9068.41
642.307	9275.25
642.5	8959.86
642.694	8888.18
642.887	8972.15
643.08	9189.24
643.273	8978.29
643.467	8898.42
643.66	8923
643.853	8695.68
644.046	8775.55
644.239	8644.48
644.432	8730.49
644.626	8679.29
644.819	8488.83
645.012	8505.21
645.205	8576.89
645.398	8386.43
645.591	8384.38
645.784	8427.39
645.977	8320.9
646.17	8312.71
646.363	8189.83
646.556	8277.89
646.749	8177.54
646.942	8431.49
647.135	7915.4
647.328	8001.41
647.521	7907.21
647.714	7882.63
647.907	7929.73
648.099	7743.37
648.292	7921.54
648.485	7899.02
648.678	7802.76
648.871	7677.83
649.064	7784.33
649.256	7731.08
649.449	7606.16
649.642	7593.87
649.835	7597.96
650.027	7542.67
650.22	7485.33
650.413	7419.79
650.605	7290.77
650.798	7358.35
650.991	7423.89
651.183	7294.86
651.376	7083.92
651.568	7362.45
651.761	7255.95
651.954	7094.16
652.146	7028.63
652.339	7030.68
652.531	7059.35
652.724	6983.57
652.916	6938.52
653.109	6801.3
653.301	6868.89
653.494	6789.02
653.686	6727.58
653.879	6856.6
654.071	6713.24
654.263	6703
654.456	6539.16
654.648	6743.96
654.84	6533.02
655.033	6477.73
655.225	6447.01
655.417	6502.3
655.61	6547.36
655.802	6426.53
655.994	6305.7
656.186	6193.06
656.379	6381.47
656.571	6371.23
656.763	6311.84
656.955	6123.43
657.148	6172.58
657.34	6082.47
657.532	5947.3
657.724	6029.22
657.916	6055.84
658.108	6084.52
658.3	6166.43
658.492	6117.28
658.684	5793.7
658.876	5881.77
659.068	5822.38
659.26	5812.14
659.452	5885.86
659.644	5734.31
659.836	5779.37
660.028	5642.15
660.22	5648.3
660.412	5640.11
660.604	5558.19
660.796	5509.04
660.988	5689.26
661.18	5447.6
661.372	5408.69
661.563	5547.95
661.755	5414.83
661.947	5474.22
662.139	5255.09
662.331	5414.83
662.522	5404.59
662.714	5201.84
662.906	5285.81
663.097	5187.5
663.289	5324.72
663.481	5121.97
663.673	5046.19
663.864	5201.84
664.056	4995
664.247	5081.01
664.439	4956.08
664.631	5124.02
664.822	5121.97
665.014	4908.98
665.205	4956.08
665.397	4818.87
665.588	4870.07
665.78	4849.59
665.971	4874.17
666.163	4827.06
666.354	4829.11
666.546	4730.81
666.737	4677.56
666.929	4573.11
667.12	4759.48
667.311	4702.14
667.503	4622.27
667.694	4714.42
667.885	4679.61
668.077	4644.79
668.268	4603.83
668.459	4505.53
668.651	4456.38
668.842	4659.13
669.033	4319.17
669.224	4396.99
669.416	4534.2
669.607	4327.36
669.798	4267.97
669.989	4513.72
670.18	4288.45
670.371	4337.6
670.563	4470.72
670.754	4325.31
670.945	4255.68
671.136	4210.62
671.327	4186.05
671.518	4319.17
671.709	4186.05
671.9	4145.09
672.091	4216.77
672.282	4095.94
672.473	4216.77
672.664	3954.63
672.855	4239.3
673.046	4067.27
673.237	4112.32
673.428	4087.75
673.619	3850.18
673.809	3811.27
674	3938.24
674.191	3966.92
674.382	3899.33
674.573	3903.43
674.764	3885
674.954	3788.74
675.145	3887.04
675.336	3817.41
675.527	3710.92
675.717	3846.09
675.908	3774.41
676.099	3780.55
676.289	3672.01
676.48	3678.15
676.671	3796.93
676.861	3708.87
677.052	3588.04
677.243	3653.58
677.433	3665.86
677.624	3536.84
677.814	3594.19
678.005	3485.64
678.195	3493.83
678.386	3563.47
678.576	3528.65
678.767	3454.92
678.957	3524.55
679.148	3485.64
679.338	3465.16
679.529	3491.79
679.719	3524.55
679.909	3448.78
680.1	3418.06
680.29	3647.43
680.481	3424.2
680.671	3362.76
680.861	3409.87
681.052	3401.68
681.242	3264.46
681.432	3325.9
681.622	3280.85
681.813	3233.74
682.003	3387.34
682.193	3172.3
682.383	3282.89
682.573	3217.36
682.764	3268.56
682.954	3235.79
683.144	3121.1
683.334	3237.84
683.524	3162.06
683.714	3211.22
683.904	3166.16
684.094	3112.91
684.284	3223.5
684.474	3057.62
684.664	3211.22
684.854	3125.2
685.044	3092.43
685.234	2895.83
685.424	3096.53
685.614	2961.36
685.804	3053.52
685.994	3125.2
686.184	2996.18
686.374	3016.66
686.564	3000.27
686.753	2977.75
686.943	2992.08
687.133	2947.03
687.323	3035.09
687.513	2949.07
687.702	2861.01
687.892	2924.5
688.082	2912.21
688.272	2873.3
688.461	2858.96
688.651	2875.35
688.841	2834.39
689.03	2762.71
689.22	2727.89
689.41	2799.57
689.599	2875.35
689.789	2744.28
689.979	2678.74
690.168	2652.12
690.358	2762.71
690.547	2688.98
690.737	2645.98
690.926	2715.61
691.116	2652.12
691.305	2760.66
691.495	2715.61
691.684	2686.94
691.874	2713.56
692.063	2643.93
692.252	2635.74
692.442	2605.02
692.631	2598.87
692.82	2688.98
693.01	2510.81
693.199	2461.66
693.388	2387.93
693.578	2523.1
693.767	2535.39
693.956	2492.38
694.146	2664.41
694.335	2469.85
694.524	2504.67
694.713	2502.62
694.902	2422.75
695.092	2527.19
695.281	2566.1
695.47	2408.41
695.659	2318.3
695.848	2392.03
696.037	2342.88
696.226	2416.6
696.415	2416.6
696.604	2494.43
696.793	2326.49
696.982	2432.99
697.171	2320.35
697.36	2371.55
697.549	2394.08
697.738	2334.68
697.927	2471.9
698.116	2330.59
698.305	2338.78
698.494	2297.82
698.683	2265.05
698.872	2367.45
699.061	2344.92
699.25	2246.62
699.438	2271.2
699.627	2324.44
699.816	2271.2
700.005	2263.01
700.193	2324.44
700.382	2334.68
700.571	2291.68
700.76	2191.33
700.948	2295.77
701.137	2303.96
701.326	2254.81
701.514	2287.58
701.703	2295.77
701.892	2281.44
702.08	2318.3
702.269	2351.07
702.457	2377.69
702.646	2244.57
702.834	2367.45
703.023	2256.86
703.212	2209.76
703.4	2250.72
703.589	2281.44
703.777	2318.3
703.965	2150.37
704.154	2246.62
704.342	2242.53
704.531	2260.96
704.719	2140.13
704.907	2271.2
705.096	2160.61
705.284	2248.67
705.472	2226.14
705.661	2144.22
705.849	2217.95
706.037	2285.53
706.226	2199.52
706.414	2228.19
706.602	2170.85
706.79	2154.46
706.979	2271.2
707.167	2213.85
707.355	2191.33
707.543	2154.46
707.731	2244.57
707.919	2217.95
708.107	2127.84
708.296	2213.85
708.484	2271.2
708.672	2170.85
708.86	2148.32
709.048	2248.67
709.236	2142.18
709.424	2248.67
709.612	2158.56
709.8	2162.65
709.988	2260.96
710.176	2158.56
710.364	2322.4
710.551	2136.03
710.739	2152.42
710.927	2222.05
711.115	2193.37
711.303	2242.53
711.491	2195.42
711.679	2093.02
711.866	2172.89
712.054	2213.85
712.242	2162.65
712.43	2236.38
712.617	2260.96
712.805	2230.24
712.993	2179.04
713.181	2146.27
713.368	2269.15
713.556	2193.37
713.744	2181.09
713.931	2203.61
714.119	2084.83
714.306	2185.18
714.494	2154.46
714.682	2125.79
714.869	2101.22
715.057	2193.37
715.244	2152.42
715.432	2142.18
715.619	2078.69
715.807	2162.65
715.994	2174.94
716.182	2082.78
716.369	2170.85
716.556	2154.46
716.744	2121.7
716.931	2113.5
717.119	2084.83
717.306	2191.33
717.493	2277.34
717.681	2189.28
717.868	2207.71
718.055	2193.37
718.242	2125.79
718.43	2084.83
718.617	2107.36
718.804	2097.12
718.991	2183.13
719.179	2074.59
719.366	2031.59
719.553	2166.75
719.74	2107.36
719.927	2150.37
720.114	2111.46
720.301	2078.69
720.488	2025.44
720.676	2187.23
720.863	2156.51
721.05	2144.22
721.237	2211.81
721.424	2146.27
721.611	2326.49
721.798	2031.59
721.985	2064.35
722.172	2105.31
722.358	2093.02
722.545	2138.08
722.732	2047.97
722.919	2142.18
723.106	2246.62
723.293	2125.79
723.48	2230.24
723.667	2113.5
723.853	2041.82
724.04	2301.92
724.227	2174.94
724.414	2123.74
724.6	2031.59
724.787	2160.61
724.974	2111.46
725.161	2099.17
725.347	2199.52
725.534	2215.9
725.72	2146.27
725.907	2093.02
726.094	2117.6
726.28	2154.46
726.467	2172.89
726.653	2056.16
726.84	2228.19
727.027	2250.72
727.213	2090.98
727.4	2258.91
727.586	2058.21
727.773	2037.73
727.959	2205.66
728.145	1935.33
728.332	2142.18
728.518	2074.59
728.705	2174.94
728.891	2119.65
729.077	2078.69
729.264	2189.28
729.45	2191.33
729.636	2140.13
729.823	2158.56
730.009	2187.23
730.195	2056.16
730.382	2148.32
730.568	2129.89
730.754	2123.74
730.94	2043.87
731.126	2164.7
731.313	2168.8
731.499	2105.31
731.685	2123.74
731.871	2146.27
732.057	2123.74
732.243	2150.37
732.429	2168.8
732.615	2066.4
732.801	2056.16
732.987	2066.4
733.173	2121.7
733.359	2033.63
733.545	2193.37
733.731	1970.15
733.917	2123.74
734.103	2058.21
734.289	2064.35
734.475	2109.41
734.661	2176.99
734.847	2093.02
735.033	2146.27
735.219	2088.93
735.404	2047.97
735.59	2004.96
735.776	2050.02
735.962	1982.43
736.148	2017.25
736.333	2090.98
736.519	2060.26
736.705	2146.27
736.89	2072.54
737.076	2148.32
737.262	1982.43
737.447	2064.35
737.633	2033.63
737.819	2181.09
738.004	2195.42
738.19	2041.82
738.375	1978.34
738.561	2072.54
738.747	2056.16
738.932	1914.85
739.118	1957.86
739.303	1996.77
739.489	2017.25
739.674	1976.29
739.859	1904.61
740.045	1935.33
740.23	2043.87
740.416	2004.96
740.601	1941.47
740.786	1849.32
740.972	1968.1
741.157	1908.71
741.342	1988.58
741.528	1935.33
741.713	1873.89
741.898	1994.72
742.084	1925.09
742.269	1888.23
742.454	1902.56
742.639	1861.6
742.824	2011.11
743.01	1908.71
743.195	2103.26
743.38	1818.6
743.565	1863.65
743.75	1757.16
743.935	1865.7
744.12	1933.28
744.305	1845.22
744.49	1757.16
744.675	1843.17
744.86	1806.31
745.045	1851.36
745.23	1863.65
745.415	1865.7
745.6	1847.27
745.785	1683.43
745.97	1744.87
746.155	1705.96
746.34	1662.95
746.525	1857.51
746.71	1798.12
746.895	1705.96
747.079	1781.73
747.264	1687.53
747.449	1761.25
747.634	1724.39
747.819	1744.87
748.003	1697.77
748.188	1613.8
748.373	1755.11
748.557	1740.77
748.742	1652.71
748.927	1699.81
749.111	1607.66
749.296	1681.38
749.481	1535.98
749.665	1511.4
749.85	1589.22
750.034	1609.7
750.219	1619.94
750.404	1566.7
750.588	1540.07
750.773	1693.67
750.957	1546.22
751.141	1568.74
751.326	1521.64
751.51	1482.73
751.695	1507.31
751.879	1482.73
752.064	1529.83
752.248	1548.26
752.432	1433.58
752.617	1490.92
752.801	1484.78
752.985	1441.77
753.17	1390.57
753.354	1425.39
753.538	1376.23
753.722	1355.76
753.907	1316.84
754.091	1382.38
754.275	1331.18
754.459	1382.38
754.643	1296.36
754.828	1490.92
755.012	1456.11
755.196	1306.6
755.38	1318.89
755.564	1325.04
755.748	1236.97
755.932	1363.95
756.116	1259.5
756.3	1316.84
756.484	1279.98
756.668	1363.95
756.852	1316.84
757.036	1284.08
757.22	1247.21
757.404	1136.62
757.588	1179.63
757.772	1310.7
757.956	1286.12
758.14	1118.19
758.323	1173.49
758.507	1294.32
758.691	1177.58
758.875	1239.02
759.059	1175.53
759.242	1134.57
759.426	1155.05
759.61	1105.9
759.794	1114.1
759.977	1079.28
760.161	1171.44
760.345	1204.21
760.528	1056.75
760.712	1122.29
760.895	1146.86
761.079	993.26
761.263	1048.56
761.446	1021.94
761.63	1064.94
761.813	1017.84
761.997	1009.65
762.18	970.74
762.364	1060.85
762.547	1021.94
762.731	1083.38
762.914	1046.51
763.098	1015.79
763.281	1026.03
763.464	1071.09
763.648	1011.7
763.831	985.07
764.015	983.03
764.198	1064.94
764.381	937.97
764.564	1097.71
764.748	933.87
764.931	1032.18
765.114	1007.6
765.297	952.31
765.481	966.64
765.664	995.31
765.847	950.26
766.03	894.96
766.213	993.26
766.397	1023.98
766.58	1007.6
766.763	966.64
766.946	985.07
767.129	909.3
767.312	954.35
767.495	903.15
767.678	913.39
767.861	960.5
768.044	817.14
768.227	974.83
768.41	956.4
768.593	862.19
768.776	937.97
768.959	849.91
769.142	1015.79
769.324	854
769.507	905.2
769.69	804.85
769.873	874.48
770.056	927.73
770.239	909.3
770.421	894.96
770.604	843.76
770.787	874.48
770.97	851.96
771.152	894.96
771.335	976.88
771.518	833.52
771.7	868.34
771.883	923.63
772.066	890.87
772.248	903.15
772.431	829.43
772.613	856.05
772.796	778.23
772.978	851.96
773.161	876.53
773.343	745.46
773.526	698.36
773.708	819.19
773.891	735.22
774.073	823.28
774.256	786.42
774.438	722.93
774.621	731.12
774.803	790.52
774.985	763.89
775.168	677.88
775.35	761.84
775.532	749.56
775.715	688.12
775.897	712.69
776.079	722.93
776.261	720.88
776.444	747.51
776.626	729.08
776.808	671.73
776.99	778.23
777.173	696.31
777.355	727.03
777.537	624.63
777.719	630.77
777.901	704.5
778.083	606.2
778.265	569.34
778.447	722.93
778.629	673.78
778.811	749.56
778.993	638.97
779.175	698.36
779.357	692.21
779.539	649.21
779.721	747.51
779.903	710.65
780.085	700.41
780.267	591.86
780.449	657.4
780.631	659.45
780.812	638.97
780.994	571.38
781.176	614.39
781.358	665.59
781.54	675.83
781.721	536.57
781.903	573.43
782.085	514.04
782.267	540.66
782.448	526.33
782.63	524.28
782.812	602.1
782.993	579.58
783.175	462.84
783.357	618.49
783.538	614.39
783.72	477.18
783.901	509.94
784.083	528.38
784.264	518.14
784.446	464.89
784.627	444.41
784.809	530.42
784.99	526.33
785.172	532.47
785.353	483.32
785.535	526.33
785.716	403.45
785.897	528.38
786.079	507.9
786.26	444.41
786.441	430.07
786.623	466.94
786.804	374.78
786.985	409.59
787.167	454.65
787.348	382.97
787.529	425.98
787.71	430.07
787.891	401.4
788.073	378.87
788.254	385.02
788.435	434.17
788.616	370.68
788.797	339.96
788.978	460.79
789.159	391.16
789.34	544.76
789.522	425.98
789.703	454.65
789.884	403.45
790.065	438.27
790.246	421.88
790.427	483.32
790.607	466.94
790.788	391.16
790.969	315.39
791.15	415.74
791.331	417.79
791.512	411.64
791.693	307.2
791.874	409.59
792.054	452.6
792.235	450.55
792.416	423.93
792.597	344.06
792.778	382.97
792.958	405.5
793.139	423.93
793.32	313.34
793.5	321.53
793.681	337.91
793.862	425.98
794.042	397.31
794.223	348.15
794.404	301.05
794.584	321.53
794.765	296.96
794.945	319.48
795.126	337.91
795.306	360.44
795.487	335.87
795.667	342.01
795.848	311.29
796.028	241.66
796.209	305.15
796.389	303.1
796.57	311.29
796.75	202.75
796.93	323.58
797.111	280.57
797.291	362.49
797.471	288.76
797.652	329.72
797.832	258.04
798.012	323.58
798.192	237.56
798.373	288.76
798.553	268.28
798.733	317.44
798.913	278.52
799.093	313.34
799.274	260.09
799.454	233.47
799.634	219.13
799.814	313.34
799.994	221.18
800.174	319.48
800.354	323.58
800.534	223.23
800.714	272.38
800.894	249.85
801.074	260.09
801.254	278.52
801.434	288.76
801.614	311.29
801.794	342.01
801.974	776.18
802.154	262.14
802.334	231.42
802.514	276.48
802.693	278.52
802.873	280.57
803.053	237.56
803.233	212.99
803.413	315.39
803.592	237.56
803.772	215.04
803.952	251.9
804.131	237.56
804.311	233.47
804.491	270.33
804.67	235.52
804.85	221.18
805.03	223.23
805.209	231.42
805.389	292.86
805.568	176.13
805.748	217.08
805.928	239.61
806.107	208.89
806.287	270.33
806.466	243.71
806.646	208.89
806.825	163.84
807.004	212.99
807.184	253.95
807.363	237.56
807.543	210.94
807.722	206.84
807.901	233.47
808.081	204.8
808.26	165.89
808.439	223.23
808.619	210.94
808.798	184.32
808.977	253.95
809.156	169.98
809.336	208.89
809.515	143.36
809.694	157.69
809.873	225.28
810.052	196.61
810.231	215.04
810.411	253.95
810.59	137.21
810.769	223.23
810.948	239.61
811.127	139.26
811.306	204.8
811.485	198.65
811.664	206.84
811.843	196.61
812.022	176.13
812.201	221.18
812.38	110.59
812.559	131.07
812.737	215.04
812.916	90.11
813.095	188.41
813.274	129.02
813.453	180.22
813.632	163.84
813.811	90.11
813.989	190.46
814.168	141.31
814.347	184.32
814.526	176.13
814.704	225.28
814.883	206.84
815.062	200.7
815.24	172.03
815.419	116.73
815.598	198.65
815.776	169.98
815.955	188.41
816.133	57.34
816.312	129.02
816.49	108.54
816.669	139.26
816.847	210.94
817.026	102.4
817.204	122.88
817.383	172.03
817.561	94.21
817.74	135.17
817.918	176.13
818.097	151.55
818.275	139.26
818.453	141.31
818.632	104.45
818.81	235.52
818.988	96.25
819.167	167.93
819.345	141.31
819.523	100.35
819.701	167.93
819.879	165.89
820.058	212.99
820.236	155.65
820.414	174.08
820.592	145.41
820.77	112.64
820.948	161.79
821.127	157.69
821.305	167.93
821.483	180.22
821.661	131.07
821.839	102.4
822.017	79.87
822.195	194.56
822.373	116.73
822.551	145.41
822.729	196.61
822.907	129.02
823.085	180.22
823.262	77.82
823.44	92.16
823.618	116.73
823.796	131.07
823.974	92.16
824.152	53.25
824.329	120.83
824.507	141.31
824.685	159.74
824.863	176.13
825.04	139.26
825.218	178.17
825.396	47.1
825.574	106.49
825.751	180.22
825.929	151.55
826.107	57.34
826.284	141.31
826.462	110.59
826.639	118.78
826.817	135.17
826.994	116.73
827.172	126.97
827.349	143.36
827.527	122.88
827.704	131.07
827.882	114.69
828.059	106.49
828.237	57.34
828.414	122.88
828.591	65.54
828.769	167.93
828.946	116.73
829.124	100.35
829.301	98.3
829.478	151.55
829.655	92.16
829.833	122.88
830.01	30.72
830.187	106.49
830.364	90.11
830.542	139.26
830.719	131.07
830.896	100.35
831.073	81.92
831.25	73.73
831.427	53.25
831.604	96.25
831.782	86.01
831.959	141.31
832.136	100.35
832.313	124.93
832.49	43.01
832.667	145.41
832.844	90.11
833.021	47.1
833.198	65.54
833.374	114.69
833.551	88.06
833.728	67.58
833.905	69.63
834.082	73.73
834.259	86.01
834.436	180.22
834.612	2.05
834.789	141.31
834.966	114.69
835.143	184.32
835.319	100.35
835.496	45.06
835.673	83.97
835.85	104.45
836.026	92.16
836.203	114.69
836.38	96.25
836.556	59.39
836.733	73.73
836.909	114.69
837.086	79.87
837.262	53.25
837.439	104.45
837.616	86.01
837.792	98.3
837.968	81.92
838.145	104.45
838.321	34.82
838.498	73.73
838.674	108.54
838.851	126.97
839.027	30.72
839.203	57.34
839.38	26.62
839.556	96.25
839.732	61.44
839.909	126.97
840.085	108.54
840.261	45.06
840.437	147.45
840.614	102.4
840.79	75.77
840.966	10.24
841.142	98.3
841.318	32.77
841.494	90.11
841.671	98.3
841.847	69.63
842.023	75.77
842.199	65.54
842.375	126.97
842.551	90.11
842.727	36.86
842.903	77.82
843.079	118.78
843.255	169.98
843.431	124.93
843.607	126.97
843.783	57.34
843.959	155.65
844.134	61.44
844.31	141.31
844.486	100.35
844.662	71.68
844.838	59.39
845.013	36.86
845.189	24.58
845.365	98.3
845.541	110.59
845.716	108.54
845.892	59.39
846.068	-8.19
846.244	100.35
846.419	38.91
846.595	51.2
846.77	45.06
846.946	79.87
847.122	139.26
847.297	38.91
847.473	96.25
847.648	57.34
847.824	114.69
847.999	36.86
848.175	0
848.35	86.01
848.526	16.38
848.701	59.39
848.876	65.54
849.052	86.01
849.227	16.38
849.403	34.82
849.578	49.15
849.753	77.82
849.929	55.3
850.104	26.62
850.279	114.69
850.454	53.25
850.63	81.92
850.805	63.49
850.98	116.73
851.155	96.25
851.33	32.77
851.505	30.72
851.681	147.45
851.856	102.4
852.031	38.91
852.206	8.19
852.381	-10.24
852.556	53.25
852.731	71.68
852.906	96.25
853.081	51.2
853.256	-8.19
853.431	32.77
853.606	73.73
853.781	43.01
853.956	24.58
854.131	-6.14
854.305	36.86
854.48	53.25
854.655	-40.96
854.83	55.3
855.005	49.15
855.18	131.07
855.354	20.48
855.529	81.92
855.704	88.06
855.879	73.73
856.053	16.38
856.228	53.25
856.403	90.11
856.577	88.06
856.752	6.14
856.926	4.1
857.101	108.54
857.276	61.44
857.45	22.53
857.625	133.12
857.799	94.21
857.974	100.35
858.148	28.67
858.323	81.92
858.497	51.2
858.672	71.68
858.846	98.3
859.02	53.25
859.195	45.06
859.369	45.06
859.543	12.29
859.718	43.01
859.892	77.82
860.066	73.73
860.241	120.83
860.415	88.06
860.589	-4.1
860.763	69.63
860.938	-20.48
861.112	71.68
861.286	30.72
861.46	-12.29
861.634	124.93
861.808	34.82
861.982	47.1
862.157	71.68
862.331	26.62
862.505	53.25
862.679	-40.96
862.853	67.58
863.027	34.82
863.201	26.62
863.375	-18.43
863.549	-6.14
863.722	112.64
863.896	108.54
864.07	57.34
864.244	45.06
864.418	49.15
864.592	26.62
864.766	57.34
864.939	32.77
865.113	6.14
865.287	28.67
865.461	137.21
865.634	4.1
865.808	28.67
865.982	81.92
866.156	4.1
866.329	71.68
866.503	18.43
866.676	6.14
866.85	69.63
867.024	51.2
867.197	16.38
867.371	28.67
867.544	32.77
867.718	0
867.891	-12.29
868.065	20.48
868.238	8.19
868.412	49.15
868.585	59.39
868.759	-4.1
868.932	-22.53
869.105	22.53
869.279	92.16
869.452	20.48
869.625	24.58
869.799	-22.53
869.972	75.77
870.145	43.01
870.319	18.43
870.492	10.24
870.665	126.97
870.838	81.92
871.011	36.86
871.185	43.01
871.358	-8.19
871.531	59.39
871.704	94.21
871.877	-8.19
872.05	63.49
872.223	40.96
872.396	102.4
872.569	-30.72
872.742	65.54
872.915	0
873.088	-26.62
873.261	-12.29
873.434	61.44
873.607	8.19
873.78	71.68
873.953	18.43
874.126	2.05
874.299	-26.62
874.471	47.1
874.644	2.05
874.817	81.92
874.99	114.69
875.163	6.14
875.335	49.15
875.508	-4.1
875.681	12.29
875.853	69.63
876.026	94.21
876.199	43.01
876.371	30.72
876.544	77.82
876.717	16.38
876.889	34.82
877.062	26.62
877.234	20.48
877.407	77.82
877.579	-16.38
877.752	-18.43
877.924	4.1
878.097	53.25
878.269	67.58
878.442	59.39
878.614	53.25
878.786	20.48
878.959	86.01
879.131	0
879.303	34.82
879.476	2.05
879.648	77.82
879.82	26.62
879.993	59.39
880.165	100.35
880.337	-28.67
880.509	-12.29
880.681	43.01
880.854	0
881.026	-28.67
881.198	83.97
881.37	-2.05
881.542	8.19
881.714	65.54
881.886	20.48
882.058	-16.38
882.23	40.96
882.402	65.54
882.574	24.58
882.746	45.06
882.918	86.01
883.09	22.53
883.262	51.2
883.434	32.77
883.606	94.21
883.778	38.91
883.95	30.72
884.122	30.72
884.293	49.15
884.465	18.43
884.637	18.43
884.809	-12.29
884.98	14.34
885.152	6.14
885.324	51.2
885.496	38.91
885.667	24.58
885.839	-30.72
886.011	114.69
886.182	16.38
886.354	8.19
886.525	92.16
886.697	-49.15
886.869	32.77
887.04	73.73
887.212	45.06
887.383	53.25
887.555	0
887.726	16.38
887.897	0
888.069	57.34
888.24	18.43
888.412	92.16
888.583	36.86
888.754	2.05
888.926	-22.53
889.097	40.96
889.268	-8.19
889.44	40.96
889.611	0
889.782	-59.39
889.953	-34.82
890.125	90.11
890.296	26.62
890.467	102.4
890.638	28.67
890.809	96.25
890.98	2.05
891.151	32.77
891.323	30.72
891.494	43.01
891.665	38.91
891.836	18.43
892.007	-24.58
892.178	18.43
892.349	-28.67
892.52	49.15
892.691	18.43
892.862	104.45
893.032	-2.05
893.203	45.06
893.374	-20.48
893.545	26.62
893.716	-28.67
893.887	71.68
894.057	-2.05
894.228	86.01
894.399	2.05
894.57	-32.77
894.74	-12.29
894.911	96.25
895.082	8.19
895.253	49.15
895.423	34.82
895.594	36.86
895.764	4.1
895.935	-30.72
896.106	22.53
896.276	30.72
896.447	40.96
896.617	59.39
896.788	61.44
896.958	-30.72
897.129	-20.48
897.299	51.2
897.47	55.3
897.64	40.96
897.81	2.05
897.981	53.25
898.151	34.82
898.322	45.06
898.492	38.91
898.662	55.3
898.832	-4.1
899.003	40.96
899.173	-28.67
899.343	47.1
899.513	-43.01
