Data from USB4F104151__102__13-22-07-371.txt Node

Date: Fri Mar 14 13:22:07 EDT 2025
User: louis
Spectrometer: USB4F10415
Trigger mode: 4
Integration Time (sec): 3.000000E-2
Scans to average: 1
Electric dark correction enabled: true
Nonlinearity correction enabled: false
Boxcar width: 0
XAxis mode: Wavelengths
Number of Pixels in Spectrum: 3648
>>>>>Begin Spectral Data<<<<<
178.204	-172.03
178.424	-172.03
178.644	-172.03
178.864	-131.07
179.084	-102.4
179.304	47.1
179.524	12.29
179.744	2.05
179.964	77.82
180.184	12.29
180.404	-61.44
180.624	-28.67
180.844	-10.24
181.064	-51.2
181.283	61.44
181.503	-40.96
181.723	-20.48
181.943	-104.45
182.163	92.16
182.383	34.82
182.602	65.54
182.822	110.59
183.042	32.77
183.262	-71.68
183.482	-51.2
183.701	2.05
183.921	38.91
184.141	32.77
184.361	36.86
184.58	57.34
184.8	57.34
185.02	65.54
185.239	45.06
185.459	65.54
185.679	36.86
185.898	-34.82
186.118	30.72
186.338	24.58
186.557	-36.86
186.777	10.24
186.997	6.14
187.216	16.38
187.436	86.01
187.655	98.3
187.875	88.06
188.095	28.67
188.314	-18.43
188.534	26.62
188.753	-14.34
188.973	57.34
189.192	139.26
189.412	69.63
189.631	79.87
189.851	-18.43
190.07	90.11
190.29	38.91
190.509	57.34
190.729	4.1
190.948	16.38
191.168	114.69
191.387	12.29
191.607	-32.77
191.826	12.29
192.045	4.1
192.265	53.25
192.484	73.73
192.704	-10.24
192.923	-28.67
193.142	86.01
193.362	18.43
193.581	57.34
193.8	43.01
194.02	20.48
194.239	55.3
194.458	36.86
194.678	-24.58
194.897	55.3
195.116	53.25
195.335	-16.38
195.555	32.77
195.774	47.1
195.993	-26.62
196.212	24.58
196.432	-47.1
196.651	-4.1
196.87	-8.19
197.089	104.45
197.308	69.63
197.528	16.38
197.747	-59.39
197.966	116.73
198.185	81.92
198.404	-12.29
198.623	47.1
198.842	2.05
199.062	-6.14
199.281	20.48
199.5	28.67
199.719	92.16
199.938	49.15
200.157	32.77
200.376	45.06
200.595	28.67
200.814	57.34
201.033	55.3
201.252	8.19
201.471	45.06
201.69	96.25
201.909	69.63
202.128	45.06
202.347	-10.24
202.566	145.41
202.785	-59.39
203.004	-6.14
203.223	102.4
203.442	-36.86
203.661	-16.38
203.879	73.73
204.098	69.63
204.317	0
204.536	-8.19
204.755	20.48
204.974	133.12
205.193	86.01
205.411	83.97
205.63	47.1
205.849	49.15
206.068	-8.19
206.287	4.1
206.505	10.24
206.724	6.14
206.943	79.87
207.162	45.06
207.381	32.77
207.599	-75.77
207.818	77.82
208.037	-10.24
208.255	-53.25
208.474	53.25
208.693	81.92
208.911	36.86
209.13	-4.1
209.349	36.86
209.567	57.34
209.786	100.35
210.005	65.54
210.223	202.75
210.442	-47.1
210.661	26.62
210.879	2.05
211.098	36.86
211.316	18.43
211.535	98.3
211.753	20.48
211.972	24.58
212.191	55.3
212.409	88.06
212.628	86.01
212.846	40.96
213.065	34.82
213.283	69.63
213.502	4.1
213.72	77.82
213.938	92.16
214.157	67.58
214.375	47.1
214.594	28.67
214.812	20.48
215.031	16.38
215.249	-12.29
215.467	69.63
215.686	12.29
215.904	49.15
216.122	47.1
216.341	45.06
216.559	55.3
216.778	129.02
216.996	16.38
217.214	18.43
217.432	-36.86
217.651	-53.25
217.869	8.19
218.087	55.3
218.306	-28.67
218.524	38.91
218.742	38.91
218.96	32.77
219.179	22.53
219.397	-32.77
219.615	71.68
219.833	69.63
220.051	-14.34
220.27	145.41
220.488	77.82
220.706	30.72
220.924	-24.58
221.142	-4.1
221.36	45.06
221.578	-4.1
221.796	-12.29
222.015	61.44
222.233	94.21
222.451	75.77
222.669	-51.2
222.887	53.25
223.105	-43.01
223.323	-4.1
223.541	38.91
223.759	22.53
223.977	-12.29
224.195	53.25
224.413	86.01
224.631	69.63
224.849	-36.86
225.067	55.3
225.285	24.58
225.503	57.34
225.721	-22.53
225.939	4.1
226.157	28.67
226.375	110.59
226.592	-24.58
226.81	-10.24
227.028	45.06
227.246	73.73
227.464	-40.96
227.682	2.05
227.9	47.1
228.117	40.96
228.335	12.29
228.553	77.82
228.771	8.19
228.989	40.96
229.206	4.1
229.424	36.86
229.642	20.48
229.86	28.67
230.077	-20.48
230.295	43.01
230.513	57.34
230.731	110.59
230.948	102.4
231.166	92.16
231.384	40.96
231.601	10.24
231.819	28.67
232.037	4.1
232.254	-16.38
232.472	28.67
232.689	-34.82
232.907	0
233.125	47.1
233.342	75.77
233.56	18.43
233.777	38.91
233.995	69.63
234.213	38.91
234.43	20.48
234.648	-26.62
234.865	4.1
235.083	12.29
235.3	4.1
235.518	16.38
235.735	73.73
235.953	98.3
236.17	38.91
236.388	-12.29
236.605	20.48
236.822	86.01
237.04	26.62
237.257	12.29
237.475	-86.01
237.692	12.29
237.909	32.77
238.127	16.38
238.344	63.49
238.562	22.53
238.779	28.67
238.996	36.86
239.214	-2.05
239.431	-26.62
239.648	36.86
239.865	4.1
240.083	30.72
240.3	69.63
240.517	-12.29
240.735	30.72
240.952	145.41
241.169	30.72
241.386	38.91
241.603	8.19
241.821	12.29
242.038	-57.34
242.255	63.49
242.472	40.96
242.689	63.49
242.907	45.06
243.124	106.49
243.341	-30.72
243.558	69.63
243.775	-32.77
243.992	-30.72
244.209	51.2
244.426	36.86
244.643	79.87
244.86	-32.77
245.078	24.58
245.295	8.19
245.512	75.77
245.729	57.34
245.946	61.44
246.163	77.82
246.38	-30.72
246.597	40.96
246.814	88.06
247.031	-8.19
247.248	98.3
247.464	-20.48
247.681	63.49
247.898	30.72
248.115	53.25
248.332	14.34
248.549	14.34
248.766	149.5
248.983	26.62
249.2	77.82
249.417	63.49
249.633	-40.96
249.85	65.54
250.067	-22.53
250.284	14.34
250.501	26.62
250.717	81.92
250.934	10.24
251.151	43.01
251.368	-2.05
251.585	112.64
251.801	-22.53
252.018	69.63
252.235	86.01
252.451	8.19
252.668	12.29
252.885	-16.38
253.102	16.38
253.318	-57.34
253.535	18.43
253.752	-12.29
253.968	20.48
254.185	-10.24
254.401	-2.05
254.618	30.72
254.835	73.73
255.051	102.4
255.268	65.54
255.484	-57.34
255.701	61.44
255.917	12.29
256.134	22.53
256.351	-18.43
256.567	34.82
256.784	112.64
257	4.1
257.217	-4.1
257.433	110.59
257.65	12.29
257.866	96.25
258.082	24.58
258.299	40.96
258.515	129.02
258.732	12.29
258.948	-16.38
259.165	-12.29
259.381	38.91
259.597	40.96
259.814	-57.34
260.03	-6.14
260.246	-36.86
260.463	38.91
260.679	55.3
260.895	149.5
261.112	83.97
261.328	32.77
261.544	28.67
261.761	71.68
261.977	18.43
262.193	-22.53
262.409	20.48
262.626	71.68
262.842	94.21
263.058	-8.19
263.274	43.01
263.49	28.67
263.707	63.49
263.923	30.72
264.139	6.14
264.355	40.96
264.571	77.82
264.787	47.1
265.004	94.21
265.22	-14.34
265.436	22.53
265.652	8.19
265.868	34.82
266.084	-10.24
266.3	94.21
266.516	-100.35
266.732	4.1
266.948	0
267.164	-26.62
267.38	57.34
267.596	4.1
267.812	86.01
268.028	47.1
268.244	-10.24
268.46	-10.24
268.676	36.86
268.892	4.1
269.108	69.63
269.324	8.19
269.54	36.86
269.756	81.92
269.972	-4.1
270.188	90.11
270.403	24.58
270.619	-65.53
270.835	49.15
271.051	67.58
271.267	-92.16
271.483	63.49
271.698	73.73
271.914	22.53
272.13	45.06
272.346	-18.43
272.562	14.34
272.777	67.58
272.993	20.48
273.209	45.06
273.425	-45.06
273.64	-43.01
273.856	36.86
274.072	77.82
274.287	16.38
274.503	63.49
274.719	28.67
274.934	-16.38
275.15	-12.29
275.366	59.39
275.581	-24.58
275.797	69.63
276.012	79.87
276.228	-2.05
276.444	79.87
276.659	79.87
276.875	12.29
277.09	20.48
277.306	77.82
277.521	53.25
277.737	36.86
277.952	88.06
278.168	79.87
278.383	24.58
278.599	71.68
278.814	-12.29
279.03	47.1
279.245	40.96
279.461	14.34
279.676	47.1
279.892	-6.14
280.107	53.25
280.322	53.25
280.538	55.3
280.753	38.91
280.969	45.06
281.184	51.2
281.399	88.06
281.615	38.91
281.83	34.82
282.045	-6.14
282.26	2.05
282.476	88.06
282.691	40.96
282.906	28.67
283.122	47.1
283.337	4.1
283.552	40.96
283.767	-20.48
283.983	36.86
284.198	-10.24
284.413	-16.38
284.628	22.53
284.843	71.68
285.058	102.4
285.274	4.1
285.489	20.48
285.704	77.82
285.919	-49.15
286.134	30.72
286.349	28.67
286.564	10.24
286.779	104.45
286.995	22.53
287.21	63.49
287.425	20.48
287.64	6.14
287.855	114.69
288.07	2.05
288.285	61.44
288.5	110.59
288.715	79.87
288.93	40.96
289.145	18.43
289.36	65.54
289.575	45.06
289.79	77.82
290.004	18.43
290.219	53.25
290.434	40.96
290.649	-32.77
290.864	28.67
291.079	104.45
291.294	-24.58
291.509	36.86
291.724	-36.86
291.938	79.87
292.153	110.59
292.368	2.05
292.583	102.4
292.798	-6.14
293.012	53.25
293.227	-6.14
293.442	28.67
293.657	16.38
293.871	20.48
294.086	51.2
294.301	55.3
294.516	14.34
294.73	71.68
294.945	-10.24
295.16	53.25
295.374	40.96
295.589	38.91
295.804	-43.01
296.018	12.29
296.233	102.4
296.447	24.58
296.662	-12.29
296.877	47.1
297.091	36.86
297.306	73.73
297.52	-2.05
297.735	16.38
297.949	75.77
298.164	59.39
298.378	55.3
298.593	53.25
298.807	-28.67
299.022	-2.05
299.236	16.38
299.451	47.1
299.665	4.1
299.88	0
300.094	53.25
300.309	53.25
300.523	120.83
300.737	47.1
300.952	20.48
301.166	69.63
301.381	51.2
301.595	63.49
301.809	30.72
302.024	24.58
302.238	30.72
302.452	-4.1
302.667	20.48
302.881	106.49
303.095	61.44
303.309	63.49
303.524	-4.1
303.738	94.21
303.952	67.58
304.166	-4.1
304.381	14.34
304.595	28.67
304.809	59.39
305.023	-28.67
305.237	28.67
305.452	51.2
305.666	59.39
305.88	73.73
306.094	63.49
306.308	-55.3
306.522	10.24
306.736	24.58
306.95	36.86
307.164	45.06
307.379	71.68
307.593	73.73
307.807	16.38
308.021	-10.24
308.235	83.97
308.449	-18.43
308.663	45.06
308.877	124.93
309.091	28.67
309.305	34.82
309.519	-53.25
309.733	67.58
309.947	-49.15
310.161	38.91
310.374	63.49
310.588	69.63
310.802	-67.58
311.016	4.1
311.23	67.58
311.444	-6.14
311.658	-38.91
311.872	165.89
312.085	94.21
312.299	75.77
312.513	53.25
312.727	45.06
312.941	49.15
313.154	47.1
313.368	57.34
313.582	75.77
313.796	57.34
314.009	69.63
314.223	79.87
314.437	-51.2
314.651	81.92
314.864	-34.82
315.078	-10.24
315.292	-4.1
315.505	51.2
315.719	12.29
315.933	-4.1
316.146	-18.43
316.36	28.67
316.573	38.91
316.787	22.53
317.001	16.38
317.214	-30.72
317.428	6.14
317.641	-57.34
317.855	77.82
318.068	26.62
318.282	38.91
318.495	110.59
318.709	-6.14
318.922	4.1
319.136	102.4
319.349	34.82
319.563	-2.05
319.776	8.19
319.99	-8.19
320.203	18.43
320.417	-24.58
320.63	61.44
320.843	22.53
321.057	20.48
321.27	-2.05
321.483	-10.24
321.697	38.91
321.91	-18.43
322.124	-30.72
322.337	49.15
322.55	-16.38
322.763	79.87
322.977	55.3
323.19	-32.77
323.403	63.49
323.617	55.3
323.83	36.86
324.043	2.05
324.256	53.25
324.469	65.54
324.683	32.77
324.896	-36.86
325.109	16.38
325.322	-10.24
325.535	49.15
325.748	55.3
325.962	18.43
326.175	14.34
326.388	88.06
326.601	94.21
326.814	-12.29
327.027	55.3
327.24	83.97
327.453	-40.96
327.666	86.01
327.879	71.68
328.092	-22.53
328.305	6.14
328.518	-20.48
328.731	-40.96
328.944	61.44
329.157	-14.34
329.37	40.96
329.583	59.39
329.796	47.1
330.009	-10.24
330.222	102.4
330.435	43.01
330.648	36.86
330.861	43.01
331.073	30.72
331.286	-4.1
331.499	22.53
331.712	0
331.925	16.38
332.138	96.25
332.35	34.82
332.563	4.1
332.776	14.34
332.989	14.34
333.202	114.69
333.414	16.38
333.627	28.67
333.84	65.54
334.053	22.53
334.265	18.43
334.478	24.58
334.691	6.14
334.903	108.54
335.116	22.53
335.329	110.59
335.541	57.34
335.754	102.4
335.966	-49.15
336.179	94.21
336.392	-12.29
336.604	40.96
336.817	75.77
337.029	98.3
337.242	14.34
337.454	83.97
337.667	36.86
337.88	96.25
338.092	69.63
338.305	114.69
338.517	45.06
338.729	57.34
338.942	90.11
339.154	61.44
339.367	10.24
339.579	12.29
339.792	-4.1
340.004	63.49
340.217	6.14
340.429	53.25
340.641	36.86
340.854	36.86
341.066	88.06
341.278	18.43
341.491	38.91
341.703	34.82
341.915	-45.06
342.128	16.38
342.34	14.34
342.552	-20.48
342.764	-20.48
342.977	45.06
343.189	135.17
343.401	81.92
343.613	8.19
343.826	43.01
344.038	61.44
344.25	36.86
344.462	-14.34
344.674	2.05
344.886	63.49
345.099	6.14
345.311	-18.43
345.523	73.73
345.735	32.77
345.947	63.49
346.159	57.34
346.371	98.3
346.583	-12.29
346.795	22.53
347.007	26.62
347.219	-16.38
347.431	104.45
347.643	90.11
347.855	0
348.067	-2.05
348.279	43.01
348.491	36.86
348.703	77.82
348.915	12.29
349.127	-34.82
349.339	2.05
349.551	-53.25
349.763	57.34
349.975	30.72
350.187	67.58
350.399	8.19
350.61	18.43
350.822	2.05
351.034	51.2
351.246	-24.58
351.458	86.01
351.669	45.06
351.881	73.73
352.093	102.4
352.305	40.96
352.517	-8.19
352.728	47.1
352.94	-6.14
353.152	-69.63
353.363	-28.67
353.575	49.15
353.787	108.54
353.999	51.2
354.21	86.01
354.422	79.87
354.633	61.44
354.845	6.14
355.057	65.54
355.268	-14.34
355.48	102.4
355.692	12.29
355.903	49.15
356.115	14.34
356.326	-75.77
356.538	63.49
356.749	40.96
356.961	36.86
357.172	32.77
357.384	83.97
357.595	47.1
357.807	-77.82
358.018	-6.14
358.23	92.16
358.441	61.44
358.653	112.64
358.864	4.1
359.075	36.86
359.287	49.15
359.498	12.29
359.709	49.15
359.921	28.67
360.132	4.1
360.344	10.24
360.555	-2.05
360.766	49.15
360.977	32.77
361.189	94.21
361.4	51.2
361.611	45.06
361.823	-10.24
362.034	186.37
362.245	-28.67
362.456	61.44
362.667	40.96
362.879	77.82
363.09	20.48
363.301	59.39
363.512	2.05
363.723	20.48
363.935	77.82
364.146	38.91
364.357	8.19
364.568	-69.63
364.779	0
364.99	-63.49
365.201	-28.67
365.412	79.87
365.623	30.72
365.834	75.77
366.045	6.14
366.256	110.59
366.467	57.34
366.678	20.48
366.889	22.53
367.1	24.58
367.311	59.39
367.522	-47.1
367.733	2.05
367.944	71.68
368.155	0
368.366	94.21
368.577	90.11
368.788	86.01
368.999	14.34
369.209	8.19
369.42	51.2
369.631	141.31
369.842	30.72
370.053	20.48
370.264	-32.77
370.474	57.34
370.685	26.62
370.896	79.87
371.107	110.59
371.317	57.34
371.528	49.15
371.739	73.73
371.95	49.15
372.16	-28.67
372.371	26.62
372.582	43.01
372.792	30.72
373.003	20.48
373.214	49.15
373.424	47.1
373.635	14.34
373.846	36.86
374.056	-10.24
374.267	61.44
374.477	10.24
374.688	32.77
374.898	40.96
375.109	47.1
375.319	53.25
375.53	12.29
375.74	63.49
375.951	61.44
376.161	10.24
376.372	53.25
376.582	0
376.793	69.63
377.003	69.63
377.214	108.54
377.424	47.1
377.635	12.29
377.845	-65.53
378.055	18.43
378.266	-20.48
378.476	28.67
378.686	34.82
378.897	49.15
379.107	65.54
379.317	18.43
379.528	-10.24
379.738	88.06
379.948	4.1
380.158	12.29
380.369	32.77
380.579	106.49
380.789	8.19
380.999	57.34
381.21	2.05
381.42	135.17
381.63	0
381.84	149.5
382.05	47.1
382.261	106.49
382.471	51.2
382.681	83.97
382.891	94.21
383.101	61.44
383.311	-51.2
383.521	-22.53
383.731	10.24
383.941	45.06
384.151	22.53
384.361	36.86
384.571	4.1
384.781	86.01
384.991	49.15
385.201	43.01
385.411	30.72
385.621	65.54
385.831	43.01
386.041	20.48
386.251	47.1
386.461	114.69
386.671	-14.34
386.881	28.67
387.091	-12.29
387.301	65.54
387.511	-4.1
387.72	-18.43
387.93	-4.1
388.14	22.53
388.35	12.29
388.56	83.97
388.769	73.73
388.979	36.86
389.189	-36.86
389.399	32.77
389.609	36.86
389.818	94.21
390.028	55.3
390.238	10.24
390.447	28.67
390.657	61.44
390.867	-45.06
391.076	-2.05
391.286	34.82
391.496	47.1
391.705	-10.24
391.915	100.35
392.125	102.4
392.334	96.25
392.544	110.59
392.753	14.34
392.963	34.82
393.172	18.43
393.382	28.67
393.591	71.68
393.801	49.15
394.01	126.97
394.22	98.3
394.429	126.97
394.639	57.34
394.848	51.2
395.058	77.82
395.267	22.53
395.477	10.24
395.686	40.96
395.895	90.11
396.105	104.45
396.314	69.63
396.524	65.54
396.733	57.34
396.942	92.16
397.152	53.25
397.361	47.1
397.57	-34.82
397.78	51.2
397.989	43.01
398.198	100.35
398.407	22.53
398.617	75.77
398.826	28.67
399.035	34.82
399.244	53.25
399.453	65.54
399.663	90.11
399.872	118.78
400.081	30.72
400.29	98.3
400.499	57.34
400.708	83.97
400.917	49.15
401.127	77.82
401.336	73.73
401.545	79.87
401.754	141.31
401.963	86.01
402.172	32.77
402.381	120.83
402.59	6.14
402.799	73.73
403.008	135.17
403.217	108.54
403.426	53.25
403.635	18.43
403.844	12.29
404.053	65.54
404.262	30.72
404.471	90.11
404.68	90.11
404.888	94.21
405.097	36.86
405.306	38.91
405.515	114.69
405.724	135.17
405.933	94.21
406.142	139.26
406.35	135.17
406.559	151.55
406.768	36.86
406.977	73.73
407.185	98.3
407.394	122.88
407.603	81.92
407.812	112.64
408.02	212.99
408.229	110.59
408.438	122.88
408.646	139.26
408.855	116.73
409.064	190.46
409.272	139.26
409.481	153.6
409.69	112.64
409.898	108.54
410.107	151.55
410.315	196.61
410.524	102.4
410.733	137.21
410.941	86.01
411.15	200.7
411.358	163.84
411.567	153.6
411.775	180.22
411.984	188.41
412.192	245.76
412.401	208.89
412.609	278.52
412.818	305.15
413.026	210.94
413.234	200.7
413.443	194.56
413.651	233.47
413.86	200.7
414.068	245.76
414.276	325.63
414.485	278.52
414.693	262.14
414.901	317.44
415.11	317.44
415.318	342.01
415.526	317.44
415.734	378.87
415.943	382.97
416.151	374.78
416.359	407.55
416.567	333.82
416.776	438.27
416.984	466.94
417.192	503.8
417.4	452.6
417.608	423.93
417.817	475.13
418.025	555
418.233	501.75
418.441	555
418.649	522.23
418.857	548.86
419.065	616.44
419.273	522.23
419.481	737.27
419.689	616.44
419.897	692.21
420.105	667.64
420.313	712.69
420.521	755.7
420.729	749.56
420.937	776.18
421.145	749.56
421.353	884.72
421.561	851.96
421.769	841.72
421.977	983.02
422.185	858.1
422.393	903.15
422.601	1085.42
422.809	999.41
423.017	1052.66
423.224	1093.62
423.432	1191.92
423.64	1066.99
423.848	1177.58
424.056	1208.3
424.263	1261.55
424.471	1236.97
424.679	1325.04
424.887	1384.43
425.094	1351.66
425.302	1511.4
425.51	1548.26
425.718	1527.78
425.925	1613.8
426.133	1667.05
426.341	1744.87
426.548	1920.99
426.756	1728.49
426.964	1791.97
427.171	1814.5
427.379	1949.67
427.586	2037.73
427.794	2117.6
428.001	2217.95
428.209	2205.66
428.417	2166.75
428.624	2410.46
428.832	2306.01
429.039	2279.39
429.247	2328.54
429.454	2586.58
429.662	2709.46
429.869	2535.39
430.076	2801.62
430.284	2697.17
430.491	2793.43
430.699	2822.1
430.906	2895.83
431.114	2977.75
431.321	3139.54
431.528	3172.3
431.736	3289.04
431.943	3555.27
432.15	3375.05
432.358	3438.54
432.565	3717.06
432.772	3459.02
432.979	3755.97
433.187	3741.64
433.394	3880.9
433.601	4163.52
433.808	4243.39
434.016	4204.48
434.223	4300.73
434.43	4726.71
434.637	4591.55
434.844	4919.22
435.052	4894.65
435.259	4765.62
435.466	4886.45
435.673	5005.24
435.88	5152.69
436.087	5468.08
436.294	5572.52
436.501	5298.1
436.708	5373.87
436.915	5566.38
437.122	5951.4
437.329	5679.02
437.537	5994.4
437.743	6156.19
437.95	6266.78
438.157	6193.06
438.364	6397.85
438.571	6639.51
438.778	6635.42
438.985	7147.41
439.192	7032.72
439.399	7020.44
439.606	6967.19
439.813	7438.22
440.02	7892.87
440.227	7778.19
440.433	7522.19
440.64	7831.43
440.847	7944.07
441.054	8032.13
441.261	8222.59
441.467	8370.05
441.674	8695.68
441.881	8867.7
442.088	8927.1
442.294	8970.1
442.501	9142.13
442.708	9187.19
442.914	9613.17
443.121	10102.63
443.328	9729.9
443.534	10549.09
443.741	10098.53
443.948	9965.42
444.154	10643.29
444.361	10571.61
444.568	10676.06
444.774	10733.4
444.981	10827.61
445.187	11421.52
445.394	11704.14
445.6	11595.6
445.807	12801.85
446.013	12054.34
446.22	12218.18
446.426	12791.61
446.633	12678.97
446.839	13295.41
447.046	12666.69
447.252	13557.55
447.459	13655.86
447.665	13328.18
447.871	14296.87
448.078	14855.97
448.284	13866.8
448.491	14688.03
448.697	14862.11
448.903	15451.92
449.11	15453.97
449.316	15114.01
449.522	15273.75
449.728	15972.11
449.935	15679.25
450.141	15623.95
450.347	16185.1
450.553	15666.96
450.76	15933.2
450.966	16439.05
451.172	16248.58
451.378	16727.81
451.584	16336.65
451.791	16871.17
451.997	16707.33
452.203	17114.87
452.409	17143.55
452.615	16946.94
452.821	16316.17
453.027	16168.71
453.233	17106.68
453.44	16203.53
453.646	16666.37
453.852	16768.77
454.058	16922.37
454.264	16326.41
454.47	16672.51
454.676	16193.29
454.882	16895.74
455.088	15501.08
455.294	15611.67
455.5	15865.61
455.705	15945.48
455.911	15378.2
456.117	15089.43
456.323	14991.13
456.529	14229.29
456.735	14606.11
456.941	14444.32
457.147	14221.09
457.352	13805.36
457.558	13532.98
457.764	13670.19
457.97	13451.06
458.176	12914.49
458.381	13227.83
458.587	12537.66
458.793	12324.68
458.999	11820.88
459.204	12799.8
459.41	12253
459.616	11538.26
459.821	11519.82
460.027	11358.03
460.233	10977.11
460.438	10628.96
460.644	10858.33
460.85	10241.89
461.055	10030.95
461.261	10133.35
461.466	9301.87
461.672	8927.1
461.878	9551.73
462.083	9035.64
462.289	8902.52
462.494	9033.59
462.7	8566.65
462.905	8167.3
463.111	8402.82
463.316	8601.47
463.522	8431.49
463.727	8312.71
463.932	8212.35
464.138	8187.78
464.343	8261.51
464.549	8112
464.754	8408.96
464.959	8296.32
465.165	8220.55
465.37	7921.54
465.575	7460.75
465.781	7780.23
465.986	7958.41
466.191	7665.55
466.397	7733.13
466.602	7253.91
466.807	7466.89
467.012	7430.03
467.218	7427.98
467.423	7346.06
467.628	7329.68
467.833	7741.32
468.038	7384.98
468.244	7255.95
468.449	7417.74
468.654	7139.22
468.859	7286.67
469.064	7096.21
469.269	6862.74
469.474	6911.89
469.679	7049.11
469.885	6774.68
470.09	7094.16
470.295	6979.48
470.5	6770.58
470.705	6762.39
470.91	6543.26
471.115	6573.98
471.32	6649.75
471.525	6698.91
471.73	6578.08
471.935	6385.57
472.139	6209.44
472.344	6317.98
472.549	6395.81
472.754	6193.06
472.959	6088.61
473.164	5869.48
473.369	5975.97
473.574	6156.19
473.778	5969.83
473.983	5930.92
474.188	5955.49
474.393	5867.43
474.598	5799.85
474.802	5595.05
475.007	5715.88
475.212	5683.11
475.417	5519.28
475.621	5386.16
475.826	5406.64
476.031	5402.54
476.235	5175.22
476.44	5279.66
476.645	5091.25
476.849	5269.42
477.054	5263.28
477.259	5060.53
477.463	5148.59
477.668	4986.8
477.872	5142.45
478.077	4765.62
478.282	4822.97
478.486	4706.23
478.691	4829.11
478.895	4585.4
479.1	4716.47
479.304	4913.08
479.509	4665.27
479.713	4640.7
479.918	4636.6
480.122	4480.96
480.326	4652.98
480.531	4573.11
480.735	4632.51
480.94	4384.7
481.144	4575.16
481.348	4380.61
481.553	4493.24
481.757	4491.2
481.961	4437.95
482.166	4388.8
482.37	4485.05
482.574	4405.18
482.778	4425.66
482.983	4409.28
483.187	4356.03
483.391	4464.57
483.595	4425.66
483.8	4421.56
484.004	4390.84
484.208	4562.87
484.412	4485.05
484.616	4560.83
484.821	4304.83
485.025	4319.17
485.229	4468.67
485.433	4388.8
485.637	4366.27
485.841	4546.49
486.045	4304.83
486.249	4294.59
486.453	4499.39
486.657	4478.91
486.861	4415.42
487.065	4206.53
487.269	4487.1
487.473	4366.27
487.677	4382.65
487.881	4478.91
488.085	4454.33
488.289	4384.7
488.493	4437.95
488.697	4552.63
488.901	4413.37
489.105	4368.32
489.309	4478.91
489.512	4575.16
489.716	4429.76
489.92	4333.5
490.124	4470.72
490.328	4495.29
490.531	4278.21
490.735	4536.25
490.939	4536.25
491.143	4550.59
491.346	4497.34
491.55	4517.82
491.754	4550.59
491.958	4601.79
492.161	4513.72
492.365	4716.47
492.569	4673.46
492.772	4691.9
492.976	4644.79
493.18	4784.05
493.383	4722.62
493.587	4816.82
493.79	4820.92
493.994	4853.69
494.197	4745.14
494.401	4888.5
494.605	4925.36
494.808	5074.87
495.012	4925.36
495.215	5005.24
495.419	5189.55
495.622	4992.95
495.825	5210.03
496.029	5083.06
496.232	5334.96
496.436	5234.61
496.639	5367.73
496.843	5345.2
497.046	5427.12
497.249	5355.44
497.453	5461.93
497.656	5541.8
497.859	5709.74
498.063	5775.27
498.266	5672.87
498.469	5717.93
498.673	5805.99
498.876	5900.2
499.079	5969.83
499.282	5849
499.485	6123.43
499.689	6250.4
499.892	6164.39
500.095	6166.43
500.298	6342.56
500.501	6279.07
500.705	6471.58
500.908	6592.41
501.111	6506.4
501.314	6541.21
501.517	6631.32
501.72	6872.98
501.923	6711.19
502.126	6924.18
502.329	7100.31
502.532	7081.88
502.735	6997.91
502.938	7196.56
503.141	7303.06
503.344	7423.89
503.547	7384.98
503.75	7466.89
503.953	7477.13
504.156	7683.98
504.359	7913.35
504.562	7643.02
504.765	7939.97
504.968	7915.4
505.17	8128.39
505.373	8060.8
505.576	8417.15
505.779	8314.75
505.982	8226.69
506.185	8693.63
506.387	8765.31
506.59	8595.32
506.793	8802.17
506.996	8978.3
507.198	8927.1
507.401	8998.77
507.604	9222
507.807	9265.01
508.009	9330.55
508.212	9426.8
508.415	9584.49
508.617	9666.41
508.82	9613.17
509.022	9770.86
509.225	9963.37
509.428	9887.59
509.63	10149.73
509.833	9949.03
510.035	10446.69
510.238	10422.11
510.44	10405.73
510.643	10655.58
510.845	10745.69
511.048	10645.34
511.25	11079.51
511.453	10997.59
511.655	11366.23
511.858	11079.51
512.06	11218.77
512.262	11503.44
512.465	11370.32
512.667	11556.69
512.87	11906.89
513.072	11687.76
513.274	11847.5
513.477	11919.18
513.679	12209.99
513.881	12322.63
514.084	12314.44
514.286	12506.95
514.488	12535.62
514.69	13219.64
514.893	13027.13
515.095	13066.04
515.297	13238.07
515.499	13176.63
515.701	13270.84
515.904	13573.94
516.106	13713.2
516.308	13645.62
516.51	13711.15
516.712	14030.63
516.914	13840.17
517.116	14554.91
517.318	14245.67
517.52	14493.47
517.722	14499.62
517.925	14819.1
518.127	14987.04
518.329	15183.64
518.531	14954.27
518.733	15355.67
518.935	15316.76
519.136	15296.28
519.338	15439.64
519.54	15853.33
519.742	15988.49
519.944	15927.05
520.146	16299.78
520.348	16367.37
520.55	16619.27
520.752	16602.88
520.954	16805.63
521.155	16709.38
521.357	16920.32
521.559	17213.18
521.761	17477.37
521.963	17350.39
522.164	17538.8
522.366	17590
522.568	17604.34
522.77	17782.51
522.971	18388.71
523.173	17860.34
523.375	18104.04
523.576	18323.18
523.778	18116.33
523.98	18763.49
524.181	18589.41
524.383	18585.32
524.584	18743.01
524.786	19078.88
524.988	19107.55
525.189	19246.81
525.391	19185.37
525.592	19562.2
525.794	19562.2
525.995	19617.49
526.197	19592.92
526.398	19637.97
526.6	19814.1
526.801	19799.76
527.003	19977.94
527.204	20233.93
527.406	20338.38
527.607	20307.66
527.808	20281.03
528.01	20172.49
528.211	20328.14
528.412	20700.87
528.614	20702.92
528.815	20770.5
529.016	20866.75
529.218	20631.24
529.419	21026.5
529.62	21067.45
529.822	20815.55
530.023	21018.3
530.224	20893.38
530.425	21061.31
530.626	20647.62
530.828	21278.4
531.029	21362.36
531.23	21292.73
531.431	21022.4
531.632	21425.85
531.833	21651.13
532.035	21319.35
532.236	21503.67
532.437	21458.62
532.638	21235.39
532.839	21644.98
533.04	21571.25
533.241	21513.91
533.442	21806.77
533.643	21419.71
533.844	21397.18
534.045	21610.17
534.246	21370.55
534.447	21647.03
534.648	21647.03
534.849	21860.02
535.05	21751.48
535.251	22097.58
535.451	21567.16
535.652	21894.83
535.853	21673.65
536.054	21911.22
536.255	21747.38
536.456	21595.83
536.657	21991.09
536.857	21577.4
537.058	21841.59
537.259	21890.74
537.46	21733.04
537.66	21763.76
537.861	22171.31
538.062	21774
538.263	22052.53
538.463	21714.61
538.664	21882.55
538.865	21868.21
539.065	22021.81
539.266	21966.51
539.466	22036.14
539.667	21728.95
539.868	21907.12
540.068	21888.69
540.269	21986.99
540.469	22161.07
540.67	21919.41
540.87	21845.68
541.071	21700.28
541.271	21946.03
541.472	21704.37
541.672	21690.04
541.873	21661.37
542.073	21491.38
542.274	22027.95
542.474	21780.15
542.675	21671.61
542.875	21630.65
543.075	21698.23
543.276	21630.65
543.476	21771.96
543.676	21505.72
543.877	21804.72
544.077	21767.86
544.277	21921.46
544.478	21655.22
544.678	21976.75
544.878	21575.35
545.078	21792.44
545.279	21401.27
545.479	21585.59
545.679	21700.28
545.879	21743.28
546.079	21778.1
546.28	21522.1
546.48	21782.2
546.68	21776.05
546.88	21837.49
547.08	21692.08
547.28	21708.47
547.48	21669.56
547.68	21509.82
547.88	21675.7
548.081	21618.36
548.281	21601.97
548.481	21573.3
548.681	21733.04
548.881	21726.9
549.081	21808.82
549.28	21616.31
549.48	21755.57
549.68	21571.25
549.88	22015.66
550.08	21384.89
550.28	21571.25
550.48	21681.85
550.68	21716.66
550.88	21343.93
551.08	21569.21
551.279	21636.79
551.479	21368.51
551.679	21460.66
551.879	21442.23
552.079	21423.8
552.278	21440.18
552.478	21348.03
552.678	21505.72
552.878	21712.56
553.077	21300.92
553.277	21182.14
553.477	21675.7
553.676	21270.2
553.876	21214.91
554.076	21296.83
554.275	21231.29
554.475	20850.37
554.674	21448.38
554.874	21378.75
555.074	21032.64
555.273	21839.54
555.473	21694.13
555.672	21235.39
555.872	21427.9
556.071	21028.54
556.271	21280.44
556.47	20788.93
556.67	21079.74
556.869	20971.2
557.068	21331.64
557.268	21034.69
557.467	21065.41
557.667	20977.34
557.866	21079.74
558.065	20991.68
558.265	20897.47
558.464	20817.6
558.663	21155.52
558.863	20422.34
559.062	21237.44
559.261	20690.63
559.461	21028.54
559.66	20500.17
559.859	20891.33
560.058	20827.84
560.258	20512.45
560.457	20461.26
560.656	20621
560.855	20272.84
561.054	20471.5
561.253	20451.02
561.453	20465.35
561.652	20344.52
561.851	20674.24
562.05	20428.49
562.249	20037.33
562.448	20197.07
562.647	20033.23
562.846	20008.65
563.045	20176.59
563.244	20029.13
563.443	20168.4
563.642	19754.71
563.841	20225.74
564.04	20010.7
564.239	19900.11
564.438	19969.74
564.637	19797.71
564.836	20063.95
565.035	19642.07
565.234	19799.76
565.432	19656.4
565.631	19613.4
565.83	19646.16
566.029	19336.92
566.228	19322.59
566.427	19400.41
566.625	19148.51
566.824	19287.77
567.023	19459.8
567.222	19091.16
567.42	19099.36
567.619	19130.08
567.818	19320.54
568.016	19457.75
568.215	19281.63
568.414	18953.95
568.612	18833.12
568.811	18994.91
569.01	18878.18
569.208	18337.51
569.407	18820.83
569.605	18566.88
569.804	18884.32
570.002	18419.43
570.201	18800.35
570.4	18568.93
570.598	18386.66
570.797	18261.74
570.995	18235.11
571.193	18194.15
571.392	18259.69
571.59	18140.91
571.789	18312.94
571.987	17948.4
572.186	17825.52
572.384	17784.56
572.582	17850.1
572.781	17846
572.979	17831.66
573.177	17807.09
573.376	17653.49
573.574	17813.23
573.772	17786.61
573.971	17350.39
574.169	17469.17
574.367	17217.27
574.565	17671.92
574.763	17403.64
574.962	17489.65
575.16	16981.76
575.358	17030.91
575.556	17102.59
575.754	17334.01
575.952	17059.58
576.151	17166.07
576.349	16858.88
576.547	17096.44
576.745	16836.35
576.943	17092.35
577.141	16953.09
577.339	16684.8
577.537	16578.31
577.735	16772.86
577.933	16578.31
578.131	16529.16
578.329	16592.64
578.527	16244.49
578.725	16305.93
578.923	16498.44
579.121	16506.63
579.319	16269.06
579.516	16404.23
579.714	16127.75
579.912	16246.54
580.11	16129.8
580.308	16039.69
580.506	15855.37
580.704	15810.32
580.901	15896.33
581.099	16019.21
581.297	15994.64
581.495	15818.51
581.692	15845.13
581.89	15607.57
582.088	15707.92
582.285	15644.43
582.483	15871.76
582.681	15478.55
582.878	15392.53
583.076	15275.8
583.274	15349.53
583.471	15314.71
583.669	15251.22
583.866	15224.6
584.064	15656.72
584.262	15372.05
584.459	15083.29
584.657	15206.17
584.854	15380.25
585.052	14925.6
585.249	15335.19
585.447	14991.13
585.644	14819.1
585.841	14847.77
586.039	15103.77
586.236	14630.69
586.434	14886.68
586.631	15066.91
586.828	14667.55
587.026	14677.79
587.223	14526.24
587.42	14544.67
587.618	14706.46
587.815	14444.32
588.012	14262.05
588.21	14290.73
588.407	14468.9
588.604	14425.89
588.801	14186.28
588.999	14192.42
589.196	14270.25
589.393	13995.82
589.59	13913.9
589.787	14137.13
589.984	13874.99
590.182	13825.84
590.379	13997.87
590.576	13831.98
590.773	13852.46
590.97	13905.71
591.167	13950.76
591.364	13727.53
591.561	13627.18
591.758	13610.8
591.955	13557.55
592.152	13532.98
592.349	13381.43
592.546	13281.08
592.743	13432.63
592.94	13111.1
593.137	13389.62
593.334	13360.95
593.531	13016.89
593.727	13434.67
593.924	13344.56
594.121	13039.42
594.318	13068.09
594.515	12939.07
594.712	13209.4
594.908	13184.82
595.105	13012.79
595.302	12939.07
595.499	13016.89
595.696	12873.53
595.892	12795.71
596.089	12865.34
596.286	12914.49
596.482	12738.37
596.679	12764.99
596.876	12859.2
597.072	12570.43
597.269	12617.54
597.466	12547.9
597.662	12367.68
597.859	12611.39
598.055	12668.73
598.252	12623.68
598.448	12316.48
598.645	12519.23
598.841	12076.87
599.038	12144.45
599.234	12263.24
599.431	12117.83
599.627	12146.5
599.824	12080.97
600.02	11808.59
600.217	12205.89
600.413	11904.84
600.609	12076.87
600.806	11980.62
601.002	12062.54
601.198	11706.19
601.395	11708.24
601.591	11634.51
601.787	11562.83
601.984	11562.83
602.18	11808.59
602.376	11558.74
602.572	11411.28
602.769	11747.15
602.965	11292.5
603.161	11474.77
603.357	11376.47
603.553	11415.38
603.75	11315.03
603.946	11497.3
604.142	11462.48
604.338	11216.72
604.534	11358.03
604.73	10927.96
604.926	11065.18
605.122	11224.92
605.318	11163.48
605.514	10987.35
605.71	11028.31
605.906	10952.54
606.102	11003.74
606.298	10868.57
606.494	11040.6
606.69	10958.68
606.886	11073.37
607.082	10856.28
607.278	10794.84
607.474	11042.65
607.67	10805.08
607.866	10555.23
608.062	10983.26
608.257	10450.78
608.453	10737.5
608.649	10565.47
608.845	10534.75
609.041	10588
609.236	10375.01
609.432	10536.8
609.628	10622.81
609.824	10532.7
610.019	10332
610.215	10588
610.411	10389.35
610.606	10248.04
610.802	10370.91
610.998	10168.16
611.193	10516.32
611.389	10243.94
611.584	10237.8
611.78	10239.84
611.976	10362.72
612.171	10299.23
612.367	10338.15
612.562	10209.12
612.758	9844.59
612.953	10178.4
613.149	10069.86
613.344	10162.02
613.539	10221.41
613.735	10016.62
613.93	9965.42
614.126	10012.52
614.321	10194.79
614.517	10139.49
614.712	9908.07
614.907	9772.91
615.103	10004.33
615.298	9871.21
615.493	10057.57
615.688	9879.4
615.884	10133.35
616.079	9955.18
616.274	9594.73
616.47	9727.85
616.665	9742.19
616.86	9846.63
617.055	9652.08
617.25	9746.28
617.445	9686.89
617.641	9308.02
617.836	9506.67
618.031	9496.43
618.226	9760.62
618.421	9514.86
618.616	9584.49
618.811	9342.83
619.006	9445.23
619.201	9377.65
619.396	9369.46
619.591	9250.67
619.786	9445.23
619.981	9101.17
620.176	9316.21
620.371	9242.48
620.566	9320.31
620.761	9117.56
620.956	9240.43
621.151	9019.25
621.346	9123.7
621.541	8818.55
621.735	8982.39
621.93	8808.31
622.125	8828.79
622.32	8523.65
622.515	8730.49
622.709	8632.19
622.904	8787.83
623.099	8626.04
623.294	8607.61
623.488	8540.03
623.683	8474.49
623.878	8351.62
624.072	8548.22
624.267	8316.8
624.462	8245.12
624.656	8109.96
624.851	8275.84
625.046	8069
625.24	8124.29
625.435	7974.79
625.629	7911.3
625.824	8001.41
626.018	7894.92
626.213	7860.1
626.407	7931.78
626.602	7720.84
626.796	7937.93
626.991	7724.94
627.185	7767.95
627.38	7665.55
627.574	7606.16
627.768	7585.68
627.963	7550.86
628.157	7460.75
628.352	7436.17
628.546	7368.59
628.74	7335.82
628.935	7296.91
629.129	7272.34
629.323	7141.27
629.517	7069.59
629.712	7034.77
629.906	7004.05
630.1	7141.27
630.294	7157.65
630.489	6995.86
630.683	7100.31
630.877	6715.29
631.071	6897.56
631.265	6969.24
631.459	6700.95
631.653	6926.23
631.848	6739.87
632.042	6555.55
632.236	6764.44
632.43	6709.15
632.624	6672.28
632.818	6616.99
633.012	6518.68
633.206	6487.96
633.4	6610.84
633.594	6346.66
633.788	6424.48
633.982	6432.67
634.176	6393.76
634.369	6549.4
634.563	6293.41
634.757	6500.25
634.951	6272.93
635.145	6238.11
635.339	6229.92
635.533	6340.51
635.726	6082.47
635.92	5961.64
636.114	5902.25
636.308	5926.82
636.501	6045.6
636.695	5955.49
636.889	5937.06
637.083	5900.2
637.276	5928.87
637.47	5679.02
637.664	5656.49
637.857	5789.61
638.051	5697.45
638.244	5791.66
638.438	5810.09
638.632	5726.12
638.825	5554.09
639.019	5547.95
639.212	5550
639.406	5580.71
639.599	5427.12
639.793	5502.89
639.986	5441.45
640.18	5269.42
640.373	5388.21
640.567	5222.32
640.76	5298.1
640.954	5312.43
641.147	5248.94
641.34	5199.79
641.534	5257.14
641.727	5238.7
641.92	5193.65
642.114	5148.59
642.307	5207.98
642.5	5025.72
642.694	5015.48
642.887	5015.48
643.08	5074.87
643.273	5029.81
643.467	4792.25
643.66	4906.93
643.853	4845.49
644.046	4886.45
644.239	4730.81
644.432	4812.73
644.626	4839.35
644.819	4816.82
645.012	4777.91
645.205	4747.19
645.398	4822.97
645.591	4728.76
645.784	4624.31
645.977	4593.59
646.17	4534.2
646.363	4638.65
646.556	4515.77
646.749	4466.62
646.942	4575.16
647.135	4599.74
647.328	4349.89
647.521	4407.23
647.714	4386.75
647.907	4403.13
648.099	4356.03
648.292	4366.27
648.485	4335.55
648.678	4102.08
648.871	4280.25
649.064	4196.29
649.256	4065.22
649.449	4112.32
649.642	4036.55
649.835	4065.22
650.027	4073.41
650.22	4147.14
650.413	4108.23
650.605	4151.23
650.798	4116.42
650.991	4079.55
651.183	4083.65
651.376	3841.99
651.568	4028.35
651.761	4003.78
651.954	3954.63
652.146	3862.47
652.339	3928
652.531	3899.33
652.724	3760.07
652.916	3758.02
653.109	3815.37
653.301	3747.78
653.494	3846.09
653.686	3753.93
653.879	3792.84
654.071	3698.63
654.263	3504.07
654.456	3637.19
654.648	3737.54
654.84	3639.24
655.033	3491.79
655.225	3579.85
655.417	3469.26
655.61	3600.33
655.802	3545.03
655.994	3579.85
656.186	3444.68
656.379	3502.03
656.571	3409.87
656.763	3411.92
656.955	3297.23
657.148	3385.29
657.34	3413.96
657.532	3362.76
657.724	3356.62
657.916	3289.04
658.108	3504.07
658.3	3346.38
658.492	3192.78
658.684	3330
658.876	3315.66
659.068	3266.51
659.26	3231.69
659.452	3106.77
659.644	3164.11
659.836	3182.54
660.028	3149.78
660.22	3100.62
660.412	3076.05
660.604	3090.38
660.796	3088.34
660.988	3133.39
661.18	2953.17
661.372	3047.38
661.563	3094.48
661.755	2910.16
661.947	2994.13
662.139	2846.68
662.331	3035.09
662.522	2926.55
662.714	2768.85
662.906	2793.43
663.097	2842.58
663.289	2963.41
663.481	2879.44
663.673	2813.91
663.864	2742.23
664.056	2830.29
664.247	2760.66
664.439	2666.46
664.631	2793.43
664.822	2807.77
665.014	2611.16
665.205	2684.89
665.397	2711.51
665.588	2768.85
665.78	2701.27
665.971	2760.66
666.163	2719.7
666.354	2607.06
666.546	2793.43
666.737	2641.88
666.929	2707.41
667.12	2564.06
667.311	2652.12
667.503	2602.97
667.694	2553.82
667.885	2523.1
668.077	2576.34
668.268	2453.47
668.459	2551.77
668.651	2330.59
668.842	2482.14
669.033	2445.27
669.224	2373.6
669.416	2437.08
669.607	2375.64
669.798	2418.65
669.989	2447.32
670.18	2344.92
670.371	2410.46
670.563	2308.06
670.754	2469.85
670.945	2346.97
671.136	2381.79
671.327	2250.72
671.518	2326.49
671.709	2475.99
671.9	2408.41
672.091	2371.55
672.282	2322.4
672.473	2289.63
672.664	2269.15
672.855	2275.29
673.046	2383.84
673.237	2265.05
673.428	2228.19
673.619	2203.61
673.809	2238.43
674	2265.05
674.191	2144.22
674.382	2093.02
674.573	2111.46
674.764	2310.11
674.954	2222.05
675.145	2035.68
675.336	2105.31
675.527	2174.94
675.717	2158.56
675.908	2152.42
676.099	2076.64
676.289	2070.5
676.48	2041.82
676.671	2133.98
676.861	2000.87
677.052	2052.06
677.243	2123.74
677.433	1943.52
677.624	2000.87
677.814	2095.07
678.005	2037.73
678.195	2074.59
678.386	1964
678.576	2060.26
678.767	1869.8
678.957	1961.95
679.148	1984.48
679.338	2035.68
679.529	1961.95
679.719	1865.7
679.909	2037.73
680.1	1953.76
680.29	1902.56
680.481	1894.37
680.671	2023.39
680.861	1859.56
681.052	1996.77
681.242	1877.99
681.432	1947.62
681.622	1855.46
681.813	1888.23
682.003	1810.4
682.193	1953.76
682.383	1914.85
682.573	1929.19
682.764	1832.93
682.954	1980.39
683.144	1873.89
683.334	1929.19
683.524	1791.97
683.714	1906.66
683.904	1748.97
684.094	1783.78
684.284	1787.88
684.474	1937.38
684.664	1826.79
684.854	1937.38
685.044	1789.92
685.234	1759.21
685.424	1816.55
685.614	1820.64
685.804	1828.84
685.994	1783.78
686.184	1763.3
686.374	1789.92
686.564	1798.12
686.753	1718.25
686.943	1796.07
687.133	1732.58
687.323	1734.63
687.513	1714.15
687.702	1732.58
687.892	1744.87
688.082	1531.88
688.272	1710.05
688.461	1675.24
688.651	1748.97
688.841	1662.95
689.03	1669.09
689.22	1619.94
689.41	1744.87
689.599	1728.49
689.789	1642.47
689.979	1626.09
690.168	1714.15
690.358	1650.66
690.547	1611.75
690.737	1619.94
690.926	1613.8
691.116	1568.74
691.305	1597.42
691.495	1587.18
691.684	1546.22
691.874	1642.47
692.063	1581.03
692.252	1556.46
692.442	1454.06
692.631	1574.89
692.82	1538.02
693.01	1538.02
693.199	1517.54
693.388	1515.5
693.578	1540.07
693.767	1482.73
693.956	1564.65
694.146	1531.88
694.335	1488.87
694.524	1474.54
694.713	1464.3
694.902	1519.59
695.092	1507.31
695.281	1464.3
695.47	1558.5
695.659	1398.76
695.848	1431.53
696.037	1464.3
696.226	1445.87
696.415	1423.34
696.604	1382.38
696.793	1409
696.982	1456.11
697.171	1445.87
697.36	1499.11
697.549	1472.49
697.738	1540.07
697.927	1570.79
698.116	1404.91
698.305	1423.34
698.494	1425.39
698.683	1495.02
698.872	1445.87
699.061	1495.02
699.25	1308.65
699.438	1441.77
699.627	1320.94
699.816	1472.49
700.005	1423.34
700.193	1462.25
700.382	1474.54
700.571	1421.29
700.76	1347.56
700.948	1439.72
701.137	1476.59
701.326	1339.37
701.514	1345.52
701.703	1511.4
701.892	1519.59
702.08	1423.34
702.269	1429.48
702.457	1429.48
702.646	1507.31
702.834	1396.71
703.023	1361.9
703.212	1472.49
703.4	1374.19
703.589	1515.5
703.777	1417.19
703.965	1431.53
704.154	1359.85
704.342	1466.35
704.531	1472.49
704.719	1429.48
704.907	1492.97
705.096	1331.18
705.284	1419.24
705.472	1396.71
705.661	1421.29
705.849	1495.02
706.037	1351.66
706.226	1380.33
706.414	1396.71
706.602	1355.76
706.79	1427.43
706.979	1499.11
707.167	1333.23
707.355	1415.15
707.543	1398.76
707.731	1366
707.919	1378.28
708.107	1437.67
708.296	1343.47
708.484	1423.34
708.672	1316.84
708.86	1398.76
709.048	1423.34
709.236	1341.42
709.424	1503.21
709.612	1562.6
709.8	1388.52
709.988	1413.1
710.176	1404.91
710.364	1413.1
710.551	1429.48
710.739	1329.13
710.927	1361.9
711.115	1398.76
711.303	1406.95
711.491	1456.11
711.679	1345.52
711.866	1445.87
712.054	1404.91
712.242	1404.91
712.43	1439.72
712.617	1415.15
712.805	1402.86
712.993	1308.65
713.181	1445.87
713.368	1341.42
713.556	1382.38
713.744	1384.43
713.931	1482.73
714.119	1413.1
714.306	1411.05
714.494	1370.09
714.682	1415.15
714.869	1439.72
715.057	1406.95
715.244	1396.71
715.432	1437.67
715.619	1458.15
715.807	1355.76
715.994	1298.41
716.182	1445.87
716.369	1503.21
716.556	1353.71
716.744	1288.17
716.931	1343.47
717.119	1380.33
717.306	1370.09
717.493	1341.42
717.681	1347.56
717.868	1480.68
718.055	1322.99
718.242	1413.1
718.43	1398.76
718.617	1488.87
718.804	1396.71
718.991	1343.47
719.179	1413.1
719.366	1368.04
719.553	1417.19
719.74	1331.18
719.927	1341.42
720.114	1282.03
720.301	1351.66
720.488	1398.76
720.676	1501.16
720.863	1441.77
721.05	1378.28
721.237	1349.61
721.424	1384.43
721.611	1331.18
721.798	1316.84
721.985	1406.95
722.172	1269.74
722.358	1284.08
722.545	1368.04
722.732	1404.91
722.919	1339.37
723.106	1312.75
723.293	1390.57
723.48	1286.12
723.667	1370.09
723.853	1359.85
724.04	1396.71
724.227	1368.04
724.414	1335.28
724.6	1372.14
724.787	1439.72
724.974	1359.85
725.161	1361.9
725.347	1388.52
725.534	1484.78
725.72	1351.66
725.907	1423.34
726.094	1382.38
726.28	1320.94
726.467	1392.62
726.653	1325.04
726.84	1359.85
727.027	1394.67
727.213	1351.66
727.4	1359.85
727.586	1380.33
727.773	1298.41
727.959	1279.98
728.145	1339.37
728.332	1265.64
728.518	1275.88
728.705	1267.69
728.891	1202.16
729.077	1310.7
729.264	1308.65
729.45	1388.52
729.636	1398.76
729.823	1314.8
730.009	1308.65
730.195	1306.6
730.382	1322.99
730.568	1339.37
730.754	1327.08
730.94	1224.69
731.126	1339.37
731.313	1322.99
731.499	1269.74
731.685	1366
731.871	1234.93
732.057	1343.47
732.243	1253.36
732.429	1243.12
732.615	1296.36
732.801	1423.34
732.987	1253.36
733.173	1218.54
733.359	1318.89
733.545	1269.74
733.731	1263.6
733.917	1310.7
734.103	1284.08
734.289	1368.04
734.475	1331.18
734.661	1208.3
734.847	1241.07
735.033	1216.49
735.219	1259.5
735.404	1230.83
735.59	1138.67
735.776	1247.21
735.962	1241.07
736.148	1255.4
736.333	1259.5
736.519	1175.53
736.705	1232.88
736.89	1224.69
737.076	1208.3
737.262	1204.21
737.447	1224.69
737.633	1193.97
737.819	1249.26
738.004	1181.68
738.19	1185.77
738.375	1085.42
738.561	1155.05
738.747	1140.72
738.932	1124.33
739.118	1230.83
739.303	1216.49
739.489	1208.3
739.674	1153.01
739.859	1071.09
740.045	1169.39
740.23	1157.1
740.416	1169.39
740.601	1126.38
740.786	1036.27
740.972	1159.15
741.157	1148.91
741.342	1085.42
741.528	1056.75
741.713	1110
741.898	1085.42
742.084	1093.62
742.269	1120.24
742.454	1150.96
742.639	1136.62
742.824	1122.29
743.01	1159.15
743.195	1085.42
743.38	1175.53
743.565	1087.47
743.75	1058.8
743.935	1122.29
744.12	1142.77
744.305	1044.46
744.49	1138.67
744.675	960.5
744.86	1054.7
745.045	1044.46
745.23	1085.42
745.415	1009.65
745.6	1036.27
745.785	987.12
745.97	1023.98
746.155	1021.94
746.34	1085.42
746.525	937.97
746.71	1083.38
746.895	931.83
747.079	1001.46
747.264	1003.5
747.449	925.68
747.634	1052.66
747.819	890.87
748.003	960.5
748.188	884.72
748.373	907.25
748.557	995.31
748.742	983.02
748.927	874.48
749.111	874.48
749.296	854
749.481	976.88
749.665	839.67
749.85	905.2
750.034	886.77
750.219	915.44
750.404	1009.65
750.588	940.02
750.773	831.48
750.957	911.35
751.141	872.43
751.326	825.33
751.51	741.36
751.695	856.05
751.879	894.96
752.064	940.02
752.248	718.84
752.432	872.43
752.617	854
752.801	815.09
752.985	759.8
753.17	849.91
753.354	722.93
753.538	831.48
753.722	716.79
753.907	786.42
754.091	733.17
754.275	839.67
754.459	706.55
754.643	720.88
754.828	815.09
755.012	716.79
755.196	710.65
755.38	704.5
755.564	663.54
755.748	667.64
755.932	700.41
756.116	684.02
756.3	643.06
756.484	782.32
756.668	661.49
756.852	585.72
757.036	679.93
757.22	729.08
757.404	690.17
757.588	735.22
757.772	669.69
757.956	634.87
758.14	765.94
758.323	608.25
758.507	659.45
758.691	636.92
758.875	618.49
759.059	643.06
759.242	647.16
759.426	655.35
759.61	606.2
759.794	610.29
759.977	612.34
760.161	667.64
760.345	649.21
760.528	665.59
760.712	665.59
760.895	499.7
761.079	626.68
761.263	503.8
761.446	546.81
761.63	571.38
761.813	577.53
761.997	495.61
762.18	544.76
762.364	616.44
762.547	581.62
762.731	497.66
762.914	557.05
763.098	524.28
763.281	544.76
763.464	565.24
763.648	587.77
763.831	544.76
764.015	587.77
764.198	585.72
764.381	559.1
764.564	595.96
764.748	468.98
764.931	546.81
765.114	473.08
765.297	557.05
765.481	442.36
765.664	577.53
765.847	616.44
766.03	634.87
766.213	530.42
766.397	571.38
766.58	530.42
766.763	530.42
766.946	516.09
767.129	505.85
767.312	585.72
767.495	571.38
767.678	456.7
767.861	462.84
768.044	413.69
768.227	509.94
768.41	555
768.593	514.04
768.776	483.32
768.959	503.8
769.142	514.04
769.324	497.66
769.507	530.42
769.69	552.95
769.873	528.38
770.056	514.04
770.239	407.55
770.421	542.71
770.604	425.98
770.787	391.16
770.97	462.84
771.152	415.74
771.335	483.32
771.518	452.6
771.7	497.66
771.883	481.27
772.066	434.17
772.248	497.66
772.431	479.22
772.613	456.7
772.796	532.47
772.978	505.85
773.161	460.79
773.343	497.66
773.526	370.68
773.708	350.2
773.891	446.46
774.073	454.65
774.256	432.12
774.438	464.89
774.621	411.64
774.803	352.25
774.985	446.46
775.168	448.51
775.35	421.88
775.532	385.02
775.715	409.59
775.897	430.07
776.079	428.03
776.261	462.84
776.444	387.07
776.626	313.34
776.808	450.55
776.99	407.55
777.173	444.41
777.355	354.3
777.537	425.98
777.719	401.4
777.901	305.15
778.083	319.48
778.265	331.77
778.447	380.92
778.629	344.06
778.811	374.78
778.993	327.68
779.175	417.79
779.357	337.91
779.539	307.2
779.721	380.92
779.903	372.73
780.085	292.86
780.267	323.58
780.449	352.25
780.631	380.92
780.812	401.4
780.994	360.44
781.176	382.97
781.358	319.48
781.54	344.06
781.721	399.35
781.903	348.15
782.085	266.24
782.267	321.53
782.448	299
782.63	323.58
782.812	358.39
782.993	339.96
783.175	325.63
783.357	202.75
783.538	274.43
783.72	284.67
783.901	331.77
784.083	346.11
784.264	276.48
784.446	266.24
784.627	331.77
784.809	296.96
784.99	256
785.172	278.52
785.353	337.91
785.535	253.95
785.716	272.38
785.897	258.04
786.079	221.18
786.26	178.17
786.441	303.1
786.623	178.17
786.804	151.55
786.985	290.81
787.167	270.33
787.348	233.47
787.529	329.72
787.71	303.1
787.891	331.77
788.073	215.04
788.254	225.28
788.435	307.2
788.616	233.47
788.797	172.03
788.978	225.28
789.159	223.23
789.34	217.08
789.522	212.99
789.703	237.56
789.884	188.41
790.065	258.04
790.246	266.24
790.427	174.08
790.607	169.98
790.788	169.98
790.969	208.89
791.15	231.42
791.331	165.89
791.512	243.71
791.693	208.89
791.874	151.55
792.054	266.24
792.235	280.57
792.416	167.93
792.597	129.02
792.778	235.52
792.958	182.27
793.139	141.31
793.32	210.94
793.5	241.66
793.681	235.52
793.862	159.74
794.042	169.98
794.223	137.21
794.404	167.93
794.584	110.59
794.765	145.41
794.945	184.32
795.126	190.46
795.306	180.22
795.487	126.97
795.667	126.97
795.848	135.17
796.028	141.31
796.209	190.46
796.389	161.79
796.57	198.65
796.75	194.56
796.93	100.35
797.111	163.84
797.291	81.92
797.471	153.6
797.652	61.44
797.832	129.02
798.012	212.99
798.192	129.02
798.373	126.97
798.553	169.98
798.733	169.98
798.913	102.4
799.093	137.21
799.274	161.79
799.454	180.22
799.634	217.08
799.814	110.59
799.994	204.8
800.174	143.36
800.354	153.6
800.534	34.82
800.714	161.79
800.894	143.36
801.074	57.34
801.254	137.21
801.434	210.94
801.614	86.01
801.794	112.64
801.974	745.46
802.154	96.25
802.334	151.55
802.514	139.26
802.693	202.75
802.873	151.55
803.053	180.22
803.233	196.61
803.413	176.13
803.592	81.92
803.772	53.25
803.952	159.74
804.131	-10.24
804.311	182.27
804.491	86.01
804.67	163.84
804.85	151.55
805.03	135.17
805.209	96.25
805.389	135.17
805.568	137.21
805.748	143.36
805.928	69.63
806.107	133.12
806.287	102.4
806.466	151.55
806.646	151.55
806.825	38.91
807.004	151.55
807.184	71.68
807.363	98.3
807.543	102.4
807.722	69.63
807.901	73.73
808.081	94.21
808.26	14.34
808.439	114.69
808.619	153.6
808.798	77.82
808.977	75.77
809.156	153.6
809.336	96.25
809.515	126.97
809.694	32.77
809.873	143.36
810.052	81.92
810.231	145.41
810.411	36.86
810.59	63.49
810.769	83.97
810.948	139.26
811.127	77.82
811.306	94.21
811.485	61.44
811.664	53.25
811.843	63.49
812.022	178.17
812.201	106.49
812.38	77.82
812.559	55.3
812.737	73.73
812.916	51.2
813.095	124.93
813.274	137.21
813.453	108.54
813.632	143.36
813.811	65.54
813.989	49.15
814.168	88.06
814.347	53.25
814.526	104.45
814.704	129.02
814.883	57.34
815.062	45.06
815.24	86.01
815.419	110.59
815.598	108.54
815.776	59.39
815.955	81.92
816.133	90.11
816.312	79.87
816.49	14.34
816.669	137.21
816.847	98.3
817.026	122.88
817.204	-18.43
817.383	18.43
817.561	75.77
817.74	176.13
817.918	43.01
818.097	118.78
818.275	63.49
818.453	40.96
818.632	112.64
818.81	22.53
818.988	6.14
819.167	65.54
819.345	102.4
819.523	59.39
819.701	34.82
819.879	69.63
820.058	-6.14
820.236	114.69
820.414	4.1
820.592	106.49
820.77	108.54
820.948	104.45
821.127	49.15
821.305	0
821.483	90.11
821.661	102.4
821.839	30.72
822.017	120.83
822.195	4.1
822.373	59.39
822.551	55.3
822.729	112.64
822.907	45.06
823.085	30.72
823.262	69.63
823.44	90.11
823.618	106.49
823.796	67.58
823.974	143.36
824.152	88.06
824.329	75.77
824.507	57.34
824.685	122.88
824.863	77.82
825.04	38.91
825.218	63.49
825.396	40.96
825.574	88.06
825.751	36.86
825.929	94.21
826.107	94.21
826.284	36.86
826.462	86.01
826.639	51.2
826.817	-2.05
826.994	49.15
827.172	40.96
827.349	114.69
827.527	-36.86
827.704	102.4
827.882	149.5
828.059	75.77
828.237	86.01
828.414	47.1
828.591	-32.77
828.769	102.4
828.946	-2.05
829.124	118.78
829.301	16.38
829.478	81.92
829.655	-16.38
829.833	22.53
830.01	8.19
830.187	67.58
830.364	100.35
830.542	108.54
830.719	135.17
830.896	131.07
831.073	57.34
831.25	59.39
831.427	73.73
831.604	32.77
831.782	-57.34
831.959	36.86
832.136	4.1
832.313	40.96
832.49	22.53
832.667	79.87
832.844	43.01
833.021	94.21
833.198	81.92
833.374	28.67
833.551	18.43
833.728	47.1
833.905	126.97
834.082	18.43
834.259	102.4
834.436	114.69
834.612	86.01
834.789	88.06
834.966	-55.3
835.143	57.34
835.319	4.1
835.496	24.58
835.673	22.53
835.85	94.21
836.026	59.39
836.203	90.11
836.38	40.96
836.556	53.25
836.733	43.01
836.909	45.06
837.086	-67.58
837.262	-28.67
837.439	-12.29
837.616	32.77
837.792	4.1
837.968	10.24
838.145	45.06
838.321	-12.29
838.498	77.82
838.674	59.39
838.851	102.4
839.027	61.44
839.203	51.2
839.38	4.1
839.556	-4.1
839.732	47.1
839.909	38.91
840.085	57.34
840.261	30.72
840.437	55.3
840.614	30.72
840.79	83.97
840.966	61.44
841.142	22.53
841.318	28.67
841.494	141.31
841.671	53.25
841.847	43.01
842.023	-32.77
842.199	8.19
842.375	100.35
842.551	10.24
842.727	-34.82
842.903	77.82
843.079	43.01
843.255	67.58
843.431	65.54
843.607	0
843.783	-40.96
843.959	-6.14
844.134	14.34
844.31	12.29
844.486	43.01
844.662	20.48
844.838	6.14
845.013	40.96
845.189	96.25
845.365	-4.1
845.541	65.54
845.716	47.1
845.892	47.1
846.068	-8.19
846.244	34.82
846.419	59.39
846.595	-49.15
846.77	73.73
846.946	102.4
847.122	20.48
847.297	24.58
847.473	92.16
847.648	10.24
847.824	47.1
847.999	26.62
848.175	-6.14
848.35	79.87
848.526	-8.19
848.701	104.45
848.876	88.06
849.052	34.82
849.227	26.62
849.403	71.68
849.578	49.15
849.753	22.53
849.929	53.25
850.104	-20.48
850.279	112.64
850.454	45.06
850.63	24.58
850.805	53.25
850.98	108.54
851.155	14.34
851.33	45.06
851.505	-8.19
851.681	94.21
851.856	34.82
852.031	-6.14
852.206	55.3
852.381	28.67
852.556	49.15
852.731	16.38
852.906	86.01
853.081	71.68
853.256	145.41
853.431	57.34
853.606	32.77
853.781	-2.05
853.956	69.63
854.131	-4.1
854.305	-8.19
854.48	30.72
854.655	-18.43
854.83	-22.53
855.005	28.67
855.18	59.39
855.354	-16.38
855.529	22.53
855.704	63.49
855.879	49.15
856.053	4.1
856.228	51.2
856.403	-86.01
856.577	30.72
856.752	-45.06
856.926	47.1
857.101	24.58
857.276	24.58
857.45	22.53
857.625	6.14
857.799	0
857.974	-51.2
858.148	-59.39
858.323	-16.38
858.497	-12.29
858.672	-2.05
858.846	-4.1
859.02	59.39
859.195	8.19
859.369	4.1
859.543	40.96
859.718	34.82
859.892	-20.48
860.066	-24.58
860.241	-30.72
860.415	30.72
860.589	-10.24
860.763	47.1
860.938	34.82
861.112	38.91
861.286	-63.49
861.46	36.86
861.634	-4.1
861.808	96.25
861.982	-71.68
862.157	-47.1
862.331	6.14
862.505	-2.05
862.679	-61.44
862.853	-10.24
863.027	-4.1
863.201	139.26
863.375	4.1
863.549	28.67
863.722	36.86
863.896	53.25
864.07	-32.77
864.244	-8.19
864.418	30.72
864.592	65.54
864.766	20.48
864.939	4.1
865.113	38.91
865.287	-4.1
865.461	51.2
865.634	30.72
865.808	-20.48
865.982	30.72
866.156	16.38
866.329	43.01
866.503	-20.48
866.676	16.38
866.85	6.14
867.024	55.3
867.197	53.25
867.371	30.72
867.544	-51.2
867.718	24.58
867.891	112.64
868.065	-51.2
868.238	6.14
868.412	77.82
868.585	12.29
868.759	2.05
868.932	4.1
869.105	-57.34
869.279	-69.63
869.452	73.73
869.625	-4.1
869.799	43.01
869.972	-24.58
870.145	-2.05
870.319	8.19
870.492	4.1
870.665	-16.38
870.838	8.19
871.011	-51.2
871.185	4.1
871.358	24.58
871.531	90.11
871.704	-2.05
871.877	6.14
872.05	45.06
872.223	-24.58
872.396	55.3
872.569	53.25
872.742	-18.43
872.915	10.24
873.088	-34.82
873.261	-26.62
873.434	-18.43
873.607	53.25
873.78	4.1
873.953	-53.25
874.126	47.1
874.299	79.87
874.471	45.06
874.644	-71.68
874.817	47.1
874.99	88.06
875.163	14.34
875.335	40.96
875.508	45.06
875.681	86.01
875.853	-32.77
876.026	2.05
876.199	0
876.371	2.05
876.544	30.72
876.717	61.44
876.889	45.06
877.062	47.1
877.234	-20.48
877.407	30.72
877.579	0
877.752	-2.05
877.924	30.72
878.097	32.77
878.269	53.25
878.442	53.25
878.614	-14.34
878.786	106.49
878.959	28.67
879.131	-16.38
879.303	-40.96
879.476	14.34
879.648	69.63
879.82	10.24
879.993	43.01
880.165	-30.72
880.337	-126.97
880.509	-26.62
880.681	-18.43
880.854	71.68
881.026	79.87
881.198	32.77
881.37	-34.82
881.542	22.53
881.714	12.29
881.886	-49.15
882.058	14.34
882.23	-2.05
882.402	36.86
882.574	43.01
882.746	75.77
882.918	-4.1
883.09	26.62
883.262	-36.86
883.434	30.72
883.606	-12.29
883.778	55.3
883.95	88.06
884.122	-32.77
884.293	20.48
884.465	-26.62
884.637	40.96
884.809	4.1
884.98	-8.19
885.152	30.72
885.324	45.06
885.496	-26.62
885.667	-81.92
885.839	22.53
886.011	4.1
886.182	-2.05
886.354	36.86
886.525	-10.24
886.697	20.48
886.869	4.1
887.04	-51.2
887.212	45.06
887.383	71.68
887.555	-43.01
887.726	-16.38
887.897	-57.34
888.069	12.29
888.24	12.29
888.412	24.58
888.583	20.48
888.754	14.34
888.926	14.34
889.097	14.34
889.268	-38.91
889.44	83.97
889.611	-16.38
889.782	34.82
889.953	-22.53
890.125	53.25
890.296	6.14
890.467	-16.38
890.638	-14.34
890.809	-10.24
890.98	-4.1
891.151	47.1
891.323	8.19
891.494	2.05
891.665	-36.86
891.836	122.88
892.007	-2.05
892.178	20.48
892.349	-45.06
892.52	-8.19
892.691	-38.91
892.862	-51.2
893.032	-71.68
893.203	24.58
893.374	-6.14
893.545	-20.48
893.716	59.39
893.887	30.72
894.057	28.67
894.228	47.1
894.399	2.05
894.57	92.16
894.74	-18.43
894.911	57.34
895.082	10.24
895.253	-83.97
895.423	28.67
895.594	92.16
895.764	-40.96
895.935	12.29
896.106	-36.86
896.276	-24.58
896.447	-65.53
896.617	-20.48
896.788	34.82
896.958	-40.96
897.129	-36.86
897.299	4.1
897.47	92.16
897.64	-38.91
897.81	-36.86
897.981	-51.2
898.151	14.34
898.322	4.1
898.492	6.14
898.662	-14.34
898.832	2.05
899.003	-14.34
899.173	20.48
899.343	-12.29
899.513	-45.06
