Data from USB4F104151__18__13-10-31-785.txt Node

Date: Fri Mar 14 13:10:31 EDT 2025
User: louis
Spectrometer: USB4F10415
Trigger mode: 4
Integration Time (sec): 2.000000E-2
Scans to average: 1
Electric dark correction enabled: true
Nonlinearity correction enabled: false
Boxcar width: 0
XAxis mode: Wavelengths
Number of Pixels in Spectrum: 3648
>>>>>Begin Spectral Data<<<<<
178.204	-124.58
178.424	-124.58
178.644	-124.58
178.864	-153.26
179.084	-120.49
179.304	16.73
179.524	-26.28
179.744	59.73
179.964	-16.04
180.184	41.3
180.404	-13.99
180.624	-16.04
180.844	18.77
181.064	-57
181.283	0.34
181.503	-46.76
181.723	39.25
181.943	-18.09
182.163	31.06
182.383	31.06
182.602	72.02
182.822	29.01
183.042	49.49
183.262	-24.23
183.482	2.39
183.701	59.73
183.921	22.87
184.141	-1.71
184.361	53.59
184.58	-3.75
184.8	-1.71
185.02	14.68
185.239	37.2
185.459	6.49
185.679	67.92
185.898	29.01
186.118	67.92
186.338	6.49
186.557	8.53
186.777	-32.43
186.997	20.82
187.216	94.55
187.436	18.77
187.655	10.58
187.875	31.06
188.095	22.87
188.314	59.73
188.534	26.96
188.753	88.4
188.973	33.11
189.192	117.08
189.412	6.49
189.631	39.25
189.851	10.58
190.07	39.25
190.29	35.16
190.509	2.39
190.729	4.44
190.948	37.2
191.168	119.12
191.387	67.92
191.607	41.3
191.826	84.31
192.045	-13.99
192.265	67.92
192.484	16.73
192.704	33.11
192.923	18.77
193.142	139.6
193.362	-22.19
193.581	51.54
193.8	-54.95
194.02	-1.71
194.239	63.83
194.458	39.25
194.678	49.49
194.897	35.16
195.116	-32.43
195.335	10.58
195.555	57.68
195.774	43.35
195.993	37.2
196.212	-26.28
196.432	12.63
196.651	33.11
196.87	96.6
197.089	86.36
197.308	33.11
197.528	59.73
197.747	33.11
197.966	47.44
198.185	24.92
198.404	-20.14
198.623	59.73
198.842	84.31
199.062	47.44
199.281	86.36
199.5	-63.15
199.719	-28.33
199.938	65.88
200.157	-20.14
200.376	102.74
200.595	37.2
200.814	31.06
201.033	-30.38
201.252	39.25
201.471	82.26
201.69	51.54
201.909	78.16
202.128	80.21
202.347	88.4
202.566	18.77
202.785	6.49
203.004	-13.99
203.223	104.79
203.442	76.12
203.661	69.97
203.879	22.87
204.098	31.06
204.317	31.06
204.536	76.12
204.755	69.97
204.974	51.54
205.193	-5.8
205.411	76.12
205.63	41.3
205.849	51.54
206.068	14.68
206.287	-32.43
206.505	72.02
206.724	16.73
206.943	12.63
207.162	2.39
207.381	-1.71
207.599	-16.04
207.818	33.11
208.037	14.68
208.255	16.73
208.474	2.39
208.693	-38.57
208.911	39.25
209.13	84.31
209.349	22.87
209.567	55.64
209.786	51.54
210.005	-28.33
210.223	29.01
210.442	-9.9
210.661	133.46
210.879	-32.43
211.098	80.21
211.316	37.2
211.535	-1.71
211.753	-22.19
211.972	-11.95
212.191	31.06
212.409	6.49
212.628	-46.76
212.846	-26.28
213.065	104.79
213.283	-28.33
213.502	33.11
213.72	31.06
213.938	24.92
214.157	59.73
214.375	88.4
214.594	2.39
214.812	31.06
215.031	14.68
215.249	0.34
215.467	-32.43
215.686	31.06
215.904	104.79
216.122	33.11
216.341	82.26
216.559	-32.43
216.778	20.82
216.996	61.78
217.214	-65.19
217.432	8.53
217.651	16.73
217.869	96.6
218.087	-5.8
218.306	-50.86
218.524	4.44
218.742	24.92
218.96	82.26
219.179	26.96
219.397	26.96
219.615	35.16
219.833	10.58
220.051	-22.19
220.27	55.64
220.488	-34.47
220.706	-26.28
220.924	24.92
221.142	22.87
221.36	72.02
221.578	41.3
221.796	55.64
222.015	8.53
222.233	16.73
222.451	82.26
222.669	-46.76
222.887	29.01
223.105	39.25
223.323	39.25
223.541	51.54
223.759	92.5
223.977	33.11
224.195	102.74
224.413	14.68
224.631	-9.9
224.849	-13.99
225.067	43.35
225.285	61.78
225.503	-34.47
225.721	-13.99
225.939	18.77
226.157	-16.04
226.375	102.74
226.592	35.16
226.81	20.82
227.028	51.54
227.246	92.5
227.464	59.73
227.682	-20.14
227.9	76.12
228.117	-7.85
228.335	22.87
228.553	-40.62
228.771	57.68
228.989	14.68
229.206	59.73
229.424	47.44
229.642	26.96
229.86	10.58
230.077	-3.75
230.295	-36.52
230.513	57.68
230.731	72.02
230.948	33.11
231.166	45.4
231.384	53.59
231.601	-26.28
231.819	72.02
232.037	-9.9
232.254	16.73
232.472	22.87
232.689	43.35
232.907	69.97
233.125	-22.19
233.342	4.44
233.56	-93.87
233.777	129.36
233.995	43.35
234.213	47.44
234.43	-75.43
234.648	-16.04
234.865	20.82
235.083	41.3
235.3	45.4
235.518	43.35
235.735	22.87
235.953	22.87
236.17	31.06
236.388	106.84
236.605	-5.8
236.822	-5.8
237.04	65.88
237.257	57.68
237.475	-9.9
237.692	6.49
237.909	18.77
238.127	43.35
238.344	51.54
238.562	-11.95
238.779	96.6
238.996	-32.43
239.214	-7.85
239.431	-57
239.648	45.4
239.865	-13.99
240.083	10.58
240.3	65.88
240.517	-20.14
240.735	72.02
240.952	98.64
241.169	-5.8
241.386	55.64
241.603	24.92
241.821	-5.8
242.038	33.11
242.255	18.77
242.472	45.4
242.689	80.21
242.907	82.26
243.124	24.92
243.341	-7.85
243.558	-9.9
243.775	6.49
243.992	37.2
244.209	-1.71
244.426	55.64
244.643	8.53
244.86	8.53
245.078	41.3
245.295	12.63
245.512	10.58
245.729	-71.34
245.946	-9.9
246.163	10.58
246.38	72.02
246.597	6.49
246.814	-7.85
247.031	53.59
247.248	24.92
247.464	-1.71
247.681	-13.99
247.898	35.16
248.115	61.78
248.332	22.87
248.549	41.3
248.766	39.25
248.983	92.5
249.2	6.49
249.417	22.87
249.633	37.2
249.85	76.12
250.067	-7.85
250.284	20.82
250.501	112.98
250.717	4.44
250.934	57.68
251.151	72.02
251.368	65.88
251.585	49.49
251.801	16.73
252.018	-7.85
252.235	14.68
252.451	26.96
252.668	-44.71
252.885	6.49
253.102	20.82
253.318	-40.62
253.535	22.87
253.752	-22.19
253.968	29.01
254.185	-71.34
254.401	88.4
254.618	47.44
254.835	-104.11
255.051	35.16
255.268	63.83
255.484	61.78
255.701	22.87
255.917	80.21
256.134	-18.09
256.351	31.06
256.567	14.68
256.784	39.25
257	26.96
257.217	74.07
257.433	41.3
257.65	29.01
257.866	65.88
258.082	-16.04
258.299	2.39
258.515	65.88
258.732	-20.14
258.948	22.87
259.165	74.07
259.381	14.68
259.597	-54.95
259.814	4.44
260.03	-3.75
260.246	96.6
260.463	72.02
260.679	108.88
260.895	45.4
261.112	0.34
261.328	4.44
261.544	8.53
261.761	63.83
261.977	49.49
262.193	-18.09
262.409	33.11
262.626	110.93
262.842	76.12
263.058	49.49
263.274	24.92
263.49	24.92
263.707	90.45
263.923	37.2
264.139	-67.24
264.355	80.21
264.571	-1.71
264.787	-22.19
265.004	45.4
265.22	-24.23
265.436	-9.9
265.652	-1.71
265.868	65.88
266.084	0.34
266.3	119.12
266.516	53.59
266.732	18.77
266.948	-1.71
267.164	67.92
267.38	31.06
267.596	-5.8
267.812	121.17
268.028	94.55
268.244	-11.95
268.46	72.02
268.676	26.96
268.892	35.16
269.108	137.56
269.324	55.64
269.54	-11.95
269.756	20.82
269.972	8.53
270.188	80.21
270.403	-26.28
270.619	35.16
270.835	41.3
271.051	63.83
271.267	37.2
271.483	-52.91
271.698	24.92
271.914	-40.62
272.13	47.44
272.346	-28.33
272.562	43.35
272.777	22.87
272.993	-36.52
273.209	-9.9
273.425	22.87
273.64	57.68
273.856	16.73
274.072	26.96
274.287	18.77
274.503	47.44
274.719	31.06
274.934	49.49
275.15	-59.05
275.366	41.3
275.581	-11.95
275.797	72.02
276.012	43.35
276.228	41.3
276.444	96.6
276.659	26.96
276.875	82.26
277.09	-3.75
277.306	33.11
277.521	47.44
277.737	2.39
277.952	31.06
278.168	22.87
278.383	29.01
278.599	-5.8
278.814	37.2
279.03	-48.81
279.245	29.01
279.461	51.54
279.676	76.12
279.892	41.3
280.107	-18.09
280.322	6.49
280.538	80.21
280.753	-7.85
280.969	-1.71
281.184	47.44
281.399	39.25
281.615	47.44
281.83	16.73
282.045	-22.19
282.26	14.68
282.476	45.4
282.691	39.25
282.906	-28.33
283.122	76.12
283.337	67.92
283.552	43.35
283.767	-38.57
283.983	43.35
284.198	-5.8
284.413	0.34
284.628	-34.47
284.843	-22.19
285.058	55.64
285.274	6.49
285.489	-7.85
285.704	-16.04
285.919	29.01
286.134	53.59
286.349	37.2
286.564	35.16
286.779	67.92
286.995	22.87
287.21	0.34
287.425	90.45
287.64	18.77
287.855	88.4
288.07	18.77
288.285	29.01
288.5	43.35
288.715	24.92
288.93	29.01
289.145	-16.04
289.36	119.12
289.575	0.34
289.79	102.74
290.004	35.16
290.219	63.83
290.434	-48.81
290.649	24.92
290.864	69.97
291.079	57.68
291.294	22.87
291.509	-22.19
291.724	41.3
291.938	-7.85
292.153	59.73
292.368	-1.71
292.583	29.01
292.798	29.01
293.012	112.98
293.227	16.73
293.442	72.02
293.657	8.53
293.871	145.75
294.086	-50.86
294.301	24.92
294.516	33.11
294.73	14.68
294.945	-42.67
295.16	57.68
295.374	37.2
295.589	26.96
295.804	65.88
296.018	31.06
296.233	-9.9
296.447	82.26
296.662	47.44
296.877	100.69
297.091	86.36
297.306	24.92
297.52	-11.95
297.735	96.6
297.949	84.31
298.164	-1.71
298.378	57.68
298.593	39.25
298.807	49.49
299.022	31.06
299.236	6.49
299.451	-9.9
299.665	43.35
299.88	14.68
300.094	-3.75
300.309	96.6
300.523	47.44
300.737	-24.23
300.952	51.54
301.166	72.02
301.381	90.45
301.595	47.44
301.809	10.58
302.024	90.45
302.238	16.73
302.452	-30.38
302.667	67.92
302.881	10.58
303.095	51.54
303.309	31.06
303.524	2.39
303.738	16.73
303.952	33.11
304.166	41.3
304.381	-54.95
304.595	18.77
304.809	80.21
305.023	20.82
305.237	24.92
305.452	-9.9
305.666	76.12
305.88	82.26
306.094	33.11
306.308	63.83
306.522	16.73
306.736	43.35
306.95	45.4
307.164	55.64
307.379	12.63
307.593	51.54
307.807	31.06
308.021	69.97
308.235	59.73
308.449	-40.62
308.663	47.44
308.877	47.44
309.091	37.2
309.305	127.32
309.519	24.92
309.733	112.98
309.947	-13.99
310.161	-1.71
310.374	-3.75
310.588	26.96
310.802	-24.23
311.016	-16.04
311.23	80.21
311.444	72.02
311.658	-42.67
311.872	20.82
312.085	84.31
312.299	14.68
312.513	55.64
312.727	53.59
312.941	14.68
313.154	63.83
313.368	47.44
313.582	86.36
313.796	26.96
314.009	39.25
314.223	90.45
314.437	88.4
314.651	63.83
314.864	-57
315.078	53.59
315.292	39.25
315.505	22.87
315.719	37.2
315.933	-22.19
316.146	-38.57
316.36	-9.9
316.573	72.02
316.787	65.88
317.001	51.54
317.214	-36.52
317.428	-9.9
317.641	53.59
317.855	31.06
318.068	55.64
318.282	12.63
318.495	49.49
318.709	0.34
318.922	18.77
319.136	72.02
319.349	55.64
319.563	31.06
319.776	57.68
319.99	-32.43
320.203	69.97
320.417	33.11
320.63	-7.85
320.843	90.45
321.057	-9.9
321.27	10.58
321.483	65.88
321.697	67.92
321.91	-11.95
322.124	-9.9
322.337	24.92
322.55	16.73
322.763	57.68
322.977	57.68
323.19	33.11
323.403	-16.04
323.617	8.53
323.83	69.97
324.043	76.12
324.256	35.16
324.469	29.01
324.683	65.88
324.896	29.01
325.109	63.83
325.322	-16.04
325.535	55.64
325.748	53.59
325.962	72.02
326.175	39.25
326.388	59.73
326.601	57.68
326.814	63.83
327.027	31.06
327.24	61.78
327.453	-54.95
327.666	86.36
327.879	110.93
328.092	72.02
328.305	16.73
328.518	-54.95
328.731	31.06
328.944	49.49
329.157	24.92
329.37	96.6
329.583	100.69
329.796	82.26
330.009	33.11
330.222	80.21
330.435	26.96
330.648	49.49
330.861	26.96
331.073	82.26
331.286	16.73
331.499	63.83
331.712	74.07
331.925	20.82
332.138	29.01
332.35	59.73
332.563	0.34
332.776	47.44
332.989	-24.23
333.202	12.63
333.414	41.3
333.627	6.49
333.84	-32.43
334.053	55.64
334.265	80.21
334.478	67.92
334.691	72.02
334.903	84.31
335.116	55.64
335.329	8.53
335.541	110.93
335.754	41.3
335.966	76.12
336.179	35.16
336.392	69.97
336.604	16.73
336.817	39.25
337.029	84.31
337.242	110.93
337.454	82.26
337.667	61.78
337.88	108.88
338.092	100.69
338.305	92.5
338.517	20.82
338.729	67.92
338.942	100.69
339.154	74.07
339.367	-1.71
339.579	63.83
339.792	16.73
340.004	31.06
340.217	-7.85
340.429	63.83
340.641	-40.62
340.854	45.4
341.066	-30.38
341.278	125.27
341.491	88.4
341.703	67.92
341.915	96.6
342.128	67.92
342.34	47.44
342.552	16.73
342.764	61.78
342.977	43.35
343.189	115.03
343.401	0.34
343.613	65.88
343.826	-11.95
344.038	55.64
344.25	10.58
344.462	-9.9
344.674	92.5
344.886	61.78
345.099	31.06
345.311	-50.86
345.523	69.97
345.735	-11.95
345.947	55.64
346.159	26.96
346.371	8.53
346.583	78.16
346.795	67.92
347.007	26.96
347.219	33.11
347.431	72.02
347.643	65.88
347.855	-18.09
348.067	31.06
348.279	39.25
348.491	43.35
348.703	151.89
348.915	26.96
349.127	69.97
349.339	12.63
349.551	47.44
349.763	100.69
349.975	49.49
350.187	80.21
350.399	74.07
350.61	63.83
350.822	0.34
351.034	0.34
351.246	2.39
351.458	55.64
351.669	-34.47
351.881	84.31
352.093	41.3
352.305	98.64
352.517	24.92
352.728	82.26
352.94	12.63
353.152	51.54
353.363	8.53
353.575	96.6
353.787	145.75
353.999	-34.47
354.21	72.02
354.422	-34.47
354.633	67.92
354.845	65.88
355.057	-7.85
355.268	104.79
355.48	16.73
355.692	29.01
355.903	69.97
356.115	72.02
356.326	-28.33
356.538	22.87
356.749	63.83
356.961	84.31
357.172	76.12
357.384	6.49
357.595	94.55
357.807	14.68
358.018	49.49
358.23	55.64
358.441	57.68
358.653	82.26
358.864	22.87
359.075	92.5
359.287	-5.8
359.498	129.36
359.709	72.02
359.921	6.49
360.132	31.06
360.344	45.4
360.555	-24.23
360.766	4.44
360.977	55.64
361.189	55.64
361.4	51.54
361.611	72.02
361.823	8.53
362.034	61.78
362.245	8.53
362.456	-24.23
362.667	80.21
362.879	22.87
363.09	18.77
363.301	88.4
363.512	61.78
363.723	24.92
363.935	80.21
364.146	69.97
364.357	16.73
364.568	31.06
364.779	90.45
364.99	35.16
365.201	22.87
365.412	37.2
365.623	-93.87
365.834	2.39
366.045	84.31
366.256	76.12
366.467	49.49
366.678	26.96
366.889	39.25
367.1	2.39
367.311	55.64
367.522	14.68
367.733	8.53
367.944	41.3
368.155	-18.09
368.366	41.3
368.577	65.88
368.788	92.5
368.999	31.06
369.209	18.77
369.42	96.6
369.631	80.21
369.842	59.73
370.053	29.01
370.264	47.44
370.474	-7.85
370.685	84.31
370.896	80.21
371.107	74.07
371.317	-5.8
371.528	49.49
371.739	63.83
371.95	-13.99
372.16	88.4
372.371	-42.67
372.582	72.02
372.792	67.92
373.003	24.92
373.214	35.16
373.424	78.16
373.635	-46.76
373.846	4.44
374.056	57.68
374.267	-50.86
374.477	-1.71
374.688	-3.75
374.898	53.59
375.109	4.44
375.319	72.02
375.53	88.4
375.74	57.68
375.951	49.49
376.161	96.6
376.372	-1.71
376.582	22.87
376.793	100.69
377.003	115.03
377.214	22.87
377.424	65.88
377.635	145.75
377.845	55.64
378.055	45.4
378.266	-1.71
378.476	59.73
378.686	6.49
378.897	69.97
379.107	135.51
379.317	72.02
379.528	14.68
379.738	47.44
379.948	45.4
380.158	31.06
380.369	94.55
380.579	24.92
380.789	65.88
380.999	31.06
381.21	26.96
381.42	96.6
381.63	43.35
381.84	55.64
382.05	72.02
382.261	49.49
382.471	14.68
382.681	51.54
382.891	18.77
383.101	14.68
383.311	61.78
383.521	59.73
383.731	61.78
383.941	76.12
384.151	53.59
384.361	53.59
384.571	80.21
384.781	41.3
384.991	39.25
385.201	123.22
385.411	84.31
385.621	8.53
385.831	94.55
386.041	74.07
386.251	-3.75
386.461	-11.95
386.671	84.31
386.881	47.44
387.091	80.21
387.301	16.73
387.511	149.84
387.72	37.2
387.93	39.25
388.14	53.59
388.35	139.6
388.56	14.68
388.769	139.6
388.979	63.83
389.189	65.88
389.399	55.64
389.609	-34.47
389.818	39.25
390.028	16.73
390.238	137.56
390.447	10.58
390.657	106.84
390.867	-9.9
391.076	80.21
391.286	69.97
391.496	12.63
391.705	51.54
391.915	102.74
392.125	43.35
392.334	26.96
392.544	55.64
392.753	22.87
392.963	78.16
393.172	14.68
393.382	100.69
393.591	104.79
393.801	14.68
394.01	86.36
394.22	74.07
394.429	65.88
394.639	80.21
394.848	29.01
395.058	65.88
395.267	143.7
395.477	94.55
395.686	45.4
395.895	55.64
396.105	80.21
396.314	41.3
396.524	88.4
396.733	74.07
396.942	108.88
397.152	129.36
397.361	84.31
397.57	88.4
397.78	166.23
397.989	80.21
398.198	115.03
398.407	67.92
398.617	72.02
398.826	147.8
399.035	115.03
399.244	67.92
399.453	63.83
399.663	110.93
399.872	125.27
400.081	98.64
400.29	162.13
400.499	86.36
400.708	155.99
400.917	117.08
401.127	117.08
401.336	137.56
401.545	67.92
401.754	153.94
401.963	115.03
402.172	39.25
402.381	90.45
402.59	78.16
402.799	164.18
403.008	145.75
403.217	108.88
403.426	133.46
403.635	78.16
403.844	115.03
404.053	131.41
404.262	98.64
404.471	153.94
404.68	137.56
404.888	164.18
405.097	57.68
405.306	158.03
405.515	147.8
405.724	143.7
405.933	168.27
406.142	76.12
406.35	104.79
406.559	100.69
406.768	98.64
406.977	192.85
407.185	217.43
407.394	174.42
407.603	162.13
407.812	174.42
408.02	121.17
408.229	223.57
408.438	166.23
408.646	213.33
408.855	227.67
409.064	233.81
409.272	215.38
409.481	221.52
409.69	203.09
409.898	287.06
410.107	268.63
410.315	334.16
410.524	317.78
410.733	242
410.941	239.95
411.15	313.68
411.358	336.21
411.567	334.16
411.775	334.16
411.984	350.54
412.192	397.65
412.401	444.75
412.609	362.83
412.818	346.45
413.026	457.04
413.234	409.94
413.443	475.47
413.651	426.32
413.86	457.04
414.068	409.94
414.276	551.24
414.485	487.76
414.693	571.72
414.901	674.12
415.11	508.24
415.318	567.63
415.526	661.84
415.734	627.02
415.943	655.69
416.151	713.03
416.359	645.45
416.567	770.38
416.776	696.65
416.984	852.3
417.192	801.1
417.4	780.62
417.608	819.53
417.817	852.3
418.025	893.26
418.233	1014.09
418.441	891.21
418.649	1040.71
418.857	1104.2
419.065	1098.05
419.273	1022.28
419.481	1106.24
419.689	1216.83
419.897	1212.74
420.105	1270.08
420.313	1286.47
420.521	1265.99
420.729	1472.83
420.937	1317.19
421.145	1435.97
421.353	1591.61
421.561	1671.48
421.769	1655.1
421.977	1640.76
422.185	1581.37
422.393	1863.99
422.601	1880.38
422.809	1909.05
423.017	1847.61
423.224	1943.86
423.432	2023.73
423.64	2163
423.848	2167.09
424.056	2214.2
424.263	2402.61
424.471	2300.21
424.679	2373.94
424.887	2474.29
425.094	2574.64
425.302	2677.04
425.51	2720.04
425.718	2720.04
425.925	2758.96
426.133	2922.79
426.341	3035.43
426.548	3203.36
426.756	3180.84
426.964	3283.24
427.171	3451.17
427.379	3627.29
427.586	3692.83
427.794	3758.36
428.001	3883.29
428.209	4223.25
428.417	4077.85
428.624	4235.54
428.832	4280.6
429.039	4290.84
429.247	4356.37
429.454	4616.46
429.662	4931.85
429.869	4657.42
430.076	5032.2
430.284	4839.69
430.491	5060.87
430.699	5376.26
430.906	5431.55
431.114	5449.99
431.321	5677.31
431.528	5765.37
431.736	6166.78
431.943	6299.89
432.15	6281.46
432.358	6144.25
432.565	6699.25
432.772	6695.15
432.979	6906.09
433.187	7069.93
433.394	7203.05
433.601	7575.78
433.808	7549.15
434.016	7401.7
434.223	7862.49
434.43	8192.22
434.637	8241.37
434.844	8804.56
435.052	8728.78
435.259	8614.1
435.466	8763.6
435.673	8683.73
435.88	9423.05
436.087	9785.54
436.294	9849.02
436.501	9806.02
436.708	9791.68
436.915	10324.15
437.122	10737.84
437.329	10614.96
437.537	10950.83
437.743	11061.42
437.95	11120.81
438.157	11647.14
438.364	12021.92
438.571	11925.66
438.778	12034.21
438.985	12900.5
439.192	12699.8
439.399	12912.78
439.606	12685.46
439.813	13557.89
440.02	14166.14
440.227	13867.14
440.433	13854.85
440.64	14424.19
440.847	14411.9
441.054	14696.57
441.261	15548.52
441.467	15464.55
441.674	15861.86
441.881	16277.6
442.088	16244.83
442.294	16089.18
442.501	16427.1
442.708	16736.34
442.914	17451.08
443.121	18331.71
443.328	17883.2
443.534	19122.23
443.741	18333.76
443.948	18321.47
444.154	19564.59
444.361	19531.82
444.568	19791.91
444.774	19585.07
444.981	19736.62
445.187	20504.6
445.394	21403.66
445.6	20914.2
445.807	23390.19
446.013	22433.79
446.22	22558.72
446.426	23252.98
446.633	23893.99
446.839	24696.8
447.046	23427.06
447.252	24844.25
447.459	24811.48
447.665	24803.29
447.871	26087.37
448.078	27072.44
448.284	25843.66
448.491	26165.19
448.697	27459.51
448.903	28086.18
449.11	27799.47
449.316	27801.52
449.522	28045.23
449.728	28770.21
449.935	29321.11
450.141	29151.13
450.347	29831.05
450.553	28899.23
450.76	29360.02
450.966	30404.49
451.172	29718.42
451.378	30936.96
451.584	30074.76
451.791	30984.06
451.997	30769.02
452.203	31315.83
452.409	31475.57
452.615	31422.33
452.821	30111.63
453.027	29624.21
453.233	31287.16
453.44	30439.3
453.646	30580.61
453.852	30650.24
454.058	31254.39
454.264	30134.15
454.47	31197.05
454.676	30304.13
454.882	31039.36
455.088	28200.87
455.294	28850.08
455.5	29560.72
455.705	29345.69
455.911	28845.98
456.117	27869.1
456.323	27699.12
456.529	26189.77
456.735	27602.86
456.941	26595.26
457.147	26263.49
457.352	25642.96
457.558	25300.95
457.764	25364.43
457.97	24752.09
458.176	24340.45
458.381	24373.22
458.587	22941.69
458.793	22851.58
458.999	21661.71
459.204	23617.52
459.41	23136.24
459.616	21542.92
459.821	21272.59
460.027	21116.95
460.233	20752.41
460.438	19961.89
460.644	19886.12
460.85	19212.34
461.055	18501.69
461.261	18812.98
461.466	17121.36
461.672	16838.74
461.878	18157.63
462.083	16889.94
462.289	16664.66
462.494	16224.35
462.7	15751.27
462.905	15245.42
463.111	15767.65
463.316	15865.96
463.522	15392.87
463.727	15439.98
463.932	15243.37
464.138	15384.68
464.343	15319.15
464.549	14710.9
464.754	15296.62
464.959	15134.83
465.165	15116.4
465.37	14678.13
465.575	14129.28
465.781	14620.79
465.986	14579.83
466.191	14231.68
466.397	13967.49
466.602	13131.92
466.807	13936.77
467.012	13637.77
467.218	13645.96
467.423	13717.64
467.628	13568.13
467.833	14143.61
468.038	13797.51
468.244	13240.46
468.449	13957.25
468.654	13160.59
468.859	13324.43
469.064	13256.84
469.269	12646.55
469.474	12851.35
469.679	12978.32
469.885	12830.87
470.09	13078.67
470.295	12828.82
470.5	12558.49
470.705	12662.93
470.91	12236.95
471.115	12218.52
471.32	12558.49
471.525	12239
471.73	12011.68
471.935	11624.61
472.139	11729.06
472.344	11860.13
472.549	11503.78
472.754	11550.89
472.959	11200.68
473.164	11040.94
473.369	10899.63
473.574	11317.42
473.778	11151.53
473.983	10979.5
474.188	11116.72
474.393	10557.62
474.598	10574
474.802	10584.24
475.007	10350.78
475.212	10487.99
475.417	9924.8
475.621	10033.34
475.826	10037.44
476.031	9937.09
476.235	9576.64
476.44	9799.87
476.645	9808.06
476.849	9611.46
477.054	9629.89
477.259	9443.53
477.463	9443.53
477.668	9261.26
477.872	9330.89
478.077	9087.18
478.282	8935.63
478.486	8798.42
478.691	8845.52
478.895	8683.73
479.1	8743.12
479.304	8640.72
479.509	8417.49
479.713	8542.42
479.918	8515.8
480.122	8214.74
480.326	8390.87
480.531	8487.12
480.735	8317.14
480.94	8141.02
481.144	8591.57
481.348	8134.87
481.553	8425.68
481.757	8163.54
481.961	8304.85
482.166	8247.51
482.37	8235.22
482.574	7905.5
482.778	8108.25
482.983	8083.67
483.187	8136.92
483.391	7944.41
483.595	8069.34
483.8	7938.27
484.004	7917.79
484.208	8116.44
484.412	7995.61
484.616	8206.55
484.821	8020.19
485.025	7850.21
485.229	8136.92
485.433	7985.37
485.637	7971.04
485.841	7725.28
486.045	8108.25
486.249	8059.1
486.453	7977.18
486.657	7962.84
486.861	8263.9
487.065	7829.73
487.269	8026.33
487.473	7758.05
487.677	7907.55
487.881	8259.8
488.085	8095.96
488.289	8061.15
488.493	7868.64
488.697	8110.3
488.901	8081.63
489.105	8120.54
489.309	8241.37
489.512	8128.73
489.716	8265.94
489.92	8181.98
490.124	8370.39
490.328	8300.76
490.531	8257.75
490.735	8124.63
490.939	8263.9
491.143	8057.05
491.346	8349.91
491.55	8444.12
491.754	8409.3
491.958	8540.37
492.161	8542.42
492.365	8448.21
492.569	8380.63
492.772	8458.45
492.976	8546.51
493.18	8556.75
493.383	8712.4
493.587	8644.82
493.79	8642.77
493.994	8814.8
494.197	8845.52
494.401	8730.83
494.605	8755.41
494.808	9064.65
495.012	8947.92
495.215	9050.32
495.419	9148.62
495.622	9144.52
495.825	9347.27
496.029	9468.1
496.232	9492.68
496.436	9377.99
496.639	9605.31
496.843	9593.03
497.046	9781.44
497.249	9754.82
497.453	9953.47
497.656	10082.49
497.859	10266.81
498.063	10131.64
498.266	10373.3
498.469	10395.83
498.673	10408.12
498.876	10662.07
499.079	10700.98
499.282	10881.2
499.485	11059.37
499.689	11327.66
499.892	11131.05
500.095	11120.81
500.298	11411.62
500.501	11471.01
500.705	11618.47
500.908	11896.99
501.111	11880.61
501.314	12105.88
501.517	12318.87
501.72	12218.52
501.923	12296.35
502.126	12525.72
502.329	12968.08
502.532	12923.02
502.735	12681.36
502.938	13136.01
503.141	13328.52
503.344	13463.69
503.547	13564.04
503.75	13742.21
503.953	13777.03
504.156	13990.02
504.359	14098.56
504.562	14057.6
504.765	14604.41
504.968	14489.72
505.17	14762.1
505.373	14622.84
505.576	14876.79
505.779	14942.32
505.982	15298.67
506.185	15421.55
506.387	15446.12
506.59	15753.32
506.793	15917.15
506.996	15990.88
507.198	16584.79
507.401	16435.29
507.604	16214.11
507.807	16957.52
508.009	16871.51
508.212	16779.35
508.415	17211.47
508.617	17315.92
508.82	17584.2
509.022	17383.5
509.225	17977.41
509.428	18237.5
509.63	18348.09
509.833	18403.39
510.035	18802.74
510.238	18737.21
510.44	18718.78
510.643	19099.7
510.845	19116.08
511.048	19259.44
511.25	19578.92
511.453	19597.35
511.655	20412.45
511.858	20099.11
512.06	20269.09
512.262	20398.11
512.465	20506.65
512.667	21039.12
512.87	21088.28
513.072	21096.47
513.274	21637.13
513.477	21710.86
513.679	21798.92
513.881	21940.23
514.084	22441.98
514.286	22302.72
514.488	22575.1
514.69	23107.57
514.893	23203.83
515.095	22964.21
515.297	23410.67
515.499	23982.06
515.701	23898.09
515.904	24127.46
516.106	24000.49
516.308	24709.08
516.51	24825.82
516.712	24764.38
516.914	25003.99
517.116	25137.11
517.318	25331.67
517.52	25321.43
517.722	25964.49
517.925	26019.78
518.127	26550.21
518.329	26521.54
518.531	26423.23
518.733	27017.15
518.935	27193.27
519.136	27330.48
519.338	27842.48
519.54	27862.96
519.742	28186.54
519.944	28235.69
520.146	28741.53
520.348	28522.4
520.55	28854.17
520.752	29134.74
520.954	29521.81
521.155	29175.7
521.357	29654.93
521.559	30037.9
521.761	30467.97
521.963	30302.09
522.164	30517.12
522.366	30779.26
522.568	30582.66
522.77	31051.64
522.971	31512.44
523.173	31422.33
523.375	31555.44
523.576	31879.02
523.778	31975.28
523.98	32585.57
524.181	32012.14
524.383	32618.34
524.584	32747.36
524.786	32839.52
524.988	32591.72
525.189	33052.51
525.391	33460.05
525.592	33496.92
525.794	33640.28
525.995	33709.91
526.197	33787.73
526.398	33922.9
526.6	34246.47
526.801	33933.14
527.003	34316.11
527.204	34371.4
527.406	34451.27
527.607	34455.37
527.808	34981.7
528.01	34121.55
528.211	34944.83
528.412	35460.92
528.614	35401.53
528.815	35202.88
529.016	35733.3
529.218	35082.05
529.419	35733.3
529.62	35520.31
529.822	35551.03
530.023	35637.05
530.224	36097.84
530.425	35950.38
530.626	35385.15
530.828	35573.56
531.029	36331.31
531.23	35772.21
531.431	36128.56
531.632	36198.19
531.833	35981.1
532.035	35979.06
532.236	36292.4
532.437	36226.86
532.638	36304.68
532.839	36482.86
533.04	36556.58
533.241	36060.98
533.442	36960.03
533.643	36493.1
533.844	36343.59
534.045	36480.81
534.246	36228.91
534.447	36642.6
534.648	36544.3
534.849	36677.41
535.05	36198.19
535.251	36263.72
535.451	36644.65
535.652	36742.95
535.853	36460.33
536.054	36599.59
536.255	36671.27
536.456	36443.95
536.657	37072.67
536.857	36814.63
537.058	36343.59
537.259	36593.45
537.46	36808.48
537.66	36489
537.861	36691.75
538.062	36505.38
538.263	36931.36
538.463	36532.01
538.664	36644.65
538.865	36722.47
539.065	36808.48
539.266	36523.82
539.466	36687.65
539.667	36564.78
539.868	37203.74
540.068	36443.95
540.269	36675.37
540.469	36734.76
540.67	36351.79
540.87	36687.65
541.071	36669.22
541.271	36857.63
541.472	36835.11
541.672	36439.85
541.873	36376.36
542.073	36493.1
542.274	36677.41
542.474	36990.75
542.675	36431.66
542.875	36509.48
543.075	36470.57
543.276	36073.26
543.476	36665.13
543.676	36331.31
543.877	36304.68
544.077	36372.27
544.277	36228.91
544.478	36527.91
544.678	36499.24
544.878	36503.34
545.078	36224.81
545.279	36218.67
545.479	36056.88
545.679	36257.58
545.879	36515.62
546.079	36523.82
546.28	36323.12
546.48	36515.62
546.68	36374.31
546.88	36724.52
547.08	36120.37
547.28	36081.45
547.48	35921.71
547.68	36538.15
547.88	36089.65
548.081	36402.99
548.281	36196.14
548.481	36400.94
548.681	36431.66
548.881	35835.7
549.081	36108.08
549.28	35671.86
549.48	36386.6
549.68	36194.09
549.88	36554.54
550.08	36075.31
550.28	36054.83
550.48	36034.35
550.68	36591.4
550.88	36011.82
551.08	36413.23
551.279	36226.86
551.479	36108.08
551.679	35987.25
551.879	36056.88
552.079	36020.02
552.278	35721.01
552.478	35764.02
552.678	35827.51
552.878	35829.55
553.077	35766.07
553.277	35643.19
553.477	36558.63
553.676	35737.4
553.876	35989.3
554.076	36001.58
554.275	35880.75
554.475	35661.62
554.674	35641.14
554.874	35614.52
555.074	35546.93
555.273	36196.14
555.473	35753.78
555.672	35718.96
555.872	35694.39
556.071	35706.68
556.271	35997.49
556.47	35604.28
556.67	35227.45
556.869	35608.37
557.068	35952.43
557.268	35204.92
557.467	35350.33
557.667	35295.03
557.866	35080
558.065	35407.67
558.265	34973.5
558.464	34989.89
558.663	35202.88
558.863	34635.59
559.062	35067.71
559.261	34760.51
559.461	35092.29
559.66	34924.35
559.859	34965.31
560.058	34707.27
560.258	34924.35
560.457	34473.8
560.656	34686.79
560.855	34895.68
561.054	35032.89
561.253	34502.47
561.453	34627.4
561.652	34555.72
561.851	34451.27
562.05	34502.47
562.249	34293.58
562.448	34479.94
562.647	34279.24
562.846	34103.12
563.045	34197.32
563.244	33840.98
563.443	34176.84
563.642	33828.69
563.841	33611.6
564.04	33980.24
564.239	34082.64
564.438	33611.6
564.637	33797.97
564.836	33625.94
565.035	33539.93
565.234	33433.43
565.432	33412.95
565.631	33281.88
565.83	33761.11
566.029	33359.7
566.228	33343.32
566.427	32950.11
566.625	32827.23
566.824	32685.92
567.023	33171.29
567.222	32403.3
567.42	32708.45
567.619	32708.45
567.818	32610.15
568.016	32649.06
568.215	32663.39
568.414	32382.82
568.612	32708.45
568.811	32261.99
569.01	32149.35
569.208	31893.36
569.407	32190.31
569.605	31682.42
569.804	32348.01
570.002	31690.61
570.201	31543.16
570.4	31313.78
570.598	31418.23
570.797	31477.62
570.995	31899.5
571.193	31264.63
571.392	31618.93
571.59	31313.78
571.789	31373.17
571.987	31436.66
572.186	31524.72
572.384	30609.28
572.582	31047.55
572.781	31229.82
572.979	30691.2
573.177	30734.21
573.376	31272.82
573.574	30619.52
573.772	31053.69
573.971	30406.53
574.169	30457.73
574.367	30005.13
574.565	30693.25
574.763	30271.37
574.962	30175.11
575.16	30304.13
575.358	30144.39
575.556	29810.57
575.754	30293.9
575.952	29820.81
576.151	29996.94
576.349	29409.17
576.547	29716.37
576.745	29464.47
576.943	29517.71
577.141	29306.77
577.339	29314.97
577.537	29728.66
577.735	29323.16
577.933	28917.66
578.131	29368.21
578.329	29024.15
578.527	28907.42
578.725	28829.6
578.923	29171.61
579.121	28862.36
579.319	28880.8
579.516	28841.89
579.714	28686.24
579.912	28712.86
580.11	28180.39
580.308	28360.61
580.506	28145.58
580.704	28084.14
580.901	28221.35
581.099	27920.3
581.297	27822
581.495	27977.64
581.692	28131.24
581.89	27994.03
582.088	28082.09
582.285	27502.51
582.483	27865
582.681	27586.48
582.878	27459.51
583.076	27211.7
583.274	27213.75
583.471	27326.39
583.669	27174.84
583.866	27150.26
584.064	27549.62
584.262	26589.12
584.459	27006.91
584.657	26902.46
584.854	27023.29
585.052	26480.58
585.249	26902.46
585.447	26845.12
585.644	26615.74
585.841	26556.35
586.039	26681.28
586.236	26466.24
586.434	26654.65
586.631	26009.54
586.828	26214.34
587.026	26030.02
587.223	26101.7
587.42	26036.17
587.618	25970.63
587.815	25667.53
588.012	25952.2
588.21	25724.88
588.407	25941.96
588.604	25483.22
588.801	25079.77
588.999	25475.02
589.196	25372.63
589.393	25382.87
589.59	25200.6
589.787	25149.4
589.984	25047
590.182	24606.69
590.379	25036.76
590.576	24772.57
590.773	24870.87
590.97	25096.15
591.167	24897.5
591.364	24729.56
591.561	24578.01
591.758	24111.08
591.955	24160.23
592.152	24451.04
592.349	24287.2
592.546	24385.51
592.743	24254.44
592.94	23889.9
593.137	24201.19
593.334	23943.14
593.531	24035.3
593.727	24012.77
593.924	23711.72
594.121	23511.02
594.318	23648.24
594.515	23179.25
594.712	23631.85
594.908	23257.07
595.105	23529.45
595.302	23017.46
595.499	23177.2
595.696	23324.66
595.892	22933.5
596.089	22937.59
596.286	23085.05
596.482	22929.4
596.679	22769.66
596.876	22863.86
597.072	22599.68
597.269	22691.84
597.466	22425.6
597.662	22683.64
597.859	22472.7
598.055	22253.57
598.252	22183.94
598.448	22398.98
598.645	22409.22
598.841	21837.83
599.038	21932.04
599.234	22200.32
599.431	22034.44
599.627	21673.99
599.824	21991.43
600.02	21645.32
600.217	21653.51
600.413	21688.33
600.609	21383.18
600.806	21485.58
601.002	21366.8
601.198	21024.79
601.395	21387.28
601.591	21151.76
601.787	21428.24
601.984	21368.85
602.18	21186.58
602.376	21041.17
602.572	20736.02
602.769	20801.56
602.965	20723.74
603.161	21047.32
603.357	20742.17
603.553	20819.99
603.75	20576.28
603.946	20631.58
604.142	20551.71
604.338	20389.92
604.534	20477.98
604.73	20256.8
604.926	20043.81
605.122	20328.48
605.318	20041.76
605.514	20031.52
605.71	20043.81
605.906	20052
606.102	20052
606.298	19822.63
606.494	19849.25
606.69	19863.59
606.886	19683.37
607.082	19677.23
607.278	19689.51
607.474	19361.84
607.67	19646.51
607.866	19038.26
608.062	19281.97
608.257	19398.7
608.453	19544.11
608.649	19324.97
608.845	19132.47
609.041	19365.93
609.236	19118.13
609.432	19071.03
609.628	19097.65
609.824	19019.83
610.019	18913.33
610.215	18929.72
610.411	19206.19
610.606	19161.14
610.802	18985.01
610.998	19028.02
611.193	18782.26
611.389	18778.17
611.584	18647.1
611.78	18579.51
611.976	18626.62
612.171	18663.48
612.367	18729.02
612.562	18534.46
612.758	18151.49
612.953	18053.19
613.149	18475.07
613.344	18202.69
613.539	18298.94
613.735	18632.76
613.93	18118.72
614.126	18202.69
614.321	18327.61
614.517	18243.65
614.712	18188.35
614.907	17690.7
615.103	18020.42
615.298	18128.96
615.493	18249.79
615.688	17813.57
615.884	18057.28
616.079	17752.13
616.274	18038.85
616.47	17647.69
616.665	17846.34
616.86	17598.54
617.055	17557.58
617.25	17668.17
617.445	17752.13
617.641	17234
617.836	17756.23
618.031	17119.31
618.226	17586.25
618.421	17455.18
618.616	17500.23
618.811	17166.42
619.006	17365.07
619.201	16697.43
619.396	17193.04
619.591	16842.84
619.786	17260.62
619.981	16687.19
620.176	16785.49
620.371	17027.15
620.566	16785.49
620.761	16762.97
620.956	16820.31
621.151	16179.29
621.346	16488.54
621.541	16033.89
621.735	16545.88
621.93	16029.79
622.125	16146.53
622.32	15812.71
622.515	16091.23
622.709	15788.13
622.904	15741.03
623.099	15681.64
623.294	15724.65
623.488	15726.69
623.683	15376.49
623.878	15243.37
624.072	15417.45
624.267	15405.16
624.462	15028.34
624.656	15069.3
624.851	14942.32
625.046	14948.47
625.24	14983.28
625.435	14839.92
625.629	14856.31
625.824	14841.97
626.018	14729.33
626.213	14432.38
626.407	14461.05
626.602	14293.12
626.796	14250.11
626.991	14219.39
627.185	14166.14
627.38	13973.63
627.574	13957.25
627.768	13850.75
627.963	13834.37
628.157	13607.05
628.352	14182.52
628.546	13363.34
628.74	13623.43
628.935	13432.97
629.129	13514.89
629.323	13295.75
629.517	13305.99
629.712	13074.57
629.906	13158.54
630.1	12937.36
630.294	12875.92
630.489	12953.74
630.683	13060.24
630.877	12736.66
631.071	12560.53
631.265	12912.78
631.459	12609.68
631.653	12624.02
631.848	12742.8
632.042	12417.18
632.236	12597.4
632.43	12132.51
632.624	12179.61
632.818	12138.65
633.012	11956.38
633.206	12140.7
633.4	12251.29
633.594	11847.84
633.788	11896.99
633.982	11702.43
634.176	11798.69
634.369	11653.28
634.563	11638.95
634.757	11675.81
634.951	11571.36
635.145	11516.07
635.339	11417.77
635.533	11493.54
635.726	11131.05
635.92	10989.74
636.114	11174.06
636.308	11163.82
636.501	11022.51
636.695	11124.91
636.889	10866.86
637.083	10864.82
637.276	10918.06
637.47	10641.59
637.664	10772.66
637.857	10862.77
638.051	10578.1
638.244	10432.69
638.438	10543.28
638.632	10475.7
638.825	10481.85
639.019	10506.42
639.212	10287.29
639.406	10404.02
639.599	10258.62
639.793	10076.35
639.986	10070.2
640.18	10066.11
640.373	9963.71
640.567	9773.25
640.76	9885.89
640.954	9705.67
641.147	9590.98
641.34	9513.16
641.534	9593.03
641.727	9640.13
641.92	9550.02
642.114	9707.71
642.307	9494.72
642.5	9429.19
642.694	9203.91
642.887	9244.87
643.08	9277.64
643.273	9314.5
643.467	9263.3
643.66	9048.27
643.853	9167.05
644.046	8845.52
644.239	9193.67
644.432	8802.51
644.626	8919.25
644.819	8888.53
645.012	8900.81
645.205	8909.01
645.398	8755.41
645.591	8599.76
645.784	8642.77
645.977	8456.4
646.17	8493.27
646.363	8413.4
646.556	8431.83
646.749	8362.2
646.942	8425.68
647.135	8323.29
647.328	8354.01
647.521	8306.9
647.714	8081.63
647.907	8073.43
648.099	8134.87
648.292	8132.83
648.485	8055
648.678	7782.62
648.871	7756
649.064	7794.91
649.256	7794.91
649.449	7690.46
649.642	7645.41
649.835	7770.33
650.027	7768.29
650.22	7596.26
650.413	7932.12
650.605	7616.74
650.798	7409.89
650.991	7405.8
651.183	7500
651.376	7387.36
651.568	7264.49
651.761	7282.92
651.954	7244.01
652.146	7239.91
652.339	7225.58
652.531	7133.42
652.724	6994.15
652.916	7010.54
653.109	7065.83
653.301	6928.62
653.494	7028.97
653.686	6992.11
653.879	7022.83
654.071	6891.76
654.263	6824.17
654.456	6955.24
654.648	6793.45
654.84	6713.58
655.033	6627.57
655.225	6650.1
655.417	6578.42
655.61	6723.82
655.802	6574.32
655.994	6605.04
656.186	6680.82
656.379	6459.63
656.571	6572.27
656.763	6490.35
656.955	6320.37
657.148	6484.21
657.34	6240.5
657.532	6295.8
657.724	6347
657.916	6267.13
658.108	6314.23
658.3	6152.44
658.492	6052.09
658.684	6263.03
658.876	6086.9
659.068	6037.75
659.26	6013.18
659.452	6058.23
659.644	5923.07
659.836	5896.44
660.028	6084.86
660.22	5830.91
660.412	5867.77
660.604	5771.52
660.796	5736.7
660.988	5650.69
661.18	5748.99
661.372	5675.26
661.563	5669.12
661.755	5560.58
661.947	5460.23
662.139	5570.82
662.331	5462.27
662.522	5619.97
662.714	5464.32
662.906	5439.75
663.097	5515.52
663.289	5341.44
663.481	5431.55
663.673	5355.78
663.864	5222.66
664.056	5372.16
664.247	5148.93
664.439	5204.23
664.631	5189.89
664.822	5120.26
665.014	5187.85
665.205	4903.18
665.397	5157.13
665.588	5015.82
665.78	4972.81
665.971	4833.55
666.163	5173.51
666.354	5013.77
666.546	4970.76
666.737	4899.08
666.929	4981
667.12	4888.84
667.311	4704.53
667.503	4616.46
667.694	4657.42
667.885	4741.39
668.077	4733.2
668.268	4542.74
668.459	4735.25
668.651	4548.88
668.842	4538.64
669.033	4636.94
669.224	4548.88
669.416	4643.09
669.607	4589.84
669.798	4512.02
669.989	4426
670.18	4682
670.371	4530.45
670.563	4321.56
670.754	4491.54
670.945	4366.61
671.136	4446.48
671.327	4368.66
671.518	4245.78
671.709	4493.58
671.9	4382.99
672.091	4268.31
672.282	4176.15
672.473	4247.83
672.664	4151.57
672.855	4155.67
673.046	4182.29
673.237	4118.81
673.428	4098.33
673.619	4118.81
673.809	4088.09
674	3961.11
674.191	3959.06
674.382	4014.36
674.573	3938.59
674.764	3916.06
674.954	3967.26
675.145	3940.63
675.336	3987.74
675.527	3791.13
675.717	3965.21
675.908	3807.52
676.099	3889.43
676.289	3842.33
676.48	3875.1
676.671	3744.03
676.861	3797.28
677.052	3731.74
677.243	3905.82
677.433	3727.64
677.624	3774.75
677.814	3666.21
678.005	3670.3
678.195	3658.01
678.386	3692.83
678.576	3682.59
678.767	3666.21
678.957	3703.07
679.148	3619.1
679.338	3701.02
679.529	3678.49
679.719	3533.09
679.909	3686.69
680.1	3572
680.29	3498.27
680.481	3397.92
680.671	3477.79
680.861	3445.02
681.052	3471.65
681.242	3287.33
681.432	3430.69
681.622	3342.63
681.813	3436.83
682.003	3379.49
682.193	3320.1
682.383	3344.67
682.573	3256.61
682.764	3408.16
682.954	3320.1
683.144	3301.67
683.334	3131.69
683.524	3240.23
683.714	3340.58
683.904	3143.97
684.094	3348.77
684.284	3223.84
684.474	3277.09
684.664	3256.61
684.854	3186.98
685.044	3223.84
685.234	3129.64
685.424	3086.63
685.614	3143.97
685.804	3209.51
685.994	3139.88
686.184	3131.69
686.374	3100.97
686.564	3092.77
686.753	3029.29
686.943	2851.11
687.133	3074.34
687.323	3064.1
687.513	2984.23
687.702	3072.29
687.892	2869.55
688.082	2969.9
688.272	2978.09
688.461	2902.31
688.651	3039.53
688.841	2890.03
689.03	2914.6
689.22	2998.57
689.41	2855.21
689.599	2881.83
689.789	2978.09
689.979	2840.87
690.168	2791.72
690.358	2904.36
690.547	2734.38
690.737	2832.68
690.926	2781.48
691.116	2703.66
691.305	2855.21
691.495	2650.41
691.684	2677.04
691.874	2818.35
692.063	2660.65
692.252	2556.21
692.442	2728.24
692.631	2578.73
692.82	2724.14
693.01	2695.47
693.199	2580.78
693.388	2644.27
693.578	2646.32
693.767	2636.08
693.956	2490.67
694.146	2779.43
694.335	2599.21
694.524	2476.34
694.713	2627.89
694.902	2505.01
695.092	2548.01
695.281	2591.02
695.47	2603.31
695.659	2513.2
695.848	2529.58
696.037	2599.21
696.226	2509.1
696.415	2572.59
696.604	2490.67
696.793	2464.05
696.982	2365.75
697.171	2562.35
697.36	2418.99
697.549	2494.77
697.738	2482.48
697.927	2500.91
698.116	2416.94
698.305	2453.81
698.494	2453.81
698.683	2492.72
698.872	2511.15
699.061	2302.26
699.25	2435.38
699.438	2402.61
699.627	2363.7
699.816	2400.56
700.005	2320.69
700.193	2363.7
700.382	2398.51
700.571	2255.15
700.76	2423.09
700.948	2318.64
701.137	2386.22
701.326	2400.56
701.514	2406.7
701.703	2384.18
701.892	2343.22
702.08	2384.18
702.269	2439.47
702.457	2230.58
702.646	2314.55
702.834	2265.39
703.023	2365.75
703.212	2306.35
703.4	2285.87
703.589	2378.03
703.777	2316.59
703.965	2203.96
704.154	2271.54
704.342	2378.03
704.531	2353.46
704.719	2132.28
704.907	2330.93
705.096	2165.04
705.284	2195.76
705.472	2382.13
705.661	2382.13
705.849	2101.56
706.037	2234.68
706.226	2339.12
706.414	2283.83
706.602	2271.54
706.79	2294.07
706.979	2275.63
707.167	2218.29
707.355	2269.49
707.543	2201.91
707.731	2347.31
707.919	2308.4
708.107	2222.39
708.296	2328.88
708.484	2177.33
708.672	2246.96
708.86	2279.73
709.048	2275.63
709.236	2314.55
709.424	2263.35
709.612	2251.06
709.8	2222.39
709.988	2226.48
710.176	2222.39
710.364	2187.57
710.551	2287.92
710.739	2271.54
710.927	2169.14
711.115	2144.56
711.303	2177.33
711.491	2292.02
711.679	2126.13
711.866	2218.29
712.054	2109.75
712.242	2173.24
712.43	2279.73
712.617	2160.95
712.805	2177.33
712.993	2230.58
713.181	2105.65
713.368	2132.28
713.556	2257.2
713.744	2224.44
713.931	2226.48
714.119	2105.65
714.306	2142.52
714.494	2062.65
714.682	2070.84
714.869	2136.37
715.057	2062.65
715.244	2076.98
715.432	2320.69
715.619	2152.76
715.807	2064.69
715.994	2142.52
716.182	2201.91
716.369	2275.63
716.556	2234.68
716.744	2218.29
716.931	2177.33
717.119	2152.76
717.306	2140.47
717.493	2193.72
717.681	2083.13
717.868	2232.63
718.055	2060.6
718.242	2056.5
718.43	2165.04
718.617	2136.37
718.804	2175.28
718.991	2177.33
719.179	2171.19
719.366	2113.85
719.553	2122.04
719.74	2013.49
719.927	2177.33
720.114	2091.32
720.301	2152.76
720.488	2099.51
720.676	2060.6
720.863	2029.88
721.05	2128.18
721.237	2193.72
721.424	2259.25
721.611	2150.71
721.798	1997.11
721.985	2158.9
722.172	2119.99
722.358	2220.34
722.545	2146.61
722.732	2076.98
722.919	2117.94
723.106	2115.89
723.293	2124.08
723.48	2089.27
723.667	2052.41
723.853	2029.88
724.04	2181.43
724.227	2115.89
724.414	2027.83
724.6	2029.88
724.787	2177.33
724.974	2214.2
725.161	2119.99
725.347	2136.37
725.534	2146.61
725.72	2087.22
725.907	2179.38
726.094	2005.3
726.28	2175.28
726.467	2031.93
726.653	2023.73
726.84	2033.97
727.027	2154.8
727.213	1941.82
727.4	2103.61
727.586	2119.99
727.773	2021.69
727.959	2107.7
728.145	2156.85
728.332	2005.3
728.518	2005.3
728.705	2064.69
728.891	2033.97
729.077	1956.15
729.264	2044.21
729.45	2062.65
729.636	2165.04
729.823	2003.25
730.009	2070.84
730.195	2021.69
730.382	2066.74
730.568	2013.49
730.754	2005.3
730.94	2040.12
731.126	2144.56
731.313	2130.23
731.499	2068.79
731.685	2136.37
731.871	2097.46
732.057	1968.44
732.243	2132.28
732.429	2074.93
732.615	2171.19
732.801	1970.49
732.987	1997.11
733.173	1925.43
733.359	2021.69
733.545	2048.31
733.731	1896.76
733.917	2085.17
734.103	2009.4
734.289	2050.36
734.475	1978.68
734.661	2117.94
734.847	2033.97
735.033	1997.11
735.219	1976.63
735.404	1927.48
735.59	1925.43
735.776	1907
735.962	1941.82
736.148	2031.93
736.333	1970.49
736.519	2058.55
736.705	1939.77
736.89	1990.97
737.076	1982.78
737.262	2048.31
737.447	1999.16
737.633	2042.17
737.819	1825.08
738.004	2048.31
738.19	1859.9
738.375	1931.58
738.561	1974.58
738.747	1966.39
738.932	1915.19
739.118	1980.73
739.303	1890.62
739.489	1929.53
739.674	1956.15
739.859	1890.62
740.045	2019.64
740.23	1876.28
740.416	1800.51
740.601	2031.93
740.786	1849.66
740.972	1831.23
741.157	1773.88
741.342	1874.23
741.528	1857.85
741.713	1857.85
741.898	1890.62
742.084	1792.31
742.269	1900.86
742.454	1851.71
742.639	1866.04
742.824	1878.33
743.01	1792.31
743.195	1808.7
743.38	1909.05
743.565	1851.71
743.75	1802.55
743.935	1759.55
744.12	1798.46
744.305	1665.34
744.49	1812.79
744.675	1745.21
744.86	1755.45
745.045	1741.11
745.23	1798.46
745.415	1720.64
745.6	1657.15
745.785	1663.29
745.97	1775.93
746.155	1792.31
746.34	1663.29
746.525	1683.77
746.71	1655.1
746.895	1687.87
747.079	1700.16
747.264	1718.59
747.449	1696.06
747.634	1620.28
747.819	1659.2
748.003	1646.91
748.188	1454.4
748.373	1687.87
748.557	1644.86
748.742	1644.86
748.927	1587.52
749.111	1474.88
749.296	1548.61
749.481	1505.6
749.665	1562.94
749.85	1493.31
750.034	1550.65
750.219	1493.31
750.404	1481.02
750.588	1448.26
750.773	1386.82
750.957	1384.77
751.141	1489.21
751.326	1448.26
751.51	1460.54
751.695	1388.86
751.879	1331.52
752.064	1419.58
752.248	1444.16
752.432	1452.35
752.617	1341.76
752.801	1360.19
752.985	1378.62
753.17	1308.99
753.354	1345.86
753.538	1366.34
753.722	1300.8
753.907	1335.62
754.091	1214.79
754.275	1395.01
754.459	1268.03
754.643	1292.61
754.828	1284.42
755.012	1208.64
755.196	1194.31
755.38	1206.59
755.564	1206.59
755.748	1274.18
755.932	1253.7
756.116	1182.02
756.3	1161.54
756.484	1245.51
756.668	1241.41
756.852	1147.2
757.036	1177.92
757.22	1210.69
757.404	1136.96
757.588	1167.68
757.772	1061.19
757.956	1079.62
758.14	1126.72
758.323	1151.3
758.507	1130.82
758.691	1055.05
758.875	1141.06
759.059	1149.25
759.242	1079.62
759.426	1028.42
759.61	1100.1
759.794	999.75
759.977	1040.71
760.161	1081.67
760.345	1130.82
760.528	1028.42
760.712	917.83
760.895	1114.44
761.079	1022.28
761.263	1098.05
761.446	983.37
761.63	983.37
761.813	1069.38
761.997	1059.14
762.18	938.31
762.364	991.56
762.547	1022.28
762.731	948.55
762.914	942.41
763.098	1020.23
763.281	905.54
763.464	1003.85
763.648	960.84
763.831	891.21
764.015	964.93
764.198	1034.57
764.381	1038.66
764.564	919.88
764.748	942.41
764.931	1030.47
765.114	788.81
765.297	958.79
765.481	909.64
765.664	936.26
765.847	858.44
766.03	907.59
766.213	858.44
766.397	813.38
766.58	938.31
766.763	868.68
766.946	837.96
767.129	889.16
767.312	893.26
767.495	889.16
767.678	887.11
767.861	852.3
768.044	768.33
768.227	874.82
768.41	928.07
768.593	899.4
768.776	934.22
768.959	745.8
769.142	897.35
769.324	792.91
769.507	911.69
769.69	852.3
769.873	764.23
770.056	907.59
770.239	854.34
770.421	899.4
770.604	778.57
770.787	837.96
770.97	784.71
771.152	792.91
771.335	846.15
771.518	778.57
771.7	774.47
771.883	751.95
772.066	704.84
772.248	817.48
772.431	792.91
772.613	778.57
772.796	835.91
772.978	741.71
773.161	821.58
773.343	762.19
773.526	823.62
773.708	760.14
773.891	747.85
774.073	702.79
774.256	776.52
774.438	784.71
774.621	786.76
774.803	811.34
774.985	747.85
775.168	778.57
775.35	667.98
775.532	710.99
775.715	665.93
775.897	674.12
776.079	741.71
776.261	729.42
776.444	663.88
776.626	776.52
776.808	651.6
776.99	651.6
777.173	602.44
777.355	596.3
777.537	688.46
777.719	629.07
777.901	612.68
778.083	622.92
778.265	641.36
778.447	678.22
778.629	577.87
778.811	573.77
778.993	551.24
779.175	538.96
779.357	686.41
779.539	600.4
779.721	584.01
779.903	631.12
780.085	530.77
780.267	516.43
780.449	530.77
780.631	624.97
780.812	569.68
780.994	573.77
781.176	616.78
781.358	575.82
781.54	584.01
781.721	530.77
781.903	616.78
782.085	608.59
782.267	573.77
782.448	579.92
782.63	541.01
782.812	502.09
782.993	547.15
783.175	446.8
783.357	512.33
783.538	477.52
783.72	461.13
783.901	432.46
784.083	414.03
784.264	461.13
784.446	483.66
784.627	411.98
784.809	473.42
784.99	516.43
785.172	444.75
785.353	508.24
785.535	465.23
785.716	385.36
785.897	430.41
786.079	459.09
786.26	405.84
786.441	485.71
786.623	491.85
786.804	371.02
786.985	401.74
787.167	436.56
787.348	397.65
787.529	418.13
787.71	395.6
787.891	409.94
788.073	323.92
788.254	375.12
788.435	368.98
788.616	428.37
788.797	424.27
788.978	356.69
789.159	342.35
789.34	418.13
789.522	360.78
789.703	362.83
789.884	334.16
790.065	346.45
790.246	377.17
790.427	344.4
790.607	416.08
790.788	344.4
790.969	309.58
791.15	303.44
791.331	270.67
791.512	442.7
791.693	405.84
791.874	309.58
792.054	325.97
792.235	407.89
792.416	299.34
792.597	336.21
792.778	311.63
792.958	360.78
793.139	272.72
793.32	354.64
793.5	334.16
793.681	350.54
793.862	379.22
794.042	407.89
794.223	319.82
794.404	262.48
794.584	252.24
794.765	280.91
794.945	368.98
795.126	303.44
795.306	305.49
795.487	334.16
795.667	219.47
795.848	354.64
796.028	246.1
796.209	297.3
796.389	313.68
796.57	295.25
796.75	248.15
796.93	258.39
797.111	268.63
797.291	201.04
797.471	268.63
797.652	293.2
797.832	196.95
798.012	229.71
798.192	315.73
798.373	348.5
798.553	248.15
798.733	325.97
798.913	172.37
799.093	366.93
799.274	260.43
799.454	291.15
799.634	180.56
799.814	289.1
799.994	178.51
800.174	289.1
800.354	217.43
800.534	246.1
800.714	285.01
800.894	227.67
801.074	162.13
801.254	260.43
801.434	246.1
801.614	194.9
801.794	213.33
801.974	680.27
802.154	170.32
802.334	219.47
802.514	225.62
802.693	248.15
802.873	248.15
803.053	168.27
803.233	190.8
803.413	186.71
803.592	225.62
803.772	217.43
803.952	155.99
804.131	174.42
804.311	180.56
804.491	235.86
804.67	110.93
804.85	184.66
805.03	239.95
805.209	207.19
805.389	172.37
805.568	285.01
805.748	188.75
805.928	127.32
806.107	213.33
806.287	229.71
806.466	147.8
806.646	149.84
806.825	141.65
807.004	174.42
807.184	213.33
807.363	237.91
807.543	211.28
807.722	162.13
807.901	186.71
808.081	174.42
808.26	174.42
808.439	182.61
808.619	178.51
808.798	158.03
808.977	278.87
809.156	170.32
809.336	201.04
809.515	162.13
809.694	162.13
809.873	160.08
810.052	145.75
810.231	201.04
810.411	203.09
810.59	172.37
810.769	184.66
810.948	217.43
811.127	51.54
811.306	129.36
811.485	176.47
811.664	166.23
811.843	182.61
812.022	194.9
812.201	139.6
812.38	141.65
812.559	112.98
812.737	223.57
812.916	104.79
813.095	104.79
813.274	190.8
813.453	155.99
813.632	162.13
813.811	170.32
813.989	121.17
814.168	69.97
814.347	155.99
814.526	137.56
814.704	92.5
814.883	96.6
815.062	153.94
815.24	198.99
815.419	112.98
815.598	182.61
815.776	119.12
815.955	172.37
816.133	90.45
816.312	149.84
816.49	115.03
816.669	59.73
816.847	76.12
817.026	84.31
817.204	139.6
817.383	123.22
817.561	112.98
817.74	96.6
817.918	96.6
818.097	84.31
818.275	90.45
818.453	51.54
818.632	162.13
818.81	149.84
818.988	104.79
819.167	184.66
819.345	123.22
819.523	102.74
819.701	182.61
819.879	100.69
820.058	88.4
820.236	88.4
820.414	92.5
820.592	139.6
820.77	135.51
820.948	16.73
821.127	155.99
821.305	121.17
821.483	133.46
821.661	170.32
821.839	133.46
822.017	98.64
822.195	65.88
822.373	112.98
822.551	155.99
822.729	178.51
822.907	110.93
823.085	110.93
823.262	76.12
823.44	78.16
823.618	166.23
823.796	123.22
823.974	57.68
824.152	121.17
824.329	115.03
824.507	90.45
824.685	82.26
824.863	6.49
825.04	133.46
825.218	100.69
825.396	129.36
825.574	135.51
825.751	80.21
825.929	129.36
826.107	96.6
826.284	63.83
826.462	78.16
826.639	139.6
826.817	65.88
826.994	147.8
827.172	18.77
827.349	59.73
827.527	139.6
827.704	88.4
827.882	65.88
828.059	39.25
828.237	69.97
828.414	82.26
828.591	63.83
828.769	123.22
828.946	86.36
829.124	127.32
829.301	121.17
829.478	155.99
829.655	84.31
829.833	65.88
830.01	47.44
830.187	94.55
830.364	35.16
830.542	129.36
830.719	63.83
830.896	61.78
831.073	14.68
831.25	45.4
831.427	69.97
831.604	80.21
831.782	-7.85
831.959	31.06
832.136	108.88
832.313	162.13
832.49	67.92
832.667	45.4
832.844	22.87
833.021	172.37
833.198	84.31
833.374	96.6
833.551	123.22
833.728	41.3
833.905	123.22
834.082	31.06
834.259	110.93
834.436	115.03
834.612	82.26
834.789	127.32
834.966	8.53
835.143	80.21
835.319	67.92
835.496	92.5
835.673	102.74
835.85	98.64
836.026	37.2
836.203	117.08
836.38	82.26
836.556	2.39
836.733	22.87
836.909	57.68
837.086	-5.8
837.262	43.35
837.439	55.64
837.616	24.92
837.792	26.96
837.968	16.73
838.145	86.36
838.321	47.44
838.498	22.87
838.674	78.16
838.851	119.12
839.027	125.27
839.203	90.45
839.38	102.74
839.556	63.83
839.732	65.88
839.909	37.2
840.085	141.65
840.261	43.35
840.437	63.83
840.614	74.07
840.79	37.2
840.966	-9.9
841.142	96.6
841.318	92.5
841.494	115.03
841.671	43.35
841.847	10.58
842.023	78.16
842.199	-1.71
842.375	55.64
842.551	45.4
842.727	-1.71
842.903	102.74
843.079	72.02
843.255	115.03
843.431	20.82
843.607	8.53
843.783	-11.95
843.959	112.98
844.134	39.25
844.31	121.17
844.486	6.49
844.662	31.06
844.838	-38.57
845.013	69.97
845.189	123.22
845.365	94.55
845.541	49.49
845.716	20.82
845.892	51.54
846.068	31.06
846.244	96.6
846.419	49.49
846.595	-30.38
846.77	12.63
846.946	14.68
847.122	51.54
847.297	0.34
847.473	119.12
847.648	-13.99
847.824	47.44
847.999	18.77
848.175	61.78
848.35	55.64
848.526	-1.71
848.701	47.44
848.876	26.96
849.052	-9.9
849.227	51.54
849.403	26.96
849.578	10.58
849.753	76.12
849.929	49.49
850.104	133.46
850.279	-81.58
850.454	33.11
850.63	43.35
850.805	61.78
850.98	69.97
851.155	-1.71
851.33	74.07
851.505	8.53
851.681	24.92
851.856	-26.28
852.031	45.4
852.206	94.55
852.381	16.73
852.556	88.4
852.731	33.11
852.906	41.3
853.081	57.68
853.256	115.03
853.431	-1.71
853.606	18.77
853.781	53.59
853.956	-38.57
854.131	16.73
854.305	-7.85
854.48	18.77
854.655	6.49
854.83	16.73
855.005	22.87
855.18	61.78
855.354	67.92
855.529	18.77
855.704	39.25
855.879	112.98
856.053	39.25
856.228	20.82
856.403	35.16
856.577	6.49
856.752	33.11
856.926	129.36
857.101	41.3
857.276	2.39
857.45	-50.86
857.625	-26.28
857.799	51.54
857.974	129.36
858.148	-28.33
858.323	31.06
858.497	4.44
858.672	94.55
858.846	74.07
859.02	-30.38
859.195	-13.99
859.369	22.87
859.543	6.49
859.718	-48.81
859.892	-3.75
860.066	86.36
860.241	39.25
860.415	-9.9
860.589	108.88
860.763	20.82
860.938	-1.71
861.112	-9.9
861.286	-30.38
861.46	14.68
861.634	37.2
861.808	-1.71
861.982	31.06
862.157	51.54
862.331	55.64
862.505	41.3
862.679	-46.76
862.853	47.44
863.027	-50.86
863.201	14.68
863.375	39.25
863.549	-9.9
863.722	-22.19
863.896	6.49
864.07	-32.43
864.244	-63.15
864.418	63.83
864.592	61.78
864.766	6.49
864.939	104.79
865.113	-28.33
865.287	12.63
865.461	22.87
865.634	37.2
865.808	35.16
865.982	14.68
866.156	10.58
866.329	-28.33
866.503	39.25
866.676	-40.62
866.85	98.64
867.024	45.4
867.197	-16.04
867.371	0.34
867.544	76.12
867.718	55.64
867.891	35.16
868.065	16.73
868.238	-18.09
868.412	35.16
868.585	153.94
868.759	-3.75
868.932	12.63
869.105	12.63
869.279	4.44
869.452	22.87
869.625	2.39
869.799	-71.34
869.972	-77.48
870.145	12.63
870.319	-132.78
870.492	-24.23
870.665	-1.71
870.838	12.63
871.011	6.49
871.185	20.82
871.358	37.2
871.531	41.3
871.704	47.44
871.877	49.49
872.05	-7.85
872.223	6.49
872.396	-65.19
872.569	67.92
872.742	0.34
872.915	98.64
873.088	-32.43
873.261	12.63
873.434	-3.75
873.607	-28.33
873.78	65.88
873.953	-28.33
874.126	10.58
874.299	31.06
874.471	-44.71
874.644	16.73
874.817	-7.85
874.99	63.83
875.163	57.68
875.335	33.11
875.508	-26.28
875.681	53.59
875.853	-13.99
876.026	57.68
876.199	31.06
876.371	16.73
876.544	8.53
876.717	41.3
876.889	-54.95
877.062	65.88
877.234	-52.91
877.407	-34.47
877.579	31.06
877.752	-9.9
877.924	10.58
878.097	55.64
878.269	16.73
878.442	26.96
878.614	-50.86
878.786	-16.04
878.959	10.58
879.131	22.87
879.303	-71.34
879.476	-7.85
879.648	82.26
879.82	57.68
879.993	18.77
880.165	6.49
880.337	-71.34
880.509	49.49
880.681	2.39
880.854	-3.75
881.026	-69.29
881.198	96.6
881.37	39.25
881.542	-9.9
881.714	22.87
881.886	20.82
882.058	-13.99
882.23	43.35
882.402	-5.8
882.574	59.73
882.746	31.06
882.918	-7.85
883.09	117.08
883.262	14.68
883.434	6.49
883.606	-61.1
883.778	22.87
883.95	-24.23
884.122	35.16
884.293	-32.43
884.465	94.55
884.637	35.16
884.809	-36.52
884.98	74.07
885.152	-30.38
885.324	0.34
885.496	39.25
885.667	-1.71
885.839	-28.33
886.011	37.2
886.182	94.55
886.354	80.21
886.525	-73.39
886.697	-20.14
886.869	39.25
887.04	39.25
887.212	84.31
887.383	6.49
887.555	-54.95
887.726	-13.99
887.897	49.49
888.069	-46.76
888.24	55.64
888.412	-18.09
888.583	6.49
888.754	33.11
888.926	-42.67
889.097	-3.75
889.268	-18.09
889.44	57.68
889.611	-46.76
889.782	65.88
889.953	-28.33
890.125	33.11
890.296	-32.43
890.467	18.77
890.638	-54.95
890.809	-26.28
890.98	-24.23
891.151	-1.71
891.323	-16.04
891.494	74.07
891.665	-16.04
891.836	22.87
892.007	-9.9
892.178	39.25
892.349	-24.23
892.52	-11.95
892.691	84.31
892.862	-91.82
893.032	18.77
893.203	6.49
893.374	-28.33
893.545	14.68
893.716	-65.19
893.887	-22.19
894.057	-7.85
894.228	14.68
894.399	2.39
894.57	2.39
894.74	-48.81
894.911	74.07
895.082	29.01
895.253	-11.95
895.423	16.73
895.594	31.06
895.764	-40.62
895.935	31.06
896.106	88.4
896.276	-1.71
896.447	41.3
896.617	6.49
896.788	-67.24
896.958	-9.9
897.129	4.44
897.299	20.82
897.47	22.87
897.64	26.96
897.81	-50.86
897.981	-7.85
898.151	-9.9
898.322	-13.99
898.492	20.82
898.662	-22.19
898.832	-34.47
899.003	-26.28
899.173	63.83
899.343	0.34
899.513	-46.76
