Data from USB4F104151__72__13-12-13-974.txt Node

Date: Fri Mar 14 13:12:13 EDT 2025
User: louis
Spectrometer: USB4F10415
Trigger mode: 4
Integration Time (sec): 2.000000E-2
Scans to average: 1
Electric dark correction enabled: true
Nonlinearity correction enabled: false
Boxcar width: 0
XAxis mode: Wavelengths
Number of Pixels in Spectrum: 3648
>>>>>Begin Spectral Data<<<<<
178.204	-134.65
178.424	-134.65
178.644	-134.65
178.864	-136.7
179.084	-48.64
179.304	59.9
179.524	-19.97
179.744	76.29
179.964	6.66
180.184	-34.3
180.404	12.8
180.624	-58.88
180.844	-24.06
181.064	0.51
181.283	-28.16
181.503	6.66
181.723	2.56
181.943	4.61
182.163	-46.59
182.383	-34.3
182.602	41.47
182.822	-9.73
183.042	41.47
183.262	35.33
183.482	-22.02
183.701	-26.11
183.921	16.9
184.141	2.56
184.361	92.67
184.58	76.29
184.8	16.9
185.02	-46.59
185.239	37.38
185.459	-65.02
185.679	-44.54
185.898	-30.21
186.118	-17.92
186.338	-24.06
186.557	25.09
186.777	-42.5
186.997	-1.54
187.216	25.09
187.436	39.42
187.655	-5.63
187.875	-7.68
188.095	8.7
188.314	-5.63
188.534	66.05
188.753	18.94
188.973	39.42
189.192	16.9
189.412	-13.82
189.631	84.48
189.851	33.28
190.07	68.09
190.29	-32.26
190.509	-13.82
190.729	8.7
190.948	49.66
191.168	98.81
191.387	16.9
191.607	68.09
191.826	-24.06
192.045	31.23
192.265	-1.54
192.484	16.9
192.704	4.61
192.923	4.61
193.142	0.51
193.362	8.7
193.581	18.94
193.8	-15.87
194.02	66.05
194.239	-42.5
194.458	-7.68
194.678	16.9
194.897	-50.69
195.116	27.14
195.335	-5.63
195.555	-1.54
195.774	-32.26
195.993	27.14
196.212	10.75
196.432	-71.17
196.651	-34.3
196.87	-9.73
197.089	59.9
197.308	-13.82
197.528	82.43
197.747	29.18
197.966	109.05
198.185	-1.54
198.404	-5.63
198.623	-54.78
198.842	61.95
199.062	29.18
199.281	14.85
199.5	27.14
199.719	47.62
199.938	-15.87
200.157	-1.54
200.376	-7.68
200.595	39.42
200.814	37.38
201.033	25.09
201.252	88.57
201.471	-9.73
201.69	-24.06
201.909	45.57
202.128	12.8
202.347	86.53
202.566	-1.54
202.785	-17.92
203.004	14.85
203.223	102.91
203.442	-26.11
203.661	6.66
203.879	-24.06
204.098	31.23
204.317	6.66
204.536	14.85
204.755	8.7
204.974	-5.63
205.193	31.23
205.411	55.81
205.63	25.09
205.849	-22.02
206.068	-42.5
206.287	-1.54
206.505	90.62
206.724	0.51
206.943	-34.3
207.162	47.62
207.381	10.75
207.599	-67.07
207.818	25.09
208.037	-15.87
208.255	-11.78
208.474	-40.45
208.693	96.77
208.911	23.04
209.13	35.33
209.349	8.7
209.567	-42.5
209.786	-1.54
210.005	-7.68
210.223	10.75
210.442	-44.54
210.661	-7.68
210.879	-19.97
211.098	-1.54
211.316	10.75
211.535	31.23
211.753	66.05
211.972	55.81
212.191	-1.54
212.409	-13.82
212.628	27.14
212.846	14.85
213.065	51.71
213.283	119.29
213.502	6.66
213.72	25.09
213.938	0.51
214.157	41.47
214.375	6.66
214.594	20.99
214.812	55.81
215.031	41.47
215.249	72.19
215.467	-42.5
215.686	23.04
215.904	-15.87
216.122	-17.92
216.341	55.81
216.559	6.66
216.778	115.2
216.996	-13.82
217.214	-26.11
217.432	18.94
217.651	-26.11
217.869	-9.73
218.087	14.85
218.306	55.81
218.524	104.96
218.742	-56.83
218.96	51.71
219.179	-24.06
219.397	31.23
219.615	72.19
219.833	82.43
220.051	6.66
220.27	66.05
220.488	41.47
220.706	57.86
220.924	45.57
221.142	-5.63
221.36	-54.78
221.578	57.86
221.796	-15.87
222.015	41.47
222.233	39.42
222.451	51.71
222.669	-32.26
222.887	-5.63
223.105	39.42
223.323	47.62
223.541	39.42
223.759	35.33
223.977	-36.35
224.195	61.95
224.413	-44.54
224.631	66.05
224.849	-11.78
225.067	41.47
225.285	-13.82
225.503	35.33
225.721	-17.92
225.939	-1.54
226.157	10.75
226.375	133.63
226.592	31.23
226.81	53.76
227.028	4.61
227.246	82.43
227.464	18.94
227.682	-13.82
227.9	41.47
228.117	27.14
228.335	-1.54
228.553	10.75
228.771	-9.73
228.989	14.85
229.206	31.23
229.424	0.51
229.642	-28.16
229.86	-1.54
230.077	25.09
230.295	76.29
230.513	-24.06
230.731	-22.02
230.948	35.33
231.166	-30.21
231.384	2.56
231.601	96.77
231.819	90.62
232.037	-50.69
232.254	-7.68
232.472	10.75
232.689	-3.58
232.907	64
233.125	72.19
233.342	47.62
233.56	6.66
233.777	16.9
233.995	-50.69
234.213	10.75
234.43	80.38
234.648	8.7
234.865	41.47
235.083	18.94
235.3	20.99
235.518	-48.64
235.735	82.43
235.953	51.71
236.17	14.85
236.388	2.56
236.605	8.7
236.822	76.29
237.04	96.77
237.257	31.23
237.475	-44.54
237.692	8.7
237.909	25.09
238.127	66.05
238.344	18.94
238.562	20.99
238.779	55.81
238.996	76.29
239.214	-36.35
239.431	41.47
239.648	-40.45
239.865	51.71
240.083	78.33
240.3	16.9
240.517	-36.35
240.735	49.66
240.952	57.86
241.169	61.95
241.386	-28.16
241.603	82.43
241.821	10.75
242.038	33.28
242.255	33.28
242.472	68.09
242.689	82.43
242.907	84.48
243.124	-9.73
243.341	35.33
243.558	27.14
243.775	43.52
243.992	-22.02
244.209	31.23
244.426	53.76
244.643	64
244.86	8.7
245.078	25.09
245.295	-13.82
245.512	-9.73
245.729	49.66
245.946	47.62
246.163	18.94
246.38	90.62
246.597	25.09
246.814	33.28
247.031	-28.16
247.248	51.71
247.464	-17.92
247.681	33.28
247.898	12.8
248.115	80.38
248.332	8.7
248.549	-46.59
248.766	68.09
248.983	-11.78
249.2	64
249.417	51.71
249.633	23.04
249.85	-26.11
250.067	-13.82
250.284	14.85
250.501	61.95
250.717	57.86
250.934	-34.3
251.151	31.23
251.368	49.66
251.585	23.04
251.801	64
252.018	-13.82
252.235	-9.73
252.451	-26.11
252.668	10.75
252.885	-15.87
253.102	35.33
253.318	-13.82
253.535	0.51
253.752	-30.21
253.968	-7.68
254.185	57.86
254.401	55.81
254.618	8.7
254.835	88.57
255.051	94.72
255.268	-83.45
255.484	49.66
255.701	-3.58
255.917	16.9
256.134	16.9
256.351	18.94
256.567	-11.78
256.784	8.7
257	-93.69
257.217	8.7
257.433	-28.16
257.65	-56.83
257.866	6.66
258.082	16.9
258.299	-44.54
258.515	6.66
258.732	31.23
258.948	27.14
259.165	-13.82
259.381	-44.54
259.597	29.18
259.814	86.53
260.03	-95.74
260.246	-19.97
260.463	45.57
260.679	80.38
260.895	14.85
261.112	-19.97
261.328	-26.11
261.544	12.8
261.761	84.48
261.977	-19.97
262.193	43.52
262.409	18.94
262.626	33.28
262.842	92.67
263.058	-1.54
263.274	39.42
263.49	-26.11
263.707	-42.5
263.923	43.52
264.139	6.66
264.355	80.38
264.571	84.48
264.787	-17.92
265.004	90.62
265.22	-11.78
265.436	-42.5
265.652	-62.98
265.868	86.53
266.084	-40.45
266.3	23.04
266.516	59.9
266.732	53.76
266.948	66.05
267.164	18.94
267.38	14.85
267.596	39.42
267.812	90.62
268.028	25.09
268.244	-9.73
268.46	16.9
268.676	41.47
268.892	43.52
269.108	-19.97
269.324	-34.3
269.54	8.7
269.756	10.75
269.972	-5.63
270.188	-24.06
270.403	-58.88
270.619	25.09
270.835	-28.16
271.051	18.94
271.267	-36.35
271.483	45.57
271.698	-30.21
271.914	-7.68
272.13	-56.83
272.346	-11.78
272.562	-7.68
272.777	70.14
272.993	6.66
273.209	55.81
273.425	6.66
273.64	-38.4
273.856	35.33
274.072	4.61
274.287	27.14
274.503	45.57
274.719	53.76
274.934	-15.87
275.15	-40.45
275.366	-24.06
275.581	-38.4
275.797	-9.73
276.012	43.52
276.228	23.04
276.444	2.56
276.659	98.81
276.875	-9.73
277.09	10.75
277.306	90.62
277.521	18.94
277.737	47.62
277.952	74.24
278.168	80.38
278.383	31.23
278.599	-5.63
278.814	-7.68
279.03	57.86
279.245	-15.87
279.461	-42.5
279.676	41.47
279.892	-24.06
280.107	47.62
280.322	20.99
280.538	76.29
280.753	37.38
280.969	31.23
281.184	51.71
281.399	119.29
281.615	-13.82
281.83	10.75
282.045	-44.54
282.26	16.9
282.476	55.81
282.691	10.75
282.906	18.94
283.122	27.14
283.337	-1.54
283.552	33.28
283.767	0.51
283.983	8.7
284.198	55.81
284.413	74.24
284.628	-7.68
284.843	16.9
285.058	88.57
285.274	55.81
285.489	-24.06
285.704	66.05
285.919	12.8
286.134	6.66
286.349	0.51
286.564	-1.54
286.779	96.77
286.995	70.14
287.21	-13.82
287.425	23.04
287.64	6.66
287.855	41.47
288.07	-15.87
288.285	-1.54
288.5	29.18
288.715	-3.58
288.93	20.99
289.145	33.28
289.36	51.71
289.575	72.19
289.79	12.8
290.004	-26.11
290.219	31.23
290.434	23.04
290.649	20.99
290.864	82.43
291.079	96.77
291.294	2.56
291.509	-38.4
291.724	-42.5
291.938	43.52
292.153	39.42
292.368	-9.73
292.583	96.77
292.798	-34.3
293.012	72.19
293.227	51.71
293.442	2.56
293.657	8.7
293.871	18.94
294.086	57.86
294.301	111.1
294.516	-36.35
294.73	-50.69
294.945	8.7
295.16	55.81
295.374	68.09
295.589	18.94
295.804	23.04
296.018	-22.02
296.233	0.51
296.447	33.28
296.662	-28.16
296.877	72.19
297.091	2.56
297.306	39.42
297.52	47.62
297.735	-7.68
297.949	8.7
298.164	39.42
298.378	29.18
298.593	-17.92
298.807	2.56
299.022	-11.78
299.236	47.62
299.451	-7.68
299.665	37.38
299.88	27.14
300.094	-11.78
300.309	100.86
300.523	88.57
300.737	39.42
300.952	2.56
301.166	2.56
301.381	10.75
301.595	51.71
301.809	-30.21
302.024	27.14
302.238	-26.11
302.452	127.49
302.667	-26.11
302.881	33.28
303.095	35.33
303.309	90.62
303.524	20.99
303.738	53.76
303.952	57.86
304.166	18.94
304.381	-89.6
304.595	-22.02
304.809	39.42
305.023	27.14
305.237	-22.02
305.452	-13.82
305.666	14.85
305.88	27.14
306.094	82.43
306.308	18.94
306.522	-9.73
306.736	100.86
306.95	18.94
307.164	47.62
307.379	-11.78
307.593	104.96
307.807	49.66
308.021	25.09
308.235	27.14
308.449	-13.82
308.663	25.09
308.877	55.81
309.091	18.94
309.305	-9.73
309.519	2.56
309.733	41.47
309.947	14.85
310.161	27.14
310.374	-7.68
310.588	45.57
310.802	-17.92
311.016	29.18
311.23	10.75
311.444	-83.45
311.658	-9.73
311.872	20.99
312.085	-13.82
312.299	20.99
312.513	39.42
312.727	23.04
312.941	-7.68
313.154	-50.69
313.368	-3.58
313.582	41.47
313.796	6.66
314.009	18.94
314.223	23.04
314.437	47.62
314.651	2.56
314.864	4.61
315.078	45.57
315.292	-7.68
315.505	18.94
315.719	33.28
315.933	43.52
316.146	-9.73
316.36	-32.26
316.573	12.8
316.787	59.9
317.001	-3.58
317.214	-32.26
317.428	6.66
317.641	2.56
317.855	51.71
318.068	-3.58
318.282	64
318.495	18.94
318.709	8.7
318.922	10.75
319.136	76.29
319.349	35.33
319.563	14.85
319.776	-34.3
319.99	14.85
320.203	92.67
320.417	-15.87
320.63	57.86
320.843	16.9
321.057	-48.64
321.27	27.14
321.483	-7.68
321.697	98.81
321.91	-9.73
322.124	-1.54
322.337	33.28
322.55	-34.3
322.763	53.76
322.977	-34.3
323.19	10.75
323.403	18.94
323.617	-32.26
323.83	-3.58
324.043	20.99
324.256	41.47
324.469	-26.11
324.683	18.94
324.896	18.94
325.109	6.66
325.322	18.94
325.535	-19.97
325.748	47.62
325.962	35.33
326.175	57.86
326.388	55.81
326.601	51.71
326.814	66.05
327.027	-1.54
327.24	55.81
327.453	-36.35
327.666	27.14
327.879	51.71
328.092	88.57
328.305	64
328.518	-19.97
328.731	31.23
328.944	72.19
329.157	90.62
329.37	53.76
329.583	111.1
329.796	0.51
330.009	41.47
330.222	23.04
330.435	59.9
330.648	59.9
330.861	16.9
331.073	39.42
331.286	8.7
331.499	90.62
331.712	16.9
331.925	-9.73
332.138	-24.06
332.35	66.05
332.563	37.38
332.776	66.05
332.989	8.7
333.202	-48.64
333.414	82.43
333.627	-1.54
333.84	-5.63
334.053	16.9
334.265	-15.87
334.478	16.9
334.691	31.23
334.903	39.42
335.116	18.94
335.329	12.8
335.541	-13.82
335.754	76.29
335.966	-22.02
336.179	-9.73
336.392	27.14
336.604	12.8
336.817	84.48
337.029	92.67
337.242	66.05
337.454	16.9
337.667	-13.82
337.88	59.9
338.092	10.75
338.305	72.19
338.517	-40.45
338.729	41.47
338.942	16.9
339.154	8.7
339.367	-13.82
339.579	37.38
339.792	12.8
340.004	16.9
340.217	61.95
340.429	45.57
340.641	113.15
340.854	-9.73
341.066	41.47
341.278	98.81
341.491	68.09
341.703	74.24
341.915	-30.21
342.128	31.23
342.34	35.33
342.552	-1.54
342.764	37.38
342.977	-1.54
343.189	6.66
343.401	57.86
343.613	-17.92
343.826	8.7
344.038	-22.02
344.25	51.71
344.462	-9.73
344.674	82.43
344.886	-34.3
345.099	49.66
345.311	-22.02
345.523	-34.3
345.735	6.66
345.947	25.09
346.159	43.52
346.371	66.05
346.583	14.85
346.795	74.24
347.007	66.05
347.219	29.18
347.431	-17.92
347.643	51.71
347.855	23.04
348.067	-3.58
348.279	6.66
348.491	10.75
348.703	6.66
348.915	6.66
349.127	57.86
349.339	-3.58
349.551	-40.45
349.763	100.86
349.975	29.18
350.187	37.38
350.399	55.81
350.61	20.99
350.822	39.42
351.034	66.05
351.246	14.85
351.458	25.09
351.669	72.19
351.881	-17.92
352.093	-9.73
352.305	107.01
352.517	12.8
352.728	74.24
352.94	20.99
353.152	68.09
353.363	-19.97
353.575	49.66
353.787	76.29
353.999	12.8
354.21	72.19
354.422	-17.92
354.633	64
354.845	8.7
355.057	51.71
355.268	20.99
355.48	-15.87
355.692	-1.54
355.903	27.14
356.115	-38.4
356.326	29.18
356.538	100.86
356.749	61.95
356.961	35.33
357.172	18.94
357.384	-1.54
357.595	80.38
357.807	-9.73
358.018	14.85
358.23	57.86
358.441	18.94
358.653	29.18
358.864	23.04
359.075	31.23
359.287	20.99
359.498	31.23
359.709	16.9
359.921	55.81
360.132	27.14
360.344	119.29
360.555	6.66
360.766	49.66
360.977	-24.06
361.189	57.86
361.4	29.18
361.611	-1.54
361.823	39.42
362.034	47.62
362.245	-26.11
362.456	-81.41
362.667	-7.68
362.879	23.04
363.09	18.94
363.301	70.14
363.512	-15.87
363.723	43.52
363.935	8.7
364.146	8.7
364.357	47.62
364.568	57.86
364.779	-46.59
364.99	6.66
365.201	47.62
365.412	39.42
365.623	47.62
365.834	49.66
366.045	47.62
366.256	16.9
366.467	53.76
366.678	43.52
366.889	-42.5
367.1	33.28
367.311	88.57
367.522	6.66
367.733	14.85
367.944	64
368.155	18.94
368.366	90.62
368.577	45.57
368.788	53.76
368.999	-11.78
369.209	27.14
369.42	59.9
369.631	113.15
369.842	39.42
370.053	33.28
370.264	39.42
370.474	-65.02
370.685	55.81
370.896	12.8
371.107	123.39
371.317	84.48
371.528	-7.68
371.739	66.05
371.95	33.28
372.16	80.38
372.371	8.7
372.582	23.04
372.792	49.66
373.003	74.24
373.214	-1.54
373.424	68.09
373.635	31.23
373.846	57.86
374.056	12.8
374.267	66.05
374.477	55.81
374.688	-5.63
374.898	10.75
375.109	82.43
375.319	113.15
375.53	6.66
375.74	39.42
375.951	-54.78
376.161	96.77
376.372	33.28
376.582	45.57
376.793	29.18
377.003	35.33
377.214	-19.97
377.424	78.33
377.635	29.18
377.845	16.9
378.055	94.72
378.266	-19.97
378.476	-19.97
378.686	35.33
378.897	10.75
379.107	49.66
379.317	115.2
379.528	16.9
379.738	35.33
379.948	64
380.158	18.94
380.369	0.51
380.579	66.05
380.789	37.38
380.999	86.53
381.21	76.29
381.42	57.86
381.63	68.09
381.84	25.09
382.05	31.23
382.261	-28.16
382.471	23.04
382.681	-9.73
382.891	96.77
383.101	82.43
383.311	78.33
383.521	47.62
383.731	-24.06
383.941	25.09
384.151	-13.82
384.361	47.62
384.571	74.24
384.781	29.18
384.991	49.66
385.201	88.57
385.411	-11.78
385.621	64
385.831	76.29
386.041	39.42
386.251	-42.5
386.461	76.29
386.671	16.9
386.881	68.09
387.091	-54.78
387.301	55.81
387.511	61.95
387.72	39.42
387.93	35.33
388.14	10.75
388.35	109.05
388.56	66.05
388.769	16.9
388.979	131.58
389.189	35.33
389.399	20.99
389.609	0.51
389.818	109.05
390.028	37.38
390.238	123.39
390.447	23.04
390.657	57.86
390.867	86.53
391.076	39.42
391.286	31.23
391.496	-15.87
391.705	31.23
391.915	117.25
392.125	-46.59
392.334	72.19
392.544	2.56
392.753	25.09
392.963	14.85
393.172	45.57
393.382	-17.92
393.591	66.05
393.801	47.62
394.01	98.81
394.22	57.86
394.429	59.9
394.639	68.09
394.848	57.86
395.058	45.57
395.267	76.29
395.477	20.99
395.686	64
395.895	117.25
396.105	92.67
396.314	59.9
396.524	145.92
396.733	68.09
396.942	-11.78
397.152	82.43
397.361	70.14
397.57	117.25
397.78	80.38
397.989	39.42
398.198	72.19
398.407	27.14
398.617	6.66
398.826	27.14
399.035	133.63
399.244	51.71
399.453	131.58
399.663	33.28
399.872	49.66
400.081	-62.98
400.29	64
400.499	88.57
400.708	39.42
400.917	8.7
401.127	51.71
401.336	25.09
401.545	90.62
401.754	90.62
401.963	-13.82
402.172	86.53
402.381	154.11
402.59	72.19
402.799	94.72
403.008	76.29
403.217	59.9
403.426	104.96
403.635	20.99
403.844	125.44
404.053	29.18
404.262	94.72
404.471	184.83
404.68	109.05
404.888	49.66
405.097	23.04
405.306	145.92
405.515	92.67
405.724	6.66
405.933	115.2
406.142	72.19
406.35	154.11
406.559	76.29
406.768	86.53
406.977	47.62
407.185	166.4
407.394	121.34
407.603	195.07
407.812	107.01
408.02	223.74
408.229	121.34
408.438	115.2
408.646	129.53
408.855	178.69
409.064	182.78
409.272	127.49
409.481	174.59
409.69	107.01
409.898	180.73
410.107	309.76
410.315	213.5
410.524	156.16
410.733	174.59
410.941	195.07
411.15	244.22
411.358	188.93
411.567	285.18
411.775	195.07
411.984	315.9
412.192	201.21
412.401	266.75
412.609	279.04
412.818	276.99
413.026	281.08
413.234	301.56
413.443	295.42
413.651	301.56
413.86	285.18
414.068	383.48
414.276	422.39
414.485	377.34
414.693	369.15
414.901	502.26
415.11	352.76
415.318	383.48
415.526	393.72
415.734	475.64
415.943	479.74
416.151	473.59
416.359	408.06
416.567	494.07
416.776	549.37
416.984	467.45
417.192	590.33
417.4	600.57
417.608	524.79
417.817	580.09
418.025	694.77
418.233	666.1
418.441	590.33
418.649	776.69
418.857	815.6
419.065	741.88
419.273	745.97
419.481	803.32
419.689	932.34
419.897	938.48
420.105	911.86
420.313	975.35
420.521	954.87
420.729	1016.3
420.937	1098.22
421.145	1024.5
421.353	1085.94
421.561	1143.28
421.769	1171.95
421.977	1305.07
422.185	1270.25
422.393	1343.98
422.601	1325.55
422.809	1358.32
423.017	1436.14
423.224	1386.99
423.432	1540.58
423.64	1448.43
423.848	1606.12
424.056	1606.12
424.263	1745.38
424.471	1640.93
424.679	1722.85
424.887	1821.16
425.094	1890.79
425.302	1808.87
425.51	2103.78
425.718	1933.79
425.925	2023.91
426.133	2157.02
426.341	2312.67
426.548	2382.3
426.756	2243.04
426.964	2353.63
427.171	2456.03
427.379	2589.14
427.586	2386.4
427.794	2898.39
428.001	2773.46
428.209	2927.06
428.417	2894.29
428.624	3080.66
428.832	3205.58
429.039	3131.86
429.247	3172.82
429.454	3332.56
429.662	3623.37
429.869	3383.76
430.076	3723.72
430.284	3586.51
430.491	3684.81
430.699	3881.41
430.906	3850.69
431.114	3801.54
431.321	4073.92
431.528	4219.33
431.736	4389.31
431.943	4659.64
432.15	4590.01
432.358	4569.53
432.565	4876.73
432.772	4833.72
432.979	4981.17
433.187	5042.61
433.394	5071.28
433.601	5534.12
433.808	5671.34
434.016	5450.16
434.223	5697.96
434.43	6042.02
434.637	5947.81
434.844	6381.98
435.052	6439.33
435.259	6433.18
435.466	6406.56
435.673	6295.97
435.88	6824.34
436.087	7068.05
436.294	7121.3
436.501	6939.03
436.708	7227.79
436.915	7502.22
437.122	7817.61
437.329	7635.34
437.537	7965.06
437.743	8165.76
437.95	8077.7
438.157	8345.98
438.364	8796.54
438.571	8956.28
438.778	8737.15
438.985	9599.34
439.192	9208.18
439.399	9632.11
439.606	9345.39
439.813	9800.04
440.02	10314.08
440.227	10412.39
440.433	10236.26
440.64	10723.68
440.847	10608.99
441.054	10635.61
441.261	11307.35
441.467	11288.92
441.674	11632.97
441.881	11960.65
442.088	12034.38
442.294	11911.5
442.501	12153.16
442.708	12319.04
442.914	12855.61
443.121	13599.02
443.328	12968.25
443.534	13951.28
443.741	13570.35
443.948	13494.58
444.154	14315.81
444.361	14393.64
444.568	14315.81
444.774	14559.52
444.981	14541.09
445.187	15059.23
445.394	15849.74
445.6	15466.77
445.807	17219.83
446.013	16148.75
446.22	16670.98
446.426	17160.44
446.633	17541.36
446.839	17846.51
447.046	17373.43
447.252	18254.06
447.459	18327.78
447.665	18262.25
447.871	19206.36
448.078	19982.54
448.284	18968.8
448.491	19636.44
448.697	20017.36
448.903	20560.07
449.11	20723.91
449.316	20457.67
449.522	20748.48
449.728	21401.79
449.935	21403.83
450.141	21579.96
450.347	21981.36
450.553	21321.91
450.76	21575.86
450.966	22544.55
451.172	22272.17
451.378	22730.92
451.584	22065.33
451.791	22747.3
451.997	22864.04
452.203	22898.85
452.409	23074.98
452.615	23046.3
452.821	22177.97
453.027	22032.56
453.233	23238.81
453.44	22411.43
453.646	22536.36
453.852	22702.25
454.058	22843.56
454.264	22206.64
454.47	23015.58
454.676	22153.39
454.882	22898.85
455.088	20977.86
455.294	21674.17
455.5	21723.32
455.705	21944.5
455.911	21047.49
456.117	20607.17
456.323	20222.16
456.529	19544.28
456.735	20265.16
456.941	19656.92
457.147	19484.89
457.352	18776.29
457.558	18573.54
457.764	18669.8
457.97	18458.85
458.176	17764.59
458.381	17930.48
458.587	17078.52
458.793	17201.4
458.999	15989
459.204	17395.96
459.41	16806.14
459.616	15868.17
459.821	15909.13
460.027	15515.92
460.233	15339.8
460.438	14756.13
460.644	14838.05
460.85	14235.94
461.055	14055.72
461.261	14115.11
461.466	12747.07
461.672	12464.45
461.878	13447.47
462.083	12454.21
462.289	12128.58
462.494	12224.84
462.7	11514.19
462.905	11311.44
463.111	11536.72
463.316	11739.47
463.522	11534.67
463.727	11362.64
463.932	11254.1
464.138	11295.06
464.343	11311.44
464.549	11276.63
464.754	11501.9
464.959	11262.29
465.165	11239.76
465.37	10918.23
465.575	10365.28
465.781	10953.05
465.986	11147.61
466.191	10738.01
466.397	10236.26
466.602	9904.49
466.807	10398.05
467.012	10330.47
467.218	10273.12
467.423	9978.22
467.628	10094.95
467.833	10846.55
468.038	10017.13
468.244	9693.55
468.449	10193.25
468.654	9908.58
468.859	9972.07
469.064	9754.99
469.269	9345.39
469.474	9546.09
469.679	9906.54
469.885	9394.54
470.09	9613.68
470.295	9372.02
470.5	9111.92
470.705	9511.28
470.91	9113.97
471.115	8950.14
471.32	9230.71
471.525	9015.67
471.73	9021.81
471.935	9093.49
472.139	8436.1
472.344	8771.96
472.549	8755.58
472.754	8677.76
472.959	8210.82
473.164	8202.63
473.369	8085.89
473.574	8518.01
473.778	8135.04
473.983	8223.11
474.188	8087.94
474.393	7809.42
474.598	8038.79
474.802	7819.66
475.007	7532.94
475.212	7977.35
475.417	7438.73
475.621	7516.56
475.826	7532.94
476.031	7338.38
476.235	7215.51
476.44	7358.86
476.645	7252.37
476.849	7219.6
477.054	7016.85
477.259	7010.71
477.463	6945.17
477.668	6758.81
477.872	6842.78
478.077	6676.89
478.282	6717.85
478.486	6562.2
478.691	6537.63
478.895	6668.7
479.1	6562.2
479.304	6603.16
479.509	6238.62
479.713	6461.85
479.918	6314.4
480.122	6189.47
480.326	6181.28
480.531	6357.41
480.735	6236.58
480.94	6156.71
481.144	6365.6
481.348	6101.41
481.553	6115.75
481.757	5904.81
481.961	6150.56
482.166	6216.1
482.37	6250.91
482.574	6019.49
482.778	5888.42
482.983	6171.04
483.187	6265.25
483.391	6035.88
483.595	5939.62
483.8	5880.23
484.004	6058.4
484.208	6103.46
484.412	6158.75
484.616	6078.88
484.821	5941.67
485.025	5792.17
485.229	6035.88
485.433	5849.51
485.637	6033.83
485.841	6224.29
486.045	6015.4
486.249	5974.44
486.453	5878.18
486.657	6212
486.861	6019.49
487.065	5970.34
487.269	5986.72
487.473	6125.99
487.677	6042.02
487.881	6042.02
488.085	6003.11
488.289	6056.36
488.493	5880.23
488.697	6003.11
488.901	5958.05
489.105	6009.25
489.309	6150.56
489.512	5945.77
489.716	6246.82
489.92	6109.6
490.124	6140.32
490.328	6160.8
490.531	6119.84
490.735	6334.88
490.939	6191.52
491.143	6267.3
491.346	6128.03
491.55	6209.95
491.754	6347.17
491.958	6494.62
492.161	6394.27
492.365	6445.47
492.569	6355.36
492.772	6351.26
492.976	6525.34
493.18	6367.65
493.383	6457.76
493.587	6693.27
493.79	6594.97
493.994	6830.49
494.197	6674.84
494.401	6908.31
494.605	6810.01
494.808	6805.91
495.012	6594.97
495.215	7012.76
495.419	6758.81
495.622	6961.56
495.825	6963.61
496.029	7111.06
496.232	7373.2
496.436	7264.66
496.639	7395.73
496.843	7297.42
497.046	7418.25
497.249	7557.52
497.453	7518.61
497.656	7623.05
497.859	7610.76
498.063	7838.09
498.266	7901.58
498.469	7979.4
498.673	7877
498.876	8065.41
499.079	8075.65
499.282	8186.24
499.485	8352.13
499.689	8380.8
499.892	8370.56
500.095	8524.16
500.298	8763.77
500.501	8802.68
500.705	8841.59
500.908	9089.4
501.111	8987
501.314	9234.8
501.517	9230.71
501.72	9318.77
501.923	9320.82
502.126	9568.62
502.329	9847.15
502.532	9791.85
502.735	9890.15
502.938	10060.13
503.141	10064.23
503.344	10228.07
503.547	10301.79
503.75	10379.62
503.953	10525.02
504.156	10633.57
504.359	10676.57
504.562	10740.06
504.765	11180.37
504.968	11340.11
505.17	11250
505.373	11157.85
505.576	11596.11
505.779	11524.43
505.982	11653.45
506.185	12001.61
506.387	12044.62
506.59	12190.02
506.793	12296.52
506.996	12329.28
507.198	12822.84
507.401	12640.58
507.604	12691.77
507.807	12912.95
508.009	12904.76
508.212	13191.48
508.415	13332.79
508.617	13474.1
508.82	13564.21
509.022	13687.09
509.225	14031.15
509.428	14123.3
509.63	14084.39
509.833	14348.58
510.035	14360.87
510.238	14444.84
510.44	14610.72
510.643	14844.19
510.845	15155.48
511.048	14983.45
511.25	15307.03
511.453	15317.27
511.655	16228.62
511.858	15642.9
512.06	15872.27
512.262	16253.19
512.465	15896.85
512.667	16363.78
512.87	16167.18
513.072	16636.16
513.274	16808.19
513.477	17117.43
513.679	17406.2
513.881	17291.51
514.084	17588.47
514.286	17473.78
514.488	17608.95
514.69	18258.15
514.893	17848.56
515.095	18417.89
515.297	18424.04
515.499	18696.42
515.701	18706.66
515.904	18962.65
516.106	19208.41
516.308	19413.21
516.51	19585.24
516.712	19431.64
516.914	19892.43
517.116	20224.2
517.318	20332.75
517.52	20426.95
517.722	20596.93
517.925	20693.19
518.127	21024.96
518.329	21139.65
518.531	20949.18
518.733	21520.57
518.935	21534.9
519.136	21645.49
519.338	22206.64
519.54	22026.42
519.742	22257.84
519.944	22263.98
520.146	22751.4
520.348	23181.47
520.55	22859.94
520.752	23044.26
520.954	23435.42
521.155	23419.03
521.357	23664.79
521.559	24049.81
521.761	24463.5
521.963	24201.36
522.164	24582.28
522.366	24328.33
522.568	25071.75
522.77	24789.13
522.971	25247.87
523.173	25219.2
523.375	25544.83
523.576	25489.53
523.778	25710.71
523.98	25901.17
524.181	26312.81
524.383	26239.09
524.584	26593.39
524.786	26542.19
524.988	26402.93
525.189	26929.25
525.391	26865.77
525.592	26929.25
525.794	27203.68
525.995	27287.65
526.197	27457.63
526.398	27283.55
526.6	27621.47
526.801	27934.81
527.003	27676.76
527.204	27852.89
527.406	28131.41
527.607	27981.91
527.808	28317.78
528.01	27721.82
528.211	28260.43
528.412	28653.64
528.614	28792.9
528.815	28723.27
529.016	28909.64
529.218	28848.2
529.419	29126.72
529.62	29061.19
529.822	28606.54
530.023	28864.58
530.224	29083.72
530.425	28981.32
530.626	29096
530.828	29206.59
531.029	29536.32
531.23	29438.01
531.431	29194.31
531.632	29626.43
531.833	29538.37
532.035	29495.36
532.236	29550.65
532.437	30033.97
532.638	29567.04
532.839	29890.62
533.04	29954.1
533.241	29190.21
533.442	30013.49
533.643	29431.87
533.844	29605.95
534.045	29857.85
534.246	29577.28
534.447	29743.16
534.648	29734.97
534.849	30079.03
535.05	29616.19
535.251	30007.35
535.451	29620.28
535.652	30095.41
535.853	29845.56
536.054	30021.69
536.255	30292.02
536.456	29714.49
536.657	30177.33
536.857	29868.09
537.058	30163
537.259	30193.72
537.46	30222.39
537.66	30019.64
537.861	30242.87
538.062	29929.53
538.263	30425.14
538.463	29855.8
538.664	29954.1
538.865	30193.72
539.065	30171.19
539.266	29874.23
539.466	30259.25
539.667	29759.55
539.868	30236.72
540.068	29808.7
540.269	29978.68
540.469	30246.96
540.67	29718.59
540.87	29820.98
541.071	29802.55
541.271	29743.16
541.472	30183.48
541.672	30101.56
541.873	30058.55
542.073	29710.39
542.274	30134.32
542.474	30214.19
542.675	29866.04
542.875	30220.34
543.075	29863.99
543.276	29839.42
543.476	30257.2
543.676	29833.27
543.877	30054.45
544.077	29958.2
544.277	29462.59
544.478	29722.68
544.678	30038.07
544.878	29945.91
545.078	29771.83
545.279	29741.11
545.479	29507.65
545.679	30148.66
545.879	29911.1
546.079	29665.34
546.28	29737.02
546.48	29472.83
546.68	29874.23
546.88	29829.18
547.08	29870.14
547.28	29732.92
547.48	29435.97
547.68	29614.14
547.88	29411.39
548.081	29995.06
548.281	29790.27
548.481	29493.31
548.681	30085.17
548.881	29601.85
549.081	29614.14
549.28	29624.38
549.48	29812.79
549.68	29581.37
549.88	30070.84
550.08	29517.89
550.28	30036.02
550.48	29575.23
550.68	30021.69
550.88	29704.25
551.08	29577.28
551.279	29931.58
551.479	29243.46
551.679	29599.8
551.879	29839.42
552.079	29691.96
552.278	29562.94
552.478	29689.91
552.678	29564.99
552.878	29429.82
553.077	29610.04
553.277	29167.68
553.477	29610.04
553.676	29620.28
553.876	29308.99
554.076	29534.27
554.275	29491.26
554.475	29294.66
554.674	29429.82
554.874	29179.97
555.074	29175.87
555.273	29892.66
555.473	29698.11
555.672	28956.74
555.872	29265.99
556.071	29069.38
556.271	29388.86
556.47	28991.56
556.67	28794.95
556.869	28923.97
557.068	29169.73
557.268	29231.17
557.467	28987.46
557.667	29014.09
557.866	28940.36
558.065	28633.16
558.265	28956.74
558.464	28536.91
558.663	28907.59
558.863	28616.78
559.062	28624.97
559.261	28516.43
559.461	29063.24
559.66	28371.02
559.859	28522.57
560.058	28170.32
560.258	28622.92
560.457	27975.77
560.656	28311.63
560.855	28354.64
561.054	28600.4
561.253	28221.52
561.453	28188.75
561.652	28203.09
561.851	28205.14
562.05	28067.92
562.249	27908.18
562.448	28282.96
562.647	27777.11
562.846	27807.83
563.045	27943
563.244	27549.79
563.443	27967.57
563.642	27177.06
563.841	27572.32
564.04	27418.72
564.239	27631.71
564.438	27512.92
564.637	27740.25
564.836	27175.01
565.035	26931.3
565.234	27258.98
565.432	26878.05
565.631	27132
565.83	27420.77
566.029	26843.24
566.228	26970.21
566.427	26493.04
566.625	26773.61
566.824	26357.87
567.023	26429.55
567.222	26423.4
567.42	26726.5
567.619	26347.63
567.818	26390.64
568.016	26409.07
568.215	26474.6
568.414	25940.08
568.612	26617.96
568.811	26226.8
569.01	26032.24
569.208	25839.73
569.407	25954.42
569.605	25622.65
569.804	26011.76
570.002	25497.72
570.201	25782.39
570.4	25385.08
570.598	25276.54
570.797	25622.65
570.995	25536.63
571.193	25223.3
571.392	25581.69
571.59	24905.86
571.789	25262.21
571.987	24778.89
572.186	25010.31
572.384	24952.96
572.582	24694.92
572.781	25147.52
572.979	24653.96
573.177	24578.18
573.376	24764.55
573.574	24334.48
573.772	24629.38
573.971	24236.17
574.169	24359.05
574.367	24012.95
574.565	24377.48
574.763	24187.02
574.962	23795.86
575.16	23646.36
575.358	24334.48
575.556	23644.31
575.754	24215.69
575.952	23496.86
576.151	23765.14
576.349	23486.62
576.547	23419.03
576.745	23681.17
576.943	23318.68
577.141	23556.25
577.339	23570.58
577.537	23242.91
577.735	22999.2
577.933	23062.69
578.131	23105.7
578.329	23058.59
578.527	22753.44
578.725	23230.62
578.923	22984.87
579.121	22728.87
579.319	22692.01
579.516	22931.62
579.714	22845.6
579.912	22429.87
580.11	22657.19
580.308	22550.7
580.506	22233.26
580.704	21885.11
580.901	22397.1
581.099	22286.51
581.297	22067.38
581.495	22216.88
581.692	22296.75
581.89	21848.24
582.088	21944.5
582.285	21838
582.483	22024.37
582.681	21772.47
582.878	21782.71
583.076	21645.49
583.274	21528.76
583.471	21481.66
583.669	21534.9
583.866	21465.27
584.064	21733.56
584.262	20914.37
584.459	21223.61
584.657	20947.14
584.854	21461.18
585.052	20461.77
585.249	21237.95
585.447	20889.79
585.644	20611.27
585.841	21043.39
586.039	20816.07
586.236	20459.72
586.434	20685
586.631	20605.13
586.828	20422.86
587.026	20302.03
587.223	20390.09
587.42	19982.54
587.618	20572.36
587.815	19683.54
588.012	20142.28
588.21	19921.1
588.407	20091.09
588.604	19898.58
588.801	19912.91
588.999	19941.58
589.196	19816.66
589.393	19730.64
589.59	19747.03
589.787	19644.63
589.984	19701.97
590.182	19237.08
590.379	19712.21
590.576	19175.64
590.773	19462.36
590.97	18993.37
591.167	19106.01
591.364	18770.15
591.561	19187.93
591.758	19034.33
591.955	19001.57
592.152	18725.09
592.349	18686.18
592.546	19110.11
592.743	19022.05
592.94	18751.71
593.137	18653.41
593.334	18723.04
593.531	18391.27
593.727	18415.85
593.924	18493.67
594.121	18217.19
594.318	18481.38
594.515	18254.06
594.712	18385.13
594.908	18131.18
595.105	18421.99
595.302	18270.44
595.499	17967.34
595.696	17783.02
595.892	17897.71
596.089	17746.16
596.286	17946.86
596.482	17719.54
596.679	17529.08
596.876	17799.41
597.072	17424.63
597.269	17473.78
597.466	17404.15
597.662	17434.87
597.859	17348.86
598.055	17459.45
598.252	17363.19
598.448	17340.66
598.645	17332.47
598.841	17215.74
599.038	16916.73
599.234	17113.34
599.431	16763.14
599.627	16828.67
599.824	16890.11
600.02	16853.25
600.217	16812.29
600.413	16646.4
600.609	16625.92
600.806	16574.72
601.002	16533.76
601.198	16472.32
601.395	16369.93
601.591	16193.8
601.787	16505.09
601.984	16300.3
602.18	16283.91
602.376	16449.8
602.572	16247.05
602.769	16136.46
602.965	15786.26
603.161	16115.98
603.357	15927.56
603.553	15894.8
603.75	15952.14
603.946	15720.72
604.142	15810.83
604.338	15419.67
604.534	15522.07
604.73	15579.41
604.926	15575.31
605.122	15434
605.318	15458.58
605.514	15405.33
605.71	15409.43
605.906	15249.69
606.102	15399.19
606.298	15460.63
606.494	15171.86
606.69	15347.99
606.886	15286.55
607.082	15040.79
607.278	15077.66
607.474	14768.41
607.67	14956.83
607.866	14872.86
608.062	15010.07
608.257	14754.08
608.453	14760.22
608.649	14899.48
608.845	14489.89
609.041	14729.5
609.236	14545.19
609.432	14547.23
609.628	14674.21
609.824	14813.47
610.019	14485.79
610.215	14416.16
610.411	14725.41
610.606	14227.75
610.802	14514.47
610.998	14350.63
611.193	14362.92
611.389	14336.29
611.584	14248.23
611.78	14221.61
611.976	14414.12
612.171	14235.94
612.367	14147.88
612.562	14096.68
612.758	13961.51
612.953	13979.95
613.149	14260.52
613.344	13822.25
613.539	14194.98
613.735	13947.18
613.93	14088.49
614.126	13834.54
614.321	14002.47
614.517	13697.33
614.712	13715.76
614.907	13857.07
615.103	13857.07
615.298	13852.97
615.493	13914.41
615.688	13474.1
615.884	13814.06
616.079	13451.57
616.274	13707.57
616.47	13584.69
616.665	13513.01
616.86	13343.03
617.055	13562.16
617.25	13431.09
617.445	13533.49
617.641	13404.47
617.836	13244.73
618.031	13207.86
618.226	13207.86
618.421	13248.82
618.616	13248.82
618.811	13230.39
619.006	12978.49
619.201	12935.48
619.396	13072.7
619.591	12810.56
619.786	12886.33
619.981	12659.01
620.176	12859.71
620.371	12456.26
620.566	12659.01
620.761	12501.31
620.956	12669.25
621.151	12384.58
621.346	12763.45
621.541	12278.08
621.735	12554.56
621.93	11995.46
622.125	12210.5
622.32	12058.95
622.515	12116.3
622.709	12058.95
622.904	12036.42
623.099	11872.59
623.294	11807.05
623.488	11708.75
623.683	11714.89
623.878	11368.79
624.072	11413.84
624.267	11403.6
624.462	11639.12
624.656	11393.36
624.851	11569.49
625.046	11178.33
625.24	11395.41
625.435	11147.61
625.629	11053.4
625.824	11043.16
626.018	11131.22
626.213	11037.02
626.407	10766.68
626.602	10813.79
626.796	10934.62
626.991	10703.2
627.185	10764.64
627.38	10756.44
627.574	10625.37
627.768	10404.19
627.963	10285.41
628.157	10371.43
628.352	10213.73
628.546	10248.55
628.74	10082.66
628.935	10023.27
629.129	10004.84
629.323	9984.36
629.517	10053.99
629.712	9861.48
629.906	9937.26
630.1	9886.06
630.294	9797.99
630.489	9617.77
630.683	9697.64
630.877	9623.92
631.071	9343.35
631.265	9337.2
631.459	9408.88
631.653	9386.35
631.848	9480.56
632.042	9331.06
632.236	9380.21
632.43	9163.12
632.624	9089.4
632.818	9126.26
633.012	9060.73
633.206	9132.4
633.4	8939.9
633.594	8923.51
633.788	8642.94
633.982	8991.09
634.176	8954.23
634.369	8776.06
634.563	8677.76
634.757	8745.34
634.951	8644.99
635.145	8724.86
635.339	8780.15
635.533	8569.21
635.726	8575.36
635.92	8405.38
636.114	8470.91
636.308	8231.3
636.501	8423.81
636.695	8442.24
636.889	8055.17
637.083	8059.27
637.276	8126.85
637.47	8069.51
637.664	8061.32
637.857	8057.22
638.051	7928.2
638.244	7864.71
638.438	7932.29
638.632	7649.68
638.825	7797.13
639.019	7594.38
639.212	7528.85
639.406	7588.24
639.599	7682.44
639.793	7633.29
639.986	7463.31
640.18	7428.49
640.373	7379.34
640.567	7408.01
640.76	7395.73
640.954	7186.83
641.147	7201.17
641.34	7250.32
641.534	7260.56
641.727	7186.83
641.92	7029.14
642.114	7201.17
642.307	6871.45
642.5	6850.97
642.694	6875.54
642.887	6906.26
643.08	6984.09
643.273	6805.91
643.467	6826.39
643.66	6842.78
643.853	6521.24
644.046	6750.62
644.239	6674.84
644.432	6613.4
644.626	6560.16
644.819	6644.12
645.012	6474.14
645.205	6470.05
645.398	6398.37
645.591	6437.28
645.784	6414.75
645.977	6381.98
646.17	6318.5
646.363	6173.09
646.556	6150.56
646.749	6011.3
646.942	6255.01
647.135	6185.38
647.328	6160.8
647.521	6125.99
647.714	5994.92
647.907	5947.81
648.099	5962.15
648.292	6048.16
648.485	5915.05
648.678	5937.57
648.871	5913
649.064	5906.85
649.256	5728.68
649.449	5765.54
649.642	5734.82
649.835	5740.97
650.027	5687.72
650.22	5583.27
650.413	5681.58
650.605	5511.6
650.798	5542.32
650.991	5429.68
651.183	5355.95
651.376	5466.54
651.568	5284.27
651.761	5564.84
651.954	5380.53
652.146	5427.63
652.339	5271.98
652.531	5247.41
652.724	5298.61
652.916	5161.39
653.109	5325.23
653.301	5151.15
653.494	5122.48
653.686	4962.74
653.879	5063.09
654.071	5198.26
654.263	5104.05
654.456	4936.12
654.648	4882.87
654.84	4811.19
655.033	4835.77
655.225	4819.38
655.417	5024.18
655.61	4923.83
655.802	4846.01
655.994	4868.53
656.186	4889.01
656.379	4784.57
656.571	4794.81
656.763	4549.05
656.955	4780.47
657.148	4702.65
657.34	4581.82
657.532	4598.2
657.724	4610.49
657.916	4608.44
658.108	4587.96
658.3	4520.38
658.492	4383.17
658.684	4342.21
658.876	4530.62
659.068	4465.08
659.26	4426.17
659.452	4262.33
659.644	4442.56
659.836	4245.95
660.028	4231.62
660.22	4184.51
660.412	4102.59
660.604	4194.75
660.796	4288.96
660.988	4262.33
661.18	4004.29
661.372	4037.06
661.563	4227.52
661.755	4010.43
661.947	4004.29
662.139	3938.76
662.331	4063.68
662.522	3912.13
662.714	3885.51
662.906	4022.72
663.097	3985.86
663.289	3828.17
663.481	3846.6
663.673	3887.56
663.864	3688.9
664.056	3715.53
664.247	3776.97
664.439	3746.25
664.631	3717.58
664.822	3717.58
665.014	3555.79
665.205	3768.77
665.397	3637.7
665.588	3690.95
665.78	3668.42
665.971	3563.98
666.163	3619.27
666.354	3514.83
666.546	3500.49
666.737	3488.2
666.929	3455.44
667.12	3396.04
667.311	3492.3
667.503	3346.89
667.694	3441.1
667.885	3416.52
668.077	3441.1
668.268	3463.63
668.459	3346.89
668.651	3379.66
668.842	3301.84
669.033	3295.69
669.224	3277.26
669.416	3293.65
669.607	3279.31
669.798	3201.49
669.989	3086.8
670.18	3201.49
670.371	3146.19
670.563	3060.18
670.754	3123.66
670.945	3090.9
671.136	3140.05
671.327	3015.12
671.518	3099.09
671.709	3076.56
671.9	3072.47
672.091	3142.1
672.282	3049.94
672.473	3029.46
672.664	3086.8
672.855	3045.84
673.046	2927.06
673.237	2980.31
673.428	3078.61
673.619	3074.51
673.809	2863.57
674	2886.1
674.191	3023.31
674.382	2890.2
674.573	2865.62
674.764	2871.76
674.954	2722.26
675.145	2843.09
675.336	2767.32
675.527	2832.85
675.717	2791.89
675.908	2744.79
676.099	2767.32
676.289	2826.71
676.48	2861.52
676.671	2693.59
676.861	2714.07
677.052	2697.69
677.243	2599.38
677.433	2507.23
677.624	2709.97
677.814	2505.18
678.005	2621.91
678.195	2709.97
678.386	2599.38
678.576	2578.9
678.767	2480.6
678.957	2636.25
679.148	2533.85
679.338	2513.37
679.529	2611.67
679.719	2599.38
679.909	2548.19
680.1	2496.99
680.29	2527.71
680.481	2554.33
680.671	2619.86
680.861	2550.23
681.052	2466.27
681.242	2433.5
681.432	2376.16
681.622	2451.93
681.813	2390.49
682.003	2406.88
682.193	2304.48
682.383	2380.25
682.573	2365.92
682.764	2300.38
682.954	2324.96
683.144	2367.96
683.334	2259.42
683.524	2451.93
683.714	2439.64
683.904	2243.04
684.094	2376.16
684.284	2349.53
684.474	2261.47
684.664	2312.67
684.854	2357.72
685.044	2292.19
685.234	2163.17
685.424	2259.42
685.614	2378.2
685.804	2243.04
685.994	2177.5
686.184	2243.04
686.374	2220.51
686.564	2245.09
686.753	2251.23
686.943	2034.14
687.133	2124.26
687.323	2245.09
687.513	2304.48
687.702	2103.78
687.892	2134.5
688.082	2152.93
688.272	2216.41
688.461	2140.64
688.651	2140.64
688.841	2097.63
689.03	2054.62
689.22	2126.3
689.41	1995.23
689.599	2062.82
689.789	2062.82
689.979	2068.96
690.168	2111.97
690.358	2064.86
690.547	2038.24
690.737	2089.44
690.926	2048.48
691.116	2087.39
691.305	1976.8
691.495	2032.1
691.684	2105.82
691.874	2058.72
692.063	2040.29
692.252	1956.32
692.442	1960.42
692.631	1980.9
692.82	1962.47
693.01	1950.18
693.199	1970.66
693.388	1913.31
693.578	1966.56
693.767	2046.43
693.956	2015.71
694.146	1989.09
694.335	1890.79
694.524	1913.31
694.713	1974.75
694.902	1888.74
695.092	1878.5
695.281	1909.22
695.47	1933.79
695.659	1956.32
695.848	1841.64
696.037	1829.35
696.226	1896.93
696.415	1808.87
696.604	1950.18
696.793	1851.88
696.982	1837.54
697.171	1851.88
697.36	1874.4
697.549	1853.92
697.738	1907.17
697.927	1829.35
698.116	1890.79
698.305	1778.15
698.494	1761.77
698.683	1911.27
698.872	1815.01
699.061	1915.36
699.25	1874.4
699.438	1933.79
699.627	1685.99
699.816	1821.16
700.005	1757.67
700.193	1806.82
700.382	1884.64
700.571	1817.06
700.76	1858.02
700.948	1792.48
701.137	1837.54
701.326	1825.25
701.514	1765.86
701.703	1829.35
701.892	1759.72
702.08	1800.68
702.269	1913.31
702.457	1802.72
702.646	1858.02
702.834	2025.95
703.023	1759.72
703.212	1796.58
703.4	1794.53
703.589	1819.11
703.777	1751.53
703.965	1780.2
704.154	1792.48
704.342	1847.78
704.531	1815.01
704.719	1759.72
704.907	1845.73
705.096	1755.62
705.284	1841.64
705.472	1886.69
705.661	1864.16
705.849	1765.86
706.037	1841.64
706.226	1866.21
706.414	1810.92
706.602	1905.12
706.79	1808.87
706.979	1870.31
707.167	1774.05
707.355	1800.68
707.543	1923.55
707.731	1749.48
707.919	1843.68
708.107	1772
708.296	1784.29
708.484	1808.87
708.672	1819.11
708.86	1733.09
709.048	1872.36
709.236	1708.52
709.424	1718.76
709.612	1882.6
709.8	1630.7
709.988	1784.29
710.176	1833.44
710.364	1790.44
710.551	1819.11
710.739	1833.44
710.927	1769.96
711.115	1794.53
711.303	1772
711.491	1858.02
711.679	1780.2
711.866	1853.92
712.054	1817.06
712.242	1772
712.43	1831.4
712.617	1772
712.805	1753.57
712.993	1841.64
713.181	1780.2
713.368	1769.96
713.556	1796.58
713.744	1737.19
713.931	1907.17
714.119	1872.36
714.306	1761.77
714.494	1784.29
714.682	1714.66
714.869	1812.96
715.057	1843.68
715.244	1735.14
715.432	1808.87
715.619	1774.05
715.807	1880.55
715.994	1825.25
716.182	1765.86
716.369	1878.5
716.556	1749.48
716.744	1817.06
716.931	1796.58
717.119	1759.72
717.306	1737.19
717.493	1794.53
717.681	1718.76
717.868	1780.2
718.055	1815.01
718.242	1858.02
718.43	1796.58
718.617	1939.94
718.804	1794.53
718.991	1776.1
719.179	1751.53
719.366	1835.49
719.553	1784.29
719.74	1679.85
719.927	1776.1
720.114	1712.61
720.301	1733.09
720.488	1776.1
720.676	1819.11
720.863	1679.85
721.05	1823.2
721.237	1815.01
721.424	1784.29
721.611	1819.11
721.798	1745.38
721.985	1784.29
722.172	1776.1
722.358	1776.1
722.545	1720.81
722.732	1708.52
722.919	1800.68
723.106	1612.26
723.293	1743.33
723.48	1677.8
723.667	1866.21
723.853	1757.67
724.04	1823.2
724.227	1829.35
724.414	1862.12
724.6	1788.39
724.787	1796.58
724.974	1710.57
725.161	1696.23
725.347	1640.93
725.534	1909.22
725.72	1729
725.907	1718.76
726.094	1802.72
726.28	1747.43
726.467	1731.05
726.653	1724.9
726.84	1747.43
727.027	1855.97
727.213	1772
727.4	1823.2
727.586	1786.34
727.773	1812.96
727.959	1745.38
728.145	1718.76
728.332	1757.67
728.518	1825.25
728.705	1882.6
728.891	1759.72
729.077	1739.24
729.264	1745.38
729.45	1706.47
729.636	1780.2
729.823	1743.33
730.009	1661.41
730.195	1726.95
730.382	1710.57
730.568	1659.37
730.754	1772
730.94	1731.05
731.126	1704.42
731.313	1716.71
731.499	1735.14
731.685	1739.24
731.871	1753.57
732.057	1718.76
732.243	1792.48
732.429	1702.37
732.615	1591.78
732.801	1669.61
732.987	1747.43
733.173	1667.56
733.359	1665.51
733.545	1749.48
733.731	1640.93
733.917	1788.39
734.103	1628.65
734.289	1769.96
734.475	1653.22
734.661	1759.72
734.847	1677.8
735.033	1749.48
735.219	1649.13
735.404	1733.09
735.59	1616.36
735.776	1640.93
735.962	1630.7
736.148	1683.94
736.333	1589.74
736.519	1681.89
736.705	1614.31
736.89	1645.03
737.076	1649.13
737.262	1620.46
737.447	1726.95
737.633	1677.8
737.819	1585.64
738.004	1647.08
738.19	1624.55
738.375	1665.51
738.561	1706.47
738.747	1665.51
738.932	1636.84
739.118	1587.69
739.303	1616.36
739.489	1669.61
739.674	1657.32
739.859	1602.02
740.045	1628.65
740.23	1657.32
740.416	1624.55
740.601	1602.02
740.786	1575.4
740.972	1593.83
741.157	1546.73
741.342	1516.01
741.528	1509.86
741.713	1624.55
741.898	1524.2
742.084	1509.86
742.269	1565.16
742.454	1509.86
742.639	1604.07
742.824	1491.43
743.01	1516.01
743.195	1524.2
743.38	1495.53
743.565	1423.85
743.75	1485.29
743.935	1522.15
744.12	1561.06
744.305	1540.58
744.49	1479.15
744.675	1440.23
744.86	1407.47
745.045	1481.19
745.23	1317.36
745.415	1440.23
745.6	1368.56
745.785	1458.67
745.97	1466.86
746.155	1352.17
746.34	1419.75
746.525	1327.6
746.71	1327.6
746.895	1362.41
747.079	1305.07
747.264	1343.98
747.449	1307.12
747.634	1473
747.819	1446.38
748.003	1403.37
748.188	1276.4
748.373	1341.93
748.557	1268.2
748.742	1429.99
748.927	1296.88
749.111	1300.97
749.296	1262.06
749.481	1274.35
749.665	1323.5
749.85	1300.97
750.034	1257.96
750.219	1292.78
750.404	1223.15
750.588	1243.63
750.773	1284.59
750.957	1165.81
751.141	1128.94
751.326	1174
751.51	1143.28
751.695	1243.63
751.879	1237.49
752.064	1231.34
752.248	1139.18
752.432	1180.14
752.617	1147.37
752.801	1251.82
752.985	1049.07
753.17	1171.95
753.354	1137.13
753.538	1114.61
753.722	1085.94
753.907	1155.57
754.091	963.06
754.275	1032.69
754.459	1085.94
754.643	1059.31
754.828	1163.76
755.012	1010.16
755.196	1053.17
755.38	1016.3
755.564	963.06
755.748	1065.46
755.932	987.63
756.116	983.54
756.3	1073.65
756.484	1006.06
756.668	1055.22
756.852	1022.45
757.036	934.39
757.22	1032.69
757.404	1020.4
757.588	1030.64
757.772	883.19
757.956	1057.26
758.14	1096.18
758.323	881.14
758.507	881.14
758.691	989.68
758.875	954.87
759.059	969.2
759.242	934.39
759.426	956.91
759.61	932.34
759.794	834.04
759.977	836.08
760.161	975.35
760.345	903.67
760.528	874.99
760.712	874.99
760.895	901.62
761.079	850.42
761.263	895.47
761.446	858.61
761.63	811.51
761.813	862.71
761.997	748.02
762.18	868.85
762.364	846.32
762.547	819.7
762.731	807.41
762.914	825.84
763.098	827.89
763.281	811.51
763.464	836.08
763.648	932.34
763.831	860.66
764.015	705.01
764.198	791.03
764.381	813.56
764.564	780.79
764.748	702.97
764.931	834.04
765.114	737.78
765.297	850.42
765.481	745.97
765.664	776.69
765.847	694.77
766.03	721.4
766.213	752.12
766.397	862.71
766.58	774.64
766.763	805.36
766.946	758.26
767.129	725.49
767.312	752.12
767.495	698.87
767.678	702.97
767.861	748.02
768.044	745.97
768.227	803.32
768.41	764.4
768.593	698.87
768.776	829.94
768.959	633.33
769.142	739.83
769.324	715.25
769.507	737.78
769.69	649.72
769.873	702.97
770.056	774.64
770.239	719.35
770.421	727.54
770.604	707.06
770.787	651.77
770.97	696.82
771.152	670.2
771.335	633.33
771.518	639.48
771.7	745.97
771.883	672.25
772.066	639.48
772.248	670.2
772.431	668.15
772.613	682.49
772.796	688.63
772.978	698.87
773.161	649.72
773.343	672.25
773.526	643.57
773.708	608.76
773.891	645.62
774.073	639.48
774.256	614.9
774.438	731.64
774.621	604.66
774.803	729.59
774.985	633.33
775.168	647.67
775.35	715.25
775.532	621.05
775.715	580.09
775.897	575.99
776.079	614.9
776.261	721.4
776.444	623.09
776.626	623.09
776.808	575.99
776.99	522.74
777.173	526.84
777.355	451.07
777.537	598.52
777.719	535.03
777.901	580.09
778.083	545.27
778.265	545.27
778.447	600.57
778.629	514.55
778.811	457.21
778.993	557.56
779.175	459.26
779.357	512.5
779.539	473.59
779.721	473.59
779.903	481.78
780.085	475.64
780.267	545.27
780.449	483.83
780.631	408.06
780.812	489.98
780.994	506.36
781.176	492.02
781.358	391.67
781.54	471.54
781.721	446.97
781.903	512.5
782.085	518.65
782.267	522.74
782.448	403.96
782.63	389.63
782.812	483.83
782.993	403.96
783.175	436.73
783.357	420.35
783.538	516.6
783.72	391.67
783.901	399.87
784.083	432.63
784.264	438.78
784.446	322.04
784.627	399.87
784.809	416.25
784.99	387.58
785.172	350.71
785.353	449.02
785.535	330.23
785.716	401.91
785.897	440.83
786.079	420.35
786.26	342.52
786.441	371.19
786.623	293.37
786.804	346.62
786.985	358.91
787.167	358.91
787.348	408.06
787.529	330.23
787.71	428.54
787.891	293.37
788.073	420.35
788.254	301.56
788.435	301.56
788.616	330.23
788.797	360.95
788.978	270.84
789.159	395.77
789.34	344.57
789.522	354.81
789.703	289.28
789.884	276.99
790.065	354.81
790.246	303.61
790.427	295.42
790.607	272.89
790.788	360.95
790.969	287.23
791.15	293.37
791.331	231.93
791.512	332.28
791.693	307.71
791.874	313.85
792.054	344.57
792.235	315.9
792.416	266.75
792.597	262.65
792.778	307.71
792.958	350.71
793.139	248.32
793.32	260.6
793.5	274.94
793.681	252.41
793.862	262.65
794.042	260.6
794.223	211.45
794.404	289.28
794.584	227.84
794.765	227.84
794.945	178.69
795.126	254.46
795.306	250.36
795.487	287.23
795.667	242.17
795.848	217.6
796.028	244.22
796.209	227.84
796.389	315.9
796.57	217.6
796.75	297.47
796.93	295.42
797.111	227.84
797.291	180.73
797.471	279.04
797.652	219.64
797.832	188.93
798.012	219.64
798.192	182.78
798.373	203.26
798.553	129.53
798.733	274.94
798.913	147.97
799.093	231.93
799.274	166.4
799.454	178.69
799.634	240.12
799.814	225.79
799.994	266.75
800.174	301.56
800.354	211.45
800.534	244.22
800.714	252.41
800.894	195.07
801.074	162.3
801.254	207.36
801.434	211.45
801.614	162.3
801.794	180.73
801.974	688.63
802.154	240.12
802.334	203.26
802.514	207.36
802.693	184.83
802.873	162.3
803.053	293.37
803.233	184.83
803.413	205.31
803.592	213.5
803.772	213.5
803.952	170.49
804.131	162.3
804.311	203.26
804.491	211.45
804.67	117.25
804.85	172.54
805.03	252.41
805.209	211.45
805.389	156.16
805.568	164.35
805.748	180.73
805.928	170.49
806.107	244.22
806.287	111.1
806.466	113.15
806.646	145.92
806.825	207.36
807.004	141.82
807.184	133.63
807.363	135.68
807.543	180.73
807.722	131.58
807.901	90.62
808.081	104.96
808.26	88.57
808.439	109.05
808.619	143.87
808.798	211.45
808.977	131.58
809.156	186.88
809.336	135.68
809.515	270.84
809.694	193.02
809.873	119.29
810.052	209.4
810.231	156.16
810.411	143.87
810.59	160.25
810.769	168.45
810.948	180.73
811.127	90.62
811.306	98.81
811.485	117.25
811.664	109.05
811.843	152.06
812.022	129.53
812.201	96.77
812.38	141.82
812.559	125.44
812.737	92.67
812.916	145.92
813.095	152.06
813.274	139.77
813.453	119.29
813.632	119.29
813.811	121.34
813.989	104.96
814.168	170.49
814.347	72.19
814.526	137.73
814.704	170.49
814.883	131.58
815.062	94.72
815.24	162.3
815.419	139.77
815.598	170.49
815.776	90.62
815.955	199.16
816.133	27.14
816.312	145.92
816.49	139.77
816.669	78.33
816.847	64
817.026	150.01
817.204	137.73
817.383	150.01
817.561	59.9
817.74	113.15
817.918	53.76
818.097	119.29
818.275	137.73
818.453	64
818.632	104.96
818.81	76.29
818.988	107.01
819.167	76.29
819.345	84.48
819.523	72.19
819.701	90.62
819.879	72.19
820.058	90.62
820.236	72.19
820.414	113.15
820.592	59.9
820.77	92.67
820.948	94.72
821.127	82.43
821.305	86.53
821.483	76.29
821.661	119.29
821.839	45.57
822.017	88.57
822.195	51.71
822.373	107.01
822.551	61.95
822.729	100.86
822.907	115.2
823.085	107.01
823.262	135.68
823.44	70.14
823.618	98.81
823.796	80.38
823.974	61.95
824.152	55.81
824.329	61.95
824.507	57.86
824.685	82.43
824.863	2.56
825.04	76.29
825.218	127.49
825.396	92.67
825.574	104.96
825.751	92.67
825.929	92.67
826.107	-81.41
826.284	27.14
826.462	94.72
826.639	102.91
826.817	8.7
826.994	76.29
827.172	16.9
827.349	92.67
827.527	76.29
827.704	117.25
827.882	-1.54
828.059	72.19
828.237	6.66
828.414	96.77
828.591	49.66
828.769	115.2
828.946	16.9
829.124	61.95
829.301	76.29
829.478	117.25
829.655	14.85
829.833	-34.3
830.01	4.61
830.187	39.42
830.364	45.57
830.542	-52.74
830.719	4.61
830.896	107.01
831.073	55.81
831.25	72.19
831.427	111.1
831.604	41.47
831.782	139.77
831.959	31.23
832.136	102.91
832.313	70.14
832.49	14.85
832.667	104.96
832.844	45.57
833.021	86.53
833.198	2.56
833.374	145.92
833.551	55.81
833.728	51.71
833.905	168.45
834.082	61.95
834.259	92.67
834.436	39.42
834.612	49.66
834.789	45.57
834.966	57.86
835.143	51.71
835.319	43.52
835.496	43.52
835.673	68.09
835.85	84.48
836.026	82.43
836.203	55.81
836.38	53.76
836.556	57.86
836.733	55.81
836.909	80.38
837.086	14.85
837.262	35.33
837.439	96.77
837.616	14.85
837.792	88.57
837.968	10.75
838.145	57.86
838.321	49.66
838.498	92.67
838.674	4.61
838.851	78.33
839.027	49.66
839.203	35.33
839.38	107.01
839.556	6.66
839.732	127.49
839.909	123.39
840.085	115.2
840.261	20.99
840.437	41.47
840.614	55.81
840.79	35.33
840.966	68.09
841.142	64
841.318	10.75
841.494	47.62
841.671	94.72
841.847	8.7
842.023	12.8
842.199	49.66
842.375	55.81
842.551	10.75
842.727	-9.73
842.903	14.85
843.079	84.48
843.255	57.86
843.431	12.8
843.607	51.71
843.783	-13.82
843.959	33.28
844.134	2.56
844.31	111.1
844.486	4.61
844.662	84.48
844.838	0.51
845.013	45.57
845.189	-5.63
845.365	68.09
845.541	29.18
845.716	57.86
845.892	51.71
846.068	2.56
846.244	12.8
846.419	125.44
846.595	-3.58
846.77	-11.78
846.946	47.62
847.122	-9.73
847.297	-40.45
847.473	68.09
847.648	18.94
847.824	25.09
847.999	-3.58
848.175	25.09
848.35	10.75
848.526	23.04
848.701	43.52
848.876	-19.97
849.052	12.8
849.227	2.56
849.403	23.04
849.578	31.23
849.753	39.42
849.929	76.29
850.104	16.9
850.279	33.28
850.454	-5.63
850.63	119.29
850.805	96.77
850.98	25.09
851.155	-17.92
851.33	14.85
851.505	55.81
851.681	8.7
851.856	-5.63
852.031	61.95
852.206	6.66
852.381	16.9
852.556	0.51
852.731	66.05
852.906	49.66
853.081	23.04
853.256	43.52
853.431	104.96
853.606	-19.97
853.781	-32.26
853.956	12.8
854.131	37.38
854.305	0.51
854.48	47.62
854.655	-26.11
854.83	-40.45
855.005	-46.59
855.18	6.66
855.354	12.8
855.529	70.14
855.704	33.28
855.879	59.9
856.053	29.18
856.228	18.94
856.403	20.99
856.577	84.48
856.752	-62.98
856.926	70.14
857.101	33.28
857.276	41.47
857.45	-40.45
857.625	92.67
857.799	37.38
857.974	-22.02
858.148	68.09
858.323	-5.63
858.497	-13.82
858.672	41.47
858.846	6.66
859.02	23.04
859.195	-65.02
859.369	18.94
859.543	25.09
859.718	16.9
859.892	59.9
860.066	16.9
860.241	-22.02
860.415	123.39
860.589	31.23
860.763	12.8
860.938	-87.55
861.112	61.95
861.286	-32.26
861.46	14.85
861.634	-7.68
861.808	20.99
861.982	20.99
862.157	64
862.331	-36.35
862.505	-54.78
862.679	6.66
862.853	10.75
863.027	33.28
863.201	35.33
863.375	-30.21
863.549	20.99
863.722	35.33
863.896	88.57
864.07	33.28
864.244	6.66
864.418	-15.87
864.592	37.38
864.766	-9.73
864.939	31.23
865.113	-11.78
865.287	49.66
865.461	2.56
865.634	-15.87
865.808	-13.82
865.982	49.66
866.156	-1.54
866.329	80.38
866.503	-26.11
866.676	43.52
866.85	57.86
867.024	4.61
867.197	-60.93
867.371	82.43
867.544	-5.63
867.718	-1.54
867.891	57.86
868.065	39.42
868.238	23.04
868.412	104.96
868.585	-38.4
868.759	6.66
868.932	-3.58
869.105	35.33
869.279	-17.92
869.452	35.33
869.625	51.71
869.799	-5.63
869.972	-1.54
870.145	59.9
870.319	-40.45
870.492	-5.63
870.665	16.9
870.838	31.23
871.011	-34.3
871.185	86.53
871.358	-48.64
871.531	33.28
871.704	0.51
871.877	29.18
872.05	-11.78
872.223	29.18
872.396	-5.63
872.569	31.23
872.742	-11.78
872.915	70.14
873.088	74.24
873.261	74.24
873.434	57.86
873.607	6.66
873.78	43.52
873.953	31.23
874.126	-5.63
874.299	14.85
874.471	-73.21
874.644	27.14
874.817	23.04
874.99	43.52
875.163	-9.73
875.335	6.66
875.508	33.28
875.681	31.23
875.853	31.23
876.026	2.56
876.199	27.14
876.371	16.9
876.544	-15.87
876.717	39.42
876.889	41.47
877.062	27.14
877.234	-32.26
877.407	-9.73
877.579	43.52
877.752	41.47
877.924	76.29
878.097	6.66
878.269	-1.54
878.442	121.34
878.614	68.09
878.786	-15.87
878.959	33.28
879.131	2.56
879.303	-24.06
879.476	29.18
879.648	-13.82
879.82	16.9
879.993	-36.35
880.165	-34.3
880.337	-1.54
880.509	41.47
880.681	2.56
880.854	-28.16
881.026	2.56
881.198	37.38
881.37	-32.26
881.542	23.04
881.714	8.7
881.886	-5.63
882.058	-36.35
882.23	49.66
882.402	27.14
882.574	-19.97
882.746	35.33
882.918	64
883.09	35.33
883.262	25.09
883.434	-5.63
883.606	10.75
883.778	-48.64
883.95	47.62
884.122	-38.4
884.293	25.09
884.465	35.33
884.637	10.75
884.809	-36.35
884.98	-54.78
885.152	37.38
885.324	-28.16
885.496	-22.02
885.667	72.19
885.839	64
886.011	84.48
886.182	-54.78
886.354	-24.06
886.525	-60.93
886.697	35.33
886.869	-22.02
887.04	18.94
887.212	2.56
887.383	100.86
887.555	-11.78
887.726	-28.16
887.897	-28.16
888.069	-24.06
888.24	-42.5
888.412	-1.54
888.583	68.09
888.754	74.24
888.926	-42.5
889.097	-40.45
889.268	25.09
889.44	-11.78
889.611	-32.26
889.782	-1.54
889.953	35.33
890.125	66.05
890.296	-1.54
890.467	43.52
890.638	-71.17
890.809	-34.3
890.98	-9.73
891.151	47.62
891.323	-38.4
891.494	14.85
891.665	-9.73
891.836	14.85
892.007	-56.83
892.178	31.23
892.349	64
892.52	-71.17
892.691	-52.74
892.862	-50.69
893.032	-38.4
893.203	57.86
893.374	-1.54
893.545	-1.54
893.716	-54.78
893.887	31.23
894.057	16.9
894.228	66.05
894.399	8.7
894.57	35.33
894.74	-58.88
894.911	6.66
895.082	-48.64
895.253	-50.69
895.423	-38.4
895.594	70.14
895.764	0.51
895.935	-22.02
896.106	10.75
896.276	20.99
896.447	39.42
896.617	-46.59
896.788	-48.64
896.958	-17.92
897.129	-7.68
897.299	-13.82
897.47	12.8
897.64	8.7
897.81	-67.07
897.981	61.95
898.151	-40.45
898.322	51.71
898.492	-40.45
898.662	12.8
898.832	39.42
899.003	-52.74
899.173	18.94
899.343	-7.68
899.513	-3.58
