Data from USB4F104151__29__13-10-48-404.txt Node

Date: Fri Mar 14 13:10:48 EDT 2025
User: louis
Spectrometer: USB4F10415
Trigger mode: 4
Integration Time (sec): 2.000000E-2
Scans to average: 1
Electric dark correction enabled: true
Nonlinearity correction enabled: false
Boxcar width: 0
XAxis mode: Wavelengths
Number of Pixels in Spectrum: 3648
>>>>>Begin Spectral Data<<<<<
178.204	-33.62
178.424	-33.62
178.644	-33.62
178.864	-138.07
179.084	-54.1
179.304	1.19
179.524	-47.96
179.744	-47.96
179.964	122.02
180.184	-62.29
180.404	-27.48
180.624	-17.24
180.844	31.91
181.064	1.19
181.283	23.72
181.503	-11.09
181.723	33.96
181.943	21.67
182.163	17.58
182.383	-23.38
182.602	62.63
182.822	-11.09
183.042	46.25
183.262	25.77
183.482	56.49
183.701	-23.38
183.921	23.72
184.141	-47.96
184.361	48.3
184.58	87.21
184.8	29.87
185.02	54.44
185.239	31.91
185.459	21.67
185.679	95.4
185.898	103.59
186.118	29.87
186.338	31.91
186.557	95.4
186.777	29.87
186.997	50.35
187.216	-0.85
187.436	-23.38
187.655	-11.09
187.875	19.63
188.095	81.07
188.314	87.21
188.534	87.21
188.753	64.68
188.973	-7
189.192	87.21
189.412	93.35
189.631	58.54
189.851	-2.9
190.07	144.55
190.29	5.29
190.509	23.72
190.729	50.35
190.948	46.25
191.168	130.22
191.387	66.73
191.607	13.48
191.826	72.87
192.045	-2.9
192.265	56.49
192.484	11.43
192.704	70.83
192.923	-11.09
193.142	95.4
193.362	62.63
193.581	101.55
193.8	15.53
194.02	50.35
194.239	58.54
194.458	70.83
194.678	5.29
194.897	44.2
195.116	62.63
195.335	48.3
195.555	50.35
195.774	21.67
195.993	56.49
196.212	79.02
196.432	60.59
196.651	48.3
196.87	-4.95
197.089	134.31
197.308	31.91
197.528	54.44
197.747	36.01
197.966	72.87
198.185	113.83
198.404	-23.38
198.623	-2.9
198.842	7.34
199.062	50.35
199.281	60.59
199.5	42.15
199.719	101.55
199.938	83.11
200.157	15.53
200.376	-11.09
200.595	40.11
200.814	-21.33
201.033	-7
201.252	76.97
201.471	38.06
201.69	-23.38
201.909	79.02
202.128	54.44
202.347	122.02
202.566	-13.14
202.785	-21.33
203.004	38.06
203.223	27.82
203.442	38.06
203.661	23.72
203.879	-17.24
204.098	33.96
204.317	15.53
204.536	64.68
204.755	66.73
204.974	83.11
205.193	72.87
205.411	15.53
205.63	62.63
205.849	52.39
206.068	25.77
206.287	-0.85
206.505	93.35
206.724	95.4
206.943	21.67
207.162	42.15
207.381	-0.85
207.599	42.15
207.818	56.49
208.037	15.53
208.255	-23.38
208.474	38.06
208.693	95.4
208.911	83.11
209.13	62.63
209.349	46.25
209.567	27.82
209.786	33.96
210.005	-50
210.223	87.21
210.442	-2.9
210.661	38.06
210.879	66.73
211.098	66.73
211.316	38.06
211.535	13.48
211.753	111.78
211.972	97.45
212.191	-23.38
212.409	103.59
212.628	5.29
212.846	70.83
213.065	-29.52
213.283	15.53
213.502	21.67
213.72	21.67
213.938	3.24
214.157	36.01
214.375	15.53
214.594	17.58
214.812	68.78
215.031	64.68
215.249	70.83
215.467	9.39
215.686	83.11
215.904	85.16
216.122	13.48
216.341	162.98
216.559	68.78
216.778	21.67
216.996	27.82
217.214	19.63
217.432	-19.29
217.651	83.11
217.869	33.96
218.087	3.24
218.306	11.43
218.524	87.21
218.742	42.15
218.96	33.96
219.179	46.25
219.397	56.49
219.615	89.26
219.833	76.97
220.051	-23.38
220.27	36.01
220.488	38.06
220.706	60.59
220.924	5.29
221.142	54.44
221.36	87.21
221.578	134.31
221.796	-33.62
222.015	126.12
222.233	93.35
222.451	89.26
222.669	9.39
222.887	31.91
223.105	3.24
223.323	56.49
223.541	-47.96
223.759	115.88
223.977	31.91
224.195	-11.09
224.413	-11.09
224.631	66.73
224.849	23.72
225.067	87.21
225.285	38.06
225.503	111.78
225.721	-39.76
225.939	19.63
226.157	38.06
226.375	117.93
226.592	56.49
226.81	66.73
227.028	101.55
227.246	128.17
227.464	33.96
227.682	31.91
227.9	85.16
228.117	19.63
228.335	5.29
228.553	93.35
228.771	31.91
228.989	62.63
229.206	48.3
229.424	5.29
229.642	-17.24
229.86	40.11
230.077	99.5
230.295	58.54
230.513	91.31
230.731	156.84
230.948	48.3
231.166	130.22
231.384	42.15
231.601	42.15
231.819	31.91
232.037	81.07
232.254	79.02
232.472	15.53
232.689	54.44
232.907	36.01
233.125	33.96
233.342	33.96
233.56	117.93
233.777	64.68
233.995	-9.05
234.213	154.79
234.43	70.83
234.648	64.68
234.865	85.16
235.083	79.02
235.3	62.63
235.518	113.83
235.735	130.22
235.953	70.83
236.17	31.91
236.388	38.06
236.605	3.24
236.822	81.07
237.04	54.44
237.257	70.83
237.475	9.39
237.692	23.72
237.909	9.39
238.127	38.06
238.344	44.2
238.562	103.59
238.779	85.16
238.996	48.3
239.214	48.3
239.431	113.83
239.648	7.34
239.865	50.35
240.083	66.73
240.3	54.44
240.517	29.87
240.735	66.73
240.952	56.49
241.169	89.26
241.386	79.02
241.603	60.59
241.821	-9.05
242.038	46.25
242.255	111.78
242.472	-0.85
242.689	29.87
242.907	62.63
243.124	74.92
243.341	91.31
243.558	44.2
243.775	13.48
243.992	27.82
244.209	64.68
244.426	76.97
244.643	54.44
244.86	15.53
245.078	27.82
245.295	-11.09
245.512	23.72
245.729	-15.19
245.946	46.25
246.163	85.16
246.38	54.44
246.597	21.67
246.814	-17.24
247.031	27.82
247.248	13.48
247.464	-0.85
247.681	40.11
247.898	58.54
248.115	113.83
248.332	29.87
248.549	66.73
248.766	54.44
248.983	83.11
249.2	68.78
249.417	7.34
249.633	11.43
249.85	76.97
250.067	62.63
250.284	68.78
250.501	11.43
250.717	-2.9
250.934	27.82
251.151	-68.44
251.368	76.97
251.585	83.11
251.801	9.39
252.018	99.5
252.235	93.35
252.451	48.3
252.668	48.3
252.885	40.11
253.102	103.59
253.318	50.35
253.535	124.07
253.752	62.63
253.968	115.88
254.185	103.59
254.401	50.35
254.618	113.83
254.835	-19.29
255.051	66.73
255.268	68.78
255.484	72.87
255.701	15.53
255.917	-0.85
256.134	23.72
256.351	56.49
256.567	56.49
256.784	13.48
257	70.83
257.217	148.65
257.433	81.07
257.65	70.83
257.866	52.39
258.082	87.21
258.299	19.63
258.515	70.83
258.732	11.43
258.948	-7
259.165	66.73
259.381	31.91
259.597	58.54
259.814	27.82
260.03	56.49
260.246	-11.09
260.463	62.63
260.679	87.21
260.895	27.82
261.112	52.39
261.328	42.15
261.544	-19.29
261.761	54.44
261.977	70.83
262.193	7.34
262.409	48.3
262.626	5.29
262.842	83.11
263.058	66.73
263.274	83.11
263.49	66.73
263.707	-21.33
263.923	89.26
264.139	-33.62
264.355	-7
264.571	115.88
264.787	-11.09
265.004	11.43
265.22	101.55
265.436	89.26
265.652	-33.62
265.868	13.48
266.084	-25.43
266.3	99.5
266.516	27.82
266.732	68.78
266.948	3.24
267.164	44.2
267.38	56.49
267.596	126.12
267.812	124.07
268.028	81.07
268.244	52.39
268.46	101.55
268.676	29.87
268.892	36.01
269.108	5.29
269.324	25.77
269.54	36.01
269.756	50.35
269.972	33.96
270.188	72.87
270.403	56.49
270.619	74.92
270.835	136.36
271.051	19.63
271.267	-11.09
271.483	54.44
271.698	-35.67
271.914	144.55
272.13	56.49
272.346	31.91
272.562	13.48
272.777	52.39
272.993	62.63
273.209	70.83
273.425	15.53
273.64	7.34
273.856	95.4
274.072	29.87
274.287	-25.43
274.503	111.78
274.719	83.11
274.934	-11.09
275.15	38.06
275.366	89.26
275.581	21.67
275.797	62.63
276.012	66.73
276.228	17.58
276.444	62.63
276.659	62.63
276.875	74.92
277.09	31.91
277.306	21.67
277.521	95.4
277.737	-39.76
277.952	-0.85
278.168	-27.48
278.383	46.25
278.599	46.25
278.814	17.58
279.03	29.87
279.245	93.35
279.461	27.82
279.676	64.68
279.892	60.59
280.107	62.63
280.322	29.87
280.538	58.54
280.753	19.63
280.969	68.78
281.184	31.91
281.399	91.31
281.615	23.72
281.83	31.91
282.045	33.96
282.26	-0.85
282.476	87.21
282.691	1.19
282.906	76.97
283.122	48.3
283.337	1.19
283.552	29.87
283.767	44.2
283.983	89.26
284.198	29.87
284.413	1.19
284.628	-19.29
284.843	62.63
285.058	27.82
285.274	68.78
285.489	48.3
285.704	46.25
285.919	21.67
286.134	50.35
286.349	111.78
286.564	60.59
286.779	89.26
286.995	72.87
287.21	70.83
287.425	93.35
287.64	40.11
287.855	91.31
288.07	29.87
288.285	38.06
288.5	79.02
288.715	91.31
288.93	31.91
289.145	-19.29
289.36	13.48
289.575	72.87
289.79	40.11
290.004	7.34
290.219	74.92
290.434	-17.24
290.649	89.26
290.864	36.01
291.079	44.2
291.294	-4.95
291.509	79.02
291.724	93.35
291.938	70.83
292.153	44.2
292.368	-4.95
292.583	66.73
292.798	50.35
293.012	95.4
293.227	74.92
293.442	31.91
293.657	97.45
293.871	79.02
294.086	70.83
294.301	128.17
294.516	91.31
294.73	74.92
294.945	-7
295.16	64.68
295.374	13.48
295.589	83.11
295.804	93.35
296.018	54.44
296.233	50.35
296.447	64.68
296.662	72.87
296.877	42.15
297.091	40.11
297.306	79.02
297.52	23.72
297.735	68.78
297.949	62.63
298.164	169.13
298.378	17.58
298.593	23.72
298.807	15.53
299.022	107.69
299.236	115.88
299.451	54.44
299.665	-4.95
299.88	56.49
300.094	1.19
300.309	95.4
300.523	1.19
300.737	89.26
300.952	46.25
301.166	83.11
301.381	-35.67
301.595	40.11
301.809	25.77
302.024	-52.05
302.238	1.19
302.452	27.82
302.667	42.15
302.881	89.26
303.095	76.97
303.309	-19.29
303.524	60.59
303.738	42.15
303.952	50.35
304.166	17.58
304.381	17.58
304.595	85.16
304.809	17.58
305.023	-41.81
305.237	52.39
305.452	29.87
305.666	17.58
305.88	83.11
306.094	54.44
306.308	38.06
306.522	87.21
306.736	105.64
306.95	58.54
307.164	122.02
307.379	62.63
307.593	52.39
307.807	68.78
308.021	42.15
308.235	19.63
308.449	85.16
308.663	31.91
308.877	138.41
309.091	17.58
309.305	72.87
309.519	38.06
309.733	36.01
309.947	33.96
310.161	56.49
310.374	64.68
310.588	54.44
310.802	7.34
311.016	46.25
311.23	-17.24
311.444	66.73
311.658	62.63
311.872	27.82
312.085	148.65
312.299	79.02
312.513	93.35
312.727	40.11
312.941	-13.14
313.154	91.31
313.368	-17.24
313.582	95.4
313.796	-13.14
314.009	36.01
314.223	46.25
314.437	27.82
314.651	79.02
314.864	60.59
315.078	103.59
315.292	-17.24
315.505	21.67
315.719	136.36
315.933	68.78
316.146	31.91
316.36	-0.85
316.573	36.01
316.787	17.58
317.001	95.4
317.214	48.3
317.428	58.54
317.641	1.19
317.855	7.34
318.068	72.87
318.282	89.26
318.495	38.06
318.709	13.48
318.922	-15.19
319.136	27.82
319.349	19.63
319.563	79.02
319.776	99.5
319.99	46.25
320.203	3.24
320.417	31.91
320.63	87.21
320.843	87.21
321.057	38.06
321.27	60.59
321.483	70.83
321.697	62.63
321.91	62.63
322.124	48.3
322.337	95.4
322.55	83.11
322.763	23.72
322.977	103.59
323.19	5.29
323.403	74.92
323.617	40.11
323.83	158.89
324.043	-2.9
324.256	52.39
324.469	-4.95
324.683	64.68
324.896	-9.05
325.109	64.68
325.322	-35.67
325.535	44.2
325.748	72.87
325.962	29.87
326.175	72.87
326.388	95.4
326.601	9.39
326.814	33.96
327.027	25.77
327.24	66.73
327.453	3.24
327.666	42.15
327.879	93.35
328.092	95.4
328.305	60.59
328.518	40.11
328.731	17.58
328.944	66.73
329.157	50.35
329.37	107.69
329.583	107.69
329.796	87.21
330.009	52.39
330.222	117.93
330.435	83.11
330.648	89.26
330.861	103.59
331.073	74.92
331.286	50.35
331.499	70.83
331.712	44.2
331.925	40.11
332.138	89.26
332.35	-11.09
332.563	81.07
332.776	107.69
332.989	62.63
333.202	58.54
333.414	31.91
333.627	152.74
333.84	46.25
334.053	72.87
334.265	62.63
334.478	58.54
334.691	52.39
334.903	128.17
335.116	83.11
335.329	97.45
335.541	85.16
335.754	33.96
335.966	5.29
336.179	64.68
336.392	56.49
336.604	11.43
336.817	3.24
337.029	38.06
337.242	58.54
337.454	87.21
337.667	68.78
337.88	48.3
338.092	103.59
338.305	74.92
338.517	54.44
338.729	89.26
338.942	40.11
339.154	38.06
339.367	46.25
339.579	31.91
339.792	25.77
340.004	17.58
340.217	76.97
340.429	103.59
340.641	-4.95
340.854	40.11
341.066	91.31
341.278	79.02
341.491	99.5
341.703	62.63
341.915	11.43
342.128	70.83
342.34	44.2
342.552	62.63
342.764	21.67
342.977	134.31
343.189	83.11
343.401	81.07
343.613	-7
343.826	72.87
344.038	60.59
344.25	62.63
344.462	31.91
344.674	36.01
344.886	46.25
345.099	76.97
345.311	54.44
345.523	38.06
345.735	44.2
345.947	-0.85
346.159	21.67
346.371	93.35
346.583	42.15
346.795	58.54
347.007	97.45
347.219	122.02
347.431	11.43
347.643	33.96
347.855	-37.72
348.067	117.93
348.279	38.06
348.491	38.06
348.703	74.92
348.915	15.53
349.127	36.01
349.339	119.98
349.551	48.3
349.763	122.02
349.975	70.83
350.187	23.72
350.399	70.83
350.61	58.54
350.822	7.34
351.034	72.87
351.246	76.97
351.458	54.44
351.669	85.16
351.881	81.07
352.093	70.83
352.305	99.5
352.517	1.19
352.728	105.64
352.94	79.02
353.152	-7
353.363	7.34
353.575	72.87
353.787	87.21
353.999	76.97
354.21	58.54
354.422	93.35
354.633	-9.05
354.845	48.3
355.057	136.36
355.268	-2.9
355.48	76.97
355.692	103.59
355.903	13.48
356.115	38.06
356.326	64.68
356.538	126.12
356.749	60.59
356.961	33.96
357.172	13.48
357.384	103.59
357.595	60.59
357.807	62.63
358.018	56.49
358.23	107.69
358.441	56.49
358.653	-11.09
358.864	74.92
359.075	136.36
359.287	50.35
359.498	48.3
359.709	54.44
359.921	76.97
360.132	66.73
360.344	15.53
360.555	29.87
360.766	54.44
360.977	17.58
361.189	31.91
361.4	52.39
361.611	54.44
361.823	-15.19
362.034	-33.62
362.245	29.87
362.456	89.26
362.667	87.21
362.879	140.46
363.09	101.55
363.301	21.67
363.512	66.73
363.723	144.55
363.935	95.4
364.146	64.68
364.357	50.35
364.568	40.11
364.779	29.87
364.99	29.87
365.201	56.49
365.412	66.73
365.623	-33.62
365.834	-2.9
366.045	95.4
366.256	89.26
366.467	83.11
366.678	54.44
366.889	54.44
367.1	42.15
367.311	99.5
367.522	152.74
367.733	58.54
367.944	64.68
368.155	21.67
368.366	42.15
368.577	50.35
368.788	85.16
368.999	103.59
369.209	46.25
369.42	154.79
369.631	25.77
369.842	5.29
370.053	13.48
370.264	72.87
370.474	33.96
370.685	27.82
370.896	50.35
371.107	81.07
371.317	66.73
371.528	33.96
371.739	99.5
371.95	115.88
372.16	62.63
372.371	54.44
372.582	58.54
372.792	27.82
373.003	83.11
373.214	48.3
373.424	128.17
373.635	52.39
373.846	89.26
374.056	107.69
374.267	76.97
374.477	81.07
374.688	54.44
374.898	70.83
375.109	99.5
375.319	31.91
375.53	138.41
375.74	54.44
375.951	33.96
376.161	70.83
376.372	99.5
376.582	3.24
376.793	13.48
377.003	68.78
377.214	5.29
377.424	142.5
377.635	109.74
377.845	85.16
378.055	146.6
378.266	70.83
378.476	44.2
378.686	124.07
378.897	25.77
379.107	126.12
379.317	81.07
379.528	48.3
379.738	128.17
379.948	54.44
380.158	68.78
380.369	97.45
380.579	79.02
380.789	89.26
380.999	15.53
381.21	62.63
381.42	42.15
381.63	48.3
381.84	44.2
382.05	107.69
382.261	31.91
382.471	85.16
382.681	70.83
382.891	109.74
383.101	79.02
383.311	7.34
383.521	21.67
383.731	150.7
383.941	142.5
384.151	1.19
384.361	62.63
384.571	83.11
384.781	48.3
384.991	83.11
385.201	122.02
385.411	54.44
385.621	52.39
385.831	72.87
386.041	81.07
386.251	48.3
386.461	109.74
386.671	83.11
386.881	29.87
387.091	128.17
387.301	54.44
387.511	54.44
387.72	79.02
387.93	70.83
388.14	7.34
388.35	56.49
388.56	13.48
388.769	169.13
388.979	101.55
389.189	19.63
389.399	56.49
389.609	60.59
389.818	105.64
390.028	36.01
390.238	113.83
390.447	19.63
390.657	48.3
390.867	36.01
391.076	87.21
391.286	105.64
391.496	87.21
391.705	89.26
391.915	130.22
392.125	171.18
392.334	48.3
392.544	33.96
392.753	154.79
392.963	72.87
393.172	138.41
393.382	42.15
393.591	107.69
393.801	44.2
394.01	87.21
394.22	72.87
394.429	95.4
394.639	50.35
394.848	76.97
395.058	119.98
395.267	27.82
395.477	95.4
395.686	95.4
395.895	126.12
396.105	134.31
396.314	144.55
396.524	70.83
396.733	87.21
396.942	162.98
397.152	111.78
397.361	111.78
397.57	113.83
397.78	122.02
397.989	48.3
398.198	81.07
398.407	68.78
398.617	29.87
398.826	144.55
399.035	103.59
399.244	179.37
399.453	148.65
399.663	99.5
399.872	205.99
400.081	119.98
400.29	111.78
400.499	95.4
400.708	113.83
400.917	132.26
401.127	105.64
401.336	103.59
401.545	216.23
401.754	99.5
401.963	150.7
402.172	152.74
402.381	64.68
402.59	205.99
402.799	191.66
403.008	179.37
403.217	111.78
403.426	177.32
403.635	179.37
403.844	95.4
404.053	179.37
404.262	89.26
404.471	267.43
404.68	169.13
404.888	212.14
405.097	126.12
405.306	154.79
405.515	201.9
405.724	136.36
405.933	162.98
406.142	203.94
406.35	208.04
406.559	126.12
406.768	165.03
406.977	285.86
407.185	236.71
407.394	230.57
407.603	208.04
407.812	234.66
408.02	236.71
408.229	257.19
408.438	283.81
408.646	210.09
408.855	257.19
409.064	265.38
409.272	271.53
409.481	292.01
409.69	222.38
409.898	259.24
410.107	355.49
410.315	269.48
410.524	382.12
410.733	367.78
410.941	324.77
411.15	337.06
411.358	453.8
411.567	378.02
411.775	406.69
411.984	509.09
412.192	453.8
412.401	455.84
412.609	494.76
412.818	496.8
413.026	556.19
413.234	556.19
413.443	646.3
413.651	570.53
413.86	566.43
414.068	681.12
414.276	652.45
414.485	611.49
414.693	689.31
414.901	695.46
415.11	722.08
415.318	709.79
415.526	744.61
415.734	818.33
415.943	855.2
416.151	885.92
416.359	840.86
416.567	887.97
416.776	824.48
416.984	945.31
417.192	1047.71
417.4	1047.71
417.608	1049.75
417.817	1117.34
418.025	1154.2
418.233	1201.3
418.441	1039.51
418.649	1193.11
418.857	1377.43
419.065	1336.47
419.273	1322.13
419.481	1369.24
419.689	1469.59
419.897	1604.75
420.105	1578.13
420.313	1623.19
420.521	1594.51
420.729	1643.67
420.937	1916.05
421.145	1782.93
421.353	1889.42
421.561	1977.48
421.769	2043.02
421.977	2098.31
422.185	2108.55
422.393	2194.57
422.601	2331.78
422.809	2311.3
423.017	2311.3
423.224	2591.88
423.432	2542.72
423.64	2595.97
423.848	2763.9
424.056	2800.77
424.263	2786.43
424.471	2897.02
424.679	2923.65
424.887	3185.79
425.094	3241.08
425.302	3193.98
425.51	3349.62
425.718	3560.56
425.925	3628.15
426.133	3685.49
426.341	3937.39
426.548	3951.73
426.756	3978.35
426.964	4201.58
427.171	4232.3
427.379	4371.56
427.586	4521.06
427.794	4602.98
428.001	4865.12
428.209	5071.97
428.417	4858.98
428.624	5307.48
428.832	5424.22
429.039	5063.77
429.247	5512.28
429.454	5764.18
429.662	6118.48
429.869	5643.35
430.076	6235.21
430.284	6030.41
430.491	6274.12
430.699	6616.13
430.906	6573.13
431.114	6814.79
431.321	7017.54
431.528	7076.93
431.736	7330.87
431.943	7849.01
432.15	7513.14
432.358	7871.54
432.565	8229.93
432.772	8164.4
432.979	8510.5
433.187	8786.98
433.394	8889.38
433.601	9610.26
433.808	9458.71
434.016	9378.84
434.223	9755.67
434.43	10427.4
434.637	10204.17
434.844	10945.54
435.052	10886.15
435.259	10918.92
435.466	10988.55
435.673	10798.09
435.88	11582.46
436.087	12227.57
436.294	12194.8
436.501	11992.05
436.708	12252.14
436.915	12569.58
437.122	13239.26
437.329	13310.94
437.537	13571.04
437.743	13902.81
437.95	13648.86
438.157	14517.2
438.364	15041.48
438.571	15041.48
438.778	14789.58
438.985	16311.22
439.192	15770.55
439.399	16526.25
439.606	15905.72
439.813	16851.88
440.02	17918.87
440.227	17560.48
440.433	17249.19
440.64	18021.27
440.847	17925.02
441.054	18504.59
441.261	19415.94
441.467	19055.5
441.674	19596.16
441.881	20315
442.088	20095.86
442.294	19972.99
442.501	20403.06
442.708	21144.42
442.914	22012.76
443.121	22950.73
443.328	22268.76
443.534	23763.78
443.741	23081.8
443.948	22862.67
444.154	24593.2
444.361	24441.65
444.568	24693.55
444.774	24476.47
444.981	24867.63
445.187	25649.96
445.394	26585.88
445.6	26368.79
445.807	28693.24
446.013	27728.64
446.22	28066.56
446.426	29037.3
446.633	29508.33
446.839	30989.01
447.046	29364.97
447.252	30794.45
447.459	30812.88
447.665	30753.49
447.871	32404.16
448.078	33534.63
448.284	32027.33
448.491	33008.31
448.697	34269.86
448.903	35142.29
449.11	35209.87
449.316	34468.51
449.522	35164.82
449.728	36162.18
449.935	36524.67
450.141	36252.29
450.347	37010.04
450.553	35867.27
450.76	36407.94
450.966	37763.69
451.172	37483.12
451.378	38396.51
451.584	37741.16
451.791	38617.69
451.997	38496.86
452.203	38789.72
452.409	39033.43
452.615	39121.49
452.821	37548.65
453.027	37243.51
453.233	39176.79
453.44	38019.69
453.646	37808.75
453.852	38298.21
454.058	38806.11
454.264	37628.52
454.47	38859.35
454.676	37515.89
454.882	39164.5
455.088	35797.64
455.294	36305.54
455.5	36586.11
455.705	37139.06
455.911	35996.29
456.117	35089.04
456.323	34777.75
456.529	33049.27
456.735	34831
456.941	33391.28
457.147	32971.44
457.352	31881.92
457.558	31773.38
457.764	31560.39
457.97	31122.13
458.176	30522.07
458.381	30579.42
458.587	28963.57
458.793	29029.1
458.999	27708.16
459.204	29752.04
459.41	28773.11
459.616	26940.18
459.821	26671.89
460.027	26628.88
460.233	26125.08
460.438	24931.12
460.644	25086.76
460.85	23976.76
461.055	23790.4
461.261	23847.74
461.466	22076.25
461.672	21375.84
461.878	22879.05
462.083	21162.86
462.289	20802.41
462.494	20650.86
462.7	19587.97
462.905	19024.78
463.111	19895.16
463.316	20075.38
463.522	19436.42
463.727	19932.03
463.932	19391.36
464.138	19110.79
464.343	19309.44
464.549	18647.95
464.754	19174.28
464.959	18912.14
465.165	19004.3
465.37	18258.84
465.575	17533.86
465.781	18369.43
465.986	18779.02
466.191	17716.12
466.397	17570.72
466.602	16901.03
466.807	17490.85
467.012	17574.81
467.218	17419.17
467.423	17042.34
467.628	17361.83
467.833	17808.28
468.038	17453.98
468.244	16677.8
468.449	17421.22
468.654	16948.14
468.859	16663.47
469.064	16864.17
469.269	15965.11
469.474	15891.38
469.679	16446.38
469.885	15995.83
470.09	16460.72
470.295	16028.6
470.5	15844.28
470.705	15766.46
470.91	15573.95
471.115	15252.42
471.32	15532.99
471.525	15406.02
471.73	15147.97
471.935	15066.05
472.139	14685.13
472.344	14543.82
472.549	14658.51
472.754	14482.38
472.959	14031.83
473.164	13734.87
473.369	13659.1
473.574	14320.59
473.778	14113.75
473.983	13861.85
474.188	13937.62
474.393	13353.95
474.598	13251.55
474.802	13202.4
475.007	13083.62
475.212	13083.62
475.417	12723.18
475.621	12778.47
475.826	12768.23
476.031	12497.9
476.235	12403.69
476.44	12432.36
476.645	12354.54
476.849	12311.53
477.054	11895.8
477.259	11762.68
477.463	11711.48
477.668	11621.37
477.872	11736.06
478.077	11459.58
478.282	11209.73
478.486	11127.81
478.691	11236.35
478.895	11152.38
479.1	10925.06
479.304	11125.76
479.509	10712.07
479.713	10933.25
479.918	10611.72
480.122	10408.97
480.326	10554.38
480.531	10718.22
480.735	10296.33
480.94	10458.12
481.144	10646.54
481.348	10292.24
481.553	10284.05
481.757	10214.41
481.961	10230.8
482.166	10581
482.37	10492.94
482.574	10028.05
482.778	9970.71
482.983	10458.12
483.187	10144.78
483.391	10470.41
483.595	10210.32
483.8	9839.64
484.004	10282
484.208	10421.26
484.412	10191.89
484.616	10284.05
484.821	10159.12
485.025	10155.02
485.229	10191.89
485.433	10181.65
485.637	10140.69
485.841	10064.91
486.045	10030.1
486.249	10101.78
486.453	10140.69
486.657	10085.39
486.861	10191.89
487.065	10028.05
487.269	9894.93
487.473	9954.32
487.677	10355.72
487.881	10245.13
488.085	10134.54
488.289	10245.13
488.493	10130.45
488.697	10112.02
488.901	10159.12
489.105	10091.54
489.309	10103.82
489.512	10263.57
489.716	10251.28
489.92	10171.41
490.124	10187.79
490.328	10441.74
490.531	10116.11
490.735	10413.07
490.939	10484.75
491.143	10441.74
491.346	10540.04
491.55	10503.18
491.754	10415.12
491.958	10763.27
492.161	10671.11
492.365	10736.65
492.569	10736.65
492.772	10552.33
492.976	10912.77
493.18	11064.32
493.383	10984.45
493.587	11170.82
493.79	11066.37
493.994	10939.4
494.197	11203.58
494.401	11328.51
494.605	11129.86
494.808	11609.08
495.012	11475.96
495.215	11639.8
495.419	11717.62
495.622	11672.57
495.825	11535.35
496.029	11533.31
496.232	12092.4
496.436	11912.18
496.639	12450.8
496.843	12221.42
497.046	12448.75
497.249	12418.03
497.453	12667.88
497.656	12870.63
497.859	12837.86
498.063	13013.99
498.266	13200.35
498.469	13036.52
498.673	13337.57
498.876	13616.09
499.079	13589.47
499.282	13583.32
499.485	13824.98
499.689	14056.4
499.892	14328.78
500.095	14234.58
500.298	14601.16
500.501	14490.57
500.705	15021
500.908	15152.07
501.111	15162.31
501.314	15018.95
501.517	15246.27
501.72	15473.6
501.923	15502.27
502.126	15807.42
502.329	16135.09
502.532	16237.49
502.735	16196.53
502.938	16477.1
503.141	16546.73
503.344	16939.94
503.547	16872.36
503.75	17359.78
503.953	17574.81
504.156	17480.61
504.359	17896.35
504.562	17845.15
504.765	18228.12
504.968	18199.44
505.17	18623.37
505.373	18719.63
505.576	19065.74
505.779	19260.29
505.982	19143.56
506.185	19712.89
506.387	19919.74
506.59	19991.42
506.793	20437.87
506.996	20040.57
507.198	20933.48
507.401	20788.08
507.604	21298.02
507.807	21353.32
508.009	21314.41
508.212	21853.02
508.415	22041.43
508.617	22031.19
508.82	22129.5
509.022	22141.78
509.225	22639.44
509.428	23059.27
509.63	23348.04
509.833	23057.23
510.035	23610.18
510.238	23694.15
510.44	24091.45
510.643	24230.71
510.845	24458.04
511.048	24402.74
511.25	24611.64
511.453	25004.85
511.655	25869.09
511.858	25715.49
512.06	25983.77
512.262	26174.24
512.465	26131.23
512.667	26567.45
512.87	26639.12
513.072	26907.41
513.274	27706.12
513.477	27943.68
513.679	27495.18
513.881	28199.68
514.084	28300.03
514.286	28445.43
514.488	29041.39
514.69	29651.69
514.893	29559.53
515.095	29623.01
515.297	29975.27
515.499	29803.24
515.701	30571.22
515.904	30790.36
516.106	30907.09
516.308	31115.98
516.51	31599.3
516.712	31656.65
516.914	32174.78
517.116	32338.62
517.318	32983.73
517.52	32883.38
517.722	33268.4
517.925	33389.23
518.127	33905.32
518.329	33870.5
518.531	33974.95
518.733	34499.23
518.935	34726.55
519.136	34261.66
519.338	34964.12
519.54	35183.25
519.742	35932.81
519.944	35936.9
520.146	36610.68
520.348	36905.59
520.55	36905.59
520.752	37055.09
520.954	37284.47
521.155	37487.21
521.357	37976.68
521.559	38136.42
521.761	38662.75
521.963	38449.76
522.164	38830.68
522.366	38644.32
522.568	39137.88
522.77	39463.5
522.971	40170.05
523.173	39688.78
523.375	39877.19
523.576	40405.57
523.778	40329.8
523.98	40952.38
524.181	41200.18
524.383	41384.5
524.584	41413.17
524.786	41552.43
524.988	41591.34
525.189	42269.22
525.391	42607.14
525.592	42207.78
525.794	42936.86
525.995	42900
526.197	43080.22
526.398	43086.36
526.6	43387.41
526.801	43407.89
527.003	43708.94
527.204	43655.7
527.406	43997.71
527.607	43768.33
527.808	44384.77
528.01	43737.62
528.211	44229.13
528.412	45070.84
528.614	44460.55
528.815	44890.62
529.016	45478.39
529.218	44984.83
529.419	45251.06
529.62	44730.88
529.822	44919.29
530.023	45079.03
530.224	45017.6
530.425	45109.75
530.626	44823.04
530.828	45070.84
531.029	46219.75
531.23	45615.6
531.431	45357.56
531.632	45644.27
531.833	46062.06
532.035	46150.12
532.236	45656.56
532.437	46090.73
532.638	45652.47
532.839	46178.79
533.04	46158.31
533.241	45599.22
533.442	46387.69
533.643	45998.57
533.844	46025.2
534.045	46090.73
534.246	45445.62
534.447	46559.72
534.648	46019.05
534.849	46367.21
535.05	45902.32
535.251	46483.94
535.451	46244.33
535.652	46184.94
535.853	46264.81
536.054	46193.13
536.255	46508.52
536.456	45785.58
536.657	46662.11
536.857	46397.93
537.058	46295.53
537.259	46830.05
537.46	46649.83
537.66	46268.9
537.861	46516.71
538.062	46176.75
538.263	46234.09
538.463	46236.14
538.664	46488.04
538.865	46217.71
539.065	46737.89
539.266	45779.44
539.466	46514.66
539.667	45814.26
539.868	46701.03
540.068	46367.21
540.269	46080.49
540.469	46442.98
540.67	46215.66
540.87	46090.73
541.071	46062.06
541.271	46463.46
541.472	46080.49
541.672	46019.05
541.873	45926.89
542.073	45670.9
542.274	46537.19
542.474	45871.6
542.675	45824.5
542.875	46629.35
543.075	45797.87
543.276	45750.77
543.476	46424.55
543.676	45867.5
543.877	46223.85
544.077	46004.72
544.277	45662.71
544.478	45758.96
544.678	46127.59
544.878	46043.63
545.078	46133.74
545.279	45531.64
545.479	45625.84
545.679	45885.93
545.879	45535.73
546.079	46076.4
546.28	45894.13
546.48	45558.26
546.68	45830.64
546.88	46395.88
547.08	45978.09
547.28	45810.16
547.48	45519.35
547.68	45990.38
547.88	45220.34
548.081	45863.41
548.281	45935.09
548.481	45650.42
548.681	45797.87
548.881	45642.23
549.081	45652.47
549.28	45552.12
549.48	45851.12
549.68	45711.86
549.88	46074.35
550.08	45285.88
550.28	45947.37
550.48	45668.85
550.68	46035.44
550.88	45591.03
551.08	45521.4
551.279	45941.23
551.479	45543.92
551.679	45492.72
551.879	45111.8
552.079	45517.3
552.278	44968.44
552.478	45613.55
552.678	45001.21
552.878	45492.72
553.077	45486.58
553.277	44880.38
553.477	45992.43
553.676	45236.73
553.876	45095.42
554.076	45167.1
554.275	45441.53
554.475	44868.09
554.674	45296.12
554.874	45357.56
555.074	44927.49
555.273	45214.2
555.473	45582.84
555.672	45271.54
555.872	44550.66
556.071	44929.53
556.271	45322.74
556.47	44769.79
556.67	44765.7
556.869	44714.5
557.068	44857.85
557.268	44454.4
557.467	44597.76
557.667	44636.67
557.866	44481.03
558.065	44603.91
558.265	44493.32
558.464	44495.36
558.663	44556.8
558.863	43977.23
559.062	44526.08
559.261	43915.79
559.461	44831.23
559.66	43776.53
559.859	44444.16
560.058	44007.95
560.258	43823.63
560.457	43670.03
560.656	44034.57
560.855	43764.24
561.054	44108.3
561.253	43178.52
561.453	43321.88
561.652	43692.56
561.851	43872.78
562.05	43612.69
562.249	43237.91
562.448	43919.88
562.647	43139.61
562.846	43233.81
563.045	43618.83
563.244	42678.82
563.443	43342.36
563.642	42332.71
563.841	43217.43
564.04	42781.21
564.239	43096.6
564.438	42734.11
564.637	42977.82
564.836	43002.39
565.035	41847.34
565.234	42926.62
565.432	42234.41
565.631	42449.44
565.83	42476.07
566.029	42240.55
566.228	42054.18
566.427	42304.04
566.625	41695.79
566.824	41353.78
567.023	41984.55
567.222	41175.61
567.42	41773.61
567.619	41681.45
567.818	41065.02
568.016	41357.88
568.215	41587.25
568.414	41589.3
568.612	41443.89
568.811	41261.62
569.01	41251.38
569.208	40491.58
569.407	41257.53
569.605	40497.73
569.804	41361.97
570.002	40522.3
570.201	40659.52
570.4	40559.17
570.598	40137.29
570.797	40411.71
570.995	40809.02
571.193	39832.14
571.392	40358.47
571.59	39617.1
571.789	40100.42
571.987	39832.14
572.186	39709.26
572.384	39371.35
572.582	39703.12
572.781	39572.05
572.979	39287.38
573.177	39416.4
573.376	39303.76
573.574	38740.57
573.772	39043.67
573.971	38460
574.169	38683.23
574.367	38249.06
574.565	39139.93
574.763	38498.91
574.962	38804.06
575.16	38113.89
575.358	38330.98
575.556	38083.17
575.754	38478.43
575.952	37876.33
576.151	37890.66
576.349	37622.38
576.547	37941.86
576.745	37780.07
576.943	37692.01
577.141	37724.78
577.339	37538.41
577.537	37360.24
577.735	37323.38
577.933	37261.94
578.131	37169.78
578.329	37010.04
578.527	36582.01
578.725	36997.75
578.923	36973.17
579.121	36831.86
579.319	36686.46
579.516	36549.24
579.714	36749.95
579.912	36760.19
580.11	36432.51
580.308	36295.3
580.506	36268.67
580.704	35766.92
580.901	35994.25
581.099	36219.52
581.297	35629.71
581.495	35920.52
581.692	35685
581.89	35250.83
582.088	35904.13
582.285	35173.01
582.483	35459.73
582.681	35537.55
582.878	35205.78
583.076	34933.4
583.274	35369.61
583.471	34845.33
583.669	34785.94
583.866	34634.39
584.064	34753.18
584.262	34460.32
584.459	34456.22
584.657	34042.53
584.854	34718.36
585.052	34024.1
585.249	34122.4
585.447	33933.99
585.644	33708.71
585.841	33944.23
586.039	34089.63
586.236	33594.03
586.434	33465
586.631	33567.4
586.828	33626.79
587.026	33137.33
587.223	33364.65
587.42	33063.6
587.618	33313.45
587.815	32611
588.012	32969.4
588.21	33047.22
588.407	33082.03
588.604	32447.16
588.801	32508.6
588.999	32619.19
589.196	32684.73
589.393	32477.88
589.59	32066.24
589.787	32021.19
589.984	32291.52
590.182	31984.32
590.379	31845.06
590.576	31517.39
590.773	31562.44
590.97	31165.14
591.167	31783.62
591.364	31294.16
591.561	31548.11
591.758	30833.36
591.955	31285.97
592.152	31380.17
592.349	31126.22
592.546	31314.64
592.743	30960.34
592.94	30601.94
593.137	30726.87
593.334	30921.43
593.531	30089.95
593.727	30862.04
593.924	30593.75
594.121	30092
594.318	30245.6
594.515	29874.91
594.712	30225.12
594.908	29747.94
595.105	30337.76
595.302	29739.75
595.499	29819.62
595.696	29672.17
595.892	29291.24
596.089	29407.98
596.286	29635.3
596.482	29190.89
596.679	29309.68
596.876	29297.39
597.072	29129.45
597.269	29151.98
597.466	28832.5
597.662	28830.45
597.859	28570.36
598.055	28881.65
598.252	28672.76
598.448	28494.58
598.645	28553.97
598.841	27894.53
599.038	28306.17
599.234	28201.72
599.431	27634.44
599.627	28019.46
599.824	28316.41
600.02	27566.85
600.217	27943.68
600.413	27595.53
600.609	27501.32
600.806	27228.94
601.002	27382.54
601.198	27179.79
601.395	27288.33
601.591	27224.84
601.787	27247.37
601.984	26901.26
602.18	27347.72
602.376	26792.72
602.572	26596.12
602.769	26575.64
602.965	26469.14
603.161	26581.78
603.357	26288.92
603.553	26286.87
603.75	26118.94
603.946	25940.77
604.142	26080.03
604.338	25793.31
604.534	26141.47
604.73	25627.43
604.926	25987.87
605.122	26084.12
605.318	25778.98
605.514	25729.83
605.71	25441.06
605.906	25547.56
606.102	25682.72
606.298	25443.11
606.494	25144.11
606.69	25064.24
606.886	25287.46
607.082	24884.01
607.278	25467.69
607.474	24884.01
607.67	25088.81
607.866	24933.17
608.062	25195.31
608.257	24855.34
608.453	24978.22
608.649	24648.5
608.845	24535.86
609.041	24689.46
609.236	24671.03
609.432	24376.12
609.628	24349.5
609.824	24224.57
610.019	24230.71
610.215	24279.86
610.411	24312.63
610.606	24036.16
610.802	24034.11
610.998	24193.85
611.193	23970.62
611.389	24290.1
611.584	23868.22
611.78	23692.1
611.976	23835.45
612.171	23974.72
612.367	23741.25
612.562	23722.82
612.758	23436.1
612.953	23317.32
613.149	23683.91
613.344	23235.4
613.539	23616.32
613.735	23556.93
613.93	23511.88
614.126	23280.46
614.321	23364.42
614.517	23290.7
614.712	23276.36
614.907	23110.47
615.103	23262.02
615.298	23055.18
615.493	23200.58
615.688	22692.69
615.884	23296.84
616.079	22510.42
616.274	23128.91
616.47	22674.26
616.665	22913.87
616.86	22627.15
617.055	22676.3
617.25	22506.32
617.445	22745.94
617.641	22262.61
617.836	22416.21
618.031	22170.46
618.226	22686.54
618.421	22326.1
618.616	22389.59
618.811	21975.9
619.006	22086.49
619.201	21519.2
619.396	21709.66
619.591	21513.06
619.786	21812.06
619.981	21390.18
620.176	21793.63
620.371	21029.74
620.566	21392.23
620.761	21189.48
620.956	21298.02
621.151	20929.39
621.346	20990.83
621.541	20681.58
621.735	20851.56
621.93	20669.3
622.125	20441.97
622.32	20149.11
622.515	20421.49
622.709	20149.11
622.904	20018.04
623.099	19977.08
623.294	20095.86
623.488	19997.56
623.683	20163.45
623.878	19465.09
624.072	19874.68
624.267	19370.88
624.462	19293.06
624.656	19127.17
624.851	19366.79
625.046	19161.99
625.24	19063.69
625.435	18711.44
625.629	18756.49
625.824	18617.23
626.018	18701.2
626.213	18420.63
626.407	18518.93
626.602	18176.92
626.796	18432.91
626.991	18287.51
627.185	18117.53
627.38	17910.68
627.574	17654.69
627.768	17861.53
627.963	17466.27
628.157	17531.81
628.352	17386.4
628.546	17216.42
628.74	17583.01
628.935	16894.89
629.129	17118.12
629.323	16939.94
629.517	16925.61
629.712	16933.8
629.906	16991.14
630.1	16614.32
630.294	16714.67
630.489	16477.1
630.683	16397.23
630.877	16282.55
631.071	16368.56
631.265	16284.59
631.459	16257.97
631.653	15827.9
631.848	15967.16
632.042	15907.77
632.236	15905.72
632.43	15707.07
632.624	15653.82
632.818	15516.61
633.012	15315.9
633.206	15393.73
633.4	15453.12
633.594	15012.81
633.788	15197.12
633.982	15123.4
634.176	15072.2
634.369	15037.38
634.563	14914.5
634.757	14607.31
634.951	14783.43
635.145	14498.77
635.339	14377.94
635.533	14652.36
635.726	14554.06
635.92	14326.74
636.114	14429.13
636.308	14248.91
636.501	14279.63
636.695	14052.31
636.889	13908.95
637.083	13982.68
637.276	13765.59
637.47	13589.47
637.664	13499.36
637.857	13710.3
638.051	13472.73
638.244	13595.61
638.438	13480.92
638.632	13255.65
638.825	13300.7
639.019	13429.73
639.212	13222.88
639.406	13224.93
639.599	12739.56
639.793	13114.34
639.986	12542.96
640.18	12987.36
640.373	12674.03
640.567	12631.02
640.76	12762.09
640.954	12440.56
641.147	12381.17
641.34	12223.47
641.534	12147.7
641.727	12479.47
641.92	12278.77
642.114	12364.78
642.307	11863.03
642.5	12078.07
642.694	11764.73
642.887	11891.7
643.08	12024.82
643.273	11830.26
643.467	11815.93
643.66	11746.3
643.853	11426.81
644.046	11619.32
644.239	11488.25
644.432	11451.39
644.626	11363.33
644.819	11271.17
645.012	11252.73
645.205	11219.97
645.398	11256.83
645.591	11060.23
645.784	11060.23
645.977	11101.19
646.17	10896.39
646.363	10556.43
646.556	10560.52
646.749	10634.25
646.942	10736.65
647.135	10671.11
647.328	10697.74
647.521	10513.42
647.714	10400.78
647.907	10404.88
648.099	10349.58
648.292	10259.47
648.485	10372.11
648.678	10173.46
648.871	10155.02
649.064	10105.87
649.256	10046.48
649.449	9962.51
649.642	9909.27
649.835	9694.23
650.027	9772.05
650.22	9870.36
650.413	9810.96
650.605	9716.76
650.798	9540.63
650.991	9573.4
651.183	9399.32
651.376	9341.98
651.568	9640.98
651.761	9427.99
651.954	9382.94
652.146	9276.45
652.339	9032.74
652.531	9057.31
652.724	9096.22
652.916	8954.91
653.109	8954.91
653.301	8991.78
653.494	8883.24
653.686	8709.16
653.879	8995.87
654.071	8713.25
654.263	8905.76
654.456	8692.77
654.648	8786.98
654.84	8510.5
655.033	8453.16
655.225	8582.18
655.417	8389.67
655.61	8434.73
655.802	8404.01
655.994	8320.04
656.186	8389.67
656.379	8315.95
656.571	8096.82
656.763	8205.36
656.955	8084.53
657.148	8234.03
657.34	8102.96
657.532	7984.18
657.724	8156.21
657.916	7992.37
658.108	7840.82
658.3	7855.15
658.492	7955.51
658.684	7822.39
658.876	7760.95
659.068	7758.9
659.26	7638.07
659.452	7507
659.644	7490.62
659.836	7339.07
660.028	7375.93
660.22	7463.99
660.412	7484.47
660.604	7455.8
660.796	7337.02
660.988	7504.95
661.18	7314.49
661.372	7369.79
661.563	7072.83
661.755	7091.26
661.947	6972.48
662.139	7083.07
662.331	6898.75
662.522	6968.38
662.714	6986.82
662.906	7068.73
663.097	6939.71
663.289	6642.76
663.481	6743.11
663.673	6888.51
663.864	6732.87
664.056	6689.86
664.247	6704.2
664.439	6501.45
664.631	6628.42
664.822	6612.04
665.014	6636.61
665.205	6517.83
665.397	6386.76
665.588	6497.35
665.78	6460.49
665.971	6429.77
666.163	6321.23
666.354	6231.12
666.546	6163.53
666.737	6009.93
666.929	6179.92
667.12	6251.6
667.311	6147.15
667.503	6014.03
667.694	6038.61
667.885	6018.13
668.077	6009.93
668.268	6009.93
668.459	5938.26
668.651	5786.71
668.842	5899.34
669.033	5946.45
669.224	5950.54
669.416	5727.32
669.607	5782.61
669.798	5721.17
669.989	5895.25
670.18	5606.49
670.371	5620.82
670.563	5755.99
670.754	5698.64
670.945	5594.2
671.136	5672.02
671.327	5440.6
671.518	5575.77
671.709	5635.16
671.9	5499.99
672.091	5467.22
672.282	5430.36
672.473	5307.48
672.664	5299.29
672.855	5256.28
673.046	5141.6
673.237	5514.33
673.428	5315.67
673.619	5108.83
673.809	5289.05
674	5147.74
674.191	5131.36
674.382	4947.04
674.573	5002.33
674.764	5074.01
674.954	5137.5
675.145	4953.18
675.336	4887.65
675.527	4990.05
675.717	5129.31
675.908	4869.22
676.099	5024.86
676.289	4740.19
676.48	4985.95
676.671	4813.92
676.861	4990.05
677.052	4781.15
677.243	4830.3
677.433	4752.48
677.624	4818.02
677.814	4643.94
678.005	4611.17
678.195	4625.51
678.386	4680.8
678.576	4635.75
678.767	4756.58
678.957	4666.47
679.148	4707.43
679.338	4549.73
679.529	4441.19
679.719	4363.37
679.909	4623.46
680.1	4433
680.29	4529.25
680.481	4678.76
680.671	4553.83
680.861	4328.55
681.052	4375.66
681.242	4322.41
681.432	4396.14
681.622	4449.38
681.813	4334.7
682.003	4334.7
682.193	4406.38
682.383	4236.39
682.573	4306.02
682.764	4277.35
682.954	4207.72
683.144	4134
683.334	4037.74
683.524	4207.72
683.714	4283.5
683.904	4131.95
684.094	4267.11
684.284	4281.45
684.474	4177
684.664	4060.27
684.854	4107.37
685.044	4187.24
685.234	4019.31
685.424	4037.74
685.614	4076.65
685.804	4039.79
685.994	3964.01
686.184	4011.12
686.374	3994.73
686.564	4041.84
686.753	4019.31
686.943	3814.51
687.133	3869.81
687.323	3824.75
687.513	3896.43
687.702	3929.2
687.892	3810.42
688.082	3896.43
688.272	3857.52
688.461	3734.64
688.651	3886.19
688.841	3755.12
689.03	3718.26
689.22	3640.44
689.41	3718.26
689.599	3720.31
689.789	3595.38
689.979	3619.96
690.168	3720.31
690.358	3679.35
690.547	3617.91
690.737	3658.87
690.926	3640.44
691.116	3513.46
691.305	3593.33
691.495	3474.55
691.684	3394.68
691.874	3562.61
692.063	3554.42
692.252	3605.62
692.442	3435.64
692.631	3351.67
692.82	3480.69
693.01	3482.74
693.199	3417.21
693.388	3404.92
693.578	3378.3
693.767	3468.41
693.956	3454.07
694.146	3372.15
694.335	3318.9
694.524	3488.89
694.713	3355.77
694.902	3325.05
695.092	3298.42
695.281	3265.66
695.47	3388.53
695.659	3214.46
695.848	3325.05
696.037	3187.83
696.226	3249.27
696.415	3171.45
696.604	3323
696.793	3122.3
696.982	3132.54
697.171	3224.7
697.36	3208.31
697.549	3110.01
697.738	3128.44
697.927	3060.86
698.116	3208.31
698.305	3077.24
698.494	3056.76
698.683	3011.71
698.872	3175.55
699.061	3095.68
699.25	3001.47
699.438	3060.86
699.627	3042.43
699.816	2952.32
700.005	2995.32
700.193	3032.19
700.382	3013.76
700.571	2929.79
700.76	2956.41
700.948	2987.13
701.137	2950.27
701.326	3011.71
701.514	2980.99
701.703	3042.43
701.892	2933.89
702.08	2940.03
702.269	2880.64
702.457	2870.4
702.646	2950.27
702.834	2976.89
703.023	2933.89
703.212	2862.21
703.4	2839.68
703.589	2964.61
703.777	2817.15
703.965	3011.71
704.154	2851.97
704.342	2786.43
704.531	2813.06
704.719	2870.4
704.907	2972.8
705.096	2841.73
705.284	2831.49
705.472	2974.85
705.661	2825.34
705.849	2817.15
706.037	2833.54
706.226	2897.02
706.414	2907.26
706.602	2847.87
706.79	2843.78
706.979	2815.1
707.167	2733.18
707.355	2794.62
707.543	2716.8
707.731	2811.01
707.919	2817.15
708.107	2716.8
708.296	2802.82
708.484	2759.81
708.672	2841.73
708.86	2763.9
709.048	2749.57
709.236	2741.38
709.424	2823.3
709.612	2829.44
709.8	2882.69
709.988	2765.95
710.176	2794.62
710.364	2806.91
710.551	2772.1
710.739	2759.81
710.927	2763.9
711.115	2731.14
711.303	2743.42
711.491	2712.71
711.679	2655.36
711.866	2692.23
712.054	2608.26
712.242	2628.74
712.43	2722.95
712.617	2694.27
712.805	2593.92
712.993	2759.81
713.181	2573.44
713.368	2835.58
713.556	2720.9
713.744	2661.51
713.931	2839.68
714.119	2585.73
714.306	2749.57
714.494	2542.72
714.682	2602.11
714.869	2565.25
715.057	2673.79
715.244	2630.79
715.432	2589.83
715.619	2638.98
715.807	2690.18
715.994	2653.31
716.182	2436.23
716.369	2612.35
716.556	2552.96
716.744	2524.29
716.931	2620.55
717.119	2649.22
717.306	2632.83
717.493	2544.77
717.681	2651.27
717.868	2606.21
718.055	2655.36
718.242	2585.73
718.43	2600.07
718.617	2641.03
718.804	2663.55
718.991	2569.35
719.179	2675.84
719.366	2616.45
719.553	2569.35
719.74	2499.72
719.927	2561.16
720.114	2423.94
720.301	2653.31
720.488	2495.62
720.676	2507.91
720.863	2546.82
721.05	2532.48
721.237	2538.63
721.424	2628.74
721.611	2505.86
721.798	2405.51
721.985	2421.89
722.172	2436.23
722.358	2514.05
722.545	2434.18
722.732	2520.2
722.919	2413.7
723.106	2530.44
723.293	2401.41
723.48	2530.44
723.667	2483.33
723.853	2514.05
724.04	2530.44
724.227	2485.38
724.414	2530.44
724.6	2479.24
724.787	2389.13
724.974	2573.44
725.161	2536.58
725.347	2540.68
725.534	2442.37
725.72	2561.16
725.907	2518.15
726.094	2495.62
726.28	2460.81
726.467	2405.51
726.653	2555.01
726.84	2507.91
727.027	2528.39
727.213	2274.44
727.4	2444.42
727.586	2497.67
727.773	2425.99
727.959	2485.38
728.145	2446.47
728.332	2552.96
728.518	2364.55
728.705	2452.61
728.891	2471.04
729.077	2409.61
729.264	2413.7
729.45	2364.55
729.636	2374.79
729.823	2464.9
730.009	2362.5
730.195	2563.2
730.382	2421.89
730.568	2454.66
730.754	2444.42
730.94	2368.65
731.126	2401.41
731.313	2385.03
731.499	2477.19
731.685	2335.88
731.871	2428.04
732.057	2385.03
732.243	2413.7
732.429	2344.07
732.615	2374.79
732.801	2323.59
732.987	2317.45
733.173	2372.74
733.359	2266.25
733.545	2438.28
733.731	2286.73
733.917	2321.54
734.103	2350.21
734.289	2374.79
734.475	2319.5
734.661	2444.42
734.847	2321.54
735.033	2466.95
735.219	2382.98
735.404	2364.55
735.59	2284.68
735.776	2358.41
735.962	2188.43
736.148	2391.17
736.333	2296.97
736.519	2339.97
736.705	2290.82
736.89	2206.86
737.076	2313.35
737.262	2280.58
737.447	2188.43
737.633	2274.44
737.819	2235.53
738.004	2286.73
738.19	2217.1
738.375	2200.71
738.561	2337.93
738.747	2231.43
738.932	2241.67
739.118	2126.99
739.303	2163.85
739.489	2204.81
739.674	2204.81
739.859	2204.81
740.045	2200.71
740.23	2192.52
740.416	2208.9
740.601	2303.11
740.786	2153.61
740.972	2094.22
741.157	2184.33
741.342	2057.36
741.528	2178.19
741.713	2243.72
741.898	2071.69
742.084	2047.12
742.269	2051.21
742.454	2000.01
742.639	2184.33
742.824	2106.51
743.01	2061.45
743.195	2081.93
743.38	2016.4
743.565	2032.78
743.75	2124.94
743.935	2000.01
744.12	2022.54
744.305	1987.72
744.49	2032.78
744.675	1944.72
744.86	1934.48
745.045	2022.54
745.23	1993.87
745.415	1942.67
745.6	2006.16
745.785	1918.09
745.97	1911.95
746.155	2151.56
746.34	1909.9
746.525	1967.24
746.71	1944.72
746.895	1891.47
747.079	1811.6
747.264	1930.38
747.449	1858.7
747.634	1852.56
747.819	1830.03
748.003	1834.13
748.188	1774.74
748.373	1782.93
748.557	1856.65
748.742	1698.96
748.927	1750.16
749.111	1832.08
749.296	1752.21
749.481	1770.64
749.665	1787.02
749.85	1688.72
750.034	1721.49
750.219	1733.78
750.404	1768.59
750.588	1678.48
750.773	1645.71
750.957	1662.1
751.141	1627.28
751.326	1672.34
751.51	1528.98
751.695	1565.84
751.879	1686.67
752.064	1649.81
752.248	1600.66
752.432	1567.89
752.617	1590.42
752.801	1631.38
752.985	1590.42
753.17	1596.56
753.354	1549.46
753.538	1604.75
753.722	1508.5
753.907	1463.44
754.091	1477.78
754.275	1502.36
754.459	1397.91
754.643	1408.15
754.828	1567.89
755.012	1455.25
755.196	1344.66
755.38	1385.62
755.564	1438.87
755.748	1434.77
755.932	1447.06
756.116	1387.67
756.3	1324.18
756.484	1434.77
756.668	1449.11
756.852	1322.13
757.036	1416.34
757.22	1338.52
757.404	1232.02
757.588	1350.81
757.772	1346.71
757.956	1180.82
758.14	1299.61
758.323	1279.13
758.507	1248.41
758.691	1279.13
758.875	1272.98
759.059	1279.13
759.242	1303.7
759.426	1303.7
759.61	1160.34
759.794	1279.13
759.977	1258.65
760.161	1258.65
760.345	1168.54
760.528	1201.3
760.712	1229.98
760.895	1180.82
761.079	1242.26
761.263	1133.72
761.446	1160.34
761.63	1176.73
761.813	1146.01
761.997	1064.09
762.18	1174.68
762.364	1096.86
762.547	1070.23
762.731	1115.29
762.914	1141.91
763.098	1137.82
763.281	1080.47
763.464	1078.43
763.648	1094.81
763.831	1094.81
764.015	1133.72
764.198	1119.39
764.381	1047.71
764.564	1152.15
764.748	1084.57
764.931	1049.75
765.114	1021.08
765.297	1141.91
765.481	1037.47
765.664	1021.08
765.847	1012.89
766.03	1084.57
766.213	1064.09
766.397	1074.33
766.58	1004.7
766.763	1025.18
766.946	990.36
767.129	1062.04
767.312	1019.04
767.495	998.56
767.678	965.79
767.861	1121.43
768.044	963.74
768.227	994.46
768.41	1002.65
768.593	996.51
768.776	937.12
768.959	945.31
769.142	994.46
769.324	1053.85
769.507	955.55
769.69	971.93
769.873	906.4
770.056	998.56
770.239	887.97
770.421	1021.08
770.604	904.35
770.787	892.06
770.97	949.4
771.152	908.44
771.335	908.44
771.518	873.63
771.7	969.88
771.883	980.12
772.066	890.01
772.248	849.05
772.431	959.64
772.613	894.11
772.796	808.09
772.978	816.29
773.161	914.59
773.343	851.1
773.526	840.86
773.708	804
773.891	816.29
774.073	779.42
774.256	760.99
774.438	973.98
774.621	873.63
774.803	869.53
774.985	851.1
775.168	840.86
775.35	824.48
775.532	847.01
775.715	758.94
775.897	861.34
776.079	881.82
776.261	875.68
776.444	836.77
776.626	836.77
776.808	703.65
776.99	748.7
777.173	810.14
777.355	732.32
777.537	734.37
777.719	654.5
777.901	713.89
778.083	799.9
778.265	660.64
778.447	724.13
778.629	683.17
778.811	646.3
778.993	742.56
779.175	668.83
779.357	681.12
779.539	558.24
779.721	660.64
779.903	726.18
780.085	691.36
780.267	674.98
780.449	615.59
780.631	664.74
780.812	652.45
780.994	638.11
781.176	545.95
781.358	599.2
781.54	660.64
781.721	640.16
781.903	654.5
782.085	627.87
782.267	619.68
782.448	562.34
782.63	611.49
782.812	636.06
782.993	574.63
783.175	662.69
783.357	492.71
783.538	625.83
783.72	572.58
783.901	588.96
784.083	607.39
784.264	621.73
784.446	476.32
784.627	529.57
784.809	504.99
784.99	531.62
785.172	529.57
785.353	593.06
785.535	531.62
785.716	537.76
785.897	492.71
786.079	545.95
786.26	513.19
786.441	531.62
786.623	474.28
786.804	484.52
786.985	478.37
787.167	568.48
787.348	400.55
787.529	367.78
787.71	453.8
787.891	500.9
788.073	509.09
788.254	367.78
788.435	599.2
788.616	441.51
788.797	441.51
788.978	439.46
789.159	410.79
789.34	392.36
789.522	498.85
789.703	414.88
789.884	504.99
790.065	392.36
790.246	433.32
790.427	406.69
790.607	527.52
790.788	480.42
790.969	431.27
791.15	400.55
791.331	400.55
791.512	382.12
791.693	357.54
791.874	406.69
792.054	427.17
792.235	341.16
792.416	384.16
792.597	341.16
792.778	373.92
792.958	404.64
793.139	423.08
793.32	373.92
793.5	371.88
793.681	347.3
793.862	459.94
794.042	339.11
794.223	271.53
794.404	394.4
794.584	335.01
794.765	380.07
794.945	349.35
795.126	384.16
795.306	402.6
795.487	406.69
795.667	322.73
795.848	414.88
796.028	320.68
796.209	335.01
796.389	371.88
796.57	363.69
796.75	253.09
796.93	345.25
797.111	281.77
797.291	292.01
797.471	335.01
797.652	326.82
797.832	335.01
798.012	335.01
798.192	236.71
798.373	246.95
798.553	335.01
798.733	351.4
798.913	314.53
799.093	277.67
799.274	298.15
799.454	361.64
799.634	277.67
799.814	347.3
799.994	337.06
800.174	242.85
800.354	249
800.534	289.96
800.714	279.72
800.894	242.85
801.074	236.71
801.254	259.24
801.434	263.33
801.614	251.05
801.794	244.9
801.974	801.95
802.154	283.81
802.334	287.91
802.514	246.95
802.693	296.1
802.873	275.62
803.053	304.29
803.233	259.24
803.413	271.53
803.592	246.95
803.772	292.01
803.952	197.8
804.131	195.75
804.311	251.05
804.491	208.04
804.67	244.9
804.85	218.28
805.03	328.87
805.209	132.26
805.389	226.47
805.568	275.62
805.748	189.61
805.928	246.95
806.107	251.05
806.287	228.52
806.466	220.33
806.646	224.42
806.825	187.56
807.004	171.18
807.184	236.71
807.363	203.94
807.543	281.77
807.722	218.28
807.901	259.24
808.081	181.42
808.26	187.56
808.439	246.95
808.619	193.7
808.798	234.66
808.977	210.09
809.156	226.47
809.336	199.85
809.515	261.29
809.694	218.28
809.873	187.56
810.052	205.99
810.231	191.66
810.411	212.14
810.59	242.85
810.769	234.66
810.948	191.66
811.127	212.14
811.306	267.43
811.485	218.28
811.664	185.51
811.843	232.62
812.022	234.66
812.201	152.74
812.38	234.66
812.559	175.27
812.737	228.52
812.916	105.64
813.095	76.97
813.274	218.28
813.453	177.32
813.632	185.51
813.811	212.14
813.989	138.41
814.168	134.31
814.347	142.5
814.526	119.98
814.704	165.03
814.883	208.04
815.062	171.18
815.24	203.94
815.419	193.7
815.598	208.04
815.776	165.03
815.955	152.74
816.133	99.5
816.312	124.07
816.49	169.13
816.669	160.94
816.847	171.18
817.026	251.05
817.204	89.26
817.383	134.31
817.561	119.98
817.74	191.66
817.918	177.32
818.097	91.31
818.275	122.02
818.453	197.8
818.632	210.09
818.81	171.18
818.988	179.37
819.167	72.87
819.345	230.57
819.523	154.79
819.701	140.46
819.879	203.94
820.058	175.27
820.236	183.46
820.414	128.17
820.592	132.26
820.77	144.55
820.948	132.26
821.127	185.51
821.305	115.88
821.483	109.74
821.661	134.31
821.839	201.9
822.017	128.17
822.195	31.91
822.373	142.5
822.551	101.55
822.729	165.03
822.907	115.88
823.085	140.46
823.262	173.22
823.44	72.87
823.618	181.42
823.796	146.6
823.974	109.74
824.152	177.32
824.329	70.83
824.507	160.94
824.685	150.7
824.863	148.65
825.04	160.94
825.218	152.74
825.396	128.17
825.574	165.03
825.751	105.64
825.929	150.7
826.107	150.7
826.284	119.98
826.462	81.07
826.639	64.68
826.817	146.6
826.994	140.46
827.172	165.03
827.349	162.98
827.527	162.98
827.704	115.88
827.882	128.17
828.059	122.02
828.237	91.31
828.414	66.73
828.591	46.25
828.769	205.99
828.946	173.22
829.124	169.13
829.301	150.7
829.478	93.35
829.655	167.08
829.833	111.78
830.01	89.26
830.187	136.36
830.364	107.69
830.542	105.64
830.719	158.89
830.896	105.64
831.073	181.42
831.25	111.78
831.427	81.07
831.604	185.51
831.782	91.31
831.959	87.21
832.136	62.63
832.313	68.78
832.49	132.26
832.667	99.5
832.844	44.2
833.021	128.17
833.198	72.87
833.374	169.13
833.551	62.63
833.728	79.02
833.905	66.73
834.082	103.59
834.259	171.18
834.436	124.07
834.612	56.49
834.789	132.26
834.966	56.49
835.143	152.74
835.319	70.83
835.496	107.69
835.673	136.36
835.85	87.21
836.026	85.16
836.203	111.78
836.38	42.15
836.556	113.83
836.733	105.64
836.909	119.98
837.086	31.91
837.262	70.83
837.439	-7
837.616	101.55
837.792	70.83
837.968	70.83
838.145	54.44
838.321	-0.85
838.498	44.2
838.674	23.72
838.851	1.19
839.027	33.96
839.203	115.88
839.38	103.59
839.556	93.35
839.732	56.49
839.909	62.63
840.085	103.59
840.261	50.35
840.437	79.02
840.614	42.15
840.79	97.45
840.966	68.78
841.142	93.35
841.318	76.97
841.494	99.5
841.671	68.78
841.847	140.46
842.023	87.21
842.199	25.77
842.375	103.59
842.551	-2.9
842.727	79.02
842.903	109.74
843.079	-2.9
843.255	119.98
843.431	85.16
843.607	44.2
843.783	-2.9
843.959	107.69
844.134	36.01
844.31	66.73
844.486	5.29
844.662	109.74
844.838	64.68
845.013	138.41
845.189	89.26
845.365	56.49
845.541	60.59
845.716	95.4
845.892	99.5
846.068	64.68
846.244	54.44
846.419	103.59
846.595	46.25
846.77	52.39
846.946	13.48
847.122	68.78
847.297	23.72
847.473	119.98
847.648	19.63
847.824	85.16
847.999	-23.38
848.175	54.44
848.35	3.24
848.526	95.4
848.701	179.37
848.876	50.35
849.052	158.89
849.227	132.26
849.403	101.55
849.578	31.91
849.753	66.73
849.929	56.49
850.104	21.67
850.279	99.5
850.454	62.63
850.63	91.31
850.805	29.87
850.98	-2.9
851.155	105.64
851.33	9.39
851.505	42.15
851.681	70.83
851.856	64.68
852.031	126.12
852.206	52.39
852.381	38.06
852.556	76.97
852.731	58.54
852.906	87.21
853.081	62.63
853.256	132.26
853.431	70.83
853.606	-54.1
853.781	33.96
853.956	-15.19
854.131	107.69
854.305	29.87
854.48	56.49
854.655	105.64
854.83	87.21
855.005	89.26
855.18	-9.05
855.354	13.48
855.529	40.11
855.704	-13.14
855.879	103.59
856.053	40.11
856.228	60.59
856.403	40.11
856.577	19.63
856.752	1.19
856.926	42.15
857.101	15.53
857.276	1.19
857.45	58.54
857.625	87.21
857.799	99.5
857.974	101.55
858.148	-31.57
858.323	72.87
858.497	38.06
858.672	9.39
858.846	50.35
859.02	76.97
859.195	-23.38
859.369	38.06
859.543	-9.05
859.718	93.35
859.892	5.29
860.066	52.39
860.241	46.25
860.415	50.35
860.589	-4.95
860.763	44.2
860.938	17.58
861.112	64.68
861.286	46.25
861.46	60.59
861.634	21.67
861.808	72.87
861.982	-2.9
862.157	50.35
862.331	66.73
862.505	38.06
862.679	38.06
862.853	50.35
863.027	-60.24
863.201	54.44
863.375	9.39
863.549	54.44
863.722	13.48
863.896	79.02
864.07	-15.19
864.244	91.31
864.418	97.45
864.592	115.88
864.766	31.91
864.939	9.39
865.113	-35.67
865.287	-13.14
865.461	81.07
865.634	44.2
865.808	11.43
865.982	85.16
866.156	36.01
866.329	-60.24
866.503	52.39
866.676	132.26
866.85	21.67
867.024	21.67
867.197	52.39
867.371	27.82
867.544	48.3
867.718	-52.05
867.891	19.63
868.065	50.35
868.238	-4.95
868.412	72.87
868.585	79.02
868.759	76.97
868.932	31.91
869.105	76.97
869.279	42.15
869.452	-41.81
869.625	33.96
869.799	107.69
869.972	36.01
870.145	46.25
870.319	31.91
870.492	-0.85
870.665	25.77
870.838	29.87
871.011	33.96
871.185	-15.19
871.358	21.67
871.531	74.92
871.704	44.2
871.877	72.87
872.05	21.67
872.223	44.2
872.396	70.83
872.569	62.63
872.742	-37.72
872.915	-2.9
873.088	3.24
873.261	115.88
873.434	15.53
873.607	58.54
873.78	60.59
873.953	62.63
874.126	-19.29
874.299	52.39
874.471	21.67
874.644	38.06
874.817	5.29
874.99	138.41
875.163	-2.9
875.335	56.49
875.508	66.73
875.681	79.02
875.853	-11.09
876.026	11.43
876.199	128.17
876.371	21.67
876.544	21.67
876.717	42.15
876.889	48.3
877.062	36.01
877.234	23.72
877.407	21.67
877.579	-45.91
877.752	46.25
877.924	50.35
878.097	62.63
878.269	66.73
878.442	13.48
878.614	107.69
878.786	56.49
878.959	-11.09
879.131	42.15
879.303	21.67
879.476	33.96
879.648	58.54
879.82	42.15
879.993	70.83
880.165	13.48
880.337	13.48
880.509	68.78
880.681	13.48
880.854	-54.1
881.026	134.31
881.198	111.78
881.37	1.19
881.542	17.58
881.714	-37.72
881.886	38.06
882.058	79.02
882.23	38.06
882.402	64.68
882.574	29.87
882.746	72.87
882.918	56.49
883.09	27.82
883.262	17.58
883.434	23.72
883.606	-0.85
883.778	-41.81
883.95	109.74
884.122	68.78
884.293	25.77
884.465	64.68
884.637	-9.05
884.809	31.91
884.98	42.15
885.152	5.29
885.324	21.67
885.496	13.48
885.667	21.67
885.839	-21.33
886.011	81.07
886.182	-19.29
886.354	1.19
886.525	-2.9
886.697	91.31
886.869	38.06
887.04	54.44
887.212	52.39
887.383	-13.14
887.555	64.68
887.726	42.15
887.897	-11.09
888.069	-29.52
888.24	66.73
888.412	-27.48
888.583	9.39
888.754	99.5
888.926	25.77
889.097	58.54
889.268	-35.67
889.44	-15.19
889.611	-35.67
889.782	50.35
889.953	-19.29
890.125	79.02
890.296	-56.15
890.467	29.87
890.638	83.11
890.809	38.06
890.98	81.07
891.151	70.83
891.323	29.87
891.494	36.01
891.665	44.2
891.836	11.43
892.007	1.19
892.178	68.78
892.349	-21.33
892.52	13.48
892.691	101.55
892.862	21.67
893.032	-7
893.203	-0.85
893.374	56.49
893.545	-17.24
893.716	11.43
893.887	74.92
894.057	15.53
894.228	3.24
894.399	7.34
894.57	62.63
894.74	64.68
894.911	-33.62
895.082	-66.39
895.253	-2.9
895.423	-52.05
895.594	46.25
895.764	27.82
895.935	-17.24
896.106	58.54
896.276	31.91
896.447	38.06
896.617	95.4
896.788	5.29
896.958	62.63
897.129	13.48
897.299	-13.14
897.47	-13.14
897.64	62.63
897.81	29.87
897.981	1.19
898.151	1.19
898.322	44.2
898.492	38.06
898.662	38.06
898.832	13.48
899.003	29.87
899.173	95.4
899.343	-2.9
899.513	9.39
