Data from USB4F104151__65__13-12-03-936.txt Node

Date: Fri Mar 14 13:12:03 EDT 2025
User: louis
Spectrometer: USB4F10415
Trigger mode: 4
Integration Time (sec): 2.000000E-2
Scans to average: 1
Electric dark correction enabled: true
Nonlinearity correction enabled: false
Boxcar width: 0
XAxis mode: Wavelengths
Number of Pixels in Spectrum: 3648
>>>>>Begin Spectral Data<<<<<
178.204	-144.21
178.424	-144.21
178.644	-144.21
178.864	-168.79
179.084	-101.2
179.304	-25.43
179.524	54.44
179.744	19.63
179.964	11.43
180.184	-37.72
180.404	23.72
180.624	-7
180.844	-29.52
181.064	-43.86
181.283	33.96
181.503	13.48
181.723	-13.14
181.943	-15.19
182.163	9.39
182.383	54.44
182.602	42.15
182.822	76.97
183.042	29.87
183.262	-84.82
183.482	89.26
183.701	95.4
183.921	81.07
184.141	52.39
184.361	81.07
184.58	15.53
184.8	76.97
185.02	105.64
185.239	29.87
185.459	33.96
185.679	64.68
185.898	19.63
186.118	58.54
186.338	17.58
186.557	111.78
186.777	-35.67
186.997	-7
187.216	42.15
187.436	87.21
187.655	21.67
187.875	25.77
188.095	52.39
188.314	130.22
188.534	113.83
188.753	40.11
188.973	52.39
189.192	83.11
189.412	27.82
189.631	-2.9
189.851	9.39
190.07	107.69
190.29	-7
190.509	76.97
190.729	15.53
190.948	46.25
191.168	208.04
191.387	64.68
191.607	40.11
191.826	74.92
192.045	44.2
192.265	31.91
192.484	74.92
192.704	31.91
192.923	27.82
193.142	91.31
193.362	13.48
193.581	103.59
193.8	79.02
194.02	74.92
194.239	40.11
194.458	74.92
194.678	44.2
194.897	113.83
195.116	19.63
195.335	105.64
195.555	-4.95
195.774	54.44
195.993	9.39
196.212	101.55
196.432	64.68
196.651	29.87
196.87	-9.05
197.089	81.07
197.308	19.63
197.528	50.35
197.747	40.11
197.966	7.34
198.185	54.44
198.404	76.97
198.623	99.5
198.842	36.01
199.062	50.35
199.281	136.36
199.5	58.54
199.719	46.25
199.938	44.2
200.157	44.2
200.376	66.73
200.595	62.63
200.814	33.96
201.033	128.17
201.252	64.68
201.471	13.48
201.69	64.68
201.909	-2.9
202.128	58.54
202.347	62.63
202.566	74.92
202.785	-52.05
203.004	-37.72
203.223	36.01
203.442	48.3
203.661	68.78
203.879	48.3
204.098	62.63
204.317	97.45
204.536	27.82
204.755	97.45
204.974	142.5
205.193	89.26
205.411	54.44
205.63	11.43
205.849	58.54
206.068	-50
206.287	72.87
206.505	76.97
206.724	-99.16
206.943	50.35
207.162	113.83
207.381	38.06
207.599	31.91
207.818	46.25
208.037	152.74
208.255	97.45
208.474	42.15
208.693	89.26
208.911	85.16
209.13	64.68
209.349	50.35
209.567	66.73
209.786	89.26
210.005	74.92
210.223	136.36
210.442	9.39
210.661	38.06
210.879	38.06
211.098	72.87
211.316	48.3
211.535	29.87
211.753	56.49
211.972	23.72
212.191	72.87
212.409	15.53
212.628	15.53
212.846	-11.09
213.065	66.73
213.283	119.98
213.502	54.44
213.72	21.67
213.938	81.07
214.157	76.97
214.375	54.44
214.594	40.11
214.812	1.19
215.031	91.31
215.249	-19.29
215.467	3.24
215.686	50.35
215.904	56.49
216.122	-4.95
216.341	23.72
216.559	50.35
216.778	3.24
216.996	95.4
217.214	56.49
217.432	31.91
217.651	15.53
217.869	40.11
218.087	54.44
218.306	64.68
218.524	79.02
218.742	9.39
218.96	99.5
219.179	23.72
219.397	62.63
219.615	60.59
219.833	126.12
220.051	29.87
220.27	42.15
220.488	48.3
220.706	58.54
220.924	11.43
221.142	13.48
221.36	64.68
221.578	83.11
221.796	95.4
222.015	29.87
222.233	3.24
222.451	201.9
222.669	-7
222.887	7.34
223.105	7.34
223.323	17.58
223.541	42.15
223.759	64.68
223.977	5.29
224.195	70.83
224.413	66.73
224.631	113.83
224.849	60.59
225.067	107.69
225.285	5.29
225.503	70.83
225.721	-25.43
225.939	87.21
226.157	11.43
226.375	83.11
226.592	66.73
226.81	79.02
227.028	19.63
227.246	99.5
227.464	79.02
227.682	13.48
227.9	144.55
228.117	54.44
228.335	-7
228.553	42.15
228.771	105.64
228.989	13.48
229.206	58.54
229.424	3.24
229.642	70.83
229.86	70.83
230.077	48.3
230.295	95.4
230.513	119.98
230.731	70.83
230.948	107.69
231.166	38.06
231.384	-2.9
231.601	76.97
231.819	50.35
232.037	21.67
232.254	13.48
232.472	-52.05
232.689	-19.29
232.907	62.63
233.125	44.2
233.342	89.26
233.56	13.48
233.777	81.07
233.995	72.87
234.213	62.63
234.43	17.58
234.648	122.02
234.865	93.35
235.083	74.92
235.3	140.46
235.518	25.77
235.735	1.19
235.953	83.11
236.17	68.78
236.388	105.64
236.605	36.01
236.822	40.11
237.04	81.07
237.257	48.3
237.475	25.77
237.692	33.96
237.909	-0.85
238.127	1.19
238.344	97.45
238.562	15.53
238.779	40.11
238.996	13.48
239.214	-9.05
239.431	56.49
239.648	81.07
239.865	3.24
240.083	87.21
240.3	81.07
240.517	-2.9
240.735	64.68
240.952	115.88
241.169	64.68
241.386	38.06
241.603	119.98
241.821	23.72
242.038	76.97
242.255	42.15
242.472	29.87
242.689	66.73
242.907	79.02
243.124	48.3
243.341	136.36
243.558	107.69
243.775	-11.09
243.992	70.83
244.209	46.25
244.426	95.4
244.643	15.53
244.86	46.25
245.078	154.79
245.295	44.2
245.512	50.35
245.729	21.67
245.946	95.4
246.163	36.01
246.38	97.45
246.597	138.41
246.814	46.25
247.031	56.49
247.248	42.15
247.464	81.07
247.681	66.73
247.898	97.45
248.115	119.98
248.332	48.3
248.549	95.4
248.766	117.93
248.983	60.59
249.2	70.83
249.417	103.59
249.633	44.2
249.85	95.4
250.067	52.39
250.284	-39.76
250.501	81.07
250.717	25.77
250.934	-2.9
251.151	29.87
251.368	52.39
251.585	29.87
251.801	15.53
252.018	103.59
252.235	111.78
252.451	40.11
252.668	29.87
252.885	160.94
253.102	52.39
253.318	5.29
253.535	60.59
253.752	23.72
253.968	64.68
254.185	-37.72
254.401	81.07
254.618	74.92
254.835	-54.1
255.051	97.45
255.268	50.35
255.484	79.02
255.701	13.48
255.917	95.4
256.134	50.35
256.351	85.16
256.567	89.26
256.784	117.93
257	95.4
257.217	83.11
257.433	13.48
257.65	72.87
257.866	60.59
258.082	9.39
258.299	33.96
258.515	25.77
258.732	97.45
258.948	91.31
259.165	-41.81
259.381	81.07
259.597	79.02
259.814	79.02
260.03	15.53
260.246	52.39
260.463	83.11
260.679	74.92
260.895	81.07
261.112	83.11
261.328	85.16
261.544	-25.43
261.761	113.83
261.977	13.48
262.193	-29.52
262.409	7.34
262.626	154.79
262.842	7.34
263.058	56.49
263.274	107.69
263.49	42.15
263.707	62.63
263.923	46.25
264.139	44.2
264.355	54.44
264.571	91.31
264.787	54.44
265.004	52.39
265.22	70.83
265.436	124.07
265.652	54.44
265.868	140.46
266.084	48.3
266.3	52.39
266.516	1.19
266.732	5.29
266.948	31.91
267.164	136.36
267.38	76.97
267.596	66.73
267.812	81.07
268.028	146.6
268.244	111.78
268.46	42.15
268.676	44.2
268.892	29.87
269.108	11.43
269.324	-21.33
269.54	31.91
269.756	48.3
269.972	46.25
270.188	91.31
270.403	126.12
270.619	-2.9
270.835	46.25
271.051	72.87
271.267	74.92
271.483	72.87
271.698	48.3
271.914	144.55
272.13	74.92
272.346	130.22
272.562	101.55
272.777	79.02
272.993	103.59
273.209	54.44
273.425	33.96
273.64	58.54
273.856	48.3
274.072	48.3
274.287	-29.52
274.503	122.02
274.719	185.51
274.934	87.21
275.15	-7
275.366	27.82
275.581	68.78
275.797	46.25
276.012	29.87
276.228	17.58
276.444	23.72
276.659	44.2
276.875	62.63
277.09	42.15
277.306	13.48
277.521	99.5
277.737	42.15
277.952	62.63
278.168	60.59
278.383	60.59
278.599	109.74
278.814	87.21
279.03	58.54
279.245	68.78
279.461	29.87
279.676	93.35
279.892	36.01
280.107	81.07
280.322	13.48
280.538	103.59
280.753	36.01
280.969	48.3
281.184	91.31
281.399	95.4
281.615	60.59
281.83	89.26
282.045	58.54
282.26	36.01
282.476	-9.05
282.691	56.49
282.906	44.2
283.122	54.44
283.337	91.31
283.552	7.34
283.767	79.02
283.983	111.78
284.198	52.39
284.413	130.22
284.628	9.39
284.843	-4.95
285.058	42.15
285.274	99.5
285.489	81.07
285.704	91.31
285.919	54.44
286.134	42.15
286.349	128.17
286.564	50.35
286.779	42.15
286.995	31.91
287.21	-88.92
287.425	29.87
287.64	15.53
287.855	33.96
288.07	-33.62
288.285	83.11
288.5	42.15
288.715	83.11
288.93	42.15
289.145	46.25
289.36	107.69
289.575	27.82
289.79	54.44
290.004	70.83
290.219	85.16
290.434	81.07
290.649	50.35
290.864	91.31
291.079	23.72
291.294	7.34
291.509	27.82
291.724	42.15
291.938	46.25
292.153	36.01
292.368	46.25
292.583	-15.19
292.798	42.15
293.012	42.15
293.227	70.83
293.442	64.68
293.657	91.31
293.871	38.06
294.086	107.69
294.301	162.98
294.516	56.49
294.73	72.87
294.945	50.35
295.16	40.11
295.374	70.83
295.589	111.78
295.804	31.91
296.018	38.06
296.233	11.43
296.447	62.63
296.662	91.31
296.877	105.64
297.091	62.63
297.306	54.44
297.52	48.3
297.735	40.11
297.949	31.91
298.164	33.96
298.378	23.72
298.593	87.21
298.807	79.02
299.022	99.5
299.236	27.82
299.451	38.06
299.665	40.11
299.88	15.53
300.094	107.69
300.309	64.68
300.523	83.11
300.737	38.06
300.952	33.96
301.166	25.77
301.381	21.67
301.595	38.06
301.809	7.34
302.024	29.87
302.238	23.72
302.452	64.68
302.667	48.3
302.881	93.35
303.095	101.55
303.309	62.63
303.524	42.15
303.738	62.63
303.952	72.87
304.166	25.77
304.381	111.78
304.595	52.39
304.809	74.92
305.023	21.67
305.237	48.3
305.452	115.88
305.666	56.49
305.88	64.68
306.094	89.26
306.308	48.3
306.522	113.83
306.736	99.5
306.95	113.83
307.164	113.83
307.379	33.96
307.593	93.35
307.807	79.02
308.021	115.88
308.235	27.82
308.449	5.29
308.663	58.54
308.877	124.07
309.091	5.29
309.305	29.87
309.519	46.25
309.733	62.63
309.947	1.19
310.161	132.26
310.374	23.72
310.588	64.68
310.802	-9.05
311.016	79.02
311.23	54.44
311.444	38.06
311.658	97.45
311.872	126.12
312.085	56.49
312.299	70.83
312.513	52.39
312.727	13.48
312.941	48.3
313.154	79.02
313.368	91.31
313.582	136.36
313.796	113.83
314.009	128.17
314.223	83.11
314.437	7.34
314.651	50.35
314.864	31.91
315.078	21.67
315.292	38.06
315.505	54.44
315.719	97.45
315.933	-47.96
316.146	60.59
316.36	25.77
316.573	99.5
316.787	64.68
317.001	72.87
317.214	95.4
317.428	89.26
317.641	81.07
317.855	33.96
318.068	64.68
318.282	46.25
318.495	85.16
318.709	62.63
318.922	79.02
319.136	25.77
319.349	58.54
319.563	52.39
319.776	-17.24
319.99	38.06
320.203	23.72
320.417	25.77
320.63	74.92
320.843	107.69
321.057	154.79
321.27	83.11
321.483	52.39
321.697	122.02
321.91	21.67
322.124	138.41
322.337	17.58
322.55	15.53
322.763	31.91
322.977	19.63
323.19	15.53
323.403	50.35
323.617	115.88
323.83	64.68
324.043	64.68
324.256	89.26
324.469	40.11
324.683	46.25
324.896	38.06
325.109	111.78
325.322	13.48
325.535	46.25
325.748	70.83
325.962	138.41
326.175	85.16
326.388	56.49
326.601	72.87
326.814	109.74
327.027	31.91
327.24	103.59
327.453	-19.29
327.666	111.78
327.879	7.34
328.092	103.59
328.305	117.93
328.518	23.72
328.731	-7
328.944	111.78
329.157	113.83
329.37	72.87
329.583	81.07
329.796	111.78
330.009	91.31
330.222	70.83
330.435	46.25
330.648	113.83
330.861	3.24
331.073	42.15
331.286	60.59
331.499	99.5
331.712	42.15
331.925	36.01
332.138	87.21
332.35	70.83
332.563	62.63
332.776	103.59
332.989	103.59
333.202	93.35
333.414	38.06
333.627	68.78
333.84	36.01
334.053	101.55
334.265	66.73
334.478	97.45
334.691	-23.38
334.903	76.97
335.116	60.59
335.329	105.64
335.541	54.44
335.754	81.07
335.966	21.67
336.179	48.3
336.392	17.58
336.604	54.44
336.817	99.5
337.029	60.59
337.242	79.02
337.454	33.96
337.667	93.35
337.88	70.83
338.092	54.44
338.305	60.59
338.517	13.48
338.729	60.59
338.942	91.31
339.154	81.07
339.367	38.06
339.579	85.16
339.792	93.35
340.004	60.59
340.217	79.02
340.429	79.02
340.641	85.16
340.854	68.78
341.066	50.35
341.278	111.78
341.491	58.54
341.703	38.06
341.915	27.82
342.128	15.53
342.34	72.87
342.552	-15.19
342.764	79.02
342.977	87.21
343.189	36.01
343.401	89.26
343.613	103.59
343.826	58.54
344.038	1.19
344.25	85.16
344.462	36.01
344.674	130.22
344.886	31.91
345.099	97.45
345.311	50.35
345.523	40.11
345.735	9.39
345.947	79.02
346.159	38.06
346.371	31.91
346.583	40.11
346.795	60.59
347.007	-4.95
347.219	21.67
347.431	68.78
347.643	46.25
347.855	54.44
348.067	107.69
348.279	175.27
348.491	50.35
348.703	31.91
348.915	62.63
349.127	79.02
349.339	95.4
349.551	60.59
349.763	119.98
349.975	128.17
350.187	19.63
350.399	66.73
350.61	74.92
350.822	13.48
351.034	107.69
351.246	17.58
351.458	142.5
351.669	3.24
351.881	128.17
352.093	62.63
352.305	56.49
352.517	72.87
352.728	111.78
352.94	56.49
353.152	119.98
353.363	113.83
353.575	85.16
353.787	83.11
353.999	64.68
354.21	203.94
354.422	42.15
354.633	58.54
354.845	87.21
355.057	91.31
355.268	93.35
355.48	83.11
355.692	29.87
355.903	31.91
356.115	46.25
356.326	25.77
356.538	105.64
356.749	38.06
356.961	122.02
357.172	15.53
357.384	46.25
357.595	87.21
357.807	40.11
358.018	64.68
358.23	99.5
358.441	105.64
358.653	66.73
358.864	21.67
359.075	140.46
359.287	76.97
359.498	36.01
359.709	89.26
359.921	122.02
360.132	54.44
360.344	89.26
360.555	72.87
360.766	146.6
360.977	15.53
361.189	119.98
361.4	74.92
361.611	50.35
361.823	83.11
362.034	81.07
362.245	-19.29
362.456	54.44
362.667	79.02
362.879	54.44
363.09	111.78
363.301	52.39
363.512	29.87
363.723	72.87
363.935	74.92
364.146	111.78
364.357	76.97
364.568	70.83
364.779	85.16
364.99	115.88
365.201	-11.09
365.412	72.87
365.623	15.53
365.834	87.21
366.045	38.06
366.256	79.02
366.467	66.73
366.678	23.72
366.889	60.59
367.1	89.26
367.311	40.11
367.522	138.41
367.733	-11.09
367.944	70.83
368.155	-9.05
368.366	-2.9
368.577	23.72
368.788	93.35
368.999	40.11
369.209	93.35
369.42	146.6
369.631	140.46
369.842	89.26
370.053	13.48
370.264	85.16
370.474	89.26
370.685	19.63
370.896	23.72
371.107	72.87
371.317	185.51
371.528	50.35
371.739	9.39
371.95	56.49
372.16	107.69
372.371	76.97
372.582	56.49
372.792	29.87
373.003	144.55
373.214	48.3
373.424	64.68
373.635	103.59
373.846	173.22
374.056	70.83
374.267	91.31
374.477	79.02
374.688	117.93
374.898	-21.33
375.109	54.44
375.319	140.46
375.53	81.07
375.74	93.35
375.951	117.93
376.161	81.07
376.372	56.49
376.582	50.35
376.793	83.11
377.003	85.16
377.214	48.3
377.424	85.16
377.635	70.83
377.845	48.3
378.055	40.11
378.266	52.39
378.476	29.87
378.686	72.87
378.897	124.07
379.107	48.3
379.317	-2.9
379.528	79.02
379.738	70.83
379.948	13.48
380.158	-7
380.369	40.11
380.579	62.63
380.789	44.2
380.999	68.78
381.21	1.19
381.42	79.02
381.63	29.87
381.84	91.31
382.05	70.83
382.261	113.83
382.471	111.78
382.681	36.01
382.891	122.02
383.101	111.78
383.311	40.11
383.521	66.73
383.731	62.63
383.941	162.98
384.151	48.3
384.361	128.17
384.571	15.53
384.781	81.07
384.991	113.83
385.201	138.41
385.411	97.45
385.621	81.07
385.831	122.02
386.041	109.74
386.251	79.02
386.461	111.78
386.671	103.59
386.881	79.02
387.091	46.25
387.301	54.44
387.511	87.21
387.72	105.64
387.93	50.35
388.14	58.54
388.35	136.36
388.56	119.98
388.769	128.17
388.979	101.55
389.189	29.87
389.399	21.67
389.609	25.77
389.818	60.59
390.028	126.12
390.238	113.83
390.447	66.73
390.657	70.83
390.867	50.35
391.076	62.63
391.286	40.11
391.496	91.31
391.705	91.31
391.915	154.79
392.125	56.49
392.334	52.39
392.544	175.27
392.753	68.78
392.963	66.73
393.172	128.17
393.382	64.68
393.591	91.31
393.801	38.06
394.01	70.83
394.22	115.88
394.429	81.07
394.639	105.64
394.848	70.83
395.058	81.07
395.267	97.45
395.477	126.12
395.686	119.98
395.895	122.02
396.105	103.59
396.314	68.78
396.524	109.74
396.733	122.02
396.942	113.83
397.152	107.69
397.361	91.31
397.57	60.59
397.78	58.54
397.989	93.35
398.198	150.7
398.407	91.31
398.617	111.78
398.826	85.16
399.035	42.15
399.244	212.14
399.453	81.07
399.663	66.73
399.872	103.59
400.081	56.49
400.29	205.99
400.499	48.3
400.708	124.07
400.917	134.31
401.127	87.21
401.336	177.32
401.545	197.8
401.754	91.31
401.963	91.31
402.172	99.5
402.381	218.28
402.59	117.93
402.799	109.74
403.008	160.94
403.217	171.18
403.426	226.47
403.635	70.83
403.844	160.94
404.053	128.17
404.262	117.93
404.471	251.05
404.68	191.66
404.888	193.7
405.097	181.42
405.306	162.98
405.515	130.22
405.724	197.8
405.933	205.99
406.142	238.76
406.35	169.13
406.559	222.38
406.768	122.02
406.977	210.09
407.185	208.04
407.394	179.37
407.603	208.04
407.812	242.85
408.02	214.18
408.229	140.46
408.438	169.13
408.646	175.27
408.855	210.09
409.064	216.23
409.272	257.19
409.481	238.76
409.69	240.81
409.898	226.47
410.107	277.67
410.315	353.45
410.524	330.92
410.733	345.25
410.941	212.14
411.15	373.92
411.358	406.69
411.567	332.97
411.775	400.55
411.984	332.97
412.192	386.21
412.401	425.12
412.609	453.8
412.818	433.32
413.026	369.83
413.234	507.04
413.443	490.66
413.651	597.15
413.86	459.94
414.068	625.83
414.276	588.96
414.485	517.28
414.693	588.96
414.901	652.45
415.11	593.06
415.318	552.1
415.526	728.22
415.734	705.7
415.943	687.26
416.151	677.02
416.359	795.81
416.567	765.09
416.776	832.67
416.984	799.9
417.192	793.76
417.4	783.52
417.608	822.43
417.817	863.39
418.025	963.74
418.233	1064.09
418.441	928.92
418.649	1055.9
418.857	1115.29
419.065	1113.24
419.273	1127.58
419.481	1133.72
419.689	1178.78
419.897	1309.85
420.105	1297.56
420.313	1324.18
420.521	1324.18
420.729	1451.16
420.937	1445.01
421.145	1551.51
421.353	1631.38
421.561	1651.86
421.769	1766.54
421.977	1690.77
422.185	1713.3
422.393	1901.71
422.601	1938.57
422.809	1832.08
423.017	2079.88
423.224	2006.16
423.432	2157.71
423.64	2116.75
423.848	2464.9
424.056	2266.25
424.263	2477.19
424.471	2544.77
424.679	2499.72
424.887	2733.18
425.094	2583.68
425.302	2808.96
425.51	2860.16
425.718	2931.84
425.925	3017.85
426.133	3044.48
426.341	3179.64
426.548	3323
426.756	3228.79
426.964	3398.77
427.171	3638.39
427.379	3742.83
427.586	3779.7
427.794	3927.15
428.001	4004.97
428.209	4093.04
428.417	4019.31
428.624	4385.9
428.832	4502.63
429.039	4338.79
429.247	4433
429.454	4785.25
429.662	5174.36
429.869	4824.16
430.076	5162.08
430.284	5041.25
430.491	5219.42
430.699	5510.23
430.906	5543
431.114	5549.14
431.321	5760.08
431.528	5938.26
431.736	6366.28
431.943	6566.98
432.15	6390.86
432.358	6456.39
432.565	6732.87
432.772	6800.45
432.979	7187.52
433.187	7263.29
433.394	7255.1
433.601	7713.84
433.808	7754.8
434.016	7679.03
434.223	8094.77
434.43	8688.68
434.637	8234.03
434.844	8821.8
435.052	9024.54
435.259	8995.87
435.466	9159.71
435.673	9040.93
435.88	9626.65
436.087	10171.41
436.294	10114.06
436.501	9907.22
436.708	10144.78
436.915	10435.6
437.122	11002.88
437.329	10812.42
437.537	11152.38
437.743	11197.44
437.95	11205.63
438.157	12010.48
438.364	12327.92
438.571	12362.73
438.778	12192.75
438.985	13480.92
439.192	13013.99
439.399	13489.12
439.606	13149.15
439.813	13759.45
440.02	14744.52
440.227	14273.49
440.433	14343.12
440.64	14808.01
440.847	14566.35
441.054	14832.58
441.261	15926.2
441.467	15750.07
441.674	16081.85
441.881	16628.65
442.088	16724.91
442.294	16792.49
442.501	16858.03
442.708	17318.82
442.914	17857.43
443.121	18678.67
443.328	18389.91
443.534	19495.81
443.741	19080.07
443.948	18662.29
444.154	20061.05
444.361	19999.61
444.568	20220.79
444.774	20151.16
444.981	20001.66
445.187	20857.71
445.394	22004.57
445.6	21461.86
445.807	23614.27
446.013	22461.27
446.22	22958.92
446.426	23765.82
446.633	23665.47
446.839	24767.28
447.046	23909.18
447.252	25236.27
447.459	25238.31
447.665	25172.78
447.871	26389.27
448.078	27454.22
448.284	26284.83
448.491	26823.44
448.697	27843.33
448.903	28324.6
449.11	28547.83
449.316	28123.9
449.522	28678.9
449.728	29506.28
449.935	29762.28
450.141	29774.56
450.347	30253.79
450.553	28967.66
450.76	30114.53
450.966	30685.91
451.172	30358.24
451.378	31664.84
451.584	30552.79
451.791	31474.38
451.997	31173.33
452.203	31840.96
452.409	31902.4
452.615	31720.13
452.821	30872.28
453.027	30399.19
453.233	31732.42
453.44	30816.98
453.646	31331.02
453.852	31142.61
454.058	31793.86
454.264	30704.34
454.47	31548.11
454.676	30882.52
454.882	31507.15
455.088	29129.45
455.294	29661.93
455.5	30012.13
455.705	30169.82
455.911	29328.11
456.117	28637.94
456.323	28054.27
456.529	26714.9
456.735	28005.12
456.941	27261.71
457.147	26802.96
457.352	25789.22
457.558	25793.31
457.764	25979.68
457.97	25299.75
458.176	25006.89
458.381	24615.73
458.587	23411.53
458.793	23548.74
458.999	22262.61
459.204	24009.53
459.41	23063.37
459.616	21644.13
459.821	21625.7
460.027	21699.42
460.233	21179.24
460.438	20421.49
460.644	20349.81
460.85	19493.76
461.055	19135.37
461.261	18969.48
461.466	17841.05
461.672	17353.63
461.878	18512.78
462.083	17175.46
462.289	16712.62
462.494	16737.2
462.7	15913.91
462.905	15561.66
463.111	16243.63
463.316	15997.88
463.522	15659.96
463.727	16026.55
463.932	15743.93
464.138	15504.32
464.343	15602.62
464.549	15119.3
464.754	15440.83
464.959	15365.06
465.165	15508.41
465.37	14732.23
465.575	14310.35
465.781	15086.53
465.986	15078.34
466.191	14554.06
466.397	14238.67
466.602	13493.21
466.807	14113.75
467.012	14029.78
467.218	13915.09
467.423	13847.51
467.628	13954.01
467.833	14326.74
468.038	13845.46
468.244	13706.2
468.449	14023.64
468.654	13583.32
468.859	13560.8
469.064	13568.99
469.269	12952.55
469.474	13292.51
469.679	13149.15
469.885	12938.21
470.09	12915.69
470.295	12792.81
470.5	12610.54
470.705	12778.47
470.91	12399.6
471.115	12520.43
471.32	12493.8
471.525	12506.09
471.73	11938.8
471.935	12303.34
472.139	11895.8
472.344	11760.63
472.549	11918.32
472.754	11801.59
472.959	11598.84
473.164	11000.83
473.369	11119.62
473.574	11256.83
473.778	11224.06
473.983	11123.71
474.188	11197.44
474.393	10634.25
474.598	10638.34
474.802	10581
475.007	10656.78
475.212	10761.22
475.417	10155.02
475.621	10195.98
475.826	10181.65
476.031	10089.49
476.235	10001.43
476.44	10152.98
476.645	9886.74
476.849	9849.88
477.054	9679.89
477.259	9503.77
477.463	9634.84
477.668	9239.58
477.872	9397.28
478.077	9122.85
478.282	8979.49
478.486	9112.61
478.691	9102.37
478.895	9034.78
479.1	8887.33
479.304	8938.53
479.509	8500.26
479.713	8533.03
479.918	8492.07
480.122	8330.28
480.326	8606.76
480.531	8455.21
480.735	8516.65
480.94	8422.44
481.144	8573.99
481.348	8121.39
481.553	8451.11
481.757	7928.88
481.961	8350.76
482.166	8344.62
482.37	8334.38
482.574	8010.8
482.778	8098.86
482.983	8336.43
483.187	8172.59
483.391	8191.02
483.595	8172.59
483.8	8213.55
484.004	8272.94
484.208	8330.28
484.412	8166.45
484.616	8043.57
484.821	8180.78
485.025	8049.71
485.229	8143.92
485.433	8049.71
485.637	8031.28
485.841	8094.77
486.045	8055.86
486.249	8004.66
486.453	7947.31
486.657	8174.64
486.861	8205.36
487.065	8057.9
487.269	8164.4
487.473	7978.03
487.677	8182.83
487.881	8180.78
488.085	8252.46
488.289	8283.18
488.493	8180.78
488.697	8348.72
488.901	8082.48
489.105	8143.92
489.309	8117.29
489.512	8221.74
489.716	8113.2
489.92	8283.18
490.124	8256.56
490.328	8346.67
490.531	8193.07
490.735	8389.67
490.939	8414.25
491.143	8287.28
491.346	8332.33
491.55	8332.33
491.754	8416.3
491.958	8399.91
492.161	8391.72
492.365	8586.28
492.569	8573.99
492.772	8612.9
492.976	8754.21
493.18	8664.1
493.383	8731.69
493.587	8836.13
493.79	8782.88
493.994	8832.04
494.197	8975.39
494.401	8776.74
494.605	9128.99
494.808	9128.99
495.012	9108.51
495.215	9188.38
495.419	9219.1
495.622	8995.87
495.825	9382.94
496.029	9401.37
496.232	9411.61
496.436	9432.09
496.639	9770.01
496.843	9679.89
497.046	9817.11
497.249	9708.57
497.453	9960.47
497.656	10015.76
497.859	10175.5
498.063	10392.59
498.266	10656.78
498.469	10263.57
498.673	10519.56
498.876	10667.02
499.079	10849.29
499.282	10900.48
499.485	11146.24
499.689	11146.24
499.892	11338.75
500.095	11312.13
500.298	11404.28
500.501	11484.16
500.705	11895.8
500.908	11973.62
501.111	11910.13
501.314	11930.61
501.517	12047.35
501.72	12399.6
501.923	12329.97
502.126	12579.82
502.329	12645.35
502.532	12823.53
502.735	13024.23
502.938	13204.45
503.141	13222.88
503.344	13505.5
503.547	13298.66
503.75	13765.59
503.953	13628.38
504.156	13913.05
504.359	13956.05
504.562	13994.97
504.765	14373.84
504.968	14392.27
505.17	14711.75
505.373	14730.19
505.576	14887.88
505.779	15066.05
505.982	15260.61
506.185	15496.13
506.387	15432.64
506.59	15711.16
506.793	15948.73
506.996	15883.19
507.198	16262.07
507.401	16073.65
507.604	16536.49
507.807	16645.04
508.009	16679.85
508.212	17091.49
508.415	17302.43
508.617	17490.85
508.82	17724.32
509.022	17484.7
509.225	17761.18
509.428	17904.54
509.63	18183.06
509.833	18193.3
510.035	18555.79
510.238	18660.24
510.44	18951.05
510.643	19192.71
510.845	19182.47
511.048	19248
511.25	19594.11
511.453	19385.22
511.655	20056.95
511.858	20093.82
512.06	20188.02
512.262	20607.86
512.465	20515.7
512.667	20872.04
512.87	21207.91
513.072	20740.97
513.274	21273.45
513.477	21721.95
513.679	21599.07
513.881	21844.83
514.084	22023
514.286	22205.27
514.488	22416.21
514.69	22692.69
514.893	22764.37
515.095	22784.85
515.297	23163.72
515.499	23372.61
515.701	23636.8
515.904	23911.23
516.106	23759.68
516.308	24316.73
516.51	24300.34
516.712	24564.53
516.914	24773.42
517.116	25088.81
517.318	25074.48
517.52	25441.06
517.722	25488.17
517.925	26041.12
518.127	25981.73
518.329	26149.66
518.531	26354.46
518.733	26827.54
518.935	27058.96
519.136	27032.33
519.338	27384.58
519.54	27230.99
519.742	27409.16
519.944	27759.36
520.146	27880.19
520.348	28070.65
520.55	27892.48
520.752	28357.37
520.954	28949.23
521.155	28932.85
521.357	29289.2
521.559	29590.25
521.761	29592.3
521.963	29793
522.164	29962.98
522.366	29934.31
522.568	30329.56
522.77	30550.74
522.971	31009.49
523.173	30472.92
523.375	30921.43
523.576	30835.41
523.778	30825.17
523.98	31855.3
524.181	31673.03
524.383	31668.94
524.584	31777.48
524.786	31931.08
524.988	31978.18
525.189	32588.47
525.391	32475.84
525.592	32416.44
525.794	32926.39
525.995	32897.72
526.197	32832.18
526.398	32969.4
526.6	33299.12
526.801	33213.1
527.003	33559.21
527.204	33458.86
527.406	33786.54
527.607	34132.64
527.808	33733.29
528.01	33764.01
528.211	34243.23
528.412	34120.35
528.614	34245.28
528.815	34177.7
529.016	34613.91
529.218	34198.18
529.419	34159.27
529.62	34278.05
529.822	34366.11
530.023	34771.61
530.224	34671.26
530.425	34724.5
530.626	34546.33
530.828	34603.67
531.029	35265.17
531.23	34648.73
531.431	34624.15
531.632	34966.17
531.833	34951.83
532.035	34704.03
532.236	35273.36
532.437	35109.52
532.638	34759.32
532.839	35420.81
533.04	35437.2
533.241	35091.09
533.442	35535.5
533.643	35322.51
533.844	35340.94
534.045	35537.55
534.246	35160.72
534.447	35367.57
534.648	35463.82
534.849	34996.88
535.05	35087
535.251	35330.7
535.451	35115.67
535.652	35682.95
535.853	35209.87
536.054	35873.42
536.255	35701.39
536.456	35539.6
536.657	35664.52
536.857	35558.03
537.058	35105.43
537.259	35508.88
537.46	35615.37
537.66	35555.98
537.861	35916.42
538.062	35213.97
538.263	35451.53
538.463	35347.09
538.664	35390.09
538.865	35596.94
539.065	35842.7
539.266	35568.27
539.466	35400.33
539.667	35121.81
539.868	35455.63
540.068	35496.59
540.269	35164.82
540.469	35715.72
540.67	34753.18
540.87	35275.41
541.071	35259.02
541.271	35332.75
541.472	35064.47
541.672	35367.57
541.873	35213.97
542.073	34767.51
542.274	35625.61
542.474	35500.68
542.675	34941.59
542.875	35379.85
543.075	34982.55
543.276	34767.51
543.476	35467.92
543.676	35138.19
543.877	35183.25
544.077	35228.31
544.277	35226.26
544.478	35068.56
544.678	35318.42
544.878	35039.89
545.078	35173.01
545.279	34704.03
545.479	34613.91
545.679	35240.59
545.879	34929.3
546.079	35046.04
546.28	34689.69
546.48	35017.36
546.68	35447.44
546.88	35160.72
547.08	35218.07
547.28	34759.32
547.48	34761.37
547.68	35097.24
547.88	34747.03
548.081	34978.45
548.281	34585.24
548.481	34839.19
548.681	35066.52
548.881	34550.43
549.081	34806.42
549.28	34630.3
549.48	34800.28
549.68	34697.88
549.88	34896.53
550.08	34644.63
550.28	34448.03
550.48	34724.5
550.68	35201.68
550.88	34572.96
551.08	34706.07
551.279	34507.42
551.479	34466.46
551.679	34931.35
551.879	34521.76
552.079	35230.35
552.278	34605.72
552.478	34314.91
552.678	34661.02
552.878	34790.04
553.077	34579.1
553.277	33977
553.477	35017.36
553.676	34640.54
553.876	34642.59
554.076	34462.36
554.275	34648.73
554.475	34022.05
554.674	34427.55
554.874	34544.28
555.074	34175.65
555.273	34368.16
555.473	34546.33
555.672	33940.13
555.872	34138.79
556.071	34380.45
556.271	34187.94
556.47	33710.76
556.67	34177.7
556.869	33860.26
557.068	34189.98
557.268	33882.79
557.467	34155.17
557.667	33731.24
557.866	34142.88
558.065	33798.82
558.265	33540.78
558.464	33276.59
558.663	34095.78
558.863	33268.4
559.062	33974.95
559.261	33499.82
559.461	33641.13
559.66	33354.41
559.859	33530.54
560.058	33563.31
560.258	33659.56
560.457	33211.06
560.656	33534.63
560.855	33202.86
561.054	33694.38
561.253	33049.27
561.453	33346.22
561.652	33428.14
561.851	33084.08
562.05	33278.64
562.249	32582.33
562.448	33362.61
562.647	32961.2
562.846	32936.63
563.045	33092.27
563.244	32322.24
563.443	32987.83
563.642	32414.4
563.841	32471.74
564.04	32670.39
564.239	32842.42
564.438	32297.66
564.637	32549.56
564.836	32498.36
565.035	32160.45
565.234	32099.01
565.432	32025.28
565.631	31986.37
565.83	32150.21
566.029	31845.06
566.228	31892.16
566.427	31675.08
566.625	31537.87
566.824	31865.54
567.023	31945.41
567.222	31146.7
567.42	31613.64
567.619	31595.21
567.818	31535.82
568.016	31603.4
568.215	31589.06
568.414	31351.5
568.612	31382.22
568.811	31124.18
569.01	31181.52
569.208	30794.45
569.407	31304.4
569.605	30784.21
569.804	30921.43
570.002	30788.31
570.201	30948.05
570.4	30511.83
570.598	30364.38
570.797	30264.03
570.995	30403.29
571.193	30253.79
571.392	30284.51
571.59	30079.71
571.789	29833.96
571.987	30257.88
572.186	30151.39
572.384	29561.58
572.582	30190.3
572.781	29989.6
572.979	29438.7
573.177	29897.44
573.376	29643.49
573.574	29557.48
573.772	29498.09
573.971	29391.59
574.169	29289.2
574.367	29229.8
574.565	29238
574.763	29201.13
574.962	28982
575.16	29004.53
575.358	29250.28
575.556	28572.41
575.754	29125.36
575.952	28699.38
576.151	29059.82
576.349	28560.12
576.547	28773.11
576.745	28715.76
576.943	28707.57
577.141	28648.18
577.339	28783.35
577.537	28171
577.735	28390.14
577.933	28093.18
578.131	28246.78
578.329	28013.31
578.527	27654.92
578.725	27931.39
578.923	27904.77
579.121	27622.15
579.319	27747.08
579.516	27792.13
579.714	27804.42
579.912	27476.74
580.11	27611.91
580.308	27579.14
580.506	27284.23
580.704	26843.92
580.901	27257.61
581.099	27394.82
581.297	27124.49
581.495	26653.46
581.692	27054.86
581.89	27013.9
582.088	27489.03
582.285	26843.92
582.483	27032.33
582.681	26657.56
582.878	26481.43
583.076	26542.87
583.274	26716.95
583.471	26172.19
583.669	26561.3
583.866	25887.52
584.064	26559.25
584.262	25983.77
584.459	26102.56
584.657	26125.08
584.854	25895.71
585.052	25600.8
585.249	25793.31
585.447	25758.5
585.644	25473.83
585.841	25742.11
586.039	26039.07
586.236	25158.44
586.434	25154.35
586.631	25277.22
586.828	25391.91
587.026	25236.27
587.223	25144.11
587.42	25285.42
587.618	25058.09
587.815	24691.51
588.012	24703.79
588.21	24734.51
588.407	24933.17
588.604	24867.63
588.801	24568.63
588.999	24683.31
589.196	24619.83
589.393	24417.08
589.59	24335.16
589.787	24335.16
589.984	24353.59
590.182	23688
590.379	24132.41
590.576	23999.29
590.773	24052.54
590.97	24122.17
591.167	24163.13
591.364	23966.52
591.561	24169.27
591.758	23614.27
591.955	23354.18
592.152	23544.64
592.349	23335.75
592.546	23468.87
592.743	23362.37
592.94	23149.39
593.137	23329.61
593.334	23012.17
593.531	22952.78
593.727	23046.99
593.924	22971.21
594.121	22780.75
594.318	23180.1
594.515	22328.15
594.712	22960.97
594.908	22360.92
595.105	22629.2
595.302	22235.99
595.499	22588.24
595.696	22606.67
595.892	22004.57
596.089	22274.9
596.286	22332.25
596.482	22000.47
596.679	22039.39
596.876	21926.75
597.072	21949.28
597.269	21928.8
597.466	21517.15
597.662	21945.18
597.859	21623.65
598.055	21654.37
598.252	21539.68
598.448	21697.38
598.645	21439.33
598.841	21425
599.038	21312.36
599.234	21109.61
599.431	20765.55
599.627	21195.62
599.824	21287.78
600.02	20779.89
600.217	20994.92
600.413	21033.83
600.609	20614
600.806	20599.66
601.002	20792.17
601.198	20310.9
601.395	20648.82
601.591	20419.44
601.787	20331.38
601.984	20296.56
602.18	20454.26
602.376	20202.36
602.572	20212.6
602.769	20294.52
602.965	19680.13
603.161	20171.64
603.357	19907.45
603.553	19936.12
603.75	19825.53
603.946	19790.72
604.142	19626.88
604.338	19680.13
604.534	19702.65
604.73	19331.97
604.926	19653.5
605.122	19626.88
605.318	19374.98
605.514	19137.41
605.71	18998.15
605.906	19159.94
606.102	19141.51
606.298	19293.06
606.494	19174.28
606.69	19288.96
606.886	19018.63
607.082	19057.54
607.278	18891.66
607.474	18682.77
607.67	18709.39
607.866	18803.6
608.062	19063.69
608.257	18774.92
608.453	18647.95
608.649	18568.08
608.845	18625.42
609.041	18725.77
609.236	18451.35
609.432	18449.3
609.628	18430.87
609.824	18314.13
610.019	18494.35
610.215	18277.27
610.411	18381.71
610.606	18201.49
610.802	18248.6
610.998	18215.83
611.193	18189.21
611.389	18027.42
611.584	18174.87
611.78	18236.31
611.976	17916.83
612.171	18054.04
612.367	17884.06
612.562	17910.68
612.758	17707.93
612.953	17992.6
613.149	17914.78
613.344	17576.86
613.539	17716.12
613.735	17818.52
613.93	17492.9
614.126	17687.45
614.321	17589.15
614.517	17566.62
614.712	17449.89
614.907	17435.55
615.103	17650.59
615.298	17376.16
615.493	17593.25
615.688	17230.76
615.884	17578.91
616.079	17447.84
616.274	17218.47
616.47	17245.09
616.665	16964.52
616.86	17212.32
617.055	17099.69
617.25	17105.83
617.445	17230.76
617.641	16913.32
617.836	16952.23
618.031	16729
618.226	16812.97
618.421	16843.69
618.616	17046.44
618.811	16593.84
619.006	16720.81
619.201	16249.78
619.396	16681.9
619.591	16274.35
619.786	16477.1
619.981	15991.73
620.176	16323.51
620.371	16053.17
620.566	16194.48
620.761	15985.59
620.956	16141.24
621.151	15922.1
621.346	15856.57
621.541	15547.33
621.735	15598.52
621.93	15528.89
622.125	15537.09
622.32	15250.37
622.515	15389.63
622.709	15377.34
622.904	15225.79
623.099	15242.18
623.294	15412.16
623.488	14908.36
623.683	15053.76
623.878	14996.42
624.072	14472.14
624.267	14998.47
624.462	14773.19
624.656	14599.12
624.851	14709.71
625.046	14525.39
625.24	14363.6
625.435	14472.14
625.629	14109.65
625.824	14273.49
626.018	14269.39
626.213	13605.85
626.407	13867.99
626.602	13673.43
626.796	13970.39
626.991	13761.5
627.185	13730.78
627.38	13573.08
627.574	13399.01
627.768	13407.2
627.963	13294.56
628.157	13312.99
628.352	13171.68
628.546	12844.01
628.74	12997.6
628.935	12889.06
629.129	12751.85
629.323	12729.32
629.517	12817.38
629.712	12788.71
629.906	12569.58
630.1	12284.91
630.294	12624.87
630.489	12399.6
630.683	12512.24
630.877	12246
631.071	12147.7
631.265	12162.03
631.459	12086.26
631.653	11983.86
631.848	12049.39
632.042	11750.39
632.236	11959.28
632.43	11947
632.624	11903.99
632.818	11686.9
633.012	11533.31
633.206	11430.91
633.4	11463.68
633.594	11406.33
633.788	11490.3
633.982	11678.71
634.176	11523.07
634.369	11301.89
634.563	11080.71
634.757	10990.59
634.951	11191.3
635.145	11461.63
635.339	11045.89
635.533	11035.65
635.726	11039.75
635.92	10703.88
636.114	10800.13
636.308	10662.92
636.501	10560.52
636.695	10693.64
636.889	10445.84
637.083	10390.54
637.276	10376.2
637.47	10236.94
637.664	10200.08
637.857	10353.68
638.051	10284.05
638.244	10519.56
638.438	10064.91
638.632	9946.13
638.825	9786.39
639.019	10026
639.212	9917.46
639.406	9919.51
639.599	9753.62
639.793	9772.05
639.986	9624.6
640.18	9710.61
640.373	9896.98
640.567	9540.63
640.76	9552.92
640.954	9460.76
641.147	9475.1
641.34	9376.8
641.534	9284.64
641.727	9217.05
641.92	9415.71
642.114	9145.38
642.307	9186.33
642.5	9085.98
642.694	8993.83
642.887	8944.67
643.08	9081.89
643.273	8875.04
643.467	8930.34
643.66	8860.71
643.853	8625.19
644.046	8600.62
644.239	8774.69
644.432	8436.78
644.626	8584.23
644.819	8500.26
645.012	8516.65
645.205	8442.92
645.398	8494.12
645.591	8324.14
645.784	8436.78
645.977	8313.9
646.17	8080.43
646.363	8324.14
646.556	8160.3
646.749	8057.9
646.942	8125.49
647.135	7906.35
647.328	8137.77
647.521	7894.07
647.714	7830.58
647.907	7838.77
648.099	7791.67
648.292	7730.23
648.485	7771.19
648.678	7691.32
648.871	7654.45
649.064	7715.89
649.256	7556.15
649.449	7590.97
649.642	7324.73
649.835	7511.1
650.027	7445.56
650.22	7373.88
650.413	7357.5
650.605	7363.64
650.798	7208
650.991	7083.07
651.183	7210.04
651.376	7193.66
651.568	7015.49
651.761	7001.15
651.954	7181.37
652.146	6919.23
652.339	6958.14
652.531	6927.42
652.724	6958.14
652.916	6683.72
653.109	6720.58
653.301	6812.74
653.494	6806.59
653.686	6636.61
653.879	6646.85
654.071	6716.48
654.263	6605.89
654.456	6597.7
654.648	6581.32
654.84	6483.02
655.033	6546.5
655.225	6505.54
655.417	6339.66
655.61	6362.19
655.802	6435.91
655.994	6446.15
656.186	6280.27
656.379	6339.66
656.571	6210.64
656.763	6091.85
656.955	6104.14
657.148	6163.53
657.34	6128.72
657.532	5948.5
657.724	6042.7
657.916	5962.83
658.108	6005.84
658.3	5885.01
658.492	5960.78
658.684	5940.3
658.876	5692.5
659.068	5817.43
659.26	5706.84
659.452	5698.64
659.644	5854.29
659.836	5626.96
660.028	5768.27
660.22	5665.88
660.412	5651.54
660.604	5465.18
660.796	5547.09
660.988	5586.01
661.18	5510.23
661.372	5549.14
661.563	5522.52
661.755	5350.49
661.947	5358.68
662.139	5493.85
662.331	5303.39
662.522	5262.43
662.714	5004.38
662.906	5293.15
663.097	5145.69
663.289	4969.57
663.481	5096.54
663.673	5094.49
663.864	5135.45
664.056	5022.81
664.247	5069.92
664.439	4990.05
664.631	4940.9
664.822	5039.2
665.014	4879.46
665.205	4824.16
665.397	4969.57
665.588	4797.54
665.78	4717.67
665.971	4893.79
666.163	4869.22
666.354	4856.93
666.546	4662.37
666.737	4684.9
666.929	4693.09
667.12	4615.27
667.311	4734.05
667.503	4584.55
667.694	4805.73
667.885	4529.25
668.077	4588.64
668.268	4494.44
668.459	4623.46
668.651	4476.01
668.842	4408.42
669.033	4574.31
669.224	4422.76
669.416	4535.4
669.607	4478.05
669.798	4355.18
669.989	4463.72
670.18	4396.14
670.371	4367.46
670.563	4306.02
670.754	4191.34
670.945	4383.85
671.136	4224.11
671.327	4220.01
671.518	4357.22
671.709	4289.64
671.9	4074.6
672.091	4041.84
672.282	4031.6
672.473	4160.62
672.664	4136.04
672.855	4025.45
673.046	4144.24
673.237	4084.84
673.428	4168.81
673.619	3888.24
673.809	3931.25
674	3957.87
674.191	3898.48
674.382	3878
674.573	4011.12
674.764	3871.86
674.954	3863.66
675.145	3808.37
675.336	3783.79
675.527	3798.13
675.717	3863.66
675.908	3964.01
676.099	3783.79
676.289	3683.44
676.48	3810.42
676.671	3746.93
676.861	3652.72
677.052	3734.64
677.243	3652.72
677.433	3759.22
677.624	3859.57
677.814	3587.19
678.005	3611.76
678.195	3538.04
678.386	3581.04
678.576	3611.76
678.767	3521.65
678.957	3404.92
679.148	3579
679.338	3427.45
679.529	3609.72
679.719	3460.21
679.909	3476.6
680.1	3611.76
680.29	3388.53
680.481	3544.18
680.671	3429.49
680.861	3363.96
681.052	3282.04
681.242	3425.4
681.432	3490.93
681.622	3384.44
681.813	3398.77
682.003	3345.53
682.193	3325.05
682.383	3478.65
682.573	3392.63
682.764	3443.83
682.954	3331.19
683.144	3284.09
683.334	3312.76
683.524	3255.42
683.714	3343.48
683.904	3406.97
684.094	3257.46
684.284	3157.11
684.474	3226.75
684.664	3298.42
684.854	3325.05
685.044	3241.08
685.234	3060.86
685.424	3181.69
685.614	3267.7
685.804	3163.26
685.994	3153.02
686.184	3241.08
686.374	3085.44
686.564	3083.39
686.753	3042.43
686.943	2985.09
687.133	2987.13
687.323	3105.92
687.513	3040.38
687.702	2972.8
687.892	3030.14
688.082	2987.13
688.272	3028.09
688.461	2987.13
688.651	3038.33
688.841	2864.25
689.03	2872.45
689.22	3112.06
689.41	2876.54
689.599	2937.98
689.789	2976.89
689.979	2942.08
690.168	2847.87
690.358	2956.41
690.547	2878.59
690.737	2727.04
690.926	2829.44
691.116	2706.56
691.305	2804.86
691.495	2790.53
691.684	2780.29
691.874	2780.29
692.063	2784.38
692.252	2585.73
692.442	2747.52
692.631	2790.53
692.82	2696.32
693.01	2626.69
693.199	2643.07
693.388	2696.32
693.578	2643.07
693.767	2657.41
693.956	2595.97
694.146	2702.47
694.335	2520.2
694.524	2706.56
694.713	2538.63
694.902	2559.11
695.092	2555.01
695.281	2544.77
695.47	2542.72
695.659	2536.58
695.848	2469
696.037	2473.09
696.226	2604.16
696.415	2458.76
696.604	2389.13
696.793	2413.7
696.982	2495.62
697.171	2466.95
697.36	2411.65
697.549	2460.81
697.738	2288.78
697.927	2266.25
698.116	2425.99
698.305	2344.07
698.494	2356.36
698.683	2415.75
698.872	2514.05
699.061	2348.17
699.25	2405.51
699.438	2438.28
699.627	2339.97
699.816	2399.37
700.005	2348.17
700.193	2380.93
700.382	2319.5
700.571	2286.73
700.76	2337.93
700.948	2325.64
701.137	2309.26
701.326	2167.95
701.514	2311.3
701.703	2344.07
701.892	2327.69
702.08	2303.11
702.269	2395.27
702.457	2137.23
702.646	2262.15
702.834	2169.99
703.023	2229.38
703.212	2139.27
703.4	2229.38
703.589	2262.15
703.777	2342.02
703.965	2217.1
704.154	2235.53
704.342	2159.75
704.531	2245.77
704.719	2243.72
704.907	2286.73
705.096	2172.04
705.284	2227.34
705.472	2219.14
705.661	2270.34
705.849	2305.16
706.037	2204.81
706.226	2262.15
706.414	2200.71
706.602	2331.78
706.79	2223.24
706.979	2096.27
707.167	2159.75
707.355	2190.47
707.543	2143.37
707.731	2202.76
707.919	2153.61
708.107	2143.37
708.296	2106.51
708.484	2163.85
708.672	2204.81
708.86	2251.91
709.048	2243.72
709.236	2129.03
709.424	2253.96
709.612	2169.99
709.8	2176.14
709.988	2155.66
710.176	2229.38
710.364	2061.45
710.551	2096.27
710.739	2174.09
710.927	2174.09
711.115	2215.05
711.303	2108.55
711.491	2198.67
711.679	2157.71
711.866	2135.18
712.054	2167.95
712.242	2049.16
712.43	2276.49
712.617	2155.66
712.805	2227.34
712.993	2249.86
713.181	2073.74
713.368	2225.29
713.556	2186.38
713.744	2151.56
713.931	2180.23
714.119	2233.48
714.306	2151.56
714.494	2178.19
714.682	2182.28
714.869	2065.55
715.057	2167.95
715.244	2157.71
715.432	2147.47
715.619	2065.55
715.807	2135.18
715.994	2081.93
716.182	2051.21
716.369	2071.69
716.556	2118.79
716.744	2260.1
716.931	2210.95
717.119	2290.82
717.306	2143.37
717.493	2088.07
717.681	2169.99
717.868	2069.64
718.055	2126.99
718.242	2186.38
718.43	2192.52
718.617	2149.51
718.804	2200.71
718.991	2051.21
719.179	2172.04
719.366	2053.26
719.553	2245.77
719.74	2106.51
719.927	2057.36
720.114	2227.34
720.301	2178.19
720.488	2098.31
720.676	2129.03
720.863	2249.86
721.05	2221.19
721.237	2143.37
721.424	2036.88
721.611	2235.53
721.798	2057.36
721.985	2131.08
722.172	2178.19
722.358	2172.04
722.545	2129.03
722.732	2155.66
722.919	2157.71
723.106	2190.47
723.293	2182.28
723.48	2155.66
723.667	2178.19
723.853	2272.39
724.04	2090.12
724.227	2200.71
724.414	2081.93
724.6	2202.76
724.787	2135.18
724.974	2163.85
725.161	2149.51
725.347	2153.61
725.534	2051.21
725.72	2213
725.907	2086.03
726.094	2215.05
726.28	2221.19
726.467	2202.76
726.653	2159.75
726.84	2065.55
727.027	2229.38
727.213	2073.74
727.4	2215.05
727.586	2167.95
727.773	2061.45
727.959	2161.8
728.145	2247.82
728.332	2184.33
728.518	2153.61
728.705	2145.42
728.891	2145.42
729.077	2116.75
729.264	2153.61
729.45	2172.04
729.636	2389.13
729.823	2239.62
730.009	2299.02
730.195	2253.96
730.382	2196.62
730.568	2038.92
730.754	2219.14
730.94	2221.19
731.126	2208.9
731.313	2237.58
731.499	2176.14
731.685	2344.07
731.871	2268.3
732.057	2206.86
732.243	2213
732.429	2137.23
732.615	2192.52
732.801	2192.52
732.987	2290.82
733.173	2178.19
733.359	2100.36
733.545	2233.48
733.731	2198.67
733.917	2153.61
734.103	2153.61
734.289	2247.82
734.475	2169.99
734.661	2233.48
734.847	2120.84
735.033	2096.27
735.219	2141.32
735.404	2227.34
735.59	2192.52
735.776	2217.1
735.962	2274.44
736.148	2161.8
736.333	2176.14
736.519	2020.49
736.705	2161.8
736.89	2143.37
737.076	2147.47
737.262	2104.46
737.447	2100.36
737.633	2086.03
737.819	2169.99
738.004	2118.79
738.19	2045.07
738.375	2200.71
738.561	2190.47
738.747	1995.92
738.932	2057.36
739.118	2108.55
739.303	2159.75
739.489	2129.03
739.674	2118.79
739.859	2159.75
740.045	2192.52
740.23	2163.85
740.416	2079.88
740.601	1973.39
740.786	2014.35
740.972	2006.16
741.157	2073.74
741.342	1952.91
741.528	2034.83
741.713	2061.45
741.898	2141.32
742.084	1987.72
742.269	2045.07
742.454	2096.27
742.639	2073.74
742.824	1989.77
743.01	1975.44
743.195	2106.51
743.38	1993.87
743.565	1991.82
743.75	1870.99
743.935	2032.78
744.12	1987.72
744.305	1838.22
744.49	1946.76
744.675	1920.14
744.86	1840.27
745.045	2012.3
745.23	1957
745.415	1981.58
745.6	1926.29
745.785	1842.32
745.97	2002.06
746.155	1883.28
746.34	1924.24
746.525	1870.99
746.71	1881.23
746.895	1807.5
747.079	1741.97
747.264	1875.09
747.449	1885.33
747.634	1875.09
747.819	1737.87
748.003	1856.65
748.188	1735.82
748.373	1766.54
748.557	1748.11
748.742	1774.74
748.927	1817.74
749.111	1791.12
749.296	1735.82
749.481	1680.53
749.665	1698.96
749.85	1682.58
750.034	1594.51
750.219	1619.09
750.404	1614.99
750.588	1543.32
750.773	1610.9
750.957	1588.37
751.141	1631.38
751.326	1645.71
751.51	1694.86
751.695	1565.84
751.879	1518.74
752.064	1635.47
752.248	1541.27
752.432	1561.75
752.617	1508.5
752.801	1541.27
752.985	1578.13
753.17	1563.79
753.354	1567.89
753.538	1498.26
753.722	1535.12
753.907	1367.19
754.091	1410.2
754.275	1504.4
754.459	1361.05
754.643	1471.64
754.828	1412.25
755.012	1379.48
755.196	1356.95
755.38	1442.96
755.564	1457.3
755.748	1391.77
755.932	1440.92
756.116	1402.01
756.3	1315.99
756.484	1344.66
756.668	1299.61
756.852	1426.58
757.036	1338.52
757.22	1301.65
757.404	1385.62
757.588	1291.41
757.772	1254.55
757.956	1287.32
758.14	1201.3
758.323	1283.22
758.507	1244.31
758.691	1195.16
758.875	1256.6
759.059	1277.08
759.242	1205.4
759.426	1295.51
759.61	1221.78
759.794	1135.77
759.977	1182.87
760.161	1279.13
760.345	1242.26
760.528	1252.5
760.712	1238.17
760.895	1135.77
761.079	1201.3
761.263	1164.44
761.446	1148.06
761.63	1119.39
761.813	1205.4
761.997	1029.27
762.18	1109.15
762.364	1125.53
762.547	1170.58
762.731	1096.86
762.914	1051.8
763.098	1080.47
763.281	1119.39
763.464	1131.67
763.648	1131.67
763.831	1074.33
764.015	1014.94
764.198	1027.23
764.381	1080.47
764.564	1049.75
764.748	1045.66
764.931	1088.67
765.114	1143.96
765.297	998.56
765.481	1000.6
765.664	1004.7
765.847	1064.09
766.03	1094.81
766.213	980.12
766.397	1041.56
766.58	990.36
766.763	1027.23
766.946	980.12
767.129	1047.71
767.312	1027.23
767.495	900.25
767.678	978.08
767.861	1062.04
768.044	885.92
768.227	1055.9
768.41	990.36
768.593	994.46
768.776	937.12
768.959	951.45
769.142	939.16
769.324	933.02
769.507	992.41
769.69	914.59
769.873	902.3
770.056	924.83
770.239	943.26
770.421	1008.8
770.604	967.84
770.787	941.21
770.97	902.3
771.152	881.82
771.335	869.53
771.518	906.4
771.7	892.06
771.883	824.48
772.066	869.53
772.248	836.77
772.431	828.57
772.613	941.21
772.796	885.92
772.978	838.81
773.161	855.2
773.343	818.33
773.526	750.75
773.708	816.29
773.891	707.74
774.073	867.49
774.256	740.51
774.438	826.53
774.621	758.94
774.803	810.14
774.985	752.8
775.168	857.25
775.35	775.33
775.532	744.61
775.715	840.86
775.897	765.09
776.079	738.46
776.261	844.96
776.444	713.89
776.626	775.33
776.808	763.04
776.99	707.74
777.173	773.28
777.355	720.03
777.537	677.02
777.719	728.22
777.901	722.08
778.083	752.8
778.265	711.84
778.447	720.03
778.629	656.54
778.811	746.66
778.993	748.7
779.175	775.33
779.357	648.35
779.539	689.31
779.721	705.7
779.903	654.5
780.085	650.4
780.267	605.35
780.449	638.11
780.631	695.46
780.812	623.78
780.994	631.97
781.176	584.87
781.358	601.25
781.54	588.96
781.721	644.26
781.903	564.39
782.085	619.68
782.267	576.67
782.448	562.34
782.63	562.34
782.812	586.91
782.993	658.59
783.175	550.05
783.357	580.77
783.538	562.34
783.72	568.48
783.901	562.34
784.083	572.58
784.264	492.71
784.446	531.62
784.627	498.85
784.809	519.33
784.99	423.08
785.172	425.12
785.353	603.3
785.535	521.38
785.716	484.52
785.897	367.78
786.079	496.8
786.26	603.3
786.441	498.85
786.623	433.32
786.804	449.7
786.985	513.19
787.167	488.61
787.348	511.14
787.529	488.61
787.71	488.61
787.891	484.52
788.073	447.65
788.254	400.55
788.435	453.8
788.616	441.51
788.797	480.42
788.978	406.69
789.159	412.84
789.34	498.85
789.522	355.49
789.703	412.84
789.884	414.88
790.065	439.46
790.246	472.23
790.427	400.55
790.607	392.36
790.788	441.51
790.969	464.04
791.15	332.97
791.331	398.5
791.512	410.79
791.693	359.59
791.874	373.92
792.054	394.4
792.235	459.94
792.416	367.78
792.597	351.4
792.778	382.12
792.958	359.59
793.139	396.45
793.32	343.21
793.5	373.92
793.681	418.98
793.862	353.45
794.042	310.44
794.223	341.16
794.404	312.49
794.584	394.4
794.765	300.2
794.945	285.86
795.126	324.77
795.306	378.02
795.487	361.64
795.667	343.21
795.848	277.67
796.028	300.2
796.209	337.06
796.389	359.59
796.57	375.97
796.75	324.77
796.93	326.82
797.111	238.76
797.291	246.95
797.471	367.78
797.652	242.85
797.832	316.58
798.012	341.16
798.192	271.53
798.373	253.09
798.553	240.81
798.733	308.39
798.913	263.33
799.093	242.85
799.274	255.14
799.454	281.77
799.634	314.53
799.814	341.16
799.994	261.29
800.174	298.15
800.354	271.53
800.534	341.16
800.714	267.43
800.894	326.82
801.074	273.57
801.254	285.86
801.434	371.88
801.614	285.86
801.794	214.18
801.974	728.22
802.154	322.73
802.334	298.15
802.514	257.19
802.693	310.44
802.873	193.7
803.053	251.05
803.233	287.91
803.413	287.91
803.592	197.8
803.772	242.85
803.952	251.05
804.131	201.9
804.311	308.39
804.491	253.09
804.67	263.33
804.85	263.33
805.03	294.05
805.209	234.66
805.389	195.75
805.568	244.9
805.748	232.62
805.928	255.14
806.107	189.61
806.287	244.9
806.466	183.46
806.646	255.14
806.825	189.61
807.004	242.85
807.184	193.7
807.363	220.33
807.543	199.85
807.722	160.94
807.901	195.75
808.081	365.73
808.26	201.9
808.439	251.05
808.619	279.72
808.798	160.94
808.977	160.94
809.156	316.58
809.336	185.51
809.515	318.63
809.694	169.13
809.873	197.8
810.052	177.32
810.231	218.28
810.411	234.66
810.59	224.42
810.769	101.55
810.948	253.09
811.127	193.7
811.306	165.03
811.485	212.14
811.664	148.65
811.843	187.56
812.022	220.33
812.201	183.46
812.38	244.9
812.559	216.23
812.737	130.22
812.916	191.66
813.095	228.52
813.274	130.22
813.453	214.18
813.632	162.98
813.811	191.66
813.989	144.55
814.168	210.09
814.347	242.85
814.526	201.9
814.704	171.18
814.883	169.13
815.062	83.11
815.24	181.42
815.419	201.9
815.598	185.51
815.776	122.02
815.955	152.74
816.133	173.22
816.312	146.6
816.49	160.94
816.669	193.7
816.847	199.85
817.026	205.99
817.204	193.7
817.383	105.64
817.561	132.26
817.74	208.04
817.918	230.57
818.097	144.55
818.275	187.56
818.453	222.38
818.632	197.8
818.81	83.11
818.988	122.02
819.167	169.13
819.345	136.36
819.523	181.42
819.701	152.74
819.879	257.19
820.058	132.26
820.236	128.17
820.414	162.98
820.592	160.94
820.77	167.08
820.948	169.13
821.127	146.6
821.305	160.94
821.483	183.46
821.661	156.84
821.839	179.37
822.017	107.69
822.195	128.17
822.373	66.73
822.551	136.36
822.729	148.65
822.907	156.84
823.085	138.41
823.262	244.9
823.44	158.89
823.618	173.22
823.796	136.36
823.974	185.51
824.152	185.51
824.329	203.94
824.507	226.47
824.685	132.26
824.863	79.02
825.04	193.7
825.218	179.37
825.396	70.83
825.574	115.88
825.751	103.59
825.929	62.63
826.107	107.69
826.284	154.79
826.462	103.59
826.639	134.31
826.817	62.63
826.994	148.65
827.172	81.07
827.349	146.6
827.527	160.94
827.704	210.09
827.882	109.74
828.059	115.88
828.237	101.55
828.414	99.5
828.591	85.16
828.769	128.17
828.946	130.22
829.124	107.69
829.301	148.65
829.478	83.11
829.655	175.27
829.833	136.36
830.01	115.88
830.187	122.02
830.364	103.59
830.542	58.54
830.719	136.36
830.896	185.51
831.073	124.07
831.25	81.07
831.427	122.02
831.604	179.37
831.782	162.98
831.959	148.65
832.136	99.5
832.313	128.17
832.49	101.55
832.667	89.26
832.844	1.19
833.021	197.8
833.198	144.55
833.374	152.74
833.551	74.92
833.728	175.27
833.905	160.94
834.082	87.21
834.259	115.88
834.436	210.09
834.612	68.78
834.789	70.83
834.966	64.68
835.143	107.69
835.319	93.35
835.496	140.46
835.673	124.07
835.85	87.21
836.026	79.02
836.203	107.69
836.38	115.88
836.556	91.31
836.733	27.82
836.909	109.74
837.086	29.87
837.262	144.55
837.439	109.74
837.616	95.4
837.792	40.11
837.968	13.48
838.145	64.68
838.321	21.67
838.498	144.55
838.674	101.55
838.851	54.44
839.027	87.21
839.203	83.11
839.38	79.02
839.556	-2.9
839.732	50.35
839.909	95.4
840.085	136.36
840.261	109.74
840.437	89.26
840.614	124.07
840.79	165.03
840.966	107.69
841.142	132.26
841.318	64.68
841.494	44.2
841.671	148.65
841.847	-23.38
842.023	103.59
842.199	103.59
842.375	91.31
842.551	5.29
842.727	40.11
842.903	103.59
843.079	115.88
843.255	119.98
843.431	56.49
843.607	79.02
843.783	66.73
843.959	52.39
844.134	7.34
844.31	97.45
844.486	107.69
844.662	97.45
844.838	105.64
845.013	58.54
845.189	105.64
845.365	115.88
845.541	113.83
845.716	107.69
845.892	70.83
846.068	70.83
846.244	50.35
846.419	122.02
846.595	89.26
846.77	1.19
846.946	150.7
847.122	62.63
847.297	5.29
847.473	97.45
847.648	93.35
847.824	72.87
847.999	13.48
848.175	62.63
848.35	29.87
848.526	76.97
848.701	64.68
848.876	38.06
849.052	83.11
849.227	68.78
849.403	58.54
849.578	79.02
849.753	23.72
849.929	89.26
850.104	42.15
850.279	25.77
850.454	105.64
850.63	136.36
850.805	103.59
850.98	136.36
851.155	93.35
851.33	103.59
851.505	40.11
851.681	165.03
851.856	17.58
852.031	103.59
852.206	66.73
852.381	9.39
852.556	-21.33
852.731	29.87
852.906	40.11
853.081	76.97
853.256	38.06
853.431	46.25
853.606	72.87
853.781	126.12
853.956	-35.67
854.131	66.73
854.305	46.25
854.48	68.78
854.655	115.88
854.83	58.54
855.005	124.07
855.18	-7
855.354	-15.19
855.529	-11.09
855.704	81.07
855.879	-0.85
856.053	15.53
856.228	29.87
856.403	29.87
856.577	50.35
856.752	29.87
856.926	95.4
857.101	-17.24
857.276	64.68
857.45	21.67
857.625	31.91
857.799	62.63
857.974	99.5
858.148	29.87
858.323	105.64
858.497	72.87
858.672	113.83
858.846	119.98
859.02	109.74
859.195	44.2
859.369	64.68
859.543	111.78
859.718	33.96
859.892	15.53
860.066	40.11
860.241	91.31
860.415	46.25
860.589	62.63
860.763	62.63
860.938	54.44
861.112	93.35
861.286	29.87
861.46	15.53
861.634	19.63
861.808	29.87
861.982	21.67
862.157	52.39
862.331	72.87
862.505	21.67
862.679	1.19
862.853	11.43
863.027	7.34
863.201	87.21
863.375	21.67
863.549	113.83
863.722	21.67
863.896	62.63
864.07	38.06
864.244	95.4
864.418	113.83
864.592	36.01
864.766	9.39
864.939	-7
865.113	81.07
865.287	70.83
865.461	-31.57
865.634	95.4
865.808	81.07
865.982	17.58
866.156	-17.24
866.329	33.96
866.503	19.63
866.676	81.07
866.85	33.96
867.024	-13.14
867.197	48.3
867.371	93.35
867.544	50.35
867.718	17.58
867.891	97.45
868.065	-50
868.238	-9.05
868.412	46.25
868.585	46.25
868.759	-11.09
868.932	19.63
869.105	70.83
869.279	29.87
869.452	-54.1
869.625	13.48
869.799	91.31
869.972	79.02
870.145	-31.57
870.319	52.39
870.492	79.02
870.665	11.43
870.838	-17.24
871.011	36.01
871.185	-15.19
871.358	27.82
871.531	-2.9
871.704	11.43
871.877	50.35
872.05	40.11
872.223	5.29
872.396	17.58
872.569	83.11
872.742	-2.9
872.915	40.11
873.088	46.25
873.261	58.54
873.434	54.44
873.607	-17.24
873.78	11.43
873.953	83.11
874.126	42.15
874.299	1.19
874.471	13.48
874.644	44.2
874.817	-50
874.99	115.88
875.163	44.2
875.335	23.72
875.508	87.21
875.681	89.26
875.853	21.67
876.026	42.15
876.199	44.2
876.371	-2.9
876.544	111.78
876.717	33.96
876.889	42.15
877.062	15.53
877.234	70.83
877.407	-0.85
877.579	70.83
877.752	76.97
877.924	64.68
878.097	111.78
878.269	48.3
878.442	70.83
878.614	72.87
878.786	-4.95
878.959	60.59
879.131	97.45
879.303	58.54
879.476	54.44
879.648	81.07
879.82	111.78
879.993	-66.39
880.165	15.53
880.337	142.5
880.509	66.73
880.681	-11.09
880.854	38.06
881.026	62.63
881.198	95.4
881.37	29.87
881.542	56.49
881.714	17.58
881.886	13.48
882.058	13.48
882.23	83.11
882.402	54.44
882.574	128.17
882.746	48.3
882.918	74.92
883.09	52.39
883.262	48.3
883.434	9.39
883.606	79.02
883.778	58.54
883.95	95.4
884.122	-17.24
884.293	160.94
884.465	44.2
884.637	66.73
884.809	42.15
884.98	38.06
885.152	36.01
885.324	-35.67
885.496	124.07
885.667	44.2
885.839	-2.9
886.011	-29.52
886.182	95.4
886.354	58.54
886.525	-13.14
886.697	36.01
886.869	38.06
887.04	79.02
887.212	142.5
887.383	113.83
887.555	23.72
887.726	58.54
887.897	33.96
888.069	160.94
888.24	79.02
888.412	50.35
888.583	21.67
888.754	25.77
888.926	-7
889.097	11.43
889.268	-11.09
889.44	58.54
889.611	58.54
889.782	15.53
889.953	-19.29
890.125	64.68
890.296	-9.05
890.467	60.59
890.638	-4.95
890.809	38.06
890.98	-9.05
891.151	48.3
891.323	74.92
891.494	-19.29
891.665	58.54
891.836	33.96
892.007	13.48
892.178	74.92
892.349	27.82
892.52	33.96
892.691	-4.95
892.862	-43.86
893.032	-31.57
893.203	-4.95
893.374	95.4
893.545	-15.19
893.716	29.87
893.887	38.06
894.057	29.87
894.228	42.15
894.399	19.63
894.57	148.65
894.74	31.91
894.911	48.3
895.082	64.68
895.253	46.25
895.423	81.07
895.594	52.39
895.764	15.53
895.935	9.39
896.106	52.39
896.276	74.92
896.447	9.39
896.617	54.44
896.788	33.96
896.958	-19.29
897.129	74.92
897.299	31.91
897.47	15.53
897.64	36.01
897.81	83.11
897.981	-7
898.151	27.82
898.322	1.19
898.492	44.2
898.662	-2.9
898.832	9.39
899.003	46.25
899.173	70.83
899.343	58.54
899.513	-31.57
