Data from USB4F104151__37__13-11-00-703.txt Node

Date: Fri Mar 14 13:11:00 EDT 2025
User: louis
Spectrometer: USB4F10415
Trigger mode: 4
Integration Time (sec): 2.000000E-2
Scans to average: 1
Electric dark correction enabled: true
Nonlinearity correction enabled: false
Boxcar width: 0
XAxis mode: Wavelengths
Number of Pixels in Spectrum: 3648
>>>>>Begin Spectral Data<<<<<
178.204	-108.54
178.424	-108.54
178.644	-108.54
178.864	-108.54
179.084	-169.98
179.304	43.01
179.524	30.72
179.744	-77.82
179.964	26.62
180.184	-10.24
180.404	22.53
180.624	6.14
180.844	18.43
181.064	24.58
181.283	-2.05
181.503	-10.24
181.723	-71.68
181.943	24.58
182.163	57.34
182.383	-2.05
182.602	47.1
182.822	71.68
183.042	8.19
183.262	43.01
183.482	51.2
183.701	-49.15
183.921	12.29
184.141	36.86
184.361	2.05
184.58	43.01
184.8	47.1
185.02	2.05
185.239	12.29
185.459	8.19
185.679	59.39
185.898	-43.01
186.118	79.87
186.338	40.96
186.557	63.49
186.777	-20.48
186.997	-26.62
187.216	-10.24
187.436	28.67
187.655	65.54
187.875	86.01
188.095	8.19
188.314	47.1
188.534	120.83
188.753	-6.14
188.973	88.06
189.192	77.82
189.412	-10.24
189.631	16.38
189.851	63.49
190.07	49.15
190.29	10.24
190.509	-10.24
190.729	55.3
190.948	6.14
191.168	104.45
191.387	120.83
191.607	34.82
191.826	73.73
192.045	2.05
192.265	-2.05
192.484	34.82
192.704	14.34
192.923	-6.14
193.142	88.06
193.362	-16.38
193.581	-2.05
193.8	92.16
194.02	71.68
194.239	-24.58
194.458	55.3
194.678	-34.82
194.897	47.1
195.116	57.34
195.335	30.72
195.555	61.44
195.774	24.58
195.993	133.12
196.212	20.48
196.432	-18.43
196.651	14.34
196.87	18.43
197.089	106.49
197.308	88.06
197.528	71.68
197.747	65.54
197.966	-2.05
198.185	67.58
198.404	34.82
198.623	71.68
198.842	-30.72
199.062	-30.72
199.281	34.82
199.5	10.24
199.719	26.62
199.938	30.72
200.157	71.68
200.376	-12.29
200.595	129.02
200.814	12.29
201.033	55.3
201.252	79.87
201.471	32.77
201.69	38.91
201.909	71.68
202.128	79.87
202.347	22.53
202.566	14.34
202.785	-8.19
203.004	55.3
203.223	141.31
203.442	14.34
203.661	-10.24
203.879	10.24
204.098	20.48
204.317	22.53
204.536	69.63
204.755	14.34
204.974	47.1
205.193	65.54
205.411	63.49
205.63	16.38
205.849	38.91
206.068	-45.06
206.287	-2.05
206.505	22.53
206.724	16.38
206.943	12.29
207.162	-8.19
207.381	26.62
207.599	14.34
207.818	75.77
208.037	47.1
208.255	32.77
208.474	8.19
208.693	45.06
208.911	22.53
209.13	22.53
209.349	30.72
209.567	75.77
209.786	6.14
210.005	61.44
210.223	16.38
210.442	92.16
210.661	-4.1
210.879	47.1
211.098	14.34
211.316	34.82
211.535	63.49
211.753	-40.96
211.972	63.49
212.191	-22.53
212.409	69.63
212.628	18.43
212.846	-38.91
213.065	114.69
213.283	100.35
213.502	49.15
213.72	88.06
213.938	43.01
214.157	4.1
214.375	-32.77
214.594	-8.19
214.812	16.38
215.031	-20.48
215.249	40.96
215.467	94.21
215.686	6.14
215.904	98.3
216.122	88.06
216.341	30.72
216.559	10.24
216.778	69.63
216.996	47.1
217.214	61.44
217.432	98.3
217.651	24.58
217.869	14.34
218.087	2.05
218.306	34.82
218.524	71.68
218.742	-2.05
218.96	34.82
219.179	22.53
219.397	-4.1
219.615	-40.96
219.833	6.14
220.051	-26.62
220.27	81.92
220.488	79.87
220.706	30.72
220.924	-18.43
221.142	55.3
221.36	-32.77
221.578	92.16
221.796	55.3
222.015	38.91
222.233	124.93
222.451	-20.48
222.669	10.24
222.887	75.77
223.105	-24.58
223.323	-30.72
223.541	59.39
223.759	43.01
223.977	63.49
224.195	26.62
224.413	77.82
224.631	32.77
224.849	20.48
225.067	49.15
225.285	-36.86
225.503	40.96
225.721	30.72
225.939	20.48
226.157	114.69
226.375	112.64
226.592	96.25
226.81	22.53
227.028	96.25
227.246	102.4
227.464	22.53
227.682	0
227.9	22.53
228.117	53.25
228.335	116.73
228.553	22.53
228.771	28.67
228.989	51.2
229.206	12.29
229.424	79.87
229.642	67.58
229.86	0
230.077	43.01
230.295	28.67
230.513	96.25
230.731	57.34
230.948	-34.82
231.166	-8.19
231.384	57.34
231.601	32.77
231.819	71.68
232.037	92.16
232.254	18.43
232.472	-26.62
232.689	-2.05
232.907	98.3
233.125	38.91
233.342	36.86
233.56	14.34
233.777	75.77
233.995	36.86
234.213	59.39
234.43	57.34
234.648	-10.24
234.865	34.82
235.083	53.25
235.3	22.53
235.518	38.91
235.735	34.82
235.953	116.73
236.17	86.01
236.388	38.91
236.605	10.24
236.822	79.87
237.04	8.19
237.257	65.54
237.475	8.19
237.692	57.34
237.909	8.19
238.127	71.68
238.344	49.15
238.562	45.06
238.779	-10.24
238.996	38.91
239.214	-2.05
239.431	14.34
239.648	20.48
239.865	-4.1
240.083	59.39
240.3	55.3
240.517	45.06
240.735	79.87
240.952	0
241.169	40.96
241.386	-34.82
241.603	88.06
241.821	-8.19
242.038	59.39
242.255	51.2
242.472	92.16
242.689	96.25
242.907	26.62
243.124	10.24
243.341	6.14
243.558	-16.38
243.775	16.38
243.992	-36.86
244.209	53.25
244.426	34.82
244.643	129.02
244.86	-22.53
245.078	53.25
245.295	-10.24
245.512	47.1
245.729	28.67
245.946	59.39
246.163	71.68
246.38	69.63
246.597	-20.48
246.814	96.25
247.031	-24.58
247.248	18.43
247.464	40.96
247.681	67.58
247.898	38.91
248.115	28.67
248.332	112.64
248.549	67.58
248.766	104.45
248.983	120.83
249.2	47.1
249.417	24.58
249.633	86.01
249.85	57.34
250.067	30.72
250.284	49.15
250.501	-8.19
250.717	63.49
250.934	16.38
251.151	71.68
251.368	24.58
251.585	6.14
251.801	8.19
252.018	16.38
252.235	69.63
252.451	6.14
252.668	-6.14
252.885	38.91
253.102	40.96
253.318	18.43
253.535	40.96
253.752	-16.38
253.968	43.01
254.185	55.3
254.401	30.72
254.618	86.01
254.835	38.91
255.051	-14.34
255.268	34.82
255.484	28.67
255.701	-34.82
255.917	-12.29
256.134	-2.05
256.351	79.87
256.567	-43.01
256.784	24.58
257	-18.43
257.217	30.72
257.433	90.11
257.65	79.87
257.866	65.54
258.082	-18.43
258.299	40.96
258.515	63.49
258.732	-4.1
258.948	-57.34
259.165	-18.43
259.381	-26.62
259.597	-16.38
259.814	67.58
260.03	-28.67
260.246	4.1
260.463	63.49
260.679	-40.96
260.895	63.49
261.112	32.77
261.328	18.43
261.544	153.6
261.761	49.15
261.977	61.44
262.193	38.91
262.409	94.21
262.626	53.25
262.842	2.05
263.058	-83.97
263.274	47.1
263.49	0
263.707	106.49
263.923	38.91
264.139	-28.67
264.355	69.63
264.571	-14.34
264.787	51.2
265.004	-10.24
265.22	14.34
265.436	-16.38
265.652	65.54
265.868	71.68
266.084	-4.1
266.3	-16.38
266.516	81.92
266.732	38.91
266.948	40.96
267.164	30.72
267.38	71.68
267.596	61.44
267.812	104.45
268.028	57.34
268.244	22.53
268.46	6.14
268.676	-12.29
268.892	24.58
269.108	34.82
269.324	55.3
269.54	92.16
269.756	57.34
269.972	-2.05
270.188	16.38
270.403	-40.96
270.619	57.34
270.835	34.82
271.051	2.05
271.267	6.14
271.483	16.38
271.698	20.48
271.914	-32.77
272.13	47.1
272.346	38.91
272.562	43.01
272.777	75.77
272.993	24.58
273.209	16.38
273.425	22.53
273.64	22.53
273.856	108.54
274.072	57.34
274.287	2.05
274.503	10.24
274.719	106.49
274.934	49.15
275.15	36.86
275.366	51.2
275.581	-4.1
275.797	-26.62
276.012	106.49
276.228	43.01
276.444	49.15
276.659	4.1
276.875	55.3
277.09	40.96
277.306	14.34
277.521	94.21
277.737	38.91
277.952	28.67
278.168	-14.34
278.383	22.53
278.599	26.62
278.814	81.92
279.03	12.29
279.245	40.96
279.461	32.77
279.676	30.72
279.892	14.34
280.107	20.48
280.322	47.1
280.538	14.34
280.753	28.67
280.969	81.92
281.184	-6.14
281.399	45.06
281.615	88.06
281.83	-30.72
282.045	8.19
282.26	-18.43
282.476	16.38
282.691	51.2
282.906	59.39
283.122	40.96
283.337	65.54
283.552	-36.86
283.767	51.2
283.983	92.16
284.198	45.06
284.413	43.01
284.628	-43.01
284.843	34.82
285.058	-20.48
285.274	45.06
285.489	-10.24
285.704	38.91
285.919	-51.2
286.134	8.19
286.349	55.3
286.564	30.72
286.779	77.82
286.995	59.39
287.21	-34.82
287.425	6.14
287.64	14.34
287.855	20.48
288.07	2.05
288.285	-8.19
288.5	92.16
288.715	6.14
288.93	-24.58
289.145	8.19
289.36	73.73
289.575	88.06
289.79	75.77
290.004	69.63
290.219	94.21
290.434	18.43
290.649	-28.67
290.864	-26.62
291.079	59.39
291.294	73.73
291.509	71.68
291.724	108.54
291.938	22.53
292.153	26.62
292.368	0
292.583	22.53
292.798	28.67
293.012	24.58
293.227	61.44
293.442	47.1
293.657	88.06
293.871	53.25
294.086	32.77
294.301	57.34
294.516	59.39
294.73	47.1
294.945	-55.3
295.16	77.82
295.374	67.58
295.589	55.3
295.804	45.06
296.018	24.58
296.233	88.06
296.447	71.68
296.662	16.38
296.877	65.54
297.091	30.72
297.306	75.77
297.52	51.2
297.735	75.77
297.949	16.38
298.164	36.86
298.378	40.96
298.593	14.34
298.807	34.82
299.022	47.1
299.236	49.15
299.451	30.72
299.665	-10.24
299.88	110.59
300.094	96.25
300.309	-32.77
300.523	61.44
300.737	24.58
300.952	57.34
301.166	59.39
301.381	-12.29
301.595	20.48
301.809	-6.14
302.024	10.24
302.238	38.91
302.452	96.25
302.667	-12.29
302.881	36.86
303.095	-4.1
303.309	40.96
303.524	-49.15
303.738	86.01
303.952	20.48
304.166	73.73
304.381	-30.72
304.595	86.01
304.809	30.72
305.023	-22.53
305.237	57.34
305.452	61.44
305.666	4.1
305.88	55.3
306.094	79.87
306.308	94.21
306.522	40.96
306.736	104.45
306.95	106.49
307.164	8.19
307.379	51.2
307.593	112.64
307.807	55.3
308.021	28.67
308.235	77.82
308.449	8.19
308.663	-38.91
308.877	43.01
309.091	53.25
309.305	-2.05
309.519	51.2
309.733	79.87
309.947	-8.19
310.161	63.49
310.374	43.01
310.588	40.96
310.802	6.14
311.016	14.34
311.23	96.25
311.444	24.58
311.658	40.96
311.872	-57.34
312.085	86.01
312.299	49.15
312.513	51.2
312.727	69.63
312.941	88.06
313.154	32.77
313.368	36.86
313.582	63.49
313.796	71.68
314.009	88.06
314.223	12.29
314.437	40.96
314.651	71.68
314.864	-8.19
315.078	-100.35
315.292	22.53
315.505	71.68
315.719	34.82
315.933	83.97
316.146	-12.29
316.36	4.1
316.573	8.19
316.787	30.72
317.001	32.77
317.214	22.53
317.428	90.11
317.641	-38.91
317.855	38.91
318.068	55.3
318.282	28.67
318.495	108.54
318.709	61.44
318.922	10.24
319.136	94.21
319.349	36.86
319.563	55.3
319.776	43.01
319.99	4.1
320.203	92.16
320.417	-10.24
320.63	90.11
320.843	92.16
321.057	24.58
321.27	22.53
321.483	135.17
321.697	6.14
321.91	-14.34
322.124	57.34
322.337	32.77
322.55	18.43
322.763	59.39
322.977	55.3
323.19	0
323.403	8.19
323.617	-36.86
323.83	88.06
324.043	32.77
324.256	-14.34
324.469	20.48
324.683	38.91
324.896	-26.62
325.109	8.19
325.322	28.67
325.535	30.72
325.748	73.73
325.962	24.58
326.175	30.72
326.388	-16.38
326.601	47.1
326.814	73.73
327.027	-4.1
327.24	53.25
327.453	-28.67
327.666	94.21
327.879	73.73
328.092	63.49
328.305	-26.62
328.518	2.05
328.731	4.1
328.944	59.39
329.157	116.73
329.37	18.43
329.583	34.82
329.796	57.34
330.009	51.2
330.222	-12.29
330.435	14.34
330.648	114.69
330.861	-8.19
331.073	43.01
331.286	36.86
331.499	14.34
331.712	79.87
331.925	73.73
332.138	-30.72
332.35	81.92
332.563	59.39
332.776	98.3
332.989	26.62
333.202	38.91
333.414	81.92
333.627	40.96
333.84	51.2
334.053	32.77
334.265	-8.19
334.478	155.65
334.691	57.34
334.903	100.35
335.116	22.53
335.329	40.96
335.541	104.45
335.754	133.12
335.966	43.01
336.179	102.4
336.392	16.38
336.604	24.58
336.817	-26.62
337.029	81.92
337.242	-67.58
337.454	22.53
337.667	-26.62
337.88	98.3
338.092	24.58
338.305	83.97
338.517	53.25
338.729	38.91
338.942	112.64
339.154	22.53
339.367	0
339.579	57.34
339.792	30.72
340.004	47.1
340.217	-22.53
340.429	88.06
340.641	-34.82
340.854	59.39
341.066	75.77
341.278	65.54
341.491	24.58
341.703	26.62
341.915	47.1
342.128	63.49
342.34	32.77
342.552	-4.1
342.764	8.19
342.977	-12.29
343.189	22.53
343.401	63.49
343.613	6.14
343.826	55.3
344.038	38.91
344.25	32.77
344.462	8.19
344.674	57.34
344.886	36.86
345.099	43.01
345.311	30.72
345.523	10.24
345.735	-59.39
345.947	59.39
346.159	51.2
346.371	10.24
346.583	4.1
346.795	102.4
347.007	30.72
347.219	73.73
347.431	-22.53
347.643	59.39
347.855	67.58
348.067	86.01
348.279	51.2
348.491	88.06
348.703	10.24
348.915	32.77
349.127	112.64
349.339	88.06
349.551	45.06
349.763	55.3
349.975	69.63
350.187	51.2
350.399	-8.19
350.61	-22.53
350.822	51.2
351.034	112.64
351.246	-12.29
351.458	65.54
351.669	22.53
351.881	14.34
352.093	63.49
352.305	24.58
352.517	94.21
352.728	47.1
352.94	83.97
353.152	139.26
353.363	-16.38
353.575	79.87
353.787	63.49
353.999	6.14
354.21	30.72
354.422	55.3
354.633	36.86
354.845	-2.05
355.057	77.82
355.268	55.3
355.48	100.35
355.692	71.68
355.903	90.11
356.115	12.29
356.326	30.72
356.538	6.14
356.749	22.53
356.961	73.73
357.172	32.77
357.384	-26.62
357.595	55.3
357.807	104.45
358.018	30.72
358.23	32.77
358.441	49.15
358.653	83.97
358.864	18.43
359.075	45.06
359.287	-6.14
359.498	20.48
359.709	81.92
359.921	6.14
360.132	96.25
360.344	45.06
360.555	32.77
360.766	73.73
360.977	98.3
361.189	65.54
361.4	51.2
361.611	47.1
361.823	98.3
362.034	8.19
362.245	16.38
362.456	98.3
362.667	55.3
362.879	-2.05
363.09	22.53
363.301	65.54
363.512	63.49
363.723	47.1
363.935	30.72
364.146	96.25
364.357	28.67
364.568	28.67
364.779	-36.86
364.99	61.44
365.201	-59.39
365.412	53.25
365.623	32.77
365.834	38.91
366.045	-14.34
366.256	100.35
366.467	53.25
366.678	6.14
366.889	38.91
367.1	47.1
367.311	22.53
367.522	79.87
367.733	6.14
367.944	77.82
368.155	38.91
368.366	26.62
368.577	102.4
368.788	59.39
368.999	43.01
369.209	45.06
369.42	106.49
369.631	55.3
369.842	67.58
370.053	71.68
370.264	83.97
370.474	-22.53
370.685	55.3
370.896	26.62
371.107	8.19
371.317	10.24
371.528	61.44
371.739	81.92
371.95	38.91
372.16	20.48
372.371	53.25
372.582	22.53
372.792	69.63
373.003	71.68
373.214	98.3
373.424	69.63
373.635	0
373.846	16.38
374.056	67.58
374.267	40.96
374.477	45.06
374.688	-24.58
374.898	16.38
375.109	90.11
375.319	28.67
375.53	0
375.74	98.3
375.951	6.14
376.161	-53.25
376.372	83.97
376.582	32.77
376.793	65.54
377.003	63.49
377.214	-34.82
377.424	-14.34
377.635	49.15
377.845	-28.67
378.055	71.68
378.266	47.1
378.476	92.16
378.686	4.1
378.897	79.87
379.107	77.82
379.317	110.59
379.528	-40.96
379.738	79.87
379.948	88.06
380.158	59.39
380.369	71.68
380.579	61.44
380.789	75.77
380.999	96.25
381.21	32.77
381.42	53.25
381.63	16.38
381.84	90.11
382.05	38.91
382.261	47.1
382.471	129.02
382.681	106.49
382.891	22.53
383.101	71.68
383.311	-10.24
383.521	24.58
383.731	98.3
383.941	114.69
384.151	51.2
384.361	6.14
384.571	53.25
384.781	75.77
384.991	106.49
385.201	10.24
385.411	14.34
385.621	94.21
385.831	63.49
386.041	67.58
386.251	53.25
386.461	120.83
386.671	6.14
386.881	43.01
387.091	32.77
387.301	55.3
387.511	77.82
387.72	34.82
387.93	24.58
388.14	98.3
388.35	53.25
388.56	178.17
388.769	2.05
388.979	129.02
389.189	43.01
389.399	73.73
389.609	83.97
389.818	116.73
390.028	67.58
390.238	112.64
390.447	47.1
390.657	110.59
390.867	8.19
391.076	28.67
391.286	32.77
391.496	153.6
391.705	-24.58
391.915	92.16
392.125	112.64
392.334	36.86
392.544	40.96
392.753	-20.48
392.963	-14.34
393.172	18.43
393.382	-10.24
393.591	45.06
393.801	59.39
394.01	81.92
394.22	77.82
394.429	153.6
394.639	79.87
394.848	53.25
395.058	47.1
395.267	8.19
395.477	79.87
395.686	32.77
395.895	98.3
396.105	141.31
396.314	131.07
396.524	147.45
396.733	81.92
396.942	106.49
397.152	129.02
397.361	108.54
397.57	63.49
397.78	16.38
397.989	51.2
398.198	110.59
398.407	57.34
398.617	73.73
398.826	100.35
399.035	75.77
399.244	141.31
399.453	145.41
399.663	92.16
399.872	55.3
400.081	47.1
400.29	124.93
400.499	124.93
400.708	106.49
400.917	92.16
401.127	47.1
401.336	47.1
401.545	116.73
401.754	106.49
401.963	71.68
402.172	63.49
402.381	65.54
402.59	108.54
402.799	129.02
403.008	98.3
403.217	108.54
403.426	137.21
403.635	145.41
403.844	73.73
404.053	79.87
404.262	147.45
404.471	221.18
404.68	153.6
404.888	131.07
405.097	139.26
405.306	18.43
405.515	133.12
405.724	169.98
405.933	161.79
406.142	161.79
406.35	129.02
406.559	227.32
406.768	147.45
406.977	83.97
407.185	129.02
407.394	159.74
407.603	133.12
407.812	172.03
408.02	169.98
408.229	208.89
408.438	219.13
408.646	149.5
408.855	245.76
409.064	256
409.272	178.17
409.481	272.38
409.69	98.3
409.898	153.6
410.107	215.04
410.315	301.05
410.524	180.22
410.733	262.14
410.941	286.72
411.15	284.67
411.358	333.82
411.567	335.87
411.775	253.95
411.984	366.59
412.192	325.63
412.401	282.62
412.609	331.77
412.818	397.31
413.026	489.46
413.234	317.44
413.443	399.35
413.651	399.35
413.86	448.51
414.068	399.35
414.276	468.98
414.485	464.89
414.693	395.26
414.901	501.75
415.11	444.41
415.318	489.46
415.526	501.75
415.734	567.29
415.943	548.86
416.151	677.88
416.359	595.96
416.567	661.49
416.776	690.17
416.984	671.73
417.192	743.41
417.4	624.63
417.608	694.26
417.817	767.99
418.025	811
418.233	866.29
418.441	729.08
418.649	813.04
418.857	948.21
419.065	923.63
419.273	940.02
419.481	1021.94
419.689	1032.18
419.897	956.4
420.105	1114.1
420.313	1103.86
420.521	1228.78
420.729	1218.54
420.937	1202.16
421.145	1245.17
421.353	1308.65
421.561	1431.53
421.769	1333.23
421.977	1341.42
422.185	1507.31
422.393	1583.08
422.601	1695.72
422.809	1574.89
423.017	1611.75
423.224	1679.33
423.432	1955.81
423.64	1796.07
423.848	1923.04
424.056	1933.28
424.263	1980.39
424.471	1998.82
424.679	2093.02
424.887	2164.7
425.094	2267.1
425.302	2275.29
425.51	2318.3
425.718	2535.39
425.925	2471.9
426.133	2547.67
426.341	2734.04
426.548	2887.64
426.756	2797.53
426.964	2910.16
427.171	3028.95
427.379	3110.86
427.586	3000.27
427.794	3293.13
428.001	3286.99
428.209	3598.28
428.417	3571.66
428.624	3657.67
428.832	3790.79
429.039	3712.97
429.247	3719.11
429.454	4138.94
429.662	4220.86
429.869	4048.83
430.076	4343.74
430.284	4110.27
430.491	4378.56
430.699	4757.43
430.906	4802.49
431.114	4782.01
431.321	4956.08
431.528	5091.25
431.736	5324.72
431.943	5414.83
432.15	5486.51
432.358	5441.45
432.565	5738.41
432.772	5732.26
432.979	6029.22
433.187	6186.91
433.394	6145.95
433.601	6516.64
433.808	6721.43
434.016	6582.17
434.223	6838.17
434.43	7198.61
434.637	7051.16
434.844	7534.48
435.052	7829.38
435.259	7663.5
435.466	7747.47
435.673	7536.52
435.88	8077.19
436.087	8617.85
436.294	8687.48
436.501	8462.21
436.708	8718.2
436.915	8892.28
437.122	9348.98
437.329	9191.28
437.537	9545.58
437.743	9625.45
437.95	9631.6
438.157	9989.99
438.364	10536.8
438.571	10483.55
438.778	10657.63
438.985	11265.88
439.192	10917.72
439.399	11343.7
439.606	11302.74
439.813	11894.6
440.02	12396.35
440.227	12289.86
440.433	12121.93
440.64	12463.94
440.847	12482.37
441.054	12734.27
441.261	13752.11
441.467	13432.63
441.674	13539.12
441.881	14296.87
442.088	14128.94
442.294	13967.15
442.501	14466.85
442.708	14626.59
442.914	15462.16
443.121	16195.34
443.328	15415.06
443.534	16731.9
443.741	16539.4
443.948	15939.34
444.154	17022.72
444.361	17026.81
444.568	17362.68
444.774	17211.13
444.981	17401.59
445.187	17841.9
445.394	18659.04
445.6	18513.64
445.807	20113.1
446.013	19474.13
446.22	19865.3
446.426	20715.2
446.633	20481.74
446.839	21616.31
447.046	20479.69
447.252	21626.55
447.459	21692.08
447.665	21747.38
447.871	22511.27
448.078	23658.14
448.284	22648.49
448.491	23168.67
448.697	24022.67
448.903	24671.88
449.11	24458.89
449.316	24168.08
449.522	24475.27
449.728	25147.01
449.935	25646.71
450.141	25613.95
450.347	26060.4
450.553	25337.47
450.76	25759.35
450.966	26490.48
451.172	25947.76
451.378	27018.85
451.584	26148.47
451.791	27303.52
451.997	27022.95
452.203	27633.24
452.409	27610.71
452.615	27332.19
452.821	26320.49
453.027	26097.27
453.233	27594.33
453.44	26797.67
453.646	26742.38
453.852	26934.89
454.058	27786.84
454.264	26414.7
454.47	27342.43
454.676	26715.75
454.882	27528.8
455.088	24897.16
455.294	25210.5
455.5	25806.45
455.705	26312.3
455.911	25179.78
456.117	24657.54
456.323	24499.85
456.529	23019.17
456.735	24071.82
456.941	23565.98
457.147	23355.04
457.352	22326.96
457.558	22294.19
457.764	22304.43
457.97	21835.44
458.176	21444.28
458.381	21366.46
458.587	20397.77
458.793	20192.97
458.999	19220.19
459.204	20815.55
459.41	20244.17
459.616	19085.02
459.821	18900.7
460.027	18861.79
460.233	18407.14
460.438	17409.78
460.644	17506.04
460.85	16690.95
461.055	16752.38
461.261	16686.85
461.466	15636.24
461.672	14964.51
461.878	15894.29
462.083	14825.25
462.289	14667.55
462.494	14323.49
462.7	13756.21
462.905	13434.67
463.111	13834.03
463.316	13909.8
463.522	13664.05
463.727	13743.92
463.932	13623.09
464.138	13557.55
464.343	13682.48
464.549	13457.2
464.754	13676.34
464.959	13393.72
465.165	13389.62
465.37	12875.58
465.575	12392.26
465.781	12939.07
465.986	13080.38
466.191	12472.13
466.397	12361.54
466.602	11818.83
466.807	12199.75
467.012	12189.51
467.218	12148.55
467.423	12060.49
467.628	11953.99
467.833	12523.33
468.038	12054.34
468.244	11669.33
468.449	12302.15
468.654	11751.24
468.859	11687.76
469.064	11751.24
469.269	11214.68
469.474	11343.7
469.679	11614.03
469.885	10934.11
470.09	11403.09
470.295	11472.72
470.5	11120.47
470.705	11102.04
470.91	10864.47
471.115	10762.08
471.32	10774.36
471.525	10981.21
471.73	10729.31
471.935	10497.89
472.139	10035.05
472.344	10499.94
472.549	10338.15
472.754	10051.43
472.959	10153.83
473.164	9820.01
473.369	9774.95
473.574	9523.05
473.778	10016.62
473.983	9826.15
474.188	9803.63
474.393	9389.94
474.598	9334.64
474.802	9232.24
475.007	9246.58
475.212	9303.92
475.417	9041.78
475.621	9011.06
475.826	8935.29
476.031	8714.11
476.235	8462.21
476.44	8632.19
476.645	8587.13
476.849	8703.87
477.054	8566.65
477.259	8347.52
477.463	8243.07
477.668	8163.2
477.872	8316.8
478.077	7901.06
478.282	7808.9
478.486	7987.08
478.691	7630.73
478.895	7757.71
479.1	7778.19
479.304	7673.74
479.509	7454.61
479.713	7643.02
479.918	7358.35
480.122	7280.53
480.326	7286.67
480.531	7389.07
480.735	7444.37
480.94	7180.18
481.144	7464.85
481.348	7319.44
481.553	7180.18
481.757	7042.96
481.961	7176.08
482.166	7280.53
482.37	7270.29
482.574	7202.71
482.778	7214.99
482.983	7196.56
483.187	7407.5
483.391	7174.03
483.595	7092.12
483.8	6985.62
484.004	7053.2
484.208	7192.47
484.412	7163.79
484.616	7149.46
484.821	7116.69
485.025	6983.57
485.229	7260.05
485.433	7182.23
485.637	7174.03
485.841	7018.39
486.045	7100.31
486.249	7075.73
486.453	7141.27
486.657	6981.53
486.861	7096.21
487.065	7018.39
487.269	7231.38
487.473	6971.29
487.677	7200.66
487.881	7282.58
488.085	7116.69
488.289	7214.99
488.493	7268.24
488.697	7231.38
488.901	7169.94
489.105	7436.17
489.309	7245.71
489.512	7368.59
489.716	7362.45
489.92	7106.45
490.124	6999.96
490.328	7378.83
490.531	7321.49
490.735	7397.26
490.939	7370.64
491.143	7272.34
491.346	7305.1
491.55	7389.07
491.754	7477.13
491.958	7255.95
492.161	7454.61
492.365	7384.98
492.569	7495.57
492.772	7729.03
492.976	7577.48
493.18	7518.09
493.383	7731.08
493.587	7706.51
493.79	7788.43
493.994	7690.12
494.197	7765.9
494.401	7944.07
494.605	7886.73
494.808	8077.19
495.012	7950.21
495.215	8093.57
495.419	8171.4
495.622	8200.07
495.825	8308.61
496.029	8066.95
496.232	8580.99
496.436	8306.56
496.639	8574.85
496.843	8609.66
497.046	8740.73
497.249	8820.6
497.453	8914.81
497.656	8988.53
497.859	9121.65
498.063	8923
498.266	9207.67
498.469	9156.47
498.673	9125.75
498.876	9471.86
499.079	9498.48
499.282	9574.25
499.485	9635.69
499.689	9748.33
499.892	10110.82
500.095	10162.02
500.298	10260.32
500.501	10180.45
500.705	10332
500.908	10317.67
501.111	10729.31
501.314	10809.18
501.517	10647.39
501.72	10860.38
501.923	10940.25
502.126	11009.88
502.329	11429.71
502.532	11388.75
502.735	11568.98
502.938	11714.38
503.141	11771.72
503.344	12009.29
503.547	11781.96
503.75	12072.78
503.953	12398.4
504.156	12343.11
504.359	12453.7
504.562	12601.15
504.765	12805.95
504.968	12793.66
505.17	13041.46
505.373	12969.79
505.576	13354.8
505.779	13727.53
505.982	13395.76
506.185	13778.73
506.387	13776.69
506.59	13924.14
506.793	14262.05
506.996	14204.71
507.198	14645.02
507.401	14651.17
507.604	14507.81
507.807	15181.59
508.009	15271.7
508.212	15208.22
508.415	15427.35
508.617	15386.39
508.82	15769.36
509.022	15689.49
509.225	16260.87
509.428	16252.68
509.63	16344.84
509.833	16430.85
510.035	16717.57
510.238	16449.28
510.44	16729.86
510.643	17348.34
510.845	17299.19
511.048	17131.26
511.25	17538.8
511.453	17940.21
511.655	18179.82
511.858	18116.33
512.06	18263.79
512.262	18517.73
512.465	18530.02
512.667	18779.87
512.87	19052.25
513.072	19048.16
513.274	19551.96
513.477	19398.36
513.679	19633.88
513.881	19810
514.084	20055.76
514.286	20201.16
514.488	20332.23
514.69	20645.57
514.893	20723.4
515.095	21100.22
515.297	21305.02
515.499	21313.21
515.701	21497.53
515.904	21837.49
516.106	21722.8
516.308	22152.88
516.51	22171.31
516.712	22138.54
516.914	22449.83
517.116	22740.65
517.318	22834.85
517.52	23361.18
517.722	23455.39
517.925	23400.09
518.127	24188.56
518.329	24004.24
518.531	23793.3
518.733	24626.82
518.935	24616.58
519.136	24598.15
519.338	25124.48
519.54	25060.99
519.742	25595.51
519.944	25372.28
520.146	25931.38
520.348	26238.58
520.55	26496.62
520.752	26297.97
520.954	26756.71
521.155	26656.36
521.357	26986.08
521.559	27215.46
521.761	27561.56
521.963	27168.35
522.164	28046.93
522.366	27749.98
522.568	28087.89
522.77	28137.04
522.971	28669.51
523.173	28579.4
523.375	28718.67
523.576	28778.06
523.778	28698.19
523.98	29265.47
524.181	29156.93
524.383	29300.29
524.584	29615.68
524.786	29769.27
524.988	29771.32
525.189	30324.27
525.391	30463.54
525.592	30301.75
525.794	30322.23
525.995	30531.12
526.197	30856.75
526.398	30674.48
526.6	30916.14
526.801	31096.36
527.003	31188.52
527.204	31565.34
527.406	31700.51
527.607	31718.94
527.808	31782.43
528.01	31387.17
528.211	31735.32
528.412	32564.75
528.614	32265.75
528.815	32523.79
529.016	32241.17
529.218	31991.32
529.419	32364.05
529.62	32106.01
529.822	32296.47
530.023	32384.53
530.224	32894.47
530.425	32359.95
530.626	32413.2
530.828	32347.67
531.029	33312.26
531.23	32808.46
531.431	32708.11
531.632	33347.08
531.833	33107.46
532.035	32917
532.236	32927.24
532.437	33220.1
532.638	32847.37
532.839	33504.77
533.04	33304.07
533.241	33068.55
533.442	33764.86
533.643	33308.16
533.844	33029.64
534.045	33426.95
534.246	33109.51
534.447	33461.76
534.648	33336.84
534.849	33535.49
535.05	33285.64
535.251	33674.75
535.451	33306.12
535.652	33881.6
535.853	33416.71
536.054	33582.59
536.255	33672.7
536.456	33304.07
536.657	33887.74
536.857	32933.39
537.058	33256.96
537.259	33787.39
537.46	33379.84
537.66	33072.65
537.861	33609.22
538.062	33588.74
538.263	33523.2
538.463	33261.06
538.664	33023.5
538.865	33521.15
539.065	33785.34
539.266	33472
539.466	33650.17
539.667	33080.84
539.868	33699.33
540.068	33560.06
540.269	33226.25
540.469	33975.8
540.67	33420.8
540.87	33570.3
541.071	33539.58
541.271	33392.13
541.472	33539.58
541.672	33273.35
541.873	33412.61
542.073	33048.07
542.274	33715.71
542.474	33291.78
542.675	33031.69
542.875	33697.28
543.075	33297.92
543.276	32951.82
543.476	33912.31
543.676	33144.33
543.877	33474.05
544.077	33414.66
544.277	33261.06
544.478	33003.02
544.678	33273.35
544.878	33322.5
545.078	33238.53
545.279	33046.02
545.479	33189.38
545.679	33254.92
545.879	32878.09
546.079	33177.09
546.28	33279.49
546.48	33117.7
546.68	33568.26
546.88	33474.05
547.08	33478.15
547.28	33168.9
547.48	33076.74
547.68	33326.6
547.88	32992.78
548.081	33342.98
548.281	32892.43
548.481	32892.43
548.681	33463.81
548.881	33082.89
549.081	33285.64
549.28	33138.18
549.48	33476.1
549.68	33373.7
549.88	33687.04
550.08	33250.82
550.28	33209.86
550.48	33129.99
550.68	33345.03
550.88	32734.73
551.08	32818.7
551.279	33191.43
551.479	32935.43
551.679	33091.08
551.879	32765.45
552.079	33306.12
552.278	32968.2
552.478	33074.7
552.678	32792.08
552.878	32990.73
553.077	32626.19
553.277	32642.57
553.477	33084.94
553.676	32790.03
553.876	32763.4
554.076	32914.95
554.275	32804.36
554.475	32333.33
554.674	32493.07
554.874	32988.68
555.074	32531.98
555.273	32642.57
555.473	32699.92
555.672	32316.95
555.872	32634.38
556.071	32611.85
556.271	32568.85
556.47	32558.61
556.67	32085.53
556.869	32345.62
557.068	32310.8
557.268	32167.45
557.467	32499.22
557.667	32173.59
557.866	32413.2
558.065	32169.49
558.265	32077.33
558.464	31936.02
558.663	32167.45
558.863	31764
559.062	31929.88
559.261	31913.5
559.461	32278.04
559.66	31700.51
559.859	31741.47
560.058	31917.59
560.258	31956.5
560.457	31464.99
560.656	31868.44
560.855	31712.8
561.054	31708.7
561.253	31233.57
561.453	31659.55
561.652	31526.43
561.851	31884.83
562.05	31280.67
562.249	31159.84
562.448	31524.38
562.647	31325.73
562.846	31405.6
563.045	31260.19
563.244	30901.8
563.443	31143.46
563.642	31006.25
563.841	30914.09
564.04	30848.55
564.239	31163.94
564.438	30363.18
564.637	30545.45
564.836	30897.7
565.035	30613.04
565.234	30864.94
565.432	30451.25
565.631	30361.14
565.83	30619.18
566.029	29992.5
566.228	30094.9
566.427	30160.44
566.625	30080.56
566.824	29806.14
567.023	30055.99
567.222	29333.06
567.42	30250.55
567.619	29929.02
567.818	29550.14
568.016	29705.79
568.215	30041.65
568.414	29599.29
568.612	30031.41
568.811	29550.14
569.01	29406.78
569.208	29228.61
569.407	29472.32
569.605	29244.99
569.804	29574.72
570.002	29048.39
570.201	29056.58
570.4	28995.14
570.598	28890.7
570.797	28737.1
570.995	29097.54
571.193	28679.75
571.392	28700.23
571.59	28241.49
571.789	28737.1
571.987	28419.66
572.186	28261.97
572.384	28434
572.582	28212.82
572.781	28216.91
572.979	28042.84
573.177	28075.6
573.376	28042.84
573.574	27815.51
573.772	28208.72
573.971	27905.62
574.169	27590.24
574.367	27663.96
574.565	27676.25
574.763	27631.19
574.962	27354.72
575.16	27385.44
575.358	27246.18
575.556	27260.51
575.754	27444.83
575.952	26984.04
576.151	27070.05
576.349	26906.21
576.547	27014.76
576.745	26734.18
576.943	26869.35
577.141	26938.98
577.339	26699.37
577.537	26691.18
577.735	26377.84
577.933	26175.09
578.131	26664.55
578.329	26285.68
578.527	25871.99
578.725	26257.01
578.923	26254.96
579.121	25919.09
579.319	26164.85
579.516	26076.79
579.714	26500.72
579.912	26121.84
580.11	25790.07
580.308	25562.75
580.506	25712.25
580.704	25394.81
580.901	25765.49
581.099	25685.62
581.297	25378.43
581.495	25394.81
581.692	25435.77
581.89	25097.86
582.088	25202.3
582.285	24786.57
582.483	25237.12
582.681	25075.33
582.878	24927.88
583.076	24759.94
583.274	25122.43
583.471	24458.89
583.669	24639.11
583.866	24342.16
584.064	24549
584.262	24432.27
584.459	24540.81
584.657	24311.44
584.854	24123.02
585.052	24221.33
585.249	24155.79
585.447	24321.68
585.644	24180.37
585.841	24104.59
586.039	24280.72
586.236	23881.36
586.434	23684.76
586.631	24004.24
586.828	23733.91
587.026	23817.88
587.223	23465.63
587.42	23490.2
587.618	23576.22
587.815	23217.82
588.012	23299.74
588.21	23195.29
588.407	23522.97
588.604	23213.73
588.801	22740.65
588.999	22896.29
589.196	22855.33
589.393	23070.37
589.59	22777.51
589.787	22843.04
589.984	22900.39
590.182	22365.87
590.379	22941.35
590.576	22402.73
590.773	22427.31
590.97	22353.58
591.167	22515.37
591.364	21903.03
591.561	22412.97
591.758	22128.3
591.955	22159.02
592.152	22181.55
592.349	22019.76
592.546	21745.33
592.743	22122.16
592.94	21731
593.137	21806.77
593.334	21501.62
593.531	21163.71
593.727	21759.67
593.924	21499.58
594.121	21313.21
594.318	21644.98
594.515	21294.78
594.712	21405.37
594.908	21214.91
595.105	21241.53
595.302	21167.81
595.499	20960.96
595.696	20614.85
595.892	20776.64
596.089	20879.04
596.286	20956.86
596.482	20670.15
596.679	20760.26
596.876	20815.55
597.072	20539.08
597.269	20473.54
597.466	20348.62
597.662	20266.7
597.859	20289.23
598.055	20192.97
598.252	20354.76
598.448	20235.98
598.645	19834.58
598.841	19834.58
599.038	19801.81
599.234	19803.86
599.431	19781.33
599.627	19654.36
599.824	19635.92
600.02	19437.27
600.217	19744.47
600.413	19723.99
600.609	19496.66
600.806	19271.39
601.002	19267.29
601.198	19193.56
601.395	19179.23
601.591	19052.25
601.787	19232.47
601.984	19166.94
602.18	19195.61
602.376	19160.8
602.572	18802.4
602.769	18912.99
602.965	18618.08
603.161	18904.8
603.357	18581.22
603.553	18605.8
603.75	18761.44
603.946	18583.27
604.142	18405.1
604.338	18214.63
604.534	18255.59
604.73	18396.9
604.926	18362.09
605.122	18202.35
605.318	18409.19
605.514	18065.13
605.71	17876.72
605.906	18020.08
606.102	18120.43
606.298	18077.42
606.494	17979.12
606.69	17870.58
606.886	17719.03
607.082	17469.17
607.278	17731.31
607.474	17452.79
607.67	17651.44
607.866	17301.24
608.062	17551.09
608.257	17512.18
608.453	17618.68
608.649	17448.69
608.845	17258.23
609.041	17196.79
609.236	17534.71
609.432	17039.1
609.628	17010.43
609.824	17155.83
610.019	17452.79
610.215	17219.32
610.411	17202.94
610.606	17121.02
610.802	16934.65
610.998	16879.36
611.193	17084.16
611.389	16842.49
611.584	16848.64
611.78	16776.96
611.976	16924.41
612.171	16848.64
612.367	16672.51
612.562	16576.26
612.758	16594.69
612.953	16594.69
613.149	16766.72
613.344	16377.61
613.539	16666.37
613.735	16477.96
613.93	16539.4
614.126	16559.88
614.321	16641.79
614.517	16328.45
614.712	16334.6
614.907	16129.8
615.103	16279.3
615.298	16271.11
615.493	16301.83
615.688	15959.82
615.884	16283.4
616.079	16041.74
616.274	16230.15
616.47	16011.02
616.665	15935.24
616.86	16006.92
617.055	16127.75
617.25	15943.44
617.445	16162.57
617.641	15804.17
617.836	15791.89
618.031	15675.15
618.226	15791.89
618.421	15636.24
618.616	15783.7
618.811	15611.67
619.006	15626
619.201	15304.47
619.396	15488.79
619.591	15040.28
619.786	15419.16
619.981	14907.16
620.176	15195.93
620.371	15105.82
620.566	15154.97
620.761	15005.47
620.956	15263.51
621.151	14548.77
621.346	15046.43
621.541	14556.96
621.735	14839.58
621.93	14473
622.125	14618.4
622.32	14321.45
622.515	14616.35
622.709	14343.97
622.904	14495.52
623.099	14294.82
623.294	14292.77
623.488	13907.76
623.683	14122.79
623.878	13805.36
624.072	13858.6
624.267	13776.69
624.462	13745.97
624.656	13549.36
624.851	13727.53
625.046	13295.41
625.24	13334.32
625.435	13203.25
625.629	13268.79
625.824	13156.15
626.018	13184.82
626.213	12984.12
626.407	12973.88
626.602	12859.2
626.796	12926.78
626.991	12980.03
627.185	12760.89
627.38	12846.91
627.574	12672.83
627.768	12549.95
627.963	12595.01
628.157	12111.69
628.352	12543.81
628.546	12189.51
628.74	12228.42
628.935	12009.29
629.129	12336.96
629.323	11745.1
629.517	12066.63
629.712	11992.9
629.906	11851.6
630.1	11691.85
630.294	11728.72
630.489	11530.06
630.683	11628.37
630.877	11581.26
631.071	11317.08
631.265	11476.82
631.459	11401.04
631.653	11216.72
631.848	11188.05
632.042	11323.22
632.236	11263.83
632.43	10952.54
632.624	11075.41
632.818	10856.28
633.012	10858.33
633.206	10860.38
633.4	10739.55
633.594	10624.86
633.788	10506.08
633.982	10704.73
634.176	10647.39
634.369	10538.85
634.563	10600.29
634.757	10669.92
634.951	10262.37
635.145	10473.31
635.339	10381.15
635.533	10164.07
635.726	10336.1
635.92	10119.01
636.114	10076.01
636.308	10151.78
636.501	10098.53
636.695	9914.22
636.889	9854.83
637.083	9779.05
637.276	9813.87
637.47	9797.48
637.664	9754.48
637.857	9828.2
638.051	9686.89
638.244	9508.72
638.438	9518.96
638.632	9609.07
638.825	9320.31
639.019	9299.83
639.212	9258.87
639.406	9387.89
639.599	9111.41
639.793	9027.45
639.986	8955.77
640.18	9033.59
640.373	9031.54
640.567	8920.95
640.76	9111.41
640.954	8955.77
641.147	8662.91
641.34	9092.98
641.534	8904.57
641.727	8865.66
641.92	8681.34
642.114	8343.42
642.307	8707.96
642.5	8468.35
642.694	8331.14
642.887	8249.22
643.08	8503.17
643.273	8218.5
643.467	8226.69
643.66	8376.19
643.853	8075.14
644.046	8212.35
644.239	8279.94
644.432	8011.65
644.626	7960.45
644.819	8028.04
645.012	7956.36
645.205	7870.34
645.398	7804.81
645.591	7772.04
645.784	7821.19
645.977	7530.38
646.17	7563.15
646.363	7399.31
646.556	7468.94
646.749	7534.48
646.942	7606.16
647.135	7534.48
647.328	7470.99
647.521	7489.42
647.714	7339.92
647.907	7301.01
648.099	7354.26
648.292	7198.61
648.485	7202.71
648.678	7198.61
648.871	7073.68
649.064	7258
649.256	7143.31
649.449	7002.01
649.642	7030.68
649.835	6936.47
650.027	7010.2
650.22	7100.31
650.413	6842.26
650.605	6827.93
650.798	6809.5
650.991	6719.39
651.183	6819.74
651.376	6864.79
651.568	6606.75
651.761	6696.86
651.954	6526.88
652.146	6694.81
652.339	6629.27
652.531	6485.92
652.724	6438.81
652.916	6256.54
653.109	6373.28
653.301	6416.29
653.494	6432.67
653.686	6277.02
653.879	6332.32
654.071	6317.98
654.263	6123.43
654.456	6100.9
654.648	6125.47
654.84	6047.65
655.033	6277.02
655.225	6096.8
655.417	6113.19
655.61	6002.6
655.802	6002.6
655.994	6041.51
656.186	6004.64
656.379	5816.23
656.571	5785.51
656.763	5617.58
656.955	5849
657.148	5844.9
657.34	5801.9
657.532	5636.01
657.724	5564.33
657.916	5496.75
658.108	5650.35
658.3	5482.41
658.492	5545.9
658.684	5437.36
658.876	5568.43
659.068	5509.04
659.26	5289.9
659.452	5236.66
659.644	5418.93
659.836	5441.45
660.028	5433.26
660.22	5277.62
660.412	5271.47
660.604	5154.74
660.796	5117.87
660.988	5228.46
661.18	5101.49
661.372	5109.68
661.563	5093.3
661.755	4964.28
661.947	5248.94
662.139	5029.81
662.331	4943.8
662.522	4777.91
662.714	4956.08
662.906	4886.45
663.097	4728.76
663.289	4650.94
663.481	4808.63
663.673	4767.67
663.864	4775.86
664.056	4882.36
664.247	4693.94
664.439	4544.44
664.631	4681.66
664.822	4730.81
665.014	4628.41
665.205	4589.5
665.397	4683.7
665.588	4650.94
665.78	4591.55
665.971	4650.94
666.163	4474.81
666.354	4587.45
666.546	4321.21
666.737	4341.69
666.929	4401.08
667.12	4261.82
667.311	4333.5
667.503	4491.2
667.694	4179.9
667.885	4315.07
668.077	4392.89
668.268	4267.97
668.459	4179.9
668.651	4349.89
668.842	4351.93
669.033	4222.91
669.224	4284.35
669.416	4210.62
669.607	4057.03
669.798	4032.45
669.989	4188.1
670.18	4028.35
670.371	4184
670.563	4048.83
670.754	4077.51
670.945	3885
671.136	3848.13
671.327	3997.63
671.518	3866.56
671.709	3915.72
671.9	3870.66
672.091	3909.57
672.282	3731.4
672.473	3796.93
672.664	3915.72
672.855	3860.42
673.046	3774.41
673.237	3760.07
673.428	3663.82
673.619	3792.84
673.809	3702.73
674	3643.34
674.191	3672.01
674.382	3608.52
674.573	3614.66
674.764	3686.34
674.954	3616.71
675.145	3651.53
675.336	3448.78
675.527	3471.31
675.717	3528.65
675.908	3602.38
676.099	3481.55
676.289	3520.46
676.48	3467.21
676.671	3442.64
676.861	3553.23
677.052	3502.03
677.243	3430.35
677.433	3311.57
677.624	3440.59
677.814	3530.7
678.005	3373
678.195	3432.4
678.386	3305.42
678.576	3383.24
678.767	3311.57
678.957	3215.31
679.148	3368.91
679.338	3321.81
679.529	3330
679.719	3172.3
679.909	3270.61
680.1	3080.14
680.29	3200.98
680.481	3174.35
680.671	3262.41
680.861	3178.45
681.052	3028.95
681.242	3194.83
681.432	3176.4
681.622	3016.66
681.813	3065.81
682.003	3090.38
682.193	3094.48
682.383	2951.12
682.573	2942.93
682.764	2990.03
682.954	2967.51
683.144	3043.28
683.334	2901.97
683.524	3145.68
683.714	3114.96
683.904	2969.55
684.094	2908.12
684.284	2914.26
684.474	3037.14
684.664	2994.13
684.854	3112.91
685.044	2963.41
685.234	2801.62
685.424	2865.11
685.614	2910.16
685.804	2858.96
685.994	2834.39
686.184	2916.31
686.374	2815.96
686.564	2807.77
686.753	2969.55
686.943	2639.83
687.133	2846.68
687.323	2684.89
687.513	2830.29
687.702	2803.67
687.892	2719.7
688.082	2633.69
688.272	2641.88
688.461	2889.68
688.651	2639.83
688.841	2680.79
689.03	2623.45
689.22	2740.18
689.41	2639.83
689.599	2645.98
689.789	2631.64
689.979	2746.33
690.168	2609.11
690.358	2623.45
690.547	2437.08
690.737	2670.55
690.926	2531.29
691.116	2519
691.305	2516.95
691.495	2535.39
691.684	2613.21
691.874	2404.32
692.063	2516.95
692.252	2516.95
692.442	2430.94
692.631	2516.95
692.82	2529.24
693.01	2457.56
693.199	2514.91
693.388	2314.2
693.578	2582.49
693.767	2451.42
693.956	2422.75
694.146	2422.75
694.335	2322.4
694.524	2310.11
694.713	2349.02
694.902	2340.83
695.092	2389.98
695.281	2234.33
695.47	2461.66
695.659	2361.31
695.848	2240.48
696.037	2230.24
696.226	2422.75
696.415	2176.99
696.604	2312.16
696.793	2322.4
696.982	2357.21
697.171	2357.21
697.36	2250.72
697.549	2314.2
697.738	2312.16
697.927	2238.43
698.116	2203.61
698.305	2170.85
698.494	2226.14
698.683	2250.72
698.872	2332.64
699.061	2404.32
699.25	2324.44
699.438	2246.62
699.627	2195.42
699.816	2234.33
700.005	2156.51
700.193	2172.89
700.382	2279.39
700.571	2133.98
700.76	2207.71
700.948	2213.85
701.137	2076.64
701.326	2203.61
701.514	2123.74
701.703	2209.76
701.892	2093.02
702.08	2234.33
702.269	2144.22
702.457	2035.68
702.646	2232.29
702.834	2129.89
703.023	2140.13
703.212	2191.33
703.4	2160.61
703.589	2156.51
703.777	2121.7
703.965	2090.98
704.154	2119.65
704.342	2045.92
704.531	2127.84
704.719	2103.26
704.907	2260.96
705.096	2050.02
705.284	2103.26
705.472	2011.11
705.661	2146.27
705.849	2176.99
706.037	2125.79
706.226	2111.46
706.414	2168.8
706.602	2054.11
706.79	2185.18
706.979	2136.03
707.167	2131.94
707.355	2193.37
707.543	2109.41
707.731	2105.31
707.919	2058.21
708.107	2170.85
708.296	2109.41
708.484	2058.21
708.672	2058.21
708.86	2019.3
709.048	1984.48
709.236	2099.17
709.424	2099.17
709.612	2064.35
709.8	2015.2
709.988	2203.61
710.176	1998.82
710.364	2164.7
710.551	2047.97
710.739	2074.59
710.927	2066.4
711.115	2172.89
711.303	2136.03
711.491	2154.46
711.679	2084.83
711.866	2009.06
712.054	2111.46
712.242	2041.82
712.43	2220
712.617	2070.5
712.805	2062.3
712.993	2000.87
713.181	1961.95
713.368	2074.59
713.556	2093.02
713.744	2031.58
713.931	2154.46
714.119	2023.39
714.306	1992.67
714.494	2111.46
714.682	2136.03
714.869	1996.77
715.057	2152.42
715.244	1984.48
715.432	2021.35
715.619	2074.59
715.807	2004.96
715.994	2097.12
716.182	1986.53
716.369	2103.26
716.556	2050.02
716.744	2152.42
716.931	2039.78
717.119	2078.69
717.306	2076.64
717.493	2078.69
717.681	2097.12
717.868	2101.22
718.055	2007.01
718.242	1964
718.43	2002.91
718.617	2172.89
718.804	2043.87
718.991	2050.02
719.179	2064.35
719.366	2168.8
719.553	2007.01
719.74	2002.91
719.927	2113.5
720.114	2103.26
720.301	2033.63
720.488	2037.73
720.676	1992.67
720.863	2086.88
721.05	2097.12
721.237	2045.92
721.424	1976.29
721.611	2021.35
721.798	1920.99
721.985	2039.78
722.172	2027.49
722.358	2146.27
722.545	2019.3
722.732	1988.58
722.919	2131.94
723.106	2039.78
723.293	1945.57
723.48	2088.93
723.667	2029.54
723.853	1982.43
724.04	2029.54
724.227	1986.53
724.414	2027.49
724.6	2078.69
724.787	2045.92
724.974	2074.59
725.161	2021.35
725.347	1984.48
725.534	1970.15
725.72	1931.23
725.907	2127.84
726.094	2074.59
726.28	1986.53
726.467	2021.35
726.653	2013.15
726.84	2152.42
727.027	1978.34
727.213	1986.53
727.4	2023.39
727.586	2004.96
727.773	1998.82
727.959	1998.82
728.145	2015.2
728.332	2029.54
728.518	2070.5
728.705	1939.43
728.891	1986.53
729.077	1939.43
729.264	2062.3
729.45	2070.5
729.636	2021.35
729.823	2007.01
730.009	1914.85
730.195	2035.68
730.382	2021.35
730.568	2000.87
730.754	1998.82
730.94	2011.11
731.126	2039.78
731.313	1998.82
731.499	1941.47
731.685	1914.85
731.871	1982.43
732.057	1984.48
732.243	1966.05
732.429	1828.84
732.615	1941.47
732.801	2025.44
732.987	1914.85
733.173	1994.72
733.359	2004.96
733.545	2045.92
733.731	1976.29
733.917	2043.87
734.103	1927.14
734.289	2088.93
734.475	1873.89
734.661	1992.67
734.847	2021.35
735.033	1931.23
735.219	2045.92
735.404	2086.88
735.59	2013.15
735.776	1880.04
735.962	2011.11
736.148	1916.9
736.333	1951.71
736.519	1923.04
736.705	1980.39
736.89	1914.85
737.076	1943.52
737.262	1912.8
737.447	1918.95
737.633	1947.62
737.819	1933.28
738.004	1779.68
738.19	1914.85
738.375	1968.1
738.561	1974.24
738.747	1902.56
738.932	1916.9
739.118	1884.13
739.303	1890.28
739.489	1892.32
739.674	1918.95
739.859	1955.81
740.045	1908.71
740.23	1925.09
740.416	1939.43
740.601	1826.79
740.786	1849.32
740.972	1828.84
741.157	1865.7
741.342	1720.29
741.528	1796.07
741.713	1904.61
741.898	1757.16
742.084	1982.43
742.269	1748.97
742.454	1798.12
742.639	1777.64
742.824	1832.93
743.01	1820.64
743.195	1865.7
743.38	1785.83
743.565	1816.55
743.75	1708.01
743.935	1640.42
744.12	1810.4
744.305	1734.63
744.49	1748.97
744.675	1769.44
744.86	1581.03
745.045	1800.16
745.23	1744.87
745.415	1742.82
745.6	1619.94
745.785	1722.34
745.97	1783.78
746.155	1685.48
746.34	1751.01
746.525	1724.39
746.71	1703.91
746.895	1572.84
747.079	1583.08
747.264	1652.71
747.449	1699.81
747.634	1669.09
747.819	1617.9
748.003	1593.32
748.188	1574.89
748.373	1501.16
748.557	1554.41
748.742	1538.02
748.927	1597.42
749.111	1490.92
749.296	1578.98
749.481	1456.11
749.665	1507.31
749.85	1480.68
750.034	1583.08
750.219	1548.26
750.404	1488.87
750.588	1603.56
750.773	1392.62
750.957	1406.95
751.141	1378.28
751.326	1505.26
751.51	1396.71
751.695	1359.85
751.879	1384.43
752.064	1406.95
752.248	1339.37
752.432	1427.43
752.617	1445.87
752.801	1419.24
752.985	1382.38
753.17	1333.23
753.354	1345.52
753.538	1366
753.722	1173.49
753.907	1308.65
754.091	1312.75
754.275	1259.5
754.459	1298.41
754.643	1259.5
754.828	1302.51
755.012	1284.08
755.196	1273.84
755.38	1236.97
755.564	1228.78
755.748	1187.82
755.932	1275.88
756.116	1196.01
756.3	1243.12
756.484	1267.69
756.668	1206.25
756.852	1081.33
757.036	1146.86
757.22	1153.01
757.404	1120.24
757.588	1107.95
757.772	1200.11
757.956	1124.33
758.14	1161.2
758.323	974.83
758.507	1136.62
758.691	1138.67
758.875	1093.62
759.059	1089.52
759.242	1069.04
759.426	1130.48
759.61	1040.37
759.794	1032.18
759.977	1099.76
760.161	1030.13
760.345	1116.14
760.528	1052.66
760.712	1040.37
760.895	997.36
761.079	974.83
761.263	1040.37
761.446	972.79
761.63	933.87
761.813	962.55
761.997	1071.09
762.18	985.07
762.364	940.02
762.547	1030.13
762.731	948.21
762.914	956.4
763.098	923.63
763.281	1064.94
763.464	968.69
763.648	870.39
763.831	1044.46
764.015	927.73
764.198	1044.46
764.381	921.59
764.564	970.74
764.748	927.73
764.931	1112.05
765.114	1009.65
765.297	970.74
765.481	915.44
765.664	980.98
765.847	925.68
766.03	856.05
766.213	868.34
766.397	858.1
766.58	851.96
766.763	917.49
766.946	851.96
767.129	899.06
767.312	888.82
767.495	937.97
767.678	870.39
767.861	835.57
768.044	890.87
768.227	907.25
768.41	800.76
768.593	890.87
768.776	911.35
768.959	860.15
769.142	954.35
769.324	800.76
769.507	884.72
769.69	817.14
769.873	868.34
770.056	868.34
770.239	907.25
770.421	931.83
770.604	843.76
770.787	808.95
770.97	849.91
771.152	802.8
771.335	829.43
771.518	692.21
771.7	794.61
771.883	839.67
772.066	839.67
772.248	827.38
772.431	817.14
772.613	833.52
772.796	733.17
772.978	710.65
773.161	827.38
773.343	817.14
773.526	624.63
773.708	798.71
773.891	763.89
774.073	722.93
774.256	724.98
774.438	815.09
774.621	759.8
774.803	718.84
774.985	714.74
775.168	755.7
775.35	636.92
775.532	741.36
775.715	759.8
775.897	653.3
776.079	622.58
776.261	718.84
776.444	655.35
776.626	673.78
776.808	673.78
776.99	700.41
777.173	692.21
777.355	612.34
777.537	620.53
777.719	679.93
777.901	628.73
778.083	677.88
778.265	671.73
778.447	653.3
778.629	626.68
778.811	677.88
778.993	571.38
779.175	528.38
779.357	669.69
779.539	636.92
779.721	587.77
779.903	690.17
780.085	559.1
780.267	628.73
780.449	604.15
780.631	606.2
780.812	612.34
780.994	546.81
781.176	624.63
781.358	557.05
781.54	538.62
781.721	489.46
781.903	587.77
782.085	495.61
782.267	550.9
782.448	489.46
782.63	501.75
782.812	458.75
782.993	473.08
783.175	546.81
783.357	415.74
783.538	505.85
783.72	483.32
783.901	507.9
784.083	524.28
784.264	471.03
784.446	479.22
784.627	415.74
784.809	425.98
784.99	421.88
785.172	546.81
785.353	372.73
785.535	460.79
785.716	442.36
785.897	417.79
786.079	391.16
786.26	509.94
786.441	497.66
786.623	387.07
786.804	407.55
786.985	456.7
787.167	440.31
787.348	352.25
787.529	382.97
787.71	450.55
787.891	456.7
788.073	391.16
788.254	344.06
788.435	382.97
788.616	356.35
788.797	376.83
788.978	364.54
789.159	362.49
789.34	411.64
789.522	346.11
789.703	356.35
789.884	434.17
790.065	339.96
790.246	362.49
790.427	358.39
790.607	325.63
790.788	436.22
790.969	391.16
791.15	372.73
791.331	374.78
791.512	270.33
791.693	372.73
791.874	342.01
792.054	323.58
792.235	362.49
792.416	317.44
792.597	305.15
792.778	323.58
792.958	305.15
793.139	266.24
793.32	366.59
793.5	292.86
793.681	364.54
793.862	352.25
794.042	348.15
794.223	264.19
794.404	360.44
794.584	339.96
794.765	350.2
794.945	325.63
795.126	294.91
795.306	350.2
795.487	311.29
795.667	288.76
795.848	276.48
796.028	278.52
796.209	288.76
796.389	296.96
796.57	350.2
796.75	325.63
796.93	262.14
797.111	253.95
797.291	278.52
797.471	221.18
797.652	294.91
797.832	245.76
798.012	382.97
798.192	253.95
798.373	169.98
798.553	251.9
798.733	292.86
798.913	284.67
799.093	243.71
799.274	313.34
799.454	270.33
799.634	288.76
799.814	217.08
799.994	227.32
800.174	247.8
800.354	210.94
800.534	202.75
800.714	270.33
800.894	200.7
801.074	172.03
801.254	266.24
801.434	292.86
801.614	208.89
801.794	210.94
801.974	735.22
802.154	206.84
802.334	155.65
802.514	204.8
802.693	256
802.873	245.76
803.053	274.43
803.233	270.33
803.413	229.37
803.592	217.08
803.772	186.37
803.952	194.56
804.131	153.6
804.311	260.09
804.491	276.48
804.67	174.08
804.85	210.94
805.03	143.36
805.209	264.19
805.389	108.54
805.568	202.75
805.748	235.52
805.928	167.93
806.107	284.67
806.287	196.61
806.466	141.31
806.646	153.6
806.825	198.65
807.004	241.66
807.184	129.02
807.363	239.61
807.543	245.76
807.722	167.93
807.901	247.8
808.081	217.08
808.26	129.02
808.439	206.84
808.619	196.61
808.798	188.41
808.977	221.18
809.156	172.03
809.336	196.61
809.515	204.8
809.694	194.56
809.873	251.9
810.052	239.61
810.231	272.38
810.411	311.29
810.59	172.03
810.769	210.94
810.948	69.63
811.127	231.42
811.306	131.07
811.485	180.22
811.664	196.61
811.843	163.84
812.022	129.02
812.201	102.4
812.38	157.69
812.559	104.45
812.737	229.37
812.916	161.79
813.095	92.16
813.274	180.22
813.453	157.69
813.632	157.69
813.811	184.32
813.989	124.93
814.168	131.07
814.347	110.59
814.526	194.56
814.704	190.46
814.883	157.69
815.062	196.61
815.24	231.42
815.419	192.51
815.598	96.25
815.776	135.17
815.955	182.27
816.133	120.83
816.312	110.59
816.49	137.21
816.669	120.83
816.847	172.03
817.026	165.89
817.204	137.21
817.383	116.73
817.561	81.92
817.74	108.54
817.918	120.83
818.097	114.69
818.275	133.12
818.453	139.26
818.632	176.13
818.81	182.27
818.988	49.15
819.167	135.17
819.345	71.68
819.523	129.02
819.701	124.93
819.879	126.97
820.058	163.84
820.236	145.41
820.414	51.2
820.592	186.37
820.77	112.64
820.948	116.73
821.127	106.49
821.305	112.64
821.483	98.3
821.661	112.64
821.839	116.73
822.017	38.91
822.195	83.97
822.373	118.78
822.551	131.07
822.729	55.3
822.907	124.93
823.085	137.21
823.262	165.89
823.44	86.01
823.618	116.73
823.796	98.3
823.974	75.77
824.152	20.48
824.329	108.54
824.507	116.73
824.685	122.88
824.863	108.54
825.04	73.73
825.218	133.12
825.396	116.73
825.574	71.68
825.751	63.49
825.929	169.98
826.107	124.93
826.284	106.49
826.462	129.02
826.639	94.21
826.817	45.06
826.994	145.41
827.172	77.82
827.349	79.87
827.527	71.68
827.704	135.17
827.882	155.65
828.059	129.02
828.237	75.77
828.414	55.3
828.591	116.73
828.769	53.25
828.946	61.44
829.124	98.3
829.301	65.54
829.478	83.97
829.655	104.45
829.833	45.06
830.01	94.21
830.187	65.54
830.364	131.07
830.542	63.49
830.719	90.11
830.896	90.11
831.073	104.45
831.25	94.21
831.427	206.84
831.604	143.36
831.782	57.34
831.959	71.68
832.136	55.3
832.313	110.59
832.49	116.73
832.667	69.63
832.844	131.07
833.021	65.54
833.198	100.35
833.374	65.54
833.551	79.87
833.728	61.44
833.905	81.92
834.082	126.97
834.259	22.53
834.436	92.16
834.612	55.3
834.789	126.97
834.966	100.35
835.143	79.87
835.319	30.72
835.496	114.69
835.673	63.49
835.85	73.73
836.026	57.34
836.203	36.86
836.38	-45.06
836.556	47.1
836.733	30.72
836.909	83.97
837.086	96.25
837.262	6.14
837.439	96.25
837.616	38.91
837.792	28.67
837.968	104.45
838.145	45.06
838.321	75.77
838.498	18.43
838.674	96.25
838.851	124.93
839.027	104.45
839.203	92.16
839.38	61.44
839.556	14.34
839.732	65.54
839.909	81.92
840.085	126.97
840.261	79.87
840.437	172.03
840.614	63.49
840.79	94.21
840.966	47.1
841.142	6.14
841.318	71.68
841.494	65.54
841.671	63.49
841.847	47.1
842.023	-6.14
842.199	30.72
842.375	71.68
842.551	-18.43
842.727	36.86
842.903	92.16
843.079	4.1
843.255	110.59
843.431	26.62
843.607	104.45
843.783	24.58
843.959	32.77
844.134	0
844.31	45.06
844.486	59.39
844.662	0
844.838	63.49
845.013	63.49
845.189	22.53
845.365	34.82
845.541	61.44
845.716	86.01
845.892	2.05
846.068	43.01
846.244	-36.86
846.419	92.16
846.595	30.72
846.77	63.49
846.946	40.96
847.122	165.89
847.297	59.39
847.473	145.41
847.648	32.77
847.824	22.53
847.999	-4.1
848.175	38.91
848.35	55.3
848.526	114.69
848.701	45.06
848.876	-2.05
849.052	36.86
849.227	26.62
849.403	28.67
849.578	20.48
849.753	47.1
849.929	55.3
850.104	51.2
850.279	57.34
850.454	34.82
850.63	77.82
850.805	30.72
850.98	96.25
851.155	55.3
851.33	36.86
851.505	-4.1
851.681	22.53
851.856	51.2
852.031	94.21
852.206	63.49
852.381	118.78
852.556	28.67
852.731	30.72
852.906	133.12
853.081	71.68
853.256	94.21
853.431	2.05
853.606	40.96
853.781	59.39
853.956	8.19
854.131	106.49
854.305	51.2
854.48	53.25
854.655	6.14
854.83	81.92
855.005	47.1
855.18	-8.19
855.354	4.1
855.529	22.53
855.704	79.87
855.879	32.77
856.053	20.48
856.228	49.15
856.403	-34.82
856.577	-16.38
856.752	10.24
856.926	0
857.101	-12.29
857.276	28.67
857.45	120.83
857.625	71.68
857.799	-34.82
857.974	2.05
858.148	75.77
858.323	79.87
858.497	67.58
858.672	-47.1
858.846	2.05
859.02	20.48
859.195	20.48
859.369	49.15
859.543	-49.15
859.718	63.49
859.892	147.45
860.066	92.16
860.241	47.1
860.415	-8.19
860.589	63.49
860.763	65.54
860.938	30.72
861.112	38.91
861.286	47.1
861.46	-12.29
861.634	104.45
861.808	-18.43
861.982	22.53
862.157	16.38
862.331	-47.1
862.505	18.43
862.679	-28.67
862.853	-36.86
863.027	8.19
863.201	40.96
863.375	79.87
863.549	-22.53
863.722	-6.14
863.896	65.54
864.07	10.24
864.244	30.72
864.418	28.67
864.592	-18.43
864.766	-26.62
864.939	-47.1
865.113	43.01
865.287	83.97
865.461	71.68
865.634	57.34
865.808	38.91
865.982	22.53
866.156	83.97
866.329	65.54
866.503	16.38
866.676	26.62
866.85	-63.49
867.024	24.58
867.197	53.25
867.371	47.1
867.544	-24.58
867.718	-4.1
867.891	135.17
868.065	34.82
868.238	34.82
868.412	110.59
868.585	22.53
868.759	-32.77
868.932	24.58
869.105	57.34
869.279	45.06
869.452	75.77
869.625	96.25
869.799	32.77
869.972	45.06
870.145	47.1
870.319	22.53
870.492	67.58
870.665	-4.1
870.838	20.48
871.011	-4.1
871.185	92.16
871.358	6.14
871.531	32.77
871.704	6.14
871.877	18.43
872.05	-43.01
872.223	2.05
872.396	-4.1
872.569	53.25
872.742	6.14
872.915	-14.34
873.088	18.43
873.261	69.63
873.434	59.39
873.607	14.34
873.78	57.34
873.953	-24.58
874.126	24.58
874.299	83.97
874.471	-36.86
874.644	32.77
874.817	-16.38
874.99	83.97
875.163	22.53
875.335	-10.24
875.508	104.45
875.681	36.86
875.853	77.82
876.026	100.35
876.199	-38.91
876.371	53.25
876.544	36.86
876.717	114.69
876.889	-12.29
877.062	10.24
877.234	34.82
877.407	4.1
877.579	43.01
877.752	94.21
877.924	71.68
878.097	14.34
878.269	116.73
878.442	24.58
878.614	32.77
878.786	6.14
878.959	0
879.131	24.58
879.303	2.05
879.476	6.14
879.648	69.63
879.82	34.82
879.993	24.58
880.165	45.06
880.337	38.91
880.509	14.34
880.681	-51.2
880.854	0
881.026	-2.05
881.198	77.82
881.37	38.91
881.542	4.1
881.714	49.15
881.886	49.15
882.058	-22.53
882.23	36.86
882.402	32.77
882.574	34.82
882.746	2.05
882.918	6.14
883.09	55.3
883.262	-16.38
883.434	14.34
883.606	-40.96
883.778	40.96
883.95	90.11
884.122	4.1
884.293	34.82
884.465	-6.14
884.637	-26.62
884.809	-28.67
884.98	24.58
885.152	16.38
885.324	26.62
885.496	71.68
885.667	0
885.839	20.48
886.011	112.64
886.182	16.38
886.354	51.2
886.525	24.58
886.697	65.54
886.869	-30.72
887.04	32.77
887.212	10.24
887.383	26.62
887.555	55.3
887.726	-6.14
887.897	16.38
888.069	-10.24
888.24	61.44
888.412	90.11
888.583	6.14
888.754	-55.3
888.926	22.53
889.097	108.54
889.268	-12.29
889.44	-2.05
889.611	2.05
889.782	98.3
889.953	14.34
890.125	26.62
890.296	40.96
890.467	51.2
890.638	-2.05
890.809	14.34
890.98	-26.62
891.151	126.97
891.323	71.68
891.494	63.49
891.665	43.01
891.836	0
892.007	53.25
892.178	92.16
892.349	16.38
892.52	-6.14
892.691	-61.44
892.862	-34.82
893.032	-45.06
893.203	24.58
893.374	22.53
893.545	120.83
893.716	26.62
893.887	45.06
894.057	61.44
894.228	-16.38
894.399	2.05
894.57	14.34
894.74	28.67
894.911	36.86
895.082	-55.3
895.253	-10.24
895.423	0
895.594	55.3
895.764	-20.48
895.935	47.1
896.106	-24.58
896.276	0
896.447	92.16
896.617	-18.43
896.788	45.06
896.958	38.91
897.129	98.3
897.299	47.1
897.47	53.25
897.64	-28.67
897.81	2.05
897.981	36.86
898.151	45.06
898.322	6.14
898.492	61.44
898.662	22.53
898.832	24.58
899.003	-10.24
899.173	0
899.343	28.67
899.513	28.67
