Data from USB4F104151__57__13-11-44-038.txt Node

Date: Fri Mar 14 13:11:44 EDT 2025
User: louis
Spectrometer: USB4F10415
Trigger mode: 4
Integration Time (sec): 2.000000E-2
Scans to average: 1
Electric dark correction enabled: true
Nonlinearity correction enabled: false
Boxcar width: 0
XAxis mode: Wavelengths
Number of Pixels in Spectrum: 3648
>>>>>Begin Spectral Data<<<<<
178.204	-93.52
178.424	-93.52
178.644	-93.52
178.864	-77.14
179.084	-150.87
179.304	8.87
179.524	27.31
179.744	41.64
179.964	129.7
180.184	-34.13
180.404	45.74
180.624	-27.99
180.844	-114
181.064	-81.24
181.283	12.97
181.503	-23.89
181.723	15.02
181.943	10.92
182.163	41.64
182.383	58.03
182.602	4.78
182.822	15.02
183.042	49.83
183.262	29.35
183.482	31.4
183.701	45.74
183.921	4.78
184.141	17.07
184.361	-52.56
184.58	-1.37
184.8	72.36
185.02	37.55
185.239	37.55
185.459	70.31
185.679	94.89
185.898	-11.61
186.118	4.78
186.338	8.87
186.557	43.69
186.777	115.37
186.997	109.22
187.216	62.12
187.436	19.11
187.655	-3.41
187.875	111.27
188.095	70.31
188.314	8.87
188.534	29.35
188.753	15.02
188.973	8.87
189.192	58.03
189.412	55.98
189.631	96.94
189.851	17.07
190.07	41.64
190.29	33.45
190.509	-27.99
190.729	-5.46
190.948	80.55
191.168	111.27
191.387	113.32
191.607	12.97
191.826	129.7
192.045	76.46
192.265	21.16
192.484	82.6
192.704	60.07
192.923	-3.41
193.142	51.88
193.362	-3.41
193.581	49.83
193.8	17.07
194.02	-15.7
194.239	-40.28
194.458	-44.37
194.678	43.69
194.897	64.17
195.116	25.26
195.335	23.21
195.555	49.83
195.774	0.68
195.993	12.97
196.212	19.11
196.432	6.83
196.651	45.74
196.87	-25.94
197.089	98.99
197.308	41.64
197.528	-11.61
197.747	-58.71
197.966	60.07
198.185	45.74
198.404	10.92
198.623	84.65
198.842	-5.46
199.062	98.99
199.281	39.59
199.5	19.11
199.719	37.55
199.938	45.74
200.157	94.89
200.376	10.92
200.595	4.78
200.814	64.17
201.033	66.22
201.252	6.83
201.471	-27.99
201.69	15.02
201.909	-38.23
202.128	37.55
202.347	74.41
202.566	0.68
202.785	-56.66
203.004	4.78
203.223	23.21
203.442	-40.28
203.661	64.17
203.879	-9.56
204.098	6.83
204.317	33.45
204.536	27.31
204.755	125.61
204.974	94.89
205.193	82.6
205.411	107.18
205.63	29.35
205.849	15.02
206.068	-36.18
206.287	51.88
206.505	-15.7
206.724	94.89
206.943	-5.46
207.162	6.83
207.381	19.11
207.599	21.16
207.818	8.87
208.037	-50.52
208.255	-13.65
208.474	12.97
208.693	74.41
208.911	-11.61
209.13	4.78
209.349	29.35
209.567	17.07
209.786	31.4
210.005	55.98
210.223	6.83
210.442	86.7
210.661	-79.19
210.879	-3.41
211.098	4.78
211.316	51.88
211.535	88.75
211.753	78.51
211.972	64.17
212.191	37.55
212.409	68.27
212.628	-17.75
212.846	55.98
213.065	21.16
213.283	86.7
213.502	12.97
213.72	25.26
213.938	12.97
214.157	-36.18
214.375	23.21
214.594	-27.99
214.812	15.02
215.031	45.74
215.249	-9.56
215.467	-1.37
215.686	4.78
215.904	4.78
216.122	27.31
216.341	-3.41
216.559	23.21
216.778	29.35
216.996	29.35
217.214	-17.75
217.432	98.99
217.651	68.27
217.869	70.31
218.087	29.35
218.306	41.64
218.524	90.79
218.742	35.5
218.96	41.64
219.179	4.78
219.397	-40.28
219.615	80.55
219.833	29.35
220.051	17.07
220.27	-3.41
220.488	39.59
220.706	8.87
220.924	-56.66
221.142	64.17
221.36	45.74
221.578	-17.75
221.796	55.98
222.015	-1.37
222.233	-11.61
222.451	-42.32
222.669	-54.61
222.887	80.55
223.105	21.16
223.323	70.31
223.541	-19.8
223.759	55.98
223.977	84.65
224.195	74.41
224.413	45.74
224.631	72.36
224.849	58.03
225.067	103.08
225.285	21.16
225.503	86.7
225.721	37.55
225.939	4.78
226.157	94.89
226.375	21.16
226.592	-3.41
226.81	-3.41
227.028	49.83
227.246	62.12
227.464	-68.95
227.682	88.75
227.9	62.12
228.117	21.16
228.335	-1.37
228.553	-7.51
228.771	39.59
228.989	-30.04
229.206	43.69
229.424	86.7
229.642	6.83
229.86	23.21
230.077	45.74
230.295	25.26
230.513	88.75
230.731	35.5
230.948	62.12
231.166	64.17
231.384	58.03
231.601	-81.24
231.819	4.78
232.037	-3.41
232.254	-13.65
232.472	19.11
232.689	29.35
232.907	31.4
233.125	17.07
233.342	45.74
233.56	-56.66
233.777	33.45
233.995	66.22
234.213	37.55
234.43	6.83
234.648	92.84
234.865	70.31
235.083	41.64
235.3	-3.41
235.518	23.21
235.735	70.31
235.953	39.59
236.17	37.55
236.388	39.59
236.605	21.16
236.822	107.18
237.04	25.26
237.257	78.51
237.475	-36.18
237.692	-56.66
237.909	-21.85
238.127	47.79
238.344	6.83
238.562	17.07
238.779	17.07
238.996	62.12
239.214	35.5
239.431	6.83
239.648	58.03
239.865	80.55
240.083	37.55
240.3	17.07
240.517	29.35
240.735	-19.8
240.952	92.84
241.169	47.79
241.386	82.6
241.603	66.22
241.821	60.07
242.038	78.51
242.255	51.88
242.472	0.68
242.689	39.59
242.907	49.83
243.124	66.22
243.341	4.78
243.558	-44.37
243.775	72.36
243.992	-19.8
244.209	86.7
244.426	45.74
244.643	49.83
244.86	-9.56
245.078	51.88
245.295	58.03
245.512	12.97
245.729	-42.32
245.946	64.17
246.163	-17.75
246.38	-17.75
246.597	94.89
246.814	12.97
247.031	-73.04
247.248	76.46
247.464	4.78
247.681	115.37
247.898	76.46
248.115	88.75
248.332	-40.28
248.549	37.55
248.766	84.65
248.983	88.75
249.2	12.97
249.417	98.99
249.633	41.64
249.85	35.5
250.067	55.98
250.284	39.59
250.501	-7.51
250.717	64.17
250.934	86.7
251.151	58.03
251.368	-5.46
251.585	19.11
251.801	66.22
252.018	-1.37
252.235	39.59
252.451	31.4
252.668	21.16
252.885	74.41
253.102	76.46
253.318	66.22
253.535	-13.65
253.752	4.78
253.968	25.26
254.185	-44.37
254.401	12.97
254.618	47.79
254.835	62.12
255.051	115.37
255.268	62.12
255.484	21.16
255.701	90.79
255.917	84.65
256.134	-15.7
256.351	12.97
256.567	-34.13
256.784	37.55
257	80.55
257.217	88.75
257.433	78.51
257.65	39.59
257.866	-1.37
258.082	-34.13
258.299	-19.8
258.515	31.4
258.732	45.74
258.948	23.21
259.165	33.45
259.381	-5.46
259.597	23.21
259.814	39.59
260.03	-3.41
260.246	53.93
260.463	62.12
260.679	43.69
260.895	39.59
261.112	117.42
261.328	-44.37
261.544	72.36
261.761	17.07
261.977	15.02
262.193	-42.32
262.409	96.94
262.626	15.02
262.842	41.64
263.058	53.93
263.274	86.7
263.49	70.31
263.707	68.27
263.923	31.4
264.139	-54.61
264.355	6.83
264.571	27.31
264.787	-15.7
265.004	41.64
265.22	19.11
265.436	-15.7
265.652	4.78
265.868	-19.8
266.084	-13.65
266.3	55.98
266.516	-3.41
266.732	-21.85
266.948	25.26
267.164	98.99
267.38	49.83
267.596	60.07
267.812	45.74
268.028	10.92
268.244	37.55
268.46	-62.8
268.676	-21.85
268.892	53.93
269.108	-7.51
269.324	31.4
269.54	41.64
269.756	72.36
269.972	-23.89
270.188	4.78
270.403	-11.61
270.619	47.79
270.835	76.46
271.051	-7.51
271.267	45.74
271.483	47.79
271.698	53.93
271.914	80.55
272.13	35.5
272.346	45.74
272.562	-30.04
272.777	37.55
272.993	17.07
273.209	4.78
273.425	80.55
273.64	-19.8
273.856	39.59
274.072	-36.18
274.287	12.97
274.503	58.03
274.719	31.4
274.934	23.21
275.15	49.83
275.366	39.59
275.581	-36.18
275.797	53.93
276.012	0.68
276.228	8.87
276.444	-5.46
276.659	4.78
276.875	25.26
277.09	90.79
277.306	53.93
277.521	62.12
277.737	-42.32
277.952	-50.52
278.168	-17.75
278.383	23.21
278.599	41.64
278.814	121.51
279.03	29.35
279.245	66.22
279.461	-48.47
279.676	86.7
279.892	21.16
280.107	96.94
280.322	-7.51
280.538	15.02
280.753	47.79
280.969	76.46
281.184	-19.8
281.399	35.5
281.615	-38.23
281.83	37.55
282.045	80.55
282.26	45.74
282.476	-23.89
282.691	53.93
282.906	23.21
283.122	47.79
283.337	37.55
283.552	15.02
283.767	-21.85
283.983	98.99
284.198	-3.41
284.413	6.83
284.628	17.07
284.843	6.83
285.058	62.12
285.274	74.41
285.489	78.51
285.704	-1.37
285.919	12.97
286.134	-27.99
286.349	-77.14
286.564	12.97
286.779	105.13
286.995	10.92
287.21	-13.65
287.425	12.97
287.64	88.75
287.855	58.03
288.07	6.83
288.285	113.32
288.5	-17.75
288.715	-23.89
288.93	-85.33
289.145	96.94
289.36	144.04
289.575	55.98
289.79	86.7
290.004	21.16
290.219	62.12
290.434	29.35
290.649	53.93
290.864	64.17
291.079	43.69
291.294	21.16
291.509	0.68
291.724	66.22
291.938	-42.32
292.153	43.69
292.368	66.22
292.583	51.88
292.798	-19.8
293.012	-7.51
293.227	66.22
293.442	58.03
293.657	8.87
293.871	37.55
294.086	35.5
294.301	150.18
294.516	17.07
294.73	29.35
294.945	23.21
295.16	29.35
295.374	70.31
295.589	72.36
295.804	43.69
296.018	176.81
296.233	86.7
296.447	-9.56
296.662	0.68
296.877	70.31
297.091	21.16
297.306	-11.61
297.52	31.4
297.735	49.83
297.949	12.97
298.164	68.27
298.378	47.79
298.593	45.74
298.807	21.16
299.022	6.83
299.236	64.17
299.451	29.35
299.665	-11.61
299.88	41.64
300.094	53.93
300.309	15.02
300.523	72.36
300.737	43.69
300.952	35.5
301.166	6.83
301.381	-32.08
301.595	21.16
301.809	76.46
302.024	29.35
302.238	39.59
302.452	55.98
302.667	39.59
302.881	78.51
303.095	15.02
303.309	68.27
303.524	-34.13
303.738	21.16
303.952	-21.85
304.166	127.66
304.381	-60.76
304.595	21.16
304.809	49.83
305.023	-1.37
305.237	82.6
305.452	-36.18
305.666	64.17
305.88	53.93
306.094	68.27
306.308	-13.65
306.522	127.66
306.736	12.97
306.95	35.5
307.164	37.55
307.379	35.5
307.593	23.21
307.807	-19.8
308.021	2.73
308.235	101.03
308.449	-23.89
308.663	-19.8
308.877	84.65
309.091	-15.7
309.305	4.78
309.519	53.93
309.733	66.22
309.947	4.78
310.161	58.03
310.374	66.22
310.588	35.5
310.802	70.31
311.016	-19.8
311.23	39.59
311.444	-19.8
311.658	53.93
311.872	62.12
312.085	68.27
312.299	39.59
312.513	109.22
312.727	45.74
312.941	6.83
313.154	129.7
313.368	49.83
313.582	72.36
313.796	-1.37
314.009	-25.94
314.223	-36.18
314.437	45.74
314.651	17.07
314.864	4.78
315.078	0.68
315.292	25.26
315.505	4.78
315.719	47.79
315.933	29.35
316.146	15.02
316.36	2.73
316.573	107.18
316.787	72.36
317.001	35.5
317.214	35.5
317.428	66.22
317.641	-30.04
317.855	12.97
318.068	94.89
318.282	29.35
318.495	8.87
318.709	0.68
318.922	8.87
319.136	39.59
319.349	41.64
319.563	55.98
319.776	-7.51
319.99	33.45
320.203	96.94
320.417	21.16
320.63	129.7
320.843	66.22
321.057	92.84
321.27	37.55
321.483	-46.42
321.697	31.4
321.91	55.98
322.124	21.16
322.337	70.31
322.55	-34.13
322.763	29.35
322.977	-9.56
323.19	10.92
323.403	-21.85
323.617	23.21
323.83	-44.37
324.043	111.27
324.256	23.21
324.469	33.45
324.683	43.69
324.896	33.45
325.109	-62.8
325.322	47.79
325.535	37.55
325.748	70.31
325.962	-21.85
326.175	21.16
326.388	-27.99
326.601	53.93
326.814	17.07
327.027	2.73
327.24	68.27
327.453	-7.51
327.666	64.17
327.879	17.07
328.092	53.93
328.305	41.64
328.518	0.68
328.731	58.03
328.944	105.13
329.157	74.41
329.37	29.35
329.583	53.93
329.796	35.5
330.009	29.35
330.222	103.08
330.435	-1.37
330.648	23.21
330.861	45.74
331.073	17.07
331.286	82.6
331.499	70.31
331.712	15.02
331.925	33.45
332.138	17.07
332.35	60.07
332.563	21.16
332.776	90.79
332.989	55.98
333.202	66.22
333.414	-1.37
333.627	-9.56
333.84	25.26
334.053	68.27
334.265	6.83
334.478	37.55
334.691	-21.85
334.903	62.12
335.116	8.87
335.329	-52.56
335.541	129.7
335.754	72.36
335.966	-38.23
336.179	-48.47
336.392	70.31
336.604	-27.99
336.817	74.41
337.029	33.45
337.242	21.16
337.454	76.46
337.667	45.74
337.88	82.6
338.092	27.31
338.305	-17.75
338.517	39.59
338.729	64.17
338.942	90.79
339.154	-11.61
339.367	29.35
339.579	31.4
339.792	-17.75
340.004	25.26
340.217	-17.75
340.429	78.51
340.641	-3.41
340.854	-38.23
341.066	45.74
341.278	15.02
341.491	70.31
341.703	90.79
341.915	2.73
342.128	45.74
342.34	21.16
342.552	31.4
342.764	-17.75
342.977	39.59
343.189	78.51
343.401	-23.89
343.613	29.35
343.826	29.35
344.038	49.83
344.25	25.26
344.462	33.45
344.674	47.79
344.886	19.11
345.099	111.27
345.311	35.5
345.523	62.12
345.735	51.88
345.947	-1.37
346.159	29.35
346.371	88.75
346.583	8.87
346.795	70.31
347.007	45.74
347.219	39.59
347.431	6.83
347.643	21.16
347.855	68.27
348.067	64.17
348.279	-1.37
348.491	-3.41
348.703	17.07
348.915	12.97
349.127	96.94
349.339	74.41
349.551	49.83
349.763	37.55
349.975	78.51
350.187	39.59
350.399	172.71
350.61	-11.61
350.822	64.17
351.034	8.87
351.246	72.36
351.458	-25.94
351.669	121.51
351.881	60.07
352.093	25.26
352.305	80.55
352.517	86.7
352.728	39.59
352.94	-56.66
353.152	66.22
353.363	-17.75
353.575	66.22
353.787	60.07
353.999	68.27
354.21	74.41
354.422	-1.37
354.633	92.84
354.845	80.55
355.057	33.45
355.268	-1.37
355.48	80.55
355.692	29.35
355.903	33.45
356.115	45.74
356.326	-21.85
356.538	66.22
356.749	2.73
356.961	70.31
357.172	17.07
357.384	51.88
357.595	80.55
357.807	-17.75
358.018	-9.56
358.23	70.31
358.441	39.59
358.653	-3.41
358.864	2.73
359.075	76.46
359.287	-19.8
359.498	154.28
359.709	35.5
359.921	62.12
360.132	64.17
360.344	21.16
360.555	35.5
360.766	-25.94
360.977	53.93
361.189	76.46
361.4	53.93
361.611	60.07
361.823	10.92
362.034	62.12
362.245	70.31
362.456	-27.99
362.667	19.11
362.879	37.55
363.09	15.02
363.301	2.73
363.512	-25.94
363.723	-11.61
363.935	-19.8
364.146	70.31
364.357	92.84
364.568	12.97
364.779	62.12
364.99	66.22
365.201	74.41
365.412	12.97
365.623	29.35
365.834	94.89
366.045	27.31
366.256	109.22
366.467	6.83
366.678	-15.7
366.889	-1.37
367.1	8.87
367.311	41.64
367.522	-52.56
367.733	47.79
367.944	25.26
368.155	80.55
368.366	68.27
368.577	90.79
368.788	47.79
368.999	45.74
369.209	94.89
369.42	82.6
369.631	166.57
369.842	21.16
370.053	-9.56
370.264	49.83
370.474	53.93
370.685	15.02
370.896	17.07
371.107	53.93
371.317	90.79
371.528	12.97
371.739	62.12
371.95	25.26
372.16	49.83
372.371	72.36
372.582	39.59
372.792	119.46
373.003	70.31
373.214	51.88
373.424	-27.99
373.635	96.94
373.846	43.69
374.056	29.35
374.267	74.41
374.477	-11.61
374.688	-32.08
374.898	21.16
375.109	55.98
375.319	23.21
375.53	94.89
375.74	101.03
375.951	51.88
376.161	70.31
376.372	90.79
376.582	10.92
376.793	78.51
377.003	-5.46
377.214	-5.46
377.424	70.31
377.635	60.07
377.845	45.74
378.055	92.84
378.266	2.73
378.476	29.35
378.686	17.07
378.897	39.59
379.107	-15.7
379.317	64.17
379.528	23.21
379.738	101.03
379.948	19.11
380.158	152.23
380.369	6.83
380.579	-1.37
380.789	6.83
380.999	37.55
381.21	45.74
381.42	37.55
381.63	37.55
381.84	70.31
382.05	84.65
382.261	86.7
382.471	8.87
382.681	51.88
382.891	82.6
383.101	37.55
383.311	12.97
383.521	45.74
383.731	49.83
383.941	88.75
384.151	19.11
384.361	43.69
384.571	76.46
384.781	72.36
384.991	45.74
385.201	19.11
385.411	53.93
385.621	25.26
385.831	60.07
386.041	35.5
386.251	-56.66
386.461	82.6
386.671	60.07
386.881	70.31
387.091	62.12
387.301	12.97
387.511	70.31
387.72	47.79
387.93	33.45
388.14	37.55
388.35	121.51
388.56	45.74
388.769	43.69
388.979	37.55
389.189	10.92
389.399	21.16
389.609	33.45
389.818	-32.08
390.028	31.4
390.238	47.79
390.447	45.74
390.657	90.79
390.867	15.02
391.076	39.59
391.286	47.79
391.496	2.73
391.705	27.31
391.915	94.89
392.125	6.83
392.334	-21.85
392.544	94.89
392.753	53.93
392.963	72.36
393.172	43.69
393.382	62.12
393.591	111.27
393.801	37.55
394.01	113.32
394.22	31.4
394.429	-15.7
394.639	19.11
394.848	70.31
395.058	41.64
395.267	29.35
395.477	19.11
395.686	0.68
395.895	49.83
396.105	170.66
396.314	51.88
396.524	43.69
396.733	25.26
396.942	94.89
397.152	51.88
397.361	31.4
397.57	60.07
397.78	72.36
397.989	23.21
398.198	19.11
398.407	90.79
398.617	74.41
398.826	33.45
399.035	111.27
399.244	74.41
399.453	-3.41
399.663	62.12
399.872	88.75
400.081	39.59
400.29	70.31
400.499	74.41
400.708	-1.37
400.917	-15.7
401.127	41.64
401.336	72.36
401.545	111.27
401.754	86.7
401.963	117.42
402.172	66.22
402.381	55.98
402.59	12.97
402.799	96.94
403.008	49.83
403.217	94.89
403.426	45.74
403.635	21.16
403.844	90.79
404.053	66.22
404.262	101.03
404.471	33.45
404.68	107.18
404.888	113.32
405.097	45.74
405.306	78.51
405.515	82.6
405.724	103.08
405.933	117.42
406.142	113.32
406.35	156.33
406.559	62.12
406.768	133.8
406.977	76.46
407.185	117.42
407.394	117.42
407.603	-1.37
407.812	19.11
408.02	178.86
408.229	37.55
408.438	148.14
408.646	123.56
408.855	119.46
409.064	162.47
409.272	113.32
409.481	203.43
409.69	74.41
409.898	160.42
410.107	127.66
410.315	199.34
410.524	201.38
410.733	201.38
410.941	119.46
411.15	172.71
411.358	164.52
411.567	195.24
411.775	144.04
411.984	203.43
412.192	172.71
412.401	240.29
412.609	254.63
412.818	254.63
413.026	283.3
413.234	225.96
413.443	234.15
413.651	285.35
413.86	176.81
414.068	320.17
414.276	373.41
414.485	330.41
414.693	309.93
414.901	336.55
415.11	340.65
415.318	275.11
415.526	357.03
415.734	352.93
415.943	316.07
416.151	385.7
416.359	326.31
416.567	445.09
416.776	434.85
416.984	455.33
417.192	408.23
417.4	375.46
417.608	359.08
417.817	481.96
418.025	455.33
418.233	506.53
418.441	469.67
418.649	463.52
418.857	488.1
419.065	621.22
419.273	492.2
419.481	664.22
419.689	658.08
419.897	610.98
420.105	699.04
420.313	690.85
420.521	670.37
420.729	789.15
420.937	692.9
421.145	733.86
421.353	778.91
421.561	823.97
421.769	934.56
421.977	848.54
422.185	889.5
422.393	936.6
422.601	932.51
422.809	942.75
423.017	1012.38
423.224	1012.38
423.432	1120.92
423.64	1000.09
423.848	1120.92
424.056	1204.89
424.263	1170.07
424.471	1231.51
424.679	1264.28
424.887	1381.01
425.094	1403.54
425.302	1397.4
425.51	1407.64
425.718	1518.23
425.925	1383.06
426.133	1538.71
426.341	1669.78
426.548	1733.26
426.756	1733.26
426.964	1680.02
427.171	1780.37
427.379	1933.97
427.586	1856.14
427.794	1946.25
428.001	2065.04
428.209	2085.51
428.417	2019.98
428.624	2241.16
428.832	2321.03
429.039	2169.48
429.247	2165.39
429.454	2480.77
429.662	2558.6
429.869	2468.48
430.076	2681.47
430.284	2568.84
430.491	2644.61
430.699	2806.4
430.906	2855.55
431.114	2787.97
431.321	3031.68
431.528	3019.39
431.736	3150.46
431.943	3306.1
432.15	3158.65
432.358	3101.31
432.565	3357.3
432.772	3469.94
432.979	3621.49
433.187	3762.8
433.394	3715.7
433.601	3928.69
433.808	3869.3
434.016	3895.92
434.223	4178.54
434.43	4307.56
434.637	4235.88
434.844	4622.95
435.052	4653.67
435.259	4608.61
435.466	4700.77
435.673	4694.63
435.88	4891.23
436.087	5184.09
436.294	5157.47
436.501	5096.03
436.708	5251.67
436.915	5288.54
437.122	5515.86
437.329	5499.48
437.537	5771.86
437.743	5814.87
437.95	5853.78
438.157	6048.33
438.364	6294.09
438.571	6249.04
438.778	6154.83
438.985	6877.76
439.192	6654.53
439.399	6924.86
439.606	6832.71
439.813	7074.37
440.02	7623.22
440.227	7254.59
440.433	7420.47
440.64	7582.26
440.847	7483.96
441.054	7877.17
441.261	8264.24
441.467	8024.62
441.674	8323.63
441.881	8524.33
442.088	8561.19
442.294	8589.86
442.501	8686.12
442.708	8927.78
442.914	9290.27
443.121	9601.56
443.328	9456.15
443.534	10111.5
443.741	9607.7
443.948	9533.98
444.154	10383.88
444.361	10471.95
444.568	10453.52
444.774	10291.73
444.981	10490.38
445.187	10734.09
445.394	11145.73
445.6	11139.58
445.807	11997.68
446.013	11569.66
446.22	11788.79
446.426	12358.13
446.633	12208.62
446.839	12925.41
447.046	12147.19
447.252	12945.89
447.459	13195.75
447.665	13105.63
447.871	13775.32
448.078	14287.31
448.284	13427.17
448.491	13847
448.697	14330.32
448.903	14717.39
449.11	14840.26
449.316	14447.05
449.522	14875.08
449.728	15315.39
449.935	15516.09
450.141	15598.01
450.347	15509.95
450.553	15299.01
450.76	15557.05
450.966	15913.4
451.172	15638.97
451.378	16339.38
451.584	15645.12
451.791	16368.05
451.997	16271.79
452.203	16581.04
452.409	16646.57
452.615	16495.02
452.821	15821.24
453.027	15641.02
453.233	16441.78
453.44	15929.78
453.646	16073.14
453.852	16185.78
454.058	16714.16
454.264	16200.12
454.47	16275.89
454.676	16091.57
454.882	16345.52
455.088	15356.35
455.294	15331.78
455.5	15638.97
455.705	15856.06
455.911	15092.16
456.117	15032.77
456.323	14717.39
456.529	13947.35
456.735	14541.26
456.941	14131.67
457.147	13865.43
457.352	13504.99
457.558	13433.31
457.764	13353.44
457.97	13265.38
458.176	13027.81
458.381	12898.79
458.587	12331.5
458.793	12124.66
458.999	11633.15
459.204	12720.62
459.41	12075.51
459.616	11362.81
459.821	11334.14
460.027	11383.29
460.233	11067.91
460.438	10576.39
460.644	10801.67
460.85	10086.93
461.055	9871.89
461.261	10080.78
461.466	9296.41
461.672	9034.27
461.878	9650.71
462.083	9021.98
462.289	8794.66
462.494	8778.28
462.7	8442.41
462.905	7981.62
463.111	8385.07
463.316	8417.83
463.522	8100.4
463.727	8374.83
463.932	8223.28
464.138	8081.97
464.343	8059.44
464.549	7957.04
464.754	8108.59
464.959	8043.06
465.165	8133.17
465.37	7701.05
465.575	7410.23
465.781	7911.99
465.986	7776.82
466.191	7529.02
466.397	7397.95
466.602	7197.24
466.807	7359.03
467.012	7365.18
467.218	7273.02
467.423	7178.81
467.628	7100.99
467.833	7574.07
468.038	7293.5
468.244	7062.08
468.449	7311.93
468.654	6980.16
468.859	7041.6
469.064	6959.68
469.269	7062.08
469.474	6830.66
469.679	6928.96
469.885	6765.12
470.09	6820.42
470.295	6662.72
470.5	6617.67
470.705	6812.23
470.91	6550.09
471.115	6552.13
471.32	6416.97
471.525	6566.47
471.73	6197.84
471.935	6433.35
472.139	6060.62
472.344	6265.42
472.549	6111.82
472.754	6093.39
472.959	6034
473.164	5902.93
473.369	5802.58
473.574	5917.26
473.778	6023.76
473.983	5919.31
474.188	5935.7
474.393	5765.71
474.598	5741.14
474.802	5624.4
475.007	5366.36
475.212	5575.25
475.417	5294.68
475.621	5511.77
475.826	5454.42
476.031	5214.81
476.235	5104.22
476.44	5280.35
476.645	5169.76
476.849	5231.19
477.054	5050.97
477.259	4952.67
477.463	5089.88
477.668	4936.29
477.872	4964.96
478.077	4827.74
478.282	4616.8
478.486	4772.45
478.691	4862.56
478.895	4713.06
479.1	4790.88
479.304	4647.52
479.509	4510.31
479.713	4504.17
479.918	4436.58
480.122	4489.83
480.326	4473.45
480.531	4577.89
480.735	4475.49
480.94	4418.15
481.144	4577.89
481.348	4461.16
481.553	4467.3
481.757	4373.1
481.961	4299.37
482.166	4305.51
482.37	4348.52
482.574	4119.15
482.778	4311.66
482.983	4444.77
483.187	4334.18
483.391	4334.18
483.595	4332.14
483.8	4301.42
484.004	4469.35
484.208	4391.53
484.412	4375.14
484.616	4373.1
484.821	4444.77
485.025	4192.87
485.229	4229.74
485.433	4215.4
485.637	4371.05
485.841	4256.36
486.045	4319.85
486.249	4405.86
486.453	4395.62
486.657	4385.38
486.861	4348.52
487.065	4231.79
487.269	4311.66
487.473	4371.05
487.677	4373.1
487.881	4266.6
488.085	4495.97
488.289	4301.42
488.493	4510.31
488.697	4319.85
488.901	4305.51
489.105	4297.32
489.309	4436.58
489.512	4416.1
489.716	4407.91
489.92	4412.01
490.124	4334.18
490.328	4518.5
490.531	4338.28
490.735	4457.06
490.939	4369
491.143	4469.35
491.346	4457.06
491.55	4485.73
491.754	4528.74
491.958	4594.28
492.161	4434.53
492.365	4571.75
492.569	4618.85
492.772	4592.23
492.976	4895.33
493.18	4665.96
493.383	4840.03
493.587	4721.25
493.79	4825.7
493.994	4668
494.197	4776.55
494.401	4823.65
494.605	4809.31
494.808	4946.53
495.012	4794.98
495.215	4977.25
495.419	5018.21
495.622	5071.45
495.825	5071.45
496.029	5046.88
496.232	5202.52
496.436	5093.98
496.639	5319.26
496.843	5304.92
497.046	5300.83
497.249	5411.42
497.453	5378.65
497.656	5370.46
497.859	5362.26
498.063	5560.92
498.266	5614.16
498.469	5683.8
498.673	5724.76
498.876	5669.46
499.079	5790.29
499.282	5941.84
499.485	5939.79
499.689	6003.28
499.892	6146.64
500.095	6150.73
500.298	6156.88
500.501	6185.55
500.705	6468.17
500.908	6339.15
501.111	6437.45
501.314	6511.18
501.517	6685.25
501.72	6773.32
501.923	6713.92
502.126	6812.23
502.329	6894.15
502.532	7017.02
502.735	7238.2
502.938	7344.7
503.141	7215.68
503.344	7299.64
503.547	7412.28
503.75	7262.78
503.953	7801.4
504.156	7688.76
504.359	7526.97
504.562	7848.5
504.765	7918.13
504.968	8151.6
505.17	7963.19
505.373	8098.35
505.576	8231.47
505.779	8243.76
505.982	8262.19
506.185	8663.59
506.387	8600.1
506.59	8561.19
506.793	8745.51
506.996	8710.69
507.198	9019.94
507.401	9073.18
507.604	9097.76
507.807	9105.95
508.009	9304.6
508.212	9523.74
508.415	9564.7
508.617	9773.59
508.82	9724.44
509.022	9638.42
509.225	10000.91
509.428	9837.08
509.63	10213.9
509.833	10027.54
510.035	10437.13
510.238	10392.08
510.44	10490.38
510.643	10600.97
510.845	10844.68
511.048	10893.83
511.25	10856.96
511.453	11151.87
511.655	11350.53
511.858	11225.6
512.06	11364.86
512.262	11704.82
512.465	11567.61
512.667	11817.46
512.87	11895.29
513.072	11952.63
513.274	12120.56
513.477	12200.43
513.679	12292.59
513.881	12530.16
514.084	12476.91
514.286	12485.1
514.488	12866.02
514.69	13261.28
514.893	13021.67
515.095	13105.63
515.297	13105.63
515.499	13222.37
515.701	13568.48
515.904	13760.98
516.106	13863.38
516.308	13646.3
516.51	14272.98
516.712	14209.49
516.914	14178.77
517.116	14469.58
517.318	14653.9
517.52	14803.4
517.722	14817.74
517.925	15141.32
518.127	15307.2
518.329	15389.12
518.531	15423.94
518.733	15532.48
518.935	15786.43
519.136	15864.25
519.338	15880.63
519.54	15780.28
519.742	16404.91
519.944	16396.72
520.146	16693.68
520.348	16646.57
520.55	16726.44
520.752	17070.5
520.954	17267.11
521.155	17119.65
521.357	17158.56
521.559	17691.04
521.761	18121.11
521.963	17879.45
522.164	17779.1
522.366	18022.81
522.568	18166.17
522.77	18348.43
522.971	18610.57
523.173	18497.94
523.375	18553.23
523.576	18925.96
523.778	18684.3
523.98	18829.71
524.181	19054.98
524.383	19138.95
524.584	19515.78
524.786	19474.82
524.988	19362.18
525.189	19990.91
525.391	19759.49
525.592	19943.8
525.794	20117.88
525.995	20046.2
526.197	20259.19
526.398	20023.67
526.6	20367.73
526.801	20445.55
527.003	20400.5
527.204	20648.3
527.406	21031.27
527.607	20922.73
527.808	21483.87
528.01	20978.03
528.211	20910.44
528.412	21387.62
528.614	20992.36
528.815	21125.48
529.016	21557.6
529.218	21414.24
529.419	21614.94
529.62	21674.34
529.822	21881.18
530.023	21662.05
530.224	21768.54
530.425	21334.37
530.626	21592.42
530.828	21909.85
531.029	22124.89
531.23	21807.45
531.431	21961.05
531.632	21746.01
531.833	22088.03
532.035	22094.17
532.236	21959
532.437	22022.49
532.638	22178.14
532.839	21995.87
533.04	22155.61
533.241	21991.77
533.442	22448.47
533.643	22290.77
533.844	22260.06
534.045	22409.56
534.246	22370.65
534.447	22626.64
534.648	22321.49
534.849	22387.03
535.05	22290.77
535.251	22251.86
535.451	22049.11
535.652	22454.61
535.853	22329.69
536.054	22454.61
536.255	22544.72
536.456	22491.48
536.657	22813.01
536.857	22272.34
537.058	22290.77
537.259	22677.84
537.46	22352.21
537.66	22471
537.861	22966.6
538.062	22462.8
538.263	22683.98
538.463	22368.6
538.664	22354.26
538.865	22661.46
539.065	22679.89
539.266	22487.38
539.466	22749.52
539.667	22268.25
539.868	22823.25
540.068	22634.83
540.269	22221.14
540.469	22462.8
540.67	22298.97
540.87	22237.53
541.071	22452.56
541.271	22561.11
541.472	22409.56
541.672	22378.84
541.873	22425.94
542.073	21877.08
542.274	22663.5
542.474	22393.17
542.675	22313.3
542.875	22366.55
543.075	22350.17
543.276	22098.27
543.476	22575.44
543.676	22049.11
543.877	22481.24
544.077	22237.53
544.277	22417.75
544.478	22522.19
544.678	22237.53
544.878	22548.82
545.078	22200.66
545.279	22016.35
545.479	22192.47
545.679	22421.84
545.879	22522.19
546.079	22368.6
546.28	22215
546.48	22376.79
546.68	22532.43
546.88	22401.36
547.08	22364.5
547.28	22137.18
547.48	22110.55
547.68	22413.65
547.88	21971.29
548.081	22397.27
548.281	22221.14
548.481	22219.1
548.681	22270.29
548.881	22440.28
549.081	22452.56
549.28	22186.33
549.48	22432.08
549.68	22542.67
549.88	22688.08
550.08	22217.05
550.28	22356.31
550.48	22157.66
550.68	22499.67
550.88	22071.64
551.08	22098.27
551.279	22286.68
551.479	21989.72
551.679	22065.5
551.879	22006.11
552.079	22118.75
552.278	22200.66
552.478	22174.04
552.678	22178.14
552.878	22233.43
553.077	22284.63
553.277	22114.65
553.477	22284.63
553.676	21823.84
553.876	22112.6
554.076	22088.03
554.275	22024.54
554.475	21829.98
554.674	22219.1
554.874	22382.93
555.074	22094.17
555.273	21918.04
555.473	22069.59
555.672	21916
555.872	21971.29
556.071	21872.99
556.271	22141.27
556.47	22034.78
556.67	21633.38
556.869	21989.72
557.068	21866.84
557.268	21485.92
557.467	21426.53
557.667	21643.62
557.866	21664.1
558.065	21518.69
558.265	21490.02
558.464	21473.63
558.663	21985.63
558.863	21496.16
559.062	21559.65
559.261	21393.76
559.461	21598.56
559.66	21105
559.859	21444.96
560.058	20871.53
560.258	21086.57
560.457	21078.38
560.656	21354.85
560.855	21154.15
561.054	21291.37
561.253	21066.09
561.453	21322.09
561.652	20894.06
561.851	20818.28
562.05	20892.01
562.249	20631.92
562.448	21049.71
562.647	20869.48
562.846	20554.1
563.045	20619.63
563.244	20689.26
563.443	20803.95
563.642	20191.61
563.841	20660.59
564.04	20310.39
564.239	20629.87
564.438	20504.95
564.637	20377.97
564.836	20349.3
565.035	20042.1
565.234	20445.55
565.432	20113.78
565.631	20005.24
565.83	20253.05
566.029	19958.14
566.228	20005.24
566.427	19681.66
566.625	19859.84
566.824	19560.83
567.023	19882.36
567.222	19540.35
567.42	19646.85
567.619	19462.53
567.818	19722.62
568.016	19534.21
568.215	19390.85
568.414	19464.58
568.612	19669.37
568.811	19116.42
569.01	19317.12
569.208	18956.68
569.407	19085.7
569.605	18891.15
569.804	19315.08
570.002	19007.88
570.201	19009.93
570.4	18919.82
570.598	18966.92
570.797	18491.79
570.995	18813.32
571.193	18598.29
571.392	18663.82
571.59	18391.44
571.789	18596.24
571.987	18416.02
572.186	18469.26
572.384	18194.84
572.582	18291.09
572.781	18252.18
572.979	18061.72
573.177	18114.97
573.376	18112.92
573.574	18059.67
573.772	18014.62
573.971	17957.27
574.169	17901.98
574.367	17732
574.565	18051.48
574.763	17740.19
574.962	17543.58
575.16	17594.78
575.358	17576.35
575.556	17281.44
575.754	17951.13
575.952	17473.95
576.151	17488.29
576.349	17273.25
576.547	17050.02
576.745	17252.77
576.943	17119.65
577.141	16857.51
577.339	17146.28
577.537	17060.26
577.735	16961.96
577.933	16880.04
578.131	16939.43
578.329	16849.32
578.527	16701.87
578.725	16798.12
578.923	16751.02
579.121	16830.89
579.319	16578.99
579.516	16578.99
579.714	16554.41
579.912	16609.71
580.11	16257.46
580.308	16398.77
580.506	16306.61
580.704	16187.83
580.901	15825.34
581.099	16388.53
581.297	16228.79
581.495	15866.3
581.692	16101.81
581.89	15954.36
582.088	15925.69
582.285	15886.78
582.483	15962.55
582.681	15749.56
582.878	15503.81
583.076	15813.05
583.274	15669.69
583.471	15643.07
583.669	15772.09
583.866	15722.94
584.064	15585.72
584.262	15253.95
584.459	15491.52
584.657	15268.29
584.854	15434.18
585.052	15333.82
585.249	15294.91
585.447	15196.61
585.644	14907.85
585.841	14989.77
586.039	15348.16
586.236	14899.66
586.434	14881.22
586.631	14965.19
586.828	14942.66
587.026	14989.77
587.223	14799.3
587.42	14696.91
587.618	14610.89
587.815	14578.12
588.012	14637.52
588.21	14303.7
588.407	14375.38
588.604	14453.2
588.801	14463.44
588.999	14307.79
589.196	14461.39
589.393	14272.98
589.59	14492.11
589.787	14377.42
589.984	14277.07
590.182	14207.44
590.379	14092.76
590.576	14029.27
590.773	14070.23
590.97	13818.33
591.167	13910.49
591.364	13816.28
591.561	14047.7
591.758	13713.88
591.955	13881.81
592.152	13996.5
592.349	13836.76
592.546	13787.61
592.743	13875.67
592.94	13443.55
593.137	13451.74
593.334	13672.92
593.531	13539.8
593.727	13689.31
593.924	13318.62
594.121	13330.91
594.318	13375.97
594.515	13173.22
594.712	13302.24
594.908	13296.1
595.105	13177.31
595.302	12890.6
595.499	13150.69
595.696	13017.57
595.892	12841.45
596.089	13122.02
596.286	12939.75
596.482	12696.04
596.679	12890.6
596.876	12937.7
597.072	12763.62
597.269	12886.5
597.466	12718.57
597.662	12667.37
597.859	12589.55
598.055	12456.43
598.252	12661.23
598.448	12394.99
598.645	12157.43
598.841	12462.57
599.038	12360.17
599.234	12433.9
599.431	12202.48
599.627	12081.65
599.824	12452.33
600.02	12108.27
600.217	12351.98
600.413	12268.02
600.609	12100.08
600.806	11997.68
601.002	12055.03
601.198	11753.98
601.395	11921.91
601.591	11973.11
601.787	11913.72
601.984	11799.03
602.18	11760.12
602.376	11852.28
602.572	11713.02
602.769	11586.04
602.965	11764.22
603.161	11850.23
603.357	11583.99
603.553	11430.4
603.75	11637.24
603.946	11545.08
604.142	11379.2
604.338	11452.92
604.534	11332.09
604.73	11266.56
604.926	11385.34
605.122	11473.4
605.318	11117.06
605.514	11162.11
605.71	11084.29
605.906	11090.43
606.102	11033.09
606.298	11043.33
606.494	10910.21
606.69	11160.06
606.886	10955.27
607.082	11006.47
607.278	11031.04
607.474	10564.11
607.67	11039.23
607.866	10711.56
608.062	11063.81
608.257	10801.67
608.453	10793.48
608.649	10770.95
608.845	10449.42
609.041	10828.29
609.236	10566.15
609.432	10574.35
609.628	10412.56
609.824	10668.55
610.019	10392.08
610.215	10433.04
610.411	10504.71
610.606	10363.4
610.802	10463.75
610.998	10328.59
611.193	10441.23
611.389	10332.68
611.584	10172.94
611.78	10101.26
611.976	10353.16
612.171	10400.27
612.367	10265.1
612.562	10170.9
612.758	10015.25
612.953	10031.63
613.149	10377.74
613.344	9964.05
613.539	10193.42
613.735	10160.66
613.93	10048.02
614.126	10027.54
614.321	10295.82
614.517	10125.84
614.712	9912.85
614.907	9998.87
615.103	10031.63
615.298	9937.43
615.493	9855.51
615.688	9716.25
615.884	10007.06
616.079	9796.12
616.274	9939.47
616.47	9855.51
616.665	9830.93
616.86	9628.18
617.055	9593.37
617.25	9624.09
617.445	9806.36
617.641	9400.86
617.836	9548.31
618.031	9572.89
618.226	9552.41
618.421	9634.33
618.616	9411.1
618.811	9435.67
619.006	9685.53
619.201	9290.27
619.396	9501.21
619.591	9202.21
619.786	9351.71
619.981	9275.93
620.176	9073.18
620.371	9136.67
620.566	9183.77
620.761	9267.74
620.956	9161.25
621.151	9054.75
621.346	9138.72
621.541	8778.28
621.735	9177.63
621.93	8731.17
622.125	9005.6
622.32	8804.9
622.515	8622.63
622.709	8577.58
622.904	8516.14
623.099	8553
623.294	8565.29
623.488	8403.5
623.683	8583.72
623.878	8483.37
624.072	8456.75
624.267	8393.26
624.462	8460.84
624.656	8280.62
624.851	8180.27
625.046	8002.1
625.24	7930.42
625.435	8186.41
625.629	7805.49
625.824	8075.82
626.018	8020.53
626.213	7862.83
626.407	7887.41
626.602	7748.15
626.796	7907.89
626.991	7952.95
627.185	7754.29
627.38	7739.96
627.574	7563.83
627.768	7578.17
627.963	7512.63
628.157	7359.03
628.352	7553.59
628.546	7277.12
628.74	7416.38
628.935	7236.16
629.129	7293.5
629.323	7270.97
629.517	7471.67
629.712	7246.4
629.906	7291.45
630.1	7037.5
630.294	7178.81
630.489	7041.6
630.683	6941.25
630.877	6955.58
631.071	6836.8
631.265	6986.3
631.459	6863.43
631.653	6851.14
631.848	6754.88
632.042	6754.88
632.236	6711.88
632.43	6681.16
632.624	6732.36
632.818	6576.71
633.012	6541.89
633.206	6517.32
633.4	6593.09
633.594	6455.88
633.788	6543.94
633.982	6337.1
634.176	6253.13
634.369	6234.7
634.563	6263.37
634.757	6267.47
634.951	6148.68
635.145	6238.8
635.339	6230.6
635.533	6150.73
635.726	6113.87
635.92	5968.46
636.114	6132.3
636.308	6017.61
636.501	5986.9
636.695	5990.99
636.889	5929.55
637.083	5911.12
637.276	5847.63
637.47	5694.04
637.664	5804.63
637.857	5749.33
638.051	5847.63
638.244	5763.67
638.438	5554.77
638.632	5694.04
638.825	5552.73
639.019	5526.1
639.212	5589.59
639.406	5438.04
639.599	5483.09
639.793	5517.91
639.986	5569.11
640.18	5251.67
640.373	5323.35
640.567	5329.5
640.76	5296.73
640.954	5208.67
641.147	5214.81
641.34	5208.67
641.534	5235.29
641.727	5100.12
641.92	5184.09
642.114	5149.28
642.307	5087.84
642.5	4926.05
642.694	4842.08
642.887	5079.65
643.08	4999.77
643.273	4985.44
643.467	4850.27
643.66	4713.06
643.853	4948.58
644.046	4735.59
644.239	4665.96
644.432	4833.89
644.626	4659.81
644.819	4868.7
645.012	4678.24
645.205	4702.82
645.398	4698.72
645.591	4663.91
645.784	4612.71
645.977	4553.32
646.17	4481.64
646.363	4612.71
646.556	4522.6
646.749	4317.8
646.942	4547.17
647.135	4338.28
647.328	4405.86
647.521	4436.58
647.714	4377.19
647.907	4420.2
648.099	4239.98
648.292	4321.9
648.485	4346.47
648.678	4268.65
648.871	4170.35
649.064	4182.63
649.256	4170.35
649.449	4143.72
649.642	4117.1
649.835	3945.07
650.027	4078.19
650.22	4035.18
650.413	4168.3
650.605	3924.59
650.798	3947.12
650.991	4039.28
651.183	3871.34
651.376	3973.74
651.568	4029.04
651.761	3908.21
651.954	3770.99
652.146	3889.78
652.339	3854.96
652.531	3750.51
652.724	3785.33
652.916	3574.39
653.109	3793.52
653.301	3820.14
653.494	3650.16
653.686	3664.5
653.879	3635.83
654.071	3660.4
654.263	3590.77
654.456	3773.04
654.648	3816.05
654.84	3609.2
655.033	3711.6
655.225	3570.29
655.417	3451.51
655.61	3496.57
655.802	3558
655.994	3594.87
656.186	3500.66
656.379	3383.93
656.571	3377.78
656.763	3345.02
656.955	3351.16
657.148	3322.49
657.34	3447.41
657.532	3283.58
657.724	3283.58
657.916	3289.72
658.108	3244.67
658.3	3236.47
658.492	3261.05
658.684	3224.19
658.876	3158.65
659.068	3338.87
659.26	3048.06
659.452	3213.95
659.644	3142.27
659.836	3095.16
660.028	3060.35
660.22	3005.05
660.412	3115.64
660.604	3043.96
660.796	3101.31
660.988	3086.97
661.18	3009.15
661.372	3027.58
661.563	2822.78
661.755	2966.14
661.947	3013.24
662.139	2792.06
662.331	2978.43
662.522	2865.79
662.714	2910.85
662.906	2812.54
663.097	2820.74
663.289	2777.73
663.481	2839.17
663.673	2808.45
663.864	2734.72
664.056	2845.31
664.247	2783.87
664.439	2658.95
664.631	2620.03
664.822	2779.78
665.014	2667.14
665.205	2701.95
665.397	2675.33
665.588	2636.42
665.78	2589.32
665.971	2716.29
666.163	2554.5
666.354	2597.51
666.546	2548.36
666.737	2611.84
666.929	2562.69
667.12	2531.97
667.311	2552.45
667.503	2597.51
667.694	2601.6
667.885	2560.64
668.077	2523.78
668.268	2437.77
668.459	2519.68
668.651	2396.81
668.842	2439.81
669.033	2423.43
669.224	2445.96
669.416	2405
669.607	2308.74
669.798	2439.81
669.989	2427.53
670.18	2237.06
670.371	2413.19
670.563	2368.13
670.754	2411.14
670.945	2290.31
671.136	2355.85
671.327	2339.46
671.518	2306.7
671.709	2298.5
671.9	2292.36
672.091	2300.55
672.282	2329.22
672.473	2165.39
672.664	2214.54
672.855	2161.29
673.046	2249.35
673.237	2278.02
673.428	2218.63
673.619	2183.82
673.809	2101.9
674	2183.82
674.191	2171.53
674.382	2114.19
674.573	2097.8
674.764	2101.9
674.954	2271.88
675.145	2081.42
675.336	2105.99
675.527	2075.27
675.717	2183.82
675.908	1997.45
676.099	2034.32
676.289	2073.23
676.48	2126.47
676.671	1931.92
676.861	2101.9
677.052	2011.79
677.243	2077.32
677.433	2013.84
677.624	1976.97
677.814	1981.07
678.005	2011.79
678.195	1917.58
678.386	1987.21
678.576	1964.68
678.767	1870.48
678.957	1948.3
679.148	1995.4
679.338	1966.73
679.529	1829.52
679.719	1962.64
679.909	1886.86
680.1	1909.39
680.29	1858.19
680.481	1847.95
680.671	1956.49
680.861	1923.73
681.052	1872.53
681.242	1997.45
681.432	1964.68
681.622	1974.92
681.813	1921.68
682.003	1843.85
682.193	1868.43
682.383	1833.61
682.573	1952.4
682.764	1806.99
682.954	1827.47
683.144	1999.5
683.334	1782.42
683.524	1817.23
683.714	1897.1
683.904	1839.76
684.094	1743.5
684.284	1784.46
684.474	1850
684.664	1776.27
684.854	1815.18
685.044	1774.22
685.234	1831.57
685.424	1792.66
685.614	1804.94
685.804	1729.17
685.994	1725.07
686.184	1809.04
686.374	1737.36
686.564	1696.4
686.753	1708.69
686.943	1645.2
687.133	1798.8
687.323	1688.21
687.513	1698.45
687.702	1628.82
687.892	1770.13
688.082	1716.88
688.272	1675.92
688.461	1743.5
688.651	1684.11
688.841	1704.59
689.03	1737.36
689.22	1737.36
689.41	1671.83
689.599	1618.58
689.789	1647.25
689.979	1669.78
690.168	1663.63
690.358	1708.69
690.547	1604.24
690.737	1583.76
690.926	1632.91
691.116	1448.6
691.305	1612.43
691.495	1538.71
691.684	1618.58
691.874	1581.71
692.063	1561.23
692.252	1501.84
692.442	1655.44
692.631	1532.56
692.82	1532.56
693.01	1534.61
693.199	1514.13
693.388	1421.97
693.578	1503.89
693.767	1538.71
693.956	1503.89
694.146	1497.75
694.335	1503.89
694.524	1577.62
694.713	1544.85
694.902	1460.88
695.092	1579.67
695.281	1497.75
695.47	1565.33
695.659	1417.88
695.848	1440.4
696.037	1573.52
696.226	1411.73
696.415	1471.12
696.604	1477.27
696.793	1532.56
696.982	1499.8
697.171	1473.17
697.36	1497.75
697.549	1436.31
697.738	1481.36
697.927	1503.89
698.116	1487.51
698.305	1489.56
698.494	1569.43
698.683	1561.23
698.872	1485.46
699.061	1487.51
699.25	1440.4
699.438	1460.88
699.627	1405.59
699.816	1532.56
700.005	1421.97
700.193	1563.28
700.382	1536.66
700.571	1370.77
700.76	1518.23
700.948	1514.13
701.137	1528.47
701.326	1485.46
701.514	1426.07
701.703	1475.22
701.892	1501.84
702.08	1536.66
702.269	1559.19
702.457	1475.22
702.646	1495.7
702.834	1487.51
703.023	1538.71
703.212	1430.16
703.4	1479.32
703.589	1432.21
703.777	1426.07
703.965	1557.14
704.154	1475.22
704.342	1458.84
704.531	1507.99
704.719	1583.76
704.907	1489.56
705.096	1503.89
705.284	1430.16
705.472	1577.62
705.661	1479.32
705.849	1479.32
706.037	1612.43
706.226	1518.23
706.414	1608.34
706.602	1571.47
706.79	1563.28
706.979	1462.93
707.167	1559.19
707.355	1510.04
707.543	1516.18
707.731	1587.86
707.919	1452.69
708.107	1594
708.296	1454.74
708.484	1464.98
708.672	1594
708.86	1596.05
709.048	1428.12
709.236	1424.02
709.424	1577.62
709.612	1532.56
709.8	1424.02
709.988	1458.84
710.176	1452.69
710.364	1503.89
710.551	1563.28
710.739	1512.08
710.927	1448.6
711.115	1520.28
711.303	1563.28
711.491	1643.15
711.679	1526.42
711.866	1548.95
712.054	1544.85
712.242	1559.19
712.43	1536.66
712.617	1573.52
712.805	1452.69
712.993	1516.18
713.181	1387.16
713.368	1555.09
713.556	1491.6
713.744	1573.52
713.931	1555.09
714.119	1612.43
714.306	1448.6
714.494	1503.89
714.682	1487.51
714.869	1577.62
715.057	1610.39
715.244	1421.97
715.432	1540.76
715.619	1585.81
715.807	1561.23
715.994	1569.43
716.182	1546.9
716.369	1596.05
716.556	1561.23
716.744	1626.77
716.931	1454.74
717.119	1596.05
717.306	1503.89
717.493	1563.28
717.681	1546.9
717.868	1524.37
718.055	1634.96
718.242	1452.69
718.43	1460.88
718.617	1522.32
718.804	1532.56
718.991	1536.66
719.179	1675.92
719.366	1479.32
719.553	1563.28
719.74	1526.42
719.927	1483.41
720.114	1493.65
720.301	1424.02
720.488	1526.42
720.676	1524.37
720.863	1550.99
721.05	1524.37
721.237	1514.13
721.424	1567.38
721.611	1579.67
721.798	1505.94
721.985	1462.93
722.172	1487.51
722.358	1594
722.545	1510.04
722.732	1583.76
722.919	1581.71
723.106	1571.47
723.293	1544.85
723.48	1577.62
723.667	1569.43
723.853	1446.55
724.04	1497.75
724.227	1536.66
724.414	1585.81
724.6	1534.61
724.787	1587.86
724.974	1538.71
725.161	1569.43
725.347	1534.61
725.534	1585.81
725.72	1565.33
725.907	1630.87
726.094	1548.95
726.28	1481.36
726.467	1573.52
726.653	1579.67
726.84	1530.52
727.027	1637.01
727.213	1507.99
727.4	1575.57
727.586	1522.32
727.773	1536.66
727.959	1532.56
728.145	1491.6
728.332	1462.93
728.518	1534.61
728.705	1583.76
728.891	1598.1
729.077	1467.03
729.264	1520.28
729.45	1473.17
729.636	1505.94
729.823	1446.55
730.009	1473.17
730.195	1577.62
730.382	1581.71
730.568	1440.4
730.754	1553.04
730.94	1614.48
731.126	1594
731.313	1491.6
731.499	1532.56
731.685	1557.14
731.871	1467.03
732.057	1553.04
732.243	1540.76
732.429	1571.47
732.615	1571.47
732.801	1532.56
732.987	1458.84
733.173	1512.08
733.359	1634.96
733.545	1579.67
733.731	1456.79
733.917	1565.33
734.103	1536.66
734.289	1559.19
734.475	1501.84
734.661	1434.26
734.847	1499.8
735.033	1493.65
735.219	1520.28
735.404	1512.08
735.59	1499.8
735.776	1532.56
735.962	1522.32
736.148	1548.95
736.333	1505.94
736.519	1452.69
736.705	1561.23
736.89	1540.76
737.076	1442.45
737.262	1397.4
737.447	1401.49
737.633	1462.93
737.819	1546.9
738.004	1477.27
738.19	1450.64
738.375	1530.52
738.561	1483.41
738.747	1454.74
738.932	1415.83
739.118	1489.56
739.303	1462.93
739.489	1389.21
739.674	1381.01
739.859	1446.55
740.045	1505.94
740.23	1532.56
740.416	1411.73
740.601	1454.74
740.786	1401.49
740.972	1368.73
741.157	1393.3
741.342	1325.72
741.528	1362.58
741.713	1395.35
741.898	1364.63
742.084	1456.79
742.269	1397.4
742.454	1393.3
742.639	1503.89
742.824	1331.86
743.01	1344.15
743.195	1376.92
743.38	1288.85
743.565	1374.87
743.75	1290.9
743.935	1362.58
744.12	1301.14
744.305	1268.38
744.49	1290.9
744.675	1356.44
744.86	1290.9
745.045	1346.2
745.23	1368.73
745.415	1342.1
745.6	1245.85
745.785	1282.71
745.97	1235.61
746.155	1233.56
746.34	1305.24
746.525	1284.76
746.71	1163.93
746.895	1262.23
747.079	1217.18
747.264	1225.37
747.449	1243.8
747.634	1256.09
747.819	1235.61
748.003	1176.22
748.188	1151.64
748.373	1145.5
748.557	1237.66
748.742	1190.55
748.927	1176.22
749.111	1127.07
749.296	1092.25
749.481	1229.46
749.665	1157.78
749.85	1079.96
750.034	1135.26
750.219	1114.78
750.404	1135.26
750.588	1082.01
750.773	1196.7
750.957	1112.73
751.141	1125.02
751.326	1086.11
751.51	987.8
751.695	1077.91
751.879	1026.71
752.064	1061.53
752.248	1032.86
752.432	1063.58
752.617	1071.77
752.801	1112.73
752.985	1063.58
753.17	1030.81
753.354	1022.62
753.538	965.28
753.722	955.04
753.907	1008.28
754.091	967.32
754.275	932.51
754.459	955.04
754.643	950.94
754.828	975.52
755.012	930.46
755.196	955.04
755.38	934.56
755.564	864.93
755.748	897.69
755.932	916.12
756.116	981.66
756.3	889.5
756.484	940.7
756.668	926.36
756.852	1006.24
757.036	920.22
757.22	912.03
757.404	899.74
757.588	883.36
757.772	850.59
757.956	844.45
758.14	971.42
758.323	815.77
758.507	823.97
758.691	770.72
758.875	864.93
759.059	830.11
759.242	877.21
759.426	877.21
759.61	803.49
759.794	889.5
759.977	756.38
760.161	791.2
760.345	815.77
760.528	776.86
760.712	746.14
760.895	770.72
761.079	772.77
761.263	770.72
761.446	754.34
761.63	744.1
761.813	690.85
761.997	729.76
762.18	682.66
762.364	713.38
762.547	713.38
762.731	729.76
762.914	764.57
763.098	774.81
763.281	754.34
763.464	699.04
763.648	670.37
763.831	703.14
764.015	688.8
764.198	715.42
764.381	717.47
764.564	711.33
764.748	703.14
764.931	715.42
765.114	696.99
765.297	744.1
765.481	692.9
765.664	733.86
765.847	727.71
766.03	678.56
766.213	705.18
766.397	688.8
766.58	610.98
766.763	711.33
766.946	676.51
767.129	694.94
767.312	631.46
767.495	733.86
767.678	651.94
767.861	660.13
768.044	653.98
768.227	672.42
768.41	596.64
768.593	600.74
768.776	586.4
768.959	668.32
769.142	631.46
769.324	643.74
769.507	686.75
769.69	651.94
769.873	662.18
770.056	678.56
770.239	637.6
770.421	737.95
770.604	613.03
770.787	604.83
770.97	570.02
771.152	631.46
771.335	615.07
771.518	572.07
771.7	643.74
771.883	660.13
772.066	610.98
772.248	635.55
772.431	594.59
772.613	613.03
772.796	557.73
772.978	524.96
773.161	610.98
773.343	555.68
773.526	535.2
773.708	565.92
773.891	520.87
774.073	547.49
774.256	494.24
774.438	699.04
774.621	537.25
774.803	563.87
774.985	559.78
775.168	559.78
775.35	529.06
775.532	473.76
775.715	541.35
775.897	504.48
776.079	475.81
776.261	524.96
776.444	496.29
776.626	451.24
776.808	492.2
776.99	467.62
777.173	481.96
777.355	447.14
777.537	473.76
777.719	547.49
777.901	467.62
778.083	451.24
778.265	512.67
778.447	514.72
778.629	430.76
778.811	463.52
778.993	498.34
779.175	455.33
779.357	504.48
779.539	397.99
779.721	381.6
779.903	477.86
780.085	379.56
780.267	477.86
780.449	436.9
780.631	424.61
780.812	357.03
780.994	436.9
781.176	414.37
781.358	418.47
781.54	387.75
781.721	414.37
781.903	371.36
782.085	371.36
782.267	332.45
782.448	340.65
782.63	338.6
782.812	371.36
782.993	354.98
783.175	350.89
783.357	402.08
783.538	328.36
783.72	467.62
783.901	326.31
784.083	412.32
784.264	379.56
784.446	377.51
784.627	428.71
784.809	303.78
784.99	377.51
785.172	367.27
785.353	305.83
785.535	262.82
785.716	402.08
785.897	395.94
786.079	451.24
786.26	309.93
786.441	357.03
786.623	264.87
786.804	305.83
786.985	309.93
787.167	314.02
787.348	326.31
787.529	303.78
787.71	285.35
787.891	359.08
788.073	271.01
788.254	295.59
788.435	391.84
788.616	352.93
788.797	283.3
788.978	320.17
789.159	193.19
789.34	238.25
789.522	238.25
789.703	375.46
789.884	291.49
790.065	240.29
790.246	318.12
790.427	326.31
790.607	252.58
790.788	277.16
790.969	248.49
791.15	273.06
791.331	314.02
791.512	279.21
791.693	234.15
791.874	256.68
792.054	225.96
792.235	168.62
792.416	207.53
792.597	244.39
792.778	236.2
792.958	266.92
793.139	180.9
793.32	332.45
793.5	205.48
793.681	316.07
793.862	246.44
794.042	185
794.223	209.58
794.404	244.39
794.584	205.48
794.765	221.86
794.945	205.48
795.126	256.68
795.306	283.3
795.487	293.54
795.667	193.19
795.848	262.82
796.028	258.73
796.209	209.58
796.389	176.81
796.57	248.49
796.75	158.38
796.93	301.73
797.111	182.95
797.291	199.34
797.471	232.1
797.652	197.29
797.832	187.05
798.012	170.66
798.192	103.08
798.373	96.94
798.553	164.52
798.733	148.14
798.913	193.19
799.093	189.1
799.274	217.77
799.454	135.85
799.634	221.86
799.814	205.48
799.994	111.27
800.174	246.44
800.354	256.68
800.534	176.81
800.714	234.15
800.894	135.85
801.074	225.96
801.254	232.1
801.434	164.52
801.614	154.28
801.794	189.1
801.974	598.69
802.154	156.33
802.334	244.39
802.514	223.91
802.693	205.48
802.873	133.8
803.053	154.28
803.233	156.33
803.413	189.1
803.592	172.71
803.772	94.89
803.952	119.46
804.131	129.7
804.311	139.94
804.491	234.15
804.67	209.58
804.85	133.8
805.03	131.75
805.209	174.76
805.389	162.47
805.568	203.43
805.748	135.85
805.928	166.57
806.107	113.32
806.287	211.62
806.466	187.05
806.646	189.1
806.825	154.28
807.004	141.99
807.184	80.55
807.363	135.85
807.543	180.9
807.722	185
807.901	144.04
808.081	148.14
808.26	137.9
808.439	121.51
808.619	156.33
808.798	221.86
808.977	154.28
809.156	230.06
809.336	193.19
809.515	213.67
809.694	135.85
809.873	158.38
810.052	135.85
810.231	133.8
810.411	168.62
810.59	90.79
810.769	55.98
810.948	111.27
811.127	55.98
811.306	103.08
811.485	78.51
811.664	144.04
811.843	111.27
812.022	121.51
812.201	72.36
812.38	107.18
812.559	193.19
812.737	121.51
812.916	103.08
813.095	119.46
813.274	162.47
813.453	94.89
813.632	115.37
813.811	168.62
813.989	94.89
814.168	131.75
814.347	172.71
814.526	141.99
814.704	213.67
814.883	113.32
815.062	86.7
815.24	111.27
815.419	90.79
815.598	197.29
815.776	86.7
815.955	152.23
816.133	74.41
816.312	58.03
816.49	88.75
816.669	129.7
816.847	123.56
817.026	37.55
817.204	90.79
817.383	78.51
817.561	156.33
817.74	125.61
817.918	92.84
818.097	125.61
818.275	58.03
818.453	80.55
818.632	70.31
818.81	187.05
818.988	115.37
819.167	49.83
819.345	107.18
819.523	10.92
819.701	152.23
819.879	96.94
820.058	125.61
820.236	125.61
820.414	96.94
820.592	111.27
820.77	58.03
820.948	123.56
821.127	-19.8
821.305	58.03
821.483	68.27
821.661	94.89
821.839	66.22
822.017	58.03
822.195	94.89
822.373	178.86
822.551	109.22
822.729	152.23
822.907	84.65
823.085	170.66
823.262	55.98
823.44	80.55
823.618	74.41
823.796	70.31
823.974	37.55
824.152	113.32
824.329	90.79
824.507	88.75
824.685	72.36
824.863	41.64
825.04	64.17
825.218	94.89
825.396	90.79
825.574	96.94
825.751	107.18
825.929	78.51
826.107	12.97
826.284	64.17
826.462	25.26
826.639	15.02
826.817	70.31
826.994	70.31
827.172	105.13
827.349	107.18
827.527	70.31
827.704	62.12
827.882	107.18
828.059	131.75
828.237	72.36
828.414	90.79
828.591	23.21
828.769	64.17
828.946	29.35
829.124	127.66
829.301	115.37
829.478	135.85
829.655	131.75
829.833	115.37
830.01	45.74
830.187	39.59
830.364	82.6
830.542	72.36
830.719	113.32
830.896	29.35
831.073	6.83
831.25	98.99
831.427	25.26
831.604	86.7
831.782	-66.9
831.959	105.13
832.136	47.79
832.313	113.32
832.49	109.22
832.667	66.22
832.844	58.03
833.021	103.08
833.198	84.65
833.374	74.41
833.551	21.16
833.728	111.27
833.905	25.26
834.082	37.55
834.259	41.64
834.436	33.45
834.612	-15.7
834.789	21.16
834.966	72.36
835.143	92.84
835.319	41.64
835.496	78.51
835.673	111.27
835.85	103.08
836.026	111.27
836.203	86.7
836.38	49.83
836.556	66.22
836.733	103.08
836.909	64.17
837.086	37.55
837.262	27.31
837.439	-7.51
837.616	27.31
837.792	0.68
837.968	-15.7
838.145	37.55
838.321	88.75
838.498	70.31
838.674	25.26
838.851	78.51
839.027	92.84
839.203	41.64
839.38	31.4
839.556	109.22
839.732	31.4
839.909	-30.04
840.085	66.22
840.261	45.74
840.437	-3.41
840.614	21.16
840.79	45.74
840.966	94.89
841.142	19.11
841.318	109.22
841.494	21.16
841.671	62.12
841.847	-25.94
842.023	21.16
842.199	94.89
842.375	94.89
842.551	37.55
842.727	60.07
842.903	94.89
843.079	-50.52
843.255	64.17
843.431	0.68
843.607	12.97
843.783	-46.42
843.959	29.35
844.134	76.46
844.31	125.61
844.486	55.98
844.662	-3.41
844.838	35.5
845.013	41.64
845.189	80.55
845.365	17.07
845.541	41.64
845.716	-60.76
845.892	88.75
846.068	41.64
846.244	23.21
846.419	53.93
846.595	-32.08
846.77	66.22
846.946	103.08
847.122	31.4
847.297	-5.46
847.473	37.55
847.648	-1.37
847.824	31.4
847.999	-11.61
848.175	101.03
848.35	78.51
848.526	31.4
848.701	8.87
848.876	68.27
849.052	45.74
849.227	27.31
849.403	8.87
849.578	49.83
849.753	45.74
849.929	-5.46
850.104	27.31
850.279	62.12
850.454	53.93
850.63	8.87
850.805	111.27
850.98	76.46
851.155	-13.65
851.33	78.51
851.505	113.32
851.681	47.79
851.856	88.75
852.031	94.89
852.206	-30.04
852.381	15.02
852.556	86.7
852.731	66.22
852.906	86.7
853.081	39.59
853.256	111.27
853.431	31.4
853.606	-13.65
853.781	0.68
853.956	64.17
854.131	4.78
854.305	29.35
854.48	4.78
854.655	2.73
854.83	-44.37
855.005	47.79
855.18	-1.37
855.354	17.07
855.529	121.51
855.704	-27.99
855.879	-15.7
856.053	-3.41
856.228	82.6
856.403	-25.94
856.577	-42.32
856.752	-34.13
856.926	21.16
857.101	29.35
857.276	-5.46
857.45	49.83
857.625	37.55
857.799	-25.94
857.974	60.07
858.148	35.5
858.323	4.78
858.497	82.6
858.672	74.41
858.846	8.87
859.02	43.69
859.195	-23.89
859.369	27.31
859.543	-32.08
859.718	82.6
859.892	12.97
860.066	66.22
860.241	-3.41
860.415	72.36
860.589	-15.7
860.763	15.02
860.938	53.93
861.112	-17.75
861.286	10.92
861.46	49.83
861.634	41.64
861.808	70.31
861.982	33.45
862.157	47.79
862.331	15.02
862.505	-36.18
862.679	-11.61
862.853	4.78
863.027	101.03
863.201	98.99
863.375	-3.41
863.549	-9.56
863.722	23.21
863.896	51.88
864.07	-38.23
864.244	-17.75
864.418	12.97
864.592	90.79
864.766	-38.23
864.939	76.46
865.113	23.21
865.287	-40.28
865.461	-25.94
865.634	-21.85
865.808	31.4
865.982	41.64
866.156	-13.65
866.329	2.73
866.503	-1.37
866.676	10.92
866.85	-7.51
867.024	21.16
867.197	82.6
867.371	45.74
867.544	72.36
867.718	10.92
867.891	45.74
868.065	-7.51
868.238	43.69
868.412	86.7
868.585	-5.46
868.759	-1.37
868.932	6.83
869.105	12.97
869.279	33.45
869.452	21.16
869.625	23.21
869.799	37.55
869.972	39.59
870.145	-9.56
870.319	66.22
870.492	-25.94
870.665	-15.7
870.838	47.79
871.011	76.46
871.185	27.31
871.358	4.78
871.531	-21.85
871.704	-32.08
871.877	29.35
872.05	27.31
872.223	51.88
872.396	45.74
872.569	103.08
872.742	-21.85
872.915	12.97
873.088	8.87
873.261	49.83
873.434	12.97
873.607	47.79
873.78	53.93
873.953	19.11
874.126	8.87
874.299	39.59
874.471	82.6
874.644	15.02
874.817	12.97
874.99	17.07
875.163	0.68
875.335	15.02
875.508	-21.85
875.681	-36.18
875.853	-17.75
876.026	6.83
876.199	-36.18
876.371	0.68
876.544	60.07
876.717	0.68
876.889	-25.94
877.062	21.16
877.234	-11.61
877.407	-11.61
877.579	-75.09
877.752	-7.51
877.924	82.6
878.097	45.74
878.269	-52.56
878.442	33.45
878.614	-34.13
878.786	25.26
878.959	17.07
879.131	62.12
879.303	35.5
879.476	29.35
879.648	27.31
879.82	21.16
879.993	-7.51
880.165	8.87
880.337	-30.04
880.509	23.21
880.681	-3.41
880.854	41.64
881.026	-23.89
881.198	53.93
881.37	6.83
881.542	39.59
881.714	23.21
881.886	-73.04
882.058	10.92
882.23	76.46
882.402	0.68
882.574	-1.37
882.746	-11.61
882.918	39.59
883.09	78.51
883.262	0.68
883.434	-19.8
883.606	-44.37
883.778	-5.46
883.95	23.21
884.122	-25.94
884.293	62.12
884.465	-7.51
884.637	88.75
884.809	49.83
884.98	82.6
885.152	31.4
885.324	80.55
885.496	-44.37
885.667	37.55
885.839	10.92
886.011	72.36
886.182	8.87
886.354	6.83
886.525	-17.75
886.697	43.69
886.869	-42.32
887.04	96.94
887.212	-38.23
887.383	72.36
887.555	-56.66
887.726	43.69
887.897	21.16
888.069	64.17
888.24	58.03
888.412	0.68
888.583	-17.75
888.754	33.45
888.926	-64.85
889.097	-5.46
889.268	4.78
889.44	21.16
889.611	37.55
889.782	-9.56
889.953	58.03
890.125	111.27
890.296	-23.89
890.467	-25.94
890.638	-7.51
890.809	-64.85
890.98	10.92
891.151	23.21
891.323	86.7
891.494	8.87
891.665	12.97
891.836	12.97
892.007	23.21
892.178	12.97
892.349	29.35
892.52	43.69
892.691	23.21
892.862	78.51
893.032	-23.89
893.203	-9.56
893.374	-3.41
893.545	-1.37
893.716	23.21
893.887	31.4
894.057	-52.56
894.228	86.7
894.399	19.11
894.57	-44.37
894.74	-48.47
894.911	-3.41
895.082	10.92
895.253	4.78
895.423	-44.37
895.594	-7.51
895.764	-17.75
895.935	-9.56
896.106	-36.18
896.276	39.59
896.447	82.6
896.617	6.83
896.788	-40.28
896.958	15.02
897.129	-9.56
897.299	4.78
897.47	6.83
897.64	4.78
897.81	66.22
897.981	55.98
898.151	-27.99
898.322	37.55
898.492	-7.51
898.662	2.73
898.832	-19.8
899.003	-38.23
899.173	53.93
899.343	-23.89
899.513	17.07
