Data from USB4F104151__100__12-02-41-443.txt Node

Date: Fri Mar 14 12:02:41 EDT 2025
User: louis
Spectrometer: USB4F10415
Trigger mode: 4
Integration Time (sec): 2.000000E-2
Scans to average: 1
Electric dark correction enabled: true
Nonlinearity correction enabled: false
Boxcar width: 0
XAxis mode: Wavelengths
Number of Pixels in Spectrum: 3648
>>>>>Begin Spectral Data<<<<<
178.204	-93.87
178.424	-93.87
178.644	-93.87
178.864	-83.63
179.084	-81.58
179.304	31.06
179.524	-40.62
179.744	-7.85
179.964	0.34
180.184	41.3
180.404	-20.14
180.624	100.69
180.844	43.35
181.064	-100.01
181.283	-20.14
181.503	-18.09
181.723	-9.9
181.943	-9.9
182.163	57.68
182.383	-11.95
182.602	49.49
182.822	61.78
183.042	43.35
183.262	31.06
183.482	8.53
183.701	65.88
183.921	-40.62
184.141	-7.85
184.361	4.44
184.58	-50.86
184.8	37.2
185.02	4.44
185.239	104.79
185.459	-7.85
185.679	-1.71
185.898	57.68
186.118	110.93
186.338	37.2
186.557	45.4
186.777	55.64
186.997	33.11
187.216	22.87
187.436	53.59
187.655	39.25
187.875	4.44
188.095	-75.43
188.314	69.97
188.534	55.64
188.753	72.02
188.973	4.44
189.192	69.97
189.412	47.44
189.631	104.79
189.851	26.96
190.07	39.25
190.29	61.78
190.509	0.34
190.729	35.16
190.948	-9.9
191.168	125.27
191.387	59.73
191.607	0.34
191.826	45.4
192.045	-75.43
192.265	24.92
192.484	78.16
192.704	4.44
192.923	41.3
193.142	129.36
193.362	61.78
193.581	49.49
193.8	76.12
194.02	49.49
194.239	35.16
194.458	59.73
194.678	16.73
194.897	-11.95
195.116	76.12
195.335	104.79
195.555	74.07
195.774	26.96
195.993	96.6
196.212	18.77
196.432	96.6
196.651	29.01
196.87	-7.85
197.089	92.5
197.308	51.54
197.528	59.73
197.747	14.68
197.966	29.01
198.185	47.44
198.404	55.64
198.623	112.98
198.842	53.59
199.062	80.21
199.281	8.53
199.5	-20.14
199.719	37.2
199.938	61.78
200.157	82.26
200.376	39.25
200.595	102.74
200.814	-9.9
201.033	33.11
201.252	12.63
201.471	26.96
201.69	125.27
201.909	65.88
202.128	-1.71
202.347	18.77
202.566	-1.71
202.785	53.59
203.004	53.59
203.223	45.4
203.442	45.4
203.661	-7.85
203.879	74.07
204.098	110.93
204.317	-20.14
204.536	16.73
204.755	43.35
204.974	35.16
205.193	84.31
205.411	100.69
205.63	-24.23
205.849	72.02
206.068	-7.85
206.287	35.16
206.505	-16.04
206.724	-11.95
206.943	-18.09
207.162	86.36
207.381	55.64
207.599	-11.95
207.818	35.16
208.037	-13.99
208.255	72.02
208.474	96.6
208.693	51.54
208.911	10.58
209.13	61.78
209.349	88.4
209.567	18.77
209.786	61.78
210.005	-1.71
210.223	22.87
210.442	33.11
210.661	-18.09
210.879	14.68
211.098	45.4
211.316	78.16
211.535	90.45
211.753	43.35
211.972	-24.23
212.191	6.49
212.409	24.92
212.628	-13.99
212.846	16.73
213.065	41.3
213.283	49.49
213.502	35.16
213.72	-28.33
213.938	65.88
214.157	59.73
214.375	57.68
214.594	67.92
214.812	57.68
215.031	33.11
215.249	41.3
215.467	80.21
215.686	37.2
215.904	84.31
216.122	57.68
216.341	61.78
216.559	8.53
216.778	22.87
216.996	153.94
217.214	55.64
217.432	-87.72
217.651	41.3
217.869	-7.85
218.087	72.02
218.306	49.49
218.524	57.68
218.742	96.6
218.96	82.26
219.179	100.69
219.397	0.34
219.615	49.49
219.833	57.68
220.051	78.16
220.27	139.6
220.488	57.68
220.706	45.4
220.924	82.26
221.142	67.92
221.36	39.25
221.578	-9.9
221.796	51.54
222.015	35.16
222.233	-132.78
222.451	26.96
222.669	0.34
222.887	59.73
223.105	8.53
223.323	22.87
223.541	31.06
223.759	119.12
223.977	39.25
224.195	112.98
224.413	45.4
224.631	72.02
224.849	26.96
225.067	29.01
225.285	65.88
225.503	67.92
225.721	57.68
225.939	72.02
226.157	33.11
226.375	100.69
226.592	-24.23
226.81	94.55
227.028	67.92
227.246	20.82
227.464	10.58
227.682	80.21
227.9	61.78
228.117	31.06
228.335	35.16
228.553	-13.99
228.771	168.27
228.989	-40.62
229.206	43.35
229.424	55.64
229.642	-20.14
229.86	18.77
230.077	-5.8
230.295	12.63
230.513	55.64
230.731	33.11
230.948	67.92
231.166	98.64
231.384	6.49
231.601	-13.99
231.819	127.32
232.037	45.4
232.254	10.58
232.472	41.3
232.689	-44.71
232.907	57.68
233.125	41.3
233.342	41.3
233.56	-3.75
233.777	125.27
233.995	39.25
234.213	53.59
234.43	63.83
234.648	6.49
234.865	45.4
235.083	102.74
235.3	-11.95
235.518	102.74
235.735	108.88
235.953	110.93
236.17	-3.75
236.388	6.49
236.605	-24.23
236.822	80.21
237.04	-42.67
237.257	61.78
237.475	-32.43
237.692	47.44
237.909	90.45
238.127	49.49
238.344	63.83
238.562	84.31
238.779	0.34
238.996	76.12
239.214	45.4
239.431	39.25
239.648	59.73
239.865	74.07
240.083	90.45
240.3	4.44
240.517	76.12
240.735	90.45
240.952	-13.99
241.169	59.73
241.386	16.73
241.603	-3.75
241.821	4.44
242.038	63.83
242.255	16.73
242.472	39.25
242.689	88.4
242.907	86.36
243.124	-46.76
243.341	49.49
243.558	51.54
243.775	39.25
243.992	16.73
244.209	22.87
244.426	76.12
244.643	100.69
244.86	22.87
245.078	37.2
245.295	74.07
245.512	33.11
245.729	12.63
245.946	24.92
246.163	92.5
246.38	39.25
246.597	20.82
246.814	26.96
247.031	110.93
247.248	-48.81
247.464	45.4
247.681	41.3
247.898	119.12
248.115	96.6
248.332	22.87
248.549	108.88
248.766	53.59
248.983	90.45
249.2	82.26
249.417	31.06
249.633	0.34
249.85	-18.09
250.067	67.92
250.284	108.88
250.501	35.16
250.717	49.49
250.934	67.92
251.151	65.88
251.368	84.31
251.585	67.92
251.801	16.73
252.018	59.73
252.235	-16.04
252.451	29.01
252.668	20.82
252.885	43.35
253.102	45.4
253.318	61.78
253.535	51.54
253.752	61.78
253.968	41.3
254.185	4.44
254.401	96.6
254.618	4.44
254.835	47.44
255.051	59.73
255.268	57.68
255.484	35.16
255.701	45.4
255.917	57.68
256.134	65.88
256.351	135.51
256.567	-13.99
256.784	45.4
257	-16.04
257.217	53.59
257.433	-11.95
257.65	59.73
257.866	31.06
258.082	61.78
258.299	37.2
258.515	51.54
258.732	84.31
258.948	-30.38
259.165	43.35
259.381	-38.57
259.597	53.59
259.814	26.96
260.03	-7.85
260.246	-9.9
260.463	41.3
260.679	31.06
260.895	67.92
261.112	-28.33
261.328	-16.04
261.544	39.25
261.761	96.6
261.977	29.01
262.193	12.63
262.409	-18.09
262.626	10.58
262.842	82.26
263.058	-38.57
263.274	53.59
263.49	18.77
263.707	57.68
263.923	43.35
264.139	-24.23
264.355	33.11
264.571	2.39
264.787	31.06
265.004	39.25
265.22	29.01
265.436	-32.43
265.652	90.45
265.868	39.25
266.084	63.83
266.3	-30.38
266.516	-16.04
266.732	6.49
266.948	53.59
267.164	67.92
267.38	82.26
267.596	55.64
267.812	63.83
268.028	-44.71
268.244	74.07
268.46	4.44
268.676	117.08
268.892	14.68
269.108	84.31
269.324	37.2
269.54	-3.75
269.756	82.26
269.972	-18.09
270.188	31.06
270.403	-16.04
270.619	84.31
270.835	90.45
271.051	18.77
271.267	12.63
271.483	45.4
271.698	-1.71
271.914	10.58
272.13	110.93
272.346	31.06
272.562	12.63
272.777	80.21
272.993	51.54
273.209	86.36
273.425	10.58
273.64	2.39
273.856	29.01
274.072	69.97
274.287	98.64
274.503	29.01
274.719	63.83
274.934	18.77
275.15	-61.1
275.366	84.31
275.581	6.49
275.797	63.83
276.012	20.82
276.228	10.58
276.444	76.12
276.659	47.44
276.875	2.39
277.09	76.12
277.306	51.54
277.521	92.5
277.737	8.53
277.952	22.87
278.168	26.96
278.383	-3.75
278.599	53.59
278.814	94.55
279.03	33.11
279.245	72.02
279.461	57.68
279.676	76.12
279.892	-11.95
280.107	76.12
280.322	12.63
280.538	14.68
280.753	88.4
280.969	14.68
281.184	-42.67
281.399	-26.28
281.615	67.92
281.83	-9.9
282.045	47.44
282.26	67.92
282.476	31.06
282.691	39.25
282.906	76.12
283.122	94.55
283.337	59.73
283.552	92.5
283.767	65.88
283.983	55.64
284.198	41.3
284.413	47.44
284.628	67.92
284.843	37.2
285.058	153.94
285.274	82.26
285.489	-16.04
285.704	49.49
285.919	-1.71
286.134	61.78
286.349	-40.62
286.564	57.68
286.779	100.69
286.995	0.34
287.21	10.58
287.425	-7.85
287.64	14.68
287.855	102.74
288.07	47.44
288.285	80.21
288.5	39.25
288.715	94.55
288.93	86.36
289.145	-16.04
289.36	0.34
289.575	69.97
289.79	47.44
290.004	14.68
290.219	35.16
290.434	-3.75
290.649	-30.38
290.864	26.96
291.079	31.06
291.294	86.36
291.509	78.16
291.724	39.25
291.938	31.06
292.153	92.5
292.368	-22.19
292.583	106.84
292.798	4.44
293.012	88.4
293.227	35.16
293.442	37.2
293.657	-13.99
293.871	74.07
294.086	-11.95
294.301	115.03
294.516	41.3
294.73	20.82
294.945	10.58
295.16	31.06
295.374	24.92
295.589	41.3
295.804	59.73
296.018	76.12
296.233	49.49
296.447	78.16
296.662	45.4
296.877	45.4
297.091	108.88
297.306	108.88
297.52	61.78
297.735	-18.09
297.949	55.64
298.164	74.07
298.378	35.16
298.593	6.49
298.807	-97.96
299.022	61.78
299.236	35.16
299.451	92.5
299.665	57.68
299.88	80.21
300.094	-24.23
300.309	90.45
300.523	8.53
300.737	45.4
300.952	57.68
301.166	145.75
301.381	-3.75
301.595	76.12
301.809	43.35
302.024	4.44
302.238	0.34
302.452	76.12
302.667	86.36
302.881	-26.28
303.095	31.06
303.309	47.44
303.524	-24.23
303.738	55.64
303.952	45.4
304.166	98.64
304.381	16.73
304.595	37.2
304.809	37.2
305.023	-3.75
305.237	-16.04
305.452	72.02
305.666	37.2
305.88	24.92
306.094	98.64
306.308	82.26
306.522	37.2
306.736	63.83
306.95	59.73
307.164	47.44
307.379	35.16
307.593	115.03
307.807	63.83
308.021	12.63
308.235	121.17
308.449	8.53
308.663	125.27
308.877	88.4
309.091	6.49
309.305	-18.09
309.519	33.11
309.733	57.68
309.947	55.64
310.161	96.6
310.374	10.58
310.588	110.93
310.802	43.35
311.016	112.98
311.23	96.6
311.444	10.58
311.658	90.45
311.872	63.83
312.085	14.68
312.299	63.83
312.513	100.69
312.727	78.16
312.941	31.06
313.154	149.84
313.368	74.07
313.582	22.87
313.796	74.07
314.009	53.59
314.223	86.36
314.437	39.25
314.651	33.11
314.864	8.53
315.078	43.35
315.292	33.11
315.505	-30.38
315.719	-1.71
315.933	-65.19
316.146	74.07
316.36	16.73
316.573	35.16
316.787	18.77
317.001	29.01
317.214	35.16
317.428	100.69
317.641	41.3
317.855	-18.09
318.068	94.55
318.282	69.97
318.495	-7.85
318.709	78.16
318.922	8.53
319.136	90.45
319.349	45.4
319.563	39.25
319.776	8.53
319.99	12.63
320.203	90.45
320.417	39.25
320.63	90.45
320.843	24.92
321.057	69.97
321.27	47.44
321.483	55.64
321.697	92.5
321.91	65.88
322.124	35.16
322.337	96.6
322.55	20.82
322.763	26.96
322.977	149.84
323.19	14.68
323.403	-1.71
323.617	59.73
323.83	49.49
324.043	43.35
324.256	29.01
324.469	63.83
324.683	115.03
324.896	41.3
325.109	49.49
325.322	47.44
325.535	129.36
325.748	31.06
325.962	63.83
326.175	22.87
326.388	6.49
326.601	43.35
326.814	39.25
327.027	47.44
327.24	98.64
327.453	-24.23
327.666	67.92
327.879	0.34
328.092	61.78
328.305	76.12
328.518	67.92
328.731	51.54
328.944	35.16
329.157	96.6
329.37	57.68
329.583	82.26
329.796	80.21
330.009	-3.75
330.222	127.32
330.435	92.5
330.648	31.06
330.861	67.92
331.073	72.02
331.286	88.4
331.499	78.16
331.712	31.06
331.925	90.45
332.138	63.83
332.35	82.26
332.563	57.68
332.776	47.44
332.989	67.92
333.202	59.73
333.414	51.54
333.627	47.44
333.84	45.4
334.053	92.5
334.265	45.4
334.478	41.3
334.691	51.54
334.903	35.16
335.116	53.59
335.329	59.73
335.541	86.36
335.754	86.36
335.966	-9.9
336.179	117.08
336.392	80.21
336.604	141.65
336.817	43.35
337.029	31.06
337.242	35.16
337.454	80.21
337.667	8.53
337.88	69.97
338.092	49.49
338.305	98.64
338.517	22.87
338.729	26.96
338.942	47.44
339.154	-26.28
339.367	-1.71
339.579	74.07
339.792	-1.71
340.004	123.22
340.217	-36.52
340.429	57.68
340.641	-18.09
340.854	67.92
341.066	51.54
341.278	55.64
341.491	84.31
341.703	88.4
341.915	4.44
342.128	108.88
342.34	39.25
342.552	4.44
342.764	26.96
342.977	74.07
343.189	88.4
343.401	8.53
343.613	59.73
343.826	55.64
344.038	61.78
344.25	-7.85
344.462	35.16
344.674	-16.04
344.886	67.92
345.099	108.88
345.311	100.69
345.523	51.54
345.735	26.96
345.947	74.07
346.159	129.36
346.371	18.77
346.583	106.84
346.795	117.08
347.007	61.78
347.219	121.17
347.431	-38.57
347.643	55.64
347.855	18.77
348.067	51.54
348.279	90.45
348.491	65.88
348.703	35.16
348.915	53.59
349.127	49.49
349.339	14.68
349.551	18.77
349.763	31.06
349.975	31.06
350.187	69.97
350.399	43.35
350.61	98.64
350.822	49.49
351.034	4.44
351.246	76.12
351.458	-5.8
351.669	45.4
351.881	69.97
352.093	41.3
352.305	-11.95
352.517	69.97
352.728	10.58
352.94	-11.95
353.152	35.16
353.363	0.34
353.575	43.35
353.787	59.73
353.999	78.16
354.21	90.45
354.422	57.68
354.633	72.02
354.845	-7.85
355.057	63.83
355.268	145.75
355.48	33.11
355.692	55.64
355.903	26.96
356.115	2.39
356.326	-5.8
356.538	127.32
356.749	112.98
356.961	53.59
357.172	6.49
357.384	53.59
357.595	29.01
357.807	12.63
358.018	-18.09
358.23	29.01
358.441	104.79
358.653	57.68
358.864	72.02
359.075	69.97
359.287	115.03
359.498	67.92
359.709	45.4
359.921	84.31
360.132	112.98
360.344	55.64
360.555	18.77
360.766	80.21
360.977	119.12
361.189	72.02
361.4	86.36
361.611	22.87
361.823	117.08
362.034	57.68
362.245	18.77
362.456	57.68
362.667	26.96
362.879	53.59
363.09	74.07
363.301	92.5
363.512	59.73
363.723	41.3
363.935	29.01
364.146	-16.04
364.357	45.4
364.568	96.6
364.779	72.02
364.99	98.64
365.201	-13.99
365.412	100.69
365.623	33.11
365.834	137.56
366.045	-13.99
366.256	51.54
366.467	22.87
366.678	47.44
366.889	74.07
367.1	72.02
367.311	121.17
367.522	12.63
367.733	29.01
367.944	63.83
368.155	106.84
368.366	104.79
368.577	90.45
368.788	72.02
368.999	67.92
369.209	88.4
369.42	92.5
369.631	123.22
369.842	43.35
370.053	20.82
370.264	61.78
370.474	61.78
370.685	82.26
370.896	92.5
371.107	2.39
371.317	24.92
371.528	20.82
371.739	119.12
371.95	57.68
372.16	92.5
372.371	57.68
372.582	59.73
372.792	84.31
373.003	78.16
373.214	78.16
373.424	57.68
373.635	69.97
373.846	67.92
374.056	51.54
374.267	57.68
374.477	106.84
374.688	29.01
374.898	31.06
375.109	76.12
375.319	110.93
375.53	47.44
375.74	43.35
375.951	80.21
376.161	37.2
376.372	31.06
376.582	41.3
376.793	86.36
377.003	29.01
377.214	69.97
377.424	-5.8
377.635	61.78
377.845	-1.71
378.055	80.21
378.266	-18.09
378.476	80.21
378.686	31.06
378.897	86.36
379.107	49.49
379.317	53.59
379.528	51.54
379.738	55.64
379.948	57.68
380.158	37.2
380.369	-11.95
380.579	74.07
380.789	-16.04
380.999	88.4
381.21	104.79
381.42	117.08
381.63	-18.09
381.84	82.26
382.05	31.06
382.261	131.41
382.471	43.35
382.681	59.73
382.891	16.73
383.101	65.88
383.311	80.21
383.521	106.84
383.731	102.74
383.941	67.92
384.151	125.27
384.361	63.83
384.571	57.68
384.781	53.59
384.991	108.88
385.201	49.49
385.411	94.55
385.621	-9.9
385.831	84.31
386.041	112.98
386.251	149.84
386.461	106.84
386.671	115.03
386.881	59.73
387.091	96.6
387.301	94.55
387.511	84.31
387.72	51.54
387.93	39.25
388.14	67.92
388.35	112.98
388.56	92.5
388.769	18.77
388.979	47.44
389.189	10.58
389.399	74.07
389.609	51.54
389.818	45.4
390.028	74.07
390.238	29.01
390.447	26.96
390.657	45.4
390.867	20.82
391.076	26.96
391.286	4.44
391.496	117.08
391.705	49.49
391.915	45.4
392.125	121.17
392.334	82.26
392.544	74.07
392.753	4.44
392.963	63.83
393.172	131.41
393.382	108.88
393.591	63.83
393.801	67.92
394.01	76.12
394.22	100.69
394.429	123.22
394.639	63.83
394.848	92.5
395.058	119.12
395.267	100.69
395.477	53.59
395.686	119.12
395.895	102.74
396.105	162.13
396.314	72.02
396.524	45.4
396.733	127.32
396.942	151.89
397.152	96.6
397.361	96.6
397.57	82.26
397.78	74.07
397.989	119.12
398.198	92.5
398.407	155.99
398.617	117.08
398.826	100.69
399.035	115.03
399.244	92.5
399.453	22.87
399.663	104.79
399.872	129.36
400.081	74.07
400.29	213.33
400.499	121.17
400.708	164.18
400.917	104.79
401.127	176.47
401.336	125.27
401.545	35.16
401.754	74.07
401.963	129.36
402.172	51.54
402.381	84.31
402.59	131.41
402.799	127.32
403.008	153.94
403.217	201.04
403.426	141.65
403.635	121.17
403.844	100.69
404.053	125.27
404.262	61.78
404.471	143.7
404.68	162.13
404.888	162.13
405.097	182.61
405.306	231.76
405.515	225.62
405.724	235.86
405.933	227.67
406.142	164.18
406.35	139.6
406.559	203.09
406.768	213.33
406.977	178.51
407.185	217.43
407.394	233.81
407.603	233.81
407.812	258.39
408.02	221.52
408.229	227.67
408.438	196.95
408.646	239.95
408.855	291.15
409.064	299.34
409.272	315.73
409.481	246.1
409.69	278.87
409.898	225.62
410.107	344.4
410.315	313.68
410.524	311.63
410.733	364.88
410.941	334.16
411.15	356.69
411.358	360.78
411.567	282.96
411.775	377.17
411.984	397.65
412.192	430.41
412.401	418.13
412.609	514.38
412.818	452.94
413.026	440.65
413.234	399.7
413.443	569.68
413.651	493.9
413.86	545.1
414.068	588.11
414.276	670.03
414.485	594.25
414.693	522.57
414.901	637.26
415.11	571.72
415.318	608.59
415.526	731.47
415.734	700.75
415.943	768.33
416.151	858.44
416.359	725.32
416.567	792.91
416.776	860.49
416.984	899.4
417.192	999.75
417.4	819.53
417.608	846.15
417.817	915.78
418.025	1034.57
418.233	1112.39
418.441	1032.52
418.649	1157.44
418.857	1184.07
419.065	1245.51
419.273	1210.69
419.481	1272.13
419.689	1321.28
419.897	1429.82
420.105	1421.63
420.313	1438.02
420.521	1536.32
420.729	1462.59
420.937	1556.8
421.145	1618.24
421.353	1659.2
421.561	1743.16
421.769	1851.71
421.977	1978.68
422.185	1890.62
422.393	2122.04
422.601	2119.99
422.809	2154.8
423.017	2234.68
423.224	2257.2
423.432	2357.55
423.64	2306.35
423.848	2646.32
424.056	2394.42
424.263	2623.79
424.471	2711.85
424.679	2681.13
424.887	2789.67
425.094	2965.8
425.302	2988.33
425.51	3084.58
425.718	3107.11
425.925	3203.36
426.133	3424.55
426.341	3473.7
426.548	3541.28
426.756	3715.36
426.964	3674.4
427.171	3852.57
427.379	4016.41
427.586	4077.85
427.794	4069.66
428.001	4339.99
428.209	4649.23
428.417	4614.41
428.624	4745.48
428.832	4784.4
429.039	4952.33
429.247	4825.36
429.454	5167.37
429.662	5554.43
429.869	5210.37
430.076	5820.67
430.284	5351.68
430.491	5642.5
430.699	6129.91
430.906	6074.62
431.114	6101.24
431.321	6392.05
431.528	6506.74
431.736	6750.45
431.943	7231.72
432.15	6930.67
432.358	7172.33
432.565	7198.95
432.772	7336.17
432.979	7704.8
433.187	8001.76
433.394	7835.87
433.601	8403.16
433.808	8577.23
434.016	8468.69
434.223	8861.9
434.43	9330.89
434.637	9287.88
434.844	9707.71
435.052	9992.38
435.259	9720
435.466	9892.03
435.673	9806.02
435.88	10537.14
436.087	11106.48
436.294	11135.15
436.501	10703.03
436.708	11200.68
436.915	11571.36
437.122	11923.62
437.329	11710.63
437.537	12329.11
437.743	12368.02
437.95	12378.26
438.157	13019.28
438.364	13465.74
438.571	13285.51
438.778	13430.92
438.985	14768.24
439.192	14233.72
439.399	14438.52
439.606	14215.29
439.813	15059.06
440.02	15765.6
440.227	15640.68
440.433	15644.77
440.64	15954.02
440.847	15863.91
441.054	16408.67
441.261	17240.14
441.467	17209.42
441.674	17561.67
441.881	18112.58
442.088	18231.36
442.294	18010.18
442.501	18380.86
442.708	18862.13
442.914	19761.19
443.121	20322.34
443.328	19816.49
443.534	21276.69
443.741	20764.7
443.948	20334.62
444.154	22022.15
444.361	21764.11
444.568	21968.9
444.774	21946.37
444.981	22288.39
445.187	23044.09
445.394	23977.96
445.6	23390.19
445.807	25845.71
446.013	24614.88
446.22	24938.46
446.426	26021.83
446.633	26093.51
446.839	27072.44
447.046	25978.82
447.252	27348.92
447.459	27281.33
447.665	27410.36
447.871	28366.76
448.078	29640.59
448.284	28073.9
448.491	29126.55
448.697	30146.44
448.903	30363.53
449.11	30801.79
449.316	30347.14
449.522	30609.28
449.728	31512.44
449.935	31866.74
450.141	31620.98
450.347	32319.34
450.553	31434.61
450.76	31991.66
450.966	33263.45
451.172	32563.04
451.378	33564.5
451.584	32921.44
451.791	33527.64
451.997	33308.51
452.203	33945.42
452.409	33892.18
452.615	33728.34
452.821	32563.04
453.027	32231.27
453.233	33980.24
453.44	32421.73
453.646	32917.34
453.852	32773.99
454.058	33611.6
454.264	32474.98
454.47	33126.24
454.676	32356.2
454.882	33671
455.088	30502.79
455.294	30998.4
455.5	31743.86
455.705	31944.56
455.911	30359.43
456.117	29974.41
456.323	29384.6
456.529	28057.51
456.735	29290.39
456.941	28460.96
457.147	28372.9
457.352	27045.82
457.558	26943.42
457.764	26775.48
457.97	26267.59
458.176	25624.53
458.381	25483.22
458.587	24383.46
458.793	24412.13
458.999	23410.67
459.204	24807.39
459.41	24059.88
459.616	22693.88
459.821	22491.13
460.027	22718.46
460.233	21854.22
460.438	20838.42
460.644	20944.92
460.85	20197.41
461.055	19822.63
461.261	19931.17
461.466	18174.02
461.672	17698.89
461.878	19038.26
462.083	17858.63
462.289	17365.07
462.494	17391.69
462.7	16564.31
462.905	16089.18
463.111	16615.51
463.316	16611.42
463.522	16148.57
463.727	16207.97
463.932	16238.69
464.138	16201.82
464.343	16070.75
464.549	15634.53
464.754	16300.12
464.959	15997.03
465.165	16132.19
465.37	15370.35
465.575	15224.94
465.781	15415.4
465.986	15364.2
466.191	15136.88
466.397	14674.04
466.602	13893.76
466.807	14731.38
467.012	14571.64
467.218	14483.58
467.423	14459
467.628	14395.51
467.833	15138.93
468.038	14602.36
468.244	14170.24
468.449	14815.35
468.654	14110.85
468.859	14041.22
469.064	14041.22
469.269	13305.99
469.474	13426.82
469.679	13785.22
469.885	13265.03
470.09	13432.97
470.295	13338.76
470.5	13105.29
470.705	13224.08
470.91	12955.79
471.115	12748.95
471.32	13068.43
471.525	12871.82
471.73	12654.74
471.935	12611.73
472.139	12005.53
472.344	12431.51
472.549	12484.76
472.754	11968.67
472.959	11849.89
473.164	11411.62
473.369	11352.23
473.574	11847.84
473.778	11620.52
473.983	11518.12
474.188	11600.04
474.393	11038.89
474.598	11032.75
474.802	10965.17
475.007	10905.77
475.212	10956.97
475.417	10535.09
475.621	10514.61
475.826	10498.23
476.031	10270.9
476.235	10010.81
476.44	10315.96
476.645	10123.45
476.849	10098.88
477.054	9840.83
477.259	9889.98
477.463	9976
477.668	9468.1
477.872	9711.81
478.077	9629.89
478.282	9296.07
478.486	9259.21
478.691	9197.77
478.895	9105.61
479.1	9203.91
479.304	9042.12
479.509	8798.42
479.713	9072.84
479.918	8960.2
480.122	8536.28
480.326	8906.96
480.531	8663.25
480.735	8564.95
480.94	8458.45
481.144	8915.15
481.348	8530.13
481.553	8591.57
481.757	8341.72
481.961	8665.3
482.166	8622.29
482.37	8485.08
482.574	8325.33
482.778	8401.11
482.983	8501.46
483.187	8487.12
483.391	8505.56
483.595	8335.57
483.8	8098.01
484.004	8552.66
484.208	8655.06
484.412	8464.6
484.616	8452.31
484.821	8519.89
485.025	8046.81
485.229	8497.36
485.433	8384.73
485.637	8292.57
485.841	8413.4
486.045	8132.83
486.249	8693.97
486.453	8534.23
486.657	8497.36
486.861	8392.92
487.065	8149.21
487.269	8444.12
487.473	8321.24
487.677	8425.68
487.881	8304.85
488.085	8372.44
488.289	8470.74
488.493	8374.49
488.697	8534.23
488.901	8564.95
489.105	8431.83
489.309	8390.87
489.512	8618.19
489.716	8685.78
489.92	8550.61
490.124	8497.36
490.328	8698.06
490.531	8501.46
490.735	8614.1
490.939	8693.97
491.143	8618.19
491.346	8616.15
491.55	8968.4
491.754	8757.46
491.958	8911.05
492.161	8958.16
492.365	8931.53
492.569	8851.66
492.772	8827.09
492.976	9025.74
493.18	9089.23
493.383	9154.76
493.587	9048.27
493.79	9253.06
493.994	9224.39
494.197	9156.81
494.401	9289.93
494.605	9361.61
494.808	9644.23
495.012	9582.79
495.215	9586.88
495.419	9523.4
495.622	9674.95
495.825	9683.14
496.029	9963.71
496.232	9943.23
496.436	9920.7
496.639	10195.13
496.843	10023.1
497.046	10354.87
497.249	10416.31
497.453	10322.1
497.656	10612.92
497.859	10545.33
498.063	10713.27
498.266	11010.22
498.469	10797.23
498.673	11245.74
498.876	11176.11
499.079	11223.21
499.282	11145.39
499.485	11548.84
499.689	11491.49
499.892	11778.21
500.095	11942.05
500.298	11991.2
500.501	11745.44
500.705	12497.05
500.908	12411.03
501.111	12701.84
501.314	12777.62
501.517	12542.1
501.72	12820.63
501.923	12853.39
502.126	13228.17
502.329	13328.52
502.532	13365.39
502.735	13428.87
502.938	13791.36
503.141	13801.6
503.344	14139.52
503.547	14135.42
503.75	14258.3
503.953	14352.51
504.156	14542.97
504.359	14993.52
504.562	14856.31
504.765	15061.1
504.968	15282.28
505.17	15362.15
505.373	15384.68
505.576	15822.95
505.779	15712.36
505.982	15695.97
506.185	16302.17
506.387	16205.92
506.59	16562.26
506.793	16617.56
506.996	16861.27
507.198	17303.63
507.401	16953.43
507.604	17467.47
507.807	17979.46
508.009	17578.06
508.212	17733.7
508.415	18094.15
508.617	18186.3
508.82	18391.1
509.022	18530.36
509.225	18804.79
509.428	18958.39
509.63	19034.16
509.833	19159.09
510.035	19314.73
510.238	19464.24
510.44	19609.64
510.643	19941.41
510.845	20318.24
511.048	19945.51
511.25	20506.65
511.453	20396.06
511.655	21235.73
511.858	21069.84
512.06	21088.28
512.262	21391.37
512.465	21461.01
512.667	21938.18
512.87	21927.94
513.072	22067.2
513.274	22300.67
513.477	22513.66
513.679	22800.38
513.881	23025.65
514.084	23306.23
514.286	22902.78
514.488	23285.75
514.69	23934.95
514.893	24074.21
515.095	23906.28
515.297	24389.6
515.499	24399.84
515.701	24698.84
515.904	24440.8
516.106	24741.85
516.308	25270.23
516.51	25702.35
516.712	25597.9
516.914	25720.78
517.116	26357.7
517.318	26263.49
517.52	26693.57
517.722	26718.14
517.925	26970.04
518.127	27017.15
518.329	27461.55
518.531	27152.31
518.733	27795.37
518.935	27856.81
519.136	28039.08
519.338	28293.03
519.54	28397.48
519.742	28727.2
519.944	28647.33
520.146	29085.59
520.348	29329.3
520.55	29335.45
520.752	29480.85
520.954	30318.47
521.155	29939.6
521.357	30130.06
521.559	30693.25
521.761	30896
521.963	30832.51
522.164	31094.65
522.366	31219.58
522.568	31442.81
522.77	31426.42
522.971	31899.5
523.173	31811.44
523.375	32163.69
523.576	32028.52
523.778	32261.99
523.98	32745.31
524.181	32622.44
524.383	32440.17
524.584	33355.61
524.786	33216.35
524.988	32683.87
525.189	33296.22
525.391	33744.72
525.592	33601.36
525.794	33873.74
525.995	33879.89
526.197	34209.61
526.398	34334.54
526.6	34324.3
526.801	34338.63
527.003	34557.77
527.204	34508.61
527.406	34692.93
527.607	34715.46
527.808	35104.57
528.01	34465.61
528.211	35036.99
528.412	35538.74
528.614	35362.62
528.815	35600.18
529.016	35512.12
529.218	35129.15
529.419	35188.54
529.62	35589.94
529.822	35438.39
530.023	35510.07
530.224	35632.95
530.425	35710.77
530.626	35628.85
530.828	35630.9
531.029	35993.39
531.23	35532.6
531.431	35798.84
531.632	35856.18
531.833	35987.25
532.035	35864.37
532.236	36071.21
532.437	36235.05
532.638	36103.98
532.839	35960.62
533.04	36224.81
533.241	35698.48
533.442	36228.91
533.643	36114.22
533.844	36157.23
534.045	36155.18
534.246	35692.34
534.447	36212.52
534.648	36048.69
534.849	36067.12
535.05	35637.05
535.251	35903.28
535.451	36239.15
535.652	36081.45
535.853	35956.53
536.054	35970.86
536.255	36224.81
536.456	35589.94
536.657	36347.69
536.857	35913.52
537.058	35858.23
537.259	36341.55
537.46	36222.76
537.66	36009.78
537.861	36460.33
538.062	36327.21
538.263	36527.91
538.463	35841.84
538.664	35985.2
538.865	36292.4
539.065	36171.57
539.266	35878.71
539.466	36400.94
539.667	35637.05
539.868	36165.42
540.068	35751.73
540.269	35561.27
540.469	36124.46
540.67	35639.09
540.87	36054.83
541.071	35915.57
541.271	36112.17
541.472	35641.14
541.672	35764.02
541.873	35483.45
542.073	35409.72
542.274	36173.61
542.474	35616.57
542.675	35669.81
542.875	35854.13
543.075	35831.6
543.276	35460.92
543.476	35551.03
543.676	35331.9
543.877	35702.58
544.077	35757.88
544.277	35532.6
544.478	35559.22
544.678	35931.95
544.878	35303.23
545.078	35151.68
545.279	35221.31
545.479	35344.19
545.679	35360.57
545.879	35872.56
546.079	35415.86
546.28	35686.2
546.48	35192.64
546.68	35422.01
546.88	35397.43
547.08	35671.86
547.28	35309.37
547.48	35094.33
547.68	35368.76
547.88	34942.78
548.081	35516.22
548.281	35274.56
548.481	35264.32
548.681	35393.34
548.881	35403.58
549.081	35436.34
549.28	35034.94
549.48	35399.48
549.68	35086.14
549.88	35733.3
550.08	35139.39
550.28	35358.52
550.48	34660.16
550.68	35475.26
550.88	34871.11
551.08	34748.23
551.279	35049.28
551.479	34619.21
551.679	34903.87
551.879	35088.19
552.079	35073.85
552.278	34768.71
552.478	35016.51
552.678	35036.99
552.878	34930.5
553.077	34807.62
553.277	34406.22
553.477	35206.97
553.676	34477.9
553.876	34791.23
554.076	34602.82
554.275	34717.51
554.475	34215.76
554.674	34666.31
554.874	34844.48
555.074	34481.99
555.273	34950.98
555.473	34705.22
555.672	34430.79
555.872	34248.52
556.071	34795.33
556.271	34869.06
556.47	34316.11
556.67	34244.43
556.869	34588.49
557.068	34486.09
557.268	34477.9
557.467	34250.57
557.667	34123.6
557.866	33980.24
558.065	34193.23
558.265	33865.55
558.464	33687.38
558.663	34201.42
558.863	33832.79
559.062	34299.72
559.261	33337.18
559.461	34041.68
559.66	33627.99
559.859	33883.98
560.058	33367.9
560.258	33677.14
560.457	33314.65
560.656	33472.34
560.855	33279.83
561.054	33797.97
561.253	33664.85
561.453	33607.51
561.652	33947.47
561.851	33634.13
562.05	33369.94
562.249	33046.37
562.448	33347.42
562.647	33275.74
562.846	33394.52
563.045	33666.9
563.244	32778.08
563.443	33290.07
563.642	32591.72
563.841	32628.58
564.04	32546.66
564.239	33048.41
564.438	32769.89
564.637	32778.08
564.836	32841.57
565.035	32190.31
565.234	32634.72
565.432	32370.54
565.631	32305
565.83	32296.81
566.029	32362.34
566.228	32216.94
566.427	32100.2
566.625	32298.86
566.824	31807.34
567.023	32583.52
567.222	31360.89
567.42	32137.07
567.619	31889.26
567.818	31991.66
568.016	31573.88
568.215	31727.47
568.414	31534.96
568.612	31799.15
568.811	31590.26
569.01	31559.54
569.208	31354.74
569.407	31663.99
569.605	30943.1
569.804	31250.3
570.002	30826.37
570.201	30893.95
570.4	30879.61
570.598	30687.11
570.797	30865.28
570.995	30781.31
571.193	30723.97
571.392	30922.62
571.59	30521.22
571.789	30687.11
571.987	30484.36
572.186	30441.35
572.384	30384.01
572.582	30369.67
572.781	30504.84
572.979	29646.74
573.177	29994.89
573.376	30082.95
573.574	30044.04
573.772	29892.49
573.971	29683.6
574.169	29605.78
574.367	29550.48
574.565	29632.4
574.763	29536.15
574.962	29570.96
575.16	29167.51
575.358	29116.31
575.556	28762.01
575.754	29609.87
575.952	28884.89
576.151	29175.7
576.349	29114.27
576.547	28878.75
576.745	29300.63
576.943	29067.16
577.141	28731.29
577.339	28919.71
577.537	28770.21
577.735	28692.38
577.933	28735.39
578.131	28630.94
578.329	28577.7
578.527	28264.36
578.725	28264.36
578.923	28344.23
579.121	28090.28
579.319	28268.45
579.516	28055.47
579.714	27721.65
579.912	27971.5
580.11	27643.82
580.308	27672.5
580.506	27613.1
580.704	27226.04
580.901	27434.93
581.099	27819.95
581.297	27398.07
581.495	27422.64
581.692	27654.06
581.89	27017.15
582.088	27488.18
582.285	27027.38
582.483	27654.06
582.681	26994.62
582.878	26808.25
583.076	26636.22
583.274	26820.54
583.471	26357.7
583.669	26681.28
583.866	26580.93
584.064	26648.51
584.262	26363.84
584.459	26439.62
584.657	26351.56
584.854	26511.3
585.052	25817.04
585.249	26132.42
585.447	26128.33
585.644	25651.15
585.841	26023.88
586.039	26148.81
586.236	25724.88
586.434	25792.46
586.631	25645.01
586.828	25767.88
587.026	25688.01
587.223	25485.26
587.42	25159.64
587.618	25401.3
587.815	25147.35
588.012	25190.36
588.21	25055.19
588.407	25114.58
588.604	25087.96
588.801	24803.29
588.999	24711.13
589.196	24809.43
589.393	25257.94
589.59	24397.79
589.787	24541.15
589.984	24512.48
590.182	24180.71
590.379	24428.51
590.576	24092.65
590.773	24358.88
590.97	24233.96
591.167	24178.66
591.364	24080.36
591.561	24137.7
591.758	23867.37
591.955	23855.08
592.152	23893.99
592.349	23789.55
592.546	23840.75
592.743	23961.58
592.94	23611.37
593.137	23490.54
593.334	23633.9
593.531	23146.48
593.727	23136.24
593.924	23427.06
594.121	23115.76
594.318	22960.12
594.515	23058.42
594.712	23109.62
594.908	23015.41
595.105	23099.38
595.302	22571
595.499	22736.89
595.696	22372.35
595.892	22853.62
596.089	22943.74
596.286	22786.04
596.482	22380.54
596.679	22538.24
596.876	22218.75
597.072	22183.94
597.269	22228.99
597.466	22251.52
597.662	21860.36
597.859	21964.81
598.055	22253.57
598.252	21878.79
598.448	21948.42
598.645	21884.94
598.841	21835.78
599.038	21723.15
599.234	21555.21
599.431	21536.78
599.627	21422.09
599.824	21489.68
600.02	21286.93
600.217	21381.14
600.413	21313.55
600.609	21000.21
600.806	20848.66
601.002	21043.22
601.198	21106.71
601.395	21026.84
601.591	20559.9
601.787	20856.86
601.984	20584.48
602.18	20695.07
602.376	20535.32
602.572	20717.59
602.769	20463.65
602.965	20336.67
603.161	20351.01
603.357	20424.73
603.553	20115.49
603.75	20346.91
603.946	20060.2
604.142	19982.37
604.338	19836.97
604.534	19945.51
604.73	19558.44
604.926	19894.31
605.122	19662.89
605.318	19871.78
605.514	19623.98
605.71	19884.07
605.906	19374.13
606.102	19560.49
606.298	19591.21
606.494	19421.23
606.69	19259.44
606.886	19228.72
607.082	19161.14
607.278	19413.04
607.474	19019.83
607.67	19181.62
607.866	18772.02
608.062	19359.79
608.257	19200.05
608.453	18677.82
608.649	19120.18
608.845	18565.18
609.041	18821.17
609.236	18978.87
609.432	18761.78
609.628	18763.83
609.824	18774.07
610.019	18581.56
610.215	18321.47
610.411	18702.39
610.606	18563.13
610.802	18536.51
610.998	18329.66
611.193	18364.48
611.389	18616.38
611.584	18567.23
611.78	18028.61
611.976	18454.59
612.171	18485.31
612.367	18186.3
612.562	18194.5
612.758	17922.12
612.953	18079.81
613.149	18376.76
613.344	17913.92
613.539	18278.46
613.735	18241.6
613.93	18260.03
614.126	17799.24
614.321	18096.19
614.517	17856.58
614.712	17557.58
614.907	17674.31
615.103	18014.27
615.298	17655.88
615.493	17911.88
615.688	17516.62
615.884	17903.68
616.079	17367.12
616.274	17727.56
616.47	17576.01
616.665	17555.53
616.86	17725.51
617.055	17406.03
617.25	17223.76
617.445	17393.74
617.641	16943.19
617.836	17324.11
618.031	17070.16
618.226	17385.55
618.421	16992.34
618.616	17395.79
618.811	16969.81
619.006	17141.84
619.201	16576.6
619.396	16801.88
619.591	16466.01
619.786	16939.09
619.981	16547.93
620.176	16779.35
620.371	16339.04
620.566	16384.09
620.761	16255.07
620.956	16459.87
621.151	16392.28
621.346	16414.81
621.541	16021.6
621.735	16089.18
621.93	15681.64
622.125	15851.62
622.32	15712.36
622.515	15759.46
622.709	15458.41
622.904	15802.47
623.099	15437.93
623.294	15583.34
623.488	15155.31
623.683	15413.35
623.878	15253.61
624.072	15104.11
624.267	14936.18
624.462	15224.94
624.656	14772.34
624.851	15044.72
625.046	14901.36
625.24	14655.61
625.435	14463.1
625.629	14692.47
625.824	14553.21
626.018	14516.34
626.213	14149.76
626.407	14307.45
626.602	13865.09
626.796	14112.89
626.991	13875.33
627.185	13813.89
627.38	13809.79
627.574	13721.73
627.768	13789.31
627.963	13777.03
628.157	13590.66
628.352	13557.89
628.546	13256.84
628.74	13428.87
628.935	13291.66
629.129	13127.82
629.323	13101.2
629.517	12982.42
629.712	13047.95
629.906	13025.42
630.1	12771.47
630.294	12718.23
630.489	12789.91
630.683	12896.4
630.877	12560.53
631.071	12390.55
631.265	12357.78
631.459	12230.81
631.653	12320.92
631.848	12341.4
632.042	11940
632.236	12130.46
632.43	12099.74
632.624	12255.39
632.818	11960.48
633.012	11737.25
633.206	11847.84
633.4	11944.1
633.594	11563.17
633.788	11919.52
633.982	11735.2
634.176	11585.7
634.369	11434.15
634.563	11454.63
634.757	11364.52
634.951	11401.38
635.145	11385
635.339	11337.9
635.533	10981.55
635.726	11288.75
635.92	10936.49
636.114	10930.35
636.308	10786.99
636.501	10889.39
636.695	10672.31
636.889	10875.06
637.083	10717.36
637.276	10477.75
637.47	10664.11
637.664	10625.2
637.857	10674.35
638.051	10526.9
638.244	10322.1
638.438	10246.33
638.632	10201.27
638.825	10029.24
639.019	10121.4
639.212	10178.75
639.406	9836.74
639.599	9973.95
639.793	9982.14
639.986	9844.93
640.18	9779.39
640.373	9910.46
640.567	9699.52
640.76	9601.22
640.954	9670.85
641.147	9670.85
641.34	9431.24
641.534	9271.5
641.727	9474.24
641.92	9421
642.114	9224.39
642.307	9259.21
642.5	9195.72
642.694	8997.07
642.887	9033.93
643.08	9081.03
643.273	8888.53
643.467	8892.62
643.66	8812.75
643.853	8734.93
644.046	8745.17
644.239	8878.29
644.432	8829.13
644.626	8673.49
644.819	8687.82
645.012	8640.72
645.205	8513.75
645.398	8401.11
645.591	8319.19
645.784	8413.4
645.977	8290.52
646.17	8401.11
646.363	8198.36
646.556	8104.15
646.749	8208.6
646.942	8200.41
647.135	7987.42
647.328	8063.19
647.521	7934.17
647.714	7977.18
647.907	7796.96
648.099	7921.88
648.292	7842.01
648.485	7913.69
648.678	7659.74
648.871	7725.28
649.064	7823.58
649.256	7549.15
649.449	7563.49
649.642	7704.8
649.835	7512.29
650.027	7364.84
650.22	7375.08
650.413	7266.53
650.605	7452.9
650.798	7366.88
650.991	7157.99
651.183	7354.6
651.376	7039.21
651.568	7153.9
651.761	7201
651.954	7151.85
652.146	7153.9
652.339	7028.97
652.531	7106.79
652.724	6846.7
652.916	6895.85
653.109	6863.08
653.301	6908.14
653.494	6822.13
653.686	6709.49
653.879	6756.59
654.071	6629.62
654.263	6867.18
654.456	6781.17
654.648	6715.63
654.84	6494.45
655.033	6566.13
655.225	6652.14
655.417	6502.64
655.61	6486.26
655.802	6529.27
655.994	6330.61
656.186	6285.56
656.379	6301.94
656.571	6195.45
656.763	6183.16
656.955	6142.2
657.148	6189.3
657.34	6115.58
657.532	6043.9
657.724	6043.9
657.916	6009.08
658.108	6138.1
658.3	5900.54
658.492	6086.9
658.684	5816.57
658.876	5832.96
659.068	5851.39
659.26	5675.26
659.452	5822.72
659.644	5785.85
659.836	5724.41
660.028	5824.76
660.22	5505.28
660.412	5628.16
660.604	5402.88
660.796	5603.58
660.988	5404.93
661.18	5507.33
661.372	5394.69
661.563	5400.83
661.755	5337.35
661.947	5404.93
662.139	5482.75
662.331	5353.73
662.522	5269.76
662.714	5425.41
662.906	5200.13
663.097	5241.09
663.289	5263.62
663.481	5060.87
663.673	5198.09
663.864	5050.63
664.056	5130.5
664.247	5089.54
664.439	5056.78
664.631	5052.68
664.822	4913.42
665.014	4987.15
665.205	4892.94
665.397	5071.11
665.588	5003.53
665.78	4909.32
665.971	4903.18
666.163	4940.04
666.354	4897.03
666.546	4792.59
666.737	4624.65
666.929	4798.73
667.12	4804.88
667.311	4727.05
667.503	4688.14
667.694	4661.52
667.885	4667.66
668.077	4665.61
668.268	4714.77
668.459	4618.51
668.651	4526.35
668.842	4446.48
669.033	4745.48
669.224	4491.54
669.416	4442.39
669.607	4595.98
669.798	4296.98
669.989	4528.4
670.18	4385.04
670.371	4241.68
670.563	4323.6
670.754	4450.58
670.945	4382.99
671.136	4215.06
671.327	4354.32
671.518	4165.91
671.709	4182.29
671.9	4342.04
672.091	4174.1
672.282	4280.6
672.473	4284.69
672.664	4143.38
672.855	4129.05
673.046	4088.09
673.237	4229.4
673.428	4014.36
673.619	4108.57
673.809	4110.61
674	4086.04
674.191	4032.79
674.382	3987.74
674.573	4034.84
674.764	4127
674.954	3971.35
675.145	3846.43
675.336	3934.49
675.527	3997.98
675.717	4038.94
675.908	3957.02
676.099	3963.16
676.289	3914.01
676.48	3895.58
676.671	3817.76
676.861	3918.11
677.052	3842.33
677.243	3985.69
677.433	3758.36
677.624	3979.54
677.814	3916.06
678.005	3858.71
678.195	3873.05
678.386	3963.16
678.576	3832.09
678.767	3774.75
678.957	3674.4
679.148	3842.33
679.338	3830.04
679.529	3877.15
679.719	3862.81
679.909	3774.75
680.1	3737.88
680.29	3676.45
680.481	3645.73
680.671	3770.65
680.861	3748.12
681.052	3696.92
681.242	3698.97
681.432	3701.02
681.622	3576.09
681.813	3674.4
682.003	3504.42
682.193	3619.1
682.383	3725.6
682.573	3533.09
682.764	3561.76
682.954	3508.51
683.144	3647.77
683.334	3553.57
683.524	3615.01
683.714	3424.55
683.904	3504.42
684.094	3551.52
684.284	3543.33
684.474	3498.27
684.664	3479.84
684.854	3463.46
685.044	3379.49
685.234	3418.4
685.424	3402.02
685.614	3516.7
685.804	3406.11
685.994	3295.52
686.184	3500.32
686.374	3377.44
686.564	3336.48
686.753	3412.26
686.943	3250.47
687.133	3318.05
687.323	3160.36
687.513	3262.76
687.702	3242.28
687.892	3215.65
688.082	3205.41
688.272	3217.7
688.461	3209.51
688.651	3209.51
688.841	3207.46
689.03	3158.31
689.22	3121.45
689.41	3180.84
689.599	3092.77
689.789	3096.87
689.979	3184.93
690.168	3049.77
690.358	3014.95
690.547	2947.37
690.737	3014.95
690.926	2928.94
691.116	2953.51
691.305	2990.38
691.495	2930.98
691.684	2949.42
691.874	2910.5
692.063	3008.81
692.252	2965.8
692.442	3027.24
692.631	2939.18
692.82	2869.55
693.01	2806.06
693.199	2945.32
693.388	2783.53
693.578	2949.42
693.767	2791.72
693.956	2795.82
694.146	2832.68
694.335	2826.54
694.524	2703.66
694.713	2971.94
694.902	2812.2
695.092	2744.62
695.281	2781.48
695.47	2720.04
695.659	2795.82
695.848	2631.98
696.037	2720.04
696.226	2748.72
696.415	2726.19
696.604	2775.34
696.793	2674.99
696.982	2748.72
697.171	2750.76
697.36	2732.33
697.549	2621.74
697.738	2662.7
697.927	2648.36
698.116	2709.8
698.305	2707.76
698.494	2660.65
698.683	2746.67
698.872	2713.9
699.061	2670.89
699.25	2672.94
699.438	2636.08
699.627	2711.85
699.816	2664.75
700.005	2664.75
700.193	2631.98
700.382	2638.13
700.571	2681.13
700.76	2722.09
700.948	2834.73
701.137	2697.52
701.326	2638.13
701.514	2703.66
701.703	2656.56
701.892	2623.79
702.08	2711.85
702.269	2648.36
702.457	2609.45
702.646	2761
702.834	2691.37
703.023	2558.25
703.212	2674.99
703.4	2740.52
703.589	2593.07
703.777	2693.42
703.965	2707.76
704.154	2570.54
704.342	2666.8
704.531	2711.85
704.719	2750.76
704.907	2750.76
705.096	2656.56
705.284	2541.87
705.472	2769.2
705.661	2656.56
705.849	2679.08
706.037	2718
706.226	2703.66
706.414	2771.24
706.602	2576.69
706.79	2677.04
706.979	2642.22
707.167	2648.36
707.355	2693.42
707.543	2644.27
707.731	2554.16
707.919	2662.7
708.107	2697.52
708.296	2674.99
708.484	2591.02
708.672	2738.48
708.86	2662.7
709.048	2736.43
709.236	2580.78
709.424	2666.8
709.612	2715.95
709.8	2681.13
709.988	2666.8
710.176	2597.17
710.364	2636.08
710.551	2732.33
710.739	2642.22
710.927	2672.94
711.115	2535.73
711.303	2658.6
711.491	2728.24
711.679	2718
711.866	2537.77
712.054	2619.69
712.242	2660.65
712.43	2617.65
712.617	2674.99
712.805	2687.28
712.993	2726.19
713.181	2677.04
713.368	2789.67
713.556	2734.38
713.744	2525.49
713.931	2679.08
714.119	2621.74
714.306	2693.42
714.494	2662.7
714.682	2631.98
714.869	2613.55
715.057	2631.98
715.244	2715.95
715.432	2652.46
715.619	2668.84
715.807	2744.62
715.994	2736.43
716.182	2539.82
716.369	2681.13
716.556	2707.76
716.744	2695.47
716.931	2570.54
717.119	2582.83
717.306	2494.77
717.493	2709.8
717.681	2642.22
717.868	2713.9
718.055	2603.31
718.242	2627.89
718.43	2646.32
718.617	2470.19
718.804	2588.97
718.991	2691.37
719.179	2674.99
719.366	2584.88
719.553	2644.27
719.74	2705.71
719.927	2662.7
720.114	2648.36
720.301	2498.86
720.488	2564.4
720.676	2541.87
720.863	2619.69
721.05	2591.02
721.237	2722.09
721.424	2658.6
721.611	2605.36
721.798	2425.14
721.985	2472.24
722.172	2554.16
722.358	2658.6
722.545	2584.88
722.732	2478.38
722.919	2560.3
723.106	2523.44
723.293	2656.56
723.48	2562.35
723.667	2513.2
723.853	2554.16
724.04	2568.49
724.227	2701.61
724.414	2492.72
724.6	2511.15
724.787	2595.12
724.974	2550.06
725.161	2408.75
725.347	2609.45
725.534	2517.29
725.72	2445.62
725.907	2593.07
726.094	2617.65
726.28	2492.72
726.467	2498.86
726.653	2525.49
726.84	2535.73
727.027	2552.11
727.213	2605.36
727.4	2427.18
727.586	2535.73
727.773	2648.36
727.959	2439.47
728.145	2535.73
728.332	2562.35
728.518	2394.42
728.705	2556.21
728.891	2418.99
729.077	2455.86
729.264	2521.39
729.45	2480.43
729.636	2447.66
729.823	2574.64
730.009	2543.92
730.195	2451.76
730.382	2441.52
730.568	2433.33
730.754	2453.81
730.94	2412.85
731.126	2443.57
731.313	2535.73
731.499	2451.76
731.685	2392.37
731.871	2509.1
732.057	2457.9
732.243	2439.47
732.429	2459.95
732.615	2500.91
732.801	2355.51
732.987	2449.71
733.173	2404.66
733.359	2390.32
733.545	2394.42
733.731	2304.31
733.917	2445.62
734.103	2369.84
734.289	2283.83
734.475	2304.31
734.661	2509.1
734.847	2306.35
735.033	2308.4
735.219	2390.32
735.404	2384.18
735.59	2294.07
735.776	2343.22
735.962	2361.65
736.148	2355.51
736.333	2431.28
736.519	2298.16
736.705	2322.74
736.89	2228.53
737.076	2330.93
737.262	2208.05
737.447	2304.31
737.633	2220.34
737.819	2341.17
738.004	2242.87
738.19	2232.63
738.375	2318.64
738.561	2289.97
738.747	2218.29
738.932	2261.3
739.118	2287.92
739.303	2347.31
739.489	2326.83
739.674	2267.44
739.859	2158.9
740.045	2146.61
740.23	2396.46
740.416	2083.13
740.601	2265.39
740.786	2230.58
740.972	2113.85
741.157	2185.52
741.342	2144.56
741.528	2177.33
741.713	2163
741.898	2134.32
742.084	2197.81
742.269	2144.56
742.454	2091.32
742.639	2191.67
742.824	2060.6
743.01	2005.3
743.195	2122.04
743.38	2072.89
743.565	2117.94
743.75	2009.4
743.935	2029.88
744.12	1986.87
744.305	2023.73
744.49	2005.3
744.675	1984.82
744.86	1964.34
745.045	2046.26
745.23	2134.32
745.415	1995.06
745.6	1923.38
745.785	1968.44
745.97	1933.62
746.155	1798.46
746.34	1952.06
746.525	1849.66
746.71	2081.08
746.895	1847.61
747.079	1947.96
747.264	1857.85
747.449	1882.42
747.634	1945.91
747.819	1952.06
748.003	1804.6
748.188	1808.7
748.373	1755.45
748.557	1710.4
748.742	1734.97
748.927	1718.59
749.111	1730.87
749.296	1761.59
749.481	1763.64
749.665	1751.35
749.85	1632.57
750.034	1747.26
750.219	1646.91
750.404	1673.53
750.588	1636.67
750.773	1593.66
750.957	1624.38
751.141	1548.61
751.326	1595.71
751.51	1581.37
751.695	1587.52
751.879	1564.99
752.064	1536.32
752.248	1544.51
752.432	1577.28
752.617	1450.3
752.801	1634.62
752.985	1417.54
753.17	1464.64
753.354	1558.85
753.538	1579.33
753.722	1513.79
753.907	1472.83
754.091	1440.06
754.275	1392.96
754.459	1528.13
754.643	1372.48
754.828	1356.1
755.012	1470.78
755.196	1384.77
755.38	1345.86
755.564	1341.76
755.748	1313.09
755.932	1343.81
756.116	1423.68
756.3	1292.61
756.484	1220.93
756.668	1306.95
756.852	1331.52
757.036	1235.27
757.22	1308.99
757.404	1272.13
757.588	1200.45
757.772	1274.18
757.956	1284.42
758.14	1194.31
758.323	1192.26
758.507	1198.4
758.691	1210.69
758.875	1198.4
759.059	1190.21
759.242	1147.2
759.426	1155.4
759.61	1136.96
759.794	1198.4
759.977	1188.16
760.161	1184.07
760.345	1184.07
760.528	1132.87
760.712	1132.87
760.895	1110.34
761.079	1096
761.263	1102.15
761.446	1179.97
761.63	1163.59
761.813	1210.69
761.997	1106.24
762.18	1061.19
762.364	1104.2
762.547	1081.67
762.731	1116.48
762.914	1032.52
763.098	993.61
763.281	1007.94
763.464	995.65
763.648	1014.09
763.831	1022.28
764.015	977.22
764.198	926.02
764.381	1026.37
764.564	1028.42
764.748	1071.43
764.931	1077.57
765.114	923.98
765.297	1075.52
765.481	1003.85
765.664	985.41
765.847	1012.04
766.03	1032.52
766.213	876.87
766.397	1012.04
766.58	831.82
766.763	966.98
766.946	936.26
767.129	887.11
767.312	954.69
767.495	1026.37
767.678	930.12
767.861	858.44
768.044	844.1
768.227	938.31
768.41	938.31
768.593	897.35
768.776	862.54
768.959	923.98
769.142	862.54
769.324	887.11
769.507	891.21
769.69	887.11
769.873	895.3
770.056	966.98
770.239	792.91
770.421	891.21
770.604	860.49
770.787	993.61
770.97	833.86
771.152	790.86
771.335	872.78
771.518	768.33
771.7	885.06
771.883	874.82
772.066	819.53
772.248	801.1
772.431	807.24
772.613	739.66
772.796	833.86
772.978	844.1
773.161	874.82
773.343	745.8
773.526	870.73
773.708	827.72
773.891	715.08
774.073	762.19
774.256	655.69
774.438	794.95
774.621	725.32
774.803	719.18
774.985	770.38
775.168	803.15
775.35	704.84
775.532	700.75
775.715	633.16
775.897	737.61
776.079	737.61
776.261	672.08
776.444	704.84
776.626	735.56
776.808	708.94
776.99	731.47
777.173	704.84
777.355	694.6
777.537	588.11
777.719	686.41
777.901	643.4
778.083	657.74
778.265	614.73
778.447	657.74
778.629	655.69
778.811	530.77
778.993	592.2
779.175	590.16
779.357	553.29
779.539	592.2
779.721	600.4
779.903	659.79
780.085	532.81
780.267	555.34
780.449	450.89
780.631	577.87
780.812	571.72
780.994	516.43
781.176	629.07
781.358	569.68
781.54	612.68
781.721	602.44
781.903	504.14
782.085	565.58
782.267	575.82
782.448	567.63
782.63	473.42
782.812	489.81
782.993	457.04
783.175	596.3
783.357	543.05
783.538	485.71
783.72	502.09
783.901	479.57
784.083	444.75
784.264	530.77
784.446	541.01
784.627	446.8
784.809	481.61
784.99	491.85
785.172	473.42
785.353	491.85
785.535	422.22
785.716	424.27
785.897	428.37
786.079	407.89
786.26	414.03
786.441	448.85
786.623	379.22
786.804	444.75
786.985	403.79
787.167	428.37
787.348	364.88
787.529	448.85
787.71	420.17
787.891	471.37
788.073	395.6
788.254	397.65
788.435	309.58
788.616	350.54
788.797	352.59
788.978	342.35
789.159	438.61
789.34	344.4
789.522	407.89
789.703	387.41
789.884	291.15
790.065	387.41
790.246	377.17
790.427	328.02
790.607	350.54
790.788	409.94
790.969	293.2
791.15	381.26
791.331	358.74
791.512	366.93
791.693	317.78
791.874	340.3
792.054	313.68
792.235	340.3
792.416	422.22
792.597	319.82
792.778	260.43
792.958	299.34
793.139	375.12
793.32	352.59
793.5	297.3
793.681	356.69
793.862	383.31
794.042	297.3
794.223	264.53
794.404	332.11
794.584	301.39
794.765	278.87
794.945	346.45
795.126	315.73
795.306	254.29
795.487	301.39
795.667	285.01
795.848	293.2
796.028	256.34
796.209	229.71
796.389	317.78
796.57	313.68
796.75	223.57
796.93	342.35
797.111	172.37
797.291	207.19
797.471	262.48
797.652	266.58
797.832	244.05
798.012	307.54
798.192	280.91
798.373	219.47
798.553	196.95
798.733	342.35
798.913	264.53
799.093	250.19
799.274	215.38
799.454	285.01
799.634	264.53
799.814	256.34
799.994	303.44
800.174	278.87
800.354	276.82
800.534	223.57
800.714	278.87
800.894	219.47
801.074	162.13
801.254	192.85
801.434	260.43
801.614	190.8
801.794	141.65
801.974	620.88
802.154	246.1
802.334	297.3
802.514	168.27
802.693	203.09
802.873	268.63
803.053	278.87
803.233	289.1
803.413	217.43
803.592	246.1
803.772	198.99
803.952	166.23
804.131	268.63
804.311	198.99
804.491	274.77
804.67	205.14
804.85	250.19
805.03	231.76
805.209	174.42
805.389	176.47
805.568	162.13
805.748	166.23
805.928	178.51
806.107	231.76
806.287	151.89
806.466	176.47
806.646	186.71
806.825	176.47
807.004	235.86
807.184	196.95
807.363	203.09
807.543	242
807.722	188.75
807.901	198.99
808.081	155.99
808.26	100.69
808.439	215.38
808.619	192.85
808.798	153.94
808.977	139.6
809.156	225.62
809.336	172.37
809.515	192.85
809.694	139.6
809.873	194.9
810.052	229.71
810.231	248.15
810.411	207.19
810.59	164.18
810.769	174.42
810.948	198.99
811.127	170.32
811.306	127.32
811.485	160.08
811.664	219.47
811.843	250.19
812.022	182.61
812.201	153.94
812.38	186.71
812.559	178.51
812.737	270.67
812.916	143.7
813.095	209.23
813.274	233.81
813.453	151.89
813.632	149.84
813.811	168.27
813.989	110.93
814.168	186.71
814.347	61.78
814.526	139.6
814.704	196.95
814.883	166.23
815.062	129.36
815.24	158.03
815.419	110.93
815.598	162.13
815.776	129.36
815.955	119.12
816.133	63.83
816.312	100.69
816.49	131.41
816.669	188.75
816.847	194.9
817.026	141.65
817.204	92.5
817.383	135.51
817.561	135.51
817.74	194.9
817.918	141.65
818.097	147.8
818.275	86.36
818.453	147.8
818.632	141.65
818.81	102.74
818.988	61.78
819.167	98.64
819.345	147.8
819.523	115.03
819.701	127.32
819.879	125.27
820.058	125.27
820.236	141.65
820.414	125.27
820.592	201.04
820.77	196.95
820.948	110.93
821.127	115.03
821.305	98.64
821.483	131.41
821.661	88.4
821.839	131.41
822.017	119.12
822.195	135.51
822.373	137.56
822.551	82.26
822.729	106.84
822.907	92.5
823.085	153.94
823.262	37.2
823.44	155.99
823.618	174.42
823.796	94.55
823.974	149.84
824.152	63.83
824.329	63.83
824.507	51.54
824.685	129.36
824.863	149.84
825.04	47.44
825.218	141.65
825.396	61.78
825.574	98.64
825.751	106.84
825.929	102.74
826.107	98.64
826.284	98.64
826.462	94.55
826.639	129.36
826.817	110.93
826.994	139.6
827.172	115.03
827.349	90.45
827.527	121.17
827.704	112.98
827.882	117.08
828.059	104.79
828.237	72.02
828.414	143.7
828.591	137.56
828.769	108.88
828.946	121.17
829.124	65.88
829.301	129.36
829.478	151.89
829.655	67.92
829.833	90.45
830.01	22.87
830.187	127.32
830.364	53.59
830.542	117.08
830.719	158.03
830.896	74.07
831.073	55.64
831.25	65.88
831.427	57.68
831.604	41.3
831.782	108.88
831.959	61.78
832.136	69.97
832.313	170.32
832.49	123.22
832.667	39.25
832.844	37.2
833.021	31.06
833.198	131.41
833.374	67.92
833.551	94.55
833.728	123.22
833.905	14.68
834.082	67.92
834.259	55.64
834.436	80.21
834.612	67.92
834.789	82.26
834.966	104.79
835.143	137.56
835.319	8.53
835.496	88.4
835.673	45.4
835.85	57.68
836.026	59.73
836.203	125.27
836.38	125.27
836.556	43.35
836.733	139.6
836.909	151.89
837.086	74.07
837.262	82.26
837.439	45.4
837.616	78.16
837.792	65.88
837.968	96.6
838.145	76.12
838.321	-18.09
838.498	78.16
838.674	78.16
838.851	41.3
839.027	61.78
839.203	74.07
839.38	47.44
839.556	94.55
839.732	69.97
839.909	80.21
840.085	65.88
840.261	43.35
840.437	94.55
840.614	33.11
840.79	145.75
840.966	59.73
841.142	72.02
841.318	164.18
841.494	59.73
841.671	80.21
841.847	82.26
842.023	33.11
842.199	31.06
842.375	102.74
842.551	76.12
842.727	88.4
842.903	61.78
843.079	37.2
843.255	47.44
843.431	8.53
843.607	26.96
843.783	69.97
843.959	63.83
844.134	63.83
844.31	106.84
844.486	57.68
844.662	143.7
844.838	110.93
845.013	80.21
845.189	78.16
845.365	26.96
845.541	61.78
845.716	84.31
845.892	88.4
846.068	47.44
846.244	55.64
846.419	78.16
846.595	16.73
846.77	37.2
846.946	55.64
847.122	51.54
847.297	41.3
847.473	31.06
847.648	74.07
847.824	61.78
847.999	24.92
848.175	41.3
848.35	74.07
848.526	141.65
848.701	57.68
848.876	115.03
849.052	131.41
849.227	72.02
849.403	84.31
849.578	37.2
849.753	110.93
849.929	55.64
850.104	33.11
850.279	61.78
850.454	90.45
850.63	98.64
850.805	59.73
850.98	6.49
851.155	55.64
851.33	90.45
851.505	100.69
851.681	88.4
851.856	57.68
852.031	2.39
852.206	49.49
852.381	37.2
852.556	43.35
852.731	94.55
852.906	22.87
853.081	0.34
853.256	106.84
853.431	41.3
853.606	110.93
853.781	67.92
853.956	24.92
854.131	76.12
854.305	41.3
854.48	4.44
854.655	47.44
854.83	76.12
855.005	67.92
855.18	37.2
855.354	18.77
855.529	35.16
855.704	29.01
855.879	84.31
856.053	-5.8
856.228	76.12
856.403	-18.09
856.577	115.03
856.752	-16.04
856.926	41.3
857.101	-18.09
857.276	96.6
857.45	69.97
857.625	29.01
857.799	20.82
857.974	53.59
858.148	2.39
858.323	33.11
858.497	-34.47
858.672	39.25
858.846	65.88
859.02	108.88
859.195	39.25
859.369	37.2
859.543	26.96
859.718	121.17
859.892	74.07
860.066	-9.9
860.241	24.92
860.415	92.5
860.589	26.96
860.763	18.77
860.938	67.92
861.112	80.21
861.286	-32.43
861.46	-3.75
861.634	80.21
861.808	121.17
861.982	29.01
862.157	63.83
862.331	2.39
862.505	4.44
862.679	-11.95
862.853	24.92
863.027	16.73
863.201	104.79
863.375	45.4
863.549	10.58
863.722	47.44
863.896	45.4
864.07	84.31
864.244	31.06
864.418	35.16
864.592	29.01
864.766	33.11
864.939	0.34
865.113	53.59
865.287	16.73
865.461	39.25
865.634	-7.85
865.808	45.4
865.982	16.73
866.156	-54.95
866.329	37.2
866.503	-42.67
866.676	69.97
866.85	43.35
867.024	12.63
867.197	92.5
867.371	-32.43
867.544	-16.04
867.718	4.44
867.891	18.77
868.065	-13.99
868.238	63.83
868.412	41.3
868.585	4.44
868.759	80.21
868.932	53.59
869.105	8.53
869.279	20.82
869.452	51.54
869.625	-20.14
869.799	37.2
869.972	51.54
870.145	-40.62
870.319	65.88
870.492	59.73
870.665	76.12
870.838	63.83
871.011	24.92
871.185	-20.14
871.358	63.83
871.531	65.88
871.704	-16.04
871.877	12.63
872.05	78.16
872.223	20.82
872.396	53.59
872.569	-11.95
872.742	-48.81
872.915	-1.71
873.088	2.39
873.261	-1.71
873.434	39.25
873.607	45.4
873.78	65.88
873.953	37.2
874.126	14.68
874.299	35.16
874.471	24.92
874.644	47.44
874.817	55.64
874.99	104.79
875.163	84.31
875.335	63.83
875.508	51.54
875.681	18.77
875.853	29.01
876.026	88.4
876.199	16.73
876.371	49.49
876.544	80.21
876.717	31.06
876.889	0.34
877.062	45.4
877.234	24.92
877.407	37.2
877.579	31.06
877.752	-7.85
877.924	67.92
878.097	61.78
878.269	29.01
878.442	-9.9
878.614	4.44
878.786	31.06
878.959	-24.23
879.131	14.68
879.303	-22.19
879.476	37.2
879.648	24.92
879.82	47.44
879.993	10.58
880.165	20.82
880.337	55.64
880.509	61.78
880.681	29.01
880.854	-7.85
881.026	51.54
881.198	94.55
881.37	4.44
881.542	49.49
881.714	-1.71
881.886	37.2
882.058	41.3
882.23	14.68
882.402	41.3
882.574	53.59
882.746	45.4
882.918	47.44
883.09	6.49
883.262	45.4
883.434	47.44
883.606	-42.67
883.778	45.4
883.95	35.16
884.122	-18.09
884.293	104.79
884.465	-3.75
884.637	65.88
884.809	35.16
884.98	53.59
885.152	22.87
885.324	37.2
885.496	-57
885.667	4.44
885.839	-26.28
886.011	29.01
886.182	57.68
886.354	-28.33
886.525	41.3
886.697	72.02
886.869	51.54
887.04	-118.44
887.212	-5.8
887.383	59.73
887.555	24.92
887.726	39.25
887.897	43.35
888.069	41.3
888.24	96.6
888.412	33.11
888.583	10.58
888.754	51.54
888.926	-61.1
889.097	37.2
889.268	-1.71
889.44	55.64
889.611	65.88
889.782	-9.9
889.953	94.55
890.125	-3.75
890.296	-13.99
890.467	-5.8
890.638	6.49
890.809	31.06
890.98	26.96
891.151	45.4
891.323	2.39
891.494	43.35
891.665	59.73
891.836	20.82
892.007	59.73
892.178	6.49
892.349	63.83
892.52	49.49
892.691	-40.62
892.862	20.82
893.032	-3.75
893.203	10.58
893.374	55.64
893.545	76.12
893.716	43.35
893.887	61.78
894.057	33.11
894.228	80.21
894.399	-22.19
894.57	61.78
894.74	43.35
894.911	-20.14
895.082	41.3
895.253	49.49
895.423	2.39
895.594	53.59
895.764	72.02
895.935	43.35
896.106	-11.95
896.276	26.96
896.447	-16.04
896.617	24.92
896.788	0.34
896.958	2.39
897.129	29.01
897.299	47.44
897.47	26.96
897.64	-57
897.81	-3.75
897.981	43.35
898.151	76.12
898.322	0.34
898.492	22.87
898.662	53.59
898.832	29.01
899.003	61.78
899.173	33.11
899.343	-65.19
899.513	61.78
