Data from USB4F104151__14__12-00-25-053.txt Node

Date: Fri Mar 14 12:00:25 EDT 2025
User: louis
Spectrometer: USB4F10415
Trigger mode: 4
Integration Time (sec): 2.000000E-2
Scans to average: 1
Electric dark correction enabled: true
Nonlinearity correction enabled: false
Boxcar width: 0
XAxis mode: Wavelengths
Number of Pixels in Spectrum: 3648
>>>>>Begin Spectral Data<<<<<
178.204	-80.21
178.424	-80.21
178.644	-80.21
178.864	-80.21
179.084	-115.03
179.304	7.85
179.524	30.38
179.744	-29.01
179.964	65.19
180.184	46.76
180.404	-29.01
180.624	16.04
180.844	-4.44
181.064	-110.93
181.283	24.23
181.503	44.71
181.723	-61.78
181.943	-29.01
182.163	-16.73
182.383	-26.96
182.602	-18.77
182.822	16.04
183.042	-43.35
183.262	-12.63
183.482	13.99
183.701	42.67
183.921	34.47
184.141	1.71
184.361	95.91
184.58	40.62
184.8	44.71
185.02	-10.58
185.239	81.58
185.459	-16.73
185.679	50.86
185.898	-65.88
186.118	-55.64
186.338	46.76
186.557	38.57
186.777	57
186.997	-35.16
187.216	57
187.436	126.63
187.655	91.82
187.875	73.39
188.095	-26.96
188.314	75.43
188.534	48.81
188.753	48.81
188.973	-2.39
189.192	-2.39
189.412	26.28
189.631	75.43
189.851	-41.3
190.07	9.9
190.29	-12.63
190.509	54.95
190.729	-41.3
190.948	54.95
191.168	161.45
191.387	38.57
191.607	-18.77
191.826	75.43
192.045	-10.58
192.265	-47.44
192.484	26.28
192.704	5.8
192.923	40.62
193.142	153.26
193.362	11.95
193.581	-2.39
193.8	57
194.02	18.09
194.239	-51.54
194.458	38.57
194.678	16.04
194.897	-20.82
195.116	-37.2
195.335	87.72
195.555	-18.77
195.774	5.8
195.993	126.63
196.212	40.62
196.432	87.72
196.651	-0.34
196.87	-10.58
197.089	38.57
197.308	46.76
197.528	11.95
197.747	32.43
197.966	-31.06
198.185	108.2
198.404	11.95
198.623	50.86
198.842	57
199.062	18.09
199.281	93.87
199.5	-2.39
199.719	65.19
199.938	1.71
200.157	9.9
200.376	38.57
200.595	34.47
200.814	-2.39
201.033	-2.39
201.252	46.76
201.471	11.95
201.69	36.52
201.909	120.49
202.128	-14.68
202.347	71.34
202.566	93.87
202.785	-24.92
203.004	22.19
203.223	106.15
203.442	73.39
203.661	-67.92
203.879	13.99
204.098	-39.25
204.317	61.1
204.536	81.58
204.755	16.04
204.974	-35.16
205.193	-20.82
205.411	87.72
205.63	5.8
205.849	-31.06
206.068	44.71
206.287	128.68
206.505	50.86
206.724	-14.68
206.943	-6.49
207.162	104.11
207.381	-26.96
207.599	3.75
207.818	7.85
208.037	38.57
208.255	7.85
208.474	50.86
208.693	104.11
208.911	13.99
209.13	61.1
209.349	42.67
209.567	46.76
209.786	69.29
210.005	20.14
210.223	-31.06
210.442	-29.01
210.661	-26.96
210.879	3.75
211.098	110.25
211.316	-31.06
211.535	-20.82
211.753	44.71
211.972	61.1
212.191	24.23
212.409	-22.87
212.628	-20.82
212.846	54.95
213.065	85.67
213.283	46.76
213.502	67.24
213.72	30.38
213.938	104.11
214.157	-65.88
214.375	42.67
214.594	-20.82
214.812	57
215.031	28.33
215.249	18.09
215.467	85.67
215.686	9.9
215.904	71.34
216.122	83.63
216.341	46.76
216.559	28.33
216.778	48.81
216.996	83.63
217.214	36.52
217.432	24.23
217.651	-22.87
217.869	-4.44
218.087	18.09
218.306	-2.39
218.524	57
218.742	7.85
218.96	34.47
219.179	18.09
219.397	-10.58
219.615	75.43
219.833	52.91
220.051	38.57
220.27	28.33
220.488	18.09
220.706	57
220.924	63.15
221.142	67.24
221.36	44.71
221.578	-12.63
221.796	18.09
222.015	83.63
222.233	-6.49
222.451	54.95
222.669	22.19
222.887	34.47
223.105	9.9
223.323	1.71
223.541	79.53
223.759	93.87
223.977	38.57
224.195	-0.34
224.413	5.8
224.631	13.99
224.849	50.86
225.067	116.39
225.285	16.04
225.503	-24.92
225.721	16.04
225.939	48.81
226.157	-4.44
226.375	147.11
226.592	20.14
226.81	-8.53
227.028	52.91
227.246	95.91
227.464	18.09
227.682	28.33
227.9	-10.58
228.117	-6.49
228.335	50.86
228.553	36.52
228.771	16.04
228.989	-10.58
229.206	11.95
229.424	73.39
229.642	36.52
229.86	110.25
230.077	73.39
230.295	24.23
230.513	28.33
230.731	-14.68
230.948	38.57
231.166	-4.44
231.384	26.28
231.601	36.52
231.819	38.57
232.037	-16.73
232.254	1.71
232.472	9.9
232.689	-31.06
232.907	57
233.125	13.99
233.342	16.04
233.56	9.9
233.777	122.54
233.995	24.23
234.213	106.15
234.43	3.75
234.648	24.23
234.865	36.52
235.083	36.52
235.3	116.39
235.518	20.14
235.735	-49.49
235.953	122.54
236.17	38.57
236.388	122.54
236.605	3.75
236.822	102.06
237.04	-8.53
237.257	69.29
237.475	-2.39
237.692	32.43
237.909	40.62
238.127	34.47
238.344	61.1
238.562	-16.73
238.779	-26.96
238.996	-39.25
239.214	1.71
239.431	54.95
239.648	67.24
239.865	85.67
240.083	-47.44
240.3	13.99
240.517	16.04
240.735	-6.49
240.952	26.28
241.169	34.47
241.386	9.9
241.603	-10.58
241.821	-0.34
242.038	57
242.255	5.8
242.472	3.75
242.689	7.85
242.907	48.81
243.124	-4.44
243.341	59.05
243.558	16.04
243.775	-6.49
243.992	5.8
244.209	65.19
244.426	42.67
244.643	26.28
244.86	30.38
245.078	5.8
245.295	16.04
245.512	89.77
245.729	-8.53
245.946	-10.58
246.163	11.95
246.38	-16.73
246.597	13.99
246.814	34.47
247.031	-31.06
247.248	-35.16
247.464	40.62
247.681	32.43
247.898	108.2
248.115	20.14
248.332	18.09
248.549	91.82
248.766	59.05
248.983	87.72
249.2	-18.77
249.417	36.52
249.633	1.71
249.85	73.39
250.067	-29.01
250.284	77.48
250.501	46.76
250.717	18.09
250.934	18.09
251.151	69.29
251.368	-26.96
251.585	85.67
251.801	46.76
252.018	-41.3
252.235	28.33
252.451	11.95
252.668	24.23
252.885	42.67
253.102	65.19
253.318	30.38
253.535	-14.68
253.752	-26.96
253.968	50.86
254.185	-53.59
254.401	-18.77
254.618	57
254.835	52.91
255.051	13.99
255.268	26.28
255.484	-0.34
255.701	73.39
255.917	63.15
256.134	-0.34
256.351	1.71
256.567	7.85
256.784	54.95
257	-24.92
257.217	104.11
257.433	57
257.65	93.87
257.866	7.85
258.082	-0.34
258.299	28.33
258.515	63.15
258.732	30.38
258.948	-2.39
259.165	34.47
259.381	30.38
259.597	106.15
259.814	52.91
260.03	50.86
260.246	36.52
260.463	71.34
260.679	34.47
260.895	59.05
261.112	67.24
261.328	79.53
261.544	20.14
261.761	46.76
261.977	42.67
262.193	11.95
262.409	34.47
262.626	-18.77
262.842	-41.3
263.058	16.04
263.274	57
263.49	44.71
263.707	79.53
263.923	-59.73
264.139	65.19
264.355	3.75
264.571	147.11
264.787	30.38
265.004	38.57
265.22	44.71
265.436	-0.34
265.652	46.76
265.868	-0.34
266.084	44.71
266.3	44.71
266.516	-29.01
266.732	18.09
266.948	106.15
267.164	26.28
267.38	-20.82
267.596	75.43
267.812	87.72
268.028	30.38
268.244	-12.63
268.46	63.15
268.676	38.57
268.892	18.09
269.108	-0.34
269.324	30.38
269.54	16.04
269.756	48.81
269.972	-10.58
270.188	20.14
270.403	26.28
270.619	34.47
270.835	-39.25
271.051	32.43
271.267	40.62
271.483	-31.06
271.698	9.9
271.914	-14.68
272.13	36.52
272.346	83.63
272.562	122.54
272.777	36.52
272.993	-18.77
273.209	-12.63
273.425	-14.68
273.64	30.38
273.856	24.23
274.072	65.19
274.287	24.23
274.503	73.39
274.719	59.05
274.934	28.33
275.15	-2.39
275.366	46.76
275.581	52.91
275.797	50.86
276.012	26.28
276.228	57
276.444	-33.11
276.659	85.67
276.875	-67.92
277.09	7.85
277.306	-4.44
277.521	20.14
277.737	42.67
277.952	38.57
278.168	44.71
278.383	67.24
278.599	32.43
278.814	-0.34
279.03	34.47
279.245	102.06
279.461	-4.44
279.676	32.43
279.892	36.52
280.107	1.71
280.322	-10.58
280.538	5.8
280.753	48.81
280.969	26.28
281.184	71.34
281.399	128.68
281.615	-24.92
281.83	-4.44
282.045	-26.96
282.26	-2.39
282.476	7.85
282.691	11.95
282.906	59.05
283.122	91.82
283.337	-10.58
283.552	108.2
283.767	-8.53
283.983	63.15
284.198	42.67
284.413	93.87
284.628	-4.44
284.843	26.28
285.058	61.1
285.274	16.04
285.489	110.25
285.704	87.72
285.919	30.38
286.134	120.49
286.349	95.91
286.564	46.76
286.779	48.81
286.995	-26.96
287.21	44.71
287.425	75.43
287.64	16.04
287.855	9.9
288.07	16.04
288.285	71.34
288.5	81.58
288.715	9.9
288.93	69.29
289.145	26.28
289.36	34.47
289.575	63.15
289.79	77.48
290.004	-6.49
290.219	28.33
290.434	-4.44
290.649	5.8
290.864	26.28
291.079	69.29
291.294	26.28
291.509	40.62
291.724	81.58
291.938	93.87
292.153	18.09
292.368	-4.44
292.583	57
292.798	-20.82
293.012	83.63
293.227	1.71
293.442	67.24
293.657	128.68
293.871	67.24
294.086	-18.77
294.301	67.24
294.516	54.95
294.73	48.81
294.945	-43.35
295.16	65.19
295.374	112.3
295.589	9.9
295.804	-8.53
296.018	11.95
296.233	83.63
296.447	77.48
296.662	110.25
296.877	73.39
297.091	36.52
297.306	65.19
297.52	-0.34
297.735	48.81
297.949	65.19
298.164	-0.34
298.378	34.47
298.593	16.04
298.807	42.67
299.022	9.9
299.236	36.52
299.451	34.47
299.665	38.57
299.88	32.43
300.094	-14.68
300.309	7.85
300.523	1.71
300.737	16.04
300.952	87.72
301.166	77.48
301.381	-29.01
301.595	46.76
301.809	57
302.024	-18.77
302.238	26.28
302.452	40.62
302.667	46.76
302.881	36.52
303.095	40.62
303.309	52.91
303.524	3.75
303.738	42.67
303.952	-8.53
304.166	89.77
304.381	-37.2
304.595	40.62
304.809	-45.4
305.023	36.52
305.237	65.19
305.452	-6.49
305.666	65.19
305.88	20.14
306.094	59.05
306.308	38.57
306.522	26.28
306.736	-8.53
306.95	38.57
307.164	18.09
307.379	-26.96
307.593	118.44
307.807	46.76
308.021	-10.58
308.235	52.91
308.449	24.23
308.663	1.71
308.877	52.91
309.091	77.48
309.305	95.91
309.519	-6.49
309.733	91.82
309.947	71.34
310.161	108.2
310.374	87.72
310.588	124.58
310.802	-43.35
311.016	57
311.23	61.1
311.444	44.71
311.658	7.85
311.872	89.77
312.085	75.43
312.299	26.28
312.513	73.39
312.727	50.86
312.941	-22.87
313.154	-33.11
313.368	54.95
313.582	83.63
313.796	13.99
314.009	-26.96
314.223	54.95
314.437	44.71
314.651	20.14
314.864	104.11
315.078	77.48
315.292	61.1
315.505	26.28
315.719	79.53
315.933	18.09
316.146	26.28
316.36	30.38
316.573	5.8
316.787	57
317.001	114.34
317.214	-35.16
317.428	108.2
317.641	24.23
317.855	1.71
318.068	-6.49
318.282	24.23
318.495	128.68
318.709	54.95
318.922	79.53
319.136	71.34
319.349	28.33
319.563	26.28
319.776	95.91
319.99	20.14
320.203	11.95
320.417	38.57
320.63	13.99
320.843	65.19
321.057	102.06
321.27	32.43
321.483	83.63
321.697	30.38
321.91	75.43
322.124	-10.58
322.337	73.39
322.55	-49.49
322.763	93.87
322.977	-12.63
323.19	26.28
323.403	-18.77
323.617	-4.44
323.83	46.76
324.043	52.91
324.256	91.82
324.469	-33.11
324.683	71.34
324.896	50.86
325.109	38.57
325.322	34.47
325.535	11.95
325.748	67.24
325.962	-6.49
326.175	28.33
326.388	128.68
326.601	40.62
326.814	48.81
327.027	50.86
327.24	44.71
327.453	-26.96
327.666	16.04
327.879	18.09
328.092	46.76
328.305	54.95
328.518	5.8
328.731	-16.73
328.944	77.48
329.157	-39.25
329.37	-10.58
329.583	63.15
329.796	87.72
330.009	16.04
330.222	22.19
330.435	93.87
330.648	28.33
330.861	165.54
331.073	63.15
331.286	69.29
331.499	71.34
331.712	75.43
331.925	52.91
332.138	22.19
332.35	65.19
332.563	50.86
332.776	30.38
332.989	91.82
333.202	97.96
333.414	30.38
333.627	120.49
333.84	34.47
334.053	42.67
334.265	50.86
334.478	36.52
334.691	75.43
334.903	-14.68
335.116	-0.34
335.329	67.24
335.541	24.23
335.754	128.68
335.966	-0.34
336.179	77.48
336.392	91.82
336.604	89.77
336.817	50.86
337.029	61.1
337.242	65.19
337.454	26.28
337.667	85.67
337.88	65.19
338.092	46.76
338.305	7.85
338.517	-55.64
338.729	110.25
338.942	26.28
339.154	87.72
339.367	9.9
339.579	3.75
339.792	32.43
340.004	52.91
340.217	50.86
340.429	114.34
340.641	48.81
340.854	91.82
341.066	-35.16
341.278	-2.39
341.491	32.43
341.703	52.91
341.915	28.33
342.128	75.43
342.34	-10.58
342.552	36.52
342.764	61.1
342.977	59.05
343.189	9.9
343.401	50.86
343.613	-12.63
343.826	32.43
344.038	-16.73
344.25	18.09
344.462	124.58
344.674	61.1
344.886	38.57
345.099	34.47
345.311	18.09
345.523	-16.73
345.735	67.24
345.947	42.67
346.159	20.14
346.371	22.19
346.583	22.19
346.795	40.62
347.007	18.09
347.219	-6.49
347.431	59.05
347.643	91.82
347.855	69.29
348.067	46.76
348.279	63.15
348.491	13.99
348.703	22.19
348.915	102.06
349.127	-8.53
349.339	75.43
349.551	95.91
349.763	83.63
349.975	13.99
350.187	57
350.399	97.96
350.61	114.34
350.822	36.52
351.034	38.57
351.246	110.25
351.458	-2.39
351.669	-8.53
351.881	71.34
352.093	87.72
352.305	126.63
352.517	81.58
352.728	102.06
352.94	57
353.152	50.86
353.363	54.95
353.575	69.29
353.787	59.05
353.999	77.48
354.21	32.43
354.422	54.95
354.633	73.39
354.845	46.76
355.057	54.95
355.268	77.48
355.48	120.49
355.692	46.76
355.903	11.95
356.115	3.75
356.326	50.86
356.538	93.87
356.749	52.91
356.961	5.8
357.172	48.81
357.384	50.86
357.595	97.96
357.807	81.58
358.018	91.82
358.23	128.68
358.441	93.87
358.653	22.19
358.864	52.91
359.075	38.57
359.287	57
359.498	28.33
359.709	91.82
359.921	134.82
360.132	79.53
360.344	18.09
360.555	30.38
360.766	46.76
360.977	20.14
361.189	40.62
361.4	149.16
361.611	71.34
361.823	26.28
362.034	83.63
362.245	65.19
362.456	26.28
362.667	18.09
362.879	36.52
363.09	-41.3
363.301	67.24
363.512	63.15
363.723	-31.06
363.935	50.86
364.146	91.82
364.357	73.39
364.568	71.34
364.779	73.39
364.99	57
365.201	24.23
365.412	77.48
365.623	79.53
365.834	102.06
366.045	67.24
366.256	77.48
366.467	11.95
366.678	89.77
366.889	102.06
367.1	44.71
367.311	-35.16
367.522	5.8
367.733	108.2
367.944	71.34
368.155	40.62
368.366	71.34
368.577	59.05
368.788	124.58
368.999	61.1
369.209	69.29
369.42	85.67
369.631	87.72
369.842	57
370.053	73.39
370.264	75.43
370.474	1.71
370.685	69.29
370.896	44.71
371.107	42.67
371.317	54.95
371.528	67.24
371.739	44.71
371.95	63.15
372.16	28.33
372.371	-29.01
372.582	3.75
372.792	32.43
373.003	79.53
373.214	65.19
373.424	118.44
373.635	48.81
373.846	18.09
374.056	32.43
374.267	91.82
374.477	38.57
374.688	-12.63
374.898	38.57
375.109	48.81
375.319	91.82
375.53	97.96
375.74	-29.01
375.951	71.34
376.161	50.86
376.372	61.1
376.582	81.58
376.793	42.67
377.003	73.39
377.214	81.58
377.424	65.19
377.635	108.2
377.845	28.33
378.055	77.48
378.266	-6.49
378.476	48.81
378.686	-2.39
378.897	102.06
379.107	93.87
379.317	89.77
379.528	46.76
379.738	81.58
379.948	7.85
380.158	67.24
380.369	100.01
380.579	50.86
380.789	26.28
380.999	46.76
381.21	11.95
381.42	18.09
381.63	50.86
381.84	65.19
382.05	108.2
382.261	30.38
382.471	89.77
382.681	65.19
382.891	73.39
383.101	13.99
383.311	40.62
383.521	32.43
383.731	75.43
383.941	63.15
384.151	100.01
384.361	83.63
384.571	46.76
384.781	81.58
384.991	110.25
385.201	138.92
385.411	20.14
385.621	48.81
385.831	75.43
386.041	61.1
386.251	52.91
386.461	106.15
386.671	-24.92
386.881	102.06
387.091	104.11
387.301	116.39
387.511	54.95
387.72	124.58
387.93	11.95
388.14	67.24
388.35	63.15
388.56	81.58
388.769	140.97
388.979	83.63
389.189	13.99
389.399	50.86
389.609	93.87
389.818	85.67
390.028	83.63
390.238	106.15
390.447	63.15
390.657	3.75
390.867	126.63
391.076	112.3
391.286	79.53
391.496	77.48
391.705	48.81
391.915	106.15
392.125	140.97
392.334	95.91
392.544	83.63
392.753	93.87
392.963	-0.34
393.172	59.05
393.382	122.54
393.591	120.49
393.801	79.53
394.01	104.11
394.22	104.11
394.429	112.3
394.639	65.19
394.848	157.35
395.058	157.35
395.267	65.19
395.477	110.25
395.686	87.72
395.895	100.01
396.105	153.26
396.314	136.87
396.524	93.87
396.733	67.24
396.942	136.87
397.152	87.72
397.361	87.72
397.57	65.19
397.78	48.81
397.989	97.96
398.198	65.19
398.407	120.49
398.617	145.06
398.826	128.68
399.035	181.93
399.244	147.11
399.453	95.91
399.663	120.49
399.872	161.45
400.081	59.05
400.29	183.98
400.499	108.2
400.708	128.68
400.917	106.15
401.127	110.25
401.336	24.23
401.545	243.37
401.754	118.44
401.963	63.15
402.172	83.63
402.381	120.49
402.59	134.82
402.799	155.3
403.008	220.84
403.217	151.21
403.426	112.3
403.635	57
403.844	138.92
404.053	116.39
404.262	100.01
404.471	210.6
404.68	159.4
404.888	188.07
405.097	177.83
405.306	153.26
405.515	196.26
405.724	143.02
405.933	249.51
406.142	247.46
406.35	179.88
406.559	124.58
406.768	186.02
406.977	280.23
407.185	155.3
407.394	235.18
407.603	239.27
407.812	190.12
408.02	263.85
408.229	241.32
408.438	259.75
408.646	249.51
408.855	278.18
409.064	237.22
409.272	298.66
409.481	253.61
409.69	288.42
409.898	286.37
410.107	360.1
410.315	378.53
410.524	331.43
410.733	431.78
410.941	392.87
411.15	442.02
411.358	439.97
411.567	472.74
411.775	335.53
411.984	458.4
412.192	528.03
412.401	485.03
412.609	575.14
412.818	550.56
413.026	538.27
413.234	548.51
413.443	581.28
413.651	562.85
413.86	605.86
414.068	743.07
414.276	624.29
414.485	732.83
414.693	702.11
414.901	700.06
415.11	724.64
415.318	880.29
415.526	818.85
415.734	790.17
415.943	888.48
416.151	888.48
416.359	984.73
416.567	1027.74
416.776	1009.31
416.984	1040.03
417.192	1101.47
417.4	1134.23
417.608	1140.38
417.817	1134.23
418.025	1279.64
418.233	1373.85
418.441	1277.59
418.649	1359.51
418.857	1457.81
419.065	1449.62
419.273	1478.29
419.481	1533.59
419.689	1597.07
419.897	1791.63
420.105	1758.86
420.313	1715.86
420.521	1822.35
420.729	1820.3
420.937	1982.09
421.145	2008.72
421.353	2184.84
421.561	2162.31
421.769	2254.47
421.977	2408.07
422.185	2242.18
422.393	2381.45
422.601	2559.62
422.809	2573.96
423.017	2571.91
423.224	2571.91
423.432	2811.52
423.64	2817.66
423.848	3106.43
424.056	2987.65
424.263	3380.86
424.471	3274.36
424.679	3364.47
424.887	3526.26
425.094	3643
425.302	3624.56
425.51	3780.21
425.718	3946.09
425.925	3802.74
426.133	4034.16
426.341	4214.38
426.548	4537.96
426.756	4492.9
426.964	4634.21
427.171	4773.47
427.379	4888.16
427.586	5045.85
427.794	5099.1
428.001	5523.03
428.209	5705.3
428.417	5412.44
428.624	5897.81
428.832	6020.69
429.039	5926.48
429.247	5918.29
429.454	6381.13
429.662	6835.78
429.869	6401.61
430.076	6860.35
430.284	6641.22
430.491	7085.63
430.699	7255.61
430.906	7454.26
431.114	7382.59
431.321	7798.32
431.528	7910.96
431.736	8502.82
431.943	8805.92
432.15	8594.98
432.358	8433.19
432.565	9293.34
432.772	9287.2
432.979	9633.3
433.187	9608.73
433.394	9829.91
433.601	10413.58
433.808	10561.03
434.016	10440.2
434.223	10995.2
434.43	11552.25
434.637	11341.31
434.844	12094.96
435.052	12359.15
435.259	12318.19
435.466	12344.81
435.673	12072.43
435.88	12942.82
436.087	13313.5
436.294	13647.32
436.501	13372.89
436.708	13491.68
436.915	14187.99
437.122	14759.37
437.329	14724.55
437.537	15097.28
437.743	15441.34
437.95	15343.04
438.157	16104.88
438.364	16479.66
438.571	16434.61
438.778	16608.69
438.985	18214.29
439.192	17802.65
439.399	18400.66
439.606	17948.06
439.813	18900.36
440.02	19875.2
440.227	19725.69
440.433	19373.44
440.64	20221.3
440.847	20215.16
441.054	20452.72
441.261	21652.83
441.467	21556.58
441.674	21865.82
441.881	22990.16
442.088	22965.58
442.294	22676.82
442.501	23098.7
442.708	23489.86
442.914	24511.8
443.121	25816.35
443.328	24780.08
443.534	26651.92
443.741	25724.19
443.948	25627.94
444.154	27335.95
444.361	27641.09
444.568	27716.87
444.774	27288.84
444.981	27739.4
445.187	28603.64
445.394	29967.59
445.6	29697.25
445.807	32128.19
446.013	31055.06
446.22	31395.02
446.426	32656.57
446.633	32832.69
446.839	33948.84
447.046	32693.43
447.252	34544.8
447.459	34307.23
447.665	34219.17
447.871	35736.71
448.078	37127.28
448.284	35339.41
448.491	36627.58
448.697	38118.5
448.903	38761.56
449.11	38741.08
449.316	37987.43
449.522	38800.47
449.728	39681.1
449.935	40408.13
450.141	39967.82
450.347	40711.23
450.553	39564.37
450.76	40082.5
450.966	41180.21
451.172	40768.57
451.378	42095.66
451.584	41129.02
451.791	42226.73
451.997	42019.88
452.203	42527.78
452.409	42609.7
452.615	42030.12
452.821	40741.95
453.027	40293.44
453.233	42075.18
453.44	40596.54
453.646	40981.56
453.852	41280.56
454.058	41694.25
454.264	40641.6
454.47	41270.32
454.676	40186.95
454.882	41817.13
455.088	38075.49
455.294	38753.37
455.5	39267.41
455.705	39380.05
455.911	37489.77
456.117	36961.4
456.323	36584.57
456.529	34905.24
456.735	36146.31
456.941	35464.33
457.147	34653.34
457.352	33541.29
457.558	33053.87
457.764	33279.15
457.97	32507.07
458.176	31792.33
458.381	32083.14
458.587	30364.89
458.793	30000.35
458.999	28886.26
459.204	30674.13
459.41	29830.37
459.616	27892.99
459.821	27573.51
460.027	27540.74
460.233	26957.07
460.438	26000.67
460.644	25902.37
460.85	25023.79
461.055	24341.82
461.261	24534.32
461.466	22433.11
461.672	21869.92
461.878	23539.01
462.083	21841.25
462.289	21316.97
462.494	21382.5
462.7	20485.49
462.905	19778.94
463.111	20323.7
463.316	20452.72
463.522	19926.39
463.727	20135.29
463.932	20049.27
464.138	19985.79
464.343	19975.55
464.549	19498.37
464.754	19893.63
464.959	19944.83
465.165	19750.27
465.37	18662.8
465.575	18398.61
465.781	19213.7
465.986	19103.11
466.191	18615.69
466.397	18144.66
466.602	17278.37
466.807	17851.8
467.012	18134.42
467.218	18034.07
467.423	17782.17
467.628	17819.03
467.833	18603.41
468.038	17943.96
468.244	17257.89
468.449	18001.3
468.654	17200.55
468.859	17221.03
469.064	17266.08
469.269	16344.5
469.474	16537.01
469.679	16735.66
469.885	16580.01
470.09	16571.82
470.295	16387.5
470.5	16221.62
470.705	16244.15
470.91	15908.28
471.115	15783.35
471.32	15996.34
471.525	15883.7
471.73	15594.94
471.935	15594.94
472.139	14966.21
472.344	14994.89
472.549	14919.11
472.754	14794.18
472.959	14380.5
473.164	14058.96
473.369	14063.06
473.574	14480.85
473.778	14204.37
473.983	14048.72
474.188	14151.12
474.393	13485.53
474.598	13387.23
474.802	13329.89
475.007	13139.43
475.212	13350.37
475.417	12766.7
475.621	12803.56
475.826	12920.29
476.031	12824.04
476.235	12266.99
476.44	12623.34
476.645	12299.76
476.849	12221.94
477.054	12113.39
477.259	11965.94
477.463	11853.3
477.668	11640.31
477.872	11621.88
478.077	11406.84
478.282	11175.42
478.486	11216.38
478.691	11113.99
478.895	11109.89
479.1	11156.99
479.304	11054.59
479.509	10597.9
479.713	11048.45
479.918	10733.06
480.122	10513.93
480.326	10774.02
480.531	10647.05
480.735	10675.72
480.94	10507.79
481.144	10931.72
481.348	10362.38
481.553	10374.67
481.757	10298.89
481.961	10470.92
482.166	10561.03
482.37	10513.93
482.574	10075.66
482.778	10237.45
482.983	10454.54
483.187	10143.25
483.391	10122.77
483.595	10200.59
483.8	10225.17
484.004	10358.28
484.208	10382.86
484.412	10249.74
484.616	10337.8
484.821	10378.76
485.025	10118.67
485.229	10558.99
485.433	10065.43
485.637	10286.61
485.841	10208.78
486.045	10315.28
486.249	10372.62
486.453	10186.26
486.657	10264.08
486.861	10173.97
487.065	10008.08
487.269	10210.83
487.473	9819.67
487.677	10204.69
487.881	10456.59
488.085	10317.33
488.289	10282.51
488.493	10137.1
488.697	10309.13
488.901	10397.2
489.105	10114.58
489.309	10401.29
489.512	10538.51
489.716	10288.65
489.92	10118.67
490.124	10421.77
490.328	10612.23
490.531	10440.2
490.735	10458.64
490.939	10761.73
491.143	10419.72
491.346	10335.76
491.55	10751.49
491.754	10454.54
491.958	10907.14
492.161	10642.95
492.365	10761.73
492.569	10653.19
492.772	10737.16
492.976	10884.61
493.18	10974.72
493.383	10948.1
493.587	11032.07
493.79	11200
493.994	11064.83
494.197	11312.64
494.401	11527.67
494.605	11251.2
494.808	11632.12
495.012	11523.58
495.215	11857.4
495.419	11664.89
495.622	11814.39
495.825	11879.93
496.029	11998.71
496.232	12121.59
496.436	11943.41
496.639	12469.74
496.843	12133.87
497.046	12756.46
497.249	12688.87
497.453	12789.22
497.656	12680.68
497.859	12824.04
498.063	12944.87
498.266	13104.61
498.469	13172.19
498.673	13100.51
498.876	13755.86
499.079	13778.39
499.282	13719
499.485	13778.39
499.689	14052.82
499.892	14224.85
500.095	14505.42
500.298	14794.18
500.501	14325.2
500.705	14812.62
500.908	15119.81
501.111	15138.24
501.314	15601.08
501.517	15480.25
501.72	15633.85
501.923	15457.73
502.126	16074.17
502.329	16254.39
502.532	16059.83
502.735	16350.64
502.938	16739.76
503.141	16801.19
503.344	17139.11
503.547	17098.15
503.75	17186.21
503.953	17487.26
504.156	17661.34
504.359	17900.95
504.562	18060.7
504.765	18607.5
504.968	18673.04
505.17	18793.87
505.373	18730.38
505.576	19029.38
505.779	19199.37
505.982	19447.17
506.185	19637.63
506.387	19692.93
506.59	19920.25
506.793	20237.69
506.996	20198.77
507.198	20690.29
507.401	20759.92
507.604	20725.1
507.807	21421.41
508.009	21257.57
508.212	21402.98
508.415	21982.56
508.617	21984.6
508.82	22519.12
509.022	22209.88
509.225	23004.49
509.428	23029.07
509.63	22822.22
509.833	23246.15
510.035	23840.06
510.238	23536.96
510.44	24001.85
510.643	23993.66
510.845	24317.24
511.048	24491.32
511.25	24818.99
511.453	24591.67
511.655	25689.38
511.858	25195.82
512.06	25279.78
512.262	25505.06
512.465	25896.22
512.667	26332.44
512.87	26490.13
513.072	26633.49
513.274	27139.34
513.477	27364.62
513.679	27428.1
513.881	27782.4
514.084	28261.63
514.286	28015.87
514.488	28163.32
514.69	29158.64
514.893	29142.25
515.095	29238.51
515.297	29621.48
515.499	29754.6
515.701	29955.3
515.904	30395.61
516.106	30541.02
516.308	30606.55
516.51	30866.64
516.712	30741.72
516.914	31128.78
517.116	31853.76
517.318	31419.6
517.52	32120
517.722	32611.51
517.925	32298.17
518.127	32679.1
518.329	32922.8
518.531	32926.9
518.733	33531.05
518.935	33776.81
519.136	33801.38
519.338	34389.15
519.54	34741.4
519.742	34634.91
519.944	34845.85
520.146	35484.81
520.348	35669.13
520.55	35808.39
520.752	35931.27
520.954	36201.6
521.155	36314.24
521.357	36521.09
521.559	36715.64
521.761	37348.46
521.963	37153.91
522.164	37551.21
522.366	37610.6
522.568	38153.32
522.77	38143.08
522.971	38845.53
523.173	38687.84
523.375	38401.12
523.576	38306.91
523.778	38779.99
523.98	39271.51
524.181	39486.54
524.383	39642.19
524.584	39849.03
524.786	40098.89
524.988	40205.38
525.189	40485.95
525.391	40569.92
525.592	40459.33
525.794	40836.16
525.995	40991.8
526.197	41186.36
526.398	41053.24
526.6	41184.31
526.801	41571.38
527.003	41602.1
527.204	41630.77
527.406	42187.81
527.607	41899.05
527.808	42454.05
528.01	41647.15
528.211	42206.25
528.412	42824.73
528.614	42742.81
528.815	42345.51
529.016	43062.3
529.218	42574.88
529.419	43039.77
529.62	43021.34
529.822	43195.42
530.023	42984.47
530.224	43172.89
530.425	43224.09
530.626	42746.91
530.828	43107.35
531.029	44192.78
531.23	43375.64
531.431	43127.83
531.632	43050.01
531.833	43777.04
532.035	43631.63
532.236	44037.13
532.437	43789.33
532.638	43093.02
532.839	43871.25
533.04	44063.75
533.241	43543.57
533.442	44317.7
533.643	43867.15
533.844	43930.64
534.045	43396.12
534.246	43510.8
534.447	44198.92
534.648	43463.7
534.849	43916.3
535.05	43529.23
535.251	43793.42
535.451	43975.69
535.652	44174.34
535.853	43535.38
536.054	44323.85
536.255	44129.29
536.456	43461.65
536.657	44121.1
536.857	43846.67
537.058	43609.11
537.259	44108.81
537.46	44028.94
537.66	43992.08
537.861	43932.68
538.062	43316.25
538.263	43836.43
538.463	43674.64
538.664	43729.94
538.865	43494.42
539.065	44108.81
539.266	43592.72
539.466	43908.11
539.667	43797.52
539.868	43932.68
540.068	43568.15
540.269	43744.27
540.469	43643.92
540.67	43543.57
540.87	43777.04
541.071	43486.23
541.271	43895.82
541.472	43488.28
541.672	43525.14
541.873	43598.87
542.073	42791.97
542.274	43588.63
542.474	43807.76
542.675	43058.2
542.875	43695.12
543.075	43484.18
543.276	43213.85
543.476	43449.36
543.676	43330.58
543.877	43545.62
544.077	43369.49
544.277	43389.97
544.478	43340.82
544.678	43439.12
544.878	43228.18
545.078	43260.95
545.279	43269.14
545.479	43080.73
545.679	43297.81
545.879	43021.34
546.079	43168.79
546.28	43093.02
546.48	42920.99
546.68	43328.53
546.88	43148.31
547.08	43238.42
547.28	42900.51
547.48	42714.14
547.68	43215.9
547.88	42802.21
548.081	43250.71
548.281	43068.44
548.481	42630.18
548.681	43543.57
548.881	42806.3
549.081	43015.19
549.28	42826.78
549.48	42828.83
549.68	42609.7
549.88	43195.42
550.08	42626.08
550.28	42716.19
550.48	42730.53
550.68	43189.27
550.88	42662.94
551.08	42920.99
551.279	42902.56
551.479	42912.8
551.679	42693.66
551.879	42441.76
552.079	42986.52
552.278	42359.84
552.478	42703.9
552.678	42609.7
552.878	42914.84
553.077	42490.91
553.277	41987.11
553.477	42970.14
553.676	42464.29
553.876	42314.79
554.076	42310.69
554.275	41774.13
554.475	41991.21
554.674	42396.71
554.874	42452
555.074	41921.58
555.273	42673.18
555.473	42245.16
555.672	42081.32
555.872	41913.39
556.071	42396.71
556.271	42394.66
556.47	41628.72
556.67	41604.14
556.869	41532.46
557.068	42069.03
557.268	41956.39
557.467	41749.55
557.667	41983.02
557.866	41831.47
558.065	41684.01
558.265	41653.3
558.464	41167.93
558.663	41716.78
558.863	41376.82
559.062	41704.49
559.261	41004.09
559.461	41829.42
559.66	41391.16
559.859	41479.22
560.058	41073.72
560.258	41124.92
560.457	40696.89
560.656	41280.56
560.855	40983.61
561.054	41040.95
561.253	40623.17
561.453	40903.74
561.652	40852.54
561.851	41057.34
562.05	40291.4
562.249	40596.54
562.448	40563.78
562.647	40485.95
562.846	40877.11
563.045	40748.09
563.244	40082.5
563.443	40641.6
563.642	39885.9
563.841	39990.34
564.04	39978.06
564.239	40299.59
564.438	39666.77
564.637	39953.48
564.836	39969.86
565.035	39275.6
565.234	40119.37
565.432	39394.39
565.631	39699.53
565.83	39799.88
566.029	39111.77
566.228	39070.81
566.427	39449.68
566.625	38771.8
566.824	38540.38
567.023	39443.54
567.222	38634.59
567.42	39117.91
567.619	38620.25
567.818	39021.66
568.016	38517.85
568.215	39283.8
568.414	38704.22
568.612	38861.91
568.811	38419.55
569.01	38669.4
569.208	37850.22
569.407	38413.41
569.605	37772.39
569.804	38196.32
570.002	37942.38
570.201	37856.36
570.4	37751.91
570.598	37434.48
570.797	37387.38
570.995	37497.97
571.193	37176.44
571.392	37504.11
571.59	37422.19
571.789	37037.17
571.987	37186.68
572.186	37211.25
572.384	37067.89
572.582	36869.24
572.781	36805.75
572.979	36600.96
573.177	36676.73
573.376	36746.36
573.574	36658.3
573.772	36768.89
573.971	36158.59
574.169	36260.99
574.367	36005
574.565	36048
574.763	35722.38
574.962	36136.07
575.16	35749
575.358	35701.9
575.556	35413.13
575.754	35867.78
575.952	35423.37
576.151	35466.38
576.349	35363.98
576.547	35351.7
576.745	35241.1
576.943	35429.52
577.141	35093.65
577.339	35093.65
577.537	34944.15
577.735	34944.15
577.933	34577.56
578.131	34827.42
578.329	34788.5
578.527	34419.87
578.725	34808.98
578.923	34604.19
579.121	34122.91
579.319	34225.31
579.516	34294.94
579.714	34090.15
579.912	34004.13
580.11	34151.59
580.308	33875.11
580.506	33559.72
580.704	33135.79
580.901	33498.28
581.099	33674.41
581.297	33211.57
581.495	33246.38
581.692	33486
581.89	32824.5
582.088	33442.99
582.285	32918.71
582.483	32998.58
582.681	32900.28
582.878	32492.73
583.076	32351.42
583.274	32922.8
583.471	32214.21
583.669	32505.02
583.866	32150.72
584.064	32402.62
584.262	31835.33
584.459	32376
584.657	32046.27
584.854	32244.93
585.052	31376.59
585.249	31937.73
585.447	31552.71
585.644	31370.44
585.841	31575.24
586.039	31796.42
586.236	31405.26
586.434	31325.39
586.631	31200.46
586.828	31198.41
587.026	30860.5
587.223	31091.92
587.42	30702.81
587.618	31007.95
587.815	30430.43
588.012	30405.85
588.21	30156
588.407	30461.15
588.604	30356.7
588.801	30112.99
588.999	30057.7
589.196	29840.61
589.393	30239.97
589.59	29603.05
589.787	29936.87
589.984	29641.96
590.182	29578.47
590.379	29703.4
590.576	29254.89
590.773	29594.86
590.97	29048.05
591.167	29494.5
591.364	28693.75
591.561	29238.51
591.758	28683.51
591.955	29089.01
592.152	29091.05
592.349	28890.35
592.546	28923.12
592.743	28529.91
592.94	28222.72
593.137	28544.25
593.334	28695.8
593.531	27868.42
593.727	28077.31
593.924	28110.08
594.121	27899.14
594.318	28173.56
594.515	27432.2
594.712	28015.87
594.908	27452.68
595.105	27868.42
595.302	27378.95
595.499	27356.43
595.696	27460.87
595.892	27106.57
596.089	27434.25
596.286	27462.92
596.482	27419.91
596.679	26821.91
596.876	26950.93
597.072	26572.05
597.269	26987.79
597.466	26418.46
597.662	26922.26
597.859	26688.79
598.055	26588.44
598.252	26295.58
598.448	26383.64
598.645	26209.56
598.841	25916.7
599.038	25826.59
599.234	26037.53
599.431	25691.43
599.627	25697.57
599.824	25949.47
600.02	25699.62
600.217	25634.08
600.413	25488.68
600.609	25478.44
600.806	25169.19
601.002	25343.27
601.198	25226.54
601.395	24839.47
601.591	25314.6
601.787	24919.34
601.984	25044.27
602.18	25050.41
602.376	24878.38
602.572	24796.46
602.769	24317.24
602.965	24216.89
603.161	24558.9
603.357	24462.65
603.553	24247.61
603.75	24253.75
603.946	23997.76
604.142	24606
604.338	23782.72
604.534	23962.94
604.73	23915.84
604.926	23809.34
605.122	24079.68
605.318	23539.01
605.514	23582.02
605.71	23489.86
605.906	23366.98
606.102	23358.79
606.298	23358.79
606.494	23209.29
606.69	23254.34
606.886	23110.99
607.082	22660.43
607.278	22875.47
607.474	22670.67
607.67	22963.53
607.866	22492.5
608.062	23045.45
608.257	22678.86
608.453	22793.55
608.649	22648.15
608.845	22609.23
609.041	22140.25
609.236	22623.57
609.432	22768.98
609.628	22310.23
609.824	22469.97
610.019	22627.67
610.215	22170.97
610.411	22533.46
610.606	22187.35
610.802	22013.27
610.998	21931.36
611.193	22420.82
611.389	21982.56
611.584	22037.85
611.78	21941.6
611.976	21658.98
612.171	21814.62
612.367	21839.2
612.562	21564.77
612.758	21577.06
612.953	21351.78
613.149	21777.76
613.344	21443.94
613.539	21771.61
613.735	21355.88
613.93	21353.83
614.126	21413.22
614.321	21624.16
614.517	21316.97
614.712	21241.19
614.907	21253.48
615.103	21464.42
615.298	21177.7
615.493	21380.45
615.688	20745.58
615.884	21284.2
616.079	20886.89
616.274	20751.73
616.47	20761.97
616.665	20991.34
616.86	20866.41
617.055	20960.62
617.25	20561.26
617.445	21140.84
617.641	20245.88
617.836	20630.9
618.031	20489.59
618.226	20462.96
618.421	20364.66
618.616	20299.12
618.811	19832.19
619.006	20282.74
619.201	19654.01
619.396	20008.31
619.591	19813.76
619.786	19926.39
619.981	19768.7
620.176	19879.29
620.371	19471.75
620.566	19080.58
620.761	19553.66
620.956	19457.41
621.151	19086.73
621.346	19307.91
621.541	18976.14
621.735	18859.4
621.93	18660.75
622.125	18980.23
622.32	18546.06
622.515	18705.81
622.709	18267.54
622.904	18437.52
623.099	18365.84
623.294	18533.78
623.488	18138.52
623.683	18261.4
623.878	17991.06
624.072	17919.39
624.267	17804.7
624.462	17677.72
624.656	17485.22
624.851	17272.23
625.046	17360.29
625.24	17495.46
625.435	17079.72
625.629	17241.51
625.824	16784.81
626.018	17182.12
626.213	16774.57
626.407	16846.25
626.602	16690.6
626.796	16526.77
626.991	16655.79
627.185	16422.32
627.38	16207.28
627.574	16260.53
627.768	16252.34
627.963	16002.49
628.157	16031.16
628.352	15836.6
628.546	15547.84
628.74	15762.87
628.935	15611.32
629.129	15388.1
629.323	15326.66
629.517	15465.92
629.712	15254.98
629.906	15377.86
630.1	15211.97
630.294	15080.9
630.489	15261.12
630.683	14923.21
630.877	14683.59
631.071	14538.19
631.265	14618.06
631.459	14499.28
631.653	14517.71
631.848	14366.16
632.042	14466.51
632.236	14362.06
632.43	14136.79
632.624	14282.19
632.818	13837.78
633.012	13843.93
633.206	13850.07
633.4	13821.4
633.594	13663.71
633.788	13878.74
633.982	13807.06
634.176	13516.25
634.369	13454.81
634.563	13323.74
634.757	13469.15
634.951	13293.02
635.145	13194.72
635.339	13274.59
635.533	13026.79
635.726	13168.1
635.92	12856.81
636.114	13006.31
636.308	12742.12
636.501	12795.37
636.695	12705.26
636.889	12684.78
637.083	12328.43
637.276	12584.43
637.47	12424.69
637.664	12285.42
637.857	12234.22
638.051	12293.62
638.244	12316.14
638.438	12195.31
638.632	11988.47
638.825	11728.38
639.019	11853.3
639.212	11795.96
639.406	11961.84
639.599	11654.65
639.793	11763.19
639.986	11488.76
640.18	11646.46
640.373	11443.71
640.567	11283.97
640.76	11476.48
640.954	11134.46
641.147	11066.88
641.34	11030.02
641.534	11087.36
641.727	10888.71
641.92	10927.62
642.114	10946.05
642.307	10876.42
642.5	10878.47
642.694	10774.02
642.887	10640.9
643.08	10675.72
643.273	10624.52
643.467	10425.87
643.66	10366.48
643.853	10454.54
644.046	10259.98
644.239	10259.98
644.432	10227.21
644.626	10270.22
644.819	9944.59
645.012	9950.74
645.205	10059.28
645.398	10038.8
645.591	10020.37
645.784	9989.65
645.977	9809.43
646.17	9672.22
646.363	9516.57
646.556	9629.21
646.749	9594.39
646.942	9485.85
647.135	9614.87
647.328	9367.07
647.521	9465.37
647.714	9139.74
647.907	9401.88
648.099	9168.41
648.292	9205.28
648.485	9094.69
648.678	8971.81
648.871	9172.51
649.064	8820.26
649.256	8932.9
649.449	8939.04
649.642	8793.64
649.835	8726.05
650.027	8693.29
650.22	8681
650.413	8605.22
650.605	8711.72
650.798	8562.22
650.991	8408.62
651.183	8621.61
651.376	8203.82
651.568	8480.3
651.761	8394.28
651.954	8316.46
652.146	8367.66
652.339	8203.82
652.531	8226.35
652.724	8097.33
652.916	7980.59
653.109	7966.26
653.301	8140.33
653.494	7755.32
653.686	7804.47
653.879	7892.53
654.071	7732.79
654.263	7771.7
654.456	7913.01
654.648	7749.17
654.84	7523.9
655.033	7630.39
655.225	7568.95
655.417	7609.91
655.61	7501.37
655.802	7360.06
655.994	7542.33
656.186	7353.91
656.379	7403.07
656.571	7255.61
656.763	7194.17
656.955	7288.38
657.148	7149.12
657.34	7011.9
657.532	7165.5
657.724	6993.47
657.916	7063.1
658.108	6987.33
658.3	7050.82
658.492	7116.35
658.684	6964.8
658.876	6747.72
659.068	6983.23
659.26	6825.54
659.452	6714.95
659.644	6858.31
659.836	6637.13
660.028	6798.91
660.22	6712.9
660.412	6553.16
660.604	6563.4
660.796	6579.78
660.988	6628.93
661.18	6284.87
661.372	6377.03
661.563	6442.57
661.755	6389.32
661.947	6317.64
662.139	6256.2
662.331	6159.95
662.522	6227.53
662.714	6272.59
662.906	6164.04
663.097	6211.15
663.289	6045.26
663.481	6135.37
663.673	6190.67
663.864	5969.49
664.056	5955.15
664.247	5971.54
664.439	5938.77
664.631	5926.48
664.822	5805.65
665.014	5846.61
665.205	5774.93
665.397	5707.35
665.588	5731.92
665.78	5633.62
665.971	5856.85
666.163	5647.96
666.354	5602.9
666.546	5582.42
666.737	5566.04
666.929	5529.17
667.12	5504.6
667.311	5418.58
667.503	5363.29
667.694	5404.25
667.885	5484.12
668.077	5324.38
668.268	5353.05
668.459	5277.27
668.651	5328.47
668.842	5377.62
669.033	5197.4
669.224	5340.76
669.416	5105.24
669.607	5244.51
669.798	5262.94
669.989	5185.12
670.18	5176.92
670.371	5066.33
670.563	5099.1
670.754	5082.72
670.945	5082.72
671.136	5123.68
671.327	5066.33
671.518	4916.83
671.709	4963.93
671.9	5054.05
672.091	4898.4
672.282	4812.39
672.473	4927.07
672.664	4908.64
672.855	4963.93
673.046	4777.57
673.237	4904.54
673.428	4779.62
673.619	4679.27
673.809	4785.76
674	4718.18
674.191	4814.43
674.382	4738.66
674.573	4834.91
674.764	4683.36
674.954	4587.11
675.145	4638.31
675.336	4544.1
675.527	4574.82
675.717	4705.89
675.908	4554.34
676.099	4580.96
676.289	4552.29
676.48	4499.05
676.671	4406.89
676.861	4370.02
677.052	4427.37
677.243	4451.94
677.433	4400.74
677.624	4470.37
677.814	4347.5
678.005	4236.91
678.195	4486.76
678.386	4300.39
678.576	4431.46
678.767	4284.01
678.957	4329.06
679.148	4447.85
679.338	4271.72
679.529	4234.86
679.719	4310.63
679.909	4245.1
680.1	4167.28
680.29	4302.44
680.481	4298.35
680.671	4367.98
680.861	4062.83
681.052	4210.28
681.242	4114.03
681.432	4114.03
681.622	4114.03
681.813	4122.22
682.003	4064.88
682.193	4073.07
682.383	4206.19
682.573	4062.83
682.764	3952.24
682.954	4124.27
683.144	4064.88
683.334	4015.73
683.524	4021.87
683.714	3925.61
683.904	3993.2
684.094	3929.71
684.284	3948.14
684.474	3915.37
684.664	3898.99
684.854	3931.76
685.044	3753.59
685.234	3909.23
685.424	3837.55
685.614	3827.31
685.804	3849.84
685.994	3761.78
686.184	3927.66
686.374	3874.42
686.564	3812.98
686.753	3638.9
686.943	3874.42
687.133	3864.18
687.323	3726.96
687.513	3767.92
687.702	3749.49
687.892	3657.33
688.082	3599.99
688.272	3661.43
688.461	3599.99
688.651	3743.35
688.841	3581.56
689.03	3593.84
689.22	3610.23
689.41	3513.97
689.599	3473.01
689.789	3520.12
689.979	3483.25
690.168	3624.56
690.358	3315.32
690.547	3509.88
690.737	3497.59
690.926	3315.32
691.116	3331.7
691.305	3530.36
691.495	3280.5
691.684	3157.63
691.874	3432.05
692.063	3417.72
692.252	3237.5
692.442	3249.79
692.631	3210.87
692.82	3231.35
693.01	3288.7
693.199	3380.86
693.388	3303.03
693.578	3274.36
693.767	3290.74
693.956	3233.4
694.146	3282.55
694.335	3159.67
694.524	3272.31
694.713	3260.02
694.902	3165.82
695.092	3108.48
695.281	3174.01
695.47	3126.91
695.659	3196.54
695.848	3149.43
696.037	3010.17
696.226	3110.52
696.415	3077.76
696.604	3057.28
696.793	3020.41
696.982	3198.59
697.171	2975.36
697.36	3102.33
697.549	3034.75
697.738	3051.13
697.927	3030.65
698.116	2965.12
698.305	2989.69
698.494	2944.64
698.683	3024.51
698.872	3116.67
699.061	2946.69
699.25	3092.09
699.438	3010.17
699.627	3038.84
699.816	3100.28
700.005	2969.21
700.193	3032.7
700.382	3012.22
700.571	3073.66
700.76	2879.1
700.948	3014.27
701.137	2934.4
701.326	3141.24
701.514	2977.41
701.703	2948.73
701.892	3016.32
702.08	2934.4
702.269	3014.27
702.457	2971.26
702.646	2946.69
702.834	3010.17
703.023	3006.08
703.212	3137.15
703.4	2967.17
703.589	2989.69
703.777	3018.36
703.965	2967.17
704.154	2844.29
704.342	3010.17
704.531	2913.92
704.719	2911.87
704.907	3024.51
705.096	2791.04
705.284	3014.27
705.472	3065.47
705.661	3057.28
705.849	3032.7
706.037	3055.23
706.226	2954.88
706.414	3055.23
706.602	2895.49
706.79	2940.54
706.979	2870.91
707.167	3028.6
707.355	2819.71
707.543	3010.17
707.731	2909.82
707.919	2928.25
708.107	2928.25
708.296	3008.12
708.484	2866.81
708.672	2977.41
708.86	2948.73
709.048	3057.28
709.236	2936.45
709.424	2991.74
709.612	2846.34
709.8	2956.93
709.988	2995.84
710.176	2848.38
710.364	2944.64
710.551	3018.36
710.739	2821.76
710.927	2909.82
711.115	2985.6
711.303	2885.25
711.491	2807.42
711.679	2924.16
711.866	2905.73
712.054	2936.45
712.242	2832
712.43	2844.29
712.617	2944.64
712.805	2913.92
712.993	2977.41
713.181	2848.38
713.368	2741.89
713.556	3090.04
713.744	2887.29
713.931	3044.99
714.119	2975.36
714.306	3022.46
714.494	2934.4
714.682	3026.56
714.869	2840.19
715.057	2918.01
715.244	2893.44
715.432	2954.88
715.619	2915.97
715.807	2889.34
715.994	2895.49
716.182	2999.93
716.369	2973.31
716.556	2942.59
716.744	2905.73
716.931	2866.81
717.119	2963.07
717.306	2932.35
717.493	2997.88
717.681	2881.15
717.868	2928.25
718.055	2872.96
718.242	2860.67
718.43	2870.91
718.617	3006.08
718.804	2852.48
718.991	2963.07
719.179	2997.88
719.366	2834.05
719.553	2975.36
719.74	2868.86
719.927	2850.43
720.114	2967.17
720.301	2928.25
720.488	2918.01
720.676	2784.9
720.863	2922.11
721.05	3014.27
721.237	2883.2
721.424	2881.15
721.611	2872.96
721.798	2848.38
721.985	2829.95
722.172	2881.15
722.358	2791.04
722.545	2836.1
722.732	2786.94
722.919	2926.21
723.106	2834.05
723.293	2741.89
723.48	2875.01
723.667	2737.79
723.853	2934.4
724.04	2764.42
724.227	2799.23
724.414	2745.98
724.6	2741.89
724.787	2905.73
724.974	2823.81
725.161	2834.05
725.347	2649.73
725.534	2842.24
725.72	2860.67
725.907	2866.81
726.094	2823.81
726.28	2852.48
726.467	2793.09
726.653	2692.74
726.84	2715.27
727.027	2842.24
727.213	2709.12
727.4	2772.61
727.586	2643.59
727.773	2754.18
727.959	2870.91
728.145	2893.44
728.332	2770.56
728.518	2754.18
728.705	2834.05
728.891	2680.45
729.077	2717.31
729.264	2639.49
729.45	2758.27
729.636	2731.65
729.823	2737.79
730.009	2752.13
730.195	2657.92
730.382	2700.93
730.568	2690.69
730.754	2705.03
730.94	2780.8
731.126	2705.03
731.313	2758.27
731.499	2735.74
731.685	2715.27
731.871	2762.37
732.057	2682.5
732.243	2696.83
732.429	2784.9
732.615	2854.53
732.801	2672.26
732.987	2614.91
733.173	2639.49
733.359	2680.45
733.545	2666.11
733.731	2745.98
733.917	2725.51
734.103	2635.39
734.289	2598.53
734.475	2684.55
734.661	2737.79
734.847	2809.47
735.033	2764.42
735.219	2680.45
735.404	2625.15
735.59	2598.53
735.776	2563.72
735.962	2561.67
736.148	2684.55
736.333	2649.73
736.519	2569.86
736.705	2612.87
736.89	2651.78
737.076	2582.15
737.262	2604.67
737.447	2631.3
737.633	2637.44
737.819	2600.58
738.004	2582.15
738.19	2631.3
738.375	2608.77
738.561	2696.83
738.747	2508.42
738.932	2475.65
739.118	2492.04
739.303	2543.24
739.489	2539.14
739.674	2506.37
739.859	2375.3
740.045	2479.75
740.23	2535.04
740.416	2455.17
740.601	2555.52
740.786	2559.62
740.972	2498.18
741.157	2383.49
741.342	2303.62
741.528	2373.25
741.713	2338.44
741.898	2461.32
742.084	2348.68
742.269	2393.73
742.454	2391.69
742.639	2434.69
742.824	2358.92
743.01	2293.38
743.195	2371.21
743.38	2344.58
743.565	2379.4
743.75	2283.14
743.935	2367.11
744.12	2266.76
744.305	2162.31
744.49	2205.32
744.675	2162.31
744.86	2223.75
745.045	2313.86
745.23	2246.28
745.415	2162.31
745.6	2186.89
745.785	2160.27
745.97	2246.28
746.155	2115.21
746.34	2143.88
746.525	2168.46
746.71	2072.2
746.895	2088.59
747.079	2072.2
747.264	1990.28
747.449	2064.01
747.634	2096.78
747.819	1990.28
748.003	1945.23
748.188	1869.45
748.373	1998.48
748.557	2021
748.742	1978
748.927	1941.13
749.111	1982.09
749.296	1934.99
749.481	1961.61
749.665	2012.81
749.85	1814.16
750.034	1801.87
750.219	1904.27
750.404	1869.45
750.588	1906.32
750.773	1863.31
750.957	1879.69
751.141	1793.68
751.326	1846.93
751.51	1670.8
751.695	1787.54
751.879	1779.34
752.064	1822.35
752.248	1756.82
752.432	1771.15
752.617	1775.25
752.801	1758.86
752.985	1785.49
753.17	1785.49
753.354	1664.66
753.538	1703.57
753.722	1599.12
753.907	1621.65
754.091	1635.99
754.275	1552.02
754.459	1543.83
754.643	1595.03
754.828	1597.07
755.012	1502.87
755.196	1515.16
755.38	1572.5
755.564	1609.36
755.748	1427.09
755.932	1511.06
756.116	1474.2
756.3	1529.49
756.484	1502.87
756.668	1425.04
756.852	1367.7
757.036	1484.44
757.22	1474.2
757.404	1343.13
757.588	1574.55
757.772	1308.31
757.956	1392.28
758.14	1441.43
758.323	1435.28
758.507	1394.33
758.691	1283.74
758.875	1390.23
759.059	1322.65
759.242	1232.54
759.426	1414.81
759.61	1279.64
759.794	1267.35
759.977	1279.64
760.161	1265.3
760.345	1277.59
760.528	1300.12
760.712	1244.82
760.895	1142.43
761.079	1310.36
761.263	1287.83
761.446	1224.34
761.63	1201.82
761.813	1314.45
761.997	1267.35
762.18	1246.87
762.364	1136.28
762.547	1201.82
762.731	1224.34
762.914	1185.43
763.098	1189.53
763.281	1162.9
763.464	1144.47
763.648	1134.23
763.831	1236.63
764.015	1130.14
764.198	1216.15
764.381	1146.52
764.564	1150.62
764.748	1136.28
764.931	1095.32
765.114	1117.85
765.297	1142.43
765.481	1062.55
765.664	1058.46
765.847	1148.57
766.03	1162.9
766.213	1058.46
766.397	1138.33
766.58	1070.75
766.763	1107.61
766.946	1001.12
767.129	1093.27
767.312	1011.36
767.495	1003.16
767.678	1035.93
767.861	1083.03
768.044	982.68
768.227	1066.65
768.41	1050.27
768.593	1042.07
768.776	1013.4
768.959	954.01
769.142	1093.27
769.324	978.59
769.507	1031.83
769.69	1048.22
769.873	1035.93
770.056	972.44
770.239	1017.5
770.421	1021.6
770.604	960.16
770.787	941.72
770.97	990.88
771.152	960.16
771.335	951.96
771.518	978.59
771.7	949.92
771.883	824.99
772.066	925.34
772.248	960.16
772.431	827.04
772.613	945.82
772.796	837.28
772.978	908.96
773.161	839.33
773.343	876.19
773.526	956.06
773.708	816.8
773.891	753.31
774.073	878.24
774.256	841.37
774.438	896.67
774.621	779.93
774.803	802.46
774.985	788.13
775.168	759.46
775.35	847.52
775.532	847.52
775.715	820.89
775.897	763.55
776.079	763.55
776.261	814.75
776.444	779.93
776.626	790.17
776.808	874.14
776.99	824.99
777.173	716.45
777.355	747.17
777.537	734.88
777.719	734.88
777.901	749.22
778.083	796.32
778.265	714.4
778.447	667.3
778.629	777.89
778.811	679.58
778.993	722.59
779.175	698.02
779.357	710.3
779.539	706.21
779.721	636.58
779.903	714.4
780.085	716.45
780.267	659.1
780.449	681.63
780.631	669.34
780.812	685.73
780.994	634.53
781.176	554.66
781.358	661.15
781.54	607.91
781.721	558.75
781.903	591.52
782.085	560.8
782.267	548.51
782.448	556.71
782.63	583.33
782.812	575.14
782.993	665.25
783.175	585.38
783.357	525.99
783.538	562.85
783.72	599.71
783.901	552.61
784.083	593.57
784.264	542.37
784.446	583.33
784.627	509.6
784.809	542.37
784.99	499.36
785.172	534.18
785.353	591.52
785.535	546.47
785.716	609.95
785.897	460.45
786.079	495.27
786.26	521.89
786.441	495.27
786.623	435.88
786.804	448.16
786.985	480.93
787.167	419.49
787.348	505.51
787.529	540.32
787.71	493.22
787.891	480.93
788.073	472.74
788.254	448.16
788.435	446.12
788.616	425.64
788.797	480.93
788.978	343.72
789.159	423.59
789.34	401.06
789.522	415.4
789.703	347.81
789.884	448.16
790.065	446.12
790.246	456.36
790.427	454.31
790.607	452.26
790.788	439.97
790.969	374.44
791.15	415.4
791.331	358.05
791.512	444.07
791.693	419.49
791.874	360.1
792.054	425.64
792.235	417.44
792.416	321.19
792.597	362.15
792.778	421.54
792.958	409.25
793.139	409.25
793.32	339.62
793.5	333.48
793.681	431.78
793.862	356.01
794.042	405.16
794.223	315.05
794.404	431.78
794.584	345.77
794.765	425.64
794.945	272.04
795.126	298.66
795.306	333.48
795.487	356.01
795.667	317.09
795.848	333.48
796.028	374.44
796.209	337.57
796.389	321.19
796.57	333.48
796.75	296.61
796.93	290.47
797.111	269.99
797.291	280.23
797.471	298.66
797.652	343.72
797.832	280.23
798.012	304.81
798.192	231.08
798.373	276.13
798.553	292.52
798.733	298.66
798.913	290.47
799.093	251.56
799.274	288.42
799.454	284.33
799.634	292.52
799.814	319.14
799.994	241.32
800.174	222.89
800.354	251.56
800.534	300.71
800.714	237.22
800.894	169.64
801.074	294.57
801.254	243.37
801.434	278.18
801.614	198.31
801.794	298.66
801.974	607.91
802.154	231.08
802.334	269.99
802.514	253.61
802.693	265.89
802.873	237.22
803.053	261.8
803.233	239.27
803.413	265.89
803.592	179.88
803.772	216.74
803.952	237.22
804.131	288.42
804.311	241.32
804.491	216.74
804.67	120.49
804.85	140.97
805.03	269.99
805.209	239.27
805.389	255.65
805.568	280.23
805.748	212.65
805.928	214.7
806.107	214.7
806.287	235.18
806.466	222.89
806.646	198.31
806.825	188.07
807.004	159.4
807.184	282.28
807.363	278.18
807.543	169.64
807.722	159.4
807.901	249.51
808.081	261.8
808.26	171.69
808.439	210.6
808.619	212.65
808.798	163.5
808.977	222.89
809.156	249.51
809.336	138.92
809.515	237.22
809.694	206.5
809.873	241.32
810.052	212.65
810.231	177.83
810.411	206.5
810.59	173.74
810.769	310.95
810.948	216.74
811.127	151.21
811.306	169.64
811.485	134.82
811.664	186.02
811.843	118.44
812.022	161.45
812.201	235.18
812.38	212.65
812.559	175.78
812.737	128.68
812.916	85.67
813.095	171.69
813.274	169.64
813.453	85.67
813.632	188.07
813.811	163.5
813.989	120.49
814.168	190.12
814.347	210.6
814.526	222.89
814.704	171.69
814.883	190.12
815.062	165.54
815.24	171.69
815.419	71.34
815.598	143.02
815.776	259.75
815.955	149.16
816.133	190.12
816.312	165.54
816.49	143.02
816.669	163.5
816.847	151.21
817.026	192.17
817.204	124.58
817.383	151.21
817.561	124.58
817.74	126.63
817.918	151.21
818.097	239.27
818.275	175.78
818.453	179.88
818.632	206.5
818.81	114.34
818.988	136.87
819.167	140.97
819.345	130.73
819.523	93.87
819.701	126.63
819.879	196.26
820.058	124.58
820.236	136.87
820.414	83.63
820.592	136.87
820.77	91.82
820.948	126.63
821.127	153.26
821.305	48.81
821.483	87.72
821.661	147.11
821.839	163.5
822.017	177.83
822.195	77.48
822.373	104.11
822.551	95.91
822.729	177.83
822.907	118.44
823.085	167.59
823.262	100.01
823.44	71.34
823.618	132.78
823.796	134.82
823.974	124.58
824.152	91.82
824.329	124.58
824.507	106.15
824.685	145.06
824.863	114.34
825.04	136.87
825.218	169.64
825.396	104.11
825.574	79.53
825.751	165.54
825.929	161.45
826.107	59.05
826.284	87.72
826.462	126.63
826.639	81.58
826.817	147.11
826.994	28.33
827.172	-4.44
827.349	210.6
827.527	128.68
827.704	136.87
827.882	130.73
828.059	36.52
828.237	77.48
828.414	134.82
828.591	124.58
828.769	120.49
828.946	124.58
829.124	132.78
829.301	95.91
829.478	93.87
829.655	91.82
829.833	149.16
830.01	36.52
830.187	108.2
830.364	89.77
830.542	149.16
830.719	67.24
830.896	159.4
831.073	110.25
831.25	161.45
831.427	75.43
831.604	73.39
831.782	71.34
831.959	85.67
832.136	95.91
832.313	118.44
832.49	100.01
832.667	28.33
832.844	63.15
833.021	214.7
833.198	79.53
833.374	110.25
833.551	63.15
833.728	75.43
833.905	97.96
834.082	67.24
834.259	61.1
834.436	87.72
834.612	91.82
834.789	130.73
834.966	59.05
835.143	102.06
835.319	63.15
835.496	104.11
835.673	114.34
835.85	95.91
836.026	120.49
836.203	89.77
836.38	-6.49
836.556	106.15
836.733	93.87
836.909	104.11
837.086	-8.53
837.262	32.43
837.439	106.15
837.616	-4.44
837.792	50.86
837.968	100.01
838.145	63.15
838.321	110.25
838.498	91.82
838.674	26.28
838.851	79.53
839.027	110.25
839.203	83.63
839.38	67.24
839.556	97.96
839.732	48.81
839.909	69.29
840.085	112.3
840.261	81.58
840.437	63.15
840.614	61.1
840.79	79.53
840.966	40.62
841.142	75.43
841.318	18.09
841.494	48.81
841.671	83.63
841.847	120.49
842.023	110.25
842.199	118.44
842.375	110.25
842.551	11.95
842.727	104.11
842.903	40.62
843.079	77.48
843.255	57
843.431	65.19
843.607	102.06
843.783	7.85
843.959	40.62
844.134	83.63
844.31	81.58
844.486	32.43
844.662	-14.68
844.838	77.48
845.013	71.34
845.189	57
845.365	151.21
845.541	-10.58
845.716	167.59
845.892	24.23
846.068	54.95
846.244	71.34
846.419	89.77
846.595	46.76
846.77	73.39
846.946	3.75
847.122	52.91
847.297	-16.73
847.473	110.25
847.648	75.43
847.824	67.24
847.999	5.8
848.175	42.67
848.35	28.33
848.526	91.82
848.701	38.57
848.876	71.34
849.052	-6.49
849.227	75.43
849.403	-29.01
849.578	63.15
849.753	48.81
849.929	83.63
850.104	11.95
850.279	97.96
850.454	54.95
850.63	3.75
850.805	22.19
850.98	65.19
851.155	-31.06
851.33	-6.49
851.505	59.05
851.681	20.14
851.856	57
852.031	93.87
852.206	38.57
852.381	-2.39
852.556	-57.68
852.731	75.43
852.906	44.71
853.081	40.62
853.256	104.11
853.431	5.8
853.606	65.19
853.781	-4.44
853.956	-26.96
854.131	57
854.305	-53.59
854.48	61.1
854.655	-31.06
854.83	-108.88
855.005	50.86
855.18	83.63
855.354	122.54
855.529	34.47
855.704	-16.73
855.879	52.91
856.053	52.91
856.228	67.24
856.403	54.95
856.577	69.29
856.752	-39.25
856.926	20.14
857.101	71.34
857.276	13.99
857.45	-29.01
857.625	-2.39
857.799	1.71
857.974	52.91
858.148	-41.3
858.323	50.86
858.497	44.71
858.672	91.82
858.846	38.57
859.02	30.38
859.195	36.52
859.369	18.09
859.543	46.76
859.718	38.57
859.892	9.9
860.066	-24.92
860.241	9.9
860.415	34.47
860.589	5.8
860.763	118.44
860.938	7.85
861.112	81.58
861.286	18.09
861.46	18.09
861.634	59.05
861.808	73.39
861.982	11.95
862.157	-37.2
862.331	32.43
862.505	-2.39
862.679	11.95
862.853	108.2
863.027	-24.92
863.201	95.91
863.375	-20.82
863.549	-69.97
863.722	24.23
863.896	-6.49
864.07	65.19
864.244	48.81
864.418	28.33
864.592	26.28
864.766	50.86
864.939	61.1
865.113	-8.53
865.287	7.85
865.461	5.8
865.634	81.58
865.808	40.62
865.982	57
866.156	75.43
866.329	5.8
866.503	9.9
866.676	73.39
866.85	32.43
867.024	46.76
867.197	73.39
867.371	83.63
867.544	59.05
867.718	5.8
867.891	59.05
868.065	26.28
868.238	65.19
868.412	11.95
868.585	-6.49
868.759	-2.39
868.932	22.19
869.105	-37.2
869.279	1.71
869.452	-24.92
869.625	30.38
869.799	11.95
869.972	44.71
870.145	50.86
870.319	5.8
870.492	30.38
870.665	16.04
870.838	-2.39
871.011	20.14
871.185	44.71
871.358	16.04
871.531	93.87
871.704	59.05
871.877	73.39
872.05	44.71
872.223	9.9
872.396	87.72
872.569	-45.4
872.742	44.71
872.915	71.34
873.088	-65.88
873.261	-57.68
873.434	73.39
873.607	57
873.78	59.05
873.953	1.71
874.126	7.85
874.299	36.52
874.471	-20.82
874.644	11.95
874.817	42.67
874.99	-2.39
875.163	54.95
875.335	20.14
875.508	13.99
875.681	36.52
875.853	-14.68
876.026	30.38
876.199	44.71
876.371	20.14
876.544	9.9
876.717	-57.68
876.889	1.71
877.062	1.71
877.234	-20.82
877.407	-6.49
877.579	-8.53
877.752	75.43
877.924	38.57
878.097	38.57
878.269	32.43
878.442	-82.26
878.614	-16.73
878.786	57
878.959	44.71
879.131	20.14
879.303	-6.49
879.476	44.71
879.648	20.14
879.82	83.63
879.993	30.38
880.165	-35.16
880.337	-53.59
880.509	38.57
880.681	1.71
880.854	3.75
881.026	36.52
881.198	42.67
881.37	-39.25
881.542	-74.07
881.714	-6.49
881.886	34.47
882.058	63.15
882.23	7.85
882.402	65.19
882.574	-4.44
882.746	13.99
882.918	5.8
883.09	18.09
883.262	-2.39
883.434	32.43
883.606	22.19
883.778	-35.16
883.95	30.38
884.122	-26.96
884.293	79.53
884.465	71.34
884.637	30.38
884.809	-49.49
884.98	89.77
885.152	13.99
885.324	11.95
885.496	-78.16
885.667	44.71
885.839	1.71
886.011	75.43
886.182	54.95
886.354	11.95
886.525	36.52
886.697	18.09
886.869	-14.68
887.04	-14.68
887.212	22.19
887.383	22.19
887.555	57
887.726	44.71
887.897	-39.25
888.069	-16.73
888.24	22.19
888.412	-43.35
888.583	22.19
888.754	22.19
888.926	-55.64
889.097	28.33
889.268	-12.63
889.44	28.33
889.611	-33.11
889.782	32.43
889.953	-39.25
890.125	54.95
890.296	-18.77
890.467	11.95
890.638	-106.84
890.809	-18.77
890.98	-14.68
891.151	-10.58
891.323	30.38
891.494	9.9
891.665	-4.44
891.836	-10.58
892.007	13.99
892.178	20.14
892.349	42.67
892.52	-88.4
892.691	7.85
892.862	-6.49
893.032	18.09
893.203	61.1
893.374	50.86
893.545	-29.01
893.716	32.43
893.887	40.62
894.057	13.99
894.228	50.86
894.399	-2.39
894.57	40.62
894.74	-0.34
894.911	-18.77
895.082	54.95
895.253	-55.64
895.423	3.75
895.594	13.99
895.764	9.9
895.935	3.75
896.106	28.33
896.276	42.67
896.447	83.63
896.617	11.95
896.788	9.9
896.958	22.19
897.129	-24.92
897.299	18.09
897.47	1.71
897.64	42.67
897.81	-39.25
897.981	-4.44
898.151	-45.4
898.322	7.85
898.492	9.9
898.662	-12.63
898.832	-33.11
899.003	71.34
899.173	-35.16
899.343	-47.44
899.513	-29.01
