Data from USB4F104151__11__12-00-23-753.txt Node

Date: Fri Mar 14 12:00:23 EDT 2025
User: louis
Spectrometer: USB4F10415
Trigger mode: 4
Integration Time (sec): 2.000000E-2
Scans to average: 1
Electric dark correction enabled: true
Nonlinearity correction enabled: false
Boxcar width: 0
XAxis mode: Wavelengths
Number of Pixels in Spectrum: 3648
>>>>>Begin Spectral Data<<<<<
178.204	-94.21
178.424	-94.21
178.644	-94.21
178.864	-90.11
179.084	-114.69
179.304	45.06
179.524	22.53
179.744	24.58
179.964	30.72
180.184	-67.58
180.404	-18.43
180.624	-4.1
180.844	0
181.064	-22.53
181.283	65.53
181.503	-67.58
181.723	-8.19
181.943	-16.38
182.163	26.62
182.383	4.1
182.602	12.29
182.822	-40.96
183.042	36.86
183.262	-59.39
183.482	-6.14
183.701	20.48
183.921	30.72
184.141	-77.82
184.361	30.72
184.58	24.58
184.8	-22.53
185.02	10.24
185.239	-8.19
185.459	-10.24
185.679	6.14
185.898	-40.96
186.118	20.48
186.338	-18.43
186.557	40.96
186.777	-24.58
186.997	36.86
187.216	-20.48
187.436	18.43
187.655	16.38
187.875	20.48
188.095	-24.58
188.314	-28.67
188.534	81.92
188.753	18.43
188.973	20.48
189.192	61.44
189.412	38.91
189.631	0
189.851	-2.05
190.07	-12.29
190.29	0
190.509	-43.01
190.729	-47.1
190.948	-45.06
191.168	90.11
191.387	102.4
191.607	-18.43
191.826	49.15
192.045	49.15
192.265	-2.05
192.484	-18.43
192.704	55.3
192.923	-4.1
193.142	-14.34
193.362	-24.58
193.581	86.01
193.8	47.1
194.02	38.91
194.239	47.1
194.458	14.34
194.678	24.58
194.897	51.2
195.116	14.34
195.335	-12.29
195.555	14.34
195.774	-8.19
195.993	-4.1
196.212	-24.58
196.432	22.53
196.651	20.48
196.87	-6.14
197.089	12.29
197.308	10.24
197.528	-10.24
197.747	34.82
197.966	20.48
198.185	-24.58
198.404	61.44
198.623	-71.68
198.842	-24.58
199.062	51.2
199.281	43.01
199.5	-63.49
199.719	57.34
199.938	-63.49
200.157	24.58
200.376	47.1
200.595	2.05
200.814	10.24
201.033	-57.34
201.252	-12.29
201.471	-22.53
201.69	67.58
201.909	-6.14
202.128	-40.96
202.347	8.19
202.566	-8.19
202.785	-45.06
203.004	53.25
203.223	59.39
203.442	-4.1
203.661	-22.53
203.879	8.19
204.098	26.62
204.317	8.19
204.536	22.53
204.755	43.01
204.974	45.06
205.193	18.43
205.411	51.2
205.63	-2.05
205.849	53.25
206.068	-16.38
206.287	18.43
206.505	79.87
206.724	-26.62
206.943	-38.91
207.162	-14.34
207.381	20.48
207.599	-67.58
207.818	22.53
208.037	-4.1
208.255	55.3
208.474	55.3
208.693	-63.49
208.911	-38.91
209.13	47.1
209.349	-22.53
209.567	6.14
209.786	61.44
210.005	-20.48
210.223	-2.05
210.442	24.58
210.661	-20.48
210.879	6.14
211.098	38.91
211.316	-2.05
211.535	-12.29
211.753	45.06
211.972	26.62
212.191	-12.29
212.409	26.62
212.628	47.1
212.846	51.2
213.065	98.3
213.283	38.91
213.502	-34.82
213.72	92.16
213.938	86.01
214.157	-16.38
214.375	-55.3
214.594	10.24
214.812	47.1
215.031	53.25
215.249	-8.19
215.467	12.29
215.686	16.38
215.904	22.53
216.122	28.67
216.341	28.67
216.559	6.14
216.778	53.25
216.996	-36.86
217.214	-4.1
217.432	-45.06
217.651	49.15
217.869	30.72
218.087	-28.67
218.306	-20.48
218.524	86.01
218.742	26.62
218.96	22.53
219.179	-4.1
219.397	8.19
219.615	92.16
219.833	-28.67
220.051	-12.29
220.27	-2.05
220.488	2.05
220.706	18.43
220.924	-47.1
221.142	100.35
221.36	-14.34
221.578	-4.1
221.796	-26.62
222.015	63.49
222.233	12.29
222.451	59.39
222.669	-24.58
222.887	45.06
223.105	-38.91
223.323	36.86
223.541	-22.53
223.759	-12.29
223.977	-12.29
224.195	24.58
224.413	-2.05
224.631	-26.62
224.849	-30.72
225.067	69.63
225.285	8.19
225.503	-47.1
225.721	8.19
225.939	-2.05
226.157	32.77
226.375	53.25
226.592	-22.53
226.81	-4.1
227.028	34.82
227.246	51.2
227.464	36.86
227.682	61.44
227.9	79.87
228.117	-6.14
228.335	-2.05
228.553	-6.14
228.771	-26.62
228.989	-18.43
229.206	0
229.424	104.45
229.642	59.39
229.86	-47.1
230.077	38.91
230.295	22.53
230.513	47.1
230.731	-6.14
230.948	61.44
231.166	63.49
231.384	-12.29
231.601	-51.2
231.819	24.58
232.037	77.82
232.254	43.01
232.472	-18.43
232.689	-6.14
232.907	-81.92
233.125	-18.43
233.342	69.63
233.56	-10.24
233.777	-14.34
233.995	28.67
234.213	49.15
234.43	30.72
234.648	-12.29
234.865	-2.05
235.083	24.58
235.3	-16.38
235.518	53.25
235.735	55.3
235.953	102.4
236.17	12.29
236.388	-24.58
236.605	-12.29
236.822	43.01
237.04	28.67
237.257	34.82
237.475	36.86
237.692	-47.1
237.909	-2.05
238.127	8.19
238.344	-14.34
238.562	0
238.779	47.1
238.996	20.48
239.214	-49.15
239.431	49.15
239.648	20.48
239.865	47.1
240.083	55.3
240.3	-65.54
240.517	-49.15
240.735	43.01
240.952	43.01
241.169	14.34
241.386	10.24
241.603	63.49
241.821	32.77
242.038	63.49
242.255	49.15
242.472	-38.91
242.689	59.39
242.907	59.39
243.124	-55.3
243.341	16.38
243.558	26.62
243.775	4.1
243.992	20.48
244.209	43.01
244.426	18.43
244.643	16.38
244.86	55.3
245.078	53.25
245.295	24.58
245.512	-6.14
245.729	16.38
245.946	-10.24
246.163	-26.62
246.38	0
246.597	-32.77
246.814	61.44
247.031	40.96
247.248	32.77
247.464	-20.48
247.681	38.91
247.898	-12.29
248.115	4.1
248.332	69.63
248.549	47.1
248.766	94.21
248.983	22.53
249.2	6.14
249.417	57.34
249.633	-22.53
249.85	-12.29
250.067	28.67
250.284	86.01
250.501	81.92
250.717	40.96
250.934	-4.1
251.151	2.05
251.368	-22.53
251.585	73.73
251.801	45.06
252.018	-45.06
252.235	-16.38
252.451	-28.67
252.668	65.53
252.885	10.24
253.102	40.96
253.318	69.63
253.535	32.77
253.752	-59.39
253.968	45.06
254.185	24.58
254.401	-30.72
254.618	57.34
254.835	18.43
255.051	102.4
255.268	110.59
255.484	14.34
255.701	-28.67
255.917	59.39
256.134	26.62
256.351	-40.96
256.567	24.58
256.784	-73.73
257	20.48
257.217	-2.05
257.433	77.82
257.65	-8.19
257.866	2.05
258.082	-16.38
258.299	49.15
258.515	-22.53
258.732	-16.38
258.948	100.35
259.165	47.1
259.381	-2.05
259.597	-2.05
259.814	12.29
260.03	12.29
260.246	14.34
260.463	0
260.679	63.49
260.895	-34.82
261.112	-20.48
261.328	45.06
261.544	67.58
261.761	49.15
261.977	16.38
262.193	12.29
262.409	14.34
262.626	-2.05
262.842	26.62
263.058	-49.15
263.274	-43.01
263.49	-55.3
263.707	100.35
263.923	2.05
264.139	24.58
264.355	47.1
264.571	20.48
264.787	24.58
265.004	-6.14
265.22	26.62
265.436	-22.53
265.652	-20.48
265.868	45.06
266.084	-14.34
266.3	57.34
266.516	-14.34
266.732	53.25
266.948	-45.06
267.164	12.29
267.38	12.29
267.596	0
267.812	57.34
268.028	88.06
268.244	36.86
268.46	-10.24
268.676	16.38
268.892	-20.48
269.108	18.43
269.324	30.72
269.54	-16.38
269.756	-36.86
269.972	-28.67
270.188	12.29
270.403	4.1
270.619	75.77
270.835	51.2
271.051	30.72
271.267	32.77
271.483	4.1
271.698	51.2
271.914	61.44
272.13	-14.34
272.346	-8.19
272.562	-36.86
272.777	69.63
272.993	24.58
273.209	-2.05
273.425	34.82
273.64	40.96
273.856	4.1
274.072	2.05
274.287	36.86
274.503	61.44
274.719	8.19
274.934	-26.62
275.15	12.29
275.366	0
275.581	94.21
275.797	47.1
276.012	36.86
276.228	57.34
276.444	-6.14
276.659	59.39
276.875	43.01
277.09	-32.77
277.306	-8.19
277.521	38.91
277.737	-59.39
277.952	32.77
278.168	16.38
278.383	-116.73
278.599	-16.38
278.814	-6.14
279.03	-32.77
279.245	-38.91
279.461	-20.48
279.676	104.45
279.892	-26.62
280.107	71.68
280.322	10.24
280.538	-28.67
280.753	36.86
280.969	79.87
281.184	53.25
281.399	55.3
281.615	-16.38
281.83	28.67
282.045	24.58
282.26	-6.14
282.476	14.34
282.691	16.38
282.906	38.91
283.122	2.05
283.337	-45.06
283.552	86.01
283.767	-26.62
283.983	92.16
284.198	32.77
284.413	8.19
284.628	36.86
284.843	34.82
285.058	24.58
285.274	-18.43
285.489	6.14
285.704	81.92
285.919	-12.29
286.134	-2.05
286.349	-45.06
286.564	36.86
286.779	34.82
286.995	16.38
287.21	-34.82
287.425	24.58
287.64	26.62
287.855	22.53
288.07	-26.62
288.285	55.3
288.5	98.3
288.715	4.1
288.93	38.91
289.145	22.53
289.36	-14.34
289.575	-4.1
289.79	28.67
290.004	63.49
290.219	67.58
290.434	-14.34
290.649	16.38
290.864	-2.05
291.079	4.1
291.294	20.48
291.509	38.91
291.724	4.1
291.938	-45.06
292.153	114.69
292.368	-34.82
292.583	30.72
292.798	65.53
293.012	-96.25
293.227	96.25
293.442	38.91
293.657	43.01
293.871	-2.05
294.086	0
294.301	116.73
294.516	-20.48
294.73	65.53
294.945	-12.29
295.16	24.58
295.374	77.82
295.589	32.77
295.804	-12.29
296.018	-12.29
296.233	38.91
296.447	-10.24
296.662	-51.2
296.877	36.86
297.091	-34.82
297.306	-14.34
297.52	-24.58
297.735	34.82
297.949	-34.82
298.164	71.68
298.378	20.48
298.593	-32.77
298.807	-8.19
299.022	-12.29
299.236	81.92
299.451	6.14
299.665	10.24
299.88	30.72
300.094	-16.38
300.309	2.05
300.523	28.67
300.737	-12.29
300.952	-16.38
301.166	22.53
301.381	14.34
301.595	20.48
301.809	55.3
302.024	49.15
302.238	-24.58
302.452	36.86
302.667	45.06
302.881	-14.34
303.095	10.24
303.309	32.77
303.524	-6.14
303.738	24.58
303.952	0
304.166	108.54
304.381	-34.82
304.595	40.96
304.809	14.34
305.023	49.15
305.237	14.34
305.452	102.4
305.666	22.53
305.88	24.58
306.094	-8.19
306.308	6.14
306.522	0
306.736	20.48
306.95	-8.19
307.164	10.24
307.379	-14.34
307.593	-18.43
307.807	-18.43
308.021	28.67
308.235	26.62
308.449	-83.97
308.663	43.01
308.877	26.62
309.091	14.34
309.305	71.68
309.519	-38.91
309.733	-2.05
309.947	55.3
310.161	18.43
310.374	12.29
310.588	51.2
310.802	69.63
311.016	12.29
311.23	22.53
311.444	45.06
311.658	43.01
311.872	-8.19
312.085	53.25
312.299	-30.72
312.513	-4.1
312.727	38.91
312.941	6.14
313.154	12.29
313.368	32.77
313.582	24.58
313.796	51.2
314.009	43.01
314.223	36.86
314.437	10.24
314.651	4.1
314.864	18.43
315.078	77.82
315.292	14.34
315.505	114.69
315.719	2.05
315.933	77.82
316.146	-2.05
316.36	55.3
316.573	77.82
316.787	49.15
317.001	36.86
317.214	24.58
317.428	10.24
317.641	38.91
317.855	43.01
318.068	40.96
318.282	45.06
318.495	83.97
318.709	6.14
318.922	-12.29
319.136	38.91
319.349	6.14
319.563	86.01
319.776	79.87
319.99	6.14
320.203	69.63
320.417	36.86
320.63	32.77
320.843	28.67
321.057	45.06
321.27	61.44
321.483	14.34
321.697	67.58
321.91	-43.01
322.124	12.29
322.337	-40.96
322.55	-24.58
322.763	14.34
322.977	47.1
323.19	67.58
323.403	-22.53
323.617	-16.38
323.83	22.53
324.043	14.34
324.256	22.53
324.469	20.48
324.683	83.97
324.896	-63.49
325.109	12.29
325.322	-14.34
325.535	30.72
325.748	-38.91
325.962	-12.29
326.175	69.63
326.388	53.25
326.601	100.35
326.814	38.91
327.027	55.3
327.24	45.06
327.453	-24.58
327.666	20.48
327.879	67.58
328.092	-2.05
328.305	6.14
328.518	69.63
328.731	-67.58
328.944	86.01
329.157	36.86
329.37	32.77
329.583	24.58
329.796	26.62
330.009	12.29
330.222	45.06
330.435	69.63
330.648	-8.19
330.861	-14.34
331.073	24.58
331.286	57.34
331.499	81.92
331.712	-8.19
331.925	-28.67
332.138	-20.48
332.35	26.62
332.563	92.16
332.776	43.01
332.989	-57.34
333.202	59.39
333.414	43.01
333.627	4.1
333.84	73.73
334.053	14.34
334.265	-55.3
334.478	53.25
334.691	71.68
334.903	40.96
335.116	18.43
335.329	-12.29
335.541	40.96
335.754	57.34
335.966	-22.53
336.179	28.67
336.392	-53.25
336.604	-16.38
336.817	86.01
337.029	49.15
337.242	38.91
337.454	73.73
337.667	79.87
337.88	30.72
338.092	63.49
338.305	32.77
338.517	-22.53
338.729	-2.05
338.942	63.49
339.154	-10.24
339.367	14.34
339.579	40.96
339.792	-45.06
340.004	-51.2
340.217	22.53
340.429	51.2
340.641	-38.91
340.854	26.62
341.066	53.25
341.278	110.59
341.491	53.25
341.703	59.39
341.915	4.1
342.128	83.97
342.34	36.86
342.552	65.53
342.764	-10.24
342.977	67.58
343.189	34.82
343.401	26.62
343.613	-40.96
343.826	10.24
344.038	-10.24
344.25	32.77
344.462	81.92
344.674	-26.62
344.886	18.43
345.099	30.72
345.311	22.53
345.523	102.4
345.735	20.48
345.947	-2.05
346.159	71.68
346.371	18.43
346.583	30.72
346.795	36.86
347.007	30.72
347.219	43.01
347.431	73.73
347.643	24.58
347.855	6.14
348.067	26.62
348.279	22.53
348.491	14.34
348.703	53.25
348.915	-22.53
349.127	71.68
349.339	-20.48
349.551	18.43
349.763	53.25
349.975	-43.01
350.187	96.25
350.399	-8.19
350.61	-18.43
350.822	4.1
351.034	77.82
351.246	18.43
351.458	-18.43
351.669	65.53
351.881	36.86
352.093	51.2
352.305	14.34
352.517	20.48
352.728	55.3
352.94	45.06
353.152	116.73
353.363	-57.34
353.575	0
353.787	2.05
353.999	-32.77
354.21	32.77
354.422	-34.82
354.633	45.06
354.845	4.1
355.057	65.53
355.268	-4.1
355.48	6.14
355.692	63.49
355.903	73.73
356.115	10.24
356.326	-49.15
356.538	55.3
356.749	61.44
356.961	63.49
357.172	57.34
357.384	53.25
357.595	75.77
357.807	-14.34
358.018	34.82
358.23	8.19
358.441	28.67
358.653	34.82
358.864	8.19
359.075	26.62
359.287	26.62
359.498	-10.24
359.709	26.62
359.921	-26.62
360.132	69.63
360.344	36.86
360.555	51.2
360.766	38.91
360.977	20.48
361.189	79.87
361.4	-6.14
361.611	71.68
361.823	38.91
362.034	-43.01
362.245	4.1
362.456	-10.24
362.667	43.01
362.879	-30.72
363.09	14.34
363.301	73.73
363.512	30.72
363.723	43.01
363.935	75.77
364.146	69.63
364.357	92.16
364.568	47.1
364.779	34.82
364.99	83.97
365.201	4.1
365.412	45.06
365.623	-22.53
365.834	55.3
366.045	24.58
366.256	57.34
366.467	38.91
366.678	88.06
366.889	-40.96
367.1	-4.1
367.311	67.58
367.522	24.58
367.733	30.72
367.944	40.96
368.155	49.15
368.366	67.58
368.577	69.63
368.788	65.53
368.999	40.96
369.209	0
369.42	-6.14
369.631	12.29
369.842	36.86
370.053	16.38
370.264	24.58
370.474	-6.14
370.685	-45.06
370.896	4.1
371.107	18.43
371.317	32.77
371.528	30.72
371.739	47.1
371.95	59.39
372.16	67.58
372.371	57.34
372.582	18.43
372.792	57.34
373.003	92.16
373.214	-2.05
373.424	53.25
373.635	30.72
373.846	28.67
374.056	4.1
374.267	36.86
374.477	6.14
374.688	28.67
374.898	30.72
375.109	65.53
375.319	57.34
375.53	92.16
375.74	45.06
375.951	75.77
376.161	83.97
376.372	20.48
376.582	30.72
376.793	36.86
377.003	61.44
377.214	45.06
377.424	-36.86
377.635	104.45
377.845	-10.24
378.055	73.73
378.266	20.48
378.476	102.4
378.686	2.05
378.897	26.62
379.107	55.3
379.317	98.3
379.528	20.48
379.738	77.82
379.948	-4.1
380.158	100.35
380.369	51.2
380.579	-6.14
380.789	-51.2
380.999	73.73
381.21	40.96
381.42	110.59
381.63	12.29
381.84	100.35
382.05	20.48
382.261	106.49
382.471	65.53
382.681	18.43
382.891	98.3
383.101	43.01
383.311	49.15
383.521	96.25
383.731	-18.43
383.941	108.54
384.151	36.86
384.361	20.48
384.571	6.14
384.781	36.86
384.991	57.34
385.201	96.25
385.411	61.44
385.621	-12.29
385.831	40.96
386.041	61.44
386.251	59.39
386.461	67.58
386.671	16.38
386.881	38.91
387.091	36.86
387.301	104.45
387.511	8.19
387.72	10.24
387.93	53.25
388.14	49.15
388.35	26.62
388.56	-34.82
388.769	106.49
388.979	4.1
389.189	24.58
389.399	0
389.609	94.21
389.818	36.86
390.028	57.34
390.238	86.01
390.447	28.67
390.657	57.34
390.867	22.53
391.076	34.82
391.286	53.25
391.496	24.58
391.705	53.25
391.915	30.72
392.125	69.63
392.334	6.14
392.544	77.82
392.753	51.2
392.963	98.3
393.172	90.11
393.382	43.01
393.591	47.1
393.801	30.72
394.01	126.97
394.22	83.97
394.429	51.2
394.639	100.35
394.848	65.53
395.058	114.69
395.267	83.97
395.477	75.77
395.686	24.58
395.895	71.68
396.105	100.35
396.314	141.31
396.524	51.2
396.733	137.21
396.942	36.86
397.152	43.01
397.361	73.73
397.57	38.91
397.78	81.92
397.989	139.26
398.198	94.21
398.407	100.35
398.617	77.82
398.826	106.49
399.035	57.34
399.244	86.01
399.453	106.49
399.663	61.44
399.872	116.73
400.081	108.54
400.29	18.43
400.499	81.92
400.708	126.97
400.917	126.97
401.127	67.58
401.336	26.62
401.545	116.73
401.754	155.65
401.963	112.64
402.172	61.44
402.381	90.11
402.59	108.54
402.799	75.77
403.008	184.32
403.217	159.74
403.426	120.83
403.635	108.54
403.844	139.26
404.053	176.13
404.262	63.49
404.471	219.13
404.68	137.21
404.888	112.64
405.097	188.41
405.306	167.93
405.515	200.7
405.724	131.07
405.933	98.3
406.142	133.12
406.35	147.45
406.559	194.56
406.768	217.08
406.977	231.42
407.185	165.89
407.394	231.42
407.603	174.08
407.812	114.69
408.02	196.61
408.229	247.8
408.438	192.51
408.646	192.51
408.855	192.51
409.064	301.05
409.272	237.56
409.481	276.48
409.69	221.18
409.898	272.38
410.107	329.72
410.315	403.45
410.524	313.34
410.733	305.15
410.941	331.77
411.15	329.72
411.358	358.39
411.567	466.94
411.775	464.89
411.984	454.65
412.192	471.03
412.401	405.5
412.609	495.61
412.818	561.14
413.026	624.63
413.234	559.1
413.443	571.38
413.651	632.82
413.86	643.06
414.068	591.86
414.276	718.84
414.485	559.1
414.693	712.69
414.901	759.8
415.11	786.42
415.318	757.75
415.526	737.27
415.734	757.75
415.943	776.18
416.151	888.82
416.359	907.25
416.567	950.26
416.776	919.54
416.984	1003.5
417.192	1089.52
417.4	1101.81
417.608	1114.09
417.817	1187.82
418.025	1163.25
418.233	1245.16
418.441	1243.12
418.649	1259.5
418.857	1304.56
419.065	1368.04
419.273	1368.04
419.481	1431.53
419.689	1626.09
419.897	1691.62
420.105	1685.48
420.313	1675.24
420.521	1802.21
420.729	1818.6
420.937	1882.08
421.145	1955.81
421.353	2043.87
421.561	2103.26
421.769	2179.04
421.977	2193.37
422.185	2256.86
422.393	2371.55
422.601	2455.51
422.809	2562.01
423.017	2371.55
423.224	2695.13
423.432	2846.68
423.64	2865.11
423.848	2987.99
424.056	2944.98
424.263	3196.88
424.471	3239.89
424.679	3215.31
424.887	3370.96
425.094	3401.68
425.302	3612.62
425.51	3479.5
425.718	3766.21
425.925	3866.56
426.133	3880.9
426.341	4202.43
426.548	4351.93
426.756	4323.26
426.964	4368.32
427.171	4542.39
427.379	4972.47
427.586	4980.66
427.794	4925.36
428.001	5255.09
428.209	5455.79
428.417	5277.62
428.624	5998.5
428.832	5853.09
429.039	5736.36
429.247	5994.4
429.454	6342.56
429.662	6829.98
429.869	6203.3
430.076	6768.54
430.284	6659.99
430.491	7032.72
430.699	7210.9
430.906	7354.26
431.114	7268.24
431.321	7565.2
431.528	7761.8
431.736	8265.6
431.943	8855.42
432.15	8376.19
432.358	8746.87
432.565	8939.38
432.772	8998.77
432.979	9455.47
433.187	9682.8
433.394	9686.89
433.601	10413.92
433.808	10264.42
434.016	10385.25
434.223	10893.15
434.43	11419.47
434.637	10987.35
434.844	11880.27
435.052	12123.97
435.259	12042.06
435.466	12410.69
435.673	11997
435.88	12752.7
436.087	13655.86
436.294	13705.01
436.501	13268.79
436.708	13455.15
436.915	13846.32
437.122	14507.81
437.329	14386.98
437.537	15150.87
437.743	15384.34
437.95	15296.28
438.157	16056.07
438.364	16496.39
438.571	16541.44
438.778	16541.44
438.985	17932.01
439.192	17559.28
439.399	17878.77
439.606	17524.47
439.813	18505.45
440.02	19576.53
440.227	19488.47
440.433	18716.39
440.64	19787.47
440.847	19762.9
441.054	20221.64
441.261	21497.53
441.467	21157.57
441.674	21724.85
441.881	22480.55
442.088	22173.36
442.294	22116.01
442.501	22585
442.708	23400.09
442.914	24268.43
443.121	25446.01
443.328	24436.36
443.534	26007.16
443.741	25411.2
443.948	25116.29
444.154	27033.19
444.361	26793.58
444.568	26830.44
444.774	27051.62
444.981	27430.49
445.187	28120.66
445.394	29036.1
445.6	29089.35
445.807	31749.66
446.013	30420.53
446.22	30766.63
446.426	32323.09
446.633	32443.92
446.839	33295.88
447.046	32189.97
447.252	34057.72
447.459	33977.85
447.665	33451.52
447.871	35579.36
448.078	37074.38
448.284	35413.48
448.491	35958.24
448.697	37092.81
448.903	38438.33
449.11	38092.22
449.316	37440.96
449.522	37799.36
449.728	39458.21
449.935	39148.97
450.141	39351.72
450.347	39904.67
450.553	39093.68
450.76	39730.59
450.966	40711.57
451.172	40267.16
451.378	41260.43
451.584	40142.24
451.791	41252.23
451.997	41250.19
452.203	41719.17
452.409	41817.47
452.615	41352.58
452.821	40285.59
453.027	39450.02
453.233	41870.72
453.44	40000.93
453.646	40482.2
453.852	40508.82
454.058	41137.55
454.264	39962.01
454.47	40875.41
454.676	39574.95
454.882	41213.32
455.088	37451.2
455.294	38098.36
455.5	38421.94
455.705	38589.88
455.911	37031.37
456.117	36546
456.323	35765.73
456.529	34225.65
456.735	35378.66
456.941	34686.45
457.147	33893.88
457.352	32933.39
457.558	32450.06
457.764	32671.25
457.97	32101.91
458.176	31342.11
458.381	31338.02
458.587	29587
458.793	29738.55
458.999	28403.28
459.204	30297.65
459.41	29343.3
459.616	27545.18
459.821	27438.69
460.027	27541.08
460.233	26547.82
460.438	25486.97
460.644	25704.06
460.85	24569.48
461.055	24321.68
461.261	24188.56
461.466	22132.4
461.672	21614.26
461.878	22890.15
462.083	21579.45
462.289	21192.38
462.494	21034.69
462.7	20008.65
462.905	19498.71
463.111	20219.6
463.316	20305.61
463.522	19812.05
463.727	19599.06
463.932	19990.22
464.138	19578.58
464.343	19523.29
464.549	19136.22
464.754	19807.95
464.959	19572.44
465.165	19338.97
465.37	18728.67
465.575	18046.7
465.781	18757.35
465.986	19029.73
466.191	18183.91
466.397	17989.36
466.602	16963.33
466.807	17823.47
467.012	17805.04
467.218	17542.9
467.423	17456.89
467.628	17387.25
467.833	18314.98
468.038	17579.76
468.244	16901.89
468.449	17737.46
468.654	17305.34
468.859	17217.27
469.064	16910.08
469.269	16084.75
469.474	16512.77
469.679	16518.92
469.885	15974.16
470.09	16506.63
470.295	16037.64
470.5	15988.49
470.705	15978.25
470.91	15709.97
471.115	15443.73
471.32	15925
471.525	15648.53
471.73	15345.43
471.935	15236.89
472.139	14774.05
472.344	14909.21
472.549	14653.22
472.754	14475.04
472.959	14221.09
473.164	13967.15
473.369	13829.93
473.574	14542.63
473.778	13868.84
473.983	13883.18
474.188	14010.15
474.393	13035.32
474.598	13301.56
474.802	13160.25
475.007	12678.97
475.212	13199.16
475.417	12771.13
475.621	12646.21
475.826	12650.3
476.031	12646.21
476.235	12306.24
476.44	12339.01
476.645	11988.81
476.849	12093.26
477.054	12093.26
477.259	11671.37
477.463	11728.72
477.668	11556.69
477.872	11687.76
478.077	11403.09
478.282	11157.33
478.486	11083.61
478.691	11112.28
478.895	10882.91
479.1	10930.01
479.304	10993.5
479.509	10682.2
479.713	10981.21
479.918	10504.03
480.122	10276.71
480.326	10356.58
480.531	10442.59
480.735	10450.78
480.94	10207.08
481.144	10803.04
481.348	9842.54
481.553	10436.45
481.757	10024.81
481.961	10184.55
482.166	10407.78
482.37	10235.75
482.574	10057.57
482.778	10200.93
482.983	10356.58
483.187	10067.81
483.391	10098.53
483.595	10071.91
483.8	10037.09
484.004	10080.1
484.208	10241.89
484.412	9994.09
484.616	10133.35
484.821	10145.64
485.025	9996.14
485.229	10313.57
485.433	10020.71
485.637	9977.7
485.841	10086.25
486.045	9934.7
486.249	10149.73
486.453	9934.7
486.657	9869.16
486.861	10325.86
487.065	9926.5
487.269	10147.69
487.473	9969.51
487.677	10180.45
487.881	9992.04
488.085	10250.08
488.289	10123.11
488.493	9875.31
488.697	10159.97
488.901	10096.49
489.105	10125.16
489.309	10313.57
489.512	10170.21
489.716	10383.2
489.92	10344.29
490.124	10045.29
490.328	10405.73
490.531	10377.06
490.735	10461.02
490.939	10334.05
491.143	10211.17
491.346	10227.56
491.55	10559.33
491.754	10600.29
491.958	10633.05
492.161	10452.83
492.365	10848.09
492.569	10522.46
492.772	10762.08
492.976	10590.05
493.18	10641.25
493.383	11005.78
493.587	11052.89
493.79	11097.94
493.994	10815.32
494.197	11155.29
494.401	11194.2
494.605	11304.79
494.808	11388.75
495.012	11355.99
495.215	11421.52
495.419	11433.81
495.622	11417.43
495.825	11595.6
496.029	11870.03
496.232	12164.93
496.436	11908.94
496.639	11988.81
496.843	12103.5
497.046	12480.32
497.249	12402.5
497.453	12439.36
497.656	12629.82
497.859	12586.82
498.063	12660.54
498.266	13193.01
498.469	12926.78
498.673	13098.81
498.876	13430.58
499.079	13571.89
499.282	13377.33
499.485	13692.72
499.689	13911.85
499.892	13981.48
500.095	14090.02
500.298	14429.99
500.501	14184.23
500.705	14821.15
500.908	14921.5
501.111	14806.81
501.314	14997.28
501.517	15271.7
501.72	15617.81
501.923	15335.19
502.126	15771.41
502.329	15869.71
502.532	15935.24
502.735	16127.75
502.938	16412.42
503.141	16639.75
503.344	16844.54
503.547	16723.71
503.75	17039.1
503.953	17100.54
504.156	17465.08
504.359	17710.83
504.562	17815.28
504.765	18276.07
504.968	18118.38
505.17	18331.37
505.373	18429.67
505.576	18783.97
505.779	19005.15
505.982	18921.18
506.185	19508.95
506.387	19400.41
506.59	19777.23
506.793	20201.16
506.996	19758.8
507.198	20633.29
507.401	20309.71
507.604	20565.7
507.807	21042.88
508.009	21290.68
508.212	21323.45
508.415	21489.34
508.617	21687.99
508.82	21845.68
509.022	22093.49
509.225	22453.93
509.428	22490.79
509.63	22728.36
509.833	22826.66
510.035	23062.18
510.238	23070.37
510.44	23592.6
510.643	23826.07
510.845	23922.32
511.048	23918.23
511.25	24383.12
511.453	24483.47
511.655	25091.71
511.858	25065.09
512.06	25060.99
512.262	25421.44
512.465	25562.75
512.667	25462.4
512.87	26173.04
513.072	26553.96
513.274	26838.63
513.477	27338.33
513.679	26852.97
513.881	27555.42
514.084	27555.42
514.286	27592.28
514.488	28067.41
514.69	28702.28
514.893	28999.24
515.095	28837.45
515.297	28892.74
515.499	29425.21
515.701	29333.06
515.904	29728.31
516.106	30017.08
516.308	30154.29
516.51	30307.89
516.712	30385.71
516.914	30752.3
517.116	31788.57
517.318	31223.33
517.52	31553.05
517.722	31335.97
517.925	32235.03
518.127	32685.58
518.329	32323.09
518.531	32572.94
518.733	33179.14
518.935	33562.11
519.136	33236.48
519.338	33936.89
519.54	33986.04
519.742	34293.24
519.944	34299.38
520.146	34876.91
520.348	35247.59
520.55	35263.97
520.752	35175.91
520.954	36216.28
521.155	35702.24
521.357	36259.29
521.559	36908.49
521.761	37053.9
521.963	36568.53
522.164	37445.06
522.366	37541.32
522.568	37240.26
522.77	37799.36
522.971	38378.93
523.173	38045.12
523.375	38104.51
523.576	38598.07
523.778	38471.09
523.98	39019.95
524.181	38938.03
524.383	39036.33
524.584	39527.84
524.786	39427.49
524.988	39454.12
525.189	39970.21
525.391	40121.76
525.592	40498.58
525.794	40447.38
525.995	40355.22
526.197	40451.48
526.398	40877.46
526.6	41096.59
526.801	41190.8
527.003	41489.8
527.204	41196.94
527.406	41530.76
527.607	41618.82
527.808	42040.7
528.01	41375.11
528.211	41663.88
528.412	42259.84
528.614	42347.9
528.815	42167.68
529.016	42696.05
529.218	42534.26
529.419	42374.52
529.62	42831.22
529.822	42268.03
530.023	42759.54
530.224	42718.58
530.425	42673.52
530.626	42921.33
530.828	41940.35
531.029	43515.24
531.23	42890.61
531.431	42806.64
531.632	43050.35
531.833	43238.76
532.035	43275.63
532.236	42997.1
532.437	43005.3
532.638	42827.12
532.839	43322.73
533.04	43513.19
533.241	43027.82
533.442	43646.31
533.643	43251.05
533.844	42843.51
534.045	43539.82
534.246	42700.15
534.447	43392.36
534.648	43095.41
534.849	43189.61
535.05	43226.48
535.251	43375.98
535.451	43359.59
535.652	43578.73
535.853	43154.8
536.054	43449.7
536.255	43634.02
536.456	43224.43
536.657	43820.39
536.857	43496.81
537.058	43062.64
537.259	43910.5
537.46	43541.86
537.66	43236.72
537.861	43400.55
538.062	42939.76
538.263	43287.92
538.463	43246.96
538.664	43115.89
538.865	43330.92
539.065	43781.48
539.266	42878.32
539.466	43668.84
539.667	42919.28
539.868	43756.9
540.068	43206
540.269	43195.76
540.469	43339.11
540.67	42947.95
540.87	43138.41
541.071	43173.23
541.271	43236.72
541.472	43263.34
541.672	42739.06
541.873	42894.71
542.073	42751.35
542.274	43240.81
542.474	42986.86
542.675	42651
542.875	43214.19
543.075	42759.54
543.276	42493.3
543.476	43306.35
543.676	42546.55
543.877	42562.93
544.077	43033.97
544.277	42497.4
544.478	42601.85
544.678	43310.44
544.878	42595.7
545.078	42880.37
545.279	42151.29
545.479	42423.67
545.679	42741.11
545.879	42796.4
546.079	42861.94
546.28	42685.81
546.48	42296.7
546.68	42853.75
546.88	42990.96
547.08	42646.9
547.28	42372.47
547.48	42390.91
547.68	42612.09
547.88	42007.93
548.081	42413.43
548.281	42786.16
548.481	42366.33
548.681	43013.49
548.881	42524.02
549.081	42227.07
549.28	42087.81
549.48	43001.2
549.68	42335.61
549.88	42648.95
550.08	42573.17
550.28	42265.98
550.48	42059.13
550.68	42698.1
550.88	42290.55
551.08	41975.17
551.279	42313.08
551.479	41932.16
551.679	42454.39
551.879	42278.27
552.079	42659.19
552.278	42038.65
552.478	42294.65
552.678	41940.35
552.878	42081.66
553.077	42034.56
553.277	41796.99
553.477	42653.05
553.676	41989.5
553.876	42403.19
554.076	41921.92
554.275	41708.93
554.475	41448.84
554.674	42141.05
554.874	42046.85
555.074	41799.04
555.273	41907.58
555.473	42534.26
555.672	41575.81
555.872	41721.22
556.071	41428.36
556.271	41661.83
556.47	41514.37
556.67	41248.14
556.869	41389.45
557.068	41559.43
557.268	41262.47
557.467	41192.84
557.667	41358.73
557.866	41166.22
558.065	40883.6
558.265	41082.25
558.464	40986
558.663	41371.02
558.863	40566.16
559.062	41721.22
559.261	40439.19
559.461	41311.63
559.66	40236.44
559.859	40703.38
560.058	40650.13
560.258	40979.85
560.457	40476.05
560.656	40881.55
560.855	40412.57
561.054	40621.46
561.253	40244.63
561.453	40674.71
561.652	40496.53
561.851	40549.78
562.05	39982.49
562.249	39841.18
562.448	40519.06
562.647	40279.45
562.846	40232.35
563.045	40037.79
563.244	39720.35
563.443	40066.46
563.642	39407.01
563.841	39847.33
564.04	39568.8
564.239	39839.14
564.438	39224.75
564.637	39607.72
564.836	39640.48
565.035	39167.4
565.234	39196.07
565.432	38991.28
565.631	39415.21
565.83	39374.25
566.029	38931.89
566.228	39140.78
566.427	38608.31
566.625	38479.28
566.824	38401.46
567.023	38456.76
567.222	38430.13
567.42	38968.75
567.619	38438.33
567.818	38358.45
568.016	38313.4
568.215	38475.19
568.414	37930.43
568.612	37977.53
568.811	38071.74
569.01	38331.83
569.208	37465.54
569.407	37920.19
569.605	37324.23
569.804	37901.76
570.002	37641.67
570.201	37670.34
570.4	37584.32
570.598	37363.14
570.797	37090.76
570.995	37414.34
571.193	36791.76
571.392	37213.64
571.59	37039.56
571.789	37232.07
571.987	36640.21
572.186	36701.65
572.384	36369.88
572.582	36832.72
572.781	36556.24
572.979	35943.9
573.177	36644.3
573.376	36261.33
573.574	36115.93
573.772	36390.36
573.971	35710.43
574.169	35579.36
574.367	35339.75
574.565	35845.6
574.763	35452.39
574.962	35384.8
575.16	35194.34
575.358	35384.8
575.556	35177.96
575.754	35288.55
575.952	34864.62
576.151	35687.9
576.349	34680.3
576.547	34620.91
576.745	34790.89
576.943	34819.56
577.141	34612.72
577.339	34622.96
577.537	34514.42
577.735	34260.47
577.933	34194.93
578.131	34481.65
578.329	33904.12
578.527	33631.74
578.725	33840.64
578.923	33965.56
579.121	33648.13
579.319	33306.12
579.516	33715.71
579.714	33555.97
579.912	33453.57
580.11	33385.99
580.308	33625.6
580.506	33175.05
580.704	32644.62
580.901	33097.22
581.099	33248.77
581.297	32835.08
581.495	32859.66
581.692	33074.7
581.89	32519.7
582.088	32755.21
582.285	32466.45
582.483	32642.57
582.681	32591.37
582.878	32458.26
583.076	32112.15
583.274	32474.64
583.471	31690.27
583.669	31899.16
583.866	31933.98
584.064	31626.78
584.262	31372.83
584.459	31749.66
584.657	31755.8
584.854	31839.77
585.052	31086.12
585.249	31487.52
585.447	31411.74
585.644	30768.68
585.841	31170.08
586.039	31413.79
586.236	30909.99
586.434	30754.35
586.631	30701.1
586.828	30807.59
587.026	30637.61
587.223	30416.43
587.42	30576.17
587.618	30660.14
587.815	30082.61
588.012	29959.73
588.21	30170.68
588.407	30303.79
588.604	29828.66
588.801	29763.13
588.999	29873.72
589.196	29707.83
589.393	29664.83
589.59	29347.39
589.787	29503.04
589.984	29455.93
590.182	29355.58
590.379	29165.12
590.576	29146.69
590.773	28710.47
590.97	28477.01
591.167	28935.75
591.364	28642.89
591.561	28579.4
591.758	28485.2
591.955	28282.45
592.152	28384.85
592.349	28278.35
592.546	28540.49
592.743	28178
592.94	27747.93
593.137	28108.37
593.334	27942.49
593.531	27403.87
593.727	27940.44
593.924	27666.01
594.121	27338.33
594.318	27522.65
594.515	27383.39
594.712	27655.77
594.908	27477.6
595.105	27346.53
595.302	27190.88
595.499	27145.83
595.696	26836.58
595.892	26394.22
596.089	26760.81
596.286	27022.95
596.482	26793.58
596.679	26639.98
596.876	26605.16
597.072	26435.18
597.269	26506.86
597.466	26121.84
597.662	26345.07
597.859	26451.56
598.055	25955.96
598.252	25996.92
598.448	25943.67
598.645	25849.46
598.841	25673.34
599.038	25863.8
599.234	25697.91
599.431	25470.59
599.627	25339.52
599.824	25495.16
600.02	25089.67
600.217	25214.59
600.413	25179.78
600.609	25157.25
600.806	25144.96
601.002	25190.02
601.198	24606.34
601.395	24872.58
601.591	24569.48
601.787	24602.25
601.984	24493.71
602.18	24583.82
602.376	24571.53
602.572	24270.48
602.769	24319.63
602.965	24176.27
603.161	24286.86
603.357	24237.71
603.553	24028.82
603.75	24092.3
603.946	23654.04
604.142	23848.6
604.338	23705.24
604.534	23676.57
604.73	23580.31
604.926	23406.23
605.122	23291.55
605.318	23256.73
605.514	23185.05
605.71	22912.67
605.906	23269.02
606.102	23395.99
606.298	23236.25
606.494	22908.58
606.69	23051.94
606.886	23101.09
607.082	22761.12
607.278	22711.97
607.474	22617.77
607.67	22718.12
607.866	22615.72
608.062	22509.22
608.257	22255.28
608.453	22304.43
608.649	22687.4
608.845	22326.96
609.041	22204.08
609.236	22290.09
609.432	22101.68
609.628	22251.18
609.824	22060.72
610.019	22107.82
610.215	21798.58
610.411	22136.49
610.606	21788.34
610.802	21782.2
610.998	21890.74
611.193	21731
611.389	21927.6
611.584	21448.38
611.78	21397.18
611.976	21401.27
612.171	21431.99
612.367	21653.17
612.562	21280.44
612.758	21094.08
612.953	21315.26
613.149	21348.03
613.344	21223.1
613.539	21368.51
613.735	21341.88
613.93	21124.8
614.126	21051.07
614.321	21253.82
614.517	20897.47
614.712	20891.33
614.907	20686.53
615.103	21034.69
615.298	20717.25
615.493	20901.57
615.688	20831.94
615.884	20975.3
616.079	20729.54
616.274	20463.3
616.47	20690.63
616.665	20549.32
616.86	20283.08
617.055	20645.57
617.25	20434.63
617.445	20557.51
617.641	20129.48
617.836	20395.72
618.031	19904.21
618.226	20463.3
618.421	19941.07
618.616	19990.22
618.811	19646.16
619.006	20242.12
619.201	19566.29
619.396	19855.06
619.591	19347.16
619.786	19709.65
619.981	19433.18
620.176	19680.98
620.371	19248.86
620.566	19197.66
620.761	19105.5
620.956	19291.87
621.151	18933.47
621.346	18968.29
621.541	18425.57
621.735	18628.32
621.93	18261.74
622.125	18714.34
622.32	18421.48
622.515	18366.18
622.709	18298.6
622.904	17987.31
623.099	17972.97
623.294	17907.44
623.488	17809.14
623.683	17878.77
623.878	17452.79
624.072	17630.96
624.267	17723.12
624.462	17913.58
624.656	17161.98
624.851	17221.37
625.046	17204.99
625.24	17043.2
625.435	17035
625.629	16873.21
625.824	16881.41
626.018	16836.35
626.213	16283.4
626.407	16447.24
626.602	16393.99
626.796	16393.99
626.991	16398.09
627.185	16445.19
627.38	16039.69
627.574	15851.28
627.768	15857.42
627.963	15943.44
628.157	15810.32
628.352	15705.87
628.546	15460.12
628.74	15681.3
628.935	15327
629.129	15286.04
629.323	15021.85
629.517	15589.14
629.712	14995.23
629.906	15120.15
630.1	14749.47
630.294	15103.77
630.489	14962.46
630.683	14755.61
630.877	14552.87
631.071	14442.28
631.265	14425.89
631.459	14235.43
631.653	14399.27
631.848	14014.25
632.042	14098.22
632.236	14243.62
632.43	13856.56
632.624	13834.03
632.818	13739.82
633.012	13631.28
633.206	13731.63
633.4	13897.52
633.594	13588.27
633.788	13496.11
633.982	13365.04
634.176	13373.24
634.369	13395.76
634.563	13358.9
634.757	13164.34
634.951	12998.46
635.145	13000.51
635.339	13063.99
635.533	12691.26
635.726	12736.32
635.92	12554.05
636.114	12750.65
636.308	12599.1
636.501	12541.76
636.695	12715.84
636.889	12304.2
637.083	12287.81
637.276	12062.54
637.47	12257.09
637.664	12111.69
637.857	12154.69
638.051	11990.86
638.244	11759.44
638.438	12060.49
638.632	11734.86
638.825	11679.57
639.019	11773.77
639.212	11501.39
639.406	11767.63
639.599	11689.81
639.793	11702.09
639.986	11136.85
640.18	11464.53
640.373	11296.6
640.567	11077.46
640.76	11020.12
640.954	10981.21
641.147	10762.08
641.34	10874.71
641.534	10868.57
641.727	10788.7
641.92	10770.27
642.114	10723.16
642.307	10700.64
642.5	10843.99
642.694	10454.88
642.887	10407.78
643.08	10612.57
643.273	10276.71
643.467	10585.95
643.66	10213.22
643.853	10315.62
644.046	9992.04
644.239	10123.11
644.432	9928.55
644.626	9955.18
644.819	10108.77
645.012	10200.93
645.205	10006.38
645.398	9752.43
645.591	9736.04
645.784	10002.28
645.977	9486.19
646.17	9650.03
646.363	9512.81
646.556	9430.9
646.749	9660.27
646.942	9445.23
647.135	9211.76
647.328	9541.49
647.521	9215.86
647.714	9027.45
647.907	9129.84
648.099	9148.28
648.292	9088.89
648.485	9054.07
648.678	8947.58
648.871	8865.66
649.064	8843.13
649.256	8910.71
649.449	8851.32
649.642	8712.06
649.835	8726.39
650.027	8683.39
650.22	8443.78
650.413	8603.52
650.605	8388.48
650.798	8429.44
650.991	8437.63
651.183	8376.19
651.376	8261.51
651.568	8400.77
651.761	8390.53
651.954	8132.48
652.146	8195.97
652.339	8140.68
652.531	8060.8
652.724	8023.94
652.916	7892.87
653.109	7874.44
653.301	7909.26
653.494	7954.31
653.686	7731.08
653.879	7821.19
654.071	7880.58
654.263	7634.83
654.456	7743.37
654.648	7616.4
654.84	7411.6
655.033	7509.9
655.225	7362.45
655.417	7460.75
655.61	7382.93
655.802	7233.43
655.994	7212.95
656.186	7389.07
656.379	7376.78
656.571	7434.13
656.763	7190.42
656.955	7106.45
657.148	7188.37
657.34	7016.34
657.532	7063.44
657.724	6778.78
657.916	7092.12
658.108	6942.61
658.3	6852.5
658.492	6940.57
658.684	6608.8
658.876	6629.27
659.068	6690.71
659.26	6729.63
659.452	6647.71
659.644	6584.22
659.836	6805.4
660.028	6475.68
660.22	6432.67
660.412	6510.49
660.604	6451.1
660.796	6584.22
660.988	6281.12
661.18	6473.63
661.372	6305.7
661.563	6248.35
661.755	6274.98
661.947	6295.46
662.139	6094.75
662.331	6287.26
662.522	6268.83
662.714	6031.27
662.906	6094.75
663.097	5986.21
663.289	6094.75
663.481	5928.87
663.673	5920.68
663.864	5877.67
664.056	5857.19
664.247	5769.13
664.439	5713.83
664.631	5820.33
664.822	5748.65
665.014	5769.13
665.205	5797.8
665.397	5736.36
665.588	5584.81
665.78	5621.67
665.971	5613.48
666.163	5605.29
666.354	5418.93
666.546	5404.59
666.737	5586.86
666.929	5486.51
667.12	5353.39
667.311	5355.44
667.503	5334.96
667.694	5377.97
667.885	5203.89
668.077	5279.66
668.268	5115.83
668.459	5253.04
668.651	5189.55
668.842	5230.51
669.033	5285.81
669.224	5195.7
669.416	5275.57
669.607	5085.11
669.798	5056.43
669.989	5062.58
670.18	4962.23
670.371	4997.04
670.563	4859.83
670.754	5035.96
670.945	4970.42
671.136	5046.19
671.327	4767.67
671.518	4798.39
671.709	4804.53
671.9	4923.32
672.091	4896.69
672.282	4982.71
672.473	4761.53
672.664	4777.91
672.855	4822.97
673.046	4642.75
673.237	4661.18
673.428	4691.9
673.619	4704.18
673.809	4652.98
674	4650.94
674.191	4587.45
674.382	4685.75
674.573	4411.32
674.764	4556.73
674.954	4577.21
675.145	4507.58
675.336	4337.6
675.527	4462.52
675.717	4589.5
675.908	4495.29
676.099	4517.82
676.289	4558.78
676.48	4485.05
676.671	4429.76
676.861	4612.03
677.052	4503.48
677.243	4399.04
677.433	4335.55
677.624	4329.41
677.814	4257.73
678.005	4267.97
678.195	4370.37
678.386	4306.88
678.576	4097.99
678.767	4151.23
678.957	4243.39
679.148	4415.42
679.338	4188.1
679.529	4210.62
679.719	4134.85
679.909	4122.56
680.1	4237.25
680.29	4161.47
680.481	4241.34
680.671	4169.66
680.861	4120.51
681.052	4157.38
681.242	4128.7
681.432	4050.88
681.622	4036.55
681.813	3985.35
682.003	4186.05
682.193	3889.09
682.383	4108.23
682.573	3948.48
682.764	3876.8
682.954	3971.01
683.144	4110.27
683.334	4003.78
683.524	4020.16
683.714	3921.86
683.904	3835.85
684.094	4087.75
684.284	3764.17
684.474	3868.61
684.664	3858.37
684.854	3944.39
685.044	3798.98
685.234	3823.56
685.424	3721.16
685.614	3723.21
685.804	3815.37
685.994	3901.38
686.184	3762.12
686.374	3788.74
686.564	3764.17
686.753	3741.64
686.943	3614.66
687.133	3667.91
687.323	3626.95
687.513	3700.68
687.702	3758.02
687.892	3614.66
688.082	3565.51
688.272	3626.95
688.461	3434.44
688.651	3645.38
688.841	3479.5
689.03	3446.73
689.22	3512.27
689.41	3336.14
689.599	3510.22
689.789	3481.55
689.979	3327.95
690.168	3514.31
690.358	3497.93
690.547	3299.28
690.737	3223.5
690.926	3289.04
691.116	3217.36
691.305	3416.01
691.495	3393.48
691.684	3227.6
691.874	3274.7
692.063	3256.27
692.252	3217.36
692.442	3235.79
692.631	3260.37
692.82	3235.79
693.01	3190.74
693.199	3258.32
693.388	3168.21
693.578	3129.3
693.767	3276.75
693.956	3098.58
694.146	3084.24
694.335	3127.25
694.524	3082.19
694.713	3162.06
694.902	3069.91
695.092	3082.19
695.281	2973.65
695.47	3006.42
695.659	2996.18
695.848	3078.1
696.037	3078.1
696.226	3096.53
696.415	2971.6
696.604	2912.21
696.793	3002.32
696.982	2944.98
697.171	3067.86
697.36	3069.91
697.549	3026.9
697.738	3012.56
697.927	3035.09
698.116	3016.66
698.305	3014.61
698.494	2930.64
698.683	2910.16
698.872	2875.35
699.061	2961.36
699.25	2910.16
699.438	2908.12
699.627	2959.31
699.816	2887.64
700.005	2877.4
700.193	2971.6
700.382	3016.66
700.571	2910.16
700.76	3026.9
700.948	2959.31
701.137	3018.71
701.326	2910.16
701.514	2797.53
701.703	2783.19
701.892	2955.22
702.08	2897.88
702.269	2940.88
702.457	2871.25
702.646	2846.68
702.834	2811.86
703.023	2834.39
703.212	2924.5
703.4	2795.48
703.589	2828.24
703.777	2904.02
703.965	3043.28
704.154	2805.72
704.342	2852.82
704.531	2904.02
704.719	2856.92
704.907	2985.94
705.096	2996.18
705.284	2961.36
705.472	2942.93
705.661	2912.21
705.849	2887.64
706.037	3061.71
706.226	2895.83
706.414	2928.6
706.602	2947.03
706.79	3006.42
706.979	2934.74
707.167	2891.73
707.355	2883.54
707.543	2951.12
707.731	2836.44
707.919	2834.39
708.107	2990.03
708.296	2924.5
708.484	2875.35
708.672	2826.2
708.86	2920.4
709.048	2965.46
709.236	2875.35
709.424	2793.43
709.612	2883.54
709.8	2830.29
709.988	2852.82
710.176	2820.05
710.364	2910.16
710.551	2871.25
710.739	3059.67
710.927	2852.82
711.115	2926.55
711.303	2861.01
711.491	2895.83
711.679	2813.91
711.866	2904.02
712.054	2891.73
712.242	2836.44
712.43	2926.55
712.617	2914.26
712.805	2901.97
712.993	2838.48
713.181	2944.98
713.368	2861.01
713.556	2914.26
713.744	2822.1
713.931	2856.92
714.119	2953.17
714.306	2944.98
714.494	2848.72
714.682	2805.72
714.869	2820.05
715.057	2869.2
715.244	2895.83
715.432	2840.53
715.619	2818.01
715.807	2846.68
715.994	2904.02
716.182	2754.52
716.369	2803.67
716.556	2953.17
716.744	2924.5
716.931	2820.05
717.119	2801.62
717.306	2871.25
717.493	2783.19
717.681	2897.88
717.868	2914.26
718.055	2770.9
718.242	2916.31
718.43	2863.06
718.617	2879.44
718.804	2961.36
718.991	2740.18
719.179	2908.12
719.366	2818.01
719.553	2809.81
719.74	2738.13
719.927	2762.71
720.114	2791.38
720.301	2873.3
720.488	2754.52
720.676	2826.2
720.863	2887.64
721.05	2895.83
721.237	2719.7
721.424	2838.48
721.611	2820.05
721.798	2838.48
721.985	2787.29
722.172	2873.3
722.358	2766.81
722.545	2760.66
722.732	2734.04
722.919	2785.24
723.106	2856.92
723.293	2775
723.48	2895.83
723.667	2793.43
723.853	2772.95
724.04	2867.16
724.227	2762.71
724.414	2750.42
724.6	2699.22
724.787	2887.64
724.974	2836.44
725.161	2674.65
725.347	2768.85
725.534	2904.02
725.72	2664.41
725.907	2682.84
726.094	2820.05
726.28	2758.61
726.467	2762.71
726.653	2822.1
726.84	2693.08
727.027	2822.1
727.213	2703.32
727.4	2719.7
727.586	2787.29
727.773	2602.97
727.959	2750.42
728.145	2822.1
728.332	2750.42
728.518	2713.56
728.705	2643.93
728.891	2635.74
729.077	2750.42
729.264	2693.08
729.45	2676.7
729.636	2691.03
729.823	2627.54
730.009	2682.84
730.195	2736.09
730.382	2648.02
730.568	2580.44
730.754	2727.89
730.94	2602.97
731.126	2709.46
731.313	2705.37
731.499	2686.93
731.685	2742.23
731.871	2664.41
732.057	2596.82
732.243	2691.03
732.429	2703.32
732.615	2662.36
732.801	2600.92
732.987	2607.06
733.173	2648.02
733.359	2676.7
733.545	2658.26
733.731	2582.49
733.917	2682.84
734.103	2697.17
734.289	2480.09
734.475	2611.16
734.661	2549.72
734.847	2551.77
735.033	2633.69
735.219	2607.06
735.404	2633.69
735.59	2461.66
735.776	2484.19
735.962	2629.59
736.148	2486.23
736.333	2678.74
736.519	2570.2
736.705	2635.74
736.89	2553.82
737.076	2482.14
737.262	2430.94
737.447	2475.99
737.633	2564.06
737.819	2551.77
738.004	2455.51
738.19	2426.84
738.375	2566.1
738.561	2445.27
738.747	2447.32
738.932	2451.42
739.118	2475.99
739.303	2435.03
739.489	2416.6
739.674	2373.6
739.859	2355.16
740.045	2545.63
740.23	2461.66
740.416	2349.02
740.601	2322.4
740.786	2351.07
740.972	2326.49
741.157	2238.43
741.342	2306.01
741.528	2248.67
741.713	2523.1
741.898	2217.95
742.084	2338.78
742.269	2404.32
742.454	2301.92
742.639	2326.49
742.824	2295.77
743.01	2338.78
743.195	2398.17
743.38	2215.9
743.565	2217.95
743.75	2213.85
743.935	2197.47
744.12	2351.07
744.305	2138.08
744.49	2256.86
744.675	2236.38
744.86	2236.38
745.045	2164.7
745.23	2095.07
745.415	2187.23
745.6	2250.72
745.785	2191.33
745.97	2140.13
746.155	2150.37
746.34	2113.5
746.525	2004.96
746.71	2060.26
746.895	2142.18
747.079	1988.58
747.264	2076.64
747.449	2045.92
747.634	2004.96
747.819	1939.43
748.003	2002.91
748.188	1988.58
748.373	1941.47
748.557	1861.6
748.742	1916.9
748.927	1943.52
749.111	1843.17
749.296	1904.61
749.481	1912.8
749.665	1804.26
749.85	1800.16
750.034	1806.31
750.219	1857.51
750.404	1796.07
750.588	1898.47
750.773	1687.53
750.957	1798.12
751.141	1808.36
751.326	1781.73
751.51	1662.95
751.695	1757.16
751.879	1728.49
752.064	1802.21
752.248	1699.81
752.432	1587.18
752.617	1695.72
752.801	1615.85
752.985	1699.81
753.17	1765.35
753.354	1638.38
753.538	1626.09
753.722	1609.7
753.907	1572.84
754.091	1636.33
754.275	1613.8
754.459	1585.13
754.643	1554.41
754.828	1558.5
755.012	1452.01
755.196	1605.61
755.38	1540.07
755.564	1517.54
755.748	1427.43
755.932	1572.84
756.116	1501.16
756.3	1470.44
756.484	1449.96
756.668	1452.01
756.852	1298.41
757.036	1464.3
757.22	1333.23
757.404	1402.86
757.588	1306.6
757.772	1265.64
757.956	1351.66
758.14	1425.39
758.323	1210.35
758.507	1329.13
758.691	1378.28
758.875	1343.47
759.059	1300.46
759.242	1267.69
759.426	1298.41
759.61	1243.12
759.794	1275.88
759.977	1282.03
760.161	1271.79
760.345	1134.57
760.528	1273.84
760.712	1234.93
760.895	1427.43
761.079	1198.06
761.263	1169.39
761.446	1193.97
761.63	1142.77
761.813	1124.33
761.997	1226.73
762.18	1253.36
762.364	1069.04
762.547	1097.71
762.731	1050.61
762.914	1179.63
763.098	1196.01
763.281	1216.49
763.464	1110
763.648	1040.37
763.831	1228.78
764.015	1155.05
764.198	1193.97
764.381	1144.81
764.564	1185.77
764.748	1089.52
764.931	1150.96
765.114	983.03
765.297	1081.33
765.481	1036.27
765.664	1087.47
765.847	1054.7
766.03	1110
766.213	1146.86
766.397	976.88
766.58	995.31
766.763	1077.23
766.946	985.07
767.129	1003.5
767.312	1042.42
767.495	968.69
767.678	948.21
767.861	899.06
768.044	991.22
768.227	989.17
768.41	964.59
768.593	978.93
768.776	942.07
768.959	1013.74
769.142	999.41
769.324	954.35
769.507	980.98
769.69	907.25
769.873	892.91
770.056	1023.98
770.239	931.83
770.421	997.36
770.604	884.72
770.787	890.87
770.97	878.58
771.152	952.31
771.335	923.63
771.518	944.11
771.7	903.15
771.883	886.77
772.066	872.43
772.248	913.39
772.431	935.92
772.613	907.25
772.796	913.39
772.978	786.42
773.161	890.87
773.343	892.91
773.526	843.76
773.708	808.95
773.891	782.32
774.073	856.05
774.256	854
774.438	854
774.621	808.95
774.803	870.39
774.985	796.66
775.168	815.09
775.35	772.08
775.532	878.58
775.715	792.56
775.897	849.91
776.079	737.27
776.261	792.56
776.444	772.08
776.626	684.02
776.808	690.17
776.99	575.48
777.173	835.57
777.355	690.17
777.537	737.27
777.719	733.17
777.901	716.79
778.083	704.5
778.265	618.49
778.447	747.51
778.629	632.82
778.811	720.88
778.993	681.97
779.175	673.78
779.357	735.22
779.539	600.05
779.721	614.39
779.903	688.12
780.085	620.53
780.267	638.97
780.449	686.07
780.631	688.12
780.812	688.12
780.994	600.05
781.176	573.43
781.358	643.06
781.54	546.81
781.721	606.2
781.903	585.72
782.085	583.67
782.267	655.35
782.448	555
782.63	585.72
782.812	610.29
782.993	542.71
783.175	565.24
783.357	485.37
783.538	557.05
783.72	534.52
783.901	507.9
784.083	567.29
784.264	563.19
784.446	481.27
784.627	575.48
784.809	448.51
784.99	516.09
785.172	552.95
785.353	542.71
785.535	491.51
785.716	511.99
785.897	489.46
786.079	503.8
786.26	417.79
786.441	448.51
786.623	520.18
786.804	477.18
786.985	540.66
787.167	415.74
787.348	509.94
787.529	421.88
787.71	487.42
787.891	401.4
788.073	311.29
788.254	421.88
788.435	452.6
788.616	493.56
788.797	456.7
788.978	393.21
789.159	411.64
789.34	434.17
789.522	475.13
789.703	354.3
789.884	352.25
790.065	352.25
790.246	331.77
790.427	413.69
790.607	464.89
790.788	378.87
790.969	399.35
791.15	415.74
791.331	251.9
791.512	331.77
791.693	333.82
791.874	360.44
792.054	403.45
792.235	356.35
792.416	323.58
792.597	325.63
792.778	350.2
792.958	284.67
793.139	346.11
793.32	358.39
793.5	286.72
793.681	393.21
793.862	323.58
794.042	350.2
794.223	385.02
794.404	227.32
794.584	329.72
794.765	268.28
794.945	360.44
795.126	380.92
795.306	380.92
795.487	286.72
795.667	249.85
795.848	331.77
796.028	299
796.209	256
796.389	311.29
796.57	264.19
796.75	305.15
796.93	339.96
797.111	278.52
797.291	309.24
797.471	337.91
797.652	256
797.832	253.95
798.012	270.33
798.192	282.62
798.373	272.38
798.553	256
798.733	325.63
798.913	296.96
799.093	288.76
799.274	274.43
799.454	329.72
799.634	243.71
799.814	323.58
799.994	278.52
800.174	342.01
800.354	280.57
800.534	176.13
800.714	237.56
800.894	233.47
801.074	196.61
801.254	253.95
801.434	276.48
801.614	307.2
801.794	239.61
801.974	608.25
802.154	221.18
802.334	210.94
802.514	147.45
802.693	245.76
802.873	167.93
803.053	327.67
803.233	284.67
803.413	280.57
803.592	174.08
803.772	206.84
803.952	249.85
804.131	249.85
804.311	235.52
804.491	196.61
804.67	217.08
804.85	227.32
805.03	208.89
805.209	204.8
805.389	190.46
805.568	159.74
805.748	221.18
805.928	178.17
806.107	229.37
806.287	206.84
806.466	198.65
806.646	208.89
806.825	108.54
807.004	204.8
807.184	184.32
807.363	188.41
807.543	204.8
807.722	198.65
807.901	188.41
808.081	264.19
808.26	137.21
808.439	161.79
808.619	184.32
808.798	202.75
808.977	114.69
809.156	219.13
809.336	165.89
809.515	202.75
809.694	198.65
809.873	204.8
810.052	188.41
810.231	212.99
810.411	186.37
810.59	186.37
810.769	221.18
810.948	182.27
811.127	90.11
811.306	186.37
811.485	165.89
811.664	143.36
811.843	151.55
812.022	137.21
812.201	169.98
812.38	192.51
812.559	126.97
812.737	163.84
812.916	79.87
813.095	188.41
813.274	157.69
813.453	210.94
813.632	77.82
813.811	215.04
813.989	139.26
814.168	172.03
814.347	176.13
814.526	139.26
814.704	116.73
814.883	178.17
815.062	126.97
815.24	108.54
815.419	81.92
815.598	75.77
815.776	90.11
815.955	106.49
816.133	157.69
816.312	167.93
816.49	133.12
816.669	131.07
816.847	83.97
817.026	163.84
817.204	114.69
817.383	122.88
817.561	47.1
817.74	120.83
817.918	153.6
818.097	163.84
818.275	129.02
818.453	116.73
818.632	159.74
818.81	126.97
818.988	126.97
819.167	176.13
819.345	227.32
819.523	159.74
819.701	126.97
819.879	163.84
820.058	139.26
820.236	77.82
820.414	81.92
820.592	182.27
820.77	112.64
820.948	106.49
821.127	57.34
821.305	94.21
821.483	143.36
821.661	131.07
821.839	137.21
822.017	110.59
822.195	112.64
822.373	145.41
822.551	122.88
822.729	94.21
822.907	75.77
823.085	71.68
823.262	92.16
823.44	143.36
823.618	108.54
823.796	92.16
823.974	67.58
824.152	98.3
824.329	71.68
824.507	102.4
824.685	112.64
824.863	32.77
825.04	116.73
825.218	40.96
825.396	75.77
825.574	131.07
825.751	96.25
825.929	139.26
826.107	86.01
826.284	59.39
826.462	112.64
826.639	116.73
826.817	75.77
826.994	131.07
827.172	157.69
827.349	184.32
827.527	67.58
827.704	43.01
827.882	67.58
828.059	45.06
828.237	94.21
828.414	163.84
828.591	81.92
828.769	51.2
828.946	102.4
829.124	77.82
829.301	73.73
829.478	114.69
829.655	122.88
829.833	83.97
830.01	43.01
830.187	40.96
830.364	28.67
830.542	12.29
830.719	90.11
830.896	57.34
831.073	57.34
831.25	40.96
831.427	96.25
831.604	141.31
831.782	67.58
831.959	120.83
832.136	75.77
832.313	112.64
832.49	108.54
832.667	100.35
832.844	-12.29
833.021	71.68
833.198	73.73
833.374	30.72
833.551	73.73
833.728	16.38
833.905	79.87
834.082	45.06
834.259	104.45
834.436	129.02
834.612	30.72
834.789	126.97
834.966	79.87
835.143	71.68
835.319	12.29
835.496	28.67
835.673	126.97
835.85	71.68
836.026	34.82
836.203	81.92
836.38	90.11
836.556	32.77
836.733	69.63
836.909	59.39
837.086	57.34
837.262	18.43
837.439	4.1
837.616	20.48
837.792	92.16
837.968	30.72
838.145	63.49
838.321	114.69
838.498	53.25
838.674	57.34
838.851	40.96
839.027	65.53
839.203	43.01
839.38	43.01
839.556	10.24
839.732	59.39
839.909	4.1
840.085	16.38
840.261	61.44
840.437	20.48
840.614	100.35
840.79	73.73
840.966	0
841.142	157.69
841.318	75.77
841.494	24.58
841.671	94.21
841.847	6.14
842.023	53.25
842.199	0
842.375	100.35
842.551	12.29
842.727	63.49
842.903	4.1
843.079	-14.34
843.255	49.15
843.431	32.77
843.607	26.62
843.783	-22.53
843.959	59.39
844.134	38.91
844.31	43.01
844.486	28.67
844.662	65.53
844.838	26.62
845.013	36.86
845.189	10.24
845.365	47.1
845.541	26.62
845.716	-12.29
845.892	47.1
846.068	65.53
846.244	-20.48
846.419	22.53
846.595	-51.2
846.77	4.1
846.946	81.92
847.122	-16.38
847.297	6.14
847.473	108.54
847.648	-49.15
847.824	36.86
847.999	-49.15
848.175	8.19
848.35	-2.05
848.526	141.31
848.701	86.01
848.876	73.73
849.052	0
849.227	45.06
849.403	-24.58
849.578	71.68
849.753	-16.38
849.929	8.19
850.104	0
850.279	14.34
850.454	-12.29
850.63	94.21
850.805	-6.14
850.98	40.96
851.155	18.43
851.33	26.62
851.505	22.53
851.681	26.62
851.856	-43.01
852.031	18.43
852.206	36.86
852.381	30.72
852.556	-49.15
852.731	-53.25
852.906	49.15
853.081	-10.24
853.256	30.72
853.431	28.67
853.606	14.34
853.781	-16.38
853.956	86.01
854.131	24.58
854.305	86.01
854.48	30.72
854.655	-2.05
854.83	92.16
855.005	4.1
855.18	10.24
855.354	20.48
855.529	47.1
855.704	20.48
855.879	-14.34
856.053	-47.1
856.228	20.48
856.403	40.96
856.577	-16.38
856.752	-45.06
856.926	34.82
857.101	-10.24
857.276	47.1
857.45	34.82
857.625	43.01
857.799	61.44
857.974	-4.1
858.148	6.14
858.323	69.63
858.497	4.1
858.672	18.43
858.846	16.38
859.02	24.58
859.195	-12.29
859.369	20.48
859.543	-2.05
859.718	38.91
859.892	-10.24
860.066	34.82
860.241	63.49
860.415	-75.77
860.589	-86.01
860.763	100.35
860.938	-43.01
861.112	2.05
861.286	-14.34
861.46	-61.44
861.634	34.82
861.808	34.82
861.982	-20.48
862.157	-26.62
862.331	43.01
862.505	-26.62
862.679	14.34
862.853	-45.06
863.027	-65.54
863.201	116.73
863.375	77.82
863.549	-4.1
863.722	-63.49
863.896	2.05
864.07	-6.14
864.244	-12.29
864.418	-30.72
864.592	32.77
864.766	-14.34
864.939	16.38
865.113	6.14
865.287	-4.1
865.461	-24.58
865.634	-45.06
865.808	20.48
865.982	-47.1
866.156	-38.91
866.329	10.24
866.503	-18.43
866.676	75.77
866.85	16.38
867.024	-14.34
867.197	43.01
867.371	-20.48
867.544	40.96
867.718	-86.01
867.891	30.72
868.065	-14.34
868.238	10.24
868.412	10.24
868.585	-43.01
868.759	-8.19
868.932	-36.86
869.105	10.24
869.279	10.24
869.452	45.06
869.625	6.14
869.799	30.72
869.972	-6.14
870.145	20.48
870.319	-6.14
870.492	-59.39
870.665	-16.38
870.838	-55.3
871.011	32.77
871.185	22.53
871.358	18.43
871.531	-36.86
871.704	-30.72
871.877	-69.63
872.05	2.05
872.223	-55.3
872.396	-49.15
872.569	16.38
872.742	-8.19
872.915	40.96
873.088	-14.34
873.261	-75.77
873.434	45.06
873.607	-4.1
873.78	32.77
873.953	20.48
874.126	14.34
874.299	90.11
874.471	18.43
874.644	-4.1
874.817	-18.43
874.99	26.62
875.163	-96.25
875.335	20.48
875.508	-12.29
875.681	30.72
875.853	8.19
876.026	65.53
876.199	63.49
876.371	-12.29
876.544	16.38
876.717	-53.25
876.889	-108.54
877.062	-36.86
877.234	-96.25
877.407	-8.19
877.579	-65.54
877.752	2.05
877.924	32.77
878.097	-16.38
878.269	6.14
878.442	67.58
878.614	10.24
878.786	53.25
878.959	0
879.131	28.67
879.303	-10.24
879.476	4.1
879.648	102.4
879.82	-8.19
879.993	4.1
880.165	2.05
880.337	28.67
880.509	-55.3
880.681	-51.2
880.854	-47.1
881.026	-47.1
881.198	45.06
881.37	36.86
881.542	-34.82
881.714	-32.77
881.886	28.67
882.058	-45.06
882.23	-45.06
882.402	2.05
882.574	-40.96
882.746	43.01
882.918	96.25
883.09	28.67
883.262	-24.58
883.434	12.29
883.606	-16.38
883.778	45.06
883.95	26.62
884.122	-55.3
884.293	14.34
884.465	53.25
884.637	-12.29
884.809	-67.58
884.98	26.62
885.152	-6.14
885.324	-28.67
885.496	-49.15
885.667	-4.1
885.839	-16.38
886.011	32.77
886.182	18.43
886.354	14.34
886.525	-8.19
886.697	-2.05
886.869	12.29
887.04	-38.91
887.212	12.29
887.383	-26.62
887.555	30.72
887.726	63.49
887.897	30.72
888.069	-10.24
888.24	28.67
888.412	20.48
888.583	-36.86
888.754	-38.91
888.926	-18.43
889.097	-16.38
889.268	-16.38
889.44	12.29
889.611	79.87
889.782	-51.2
889.953	-28.67
890.125	83.97
890.296	-38.91
890.467	63.49
890.638	-10.24
890.809	53.25
890.98	-45.06
891.151	-22.53
891.323	49.15
891.494	45.06
891.665	0
891.836	-16.38
892.007	-40.96
892.178	-18.43
892.349	-18.43
892.52	32.77
892.691	-38.91
892.862	-2.05
893.032	-96.25
893.203	-55.3
893.374	-57.34
893.545	-38.91
893.716	-28.67
893.887	-75.77
894.057	-30.72
894.228	-43.01
894.399	-16.38
894.57	-45.06
894.74	-34.82
894.911	-34.82
895.082	-69.63
895.253	-16.38
895.423	79.87
895.594	22.53
895.764	40.96
895.935	-28.67
896.106	0
896.276	47.1
896.447	12.29
896.617	-47.1
896.788	-73.73
896.958	-28.67
897.129	43.01
897.299	-22.53
897.47	28.67
897.64	32.77
897.81	18.43
897.981	47.1
898.151	-6.14
898.322	-45.06
898.492	14.34
898.662	-8.19
898.832	-59.39
899.003	61.44
899.173	-2.05
899.343	30.72
899.513	-73.73
