Data from USB4F104151__80__12-02-11-686.txt Node

Date: Fri Mar 14 12:02:11 EDT 2025
User: louis
Spectrometer: USB4F10415
Trigger mode: 4
Integration Time (sec): 2.000000E-2
Scans to average: 1
Electric dark correction enabled: true
Nonlinearity correction enabled: false
Boxcar width: 0
XAxis mode: Wavelengths
Number of Pixels in Spectrum: 3648
>>>>>Begin Spectral Data<<<<<
178.204	-123.56
178.424	-123.56
178.644	-123.56
178.864	-123.56
179.084	-78.51
179.304	-51.88
179.524	48.47
179.744	15.7
179.964	5.46
180.184	-10.92
180.404	7.51
180.624	27.99
180.844	-47.79
181.064	-23.21
181.283	42.32
181.503	-43.69
181.723	30.04
181.943	-74.41
182.163	-15.02
182.383	-15.02
182.602	77.14
182.822	-23.21
183.042	-0.68
183.262	-29.35
183.482	101.72
183.701	-15.02
183.921	54.61
184.141	-12.97
184.361	-2.73
184.58	-55.98
184.8	34.13
185.02	-45.74
185.239	-29.35
185.459	13.65
185.679	-37.55
185.898	-12.97
186.118	50.52
186.338	-4.78
186.557	-39.59
186.777	3.41
186.997	-15.02
187.216	66.9
187.436	-2.73
187.655	17.75
187.875	19.8
188.095	48.47
188.314	9.56
188.534	42.32
188.753	34.13
188.973	-8.87
189.192	54.61
189.412	44.37
189.631	-21.16
189.851	44.37
190.07	48.47
190.29	21.85
190.509	13.65
190.729	23.89
190.948	23.89
191.168	66.9
191.387	1.37
191.607	-53.93
191.826	-51.88
192.045	58.71
192.265	-27.31
192.484	-10.92
192.704	-17.07
192.923	36.18
193.142	87.38
193.362	81.24
193.581	23.89
193.8	89.43
194.02	58.71
194.239	21.85
194.458	15.7
194.678	-68.27
194.897	-31.4
195.116	-12.97
195.335	-19.11
195.555	15.7
195.774	7.51
195.993	9.56
196.212	83.28
196.432	5.46
196.651	5.46
196.87	38.23
197.089	-0.68
197.308	64.85
197.528	-27.31
197.747	-10.92
197.966	46.42
198.185	109.91
198.404	-12.97
198.623	32.08
198.842	52.56
199.062	-2.73
199.281	3.41
199.5	23.89
199.719	13.65
199.938	-10.92
200.157	71
200.376	-27.31
200.595	126.29
200.814	44.37
201.033	34.13
201.252	30.04
201.471	52.56
201.69	34.13
201.909	-12.97
202.128	-6.83
202.347	58.71
202.566	11.61
202.785	32.08
203.004	-23.21
203.223	73.04
203.442	-35.5
203.661	-37.55
203.879	-10.92
204.098	87.38
204.317	19.8
204.536	-27.31
204.755	-21.16
204.974	46.42
205.193	15.7
205.411	71
205.63	-31.4
205.849	15.7
206.068	-19.11
206.287	-17.07
206.505	11.61
206.724	27.99
206.943	-6.83
207.162	5.46
207.381	15.7
207.599	32.08
207.818	-45.74
208.037	60.76
208.255	48.47
208.474	54.61
208.693	19.8
208.911	21.85
209.13	-10.92
209.349	95.57
209.567	7.51
209.786	-19.11
210.005	-17.07
210.223	30.04
210.442	-0.68
210.661	40.28
210.879	40.28
211.098	19.8
211.316	5.46
211.535	97.62
211.753	23.89
211.972	36.18
212.191	38.23
212.409	-10.92
212.628	7.51
212.846	-58.03
213.065	56.66
213.283	34.13
213.502	-51.88
213.72	13.65
213.938	-19.11
214.157	30.04
214.375	9.56
214.594	13.65
214.812	-12.97
215.031	48.47
215.249	-39.59
215.467	-25.26
215.686	79.19
215.904	-55.98
216.122	13.65
216.341	-10.92
216.559	-45.74
216.778	-17.07
216.996	38.23
217.214	87.38
217.432	38.23
217.651	3.41
217.869	5.46
218.087	13.65
218.306	58.71
218.524	-27.31
218.742	-49.83
218.96	-12.97
219.179	-45.74
219.397	-21.16
219.615	36.18
219.833	-31.4
220.051	3.41
220.27	83.28
220.488	30.04
220.706	7.51
220.924	-19.11
221.142	-31.4
221.36	-27.31
221.578	56.66
221.796	48.47
222.015	30.04
222.233	19.8
222.451	54.61
222.669	15.7
222.887	36.18
223.105	3.41
223.323	34.13
223.541	-8.87
223.759	38.23
223.977	48.47
224.195	21.85
224.413	56.66
224.631	71
224.849	-15.02
225.067	42.32
225.285	-39.59
225.503	5.46
225.721	-15.02
225.939	17.75
226.157	-60.07
226.375	56.66
226.592	25.94
226.81	13.65
227.028	52.56
227.246	46.42
227.464	23.89
227.682	60.76
227.9	-19.11
228.117	13.65
228.335	-53.93
228.553	73.04
228.771	75.09
228.989	21.85
229.206	-10.92
229.424	-15.02
229.642	-31.4
229.86	25.94
230.077	62.8
230.295	-17.07
230.513	46.42
230.731	3.41
230.948	5.46
231.166	40.28
231.384	-62.12
231.601	62.8
231.819	40.28
232.037	-31.4
232.254	7.51
232.472	-25.26
232.689	46.42
232.907	-2.73
233.125	42.32
233.342	81.24
233.56	7.51
233.777	1.37
233.995	-47.79
234.213	7.51
234.43	17.75
234.648	34.13
234.865	30.04
235.083	17.75
235.3	54.61
235.518	-4.78
235.735	54.61
235.953	79.19
236.17	66.9
236.388	-25.26
236.605	27.99
236.822	-25.26
237.04	25.94
237.257	21.85
237.475	32.08
237.692	38.23
237.909	13.65
238.127	23.89
238.344	27.99
238.562	77.14
238.779	-27.31
238.996	68.95
239.214	-25.26
239.431	9.56
239.648	1.37
239.865	44.37
240.083	97.62
240.3	-12.97
240.517	15.7
240.735	19.8
240.952	38.23
241.169	9.56
241.386	50.52
241.603	5.46
241.821	-15.02
242.038	-0.68
242.255	19.8
242.472	44.37
242.689	-15.02
242.907	1.37
243.124	-35.5
243.341	-6.83
243.558	30.04
243.775	-6.83
243.992	-27.31
244.209	-27.31
244.426	15.7
244.643	17.75
244.86	-41.64
245.078	25.94
245.295	50.52
245.512	44.37
245.729	-74.41
245.946	42.32
246.163	54.61
246.38	66.9
246.597	52.56
246.814	27.99
247.031	50.52
247.248	42.32
247.464	5.46
247.681	-6.83
247.898	13.65
248.115	15.7
248.332	-17.07
248.549	140.63
248.766	44.37
248.983	15.7
249.2	-37.55
249.417	-51.88
249.633	3.41
249.85	-31.4
250.067	11.61
250.284	50.52
250.501	21.85
250.717	71
250.934	-39.59
251.151	-8.87
251.368	32.08
251.585	27.99
251.801	-10.92
252.018	9.56
252.235	48.47
252.451	32.08
252.668	-39.59
252.885	-31.4
253.102	85.33
253.318	1.37
253.535	30.04
253.752	48.47
253.968	25.94
254.185	40.28
254.401	19.8
254.618	79.19
254.835	9.56
255.051	23.89
255.268	44.37
255.484	-68.27
255.701	15.7
255.917	11.61
256.134	21.85
256.351	-27.31
256.567	-45.74
256.784	21.85
257	3.41
257.217	40.28
257.433	111.96
257.65	48.47
257.866	71
258.082	36.18
258.299	25.94
258.515	-29.35
258.732	-78.51
258.948	-23.21
259.165	19.8
259.381	5.46
259.597	32.08
259.814	-45.74
260.03	-35.5
260.246	7.51
260.463	7.51
260.679	25.94
260.895	60.76
261.112	54.61
261.328	-19.11
261.544	-0.68
261.761	103.76
261.977	-12.97
262.193	17.75
262.409	50.52
262.626	-29.35
262.842	-0.68
263.058	3.41
263.274	23.89
263.49	62.8
263.707	32.08
263.923	44.37
264.139	-55.98
264.355	32.08
264.571	66.9
264.787	21.85
265.004	27.99
265.22	68.95
265.436	60.76
265.652	-31.4
265.868	34.13
266.084	44.37
266.3	-8.87
266.516	-43.69
266.732	-6.83
266.948	-62.12
267.164	75.09
267.38	1.37
267.596	62.8
267.812	38.23
268.028	-17.07
268.244	9.56
268.46	36.18
268.676	-6.83
268.892	11.61
269.108	48.47
269.324	-25.26
269.54	19.8
269.756	87.38
269.972	50.52
270.188	103.76
270.403	32.08
270.619	7.51
270.835	-12.97
271.051	50.52
271.267	40.28
271.483	-49.83
271.698	9.56
271.914	-41.64
272.13	-4.78
272.346	-12.97
272.562	-62.12
272.777	50.52
272.993	-10.92
273.209	-4.78
273.425	-27.31
273.64	-19.11
273.856	64.85
274.072	-80.55
274.287	-2.73
274.503	54.61
274.719	9.56
274.934	120.15
275.15	-23.21
275.366	23.89
275.581	23.89
275.797	7.51
276.012	46.42
276.228	66.9
276.444	25.94
276.659	19.8
276.875	5.46
277.09	34.13
277.306	30.04
277.521	-29.35
277.737	32.08
277.952	40.28
278.168	1.37
278.383	44.37
278.599	-21.16
278.814	30.04
279.03	64.85
279.245	122.2
279.461	30.04
279.676	77.14
279.892	-23.21
280.107	11.61
280.322	-6.83
280.538	7.51
280.753	-49.83
280.969	95.57
281.184	-15.02
281.399	-8.87
281.615	32.08
281.83	11.61
282.045	-43.69
282.26	-2.73
282.476	60.76
282.691	54.61
282.906	-0.68
283.122	-41.64
283.337	-8.87
283.552	75.09
283.767	81.24
283.983	66.9
284.198	-60.07
284.413	30.04
284.628	-19.11
284.843	48.47
285.058	50.52
285.274	-25.26
285.489	36.18
285.704	120.15
285.919	1.37
286.134	79.19
286.349	73.04
286.564	103.76
286.779	-19.11
286.995	23.89
287.21	-4.78
287.425	93.52
287.64	7.51
287.855	36.18
288.07	19.8
288.285	48.47
288.5	-6.83
288.715	48.47
288.93	-78.51
289.145	-15.02
289.36	58.71
289.575	-21.16
289.79	42.32
290.004	3.41
290.219	-12.97
290.434	17.75
290.649	-31.4
290.864	5.46
291.079	1.37
291.294	64.85
291.509	42.32
291.724	58.71
291.938	-2.73
292.153	-19.11
292.368	-25.26
292.583	-8.87
292.798	17.75
293.012	11.61
293.227	52.56
293.442	-15.02
293.657	27.99
293.871	60.76
294.086	42.32
294.301	81.24
294.516	46.42
294.73	52.56
294.945	30.04
295.16	62.8
295.374	38.23
295.589	107.86
295.804	46.42
296.018	25.94
296.233	-0.68
296.447	71
296.662	17.75
296.877	50.52
297.091	77.14
297.306	64.85
297.52	32.08
297.735	66.9
297.949	1.37
298.164	-21.16
298.378	42.32
298.593	-12.97
298.807	30.04
299.022	-39.59
299.236	-35.5
299.451	75.09
299.665	56.66
299.88	-0.68
300.094	46.42
300.309	34.13
300.523	-37.55
300.737	97.62
300.952	34.13
301.166	3.41
301.381	13.65
301.595	3.41
301.809	44.37
302.024	-19.11
302.238	48.47
302.452	58.71
302.667	-2.73
302.881	23.89
303.095	60.76
303.309	79.19
303.524	40.28
303.738	36.18
303.952	17.75
304.166	36.18
304.381	-80.55
304.595	44.37
304.809	-12.97
305.023	3.41
305.237	17.75
305.452	-35.5
305.666	50.52
305.88	62.8
306.094	-15.02
306.308	-53.93
306.522	-21.16
306.736	48.47
306.95	9.56
307.164	58.71
307.379	11.61
307.593	126.29
307.807	60.76
308.021	85.33
308.235	54.61
308.449	48.47
308.663	48.47
308.877	44.37
309.091	34.13
309.305	34.13
309.519	-111.27
309.733	11.61
309.947	34.13
310.161	62.8
310.374	60.76
310.588	15.7
310.802	42.32
311.016	-29.35
311.23	64.85
311.444	-4.78
311.658	-43.69
311.872	30.04
312.085	17.75
312.299	60.76
312.513	48.47
312.727	83.28
312.941	-10.92
313.154	42.32
313.368	75.09
313.582	-0.68
313.796	-25.26
314.009	-47.79
314.223	3.41
314.437	83.28
314.651	-19.11
314.864	23.89
315.078	19.8
315.292	64.85
315.505	23.89
315.719	66.9
315.933	21.85
316.146	44.37
316.36	-0.68
316.573	19.8
316.787	46.42
317.001	1.37
317.214	66.9
317.428	38.23
317.641	-31.4
317.855	68.95
318.068	-2.73
318.282	30.04
318.495	-27.31
318.709	64.85
318.922	42.32
319.136	66.9
319.349	-80.55
319.563	73.04
319.776	32.08
319.99	-27.31
320.203	60.76
320.417	-37.55
320.63	62.8
320.843	58.71
321.057	11.61
321.27	17.75
321.483	21.85
321.697	46.42
321.91	56.66
322.124	32.08
322.337	44.37
322.55	95.57
322.763	36.18
322.977	66.9
323.19	62.8
323.403	34.13
323.617	21.85
323.83	-2.73
324.043	93.52
324.256	46.42
324.469	38.23
324.683	50.52
324.896	52.56
325.109	-39.59
325.322	52.56
325.535	40.28
325.748	54.61
325.962	11.61
326.175	1.37
326.388	32.08
326.601	32.08
326.814	58.71
327.027	30.04
327.24	103.76
327.453	-33.45
327.666	36.18
327.879	17.75
328.092	27.99
328.305	-21.16
328.518	93.52
328.731	-25.26
328.944	3.41
329.157	68.95
329.37	17.75
329.583	32.08
329.796	105.81
330.009	30.04
330.222	50.52
330.435	42.32
330.648	15.7
330.861	32.08
331.073	50.52
331.286	-23.21
331.499	-31.4
331.712	13.65
331.925	19.8
332.138	44.37
332.35	93.52
332.563	38.23
332.776	-10.92
332.989	48.47
333.202	46.42
333.414	46.42
333.627	-31.4
333.84	-12.97
334.053	62.8
334.265	44.37
334.478	62.8
334.691	-37.55
334.903	15.7
335.116	5.46
335.329	46.42
335.541	19.8
335.754	36.18
335.966	27.99
336.179	32.08
336.392	36.18
336.604	27.99
336.817	27.99
337.029	46.42
337.242	44.37
337.454	81.24
337.667	-94.89
337.88	17.75
338.092	71
338.305	30.04
338.517	30.04
338.729	40.28
338.942	25.94
339.154	25.94
339.367	5.46
339.579	-33.45
339.792	38.23
340.004	66.9
340.217	5.46
340.429	-0.68
340.641	5.46
340.854	46.42
341.066	25.94
341.278	56.66
341.491	48.47
341.703	-6.83
341.915	85.33
342.128	13.65
342.34	-25.26
342.552	46.42
342.764	50.52
342.977	58.71
343.189	-39.59
343.401	15.7
343.613	27.99
343.826	87.38
344.038	11.61
344.25	36.18
344.462	-23.21
344.674	17.75
344.886	-31.4
345.099	48.47
345.311	-41.64
345.523	81.24
345.735	-23.21
345.947	-19.11
346.159	56.66
346.371	73.04
346.583	17.75
346.795	101.72
347.007	-19.11
347.219	91.48
347.431	111.96
347.643	19.8
347.855	46.42
348.067	114
348.279	-19.11
348.491	15.7
348.703	30.04
348.915	9.56
349.127	97.62
349.339	15.7
349.551	-12.97
349.763	19.8
349.975	62.8
350.187	120.15
350.399	171.35
350.61	48.47
350.822	-4.78
351.034	40.28
351.246	9.56
351.458	62.8
351.669	93.52
351.881	38.23
352.093	19.8
352.305	40.28
352.517	48.47
352.728	46.42
352.94	62.8
353.152	87.38
353.363	38.23
353.575	-4.78
353.787	42.32
353.999	89.43
354.21	-49.83
354.422	79.19
354.633	7.51
354.845	107.86
355.057	3.41
355.268	54.61
355.48	62.8
355.692	36.18
355.903	89.43
356.115	1.37
356.326	-2.73
356.538	3.41
356.749	64.85
356.961	30.04
357.172	54.61
357.384	58.71
357.595	40.28
357.807	79.19
358.018	38.23
358.23	5.46
358.441	27.99
358.653	56.66
358.864	40.28
359.075	128.34
359.287	71
359.498	87.38
359.709	38.23
359.921	71
360.132	15.7
360.344	64.85
360.555	56.66
360.766	87.38
360.977	11.61
361.189	52.56
361.4	46.42
361.611	64.85
361.823	56.66
362.034	42.32
362.245	-33.45
362.456	68.95
362.667	62.8
362.879	54.61
363.09	19.8
363.301	42.32
363.512	34.13
363.723	50.52
363.935	3.41
364.146	105.81
364.357	56.66
364.568	79.19
364.779	3.41
364.99	3.41
365.201	-2.73
365.412	23.89
365.623	-27.31
365.834	17.75
366.045	32.08
366.256	5.46
366.467	5.46
366.678	17.75
366.889	-17.07
367.1	36.18
367.311	32.08
367.522	111.96
367.733	-8.87
367.944	154.96
368.155	21.85
368.366	30.04
368.577	83.28
368.788	91.48
368.999	-2.73
369.209	-43.69
369.42	116.05
369.631	60.76
369.842	64.85
370.053	54.61
370.264	25.94
370.474	64.85
370.685	9.56
370.896	-86.7
371.107	32.08
371.317	-6.83
371.528	36.18
371.739	81.24
371.95	105.81
372.16	99.67
372.371	-17.07
372.582	116.05
372.792	27.99
373.003	62.8
373.214	85.33
373.424	15.7
373.635	56.66
373.846	140.63
374.056	1.37
374.267	44.37
374.477	32.08
374.688	79.19
374.898	130.39
375.109	36.18
375.319	79.19
375.53	101.72
375.74	34.13
375.951	42.32
376.161	56.66
376.372	91.48
376.582	42.32
376.793	48.47
377.003	-21.16
377.214	111.96
377.424	36.18
377.635	50.52
377.845	48.47
378.055	95.57
378.266	46.42
378.476	34.13
378.686	40.28
378.897	66.9
379.107	79.19
379.317	34.13
379.528	73.04
379.738	87.38
379.948	62.8
380.158	23.89
380.369	13.65
380.579	9.56
380.789	-27.31
380.999	40.28
381.21	36.18
381.42	21.85
381.63	23.89
381.84	79.19
382.05	44.37
382.261	52.56
382.471	111.96
382.681	212.31
382.891	60.76
383.101	-15.02
383.311	32.08
383.521	62.8
383.731	38.23
383.941	50.52
384.151	93.52
384.361	64.85
384.571	32.08
384.781	68.95
384.991	38.23
385.201	206.16
385.411	30.04
385.621	-41.64
385.831	50.52
386.041	46.42
386.251	42.32
386.461	122.2
386.671	44.37
386.881	21.85
387.091	3.41
387.301	52.56
387.511	58.71
387.72	75.09
387.93	85.33
388.14	64.85
388.35	27.99
388.56	50.52
388.769	109.91
388.979	91.48
389.189	25.94
389.399	32.08
389.609	85.33
389.818	136.53
390.028	54.61
390.238	46.42
390.447	17.75
390.657	144.72
390.867	46.42
391.076	58.71
391.286	130.39
391.496	1.37
391.705	60.76
391.915	152.91
392.125	79.19
392.334	34.13
392.544	19.8
392.753	140.63
392.963	34.13
393.172	71
393.382	60.76
393.591	91.48
393.801	13.65
394.01	58.71
394.22	58.71
394.429	42.32
394.639	107.86
394.848	36.18
395.058	91.48
395.267	11.61
395.477	118.1
395.686	140.63
395.895	91.48
396.105	189.78
396.314	62.8
396.524	136.53
396.733	1.37
396.942	73.04
397.152	30.04
397.361	107.86
397.57	146.77
397.78	134.48
397.989	163.15
398.198	200.02
398.407	101.72
398.617	120.15
398.826	7.51
399.035	99.67
399.244	193.87
399.453	124.24
399.663	87.38
399.872	132.44
400.081	148.82
400.29	165.2
400.499	165.2
400.708	136.53
400.917	99.67
401.127	73.04
401.336	99.67
401.545	150.87
401.754	171.35
401.963	169.3
402.172	142.68
402.381	116.05
402.59	167.25
402.799	91.48
403.008	132.44
403.217	206.16
403.426	195.92
403.635	157.01
403.844	124.24
404.053	34.13
404.262	124.24
404.471	181.59
404.68	103.76
404.888	179.54
405.097	142.68
405.306	206.16
405.515	181.59
405.724	122.2
405.933	191.83
406.142	216.4
406.35	283.99
406.559	206.16
406.768	245.07
406.977	261.46
407.185	210.26
407.394	230.74
407.603	232.79
407.812	226.64
408.02	298.32
408.229	255.31
408.438	296.27
408.646	269.65
408.855	193.87
409.064	333.14
409.272	216.4
409.481	394.58
409.69	302.42
409.898	349.52
410.107	386.38
410.315	361.81
410.524	378.19
410.733	398.67
410.941	306.51
411.15	451.92
411.358	470.35
411.567	431.44
411.775	486.73
411.984	505.17
412.192	580.94
412.401	527.69
412.609	546.13
412.818	609.61
413.026	568.65
413.234	630.09
413.443	597.32
413.651	589.13
413.86	666.96
414.068	671.05
414.276	845.13
414.485	685.39
414.693	810.31
414.901	787.79
415.11	816.46
415.318	787.79
415.526	947.53
415.734	933.19
415.943	978.25
416.151	1008.97
416.359	1105.22
416.567	1107.27
416.776	1119.56
416.984	1232.19
417.192	1203.52
417.4	1185.09
417.608	1148.23
417.817	1199.43
418.025	1385.79
418.233	1432.9
418.441	1463.62
418.649	1377.6
418.857	1594.69
419.065	1643.84
419.273	1639.74
419.481	1578.3
419.689	1731.9
419.897	1883.45
420.105	1957.18
420.313	1975.61
420.521	1918.26
420.729	2008.37
420.937	1971.51
421.145	2071.86
421.353	2243.89
421.561	2403.63
421.769	2317.62
421.977	2506.03
422.185	2587.95
422.393	2764.08
422.601	2911.53
422.809	2798.89
423.017	2813.23
423.224	3003.69
423.432	3034.41
423.64	3140.9
423.848	3480.86
424.056	3319.07
424.263	3517.73
424.471	3534.11
424.679	3630.37
424.887	3915.03
425.094	3878.17
425.302	4058.39
425.51	4078.87
425.718	4097.3
425.925	4287.76
426.133	4506.9
426.341	4816.14
426.548	4898.06
426.756	4943.11
426.964	4822.28
427.171	5340.42
427.379	5260.55
427.586	5483.78
427.794	5604.61
428.001	5907.71
428.209	6221.05
428.417	6161.66
428.624	6599.92
428.832	6477.04
429.039	6536.43
429.247	6444.27
429.454	7150.82
429.662	7474.4
429.869	7204.07
430.076	7615.71
430.284	7398.63
430.491	7718.11
430.699	8168.66
430.906	8301.78
431.114	8320.21
431.321	8461.52
431.528	8801.49
431.736	9278.66
431.943	9602.24
432.15	9467.08
432.358	9567.43
432.565	9983.17
432.772	9983.17
432.979	10632.37
433.187	10747.06
433.394	10775.73
433.601	11478.18
433.808	11492.52
434.016	11535.53
434.223	12061.85
434.43	12653.72
434.637	12446.87
434.844	13274.25
435.052	13274.25
435.259	13218.96
435.466	13286.54
435.673	13458.57
435.88	14271.61
436.087	15305.84
436.294	15029.36
436.501	14660.73
436.708	15086.7
436.915	15905.89
437.122	16286.81
437.329	16340.06
437.537	16499.8
437.743	17267.79
437.95	16944.21
438.157	18027.59
438.364	18349.12
438.571	18375.74
438.778	18498.62
438.985	20198.43
439.192	19106.87
439.399	19967.01
439.606	19538.99
439.813	20900.89
440.02	22023.17
440.227	21515.28
440.433	21183.51
440.64	21955.59
440.847	22039.56
441.054	22502.4
441.261	23778.28
441.467	23528.43
441.674	24167.4
441.881	25029.59
442.088	25156.57
442.294	24701.92
442.501	25697.23
442.708	25811.92
442.914	26999.74
443.121	28017.58
443.328	27095.99
443.534	28965.79
443.741	28119.98
443.948	27929.52
444.154	30198.66
444.361	29997.96
444.568	30163.85
444.774	30075.79
444.981	30591.87
445.187	31880.05
445.394	32777.06
445.6	32267.11
445.807	35373.88
446.013	33815.38
446.22	34931.52
446.426	35783.48
446.633	35881.78
446.839	37444.38
447.046	35830.58
447.252	37923.6
447.459	37702.42
447.665	37649.17
447.871	39365.37
448.078	41104.1
448.284	39189.25
448.491	40176.37
448.697	41827.03
448.903	42085.08
449.11	42844.87
449.316	41665.24
449.522	42371.79
449.728	43678.39
449.935	43422.4
450.141	43844.28
450.347	44681.9
450.553	43158.21
450.76	43926.2
450.966	45470.37
451.172	44563.12
451.378	46236.31
451.584	44966.57
451.791	46127.77
451.997	45771.42
452.203	46520.98
452.409	46514.83
452.615	46645.9
452.821	45030.05
453.027	44567.21
453.233	46228.12
453.44	44778.15
453.646	45068.97
453.852	45316.77
454.058	46066.33
454.264	44303.03
454.47	45714.08
454.676	44071.6
454.882	45752.99
455.088	42023.64
455.294	42814.15
455.5	43313.86
455.705	43563.71
455.911	41898.71
456.117	41218.78
456.323	40698.6
456.529	38873.86
456.735	39860.98
456.941	39189.25
457.147	38462.22
457.352	37335.84
457.558	36870.95
457.764	36977.44
457.97	36207.4
458.176	35488.57
458.381	35670.84
458.587	33561.43
458.793	33534.81
458.999	32076.65
459.204	34241.35
459.41	33170.27
459.616	31560.56
459.821	30913.41
460.027	30772.1
460.233	30186.38
460.438	28715.94
460.644	29164.44
460.85	27802.54
461.055	27632.56
461.261	27415.47
461.466	25048.02
461.672	24568.8
461.878	26364.87
462.083	24411.1
462.289	23884.78
462.494	23718.89
462.7	22830.07
462.905	22014.98
463.111	22819.83
463.316	23043.06
463.522	22291.46
463.727	22694.91
463.932	22391.81
464.138	22684.67
464.343	22440.96
464.549	21957.64
464.754	22397.95
464.959	22197.25
465.165	22053.89
465.37	21054.48
465.575	20225.06
465.781	21576.72
465.986	21632.01
466.191	20761.62
466.397	20415.52
466.602	19475.5
466.807	20243.49
467.012	20083.75
467.218	20093.99
467.423	19971.11
467.628	19895.33
467.833	20671.51
468.038	20151.33
468.244	19199.02
468.449	20192.29
468.654	19756.07
468.859	19369.01
469.064	19332.14
469.269	18527.29
469.474	19045.43
469.679	18842.68
469.885	18721.85
470.09	18588.73
470.295	18605.11
470.5	18238.53
470.705	18113.6
470.91	17849.41
471.115	17671.24
471.32	18076.74
471.525	17781.83
471.73	17531.98
471.935	17175.63
472.139	16690.26
472.344	16981.07
472.549	16692.31
472.754	16741.46
472.959	16397.4
473.164	15977.57
473.369	15717.48
473.574	16276.57
473.778	16010.34
473.983	15780.96
474.188	15950.95
474.393	15336.56
474.598	15221.87
474.802	15006.83
475.007	15088.75
475.212	15082.61
475.417	14408.83
475.621	14206.08
475.826	14500.98
476.031	14197.88
476.235	13958.27
476.44	14130.3
476.645	13962.37
476.849	13745.28
477.054	13532.29
477.259	13569.16
477.463	13493.38
477.668	13190.28
477.872	13347.98
478.077	13147.28
478.282	12786.83
478.486	12565.65
478.691	12559.51
478.895	12412.06
479.1	12489.88
479.304	12539.03
479.509	11969.69
479.713	12455.06
479.918	12010.65
480.122	12018.85
480.326	11996.32
480.531	12219.55
480.735	11990.17
480.94	11738.27
481.144	12135.58
481.348	11613.35
481.553	11818.15
481.757	11558.05
481.961	12053.66
482.166	11670.69
482.37	11781.28
482.574	11410.6
482.778	11607.2
482.983	11621.54
483.187	11588.77
483.391	11476.13
483.595	11203.75
483.8	11541.67
484.004	11486.37
484.208	11615.4
484.412	11660.45
484.616	11564.2
484.821	11449.51
485.025	11390.12
485.229	11463.85
485.433	11451.56
485.637	11676.84
485.841	11406.5
486.045	11312.3
486.249	11570.34
486.453	11304.1
486.657	11515.05
486.861	11758.75
487.065	11295.91
487.269	11531.43
487.473	11318.44
487.677	11742.37
487.881	11637.92
488.085	11566.24
488.289	11435.17
488.493	11463.85
488.697	11547.81
488.901	11596.96
489.105	11572.39
489.309	11637.92
489.512	11629.73
489.716	11576.48
489.92	11635.88
490.124	11469.99
490.328	12014.75
490.531	11615.4
490.735	11875.49
490.939	11756.71
491.143	11891.87
491.346	11795.62
491.55	12057.76
491.754	12147.87
491.958	12199.07
492.161	11977.89
492.365	12145.82
492.569	12154.01
492.772	12184.73
492.976	12385.43
493.18	12231.83
493.383	12444.82
493.587	12733.59
493.79	12579.99
493.994	12401.82
494.197	12831.89
494.401	12792.98
494.605	12752.02
494.808	13241.48
495.012	13040.78
495.215	13124.75
495.419	13255.82
495.622	13290.63
495.825	13497.48
496.029	13569.16
496.232	13718.66
496.436	13585.54
496.639	14029.95
496.843	13790.34
497.046	14345.34
497.249	14486.65
497.453	14232.7
497.656	14552.18
497.859	14613.62
498.063	14675.06
498.266	14967.92
498.469	14896.24
498.673	15055.98
498.876	15287.4
499.079	15508.58
499.282	15342.7
499.485	15746.15
499.689	15744.1
499.892	15993.95
500.095	16254.05
500.298	16536.66
500.501	16442.46
500.705	16743.51
500.908	16841.81
501.111	17173.58
501.314	17380.43
501.517	17685.58
501.72	17591.37
501.923	17552.46
502.126	18207.81
502.329	18351.17
502.532	18310.21
502.735	18644.02
502.938	18893.88
503.141	18951.22
503.344	19201.07
503.547	19215.41
503.75	19606.57
503.953	19819.56
504.156	20128.8
504.359	20212.77
504.562	20235.3
504.765	20796.44
504.968	20739.1
505.17	21175.31
505.373	21101.59
505.576	21656.59
505.779	21650.44
505.982	21840.9
506.185	22236.16
506.387	22152.2
506.59	22531.07
506.793	22920.18
506.996	22893.56
507.198	23561.2
507.401	23135.22
507.604	23526.38
507.807	24351.71
508.009	24226.79
508.212	24341.47
508.415	24615.9
508.617	24759.26
508.82	24970.2
509.022	25095.13
509.225	25854.92
509.428	25635.79
509.63	25959.37
509.833	25816.01
510.035	26774.46
510.238	26328
510.44	26905.53
510.643	27306.93
510.845	27298.74
511.048	27669.42
511.25	27954.09
511.453	27751.34
511.655	28693.41
511.858	28537.76
512.06	28904.35
512.262	29363.09
512.465	29148.06
512.667	29737.87
512.87	30036.87
513.072	30020.49
513.274	30618.5
513.477	30727.04
513.679	30870.4
513.881	31118.2
514.084	31748.98
514.286	31720.31
514.488	31959.92
514.69	32400.23
514.893	32715.62
515.095	32754.53
515.297	32930.65
515.499	33530.71
515.701	33471.32
515.904	33801.04
516.106	33989.45
516.308	34419.53
516.51	34480.97
516.712	34980.67
516.914	35195.71
517.116	35775.28
517.318	35638.07
517.52	35892.02
517.722	35625.78
517.925	36551.46
518.127	37055.26
518.329	37346.08
518.531	37047.07
518.733	37477.15
518.935	37831.44
519.136	38064.91
519.338	38554.38
519.54	38546.19
519.742	39009.03
519.944	38859.52
520.146	39561.98
520.348	39650.04
520.55	39901.94
520.752	40024.82
520.954	40868.58
521.155	40450.8
521.357	41011.94
521.559	41130.72
521.761	41839.32
521.963	41435.87
522.164	41837.27
522.366	41409.25
522.568	42433.23
522.77	42695.37
522.971	43190.98
523.173	42506.96
523.375	43403.97
523.576	43035.33
523.778	43735.74
523.98	43883.19
524.181	43520.7
524.383	43870.9
524.584	44268.21
524.786	44763.82
524.988	44214.96
525.189	44718.76
525.391	45449.89
525.592	45324.96
525.794	45312.67
525.995	45986.46
526.197	45654.68
526.398	45370.02
526.6	46101.14
526.801	46051.99
527.003	46602.89
527.204	46041.75
527.406	46611.09
527.607	46901.9
527.808	47006.34
528.01	46068.37
528.211	46416.53
528.412	47387.27
528.614	46946.95
528.815	46875.27
529.016	47493.76
529.218	46785.16
529.419	47757.95
529.62	47518.34
529.822	47420.03
530.023	47608.45
530.224	47626.88
530.425	47622.78
530.626	47309.44
530.828	47178.37
531.029	48151.16
531.23	47825.53
531.431	47213.19
531.632	48075.38
531.833	48347.76
532.035	47843.96
532.236	48179.83
532.437	48263.8
532.638	47827.58
532.839	48124.54
533.04	48210.55
533.241	47919.74
533.442	48480.88
533.643	48224.89
533.844	48071.29
534.045	48245.37
534.246	47796.86
534.447	48315
534.648	48065.14
534.849	48120.44
535.05	47811.2
535.251	48560.75
535.451	48220.79
535.652	48120.44
535.853	48241.27
536.054	48355.96
536.255	48466.55
536.456	47819.39
536.657	48794.22
536.857	48325.24
537.058	47878.78
537.259	48355.96
537.46	48188.02
537.66	47581.82
537.861	48306.8
538.062	48050.81
538.263	48349.81
538.463	48059
538.664	47479.42
538.865	47909.5
539.065	48331.38
539.266	47880.83
539.466	48435.83
539.667	47817.34
539.868	48927.34
540.068	47829.63
540.269	47764.09
540.469	48196.21
540.67	47899.26
540.87	47848.06
541.071	47737.47
541.271	47970.94
541.472	47792.76
541.672	48024.18
541.873	47764.09
542.073	47288.96
542.274	47753.85
542.474	47721.09
542.675	47454.85
542.875	47721.09
543.075	47940.22
543.276	47114.89
543.476	47923.83
543.676	47587.97
543.877	48216.69
544.077	47452.8
544.277	47151.75
544.478	47153.8
544.678	47653.5
544.878	47782.52
545.078	47635.07
545.279	47549.06
545.479	47202.95
545.679	47735.42
545.879	47286.92
546.079	47045.26
546.28	47385.22
546.48	47172.23
546.68	47399.55
546.88	47645.31
547.08	47616.64
547.28	47248
547.48	46643.85
547.68	47043.21
547.88	47002.25
548.081	47389.31
548.281	46758.54
548.481	47149.7
548.681	47454.85
548.881	47104.65
549.081	47159.94
549.28	47243.91
549.48	46754.44
549.68	47092.36
549.88	47364.74
550.08	46731.92
550.28	46693
550.48	46611.09
550.68	47180.42
550.88	46664.33
551.08	46762.64
551.279	47215.24
551.479	46887.56
551.679	47286.92
551.879	46693
552.079	46869.13
552.278	46613.13
552.478	46940.81
552.678	47000.2
552.878	46959.24
553.077	46629.52
553.277	46246.55
553.477	47334.02
553.676	46686.86
553.876	46326.42
554.076	46408.34
554.275	46355.09
554.475	46467.73
554.674	46674.57
554.874	46316.18
555.074	46512.78
555.273	46371.47
555.473	46582.41
555.672	46477.97
555.872	46504.59
556.071	46447.25
556.271	46488.21
556.47	46189.2
556.67	45630.11
556.869	45726.36
557.068	46367.38
557.268	45564.57
557.467	46307.99
557.667	46160.53
557.866	45822.62
558.065	45738.65
558.265	45615.77
558.464	45765.28
558.663	46037.65
558.863	45460.13
559.062	46154.39
559.261	45384.35
559.461	46160.53
559.66	45226.66
559.859	45746.84
560.058	45050.53
560.258	45288.1
560.457	45118.12
560.656	45228.71
560.855	45044.39
561.054	45671.07
561.253	45058.73
561.453	45453.98
561.652	45075.11
561.851	45134.5
562.05	45228.71
562.249	44739.24
562.448	45271.71
562.647	44941.99
562.846	44507.82
563.045	44731.05
563.244	44430
563.443	45017.77
563.642	44016.31
563.841	44720.81
564.04	44473.01
564.239	44718.76
564.438	44139.19
564.637	44470.96
564.836	44587.69
565.035	43983.54
565.234	44333.74
565.432	43905.72
565.631	44098.23
565.83	44415.66
566.029	44206.77
566.228	43674.3
566.427	43680.44
566.625	43741.88
566.824	42930.89
567.023	43911.86
567.222	43088.58
567.42	43735.74
567.619	43545.28
567.818	43334.34
568.016	43393.73
568.215	43393.73
568.414	43180.74
568.612	43526.85
568.811	43184.83
569.01	42912.45
569.208	42926.79
569.407	42953.41
569.605	42498.76
569.804	42961.61
570.002	42263.25
570.201	42439.37
570.4	42427.09
570.598	42224.34
570.797	42169.04
570.995	41958.1
571.193	41609.95
571.392	42275.54
571.59	41908.95
571.789	41843.41
571.987	41779.93
572.186	41997.01
572.384	41437.92
572.582	41691.87
572.781	41632.47
572.979	41282.27
573.177	41626.33
573.376	41679.58
573.574	41319.13
573.772	41513.69
573.971	40958.69
574.169	40798.95
574.367	40549.1
574.565	41007.84
574.763	40497.9
574.962	40643.31
575.16	40106.74
575.358	40864.49
575.556	39942.9
575.754	40573.67
575.952	40202.99
576.151	40549.1
576.349	40123.12
576.547	39783.16
576.745	40139.5
576.943	39781.11
577.141	39973.62
577.339	40033.01
577.537	39602.94
577.735	39621.37
577.933	39467.77
578.131	39537.4
578.329	39461.63
578.527	38994.69
578.725	39127.81
578.923	39324.41
579.121	38755.08
579.319	38843.14
579.516	38957.83
579.714	38750.98
579.912	38398.73
580.11	38525.71
580.308	38712.07
580.506	37849.88
580.704	38087.44
580.901	38245.13
581.099	38624.01
581.297	38017.81
581.495	37942.03
581.692	38015.76
581.89	37587.74
582.088	37896.98
582.285	37591.83
582.483	37681.94
582.681	37620.5
582.878	37104.42
583.076	37012.26
583.274	37194.53
583.471	37069.6
583.669	37116.7
583.866	37098.27
584.064	37079.84
584.262	36506.41
584.459	36754.21
584.657	36414.25
584.854	36582.18
585.052	35689.27
585.249	36469.54
585.447	36352.81
585.644	36086.57
585.841	36105.01
586.039	36068.14
586.236	35523.38
586.434	35576.63
586.631	35474.23
586.828	35652.41
587.026	35814.19
587.223	35263.29
587.42	35031.87
587.618	35195.71
587.815	35017.54
588.012	34704.2
588.21	34818.88
588.407	35177.28
588.604	34661.19
588.801	34925.38
588.999	34480.97
589.196	34263.88
589.393	34278.22
589.59	34417.48
589.787	34175.82
589.984	34298.7
590.182	33649.49
590.379	34098
590.576	33880.91
590.773	34091.85
590.97	33626.96
591.167	33696.6
591.364	33180.51
591.561	33348.44
591.758	33014.62
591.955	32951.13
592.152	33590.1
592.349	32940.89
592.546	33330.01
592.743	32768.87
592.94	32406.37
593.137	32494.44
593.334	32908.13
593.531	32562.02
593.727	32217.96
593.924	32131.95
594.121	32191.34
594.318	32381.8
594.515	31808.37
594.712	32312.17
594.908	31632.24
595.105	31921.01
595.302	31644.53
595.499	31861.62
595.696	31681.39
595.892	31562.61
596.089	31507.32
596.286	31413.11
596.482	30989.18
596.679	31105.91
596.876	31095.67
597.072	30583.68
597.269	31009.66
597.466	30507.91
597.662	30811.01
597.859	30454.66
598.055	30411.65
598.252	30264.2
598.448	30129.03
598.645	30374.79
598.841	30014.35
599.038	30096.27
599.234	29907.85
599.431	29041.56
599.627	29508.5
599.824	29832.08
600.02	29449.11
600.217	29567.89
600.413	29207.45
600.609	29084.57
600.806	29074.33
601.002	28982.17
601.198	29420.44
601.395	28976.03
601.591	28863.39
601.787	28724.13
601.984	28748.7
602.18	28953.5
602.376	28623.78
602.572	28509.09
602.769	28279.72
602.965	28146.6
603.161	28095.4
603.357	28281.77
603.553	27880.36
603.75	27839.4
603.946	27661.23
604.142	27878.32
604.338	27513.78
604.534	27747.25
604.73	27427.76
604.926	27380.66
605.122	27544.5
605.318	27130.81
605.514	27206.58
605.71	27063.22
605.906	26680.25
606.102	26713.02
606.298	27235.25
606.494	26985.4
606.69	27059.13
606.886	27110.33
607.082	26536.9
607.278	26792.89
607.474	25949.13
607.67	26794.94
607.866	26285
608.062	26661.82
608.257	26473.41
608.453	26354.63
608.649	26356.68
608.845	26215.37
609.041	26352.58
609.236	25990.09
609.432	25975.75
609.628	25969.61
609.824	25619.41
610.019	25785.29
610.215	25717.71
610.411	25985.99
610.606	25615.31
610.802	25736.14
610.998	25783.24
611.193	25707.47
611.389	25400.27
611.584	25205.72
611.78	25166.81
611.976	25172.95
612.171	25207.76
612.367	25340.88
612.562	25322.45
612.758	24689.63
612.953	24939.48
613.149	25365.46
613.344	24552.41
613.539	25230.29
613.735	24824.79
613.93	25082.84
614.126	25088.98
614.321	24816.6
614.517	24884.19
614.712	25005.02
614.907	24490.98
615.103	25076.69
615.298	24550.37
615.493	24699.87
615.688	24208.36
615.884	24992.73
616.079	24269.79
616.274	24552.41
616.47	24261.6
616.665	24126.44
616.86	24034.28
617.055	24030.18
617.25	24044.52
617.445	24210.4
617.641	23952.36
617.836	24341.47
618.031	23485.42
618.226	23981.03
618.421	23645.16
618.616	23718.89
618.811	23403.5
619.006	23591.92
619.201	23161.84
619.396	23299.06
619.591	22844.41
619.786	23258.1
619.981	22664.19
620.176	22977.53
620.371	22799.35
620.566	22690.81
620.761	22627.32
620.956	22653.95
621.151	22418.43
621.346	22445.05
621.541	22277.12
621.735	22518.78
621.93	22064.13
622.125	22162.44
622.32	21435.41
622.515	21834.76
622.709	21459.98
622.904	21339.15
623.099	21429.26
623.294	21265.42
623.488	20976.66
623.683	21287.95
623.878	20851.74
624.072	20741.14
624.267	20464.67
624.462	20571.16
624.656	20302.88
624.851	20509.72
625.046	20343.84
625.24	20411.42
625.435	19934.25
625.629	20005.92
625.824	19557.42
626.018	19737.64
626.213	19457.07
626.407	19495.98
626.602	19153.97
626.796	19479.6
626.991	19227.7
627.185	19256.37
627.38	18857.01
627.574	19119.15
627.768	18822.2
627.963	18852.92
628.157	18486.33
628.352	18697.27
628.546	18422.84
628.74	18308.16
628.935	18226.24
629.129	18072.64
629.323	17636.42
629.517	18113.6
629.712	17728.58
629.906	17689.67
630.1	17464.39
630.294	17673.29
630.489	17482.83
630.683	17349.71
630.877	17155.15
631.071	17255.5
631.265	17318.99
631.459	17019.99
631.653	16987.22
631.848	16907.35
632.042	16843.86
632.236	16684.12
632.43	16667.73
632.624	16489.56
632.818	16559.19
633.012	16295
633.206	16417.88
633.4	16231.52
633.594	15975.52
633.788	15639.65
633.982	16059.49
634.176	15748.2
634.369	15727.72
634.563	15629.41
634.757	15635.56
634.951	15557.74
635.145	15484.01
635.339	15293.55
635.533	15357.04
635.726	15275.12
635.92	15082.61
636.114	15152.24
636.308	14976.11
636.501	14881.91
636.695	14972.02
636.889	14781.56
637.083	14564.47
637.276	14515.32
637.47	14371.96
637.664	14439.55
637.857	14152.83
638.051	14036.1
638.244	14195.84
638.438	13786.24
638.632	13968.51
638.825	13857.92
639.019	13616.26
639.212	13759.62
639.406	13888.64
639.599	13800.58
639.793	13743.24
639.986	13425.8
640.18	13608.07
640.373	13640.84
640.567	13325.45
640.76	13182.09
640.954	13116.56
641.147	13194.38
641.34	13223.05
641.534	12928.14
641.727	12922
641.92	12831.89
642.114	12760.21
642.307	12715.16
642.5	12600.47
642.694	12520.6
642.887	12477.59
643.08	12604.57
643.273	12481.69
643.467	12379.29
643.66	12080.28
643.853	12231.83
644.046	12002.46
644.239	12115.1
644.432	11844.77
644.626	11928.74
644.819	11725.99
645.012	11795.62
645.205	11719.84
645.398	11547.81
645.591	11732.13
645.784	11326.63
645.977	11461.8
646.17	11457.7
646.363	11222.19
646.556	10935.47
646.749	11300.01
646.942	11486.37
647.135	11259.05
647.328	11009.2
647.521	10939.57
647.714	10953.9
647.907	10917.04
648.099	10841.26
648.292	10802.35
648.485	10593.46
648.678	10679.47
648.871	10658.99
649.064	10400.95
649.256	10575.03
649.449	10431.67
649.642	10341.56
649.835	10446.01
650.027	10144.95
650.22	10355.9
650.413	10093.76
650.605	9987.26
650.798	10249.4
650.991	10017.98
651.183	9919.68
651.376	9888.96
651.568	9761.98
651.761	9747.65
651.954	9698.5
652.146	9764.03
652.339	9897.15
652.531	9489.6
652.724	9483.46
652.916	9170.12
653.109	9483.46
653.301	9354.44
653.494	9331.91
653.686	9282.76
653.879	9274.57
654.071	9024.72
654.263	9108.68
654.456	8981.71
654.648	9284.81
654.84	9077.96
655.033	8975.56
655.225	8811.73
655.417	8817.87
655.61	8889.55
655.802	8787.15
655.994	8832.21
656.186	8676.56
656.379	8658.13
656.571	8662.23
656.763	8510.68
656.955	8531.16
657.148	8400.09
657.34	8436.95
657.532	8350.93
657.724	8162.52
657.916	8303.83
658.108	8166.62
658.3	8135.9
658.492	8199.38
658.684	7822.56
658.876	8105.18
659.068	8084.7
659.26	7865.57
659.452	7873.76
659.644	8049.88
659.836	7716.06
660.028	7920.86
660.22	7636.19
660.412	7640.29
660.604	7783.65
660.796	7707.87
660.988	7652.58
661.18	7445.73
661.372	7486.69
661.563	7593.19
661.755	7474.4
661.947	7478.5
662.139	7415.01
662.331	7419.11
662.522	7206.12
662.714	7300.33
662.906	7382.24
663.097	6993.13
663.289	7165.16
663.481	7073
663.673	7066.86
663.864	6933.74
664.056	6900.97
664.247	6880.49
664.439	6700.27
664.631	6960.36
664.822	6976.75
665.014	6880.49
665.205	6737.13
665.397	6821.1
665.588	6814.96
665.78	6659.31
665.971	6704.37
666.163	6669.55
666.354	6630.64
666.546	6554.87
666.737	6518
666.929	6511.86
667.12	6354.16
667.311	6362.36
667.503	6327.54
667.694	6364.4
667.885	6378.74
668.077	6341.88
668.268	6364.4
668.459	6214.9
668.651	6120.7
668.842	6286.58
669.033	6132.98
669.224	6044.92
669.416	6415.6
669.607	5985.53
669.798	5893.37
669.989	6051.06
670.18	5983.48
670.371	5997.82
670.563	5879.04
670.754	6175.99
670.945	5899.52
671.136	5883.13
671.327	5700.86
671.518	5723.39
671.709	5711.1
671.9	5844.22
672.091	5639.42
672.282	5745.92
672.473	5639.42
672.664	5752.06
672.855	5704.96
673.046	5709.05
673.237	5731.58
673.428	5508.35
673.619	5477.63
673.809	5606.66
674	5350.66
674.191	5491.97
674.382	5518.59
674.573	5362.95
674.764	5346.56
674.954	5506.31
675.145	5307.65
675.336	5346.56
675.527	5356.8
675.717	5428.48
675.908	5340.42
676.099	5178.63
676.289	5217.54
676.48	5233.93
676.671	5324.04
676.861	5139.72
677.052	5160.2
677.243	5063.94
677.433	5162.25
677.624	5205.25
677.814	5063.94
678.005	5059.85
678.195	5096.71
678.386	4986.12
678.576	4904.2
678.767	5092.62
678.957	5025.03
679.148	4945.16
679.338	4883.72
679.529	4947.21
679.719	4855.05
679.909	4871.43
680.1	4906.25
680.29	4867.34
680.481	4764.94
680.671	4941.07
680.861	4961.55
681.052	4838.67
681.242	4820.24
681.432	4910.35
681.622	4734.22
681.813	4664.59
682.003	4771.08
682.193	4637.97
682.383	4740.36
682.573	4719.89
682.764	4597.01
682.954	4601.1
683.144	4797.71
683.334	4672.78
683.524	4562.19
683.714	4627.73
683.904	4685.07
684.094	4537.62
684.284	4574.48
684.474	4658.45
684.664	4412.69
684.854	4580.62
685.044	4433.17
685.234	4531.47
685.424	4549.9
685.614	4611.34
685.804	4467.99
685.994	4408.59
686.184	4650.25
686.374	4363.54
686.564	4320.53
686.753	4381.97
686.943	4191.51
687.133	4482.32
687.323	4300.05
687.513	4347.15
687.702	4293.91
687.892	4082.97
688.082	4156.69
688.272	4177.17
688.461	4046.1
688.651	4072.73
688.841	4177.17
689.03	4138.26
689.22	4187.41
689.41	4144.41
689.599	4029.72
689.789	4123.93
689.979	3939.61
690.168	4009.24
690.358	3851.55
690.547	4042.01
690.737	4111.64
690.926	4056.34
691.116	3710.24
691.305	3880.22
691.495	3857.69
691.684	3951.9
691.874	3841.31
692.063	3704.09
692.252	3822.88
692.442	3755.29
692.631	3646.75
692.82	3665.18
693.01	3669.28
693.199	3824.92
693.388	3687.71
693.578	3716.38
693.767	3738.91
693.956	3685.66
694.146	3652.89
694.335	3511.58
694.524	3734.81
694.713	3720.48
694.902	3712.28
695.092	3616.03
695.281	3527.97
695.47	3493.15
695.659	3618.08
695.848	3546.4
696.037	3484.96
696.226	3484.96
696.415	3374.37
696.604	3437.86
696.793	3552.54
696.982	3581.21
697.171	3441.95
697.36	3415.33
697.549	3523.87
697.738	3534.11
697.927	3376.42
698.116	3425.57
698.305	3523.87
698.494	3433.76
698.683	3321.12
698.872	3427.62
699.061	3366.18
699.25	3409.19
699.438	3243.3
699.627	3339.55
699.816	3265.83
700.005	3382.56
700.193	3329.31
700.382	3441.95
700.571	3278.12
700.76	3425.57
700.948	3386.66
701.137	3407.14
701.326	3159.33
701.514	3265.83
701.703	3243.3
701.892	3390.75
702.08	3372.32
702.269	3312.93
702.457	3292.45
702.646	3222.82
702.834	3173.67
703.023	3179.81
703.212	3310.88
703.4	3304.74
703.589	3157.29
703.777	3317.03
703.965	3304.74
704.154	3337.51
704.342	3204.39
704.531	3353.89
704.719	3075.37
704.907	3249.44
705.096	3159.33
705.284	3155.24
705.472	3183.91
705.661	3267.88
705.849	3192.1
706.037	3233.06
706.226	3192.1
706.414	3208.48
706.602	3161.38
706.79	3155.24
706.979	3169.57
707.167	3140.9
707.355	3097.89
707.543	3251.49
707.731	3228.96
707.919	3140.9
708.107	3128.61
708.296	3138.85
708.484	3085.61
708.672	3302.69
708.86	3161.38
709.048	3075.37
709.236	3282.21
709.424	3034.41
709.612	3073.32
709.8	3278.12
709.988	3054.89
710.176	3075.37
710.364	3104.04
710.551	3104.04
710.739	3091.75
710.927	2952.49
711.115	3128.61
711.303	2985.26
711.491	2862.38
711.679	2905.38
711.866	3081.51
712.054	3083.56
712.242	2952.49
712.43	3173.67
712.617	3040.55
712.805	3118.37
712.993	3015.98
713.181	2956.58
713.368	2829.61
713.556	2956.58
713.744	3058.98
713.931	3048.74
714.119	2995.5
714.306	3065.13
714.494	3003.69
714.682	3044.65
714.869	2884.91
715.057	3034.41
715.244	3001.64
715.432	2972.97
715.619	2983.21
715.807	2954.54
715.994	3011.88
716.182	2841.9
716.369	2927.91
716.556	2983.21
716.744	2952.49
716.931	3018.02
717.119	2999.59
717.306	3091.75
717.493	3001.64
717.681	2807.08
717.868	2856.23
718.055	3073.32
718.242	2907.43
718.43	2948.39
718.617	2874.67
718.804	3095.85
718.991	2913.58
719.179	2823.47
719.366	2796.84
719.553	2798.89
719.74	2833.71
719.927	2911.53
720.114	2897.19
720.301	2915.62
720.488	2708.78
720.676	2874.67
720.863	2817.32
721.05	2823.47
721.237	2716.97
721.424	2782.51
721.611	2702.64
721.798	2868.52
721.985	2768.17
722.172	2751.79
722.358	2596.14
722.545	2854.19
722.732	2774.31
722.919	2841.9
723.106	2702.64
723.293	2700.59
723.48	2848.04
723.667	2751.79
723.853	2696.49
724.04	2731.31
724.227	2776.36
724.414	2651.44
724.6	2768.17
724.787	2635.05
724.974	2755.88
725.161	2667.82
725.347	2774.31
725.534	2743.6
725.72	2716.97
725.907	2581.81
726.094	2712.88
726.28	2762.03
726.467	2749.74
726.653	2620.72
726.84	2733.36
727.027	2825.51
727.213	2647.34
727.4	2774.31
727.586	2684.2
727.773	2694.44
727.959	2698.54
728.145	2665.77
728.332	2684.2
728.518	2571.57
728.705	2637.1
728.891	2645.29
729.077	2555.18
729.264	2673.96
729.45	2512.18
729.636	2600.24
729.823	2673.96
730.009	2454.83
730.195	2633.01
730.382	2590
730.568	2503.98
730.754	2456.88
730.94	2594.09
731.126	2551.09
731.313	2499.89
731.499	2546.99
731.685	2463.02
731.871	2456.88
732.057	2518.32
732.243	2477.36
732.429	2514.22
732.615	2506.03
732.801	2555.18
732.987	2362.67
733.173	2565.42
733.359	2424.11
733.545	2618.67
733.731	2473.26
733.917	2415.92
734.103	2473.26
734.289	2454.83
734.475	2438.45
734.661	2415.92
734.847	2381.1
735.033	2454.83
735.219	2454.83
735.404	2467.12
735.59	2383.15
735.776	2446.64
735.962	2422.06
736.148	2362.67
736.333	2440.5
736.519	2301.23
736.705	2493.74
736.89	2282.8
737.076	2374.96
737.262	2319.67
737.447	2278.71
737.633	2299.19
737.819	2344.24
738.004	2282.8
738.19	2350.39
738.375	2352.43
738.561	2372.91
738.747	2338.1
738.932	2379.06
739.118	2323.76
739.303	2286.9
739.489	2329.91
739.674	2211.12
739.859	2315.57
740.045	2317.62
740.23	2268.47
740.416	2211.12
740.601	2272.56
740.786	2170.16
740.972	2168.12
741.157	2190.64
741.342	2059.57
741.528	2221.36
741.713	2086.2
741.898	2075.96
742.084	2176.31
742.269	2262.32
742.454	2202.93
742.639	2102.58
742.824	2104.63
743.01	2172.21
743.195	2143.54
743.38	1979.7
743.565	2151.73
743.75	2139.44
743.935	1965.37
744.12	2108.73
744.305	2082.1
744.49	2030.9
744.675	2008.37
744.86	2086.2
745.045	1875.26
745.23	2045.24
745.415	1983.8
745.6	1963.32
745.785	1887.54
745.97	2014.52
746.155	1981.75
746.34	2008.37
746.525	1979.7
746.71	1908.02
746.895	1932.6
747.079	1903.93
747.264	1840.44
747.449	1903.93
747.634	1856.83
747.819	1869.11
748.003	1819.96
748.188	1819.96
748.373	1832.25
748.557	1889.59
748.742	1871.16
748.927	1826.11
749.111	1817.91
749.296	1836.35
749.481	1707.32
749.665	1783.1
749.85	1721.66
750.034	1774.91
750.219	1881.4
750.404	1656.12
750.588	1668.41
750.773	1674.56
750.957	1561.92
751.141	1625.4
751.326	1686.84
751.51	1592.64
751.695	1555.77
751.879	1629.5
752.064	1600.83
752.248	1551.68
752.432	1559.87
752.617	1539.39
752.801	1547.58
752.985	1512.77
753.17	1490.24
753.354	1566.01
753.538	1471.81
753.722	1533.25
753.907	1457.47
754.091	1402.18
754.275	1426.75
754.459	1469.76
754.643	1451.33
754.828	1432.9
755.012	1287.49
755.196	1391.94
755.38	1453.38
755.564	1428.8
755.748	1336.64
755.932	1324.35
756.116	1361.22
756.3	1350.98
756.484	1256.77
756.668	1264.96
756.852	1209.67
757.036	1338.69
757.22	1224
757.404	1365.31
757.588	1240.39
757.772	1254.72
757.956	1307.97
758.14	1219.91
758.323	1269.06
758.507	1303.87
758.691	1252.67
758.875	1150.28
759.059	1197.38
759.242	1146.18
759.426	1092.93
759.61	1082.69
759.794	1142.08
759.977	1187.14
760.161	1137.99
760.345	1097.03
760.528	1191.24
760.712	1070.4
760.895	1082.69
761.079	1119.56
761.263	1105.22
761.446	1144.13
761.63	1090.88
761.813	1115.46
761.997	1051.97
762.18	1088.84
762.364	1142.08
762.547	980.29
762.731	1133.89
762.914	1086.79
763.098	1041.73
763.281	1035.59
763.464	1092.93
763.648	1054.02
763.831	1031.49
764.015	939.33
764.198	1025.35
764.381	1033.54
764.564	1041.73
764.748	986.44
764.931	1006.92
765.114	972.1
765.297	990.53
765.481	986.44
765.664	841.03
765.847	965.96
766.03	1045.83
766.213	974.15
766.397	906.57
766.58	933.19
766.763	896.33
766.946	906.57
767.129	884.04
767.312	933.19
767.495	863.56
767.678	914.76
767.861	892.23
768.044	867.66
768.227	847.18
768.41	826.7
768.593	824.65
768.776	914.76
768.959	861.51
769.142	886.09
769.324	873.8
769.507	834.89
769.69	826.7
769.873	851.27
770.056	935.24
770.239	908.62
770.421	941.38
770.604	908.62
770.787	818.5
770.97	865.61
771.152	847.18
771.335	820.55
771.518	808.27
771.7	890.18
771.883	818.5
772.066	836.94
772.248	765.26
772.431	841.03
772.613	855.37
772.796	787.79
772.978	836.94
773.161	828.74
773.343	826.7
773.526	716.11
773.708	806.22
773.891	730.44
774.073	712.01
774.256	695.63
774.438	810.31
774.621	752.97
774.803	752.97
774.985	679.24
775.168	687.43
775.35	679.24
775.532	800.07
775.715	720.2
775.897	757.07
776.079	714.06
776.261	546.13
776.444	726.35
776.626	718.15
776.808	671.05
776.99	632.14
777.173	673.1
777.355	703.82
777.537	626
777.719	652.62
777.901	673.1
778.083	666.96
778.265	664.91
778.447	632.14
778.629	550.22
778.811	671.05
778.993	671.05
779.175	580.94
779.357	513.36
779.539	593.23
779.721	634.19
779.903	636.24
780.085	507.21
780.267	628.04
780.449	626
780.631	523.6
780.812	654.67
780.994	537.93
781.176	564.56
781.358	480.59
781.54	544.08
781.721	554.32
781.903	603.47
782.085	441.68
782.267	611.66
782.448	552.27
782.63	496.97
782.812	490.83
782.993	539.98
783.175	580.94
783.357	546.13
783.538	419.15
783.72	496.97
783.901	496.97
784.083	537.93
784.264	562.51
784.446	431.44
784.627	515.41
784.809	462.16
784.99	435.53
785.172	474.45
785.353	494.93
785.535	433.49
785.716	449.87
785.897	478.54
786.079	427.34
786.26	437.58
786.441	462.16
786.623	423.25
786.804	441.68
786.985	433.49
787.167	427.34
787.348	398.67
787.529	441.68
787.71	470.35
787.891	376.14
788.073	361.81
788.254	396.62
788.435	394.58
788.616	353.62
788.797	312.66
788.978	349.52
789.159	404.82
789.34	390.48
789.522	361.81
789.703	359.76
789.884	406.86
790.065	441.68
790.246	447.82
790.427	347.47
790.607	370
790.788	431.44
790.969	259.41
791.15	322.9
791.331	318.8
791.512	402.77
791.693	351.57
791.874	310.61
792.054	390.48
792.235	281.94
792.416	306.51
792.597	226.64
792.778	283.99
792.958	283.99
793.139	363.86
793.32	367.95
793.5	361.81
793.681	329.04
793.862	345.42
794.042	326.99
794.223	306.51
794.404	326.99
794.584	238.93
794.765	304.46
794.945	308.56
795.126	226.64
795.306	322.9
795.487	247.12
795.667	310.61
795.848	281.94
796.028	257.36
796.209	337.23
796.389	265.55
796.57	294.22
796.75	251.22
796.93	228.69
797.111	290.13
797.291	236.88
797.471	245.07
797.652	240.98
797.832	273.75
798.012	296.27
798.192	253.27
798.373	277.84
798.553	232.79
798.733	296.27
798.913	331.09
799.093	226.64
799.274	193.87
799.454	236.88
799.634	267.6
799.814	220.5
799.994	273.75
800.174	222.55
800.354	195.92
800.534	253.27
800.714	283.99
800.894	243.03
801.074	245.07
801.254	154.96
801.434	222.55
801.614	214.35
801.794	222.55
801.974	585.04
802.154	187.73
802.334	230.74
802.514	226.64
802.693	202.07
802.873	195.92
803.053	240.98
803.233	193.87
803.413	273.75
803.592	142.68
803.772	181.59
803.952	206.16
804.131	204.11
804.311	232.79
804.491	204.11
804.67	234.83
804.85	144.72
805.03	234.83
805.209	157.01
805.389	163.15
805.568	161.11
805.748	189.78
805.928	138.58
806.107	214.35
806.287	169.3
806.466	187.73
806.646	216.4
806.825	138.58
807.004	228.69
807.184	202.07
807.363	265.55
807.543	132.44
807.722	206.16
807.901	159.06
808.081	206.16
808.26	128.34
808.439	185.68
808.619	124.24
808.798	181.59
808.977	157.01
809.156	200.02
809.336	152.91
809.515	216.4
809.694	148.82
809.873	165.2
810.052	163.15
810.231	154.96
810.411	169.3
810.59	238.93
810.769	148.82
810.948	222.55
811.127	187.73
811.306	142.68
811.485	185.68
811.664	120.15
811.843	95.57
812.022	142.68
812.201	179.54
812.38	142.68
812.559	161.11
812.737	161.11
812.916	75.09
813.095	189.78
813.274	206.16
813.453	97.62
813.632	161.11
813.811	97.62
813.989	140.63
814.168	165.2
814.347	105.81
814.526	130.39
814.704	191.83
814.883	111.96
815.062	122.2
815.24	154.96
815.419	136.53
815.598	126.29
815.776	93.52
815.955	163.15
816.133	77.14
816.312	175.44
816.49	154.96
816.669	142.68
816.847	216.4
817.026	60.76
817.204	93.52
817.383	97.62
817.561	232.79
817.74	169.3
817.918	159.06
818.097	150.87
818.275	56.66
818.453	181.59
818.632	99.67
818.81	93.52
818.988	122.2
819.167	64.85
819.345	42.32
819.523	73.04
819.701	58.71
819.879	109.91
820.058	77.14
820.236	173.39
820.414	83.28
820.592	175.44
820.77	85.33
820.948	81.24
821.127	83.28
821.305	124.24
821.483	83.28
821.661	142.68
821.839	142.68
822.017	87.38
822.195	66.9
822.373	109.91
822.551	68.95
822.729	157.01
822.907	157.01
823.085	114
823.262	140.63
823.44	91.48
823.618	13.65
823.796	103.76
823.974	64.85
824.152	36.18
824.329	103.76
824.507	148.82
824.685	77.14
824.863	124.24
825.04	142.68
825.218	54.61
825.396	120.15
825.574	83.28
825.751	77.14
825.929	107.86
826.107	34.13
826.284	50.52
826.462	73.04
826.639	169.3
826.817	132.44
826.994	79.19
827.172	52.56
827.349	81.24
827.527	91.48
827.704	109.91
827.882	132.44
828.059	130.39
828.237	36.18
828.414	62.8
828.591	23.89
828.769	140.63
828.946	71
829.124	120.15
829.301	181.59
829.478	25.94
829.655	52.56
829.833	46.42
830.01	11.61
830.187	89.43
830.364	-2.73
830.542	68.95
830.719	103.76
830.896	58.71
831.073	138.58
831.25	75.09
831.427	109.91
831.604	183.63
831.782	81.24
831.959	136.53
832.136	56.66
832.313	157.01
832.49	93.52
832.667	34.13
832.844	77.14
833.021	44.37
833.198	34.13
833.374	111.96
833.551	95.57
833.728	75.09
833.905	54.61
834.082	44.37
834.259	116.05
834.436	118.1
834.612	87.38
834.789	58.71
834.966	11.61
835.143	87.38
835.319	75.09
835.496	99.67
835.673	73.04
835.85	114
836.026	101.72
836.203	91.48
836.38	-86.7
836.556	42.32
836.733	15.7
836.909	144.72
837.086	62.8
837.262	54.61
837.439	25.94
837.616	-8.87
837.792	64.85
837.968	85.33
838.145	77.14
838.321	83.28
838.498	17.75
838.674	66.9
838.851	50.52
839.027	101.72
839.203	79.19
839.38	54.61
839.556	50.52
839.732	77.14
839.909	68.95
840.085	40.28
840.261	3.41
840.437	66.9
840.614	-8.87
840.79	11.61
840.966	56.66
841.142	91.48
841.318	-15.02
841.494	3.41
841.671	40.28
841.847	91.48
842.023	19.8
842.199	91.48
842.375	38.23
842.551	15.7
842.727	36.18
842.903	58.71
843.079	-33.45
843.255	52.56
843.431	-0.68
843.607	25.94
843.783	1.37
843.959	17.75
844.134	7.51
844.31	-4.78
844.486	50.52
844.662	-6.83
844.838	56.66
845.013	32.08
845.189	34.13
845.365	15.7
845.541	38.23
845.716	56.66
845.892	54.61
846.068	62.8
846.244	7.51
846.419	120.15
846.595	56.66
846.77	15.7
846.946	71
847.122	21.85
847.297	17.75
847.473	81.24
847.648	30.04
847.824	66.9
847.999	75.09
848.175	-29.35
848.35	-4.78
848.526	30.04
848.701	154.96
848.876	75.09
849.052	27.99
849.227	87.38
849.403	-8.87
849.578	17.75
849.753	-2.73
849.929	54.61
850.104	-19.11
850.279	13.65
850.454	7.51
850.63	42.32
850.805	89.43
850.98	64.85
851.155	21.85
851.33	111.96
851.505	-21.16
851.681	75.09
851.856	54.61
852.031	21.85
852.206	56.66
852.381	52.56
852.556	42.32
852.731	-27.31
852.906	48.47
853.081	17.75
853.256	56.66
853.431	23.89
853.606	-0.68
853.781	-17.07
853.956	-0.68
854.131	105.81
854.305	-33.45
854.48	34.13
854.655	-29.35
854.83	36.18
855.005	9.56
855.18	32.08
855.354	21.85
855.529	27.99
855.704	19.8
855.879	25.94
856.053	34.13
856.228	-23.21
856.403	1.37
856.577	73.04
856.752	38.23
856.926	17.75
857.101	48.47
857.276	11.61
857.45	-45.74
857.625	87.38
857.799	15.7
857.974	111.96
858.148	23.89
858.323	48.47
858.497	-25.26
858.672	23.89
858.846	-0.68
859.02	44.37
859.195	-45.74
859.369	7.51
859.543	34.13
859.718	7.51
859.892	-37.55
860.066	79.19
860.241	1.37
860.415	13.65
860.589	27.99
860.763	-2.73
860.938	-6.83
861.112	-78.51
861.286	11.61
861.46	62.8
861.634	-25.26
861.808	-23.21
861.982	23.89
862.157	-25.26
862.331	-19.11
862.505	-17.07
862.679	11.61
862.853	36.18
863.027	-8.87
863.201	7.51
863.375	-12.97
863.549	1.37
863.722	21.85
863.896	23.89
864.07	-51.88
864.244	-37.55
864.418	-55.98
864.592	7.51
864.766	50.52
864.939	-47.79
865.113	17.75
865.287	36.18
865.461	9.56
865.634	25.94
865.808	48.47
865.982	25.94
866.156	-37.55
866.329	36.18
866.503	-35.5
866.676	79.19
866.85	9.56
867.024	23.89
867.197	30.04
867.371	71
867.544	42.32
867.718	-37.55
867.891	-4.78
868.065	44.37
868.238	-8.87
868.412	-8.87
868.585	46.42
868.759	-15.02
868.932	-25.26
869.105	5.46
869.279	58.71
869.452	3.41
869.625	-6.83
869.799	73.04
869.972	-12.97
870.145	30.04
870.319	71
870.492	-39.59
870.665	-41.64
870.838	-12.97
871.011	-39.59
871.185	38.23
871.358	-43.69
871.531	3.41
871.704	-19.11
871.877	40.28
872.05	-12.97
872.223	60.76
872.396	-33.45
872.569	17.75
872.742	30.04
872.915	-0.68
873.088	-51.88
873.261	11.61
873.434	-6.83
873.607	1.37
873.78	7.51
873.953	68.95
874.126	40.28
874.299	15.7
874.471	-31.4
874.644	3.41
874.817	44.37
874.99	34.13
875.163	21.85
875.335	-25.26
875.508	-6.83
875.681	7.51
875.853	-35.5
876.026	-31.4
876.199	11.61
876.371	27.99
876.544	-43.69
876.717	85.33
876.889	3.41
877.062	-25.26
877.234	-41.64
877.407	-12.97
877.579	15.7
877.752	27.99
877.924	-21.16
878.097	-25.26
878.269	25.94
878.442	19.8
878.614	21.85
878.786	25.94
878.959	46.42
879.131	38.23
879.303	66.9
879.476	23.89
879.648	-19.11
879.82	-25.26
879.993	32.08
880.165	-58.03
880.337	-43.69
880.509	15.7
880.681	-47.79
880.854	17.75
881.026	42.32
881.198	25.94
881.37	23.89
881.542	-10.92
881.714	48.47
881.886	46.42
882.058	25.94
882.23	-0.68
882.402	5.46
882.574	44.37
882.746	17.75
882.918	-2.73
883.09	30.04
883.262	52.56
883.434	23.89
883.606	-53.93
883.778	42.32
883.95	-12.97
884.122	-82.6
884.293	60.76
884.465	1.37
884.637	44.37
884.809	-0.68
884.98	-45.74
885.152	44.37
885.324	13.65
885.496	7.51
885.667	77.14
885.839	-62.12
886.011	40.28
886.182	13.65
886.354	34.13
886.525	11.61
886.697	107.86
886.869	-113.32
887.04	-23.21
887.212	11.61
887.383	56.66
887.555	32.08
887.726	34.13
887.897	7.51
888.069	25.94
888.24	19.8
888.412	13.65
888.583	-6.83
888.754	-12.97
888.926	27.99
889.097	-43.69
889.268	-33.45
889.44	30.04
889.611	-31.4
889.782	-6.83
889.953	-39.59
890.125	44.37
890.296	-47.79
890.467	-25.26
890.638	-8.87
890.809	1.37
890.98	27.99
891.151	-12.97
891.323	-45.74
891.494	40.28
891.665	-25.26
891.836	-49.83
892.007	1.37
892.178	42.32
892.349	-68.27
892.52	-51.88
892.691	36.18
892.862	-2.73
893.032	-84.65
893.203	7.51
893.374	-15.02
893.545	-4.78
893.716	-82.6
893.887	17.75
894.057	-37.55
894.228	-35.5
894.399	13.65
894.57	19.8
894.74	48.47
894.911	-4.78
895.082	3.41
895.253	-25.26
895.423	-74.41
895.594	36.18
895.764	25.94
895.935	13.65
896.106	32.08
896.276	-45.74
896.447	23.89
896.617	-74.41
896.788	17.75
896.958	-45.74
897.129	-70.31
897.299	19.8
897.47	-12.97
897.64	1.37
897.81	-43.69
897.981	5.46
898.151	-4.78
898.322	15.7
898.492	1.37
898.662	-0.68
898.832	-37.55
899.003	-35.5
899.173	11.61
899.343	-70.31
899.513	-47.79
