Data from USB4F104151__18__12-00-27-433.txt Node

Date: Fri Mar 14 12:00:27 EDT 2025
User: louis
Spectrometer: USB4F10415
Trigger mode: 4
Integration Time (sec): 2.000000E-2
Scans to average: 1
Electric dark correction enabled: true
Nonlinearity correction enabled: false
Boxcar width: 0
XAxis mode: Wavelengths
Number of Pixels in Spectrum: 3648
>>>>>Begin Spectral Data<<<<<
178.204	-95.91
178.424	-95.91
178.644	-95.91
178.864	-73.39
179.084	-93.87
179.304	-5.8
179.524	-16.04
179.744	-36.52
179.964	6.49
180.184	22.87
180.404	6.49
180.624	-13.99
180.844	2.39
181.064	45.4
181.283	-3.75
181.503	-13.99
181.723	6.49
181.943	-50.86
182.163	49.49
182.383	-5.8
182.602	18.77
182.822	51.54
183.042	-52.91
183.262	-11.95
183.482	35.16
183.701	45.4
183.921	12.63
184.141	-26.28
184.361	106.84
184.58	-54.95
184.8	39.25
185.02	-5.8
185.239	35.16
185.459	-28.33
185.679	63.83
185.898	2.39
186.118	-26.28
186.338	67.92
186.557	-3.75
186.777	12.63
186.997	-13.99
187.216	67.92
187.436	69.97
187.655	24.92
187.875	90.45
188.095	35.16
188.314	76.12
188.534	26.96
188.753	-3.75
188.973	65.88
189.192	88.4
189.412	35.16
189.631	-32.43
189.851	-34.47
190.07	61.78
190.29	-30.38
190.509	41.3
190.729	43.35
190.948	22.87
191.168	108.88
191.387	102.74
191.607	-24.23
191.826	84.31
192.045	20.82
192.265	61.78
192.484	55.64
192.704	80.21
192.923	22.87
193.142	53.59
193.362	14.68
193.581	74.07
193.8	41.3
194.02	47.44
194.239	39.25
194.458	8.53
194.678	-9.9
194.897	12.63
195.116	8.53
195.335	-24.23
195.555	78.16
195.774	53.59
195.993	67.92
196.212	-36.52
196.432	-3.75
196.651	10.58
196.87	43.35
197.089	110.93
197.308	55.64
197.528	-42.67
197.747	0.34
197.966	37.2
198.185	-11.95
198.404	-3.75
198.623	90.45
198.842	16.73
199.062	29.01
199.281	22.87
199.5	18.77
199.719	43.35
199.938	8.53
200.157	6.49
200.376	-22.19
200.595	35.16
200.814	-20.14
201.033	16.73
201.252	33.11
201.471	49.49
201.69	43.35
201.909	39.25
202.128	8.53
202.347	43.35
202.566	80.21
202.785	43.35
203.004	59.73
203.223	65.88
203.442	55.64
203.661	16.73
203.879	63.83
204.098	45.4
204.317	24.92
204.536	76.12
204.755	84.31
204.974	31.06
205.193	35.16
205.411	74.07
205.63	-16.04
205.849	88.4
206.068	88.4
206.287	-1.71
206.505	37.2
206.724	72.02
206.943	24.92
207.162	63.83
207.381	6.49
207.599	33.11
207.818	6.49
208.037	8.53
208.255	14.68
208.474	33.11
208.693	37.2
208.911	16.73
209.13	78.16
209.349	33.11
209.567	65.88
209.786	31.06
210.005	24.92
210.223	43.35
210.442	-7.85
210.661	76.12
210.879	22.87
211.098	39.25
211.316	65.88
211.535	86.36
211.753	90.45
211.972	8.53
212.191	24.92
212.409	33.11
212.628	63.83
212.846	-91.82
213.065	-38.57
213.283	76.12
213.502	16.73
213.72	20.82
213.938	4.44
214.157	106.84
214.375	16.73
214.594	31.06
214.812	29.01
215.031	-13.99
215.249	-5.8
215.467	10.58
215.686	-52.91
215.904	127.32
216.122	-22.19
216.341	18.77
216.559	-24.23
216.778	65.88
216.996	10.58
217.214	-67.24
217.432	-13.99
217.651	-28.33
217.869	4.44
218.087	-42.67
218.306	59.73
218.524	22.87
218.742	53.59
218.96	31.06
219.179	2.39
219.397	53.59
219.615	184.66
219.833	61.78
220.051	-28.33
220.27	102.74
220.488	31.06
220.706	0.34
220.924	-32.43
221.142	-18.09
221.36	35.16
221.578	-16.04
221.796	29.01
222.015	24.92
222.233	-26.28
222.451	22.87
222.669	-67.24
222.887	12.63
223.105	-1.71
223.323	41.3
223.541	16.73
223.759	-5.8
223.977	86.36
224.195	82.26
224.413	31.06
224.631	55.64
224.849	59.73
225.067	-11.95
225.285	-36.52
225.503	67.92
225.721	-40.62
225.939	39.25
226.157	24.92
226.375	78.16
226.592	-3.75
226.81	80.21
227.028	29.01
227.246	47.44
227.464	92.5
227.682	82.26
227.9	39.25
228.117	20.82
228.335	-59.05
228.553	10.58
228.771	-7.85
228.989	26.96
229.206	39.25
229.424	-30.38
229.642	-13.99
229.86	39.25
230.077	123.22
230.295	-9.9
230.513	49.49
230.731	26.96
230.948	0.34
231.166	51.54
231.384	53.59
231.601	82.26
231.819	6.49
232.037	-3.75
232.254	43.35
232.472	45.4
232.689	-28.33
232.907	59.73
233.125	61.78
233.342	39.25
233.56	-11.95
233.777	-3.75
233.995	47.44
234.213	31.06
234.43	39.25
234.648	65.88
234.865	59.73
235.083	-7.85
235.3	12.63
235.518	4.44
235.735	65.88
235.953	51.54
236.17	-5.8
236.388	-22.19
236.605	6.49
236.822	86.36
237.04	2.39
237.257	4.44
237.475	-5.8
237.692	-32.43
237.909	41.3
238.127	8.53
238.344	-1.71
238.562	59.73
238.779	20.82
238.996	6.49
239.214	-42.67
239.431	65.88
239.648	8.53
239.865	4.44
240.083	86.36
240.3	63.83
240.517	14.68
240.735	45.4
240.952	-13.99
241.169	41.3
241.386	-24.23
241.603	98.64
241.821	-16.04
242.038	39.25
242.255	22.87
242.472	-114.34
242.689	-24.23
242.907	24.92
243.124	57.68
243.341	24.92
243.558	49.49
243.775	18.77
243.992	33.11
244.209	41.3
244.426	35.16
244.643	59.73
244.86	14.68
245.078	90.45
245.295	-1.71
245.512	74.07
245.729	61.78
245.946	24.92
246.163	-9.9
246.38	31.06
246.597	-26.28
246.814	63.83
247.031	39.25
247.248	43.35
247.464	61.78
247.681	16.73
247.898	84.31
248.115	-5.8
248.332	-30.38
248.549	88.4
248.766	137.56
248.983	18.77
249.2	33.11
249.417	100.69
249.633	-26.28
249.85	67.92
250.067	86.36
250.284	41.3
250.501	29.01
250.717	61.78
250.934	10.58
251.151	0.34
251.368	-40.62
251.585	61.78
251.801	47.44
252.018	33.11
252.235	67.92
252.451	43.35
252.668	53.59
252.885	29.01
253.102	18.77
253.318	47.44
253.535	65.88
253.752	22.87
253.968	14.68
254.185	0.34
254.401	-13.99
254.618	10.58
254.835	6.49
255.051	82.26
255.268	22.87
255.484	61.78
255.701	65.88
255.917	-32.43
256.134	72.02
256.351	10.58
256.567	-38.57
256.784	18.77
257	14.68
257.217	-20.14
257.433	-1.71
257.65	-13.99
257.866	51.54
258.082	-18.09
258.299	33.11
258.515	45.4
258.732	67.92
258.948	6.49
259.165	24.92
259.381	31.06
259.597	47.44
259.814	39.25
260.03	24.92
260.246	31.06
260.463	84.31
260.679	72.02
260.895	33.11
261.112	49.49
261.328	6.49
261.544	45.4
261.761	59.73
261.977	-44.71
262.193	41.3
262.409	88.4
262.626	76.12
262.842	-13.99
263.058	-7.85
263.274	14.68
263.49	61.78
263.707	86.36
263.923	72.02
264.139	45.4
264.355	-1.71
264.571	2.39
264.787	0.34
265.004	72.02
265.22	84.31
265.436	61.78
265.652	33.11
265.868	-16.04
266.084	4.44
266.3	45.4
266.516	-30.38
266.732	43.35
266.948	-32.43
267.164	16.73
267.38	39.25
267.596	69.97
267.812	14.68
268.028	12.63
268.244	29.01
268.46	41.3
268.676	49.49
268.892	45.4
269.108	123.22
269.324	-3.75
269.54	0.34
269.756	41.3
269.972	-79.53
270.188	16.73
270.403	37.2
270.619	-46.76
270.835	41.3
271.051	22.87
271.267	35.16
271.483	-11.95
271.698	84.31
271.914	78.16
272.13	41.3
272.346	41.3
272.562	8.53
272.777	31.06
272.993	31.06
273.209	-26.28
273.425	12.63
273.64	12.63
273.856	-20.14
274.072	90.45
274.287	43.35
274.503	24.92
274.719	37.2
274.934	72.02
275.15	-30.38
275.366	-22.19
275.581	39.25
275.797	51.54
276.012	-34.47
276.228	96.6
276.444	78.16
276.659	-28.33
276.875	-30.38
277.09	41.3
277.306	41.3
277.521	39.25
277.737	61.78
277.952	63.83
278.168	53.59
278.383	47.44
278.599	55.64
278.814	69.97
279.03	-11.95
279.245	26.96
279.461	14.68
279.676	74.07
279.892	-30.38
280.107	-24.23
280.322	35.16
280.538	26.96
280.753	37.2
280.969	37.2
281.184	94.55
281.399	35.16
281.615	94.55
281.83	4.44
282.045	10.58
282.26	-34.47
282.476	18.77
282.691	84.31
282.906	-46.76
283.122	55.64
283.337	-13.99
283.552	63.83
283.767	0.34
283.983	10.58
284.198	20.82
284.413	33.11
284.628	-52.91
284.843	80.21
285.058	6.49
285.274	43.35
285.489	-42.67
285.704	112.98
285.919	69.97
286.134	6.49
286.349	47.44
286.564	49.49
286.779	37.2
286.995	55.64
287.21	-7.85
287.425	88.4
287.64	33.11
287.855	4.44
288.07	33.11
288.285	86.36
288.5	6.49
288.715	63.83
288.93	6.49
289.145	-46.76
289.36	51.54
289.575	12.63
289.79	2.39
290.004	49.49
290.219	86.36
290.434	41.3
290.649	22.87
290.864	-9.9
291.079	14.68
291.294	65.88
291.509	-16.04
291.724	12.63
291.938	82.26
292.153	57.68
292.368	84.31
292.583	67.92
292.798	67.92
293.012	55.64
293.227	4.44
293.442	0.34
293.657	10.58
293.871	2.39
294.086	84.31
294.301	86.36
294.516	4.44
294.73	0.34
294.945	4.44
295.16	-9.9
295.374	78.16
295.589	104.79
295.804	24.92
296.018	76.12
296.233	72.02
296.447	59.73
296.662	-1.71
296.877	35.16
297.091	41.3
297.306	39.25
297.52	-36.52
297.735	-20.14
297.949	31.06
298.164	67.92
298.378	10.58
298.593	24.92
298.807	-73.39
299.022	55.64
299.236	-7.85
299.451	2.39
299.665	35.16
299.88	14.68
300.094	59.73
300.309	100.69
300.523	49.49
300.737	0.34
300.952	63.83
301.166	4.44
301.381	6.49
301.595	-3.75
301.809	51.54
302.024	88.4
302.238	10.58
302.452	72.02
302.667	33.11
302.881	67.92
303.095	61.78
303.309	51.54
303.524	31.06
303.738	33.11
303.952	61.78
304.166	37.2
304.381	-7.85
304.595	59.73
304.809	18.77
305.023	78.16
305.237	100.69
305.452	53.59
305.666	69.97
305.88	6.49
306.094	0.34
306.308	59.73
306.522	90.45
306.736	61.78
306.95	55.64
307.164	139.6
307.379	2.39
307.593	-3.75
307.807	4.44
308.021	102.74
308.235	16.73
308.449	8.53
308.663	41.3
308.877	67.92
309.091	26.96
309.305	14.68
309.519	-7.85
309.733	61.78
309.947	80.21
310.161	6.49
310.374	74.07
310.588	37.2
310.802	16.73
311.016	12.63
311.23	6.49
311.444	2.39
311.658	78.16
311.872	47.44
312.085	47.44
312.299	31.06
312.513	18.77
312.727	63.83
312.941	-20.14
313.154	82.26
313.368	-46.76
313.582	4.44
313.796	47.44
314.009	102.74
314.223	-26.28
314.437	80.21
314.651	4.44
314.864	31.06
315.078	-26.28
315.292	37.2
315.505	14.68
315.719	31.06
315.933	69.97
316.146	45.4
316.36	80.21
316.573	41.3
316.787	55.64
317.001	37.2
317.214	24.92
317.428	98.64
317.641	8.53
317.855	43.35
318.068	16.73
318.282	72.02
318.495	53.59
318.709	92.5
318.922	-36.52
319.136	104.79
319.349	63.83
319.563	53.59
319.776	135.51
319.99	29.01
320.203	45.4
320.417	2.39
320.63	55.64
320.843	39.25
321.057	47.44
321.27	55.64
321.483	100.69
321.697	78.16
321.91	-24.23
322.124	49.49
322.337	43.35
322.55	88.4
322.763	-16.04
322.977	-36.52
323.19	10.58
323.403	55.64
323.617	39.25
323.83	69.97
324.043	-20.14
324.256	84.31
324.469	-28.33
324.683	74.07
324.896	-9.9
325.109	88.4
325.322	-40.62
325.535	121.17
325.748	63.83
325.962	43.35
326.175	-13.99
326.388	63.83
326.601	0.34
326.814	39.25
327.027	51.54
327.24	104.79
327.453	-1.71
327.666	61.78
327.879	-9.9
328.092	65.88
328.305	-13.99
328.518	76.12
328.731	16.73
328.944	100.69
329.157	-22.19
329.37	10.58
329.583	104.79
329.796	55.64
330.009	6.49
330.222	41.3
330.435	29.01
330.648	69.97
330.861	51.54
331.073	-22.19
331.286	18.77
331.499	24.92
331.712	47.44
331.925	-20.14
332.138	90.45
332.35	102.74
332.563	16.73
332.776	47.44
332.989	51.54
333.202	18.77
333.414	12.63
333.627	-32.43
333.84	59.73
334.053	49.49
334.265	59.73
334.478	63.83
334.691	-3.75
334.903	74.07
335.116	31.06
335.329	2.39
335.541	49.49
335.754	86.36
335.966	47.44
336.179	43.35
336.392	-7.85
336.604	67.92
336.817	4.44
337.029	82.26
337.242	41.3
337.454	39.25
337.667	-9.9
337.88	69.97
338.092	6.49
338.305	59.73
338.517	2.39
338.729	55.64
338.942	69.97
339.154	74.07
339.367	104.79
339.579	22.87
339.792	10.58
340.004	51.54
340.217	100.69
340.429	6.49
340.641	29.01
340.854	80.21
341.066	33.11
341.278	57.68
341.491	51.54
341.703	4.44
341.915	-42.67
342.128	22.87
342.34	61.78
342.552	-13.99
342.764	127.32
342.977	-38.57
343.189	47.44
343.401	-1.71
343.613	59.73
343.826	-3.75
344.038	-30.38
344.25	67.92
344.462	51.54
344.674	63.83
344.886	61.78
345.099	43.35
345.311	43.35
345.523	41.3
345.735	10.58
345.947	110.93
346.159	24.92
346.371	108.88
346.583	-34.47
346.795	65.88
347.007	55.64
347.219	51.54
347.431	61.78
347.643	69.97
347.855	6.49
348.067	100.69
348.279	-1.71
348.491	-28.33
348.703	69.97
348.915	12.63
349.127	-1.71
349.339	74.07
349.551	16.73
349.763	94.55
349.975	49.49
350.187	6.49
350.399	55.64
350.61	63.83
350.822	84.31
351.034	51.54
351.246	37.2
351.458	-22.19
351.669	14.68
351.881	24.92
352.093	74.07
352.305	100.69
352.517	39.25
352.728	72.02
352.94	37.2
353.152	-20.14
353.363	61.78
353.575	112.98
353.787	18.77
353.999	10.58
354.21	78.16
354.422	37.2
354.633	51.54
354.845	10.58
355.057	43.35
355.268	94.55
355.48	176.47
355.692	29.01
355.903	63.83
356.115	22.87
356.326	26.96
356.538	4.44
356.749	2.39
356.961	22.87
357.172	10.58
357.384	86.36
357.595	65.88
357.807	39.25
358.018	14.68
358.23	121.17
358.441	92.5
358.653	12.63
358.864	55.64
359.075	49.49
359.287	6.49
359.498	76.12
359.709	4.44
359.921	117.08
360.132	24.92
360.344	63.83
360.555	78.16
360.766	47.44
360.977	65.88
361.189	67.92
361.4	39.25
361.611	41.3
361.823	-52.91
362.034	2.39
362.245	80.21
362.456	31.06
362.667	59.73
362.879	22.87
363.09	112.98
363.301	37.2
363.512	102.74
363.723	26.96
363.935	59.73
364.146	29.01
364.357	39.25
364.568	82.26
364.779	8.53
364.99	18.77
365.201	51.54
365.412	121.17
365.623	0.34
365.834	24.92
366.045	16.73
366.256	35.16
366.467	80.21
366.678	63.83
366.889	104.79
367.1	26.96
367.311	59.73
367.522	45.4
367.733	74.07
367.944	29.01
368.155	67.92
368.366	53.59
368.577	26.96
368.788	26.96
368.999	22.87
369.209	45.4
369.42	117.08
369.631	59.73
369.842	55.64
370.053	2.39
370.264	6.49
370.474	33.11
370.685	59.73
370.896	18.77
371.107	63.83
371.317	102.74
371.528	86.36
371.739	88.4
371.95	12.63
372.16	47.44
372.371	41.3
372.582	37.2
372.792	10.58
373.003	16.73
373.214	141.65
373.424	88.4
373.635	6.49
373.846	69.97
374.056	61.78
374.267	12.63
374.477	31.06
374.688	18.77
374.898	51.54
375.109	57.68
375.319	33.11
375.53	33.11
375.74	49.49
375.951	100.69
376.161	14.68
376.372	86.36
376.582	29.01
376.793	33.11
377.003	26.96
377.214	82.26
377.424	59.73
377.635	18.77
377.845	10.58
378.055	41.3
378.266	53.59
378.476	51.54
378.686	2.39
378.897	82.26
379.107	74.07
379.317	61.78
379.528	16.73
379.738	31.06
379.948	51.54
380.158	24.92
380.369	29.01
380.579	78.16
380.789	55.64
380.999	80.21
381.21	94.55
381.42	-9.9
381.63	20.82
381.84	51.54
382.05	24.92
382.261	104.79
382.471	92.5
382.681	55.64
382.891	104.79
383.101	147.8
383.311	12.63
383.521	31.06
383.731	18.77
383.941	10.58
384.151	98.64
384.361	-7.85
384.571	14.68
384.781	74.07
384.991	57.68
385.201	53.59
385.411	86.36
385.621	8.53
385.831	39.25
386.041	39.25
386.251	6.49
386.461	102.74
386.671	20.82
386.881	51.54
387.091	123.22
387.301	69.97
387.511	45.4
387.72	88.4
387.93	57.68
388.14	55.64
388.35	37.2
388.56	22.87
388.769	47.44
388.979	53.59
389.189	69.97
389.399	55.64
389.609	53.59
389.818	67.92
390.028	86.36
390.238	24.92
390.447	45.4
390.657	35.16
390.867	53.59
391.076	47.44
391.286	39.25
391.496	8.53
391.705	80.21
391.915	110.93
392.125	104.79
392.334	35.16
392.544	88.4
392.753	86.36
392.963	61.78
393.172	90.45
393.382	31.06
393.591	119.12
393.801	57.68
394.01	41.3
394.22	94.55
394.429	24.92
394.639	86.36
394.848	108.88
395.058	59.73
395.267	74.07
395.477	43.35
395.686	76.12
395.895	121.17
396.105	155.99
396.314	78.16
396.524	53.59
396.733	47.44
396.942	188.75
397.152	125.27
397.361	115.03
397.57	100.69
397.78	129.36
397.989	100.69
398.198	49.49
398.407	92.5
398.617	49.49
398.826	100.69
399.035	88.4
399.244	131.41
399.453	69.97
399.663	63.83
399.872	153.94
400.081	102.74
400.29	180.56
400.499	82.26
400.708	139.6
400.917	82.26
401.127	119.12
401.336	135.51
401.545	184.66
401.754	100.69
401.963	76.12
402.172	67.92
402.381	4.44
402.59	90.45
402.799	115.03
403.008	51.54
403.217	115.03
403.426	151.89
403.635	90.45
403.844	100.69
404.053	119.12
404.262	133.46
404.471	219.47
404.68	168.27
404.888	151.89
405.097	160.08
405.306	125.27
405.515	192.85
405.724	176.47
405.933	139.6
406.142	133.46
406.35	65.88
406.559	158.03
406.768	135.51
406.977	215.38
407.185	235.86
407.394	237.91
407.603	168.27
407.812	198.99
408.02	215.38
408.229	266.58
408.438	225.62
408.646	276.82
408.855	186.71
409.064	252.24
409.272	248.15
409.481	266.58
409.69	221.52
409.898	309.58
410.107	303.44
410.315	334.16
410.524	313.68
410.733	291.15
410.941	342.35
411.15	340.3
411.358	315.73
411.567	405.84
411.775	397.65
411.984	391.5
412.192	373.07
412.401	403.79
412.609	461.13
412.818	508.24
413.026	432.46
413.234	518.48
413.443	409.94
413.651	477.52
413.86	502.09
414.068	592.2
414.276	588.11
414.485	569.68
414.693	596.3
414.901	680.27
415.11	604.49
415.318	633.16
415.526	768.33
415.734	708.94
415.943	739.66
416.151	799.05
416.359	799.05
416.567	844.1
416.776	856.39
416.984	866.63
417.192	979.27
417.4	911.69
417.608	862.54
417.817	1012.04
418.025	1001.8
418.233	1145.16
418.441	1139.01
418.649	1190.21
418.857	1192.26
419.065	1241.41
419.273	1186.12
419.481	1358.14
419.689	1382.72
419.897	1395.01
420.105	1417.54
420.313	1399.1
420.521	1546.56
420.729	1569.09
420.937	1601.85
421.145	1632.57
421.353	1782.07
421.561	1814.84
421.769	1900.86
421.977	1900.86
422.185	1943.86
422.393	2109.75
422.601	2234.68
422.809	2189.62
423.017	2130.23
423.224	2294.07
423.432	2347.31
423.64	2490.67
423.848	2597.17
424.056	2492.72
424.263	2824.49
424.471	2679.08
424.679	2869.55
424.887	2976.04
425.094	3078.44
425.302	3010.86
425.51	3176.74
425.718	3248.42
425.925	3330.34
426.133	3381.54
426.341	3676.45
426.548	3770.65
426.756	3766.56
426.964	3797.28
427.171	4100.37
427.379	4231.44
427.586	4253.97
427.794	4389.14
428.001	4587.79
428.209	4808.97
428.417	4708.62
428.624	5071.11
428.832	5144.84
429.039	4995.34
429.247	4923.66
429.454	5441.79
429.662	5822.72
429.869	5431.55
430.076	5847.29
430.284	5728.51
430.491	5945.59
430.699	6338.8
430.906	6213.88
431.114	6379.76
431.321	6455.54
431.528	6750.45
431.736	7293.16
431.943	7477.48
432.15	7342.31
432.358	7305.45
432.565	7616.74
432.772	7837.92
432.979	8267.99
433.187	8341.72
433.394	8419.54
433.601	8997.07
433.808	9062.6
434.016	8958.16
434.223	9201.86
434.43	9810.11
434.637	9672.9
434.844	10197.18
435.052	10410.17
435.259	10416.31
435.466	10289.34
435.673	10258.62
435.88	10934.45
436.087	11671.72
436.294	11749.54
436.501	11413.67
436.708	11544.74
436.915	12044.45
437.122	12593.3
437.329	12501.14
437.537	12927.12
437.743	13006.99
437.95	13078.67
438.157	13695.11
438.364	14002.3
438.571	14256.25
438.778	14030.98
438.985	15624.29
439.192	15097.97
439.399	15380.59
439.606	14895.22
439.813	16158.81
440.02	17119.31
440.227	16691.29
440.433	16627.8
440.64	16851.03
440.847	16900.18
441.054	17313.87
441.261	18645.05
441.467	18325.57
441.674	18884.66
441.881	19243.06
442.088	19234.86
442.294	19202.1
442.501	19681.32
442.708	20101.15
442.914	21106.71
443.121	21665.8
443.328	21084.18
443.534	22753.27
443.741	21975.05
443.948	21831.69
444.154	23478.26
444.361	23162.87
444.568	23341.04
444.774	23248.88
444.981	23236.59
445.187	24375.27
445.394	25589.71
445.6	25063.38
445.807	27332.53
446.013	26075.08
446.22	26798.01
446.426	27807.66
446.633	28092.33
446.839	29079.45
447.046	27905.96
447.252	29339.54
447.459	29497.24
447.665	29317.01
447.871	30320.52
448.078	31766.38
448.284	30359.43
448.491	31440.76
448.697	32372.58
448.903	32913.25
449.11	33050.46
449.316	32372.58
449.522	33193.82
449.728	33636.18
449.935	34377.54
450.141	34316.11
450.347	34922.3
450.553	33890.13
450.76	33886.03
450.966	35424.06
451.172	34656.07
451.378	35860.27
451.584	35118.91
451.791	35682.1
451.997	35755.83
452.203	36325.16
452.409	36390.7
452.615	35817.27
452.821	34842.43
453.027	34389.83
453.233	36284.2
453.44	34905.92
453.646	35317.56
453.852	35092.29
454.058	35878.71
454.264	34344.78
454.47	35598.13
454.676	34719.56
454.882	35944.24
455.088	32511.85
455.294	32900.96
455.5	33707.86
455.705	33750.87
455.911	32730.98
456.117	31577.97
456.323	31577.97
456.529	29544.34
456.735	30986.11
456.941	30052.23
457.147	29775.76
457.352	29089.69
457.558	28190.63
457.764	28450.72
457.97	27914.16
458.176	27144.12
458.381	27150.26
458.587	25864.14
458.793	25960.39
458.999	24659.93
459.204	26191.81
459.41	25409.49
459.616	23693.29
459.821	23707.63
460.027	23764.97
460.233	23169.01
460.438	22097.92
460.644	22245.38
460.85	20840.47
461.055	21219.35
461.261	20877.33
461.466	19576.87
461.672	18786.36
461.878	20164.64
462.083	18729.02
462.289	18452.54
462.494	18354.24
462.7	17436.75
462.905	17016.91
463.111	17764.42
463.316	17670.22
463.522	17342.54
463.727	17029.2
463.932	17221.71
464.138	16767.06
464.343	17291.34
464.549	16679
464.754	17016.91
464.959	17158.22
465.165	16871.51
465.37	16222.3
465.575	15685.73
465.781	16324.7
465.986	16498.78
466.191	15825
466.397	15333.48
466.602	14915.7
466.807	15491.18
467.012	15474.79
467.218	15444.07
467.423	15167.6
467.628	15140.97
467.833	15571.05
468.038	15274.09
468.244	14975.09
468.449	15362.15
468.654	14909.55
468.859	14954.61
469.064	14776.44
469.269	14190.72
469.474	14522.49
469.679	14377.08
469.885	13992.06
470.09	14403.71
470.295	14121.09
470.5	14030.98
470.705	13932.67
470.91	13791.36
471.115	13455.5
471.32	13799.55
471.525	13514.89
471.73	13207.69
471.935	13084.81
472.139	12650.64
472.344	13086.86
472.549	12908.69
472.754	12552.34
472.959	12390.55
473.164	12060.83
473.369	12132.51
473.574	12345.5
473.778	12220.57
473.983	12314.78
474.188	12109.98
474.393	11403.43
474.598	11733.15
474.802	11720.87
475.007	11415.72
475.212	11514.02
475.417	10858.67
475.621	10977.45
475.826	11108.52
476.031	10848.43
476.235	10596.53
476.44	10725.55
476.645	10342.58
476.849	10776.75
477.054	10447.03
477.259	10506.42
477.463	10254.52
477.668	9908.41
477.872	10236.09
478.077	9928.89
478.282	9736.38
478.486	9744.58
478.691	9599.17
478.895	9543.88
479.1	9662.66
479.304	9388.23
479.509	9072.84
479.713	9500.87
479.918	9185.48
480.122	9064.65
480.326	9226.44
480.531	9222.34
480.735	8956.11
480.94	9138.38
481.144	9451.72
481.348	8958.16
481.553	9097.42
481.757	9017.55
481.961	8816.85
482.166	8909.01
482.37	8614.1
482.574	8874.19
482.778	8849.61
482.983	9017.55
483.187	8794.32
483.391	9179.34
483.595	8874.19
483.8	8804.56
484.004	8978.64
484.208	8921.29
484.412	8771.79
484.616	8939.72
484.821	8657.11
485.025	8673.49
485.229	8757.46
485.433	8831.18
485.637	8931.53
485.841	8820.94
486.045	8837.33
486.249	8685.78
486.453	8736.98
486.657	8841.42
486.861	8954.06
487.065	8698.06
487.269	8759.5
487.473	8734.93
487.677	8896.72
487.881	9009.36
488.085	8728.78
488.289	8812.75
488.493	8759.5
488.697	8970.44
488.901	8863.95
489.105	8644.82
489.309	9179.34
489.512	8923.34
489.716	8818.89
489.92	9056.46
490.124	8761.55
490.328	9119.95
490.531	8902.86
490.735	9050.32
490.939	8876.24
491.143	9060.56
491.346	8739.02
491.55	9048.27
491.754	9363.65
491.958	9248.97
492.161	9218.25
492.365	9267.4
492.569	9113.8
492.772	9421
492.976	9373.89
493.18	9337.03
493.383	9363.65
493.587	9453.77
493.79	9642.18
493.994	9541.83
494.197	9693.38
494.401	9836.74
494.605	9765.06
494.808	9881.79
495.012	10014.91
495.215	9971.9
495.419	9939.13
495.622	9900.22
495.825	10152.12
496.029	10209.47
496.232	10332.34
496.436	10180.79
496.639	10719.41
496.843	10528.95
497.046	10680.5
497.249	10795.18
497.453	10991.79
497.656	11055.28
497.859	11116.72
498.063	11149.48
498.266	11446.44
498.469	11309.22
498.673	11374.76
498.876	11712.67
499.079	11819.17
499.282	11950.24
499.485	12140.7
499.689	12271.77
499.892	12124.32
500.095	12206.24
500.298	12634.26
500.501	12306.59
500.705	12730.52
500.908	12949.65
501.111	13004.94
501.314	13000.85
501.517	13332.62
501.72	13275.27
501.923	13365.39
502.126	13607.05
502.329	13965.44
502.532	13996.16
502.735	14170.24
502.938	14190.72
503.141	14409.85
503.344	14674.04
503.547	14588.02
503.75	14958.71
503.953	15040.62
504.156	15140.97
504.359	15147.12
504.562	15470.7
504.765	15894.63
504.968	16005.22
505.17	16064.61
505.373	16076.9
505.576	16515.16
505.779	16605.27
505.982	16810.07
506.185	17055.83
506.387	16863.32
506.59	17068.11
506.793	17489.99
506.996	17557.58
507.198	17854.53
507.401	17858.63
507.604	17963.08
507.807	18479.16
508.009	18374.72
508.212	18661.43
508.415	18866.23
508.617	18755.64
508.82	19384.37
509.022	19101.75
509.225	19300.4
509.428	19449.9
509.63	19796.01
509.833	19929.13
510.035	20242.46
510.238	20518.94
510.44	20459.55
510.643	20674.59
510.845	21180.43
511.048	20813.85
511.25	21340.18
511.453	21364.75
511.655	22136.84
511.858	21794.82
512.06	22095.88
512.262	22059.01
512.465	22431.74
512.667	22415.36
512.87	22972.41
513.072	23171.06
513.274	23621.61
513.477	23705.58
513.679	23402.48
513.881	23912.42
514.084	24143.84
514.286	23973.86
514.488	24027.11
514.69	24891.35
514.893	24838.11
515.095	24825.82
515.297	25311.19
515.499	25262.04
515.701	25716.68
515.904	25745.36
516.106	26027.98
516.308	26185.67
516.51	26533.82
516.712	26056.65
516.914	26906.55
517.116	27346.87
517.318	27350.96
517.52	27715.5
517.722	27596.72
517.925	27592.62
518.127	28006.31
518.329	28161.96
518.531	28028.84
518.733	28647.33
518.935	29030.3
519.136	29104.03
519.338	29190.04
519.54	29306.77
519.742	30027.66
519.944	30087.05
520.146	30048.14
520.348	30058.38
520.55	30596.99
520.752	30433.16
520.954	30908.29
521.155	31008.64
521.357	31287.16
521.559	31774.58
521.761	32139.11
521.963	31919.98
522.164	32079.72
522.366	31946.61
522.568	32317.29
522.77	32507.75
522.971	32950.11
523.173	32864.1
523.375	33288.03
523.576	33357.66
523.778	33240.92
523.98	33451.86
524.181	33451.86
524.383	33761.11
524.584	34088.78
524.786	34074.45
524.988	34283.34
525.189	34742.08
525.391	34520.9
525.592	34563.91
525.794	35012.42
525.995	34819.91
526.197	34748.23
526.398	34940.74
526.6	35456.82
526.801	35573.56
527.003	35594.04
527.204	35809.07
527.406	36026.16
527.607	36003.63
527.808	36339.5
528.01	35227.45
528.211	36040.5
528.412	36757.28
528.614	36058.93
528.815	36146.99
529.016	36599.59
529.218	36370.22
529.419	36685.61
529.62	36597.54
529.822	36747.04
530.023	36745
530.224	36468.52
530.425	36755.24
530.626	36452.14
530.828	36470.57
531.029	37588.76
531.23	36658.98
531.431	37097.25
531.632	37017.38
531.833	37160.73
532.035	37111.58
532.236	36794.15
532.437	37156.64
532.638	37183.26
532.839	37041.95
533.04	37050.14
533.241	37119.77
533.442	37404.44
533.643	37130.01
533.844	37424.92
534.045	37328.67
534.246	37011.23
534.447	37560.09
534.648	37424.92
534.849	37482.27
535.05	37050.14
535.251	37433.11
535.451	37064.48
535.652	37654.29
535.853	37273.37
536.054	37332.76
536.255	37183.26
536.456	37238.56
536.657	37738.26
536.857	37412.63
537.058	37525.27
537.259	37453.59
537.46	37429.02
537.66	37500.7
537.861	36951.84
538.062	36925.22
538.263	37386.01
538.463	37054.24
538.664	37056.29
538.865	37654.29
539.065	37455.64
539.266	36792.1
539.466	37306.14
539.667	37181.21
539.868	37719.83
540.068	37363.48
540.269	37353.24
540.469	37205.79
540.67	36775.72
540.87	37017.38
541.071	37250.84
541.271	37306.14
541.472	37351.2
541.672	36943.65
541.873	37218.08
542.073	36785.96
542.274	37320.48
542.474	37050.14
542.675	36562.73
542.875	37300
543.075	37072.67
543.276	36382.51
543.476	37287.71
543.676	36822.82
543.877	37136.16
544.077	36890.4
544.277	37031.71
544.478	36935.46
544.678	36974.37
544.878	37052.19
545.078	37017.38
545.279	36847.4
545.479	36790.05
545.679	37236.51
545.879	36876.07
546.079	36433.71
546.28	36730.66
546.48	36618.02
546.68	36595.49
546.88	36572.97
547.08	36982.56
547.28	36396.84
547.48	36708.13
547.68	36900.64
547.88	36505.38
548.081	36433.71
548.281	36792.1
548.481	36325.16
548.681	36828.96
548.881	36525.86
549.081	36695.85
549.28	36683.56
549.48	36798.24
549.68	36276.01
549.88	37007.14
550.08	36491.05
550.28	36452.14
550.48	36521.77
550.68	36763.43
550.88	36341.55
551.08	36577.06
551.279	36460.33
551.479	36185.9
551.679	36339.5
551.879	36259.63
552.079	36532.01
552.278	35827.51
552.478	36470.57
552.678	36435.75
552.878	36828.96
553.077	36507.43
553.277	36278.06
553.477	36970.27
553.676	36288.3
553.876	36343.59
554.076	36073.26
554.275	36200.24
554.475	35708.72
554.674	36298.54
554.874	35903.28
555.074	35854.13
555.273	36056.88
555.473	36278.06
555.672	35954.48
555.872	36081.45
556.071	36024.11
556.271	36208.43
556.47	35694.39
556.67	35774.26
556.869	35708.72
557.068	36202.28
557.268	35614.52
557.467	35995.44
557.667	35776.31
557.866	35725.11
558.065	35596.09
558.265	35340.09
558.464	35407.67
558.663	35815.22
558.863	35120.96
559.062	35796.79
559.261	34930.5
559.461	35565.37
559.66	35077.95
559.859	35051.33
560.058	35125.05
560.258	35073.85
560.457	34592.58
560.656	35278.65
560.855	35073.85
561.054	35335.99
561.253	34791.23
561.453	35178.3
561.652	34899.78
561.851	35020.61
562.05	34834.24
562.249	34697.03
562.448	35012.42
562.647	34838.34
562.846	34680.64
563.045	34424.65
563.244	34213.71
563.443	34932.54
563.642	34676.55
563.841	34568.01
564.04	34240.33
564.239	34850.63
564.438	33955.66
564.637	34664.26
564.836	34379.59
565.035	33871.7
565.234	33838.93
565.432	34117.45
565.631	33871.7
565.83	33671
566.029	33800.02
566.228	33556.31
566.427	33572.69
566.625	33480.53
566.824	32982.88
567.023	33804.11
567.222	33058.65
567.42	33509.21
567.619	33312.6
567.818	33564.5
568.016	33152.86
568.215	33664.85
568.414	33265.5
568.612	33605.46
568.811	33070.94
569.01	33064.8
569.208	32782.18
569.407	32913.25
569.605	32636.77
569.804	32917.34
570.002	32503.65
570.201	32546.66
570.4	32171.88
570.598	32284.52
570.797	32421.73
570.995	32620.39
571.193	31956.85
571.392	32530.28
571.59	32163.69
571.789	32472.93
571.987	32182.12
572.186	32175.98
572.384	31993.71
572.582	31833.97
572.781	31885.17
572.979	31420.28
573.177	31545.2
573.376	31768.43
573.574	31543.16
573.772	31489.91
573.971	31399.8
574.169	31182.71
574.367	30979.96
574.565	31477.62
574.763	30766.98
574.962	30355.33
575.16	30908.29
575.358	30850.94
575.556	30547.84
575.754	30930.81
575.952	30363.53
576.151	31012.73
576.349	30543.75
576.547	30832.51
576.745	30568.32
576.943	30441.35
577.141	30574.47
577.339	30619.52
577.537	30205.83
577.735	30175.11
577.933	29622.16
578.131	30099.34
578.329	29947.79
578.527	29771.66
578.725	29257.62
578.923	29712.27
579.121	29564.82
579.319	29478.8
579.516	29446.04
579.714	29403.03
579.912	28905.37
580.11	29261.72
580.308	29071.26
580.506	29130.65
580.704	28489.63
580.901	28856.22
581.099	29274.01
581.297	28807.07
581.495	28569.51
581.692	28917.66
581.89	28571.55
582.088	28743.58
582.285	28180.39
582.483	28407.72
582.681	28592.03
582.878	28454.82
583.076	28235.69
583.274	28518.31
583.471	28098.47
583.669	28037.03
583.866	27940.78
584.064	27957.16
584.262	27727.79
584.459	27801.52
584.657	27563.95
584.854	27946.92
585.052	27414.45
585.249	27238.33
585.447	27469.75
585.644	27101.11
585.841	27336.63
586.039	27570.1
586.236	26867.64
586.434	26998.71
586.631	26785.72
586.828	26910.65
587.026	26736.57
587.223	26777.53
587.42	27013.05
587.618	26873.79
587.815	26238.92
588.012	26234.82
588.21	26406.85
588.407	26777.53
588.604	26423.23
588.801	26267.59
588.999	25935.82
589.196	26052.55
589.393	26075.08
589.59	26281.92
589.787	25761.74
589.984	25706.45
590.182	25651.15
590.379	25716.68
590.576	25446.35
590.773	25331.67
590.97	24999.9
591.167	25522.13
591.364	24920.03
591.561	25280.47
591.758	24686.56
591.955	24756.19
592.152	24887.26
592.349	24737.76
592.546	24680.41
592.743	24936.41
592.94	24285.15
593.137	24639.45
593.334	24805.34
593.531	24471.52
593.727	24565.73
593.924	24096.74
594.121	24164.32
594.318	24094.69
594.515	24035.3
594.712	24207.33
594.908	24031.21
595.105	24154.08
595.302	23500.78
595.499	23924.71
595.696	23836.65
595.892	23298.03
596.089	23652.33
596.286	23455.73
596.482	23549.93
596.679	23281.65
596.876	23166.96
597.072	22931.45
597.269	23474.16
597.466	23085.05
597.662	23158.77
597.859	22888.44
598.055	22968.31
598.252	22622.2
598.448	22700.03
598.645	22788.09
598.841	22487.04
599.038	22683.64
599.234	22427.65
599.431	22448.13
599.627	22065.16
599.824	22245.38
600.02	22013.96
600.217	22110.21
600.413	22005.77
600.609	21823.5
600.806	21909.51
601.002	21856.26
601.198	21600.27
601.395	21753.87
601.591	21563.4
601.787	21897.22
601.984	21119
602.18	22036.49
602.376	21514.25
602.572	21344.27
602.769	21399.57
602.965	21237.78
603.161	21053.46
603.357	21221.39
603.553	21071.89
603.75	21073.94
603.946	20949.01
604.142	21028.88
604.338	20643.87
604.534	20557.85
604.73	20394.01
604.926	20637.72
605.122	20695.07
605.318	20449.31
605.514	20299.81
605.71	20359.2
605.906	20211.74
606.102	20377.63
606.298	20244.51
606.494	20219.94
606.69	20060.2
606.886	20068.39
607.082	19650.6
607.278	20047.91
607.474	19894.31
607.67	20140.07
607.866	19554.35
608.062	20021.28
608.257	19640.36
608.453	19810.34
608.649	19636.27
608.845	19597.35
609.041	19312.69
609.236	19431.47
609.432	19451.95
609.628	19275.82
609.824	19621.93
610.019	19222.58
610.215	19136.56
610.411	19167.28
610.606	18985.01
610.802	19365.93
610.998	19071.03
611.193	19099.7
611.389	18970.68
611.584	19114.03
611.78	18808.89
611.976	18878.52
612.171	18937.91
612.367	18718.78
612.562	18706.49
612.758	18430.01
612.953	18556.99
613.149	18927.67
613.344	18374.72
613.539	18798.65
613.735	18464.83
613.93	18503.74
614.126	18583.61
614.321	18708.54
614.517	18282.56
614.712	18329.66
614.907	18364.48
615.103	18364.48
615.298	18155.58
615.493	18403.39
615.688	17909.83
615.884	18440.25
616.079	17942.6
616.274	18153.54
616.47	18022.47
616.665	18104.39
616.86	17866.82
617.055	17694.79
617.25	17727.56
617.445	18262.08
617.641	17674.31
617.836	17723.46
618.031	17635.4
618.226	17446.99
618.421	17629.26
618.616	17563.72
618.811	17481.8
619.006	17670.22
619.201	17213.52
619.396	17234
619.591	17182.8
619.786	17129.55
619.981	16945.23
620.176	17193.04
620.371	16922.71
620.566	16912.47
620.761	16748.63
620.956	17021.01
621.151	16369.76
621.346	16693.33
621.541	16402.52
621.735	16554.07
621.93	16132.19
622.125	16330.84
622.32	15968.35
622.515	15956.07
622.709	16005.22
622.904	15843.43
623.099	15900.77
623.294	16042.08
623.488	15663.21
623.683	15851.62
623.878	15523.94
624.072	15616.1
624.267	15335.53
624.462	15290.48
624.656	15181.93
624.851	15302.76
625.046	15108.21
625.24	15194.22
625.435	14827.64
625.629	14897.27
625.824	14653.56
626.018	14671.99
626.213	14334.07
626.407	14411.9
626.602	14276.73
626.796	14592.12
626.991	14387.32
627.185	14196.86
627.38	14221.44
627.574	13947.01
627.768	14014.59
627.963	13885.57
628.157	13922.43
628.352	13740.16
628.546	13373.58
628.74	13711.49
628.935	13324.43
629.129	13475.98
629.323	13332.62
629.517	13488.26
629.712	13168.78
629.906	13047.95
630.1	12890.26
630.294	12894.35
630.489	12857.49
630.683	13119.63
630.877	12693.65
631.071	12628.12
631.265	13037.71
631.459	12538.01
631.653	12601.49
631.848	12495
632.042	12421.27
632.236	12439.7
632.43	12370.07
632.624	12376.22
632.818	12325.02
633.012	12101.79
633.206	11980.96
633.4	12107.93
633.594	12075.17
633.788	11862.18
633.982	11946.14
634.176	11544.74
634.369	11602.08
634.563	11456.68
634.757	11509.93
634.951	11499.69
635.145	11540.65
635.339	11352.23
635.533	11206.83
635.726	11229.35
635.92	11251.88
636.114	11137.2
636.308	10969.26
636.501	11215.02
636.695	11071.66
636.889	10993.84
637.083	10875.06
637.276	10764.47
637.47	10670.26
637.664	10567.86
637.857	10326.2
638.051	10553.52
638.244	10379.45
638.438	10313.91
638.632	10451.13
638.825	10291.38
639.019	10320.06
639.212	10289.34
639.406	10176.7
639.599	9941.18
639.793	10150.07
639.986	9910.46
640.18	9822.4
640.373	9840.83
640.567	9849.02
640.76	9787.58
640.954	9607.36
641.147	9625.79
641.34	9748.67
641.534	9601.22
641.727	9504.96
641.92	9578.69
642.114	9457.86
642.307	9482.44
642.5	9269.45
642.694	9236.68
642.887	9138.38
643.08	9099.47
643.273	9078.99
643.467	9035.98
643.66	9048.27
643.853	9021.64
644.046	8982.73
644.239	8855.76
644.432	8857.81
644.626	8610
644.819	8726.74
645.012	8755.41
645.205	8521.94
645.398	8628.43
645.591	8493.27
645.784	8548.56
645.977	8435.92
646.17	8454.36
646.363	8231.13
646.556	8241.37
646.749	8216.79
646.942	8237.27
647.135	8147.16
647.328	8134.87
647.521	8169.69
647.714	7901.4
647.907	8034.52
648.099	7956.7
648.292	7977.18
648.485	7893.21
648.678	7809.25
648.871	7686.37
649.064	7811.29
649.256	7708.9
649.449	7737.57
649.642	7594.21
649.835	7618.79
650.027	7565.54
650.22	7594.21
650.413	7471.33
650.605	7426.28
650.798	7266.53
650.991	7301.35
651.183	7334.12
651.376	7213.29
651.568	7219.43
651.761	7209.19
651.954	7047.4
652.146	7157.99
652.339	7041.26
652.531	7067.88
652.724	6885.61
652.916	6940.91
653.109	6893.8
653.301	6846.7
653.494	6729.97
653.686	6631.66
653.879	6922.48
654.071	6723.82
654.263	6848.75
654.456	6856.94
654.648	6686.96
654.84	6433.01
655.033	6727.92
655.225	6713.58
655.417	6521.07
655.61	6435.06
655.802	6340.85
655.994	6478.07
656.186	6357.24
656.379	6439.16
656.571	6117.62
656.763	6287.61
656.955	6150.39
657.148	6265.08
657.34	6357.24
657.532	6174.97
657.724	6019.32
657.916	6162.68
658.108	5986.55
658.3	5875.96
658.492	6183.16
658.684	5955.83
658.876	5918.97
659.068	5839.1
659.26	5835
659.452	5740.8
659.644	5837.05
659.836	5697.79
660.028	5822.72
660.22	5568.77
660.412	5695.74
660.604	5546.24
660.796	5679.36
660.988	5595.39
661.18	5509.38
661.372	5361.92
661.563	5239.05
661.755	5372.16
661.947	5501.19
662.139	5509.38
662.331	5392.64
662.522	5378.31
662.714	5196.04
662.906	5337.35
663.097	5232.9
663.289	5251.33
663.481	5169.41
663.673	5116.17
663.864	5234.95
664.056	5069.06
664.247	5193.99
664.439	4999.43
664.631	5157.13
664.822	5116.17
665.014	4985.1
665.205	5060.87
665.397	4999.43
665.588	4960.52
665.78	4981
665.971	4811.02
666.163	4870.41
666.354	4841.74
666.546	4790.54
666.737	4866.32
666.929	4757.77
667.12	4641.04
667.311	4641.04
667.503	4735.25
667.694	4843.79
667.885	4626.7
668.077	4649.23
668.268	4624.65
668.459	4696.33
668.651	4610.32
668.842	4532.5
669.033	4550.93
669.224	4522.26
669.416	4536.59
669.607	4376.85
669.798	4546.83
669.989	4397.33
670.18	4446.48
670.371	4454.67
670.563	4256.02
670.754	4229.4
670.945	4307.22
671.136	4393.23
671.327	4370.71
671.518	4352.27
671.709	4190.49
671.9	4247.83
672.091	4221.2
672.282	4296.98
672.473	4241.68
672.664	4172.05
672.855	4184.34
673.046	4237.59
673.237	4247.83
673.428	4323.6
673.619	4067.61
673.809	3995.93
674	4127
674.191	4184.34
674.382	3983.64
674.573	4057.37
674.764	4038.94
674.954	4038.94
675.145	3963.16
675.336	3940.63
675.527	4000.02
675.717	4032.79
675.908	3879.19
676.099	3950.87
676.289	3946.78
676.48	3971.35
676.671	3909.91
676.861	3864.86
677.052	3782.94
677.243	3934.49
677.433	3727.64
677.624	3795.23
677.814	3813.66
678.005	3803.42
678.195	3834.14
678.386	3838.23
678.576	3731.74
678.767	3639.58
678.957	3707.16
679.148	3772.7
679.338	3772.7
679.529	3752.22
679.719	3758.36
679.909	3760.41
680.1	3852.57
680.29	3674.4
680.481	3641.63
680.671	3660.06
680.861	3602.72
681.052	3729.69
681.242	3619.1
681.432	3690.78
681.622	3682.59
681.813	3625.25
682.003	3680.54
682.193	3535.14
682.383	3508.51
682.573	3641.63
682.764	3531.04
682.954	3588.38
683.144	3649.82
683.334	3459.36
683.524	3420.45
683.714	3578.14
683.904	3381.54
684.094	3500.32
684.284	3457.31
684.474	3424.55
684.664	3500.32
684.854	3395.87
685.044	3524.9
685.234	3402.02
685.424	3459.36
685.614	3395.87
685.804	3447.07
685.994	3436.83
686.184	3412.26
686.374	3377.44
686.564	3285.28
686.753	3354.91
686.943	3209.51
687.133	3320.1
687.323	3281.19
687.513	3334.43
687.702	3293.48
687.892	3229.99
688.082	3227.94
688.272	3156.26
688.461	3150.12
688.651	3219.75
688.841	3160.36
689.03	3193.12
689.22	3141.93
689.41	3180.84
689.599	3156.26
689.789	3211.56
689.979	3053.86
690.168	3123.49
690.358	3035.43
690.547	3072.29
690.737	3139.88
690.926	3105.06
691.116	2949.42
691.305	3021.1
691.495	3023.14
691.684	2885.93
691.874	2906.41
692.063	2912.55
692.252	3004.71
692.442	2951.46
692.631	2906.41
692.82	2865.45
693.01	2896.17
693.199	2910.5
693.388	2754.86
693.578	2896.17
693.767	2732.33
693.956	2804.01
694.146	2789.67
694.335	2754.86
694.524	2720.04
694.713	2795.82
694.902	2705.71
695.092	2804.01
695.281	2621.74
695.47	2724.14
695.659	2828.59
695.848	2765.1
696.037	2654.51
696.226	2687.28
696.415	2793.77
696.604	2697.52
696.793	2677.04
696.982	2740.52
697.171	2758.96
697.36	2756.91
697.549	2648.36
697.738	2611.5
697.927	2724.14
698.116	2672.94
698.305	2752.81
698.494	2722.09
698.683	2668.84
698.872	2726.19
699.061	2613.55
699.25	2683.18
699.438	2718
699.627	2761
699.816	2709.8
700.005	2513.2
700.193	2777.39
700.382	2640.17
700.571	2691.37
700.76	2689.32
700.948	2648.36
701.137	2558.25
701.326	2666.8
701.514	2631.98
701.703	2806.06
701.892	2699.56
702.08	2638.13
702.269	2615.6
702.457	2705.71
702.646	2593.07
702.834	2681.13
703.023	2730.28
703.212	2664.75
703.4	2763.05
703.589	2687.28
703.777	2748.72
703.965	2595.12
704.154	2627.89
704.342	2623.79
704.531	2660.65
704.719	2756.91
704.907	2670.89
705.096	2562.35
705.284	2795.82
705.472	2613.55
705.661	2693.42
705.849	2543.92
706.037	2543.92
706.226	2693.42
706.414	2629.93
706.602	2640.17
706.79	2691.37
706.979	2623.79
707.167	2560.3
707.355	2584.88
707.543	2738.48
707.731	2740.52
707.919	2558.25
708.107	2625.84
708.296	2636.08
708.484	2621.74
708.672	2738.48
708.86	2736.43
709.048	2703.66
709.236	2748.72
709.424	2691.37
709.612	2664.75
709.8	2654.51
709.988	2644.27
710.176	2695.47
710.364	2627.89
710.551	2734.38
710.739	2707.76
710.927	2693.42
711.115	2677.04
711.303	2754.86
711.491	2668.84
711.679	2574.64
711.866	2699.56
712.054	2799.91
712.242	2603.31
712.43	2683.18
712.617	2711.85
712.805	2664.75
712.993	2701.61
713.181	2545.97
713.368	2683.18
713.556	2638.13
713.744	2720.04
713.931	2763.05
714.119	2668.84
714.306	2619.69
714.494	2744.62
714.682	2595.12
714.869	2634.03
715.057	2830.63
715.244	2631.98
715.432	2691.37
715.619	2711.85
715.807	2754.86
715.994	2609.45
716.182	2728.24
716.369	2654.51
716.556	2668.84
716.744	2664.75
716.931	2582.83
717.119	2672.94
717.306	2552.11
717.493	2814.25
717.681	2695.47
717.868	2642.22
718.055	2564.4
718.242	2666.8
718.43	2593.07
718.617	2629.93
718.804	2715.95
718.991	2642.22
719.179	2672.94
719.366	2681.13
719.553	2599.21
719.74	2679.08
719.927	2666.8
720.114	2732.33
720.301	2574.64
720.488	2593.07
720.676	2558.25
720.863	2666.8
721.05	2629.93
721.237	2623.79
721.424	2574.64
721.611	2429.23
721.798	2672.94
721.985	2611.5
722.172	2502.96
722.358	2580.78
722.545	2697.52
722.732	2607.41
722.919	2621.74
723.106	2615.6
723.293	2631.98
723.48	2505.01
723.667	2664.75
723.853	2513.2
724.04	2615.6
724.227	2681.13
724.414	2644.27
724.6	2715.95
724.787	2625.84
724.974	2552.11
725.161	2543.92
725.347	2466.1
725.534	2640.17
725.72	2580.78
725.907	2572.59
726.094	2634.03
726.28	2568.49
726.467	2556.21
726.653	2400.56
726.84	2572.59
727.027	2619.69
727.213	2515.25
727.4	2550.06
727.586	2562.35
727.773	2509.1
727.959	2507.06
728.145	2634.03
728.332	2574.64
728.518	2668.84
728.705	2674.99
728.891	2578.73
729.077	2562.35
729.264	2507.06
729.45	2423.09
729.636	2529.58
729.823	2486.58
730.009	2478.38
730.195	2464.05
730.382	2462
730.568	2517.29
730.754	2525.49
730.94	2443.57
731.126	2435.38
731.313	2556.21
731.499	2521.39
731.685	2568.49
731.871	2472.24
732.057	2445.62
732.243	2476.34
732.429	2519.34
732.615	2543.92
732.801	2408.75
732.987	2484.53
733.173	2511.15
733.359	2382.13
733.545	2382.13
733.731	2439.47
733.917	2400.56
734.103	2425.14
734.289	2492.72
734.475	2373.94
734.661	2423.09
734.847	2380.08
735.033	2386.22
735.219	2421.04
735.404	2373.94
735.59	2490.67
735.776	2390.32
735.962	2447.66
736.148	2423.09
736.333	2496.82
736.519	2378.03
736.705	2390.32
736.89	2408.75
737.076	2353.46
737.262	2306.35
737.447	2339.12
737.633	2443.57
737.819	2355.51
738.004	2353.46
738.19	2341.17
738.375	2300.21
738.561	2390.32
738.747	2220.34
738.932	2255.15
739.118	2433.33
739.303	2292.02
739.489	2320.69
739.674	2302.26
739.859	2304.31
740.045	2222.39
740.23	2138.42
740.416	2163
740.601	2306.35
740.786	2177.33
740.972	2185.52
741.157	2259.25
741.342	2234.68
741.528	2185.52
741.713	2218.29
741.898	2169.14
742.084	2261.3
742.269	2232.63
742.454	2160.95
742.639	2255.15
742.824	2148.66
743.01	2179.38
743.195	2119.99
743.38	2111.8
743.565	2165.04
743.75	2183.48
743.935	2136.37
744.12	2150.71
744.305	1964.34
744.49	2027.83
744.675	2038.07
744.86	2091.32
745.045	2005.3
745.23	1888.57
745.415	1960.25
745.6	2023.73
745.785	2021.69
745.97	1939.77
746.155	2031.93
746.34	1974.58
746.525	1831.23
746.71	1925.43
746.895	1839.42
747.079	1884.47
747.264	1896.76
747.449	1863.99
747.634	1937.72
747.819	1833.27
748.003	1745.21
748.188	1859.9
748.373	1820.99
748.557	1816.89
748.742	1773.88
748.927	1827.13
749.111	1786.17
749.296	1831.23
749.481	1866.04
749.665	1786.17
749.85	1739.07
750.034	1835.32
750.219	1788.22
750.404	1722.68
750.588	1775.93
750.773	1708.35
750.957	1694.01
751.141	1716.54
751.326	1655.1
751.51	1587.52
751.695	1626.43
751.879	1640.76
752.064	1718.59
752.248	1642.81
752.432	1646.91
752.617	1583.42
752.801	1575.23
752.985	1503.55
753.17	1544.51
753.354	1538.37
753.538	1501.5
753.722	1448.26
753.907	1499.45
754.091	1427.78
754.275	1493.31
754.459	1481.02
754.643	1440.06
754.828	1444.16
755.012	1530.17
755.196	1386.82
755.38	1405.25
755.564	1454.4
755.748	1403.2
755.932	1419.58
756.116	1442.11
756.3	1366.34
756.484	1403.2
756.668	1456.45
756.852	1321.28
757.036	1319.23
757.22	1308.99
757.404	1253.7
757.588	1296.71
757.772	1278.27
757.956	1200.45
758.14	1237.31
758.323	1202.5
758.507	1343.81
758.691	1286.47
758.875	1288.51
759.059	1304.9
759.242	1216.83
759.426	1177.92
759.61	1274.18
759.794	1270.08
759.977	1304.9
760.161	1130.82
760.345	1251.65
760.528	1143.11
760.712	1204.55
760.895	1130.82
761.079	1139.01
761.263	1141.06
761.446	1130.82
761.63	1167.68
761.813	1171.78
761.997	1147.2
762.18	1067.33
762.364	1024.33
762.547	1134.92
762.731	1126.72
762.914	1050.95
763.098	1042.76
763.281	1053
763.464	1093.96
763.648	1073.48
763.831	1009.99
764.015	1091.91
764.198	1061.19
764.381	1081.67
764.564	987.46
764.748	971.08
764.931	989.51
765.114	1007.94
765.297	1065.29
765.481	1038.66
765.664	1050.95
765.847	946.5
766.03	958.79
766.213	954.69
766.397	960.84
766.58	942.41
766.763	934.22
766.946	999.75
767.129	991.56
767.312	942.41
767.495	973.13
767.678	969.03
767.861	1044.81
768.044	911.69
768.227	1001.8
768.41	1001.8
768.593	987.46
768.776	923.98
768.959	930.12
769.142	928.07
769.324	950.6
769.507	807.24
769.69	792.91
769.873	921.93
770.056	864.58
770.239	858.44
770.421	897.35
770.604	874.82
770.787	805.19
770.97	876.87
771.152	923.98
771.335	930.12
771.518	864.58
771.7	899.4
771.883	778.57
772.066	852.3
772.248	809.29
772.431	803.15
772.613	840.01
772.796	797
772.978	897.35
773.161	745.8
773.343	782.67
773.526	696.65
773.708	858.44
773.891	823.62
774.073	790.86
774.256	809.29
774.438	829.77
774.621	727.37
774.803	749.9
774.985	819.53
775.168	805.19
775.35	737.61
775.532	747.85
775.715	766.28
775.897	735.56
776.079	708.94
776.261	774.47
776.444	735.56
776.626	721.23
776.808	676.17
776.99	719.18
777.173	719.18
777.355	706.89
777.537	667.98
777.719	684.36
777.901	731.47
778.083	686.41
778.265	686.41
778.447	629.07
778.629	676.17
778.811	647.5
778.993	594.25
779.175	596.3
779.357	575.82
779.539	549.2
779.721	627.02
779.903	719.18
780.085	608.59
780.267	667.98
780.449	665.93
780.631	661.84
780.812	647.5
780.994	600.4
781.176	565.58
781.358	569.68
781.54	571.72
781.721	614.73
781.903	584.01
782.085	557.39
782.267	559.44
782.448	528.72
782.63	530.77
782.812	500.05
782.993	577.87
783.175	577.87
783.357	446.8
783.538	514.38
783.72	506.19
783.901	547.15
784.083	555.34
784.264	475.47
784.446	473.42
784.627	473.42
784.809	520.53
784.99	487.76
785.172	481.61
785.353	432.46
785.535	483.66
785.716	473.42
785.897	473.42
786.079	498
786.26	422.22
786.441	483.66
786.623	498
786.804	383.31
786.985	473.42
787.167	395.6
787.348	387.41
787.529	450.89
787.71	491.85
787.891	461.13
788.073	454.99
788.254	405.84
788.435	375.12
788.616	454.99
788.797	377.17
788.978	493.9
789.159	383.31
789.34	448.85
789.522	403.79
789.703	336.21
789.884	391.5
790.065	375.12
790.246	371.02
790.427	301.39
790.607	362.83
790.788	397.65
790.969	364.88
791.15	381.26
791.331	330.06
791.512	356.69
791.693	352.59
791.874	381.26
792.054	405.84
792.235	383.31
792.416	385.36
792.597	362.83
792.778	381.26
792.958	379.22
793.139	350.54
793.32	395.6
793.5	340.3
793.681	368.98
793.862	328.02
794.042	291.15
794.223	289.1
794.404	336.21
794.584	242
794.765	242
794.945	274.77
795.126	297.3
795.306	291.15
795.487	266.58
795.667	227.67
795.848	287.06
796.028	244.05
796.209	301.39
796.389	215.38
796.57	325.97
796.75	196.95
796.93	307.54
797.111	235.86
797.291	272.72
797.471	246.1
797.652	272.72
797.832	323.92
798.012	215.38
798.192	321.87
798.373	270.67
798.553	299.34
798.733	196.95
798.913	278.87
799.093	250.19
799.274	350.54
799.454	270.67
799.634	239.95
799.814	344.4
799.994	221.52
800.174	289.1
800.354	217.43
800.534	260.43
800.714	313.68
800.894	213.33
801.074	235.86
801.254	244.05
801.434	350.54
801.614	242
801.794	160.08
801.974	618.83
802.154	221.52
802.334	205.14
802.514	225.62
802.693	225.62
802.873	215.38
803.053	260.43
803.233	270.67
803.413	274.77
803.592	184.66
803.772	137.56
803.952	209.23
804.131	209.23
804.311	219.47
804.491	287.06
804.67	176.47
804.85	153.94
805.03	309.58
805.209	297.3
805.389	215.38
805.568	158.03
805.748	219.47
805.928	233.81
806.107	180.56
806.287	203.09
806.466	123.22
806.646	110.93
806.825	215.38
807.004	227.67
807.184	145.75
807.363	213.33
807.543	158.03
807.722	112.98
807.901	192.85
808.081	235.86
808.26	207.19
808.439	166.23
808.619	92.5
808.798	233.81
808.977	133.46
809.156	186.71
809.336	141.65
809.515	190.8
809.694	110.93
809.873	209.23
810.052	190.8
810.231	155.99
810.411	166.23
810.59	164.18
810.769	158.03
810.948	172.37
811.127	127.32
811.306	168.27
811.485	162.13
811.664	139.6
811.843	139.6
812.022	207.19
812.201	192.85
812.38	117.08
812.559	98.64
812.737	172.37
812.916	96.6
813.095	170.32
813.274	227.67
813.453	108.88
813.632	110.93
813.811	203.09
813.989	104.79
814.168	184.66
814.347	180.56
814.526	190.8
814.704	201.04
814.883	182.61
815.062	139.6
815.24	104.79
815.419	139.6
815.598	121.17
815.776	69.97
815.955	217.43
816.133	143.7
816.312	160.08
816.49	84.31
816.669	190.8
816.847	133.46
817.026	20.82
817.204	112.98
817.383	180.56
817.561	135.51
817.74	147.8
817.918	137.56
818.097	125.27
818.275	84.31
818.453	166.23
818.632	182.61
818.81	65.88
818.988	80.21
819.167	164.18
819.345	63.83
819.523	145.75
819.701	172.37
819.879	123.22
820.058	123.22
820.236	168.27
820.414	131.41
820.592	88.4
820.77	160.08
820.948	174.42
821.127	104.79
821.305	182.61
821.483	137.56
821.661	96.6
821.839	92.5
822.017	170.32
822.195	49.49
822.373	117.08
822.551	141.65
822.729	162.13
822.907	112.98
823.085	149.84
823.262	65.88
823.44	110.93
823.618	104.79
823.796	76.12
823.974	84.31
824.152	39.25
824.329	88.4
824.507	84.31
824.685	74.07
824.863	180.56
825.04	72.02
825.218	127.32
825.396	88.4
825.574	41.3
825.751	47.44
825.929	127.32
826.107	145.75
826.284	149.84
826.462	119.12
826.639	96.6
826.817	84.31
826.994	72.02
827.172	92.5
827.349	135.51
827.527	88.4
827.704	211.28
827.882	153.94
828.059	127.32
828.237	94.55
828.414	55.64
828.591	24.92
828.769	61.78
828.946	47.44
829.124	98.64
829.301	55.64
829.478	121.17
829.655	139.6
829.833	112.98
830.01	88.4
830.187	133.46
830.364	84.31
830.542	63.83
830.719	57.68
830.896	88.4
831.073	76.12
831.25	92.5
831.427	88.4
831.604	117.08
831.782	135.51
831.959	100.69
832.136	57.68
832.313	90.45
832.49	67.92
832.667	72.02
832.844	88.4
833.021	110.93
833.198	129.36
833.374	63.83
833.551	4.44
833.728	47.44
833.905	110.93
834.082	65.88
834.259	84.31
834.436	14.68
834.612	61.78
834.789	82.26
834.966	98.64
835.143	96.6
835.319	53.59
835.496	155.99
835.673	72.02
835.85	104.79
836.026	43.35
836.203	98.64
836.38	18.77
836.556	88.4
836.733	112.98
836.909	125.27
837.086	10.58
837.262	90.45
837.439	82.26
837.616	102.74
837.792	14.68
837.968	61.78
838.145	-57
838.321	37.2
838.498	78.16
838.674	78.16
838.851	92.5
839.027	69.97
839.203	121.17
839.38	123.22
839.556	49.49
839.732	115.03
839.909	59.73
840.085	90.45
840.261	10.58
840.437	164.18
840.614	14.68
840.79	16.73
840.966	18.77
841.142	65.88
841.318	29.01
841.494	84.31
841.671	16.73
841.847	115.03
842.023	-18.09
842.199	139.6
842.375	92.5
842.551	104.79
842.727	98.64
842.903	94.55
843.079	82.26
843.255	110.93
843.431	20.82
843.607	39.25
843.783	-34.47
843.959	82.26
844.134	57.68
844.31	74.07
844.486	94.55
844.662	37.2
844.838	151.89
845.013	55.64
845.189	108.88
845.365	43.35
845.541	45.4
845.716	41.3
845.892	139.6
846.068	90.45
846.244	0.34
846.419	82.26
846.595	10.58
846.77	47.44
846.946	45.4
847.122	110.93
847.297	31.06
847.473	47.44
847.648	51.54
847.824	94.55
847.999	-34.47
848.175	135.51
848.35	18.77
848.526	35.16
848.701	2.39
848.876	-1.71
849.052	53.59
849.227	51.54
849.403	37.2
849.578	67.92
849.753	37.2
849.929	35.16
850.104	2.39
850.279	12.63
850.454	-38.57
850.63	-36.52
850.805	4.44
850.98	45.4
851.155	22.87
851.33	55.64
851.505	-24.23
851.681	76.12
851.856	14.68
852.031	10.58
852.206	-48.81
852.381	65.88
852.556	45.4
852.731	45.4
852.906	29.01
853.081	49.49
853.256	86.36
853.431	84.31
853.606	31.06
853.781	14.68
853.956	-57
854.131	0.34
854.305	-5.8
854.48	90.45
854.655	-1.71
854.83	-11.95
855.005	41.3
855.18	31.06
855.354	-34.47
855.529	10.58
855.704	65.88
855.879	43.35
856.053	26.96
856.228	41.3
856.403	-3.75
856.577	37.2
856.752	49.49
856.926	24.92
857.101	-5.8
857.276	78.16
857.45	24.92
857.625	0.34
857.799	20.82
857.974	20.82
858.148	33.11
858.323	55.64
858.497	88.4
858.672	-3.75
858.846	0.34
859.02	41.3
859.195	12.63
859.369	43.35
859.543	65.88
859.718	55.64
859.892	67.92
860.066	51.54
860.241	24.92
860.415	57.68
860.589	-22.19
860.763	-7.85
860.938	37.2
861.112	135.51
861.286	4.44
861.46	100.69
861.634	-13.99
861.808	31.06
861.982	14.68
862.157	29.01
862.331	4.44
862.505	49.49
862.679	-30.38
862.853	-24.23
863.027	63.83
863.201	80.21
863.375	-9.9
863.549	45.4
863.722	127.32
863.896	41.3
864.07	69.97
864.244	43.35
864.418	20.82
864.592	12.63
864.766	6.49
864.939	29.01
865.113	12.63
865.287	-44.71
865.461	26.96
865.634	47.44
865.808	61.78
865.982	14.68
866.156	4.44
866.329	-1.71
866.503	18.77
866.676	47.44
866.85	-30.38
867.024	22.87
867.197	4.44
867.371	47.44
867.544	-22.19
867.718	143.7
867.891	45.4
868.065	22.87
868.238	24.92
868.412	49.49
868.585	22.87
868.759	18.77
868.932	-18.09
869.105	45.4
869.279	143.7
869.452	2.39
869.625	35.16
869.799	127.32
869.972	33.11
870.145	80.21
870.319	6.49
870.492	-22.19
870.665	12.63
870.838	84.31
871.011	-65.19
871.185	31.06
871.358	57.68
871.531	63.83
871.704	-20.14
871.877	53.59
872.05	72.02
872.223	-11.95
872.396	37.2
872.569	41.3
872.742	-114.34
872.915	-20.14
873.088	2.39
873.261	-32.43
873.434	10.58
873.607	-9.9
873.78	55.64
873.953	-18.09
874.126	37.2
874.299	-5.8
874.471	-11.95
874.644	35.16
874.817	18.77
874.99	35.16
875.163	10.58
875.335	4.44
875.508	-30.38
875.681	61.78
875.853	-57
876.026	8.53
876.199	102.74
876.371	18.77
876.544	22.87
876.717	96.6
876.889	47.44
877.062	31.06
877.234	-73.39
877.407	22.87
877.579	24.92
877.752	-18.09
877.924	10.58
878.097	37.2
878.269	10.58
878.442	37.2
878.614	-9.9
878.786	-24.23
878.959	112.98
879.131	94.55
879.303	35.16
879.476	-5.8
879.648	39.25
879.82	29.01
879.993	20.82
880.165	69.97
880.337	18.77
880.509	39.25
880.681	-13.99
880.854	35.16
881.026	24.92
881.198	63.83
881.37	72.02
881.542	35.16
881.714	59.73
881.886	16.73
882.058	31.06
882.23	55.64
882.402	47.44
882.574	22.87
882.746	-7.85
882.918	63.83
883.09	69.97
883.262	-16.04
883.434	-28.33
883.606	22.87
883.778	26.96
883.95	55.64
884.122	24.92
884.293	108.88
884.465	31.06
884.637	47.44
884.809	-73.39
884.98	22.87
885.152	-1.71
885.324	-9.9
885.496	37.2
885.667	0.34
885.839	-30.38
886.011	55.64
886.182	74.07
886.354	37.2
886.525	18.77
886.697	12.63
886.869	20.82
887.04	76.12
887.212	20.82
887.383	-9.9
887.555	-46.76
887.726	31.06
887.897	10.58
888.069	-26.28
888.24	22.87
888.412	-26.28
888.583	2.39
888.754	-38.57
888.926	-32.43
889.097	55.64
889.268	-42.67
889.44	-9.9
889.611	-46.76
889.782	-5.8
889.953	-26.28
890.125	-18.09
890.296	18.77
890.467	22.87
890.638	10.58
890.809	-1.71
890.98	-26.28
891.151	-9.9
891.323	31.06
891.494	14.68
891.665	55.64
891.836	0.34
892.007	53.59
892.178	90.45
892.349	4.44
892.52	22.87
892.691	78.16
892.862	-5.8
893.032	-11.95
893.203	26.96
893.374	14.68
893.545	22.87
893.716	26.96
893.887	22.87
894.057	24.92
894.228	-16.04
894.399	-32.43
894.57	90.45
894.74	47.44
894.911	6.49
895.082	53.59
895.253	-1.71
895.423	-38.57
895.594	24.92
895.764	16.73
895.935	-16.04
896.106	0.34
896.276	-1.71
896.447	33.11
896.617	-63.15
896.788	-22.19
896.958	18.77
897.129	57.68
897.299	-57
897.47	6.49
897.64	18.77
897.81	-13.99
897.981	37.2
898.151	-28.33
898.322	41.3
898.492	-16.04
898.662	35.16
898.832	-28.33
899.003	-20.14
899.173	-67.24
899.343	-46.76
899.513	47.44
