Data from USB4F104151__87__12-02-31-090.txt Node

Date: Fri Mar 14 12:02:31 EDT 2025
User: louis
Spectrometer: USB4F10415
Trigger mode: 4
Integration Time (sec): 2.000000E-2
Scans to average: 1
Electric dark correction enabled: true
Nonlinearity correction enabled: false
Boxcar width: 0
XAxis mode: Wavelengths
Number of Pixels in Spectrum: 3648
>>>>>Begin Spectral Data<<<<<
178.204	-70.83
178.424	-70.83
178.644	-70.83
178.864	-31.91
179.084	-101.55
179.304	-42.15
179.524	-74.92
179.744	-38.06
179.964	90.96
180.184	23.38
180.404	-13.48
180.624	13.14
180.844	19.29
181.064	-29.87
181.283	43.86
181.503	-36.01
181.723	43.86
181.943	-132.26
182.163	37.72
182.383	78.68
182.602	70.48
182.822	-19.63
183.042	33.62
183.262	27.48
183.482	-7.34
183.701	-7.34
183.921	-3.24
184.141	-3.24
184.361	37.72
184.58	-64.68
184.8	66.39
185.02	43.86
185.239	-13.48
185.459	15.19
185.679	-11.43
185.898	7
186.118	13.14
186.338	95.06
186.557	11.09
186.777	-5.29
186.997	84.82
187.216	31.57
187.436	80.72
187.655	41.81
187.875	60.24
188.095	45.91
188.314	74.58
188.534	33.62
188.753	2.9
188.973	47.96
189.192	115.54
189.412	-9.39
189.631	39.76
189.851	56.15
190.07	115.54
190.29	-9.39
190.509	25.43
190.729	9.05
190.948	82.77
191.168	68.44
191.387	21.33
191.607	15.19
191.826	97.11
192.045	-21.67
192.265	54.1
192.484	-31.91
192.704	45.91
192.923	11.09
193.142	11.09
193.362	-27.82
193.581	0.85
193.8	13.14
194.02	60.24
194.239	2.9
194.458	23.38
194.678	80.72
194.897	99.16
195.116	76.63
195.335	35.67
195.555	9.05
195.774	-13.48
195.993	-15.53
196.212	-23.72
196.432	-42.15
196.651	11.09
196.87	29.52
197.089	125.78
197.308	-9.39
197.528	21.33
197.747	-11.43
197.966	58.2
198.185	-91.31
198.404	-13.48
198.623	-33.96
198.842	52.05
199.062	25.43
199.281	95.06
199.5	4.95
199.719	-27.82
199.938	39.76
200.157	117.59
200.376	35.67
200.595	-7.34
200.814	23.38
201.033	54.1
201.252	29.52
201.471	72.53
201.69	35.67
201.909	-5.29
202.128	-27.82
202.347	86.87
202.566	-23.72
202.785	47.96
203.004	43.86
203.223	-5.29
203.442	4.95
203.661	37.72
203.879	52.05
204.098	9.05
204.317	11.09
204.536	41.81
204.755	64.34
204.974	-3.24
205.193	17.24
205.411	115.54
205.63	27.48
205.849	64.34
206.068	31.57
206.287	29.52
206.505	-5.29
206.724	47.96
206.943	15.19
207.162	103.25
207.381	41.81
207.599	25.43
207.818	11.09
208.037	29.52
208.255	47.96
208.474	50
208.693	68.44
208.911	41.81
209.13	99.16
209.349	17.24
209.567	-23.72
209.786	37.72
210.005	25.43
210.223	82.77
210.442	35.67
210.661	41.81
210.879	54.1
211.098	27.48
211.316	27.48
211.535	29.52
211.753	-3.24
211.972	21.33
212.191	58.2
212.409	-54.44
212.628	-21.67
212.846	-5.29
213.065	-58.54
213.283	-9.39
213.502	76.63
213.72	-9.39
213.938	-42.15
214.157	11.09
214.375	-19.63
214.594	-42.15
214.812	66.39
215.031	74.58
215.249	62.29
215.467	47.96
215.686	17.24
215.904	31.57
216.122	19.29
216.341	7
216.559	66.39
216.778	-17.58
216.996	43.86
217.214	33.62
217.432	-29.87
217.651	68.44
217.869	-52.39
218.087	62.29
218.306	13.14
218.524	17.24
218.742	7
218.96	50
219.179	47.96
219.397	9.05
219.615	50
219.833	93.01
220.051	76.63
220.27	64.34
220.488	23.38
220.706	72.53
220.924	13.14
221.142	39.76
221.36	-21.67
221.578	-29.87
221.796	80.72
222.015	66.39
222.233	60.24
222.451	78.68
222.669	15.19
222.887	97.11
223.105	-9.39
223.323	35.67
223.541	95.06
223.759	-25.77
223.977	58.2
224.195	37.72
224.413	-42.15
224.631	15.19
224.849	72.53
225.067	27.48
225.285	17.24
225.503	-19.63
225.721	-3.24
225.939	-29.87
226.157	52.05
226.375	88.92
226.592	-13.48
226.81	70.48
227.028	54.1
227.246	29.52
227.464	29.52
227.682	-3.24
227.9	47.96
228.117	62.29
228.335	41.81
228.553	45.91
228.771	56.15
228.989	107.35
229.206	25.43
229.424	7
229.642	-5.29
229.86	45.91
230.077	-19.63
230.295	109.4
230.513	78.68
230.731	4.95
230.948	62.29
231.166	56.15
231.384	31.57
231.601	7
231.819	70.48
232.037	-9.39
232.254	15.19
232.472	-48.3
232.689	37.72
232.907	66.39
233.125	0.85
233.342	2.9
233.56	54.1
233.777	-15.53
233.995	-48.3
234.213	66.39
234.43	121.68
234.648	43.86
234.865	13.14
235.083	70.48
235.3	17.24
235.518	0.85
235.735	15.19
235.953	56.15
236.17	0.85
236.388	-17.58
236.605	-15.53
236.822	78.68
237.04	-3.24
237.257	133.97
237.475	-13.48
237.692	52.05
237.909	-15.53
238.127	56.15
238.344	52.05
238.562	103.25
238.779	-7.34
238.996	15.19
239.214	-38.06
239.431	15.19
239.648	-5.29
239.865	31.57
240.083	50
240.3	86.87
240.517	78.68
240.735	50
240.952	2.9
241.169	-62.63
241.386	-7.34
241.603	88.92
241.821	4.95
242.038	-68.78
242.255	41.81
242.472	-3.24
242.689	19.29
242.907	37.72
243.124	-3.24
243.341	-17.58
243.558	17.24
243.775	13.14
243.992	-5.29
244.209	95.06
244.426	90.96
244.643	33.62
244.86	13.14
245.078	19.29
245.295	13.14
245.512	27.48
245.729	2.9
245.946	68.44
246.163	-23.72
246.38	68.44
246.597	23.38
246.814	-15.53
247.031	-3.24
247.248	39.76
247.464	60.24
247.681	35.67
247.898	-7.34
248.115	13.14
248.332	29.52
248.549	33.62
248.766	64.34
248.983	66.39
249.2	21.33
249.417	50
249.633	84.82
249.85	76.63
250.067	-27.82
250.284	66.39
250.501	-29.87
250.717	31.57
250.934	88.92
251.151	11.09
251.368	-25.77
251.585	111.44
251.801	33.62
252.018	35.67
252.235	0.85
252.451	0.85
252.668	25.43
252.885	-7.34
253.102	29.52
253.318	25.43
253.535	17.24
253.752	33.62
253.968	4.95
254.185	-5.29
254.401	21.33
254.618	-54.44
254.835	25.43
255.051	29.52
255.268	95.06
255.484	-3.24
255.701	107.35
255.917	11.09
256.134	17.24
256.351	74.58
256.567	76.63
256.784	2.9
257	-13.48
257.217	-11.43
257.433	127.83
257.65	29.52
257.866	31.57
258.082	-21.67
258.299	9.05
258.515	68.44
258.732	-23.72
258.948	7
259.165	-17.58
259.381	25.43
259.597	74.58
259.814	-5.29
260.03	35.67
260.246	72.53
260.463	19.29
260.679	121.68
260.895	125.78
261.112	93.01
261.328	-3.24
261.544	-9.39
261.761	103.25
261.977	39.76
262.193	76.63
262.409	86.87
262.626	7
262.842	19.29
263.058	45.91
263.274	82.77
263.49	70.48
263.707	47.96
263.923	105.3
264.139	-54.44
264.355	31.57
264.571	0.85
264.787	13.14
265.004	45.91
265.22	84.82
265.436	70.48
265.652	29.52
265.868	25.43
266.084	80.72
266.3	33.62
266.516	-3.24
266.732	37.72
266.948	86.87
267.164	45.91
267.38	64.34
267.596	13.14
267.812	43.86
268.028	11.09
268.244	74.58
268.46	37.72
268.676	27.48
268.892	-3.24
269.108	-44.2
269.324	62.29
269.54	7
269.756	58.2
269.972	-31.91
270.188	29.52
270.403	-46.25
270.619	88.92
270.835	-3.24
271.051	-9.39
271.267	-19.63
271.483	86.87
271.698	21.33
271.914	37.72
272.13	7
272.346	62.29
272.562	50
272.777	166.74
272.993	54.1
273.209	15.19
273.425	27.48
273.64	-29.87
273.856	-15.53
274.072	17.24
274.287	35.67
274.503	62.29
274.719	31.57
274.934	78.68
275.15	25.43
275.366	33.62
275.581	-13.48
275.797	64.34
276.012	68.44
276.228	54.1
276.444	41.81
276.659	2.9
276.875	7
277.09	21.33
277.306	-29.87
277.521	54.1
277.737	-3.24
277.952	17.24
278.168	9.05
278.383	-15.53
278.599	0.85
278.814	27.48
279.03	23.38
279.245	21.33
279.461	76.63
279.676	90.96
279.892	45.91
280.107	62.29
280.322	4.95
280.538	27.48
280.753	-11.43
280.969	37.72
281.184	90.96
281.399	60.24
281.615	111.44
281.83	52.05
282.045	35.67
282.26	2.9
282.476	0.85
282.691	-9.39
282.906	70.48
283.122	13.14
283.337	62.29
283.552	54.1
283.767	-36.01
283.983	115.54
284.198	-21.67
284.413	60.24
284.628	-38.06
284.843	7
285.058	45.91
285.274	31.57
285.489	66.39
285.704	50
285.919	-29.87
286.134	27.48
286.349	35.67
286.564	43.86
286.779	33.62
286.995	64.34
287.21	9.05
287.425	37.72
287.64	45.91
287.855	13.14
288.07	33.62
288.285	0.85
288.5	15.19
288.715	52.05
288.93	107.35
289.145	60.24
289.36	47.96
289.575	39.76
289.79	27.48
290.004	72.53
290.219	15.19
290.434	52.05
290.649	37.72
290.864	41.81
291.079	17.24
291.294	15.19
291.509	7
291.724	-42.15
291.938	4.95
292.153	64.34
292.368	52.05
292.583	25.43
292.798	72.53
293.012	25.43
293.227	62.29
293.442	-42.15
293.657	-29.87
293.871	7
294.086	62.29
294.301	119.64
294.516	21.33
294.73	136.02
294.945	29.52
295.16	35.67
295.374	-21.67
295.589	35.67
295.804	33.62
296.018	2.9
296.233	43.86
296.447	-3.24
296.662	47.96
296.877	47.96
297.091	37.72
297.306	-29.87
297.52	88.92
297.735	-11.43
297.949	19.29
298.164	60.24
298.378	68.44
298.593	-19.63
298.807	9.05
299.022	52.05
299.236	84.82
299.451	86.87
299.665	-1.19
299.88	70.48
300.094	21.33
300.309	23.38
300.523	2.9
300.737	50
300.952	11.09
301.166	39.76
301.381	43.86
301.595	52.05
301.809	-5.29
302.024	76.63
302.238	0.85
302.452	97.11
302.667	35.67
302.881	-9.39
303.095	35.67
303.309	27.48
303.524	13.14
303.738	88.92
303.952	-17.58
304.166	7
304.381	29.52
304.595	43.86
304.809	70.48
305.023	43.86
305.237	7
305.452	64.34
305.666	29.52
305.88	41.81
306.094	78.68
306.308	41.81
306.522	58.2
306.736	84.82
306.95	-15.53
307.164	93.01
307.379	-19.63
307.593	84.82
307.807	33.62
308.021	33.62
308.235	76.63
308.449	-44.2
308.663	70.48
308.877	101.2
309.091	47.96
309.305	52.05
309.519	-13.48
309.733	129.88
309.947	-40.11
310.161	95.06
310.374	101.2
310.588	60.24
310.802	17.24
311.016	15.19
311.23	7
311.444	39.76
311.658	0.85
311.872	-7.34
312.085	43.86
312.299	35.67
312.513	56.15
312.727	62.29
312.941	-27.82
313.154	60.24
313.368	-5.29
313.582	60.24
313.796	27.48
314.009	-19.63
314.223	25.43
314.437	52.05
314.651	78.68
314.864	2.9
315.078	11.09
315.292	-13.48
315.505	-21.67
315.719	41.81
315.933	27.48
316.146	13.14
316.36	2.9
316.573	-52.39
316.787	31.57
317.001	-44.2
317.214	27.48
317.428	41.81
317.641	86.87
317.855	33.62
318.068	35.67
318.282	101.2
318.495	47.96
318.709	23.38
318.922	43.86
319.136	21.33
319.349	58.2
319.563	60.24
319.776	82.77
319.99	27.48
320.203	47.96
320.417	19.29
320.63	29.52
320.843	99.16
321.057	56.15
321.27	60.24
321.483	39.76
321.697	29.52
321.91	58.2
322.124	25.43
322.337	33.62
322.55	39.76
322.763	74.58
322.977	68.44
323.19	29.52
323.403	52.05
323.617	33.62
323.83	47.96
324.043	-13.48
324.256	29.52
324.469	9.05
324.683	68.44
324.896	29.52
325.109	72.53
325.322	-7.34
325.535	117.59
325.748	-13.48
325.962	-11.43
326.175	93.01
326.388	56.15
326.601	-25.77
326.814	64.34
327.027	25.43
327.24	125.78
327.453	19.29
327.666	41.81
327.879	113.49
328.092	119.64
328.305	76.63
328.518	11.09
328.731	54.1
328.944	43.86
329.157	60.24
329.37	45.91
329.583	64.34
329.796	29.52
330.009	52.05
330.222	119.64
330.435	58.2
330.648	37.72
330.861	50
331.073	35.67
331.286	58.2
331.499	19.29
331.712	74.58
331.925	4.95
332.138	27.48
332.35	58.2
332.563	-15.53
332.776	82.77
332.989	82.77
333.202	66.39
333.414	15.19
333.627	7
333.84	131.92
334.053	29.52
334.265	-50.35
334.478	7
334.691	23.38
334.903	27.48
335.116	70.48
335.329	76.63
335.541	39.76
335.754	113.49
335.966	29.52
336.179	54.1
336.392	-38.06
336.604	31.57
336.817	41.81
337.029	45.91
337.242	15.19
337.454	105.3
337.667	50
337.88	82.77
338.092	50
338.305	84.82
338.517	27.48
338.729	19.29
338.942	37.72
339.154	41.81
339.367	-27.82
339.579	74.58
339.792	9.05
340.004	68.44
340.217	29.52
340.429	54.1
340.641	45.91
340.854	68.44
341.066	80.72
341.278	52.05
341.491	41.81
341.703	117.59
341.915	-5.29
342.128	97.11
342.34	50
342.552	50
342.764	21.33
342.977	-25.77
343.189	50
343.401	60.24
343.613	43.86
343.826	39.76
344.038	88.92
344.25	58.2
344.462	62.29
344.674	-33.96
344.886	33.62
345.099	35.67
345.311	41.81
345.523	70.48
345.735	45.91
345.947	70.48
346.159	31.57
346.371	0.85
346.583	19.29
346.795	103.25
347.007	-23.72
347.219	41.81
347.431	99.16
347.643	35.67
347.855	-5.29
348.067	17.24
348.279	-38.06
348.491	-21.67
348.703	-11.43
348.915	58.2
349.127	17.24
349.339	47.96
349.551	56.15
349.763	133.97
349.975	7
350.187	86.87
350.399	107.35
350.61	43.86
350.822	23.38
351.034	86.87
351.246	23.38
351.458	9.05
351.669	107.35
351.881	58.2
352.093	7
352.305	66.39
352.517	64.34
352.728	109.4
352.94	39.76
353.152	25.43
353.363	-15.53
353.575	-5.29
353.787	107.35
353.999	23.38
354.21	17.24
354.422	13.14
354.633	23.38
354.845	76.63
355.057	66.39
355.268	21.33
355.48	113.49
355.692	47.96
355.903	50
356.115	-23.72
356.326	33.62
356.538	66.39
356.749	80.72
356.961	47.96
357.172	39.76
357.384	11.09
357.595	82.77
357.807	60.24
358.018	23.38
358.23	93.01
358.441	117.59
358.653	37.72
358.864	52.05
359.075	13.14
359.287	45.91
359.498	76.63
359.709	35.67
359.921	11.09
360.132	76.63
360.344	29.52
360.555	101.2
360.766	56.15
360.977	-1.19
361.189	35.67
361.4	109.4
361.611	-15.53
361.823	68.44
362.034	58.2
362.245	43.86
362.456	35.67
362.667	62.29
362.879	31.57
363.09	45.91
363.301	23.38
363.512	13.14
363.723	9.05
363.935	33.62
364.146	39.76
364.357	84.82
364.568	88.92
364.779	-7.34
364.99	41.81
365.201	62.29
365.412	136.02
365.623	-17.58
365.834	37.72
366.045	35.67
366.256	117.59
366.467	97.11
366.678	33.62
366.889	54.1
367.1	29.52
367.311	47.96
367.522	45.91
367.733	7
367.944	13.14
368.155	-42.15
368.366	99.16
368.577	119.64
368.788	76.63
368.999	45.91
369.209	97.11
369.42	13.14
369.631	105.3
369.842	-1.19
370.053	111.44
370.264	50
370.474	-1.19
370.685	23.38
370.896	99.16
371.107	70.48
371.317	31.57
371.528	17.24
371.739	111.44
371.95	52.05
372.16	39.76
372.371	119.64
372.582	64.34
372.792	33.62
373.003	70.48
373.214	39.76
373.424	64.34
373.635	45.91
373.846	99.16
374.056	101.2
374.267	90.96
374.477	33.62
374.688	45.91
374.898	-44.2
375.109	119.64
375.319	76.63
375.53	52.05
375.74	2.9
375.951	43.86
376.161	72.53
376.372	84.82
376.582	29.52
376.793	60.24
377.003	84.82
377.214	25.43
377.424	31.57
377.635	68.44
377.845	58.2
378.055	117.59
378.266	11.09
378.476	78.68
378.686	-19.63
378.897	72.53
379.107	23.38
379.317	39.76
379.528	-1.19
379.738	68.44
379.948	21.33
380.158	33.62
380.369	99.16
380.579	150.36
380.789	72.53
380.999	125.78
381.21	41.81
381.42	54.1
381.63	90.96
381.84	-3.24
382.05	80.72
382.261	50
382.471	86.87
382.681	29.52
382.891	27.48
383.101	66.39
383.311	58.2
383.521	54.1
383.731	72.53
383.941	68.44
384.151	4.95
384.361	90.96
384.571	82.77
384.781	68.44
384.991	56.15
385.201	148.31
385.411	119.64
385.621	39.76
385.831	72.53
386.041	82.77
386.251	54.1
386.461	2.9
386.671	103.25
386.881	72.53
387.091	37.72
387.301	45.91
387.511	45.91
387.72	35.67
387.93	82.77
388.14	54.1
388.35	47.96
388.56	68.44
388.769	27.48
388.979	11.09
389.189	58.2
389.399	56.15
389.609	58.2
389.818	125.78
390.028	115.54
390.238	52.05
390.447	17.24
390.657	144.21
390.867	86.87
391.076	-42.15
391.286	72.53
391.496	80.72
391.705	56.15
391.915	101.2
392.125	123.73
392.334	121.68
392.544	84.82
392.753	123.73
392.963	148.31
393.172	119.64
393.382	66.39
393.591	111.44
393.801	60.24
394.01	125.78
394.22	86.87
394.429	93.01
394.639	15.19
394.848	109.4
395.058	146.26
395.267	146.26
395.477	86.87
395.686	176.98
395.895	74.58
396.105	95.06
396.314	111.44
396.524	60.24
396.733	37.72
396.942	109.4
397.152	142.16
397.361	74.58
397.57	54.1
397.78	107.35
397.989	142.16
398.198	82.77
398.407	74.58
398.617	140.12
398.826	117.59
399.035	176.98
399.244	136.02
399.453	131.92
399.663	181.07
399.872	156.5
400.081	131.92
400.29	164.69
400.499	78.68
400.708	131.92
400.917	113.49
401.127	84.82
401.336	127.83
401.545	179.03
401.754	234.32
401.963	111.44
402.172	90.96
402.381	123.73
402.59	105.3
402.799	131.92
403.008	209.75
403.217	174.93
403.426	142.16
403.635	150.36
403.844	174.93
404.053	187.22
404.262	140.12
404.471	248.66
404.68	150.36
404.888	209.75
405.097	127.83
405.306	136.02
405.515	236.37
405.724	185.17
405.933	211.79
406.142	191.31
406.35	230.23
406.559	244.56
406.768	283.47
406.977	256.85
407.185	172.88
407.394	238.42
407.603	240.47
407.812	267.09
408.02	265.04
408.229	297.81
408.438	228.18
408.646	303.95
408.855	291.66
409.064	326.48
409.272	389.97
409.481	340.82
409.69	404.3
409.898	435.02
410.107	361.3
410.315	373.58
410.524	334.67
410.733	486.22
410.941	459.6
411.15	455.5
411.358	516.94
411.567	492.37
411.775	486.22
411.984	518.99
412.192	592.72
412.401	539.47
412.609	631.63
412.818	602.96
413.026	668.49
413.234	684.87
413.443	723.79
413.651	648.01
413.86	715.59
414.068	809.8
414.276	826.18
414.485	717.64
414.693	754.51
414.901	944.97
415.11	1004.36
415.318	951.11
415.526	1008.45
415.734	1010.5
415.943	1069.89
416.151	1121.09
416.359	1137.48
416.567	1135.43
416.776	1223.49
416.984	1348.42
417.192	1344.32
417.4	1301.31
417.608	1262.4
417.817	1352.51
418.025	1420.1
418.233	1477.44
418.441	1555.26
418.649	1545.02
418.857	1641.28
419.065	1643.32
419.273	1704.76
419.481	1899.32
419.689	1854.27
419.897	1854.27
420.105	2069.3
420.313	2071.35
420.521	2143.03
420.729	2116.41
420.937	2245.43
421.145	2315.06
421.353	2558.77
421.561	2575.15
421.769	2513.71
421.977	2773.8
422.185	2749.23
422.393	2915.11
422.601	3064.61
422.809	2976.55
423.017	3089.19
423.224	3195.68
423.432	3382.05
423.64	3412.77
423.848	3572.51
424.056	3500.83
424.263	3887.9
424.471	3848.99
424.679	3881.75
424.887	4182.81
425.094	4352.79
425.302	4215.57
425.51	4418.32
425.718	4612.88
425.925	4643.6
426.133	4872.97
426.341	4991.75
426.548	5274.37
426.756	5432.07
426.964	5301
427.171	5692.16
427.379	5960.44
427.586	5812.99
427.794	6068.98
428.001	6435.57
428.209	6603.5
428.417	6652.66
428.624	6834.93
428.832	6939.37
429.039	6970.09
429.247	7013.1
429.454	7697.12
429.662	8149.72
429.869	7543.52
430.076	8209.11
430.284	7903.96
430.491	8162.01
430.699	8643.28
430.906	8684.24
431.114	8970.96
431.321	9218.76
431.528	9464.52
431.736	9843.39
431.943	10158.78
432.15	10265.27
432.358	10224.31
432.565	10724.02
432.772	10672.82
432.979	11305.64
433.187	11614.88
433.394	11535.01
433.601	12329.63
433.808	12376.73
434.016	12257.95
434.223	12927.63
434.43	13683.33
434.637	13171.34
434.844	14002.82
435.052	14379.64
435.259	14348.92
435.466	14609.01
435.673	14097.02
435.88	15280.75
436.087	16190.05
436.294	15911.52
436.501	15862.37
436.708	16147.04
436.915	16800.34
437.122	17326.67
437.329	17060.43
437.537	17891.91
437.743	17820.23
437.95	17932.87
438.157	18872.89
438.364	19485.23
438.571	19405.36
438.778	19575.34
438.985	21402.13
439.192	20572.7
439.399	21072.4
439.606	20724.25
439.813	21711.37
440.02	22901.24
440.227	22821.37
440.433	22741.5
440.64	23464.43
440.847	23196.15
441.054	23816.68
441.261	25344.47
441.467	25018.84
441.674	25663.95
441.881	26503.62
442.088	26173.89
442.294	26399.17
442.501	26853.82
442.708	27464.11
442.914	28275.11
443.121	29565.33
443.328	28686.75
443.534	31111.55
443.741	30038.41
443.948	29471.12
444.154	31879.53
444.361	31512.95
444.568	31703.41
444.774	31947.12
444.981	32366.95
445.187	32897.38
445.394	34191.69
445.6	33847.63
445.807	37079.33
446.013	35703.09
446.22	36466.98
446.426	37288.22
446.633	37679.38
446.839	39117.06
447.046	37808.4
447.252	39543.03
447.459	39678.2
447.665	39287.04
447.871	41214.18
448.078	42936.52
448.284	40906.98
448.491	41812.18
448.697	43555
448.903	44069.04
449.11	44388.53
449.316	43911.35
449.522	44611.76
449.728	45240.48
449.935	45762.72
450.141	45623.45
450.347	46993.54
450.553	45177
450.76	45799.58
450.966	47198.34
451.172	46819.47
451.378	48130.17
451.584	46811.28
451.791	47933.56
451.997	47908.99
452.203	48689.26
452.409	49000.55
452.615	48023.67
452.821	46844.04
453.027	46219.41
453.233	48965.74
453.44	46913.67
453.646	47454.34
453.852	47040.65
454.058	48302.2
454.264	45918.36
454.47	47591.55
454.676	46395.54
454.882	47753.34
455.088	43782.33
455.294	44208.31
455.5	44718.25
455.705	45432.99
455.911	43493.57
456.117	42774.73
456.323	42166.48
456.529	39848.18
456.735	41494.75
456.941	40263.92
457.147	39872.76
457.352	38844.68
457.558	38666.5
457.764	38277.39
457.97	37728.53
458.176	36792.61
458.381	36755.75
458.587	34818.37
458.793	35156.28
458.999	33055.07
459.204	35531.06
459.41	34007.37
459.616	32174.44
459.821	32172.39
460.027	32070
460.233	31510.9
460.438	29512.08
460.644	30288.26
460.85	28979.61
461.055	28047.79
461.261	28322.21
461.466	26163.65
461.672	25387.47
461.878	27324.85
462.083	25137.62
462.289	24865.24
462.494	24629.73
462.7	23480.82
462.905	22864.38
463.111	23519.73
463.316	23978.47
463.522	23130.61
463.727	23478.77
463.932	23321.07
464.138	23077.37
464.343	23095.8
464.549	22354.43
464.754	23101.94
464.959	22843.9
465.165	22866.42
465.37	21811.72
465.575	21080.6
465.781	22174.21
465.986	22419.97
466.191	21385.74
466.397	20732.44
466.602	19911.21
466.807	20681.24
467.012	20736.54
467.218	20707.87
467.423	20630.04
467.628	20333.09
467.833	21246.48
468.038	20363.81
468.244	19956.26
468.449	20810.26
468.654	19847.72
468.859	20025.89
469.064	19905.06
469.269	18885.17
469.474	18950.71
469.679	19518
469.885	18999.86
470.09	19272.24
470.295	19139.12
470.5	18547.26
470.705	18750.01
470.91	18438.72
471.115	18051.65
471.32	18348.61
471.525	18235.97
471.73	18006.59
471.935	17812.04
472.139	17244.75
472.344	17345.1
472.549	17189.46
472.754	17066.58
472.959	16697.94
473.164	16319.07
473.369	16280.16
473.574	16759.38
473.778	16271.97
473.983	16388.7
474.188	16288.35
474.393	15534.7
474.598	15676.01
474.802	15399.53
475.007	15299.18
475.212	15440.49
475.417	14944.88
475.621	14676.6
475.826	14922.35
476.031	14486.14
476.235	14281.34
476.44	14412.41
476.645	13978.24
476.849	14301.82
477.054	14176.89
477.259	13800.07
477.463	13908.61
477.668	13558.41
477.872	13589.13
478.077	13378.19
478.282	13193.87
478.486	12956.3
478.691	12843.67
478.895	12784.27
479.1	12769.94
479.304	12956.3
479.509	12268.19
479.713	12657.3
479.918	12362.39
480.122	12243.61
480.326	12444.31
480.531	12503.7
480.735	12200.6
480.94	12173.98
481.144	12640.92
481.348	11922.08
481.553	12120.73
481.757	11696.8
481.961	12040.86
482.166	12004
482.37	12026.53
482.574	11748
482.778	12008.09
482.983	11877.02
483.187	11752.1
483.391	11958.94
483.595	11817.63
483.8	11614.88
484.004	11553.45
484.208	11829.92
484.412	11848.35
484.616	11791.01
484.821	12024.48
485.025	11580.07
485.229	11756.19
485.433	11645.6
485.637	11780.77
485.841	11592.36
486.045	11842.21
486.249	11807.39
486.453	11858.59
486.657	11578.02
486.861	11791.01
487.065	11383.46
487.269	11942.56
487.473	11784.87
487.677	11692.71
487.881	12042.91
488.085	11709.09
488.289	11903.65
488.493	11637.41
488.697	11868.83
488.901	11899.55
489.105	11815.59
489.309	12051.1
489.512	11860.64
489.716	12020.38
489.92	11868.83
490.124	12034.72
490.328	12282.52
490.531	12018.33
490.735	12112.54
490.939	11977.37
491.143	12073.63
491.346	11920.03
491.55	12391.06
491.754	12458.65
491.958	12563.09
492.161	12173.98
492.365	12321.43
492.569	12139.16
492.772	12475.03
492.976	12493.46
493.18	12395.16
493.383	12731.03
493.587	12876.43
493.79	13230.73
493.994	12610.2
494.197	13109.9
494.401	12823.19
494.605	13240.97
494.808	13183.63
495.012	13406.86
495.215	13343.37
495.419	13591.17
495.622	13361.8
495.825	13554.31
496.029	13673.09
496.232	13912.71
496.436	13613.7
496.639	14297.72
496.843	14123.65
497.046	14353.02
497.249	14525.05
497.453	14527.1
497.656	14629.49
497.859	14545.53
498.063	14965.36
498.266	15086.19
498.469	15395.43
498.673	15221.36
498.876	15614.57
499.079	15917.67
499.282	15565.42
499.485	15985.25
499.689	16106.08
499.892	16378.46
500.095	16497.24
500.298	17003.09
500.501	16601.69
500.705	17140.3
500.908	17345.1
501.111	17533.51
501.314	17461.83
501.517	17908.29
501.72	17947.2
501.923	17779.27
502.126	18426.43
502.329	18569.79
502.532	18899.51
502.735	19008.05
502.938	19280.43
503.141	19161.65
503.344	19632.68
503.547	19313.2
503.75	19903.01
503.953	20419.1
504.156	20122.15
504.359	20431.39
504.562	20630.04
504.765	20810.26
504.968	21375.5
505.17	21434.89
505.373	21291.54
505.576	21895.69
505.779	22065.67
505.982	22229.51
506.185	22540.8
506.387	22997.49
506.59	22899.19
506.793	23331.31
506.996	23448.05
507.198	24142.31
507.401	23861.74
507.604	24257
507.807	24515.04
508.009	24916.44
508.212	24916.44
508.415	25067.99
508.617	25293.27
508.82	25416.15
509.022	25627.09
509.225	26046.92
509.428	26216.9
509.63	26517.95
509.833	26520
510.035	27257.27
510.238	27312.56
510.44	27580.85
510.643	27994.54
510.845	28047.79
511.048	27720.11
511.25	28608.93
511.453	28553.63
511.655	29620.63
511.858	29204.89
512.06	29309.33
512.262	29649.3
512.465	29747.6
512.667	30142.86
512.87	30454.15
513.072	30695.81
513.274	31021.44
513.477	31416.69
513.679	31758.7
513.881	31857.01
514.084	32543.08
514.286	32237.93
514.488	32575.84
514.69	33280.35
514.893	33364.31
515.095	33605.97
515.297	34179.4
515.499	33778
515.701	34273.61
515.904	34752.84
516.106	34883.91
516.308	35363.13
516.51	35531.06
516.712	35842.35
516.914	35987.76
517.116	36534.57
517.318	36272.43
517.52	36847.91
517.722	36743.46
517.925	37017.89
518.127	38207.76
518.329	37771.54
518.531	37986.58
518.733	38576.39
518.935	38492.43
519.136	38965.51
519.338	39078.15
519.54	39391.48
519.742	39950.58
519.944	39917.81
520.146	40532.2
520.348	40829.16
520.55	40716.52
520.752	41085.15
520.954	41724.12
521.155	41103.59
521.357	42373.33
521.559	42639.56
521.761	42631.37
521.963	42602.7
522.164	42881.22
522.366	43086.02
522.568	43509.95
522.77	43671.74
522.971	44216.5
523.173	43739.32
523.375	44478.64
523.576	44499.12
523.778	44671.15
523.98	45484.19
524.181	45097.13
524.383	45080.74
524.584	45502.62
524.786	45564.06
524.988	45688.99
525.189	45955.22
525.391	46176.4
525.592	46620.81
525.794	46852.23
525.995	46549.14
526.197	46669.97
526.398	46956.68
526.6	47235.2
526.801	46991.5
527.003	47655.04
527.204	47728.77
527.406	48038.01
527.607	47804.54
527.808	48089.21
528.01	47286.4
528.211	48097.4
528.412	49018.99
528.614	48552.05
528.815	48355.44
529.016	48660.59
529.218	48400.5
529.419	48586.86
529.62	48793.71
529.822	48593.01
530.023	48863.34
530.224	48896.11
530.425	48719.98
530.626	48470.13
530.828	48597.1
531.029	49547.36
531.23	49006.7
531.431	49035.37
531.632	49449.06
531.833	49485.92
532.035	49293.41
532.236	49248.36
532.437	49490.02
532.638	49137.77
532.839	49367.14
533.04	49789.02
533.241	49092.71
533.442	49490.02
533.643	49553.51
533.844	49379.43
534.045	49926.24
534.246	49072.23
534.447	49686.62
534.648	49236.07
534.849	49479.78
535.05	49074.28
535.251	49530.98
535.451	49502.31
535.652	49567.84
535.853	49590.37
536.054	49682.53
536.255	49432.68
536.456	48883.82
536.657	50036.83
536.857	49332.32
537.058	49393.76
537.259	49637.47
537.46	49477.73
537.66	49313.89
537.861	49565.79
538.062	48941.16
538.263	49307.75
538.463	49072.23
538.664	49090.66
538.865	49207.4
539.065	49578.08
539.266	49031.27
539.466	49774.69
539.667	48640.11
539.868	49311.84
540.068	48900.2
540.269	48709.74
540.469	48939.11
540.67	48580.72
540.87	49100.9
541.071	48961.64
541.271	48881.77
541.472	49023.08
541.672	48740.46
541.873	48906.35
542.073	48523.38
542.274	49125.48
542.474	48506.99
542.675	48525.42
542.875	49199.21
543.075	48490.61
543.276	48089.21
543.476	48679.02
543.676	48179.32
543.877	49119.34
544.077	48363.64
544.277	48414.83
544.478	48435.31
544.678	49100.9
544.878	48285.81
545.078	48279.67
545.279	48345.2
545.479	48334.96
545.679	48642.16
545.879	48402.55
546.079	48597.1
546.28	48461.94
546.48	47607.93
546.68	47962.23
546.88	48382.07
547.08	48224.37
547.28	48167.03
547.48	47964.28
547.68	48078.97
547.88	47773.82
548.081	48382.07
548.281	48130.17
548.481	47777.92
548.681	48558.19
548.881	47880.31
549.081	47913.08
549.28	47997.05
549.48	48279.67
549.68	47974.52
549.88	48294
550.08	47765.63
550.28	48150.65
550.48	47868.03
550.68	48169.08
550.88	47804.54
551.08	47878.27
551.279	47681.66
551.479	48070.78
551.679	47495.3
551.879	47474.82
552.079	47935.61
552.278	47296.64
552.478	47571.07
552.678	47566.98
552.878	47925.37
553.077	47718.53
553.277	46913.67
553.477	48058.49
553.676	47347.84
553.876	47171.72
554.076	47102.09
554.275	47278.21
554.475	47460.48
554.674	47392.9
554.874	47419.52
555.074	46805.13
555.273	47034.5
555.473	47503.49
555.672	46647.44
555.872	46909.58
556.071	46885
556.271	47022.22
556.47	46915.72
556.67	46540.94
556.869	46700.68
557.068	46983.3
557.268	46469.26
557.467	46319.76
557.667	46811.28
557.866	46454.93
558.065	46598.29
558.265	46213.27
558.464	46223.51
558.663	46696.59
558.863	45723.8
559.062	46829.71
559.261	45703.32
559.461	46739.6
559.66	45668.51
559.859	46303.38
560.058	45496.48
560.258	45844.63
560.457	45557.92
560.656	45996.18
560.855	45441.18
561.054	45957.27
561.253	45164.71
561.453	45660.32
561.652	45332.64
561.851	45797.53
562.05	45342.88
562.249	45000.87
562.448	45725.85
562.647	45279.39
562.846	45047.97
563.045	45385.89
563.244	45025.45
563.443	45525.15
563.642	44804.27
563.841	45101.22
564.04	44622
564.239	45211.81
564.438	44548.27
564.637	45146.28
564.836	44847.27
565.035	44148.92
565.234	44322.99
565.432	44439.73
565.631	44484.78
565.83	44232.88
566.029	43684.03
566.228	44251.31
566.427	44148.92
566.625	43839.67
566.824	43530.43
567.023	43866.3
567.222	43028.68
567.42	43976.89
567.619	43901.11
567.818	43149.51
568.016	43186.37
568.215	43303.1
568.414	43210.95
568.612	43499.71
568.811	42995.91
569.01	43223.23
569.208	42422.48
569.407	43342.02
569.605	42346.7
569.804	43231.43
570.002	42725.58
570.201	42830.02
570.4	42381.52
570.598	42367.18
570.797	42248.4
570.995	42207.44
571.193	41965.78
571.392	42500.3
571.59	41867.48
571.789	41806.04
571.987	41638.11
572.186	41597.15
572.384	41724.12
572.582	41566.43
572.781	41142.5
572.979	40782.06
573.177	41662.68
573.376	41388.25
573.574	40489.2
573.772	41156.83
573.971	41068.77
574.169	40796.39
574.367	40345.84
574.565	40718.57
574.763	40579.31
574.962	40368.37
575.16	39942.39
575.358	39831.8
575.556	39991.54
575.754	40524.01
575.952	39627
576.151	40333.55
576.349	39588.09
576.547	39491.83
576.745	39850.23
576.943	39844.09
577.141	39663.86
577.339	39700.73
577.537	39295.23
577.735	39235.84
577.933	38863.11
578.131	39072
578.329	38805.77
578.527	38545.67
578.725	39010.56
578.923	38666.5
579.121	38250.77
579.319	38328.59
579.516	38566.15
579.714	38676.74
579.912	38314.25
580.11	38033.68
580.308	38033.68
580.506	37914.9
580.704	37746.97
580.901	38103.31
581.099	37927.19
581.297	37550.36
581.495	37189.92
581.692	37593.37
581.89	37161.25
582.088	37474.59
582.285	37128.48
582.483	37245.21
582.681	36929.83
582.878	36878.63
583.076	36598.05
583.274	36882.72
583.471	36337.96
583.669	36954.4
583.866	36653.35
584.064	36190.51
584.262	35897.65
584.459	36307.24
584.657	35940.66
584.854	36122.93
585.052	35490.1
585.249	35451.19
585.447	35858.74
585.644	35434.81
585.841	35518.78
586.039	35735.86
586.236	35166.52
586.434	35285.31
586.631	34994.5
586.828	35111.23
587.026	35168.57
587.223	35293.5
587.42	34654.53
587.618	34781.51
587.815	34298.19
588.012	34568.52
588.21	34376.01
588.407	34679.11
588.604	34404.68
588.801	34103.63
588.999	34171.21
589.196	33646.93
589.393	34130.25
589.59	33683.8
589.787	33720.66
589.984	33653.08
590.182	33061.21
590.379	33642.84
590.576	33106.27
590.773	33284.44
590.97	32876.9
591.167	33012.06
591.364	32698.72
591.561	33132.89
591.758	32584.04
591.955	32477.54
592.152	33091.93
592.349	32217.45
592.546	32510.31
592.743	32436.58
592.94	32158.06
593.137	32117.1
593.334	32252.27
593.531	31766.9
593.727	32164.2
593.924	31848.82
594.121	31469.94
594.318	31803.76
594.515	31199.61
594.712	31523.19
594.908	31183.23
595.105	31318.39
595.302	30765.44
595.499	31070.59
595.696	30724.48
595.892	31033.72
596.089	30892.41
596.286	30550.4
596.482	30773.63
596.679	30480.77
596.876	30462.34
597.072	30183.82
597.269	30513.54
597.466	30200.2
597.662	30177.67
597.859	29952.4
598.055	29895.05
598.252	29755.79
598.448	30091.66
598.645	29430.16
598.841	29518.23
599.038	29450.64
599.234	29505.94
599.431	29315.48
599.627	28950.94
599.824	29223.32
600.02	28823.97
600.217	28959.13
600.413	28881.31
600.609	28768.67
600.806	28596.64
601.002	28557.73
601.198	28705.18
601.395	28418.47
601.591	28377.51
601.787	28268.97
601.984	28207.53
602.18	28311.97
602.376	28033.45
602.572	27924.91
602.769	27904.43
602.965	27533.75
603.161	27931.05
603.357	27269.56
603.553	27505.07
603.75	27462.07
603.946	27568.56
604.142	27410.87
604.338	27021.75
604.534	27177.4
604.73	26778.04
604.926	26814.91
605.122	27052.47
605.318	26726.85
605.514	26526.14
605.71	26495.43
605.906	26573.25
606.102	26448.32
606.298	26462.66
606.494	26499.52
606.69	26433.99
606.886	26395.07
607.082	26251.72
607.278	26288.58
607.474	25526.74
607.67	25866.7
607.866	25729.48
608.062	26051.02
608.257	25903.56
608.453	25844.17
608.649	25815.5
608.845	25422.29
609.041	25651.66
609.236	25541.07
609.432	25414.1
609.628	25383.38
609.824	25063.89
610.019	24920.54
610.215	25078.23
610.411	25051.61
610.606	25180.63
610.802	25381.33
610.998	25049.56
611.193	25043.42
611.389	24766.94
611.584	24902.11
611.78	24678.88
611.976	24672.73
612.171	24777.18
612.367	24736.22
612.562	24586.72
612.758	24343.01
612.953	24381.92
613.149	24820.19
613.344	24324.58
613.539	24791.52
613.735	24111.59
613.93	24185.32
614.126	24312.29
614.321	24635.87
614.517	24304.1
614.712	23779.82
614.907	23859.69
615.103	24396.26
615.298	23841.26
615.493	24381.92
615.688	23466.48
615.884	24144.36
616.079	23568.88
616.274	23874.03
616.47	23673.32
616.665	23697.9
616.86	23353.84
617.055	23560.69
617.25	23740.91
617.445	23714.28
617.641	23046.65
617.836	23429.62
618.031	23013.88
618.226	23462.38
618.421	22987.25
618.616	23433.71
618.811	22802.94
619.006	23329.27
619.201	22415.87
619.396	22589.95
619.591	22368.77
619.786	22499.84
619.981	22137.35
620.176	22434.3
620.371	22071.81
620.566	22217.22
620.761	22026.76
620.956	22026.76
621.151	21776.91
621.346	21875.21
621.541	21627.4
621.735	21678.6
621.93	21404.17
622.125	21432.85
622.32	20957.72
622.515	21166.61
622.709	20922.9
622.904	20800.02
623.099	20949.53
623.294	20883.99
623.488	20474.4
623.683	20716.06
623.878	20191.78
624.072	20324.9
624.267	19962.4
624.462	19935.78
624.656	19948.07
624.851	20027.94
625.046	19530.28
625.24	19718.7
625.435	19499.56
625.629	19601.96
625.824	19376.69
626.018	19063.35
626.213	18809.4
626.407	18999.86
626.602	18795.06
626.796	18967.09
626.991	19053.11
627.185	18520.63
627.38	18557.5
627.574	18446.91
627.768	18272.83
627.963	18346.56
628.157	18354.75
628.352	17951.3
628.546	17945.16
628.74	17797.7
628.935	17717.83
629.129	17652.3
629.323	17613.38
629.517	17402.44
629.712	17482.31
629.906	17545.8
630.1	17087.06
630.294	17195.6
630.489	16867.92
630.683	16755.29
630.877	16659.03
631.071	16872.02
631.265	16693.85
631.459	16534.11
631.653	16218.72
631.848	16317.02
632.042	16247.39
632.236	16200.29
632.43	15946.34
632.624	16165.47
632.818	16112.22
633.012	15919.71
633.206	15780.45
633.4	15733.35
633.594	15620.71
633.788	15665.77
633.982	15522.41
634.176	15331.95
634.369	15223.41
634.563	15180.4
634.757	15078
634.951	15204.97
635.145	15129.2
635.339	14922.35
635.533	14813.81
635.726	15000.18
635.92	14654.07
636.114	14379.64
636.308	14496.38
636.501	14549.62
636.695	14404.22
636.889	14334.59
637.083	14367.35
637.276	14054.01
637.47	14183.04
637.664	13779.59
637.857	13859.46
638.051	14017.15
638.244	13951.62
638.438	13728.39
638.632	13697.67
638.825	13521.54
639.019	13589.13
639.212	13435.53
639.406	13382.28
639.599	13240.97
639.793	13245.07
639.986	13161.1
640.18	13148.81
640.373	13060.75
640.567	12728.98
640.76	13097.61
640.954	12706.45
641.147	12704.4
641.34	12477.08
641.534	12595.86
641.727	12401.3
641.92	12434.07
642.114	12307.1
642.307	12358.3
642.5	12061.34
642.694	11948.7
642.887	12294.81
643.08	12116.64
643.273	11969.18
643.467	12067.49
643.66	11817.63
643.853	11858.59
644.046	11565.73
644.239	11762.34
644.432	11584.16
644.626	11477.67
644.819	11492.01
645.012	11350.7
645.205	11479.72
645.398	11520.68
645.591	11178.67
645.784	11309.74
645.977	11086.51
646.17	11076.27
646.363	10969.77
646.556	10975.92
646.749	10883.76
646.942	10820.27
647.135	10703.54
647.328	10920.62
647.521	10707.63
647.714	10574.52
647.907	10408.63
648.099	10508.98
648.292	10341.05
648.485	10369.72
648.678	10242.75
648.871	10050.24
649.064	10042.04
649.256	10433.21
649.449	10095.29
649.642	10042.04
649.835	10109.63
650.027	10048.19
650.22	9953.98
650.413	9935.55
650.605	9915.07
650.798	9579.2
650.991	9538.24
651.183	9507.52
651.376	9214.66
651.568	9431.75
651.761	9704.13
651.954	9282.25
652.146	9411.27
652.339	9312.97
652.531	9310.92
652.724	9112.27
652.916	9122.51
653.109	9050.83
653.301	9200.33
653.494	9071.31
653.686	8823.5
653.879	9036.49
654.071	8905.42
654.263	8721.1
654.456	8868.56
654.648	8872.65
654.84	8622.8
655.033	8696.53
655.225	8628.95
655.417	8698.58
655.61	8612.56
655.802	8553.17
655.994	8426.2
656.186	8418
656.379	8207.06
656.571	8282.84
656.763	8162.01
656.955	8356.57
657.148	8383.19
657.34	8364.76
657.532	8000.22
657.724	8043.23
657.916	7949.02
658.108	8035.03
658.3	8002.27
658.492	7969.5
658.684	7699.17
658.876	7908.06
659.068	7736.03
659.26	7686.88
659.452	7600.87
659.644	7656.16
659.836	7355.11
660.028	7533.28
660.22	7516.9
660.412	7588.58
660.604	7285.48
660.796	7357.16
660.988	7477.99
661.18	7156.46
661.372	7076.59
661.563	7449.32
661.755	7156.46
661.947	7230.18
662.139	7072.49
662.331	7095.02
662.522	7045.87
662.714	6916.84
662.906	7072.49
663.097	6902.51
663.289	6777.58
663.481	6771.44
663.673	6773.49
663.864	6599.41
664.056	6707.95
664.247	6777.58
664.439	6570.74
664.631	6583.02
664.822	6605.55
665.014	6544.11
665.205	6486.77
665.397	6494.96
665.588	6509.3
665.78	6367.99
665.971	6349.56
666.163	6413.04
666.354	6347.51
666.546	6376.18
666.737	6304.5
666.929	6277.88
667.12	6337.27
667.311	6212.34
667.503	6122.23
667.694	6136.57
667.885	6241.01
668.077	6126.33
668.268	5890.81
668.459	5925.63
668.651	6052.6
668.842	6023.93
669.033	5995.26
669.224	5788.41
669.416	5901.05
669.607	5896.96
669.798	5798.65
669.989	5765.89
670.18	5858.04
670.371	5546.75
670.563	5790.46
670.754	5745.41
670.945	5640.96
671.136	5765.89
671.327	5509.89
671.518	5563.14
671.709	5626.62
671.9	5614.34
672.091	5552.9
672.282	5608.19
672.473	5397.25
672.664	5460.74
672.855	5423.87
673.046	5319.43
673.237	5319.43
673.428	5485.31
673.619	5382.92
673.809	5319.43
674	5145.35
674.191	5149.45
674.382	5241.61
674.573	5174.02
674.764	5204.74
674.954	5161.73
675.145	5243.65
675.336	5141.25
675.527	4952.84
675.717	5155.59
675.908	5114.63
676.099	5073.67
676.289	4952.84
676.48	5020.42
676.671	4920.07
676.861	5094.15
677.052	4842.25
677.243	4911.88
677.433	5001.99
677.624	5049.1
677.814	4983.56
678.005	4942.6
678.195	4815.63
678.386	4786.96
678.576	4682.51
678.767	4782.86
678.957	4698.89
679.148	4780.81
679.338	4717.33
679.529	4891.4
679.719	4633.36
679.909	4887.31
680.1	4795.15
680.29	4651.79
680.481	4629.26
680.671	4782.86
680.861	4721.42
681.052	4641.55
681.242	4635.41
681.432	4698.89
681.622	4727.57
681.813	4682.51
682.003	4584.21
682.193	4549.39
682.383	4580.11
682.573	4551.44
682.764	4545.3
682.954	4643.6
683.144	4506.38
683.334	4473.62
683.524	4426.51
683.714	4373.27
683.904	4469.52
684.094	4430.61
684.284	4446.99
684.474	4639.5
684.664	4424.47
684.854	4526.86
685.044	4311.83
685.234	4256.53
685.424	4387.6
685.614	4252.44
685.804	4270.87
685.994	4170.52
686.184	4266.77
686.374	4207.38
686.564	4277.01
686.753	4375.31
686.943	4119.32
687.133	4078.36
687.323	4123.41
687.513	4160.28
687.702	4154.13
687.892	3910.43
688.082	4074.26
688.272	4074.26
688.461	4037.4
688.651	4133.65
688.841	4012.82
689.03	4096.79
689.22	3967.77
689.41	3836.7
689.599	3818.27
689.789	3994.39
689.979	3887.9
690.168	3984.15
690.358	3814.17
690.547	3846.94
690.737	3879.71
690.926	3758.88
691.116	3629.85
691.305	3773.21
691.495	3814.17
691.684	3779.36
691.874	3719.96
692.063	3826.46
692.252	3703.58
692.442	3695.39
692.631	3715.87
692.82	3717.92
693.01	3654.43
693.199	3629.85
693.388	3523.36
693.578	3683.1
693.767	3482.4
693.956	3506.98
694.146	3476.26
694.335	3468.06
694.524	3517.22
694.713	3449.63
694.902	3478.3
695.092	3445.54
695.281	3408.67
695.47	3484.45
695.659	3382.05
695.848	3498.78
696.037	3410.72
696.226	3425.06
696.415	3347.23
696.604	3347.23
696.793	3492.64
696.982	3449.63
697.171	3429.15
697.36	3482.4
697.549	3355.43
697.738	3400.48
697.927	3236.64
698.116	3562.27
698.305	3353.38
698.494	3400.48
698.683	3306.27
698.872	3336.99
699.061	3322.66
699.25	3240.74
699.438	3293.99
699.627	3267.36
699.816	3199.78
700.005	3267.36
700.193	3269.41
700.382	3320.61
700.571	3279.65
700.76	3328.8
700.948	3332.9
701.137	3230.5
701.326	3244.84
701.514	3384.1
701.703	3212.07
701.892	3099.43
702.08	3232.55
702.269	3328.8
702.457	3293.99
702.646	3265.32
702.834	3216.16
703.023	3283.75
703.212	3250.98
703.4	3240.74
703.589	3156.77
703.777	3314.47
703.965	3232.55
704.154	3230.5
704.342	3300.13
704.531	3285.8
704.719	3314.47
704.907	3293.99
705.096	3257.12
705.284	3158.82
705.472	3275.56
705.661	3154.73
705.849	3267.36
706.037	3185.44
706.226	3232.55
706.414	3220.26
706.602	3185.44
706.79	3246.88
706.979	3150.63
707.167	3185.44
707.355	3275.56
707.543	3273.51
707.731	3138.34
707.919	3226.4
708.107	3257.12
708.296	3101.48
708.484	3113.77
708.672	3154.73
708.86	3226.4
709.048	3136.29
709.236	3148.58
709.424	3113.77
709.612	3054.37
709.8	3031.85
709.988	2992.94
710.176	3169.06
710.364	3193.64
710.551	3167.01
710.739	3017.51
710.927	2982.7
711.115	3052.33
711.303	3091.24
711.491	3033.9
711.679	2988.84
711.866	2990.89
712.054	3162.92
712.242	3064.61
712.43	3060.52
712.617	3074.85
712.805	3117.86
712.993	3009.32
713.181	2960.17
713.368	3054.37
713.556	3035.94
713.744	3003.18
713.931	3093.29
714.119	2900.78
714.306	3064.61
714.494	2988.84
714.682	2935.59
714.869	3013.42
715.057	3056.42
715.244	3146.53
715.432	3025.7
715.619	2935.59
715.807	2908.97
715.994	2980.65
716.182	2908.97
716.369	2911.02
716.556	3128.1
716.744	2925.35
716.931	2892.59
717.119	2890.54
717.306	3025.7
717.493	2937.64
717.681	3031.85
717.868	2935.59
718.055	2962.22
718.242	2937.64
718.43	2859.82
718.617	2906.92
718.804	2917.16
718.991	2960.17
719.179	2814.76
719.366	3076.9
719.553	2874.15
719.74	2876.2
719.927	2831.15
720.114	2753.32
720.301	2845.48
720.488	2822.95
720.676	2825
720.863	2906.92
721.05	2800.43
721.237	2810.67
721.424	2781.99
721.611	2790.19
721.798	2741.04
721.985	2870.06
722.172	2732.84
722.358	2781.99
722.545	2863.91
722.732	2741.04
722.919	2704.17
723.106	2769.71
723.293	2775.85
723.48	2790.19
723.667	2771.76
723.853	2759.47
724.04	2784.04
724.227	2784.04
724.414	2605.87
724.6	2763.56
724.787	2808.62
724.974	2734.89
725.161	2747.18
725.347	2601.77
725.534	2726.7
725.72	2620.21
725.907	2634.54
726.094	2648.88
726.28	2661.16
726.467	2640.69
726.653	2558.77
726.84	2650.92
727.027	2648.88
727.213	2487.09
727.4	2677.55
727.586	2630.45
727.773	2511.66
727.959	2599.73
728.145	2673.45
728.332	2634.54
728.518	2673.45
728.705	2593.58
728.891	2589.49
729.077	2528.05
729.264	2655.02
729.45	2614.06
729.636	2603.82
729.823	2491.18
730.009	2458.42
730.195	2552.62
730.382	2601.77
730.568	2499.38
730.754	2515.76
730.94	2605.87
731.126	2433.84
731.313	2579.25
731.499	2509.62
731.685	2579.25
731.871	2493.23
732.057	2485.04
732.243	2585.39
732.429	2399.02
732.615	2513.71
732.801	2452.27
732.987	2526
733.173	2519.85
733.359	2503.47
733.545	2472.75
733.731	2392.88
733.917	2409.26
734.103	2466.61
734.289	2362.16
734.475	2472.75
734.661	2382.64
734.847	2431.79
735.033	2470.7
735.219	2358.07
735.404	2286.39
735.59	2503.47
735.776	2388.78
735.962	2401.07
736.148	2468.66
736.333	2378.55
736.519	2280.24
736.705	2351.92
736.89	2362.16
737.076	2290.48
737.262	2388.78
737.447	2239.28
737.633	2386.74
737.819	2353.97
738.004	2300.72
738.19	2224.95
738.375	2386.74
738.561	2323.25
738.747	2341.68
738.932	2308.91
739.118	2370.35
739.303	2310.96
739.489	2329.39
739.674	2267.95
739.859	2224.95
740.045	2245.43
740.23	2229.04
740.416	2220.85
740.601	2181.94
740.786	2243.38
740.972	2087.73
741.157	2198.32
741.342	2040.63
741.528	2147.12
741.713	2227
741.898	2038.58
742.084	2052.92
742.269	2128.69
742.454	2126.64
742.639	2124.6
742.824	2075.45
743.01	2077.49
743.195	2181.94
743.38	2085.69
743.565	2132.79
743.75	2065.21
743.935	1993.53
744.12	2005.81
744.305	1991.48
744.49	2087.73
744.675	1956.66
744.86	1925.94
745.045	2106.17
745.23	1944.38
745.415	1989.43
745.6	1954.62
745.785	1981.24
745.97	1942.33
746.155	1833.79
746.34	1960.76
746.525	1866.55
746.71	1973.05
746.895	1852.22
747.079	1844.03
747.264	1862.46
747.449	1864.5
747.634	1792.83
747.819	1780.54
748.003	1866.55
748.188	1758.01
748.373	1692.48
748.557	1780.54
748.742	1684.28
748.927	1776.44
749.111	1680.19
749.296	1684.28
749.481	1735.48
749.665	1688.38
749.85	1643.32
750.034	1661.76
750.219	1620.8
750.404	1641.28
750.588	1610.56
750.773	1594.17
750.957	1618.75
751.141	1590.08
751.326	1596.22
751.51	1674.04
751.695	1575.74
751.879	1540.93
752.064	1530.69
752.248	1573.69
752.432	1542.97
752.617	1518.4
752.801	1542.97
752.985	1612.6
753.17	1592.13
753.354	1475.39
753.538	1493.82
753.722	1463.1
753.907	1407.81
754.091	1372.99
754.275	1426.24
754.459	1397.57
754.643	1366.85
754.828	1379.14
755.012	1403.71
755.196	1346.37
755.38	1225.54
755.564	1430.34
755.748	1260.35
755.932	1452.86
756.116	1284.93
756.3	1256.26
756.484	1233.73
756.668	1278.79
756.852	1305.41
757.036	1307.46
757.22	1221.44
757.404	1323.84
757.588	1217.35
757.772	1260.35
757.956	1217.35
758.14	1221.44
758.323	1223.49
758.507	1258.31
758.691	1151.81
758.875	1229.63
759.059	1143.62
759.242	1233.73
759.426	1166.15
759.61	1180.48
759.794	1135.43
759.977	1153.86
760.161	1133.38
760.345	1096.52
760.528	1108.8
760.712	1117
760.895	1114.95
761.079	1098.56
761.263	1151.81
761.446	1098.56
761.63	1135.43
761.813	1129.28
761.997	1166.15
762.18	1047.37
762.364	1026.89
762.547	1047.37
762.731	1022.79
762.914	1037.13
763.098	1028.93
763.281	987.97
763.464	1035.08
763.648	1069.89
763.831	969.54
764.015	961.35
764.198	1063.75
764.381	1020.74
764.564	1018.69
764.748	1016.65
764.931	1080.13
765.114	1004.36
765.297	959.3
765.481	924.49
765.664	983.88
765.847	951.11
766.03	1028.93
766.213	879.43
766.397	842.57
766.58	996.17
766.763	955.21
766.946	908.1
767.129	973.64
767.312	918.34
767.495	899.91
767.678	899.91
767.861	881.48
768.044	949.06
768.227	973.64
768.41	885.58
768.593	947.01
768.776	961.35
768.959	877.38
769.142	877.38
769.324	895.82
769.507	842.57
769.69	940.87
769.873	852.81
770.056	846.66
770.239	852.81
770.421	809.8
770.604	772.94
770.787	824.14
770.97	850.76
771.152	861
771.335	813.9
771.518	777.03
771.7	762.7
771.883	762.7
772.066	811.85
772.248	789.32
772.431	793.42
772.613	809.8
772.796	820.04
772.978	891.72
773.161	729.93
773.343	781.13
773.526	811.85
773.708	746.31
773.891	750.41
774.073	703.31
774.256	828.23
774.438	779.08
774.621	674.64
774.803	754.51
774.985	701.26
775.168	713.55
775.35	664.4
775.532	764.75
775.715	611.15
775.897	703.31
776.079	721.74
776.261	648.01
776.444	676.68
776.626	738.12
776.808	562
776.99	721.74
777.173	756.55
777.355	682.83
777.537	686.92
777.719	693.07
777.901	590.67
778.083	611.15
778.265	605
778.447	656.2
778.629	607.05
778.811	658.25
778.993	570.19
779.175	605
779.357	641.87
779.539	559.95
779.721	623.44
779.903	623.44
780.085	566.09
780.267	676.68
780.449	568.14
780.631	557.9
780.812	562
780.994	555.85
781.176	502.61
781.358	510.8
781.54	586.57
781.721	510.8
781.903	504.65
782.085	588.62
782.267	508.75
782.448	566.09
782.63	512.85
782.812	498.51
782.993	471.89
783.175	488.27
783.357	508.75
783.538	435.02
783.72	439.12
783.901	490.32
784.083	500.56
784.264	478.03
784.446	455.5
784.627	498.51
784.809	422.73
784.99	473.93
785.172	502.61
785.353	381.78
785.535	504.65
785.716	457.55
785.897	441.17
786.079	369.49
786.26	506.7
786.441	475.98
786.623	383.82
786.804	428.88
786.985	449.36
787.167	398.16
787.348	340.82
787.529	336.72
787.71	500.56
787.891	443.21
788.073	371.54
788.254	389.97
788.435	387.92
788.616	396.11
788.797	310.1
788.978	340.82
789.159	379.73
789.34	383.82
789.522	349.01
789.703	389.97
789.884	357.2
790.065	435.02
790.246	318.29
790.427	344.91
790.607	453.45
790.788	383.82
790.969	400.21
791.15	324.43
791.331	310.1
791.512	275.28
791.693	379.73
791.874	353.1
792.054	367.44
792.235	365.39
792.416	279.38
792.597	334.67
792.778	320.34
792.958	297.81
793.139	379.73
793.32	265.04
793.5	353.1
793.681	379.73
793.862	299.86
794.042	306
794.223	314.19
794.404	228.18
794.584	246.61
794.765	273.23
794.945	260.95
795.126	322.38
795.306	285.52
795.487	318.29
795.667	336.72
795.848	301.9
796.028	316.24
796.209	166.74
796.389	281.43
796.57	269.14
796.75	234.32
796.93	344.91
797.111	295.76
797.291	230.23
797.471	260.95
797.652	226.13
797.832	242.51
798.012	262.99
798.192	222.03
798.373	297.81
798.553	209.75
798.733	318.29
798.913	193.36
799.093	291.66
799.274	357.2
799.454	314.19
799.634	285.52
799.814	306
799.994	273.23
800.174	244.56
800.354	226.13
800.534	193.36
800.714	217.94
800.894	199.51
801.074	176.98
801.254	172.88
801.434	228.18
801.614	174.93
801.794	267.09
801.974	602.96
802.154	267.09
802.334	318.29
802.514	267.09
802.693	211.79
802.873	226.13
803.053	271.19
803.233	172.88
803.413	164.69
803.592	219.99
803.772	244.56
803.952	232.27
804.131	129.88
804.311	232.27
804.491	189.27
804.67	185.17
804.85	168.79
805.03	181.07
805.209	252.75
805.389	146.26
805.568	219.99
805.748	191.31
805.928	138.07
806.107	199.51
806.287	224.08
806.466	170.83
806.646	144.21
806.825	179.03
807.004	248.66
807.184	230.23
807.363	129.88
807.543	219.99
807.722	228.18
807.901	142.16
808.081	199.51
808.26	125.78
808.439	183.12
808.619	172.88
808.798	168.79
808.977	238.42
809.156	176.98
809.336	160.59
809.515	189.27
809.694	183.12
809.873	172.88
810.052	213.84
810.231	152.4
810.411	193.36
810.59	187.22
810.769	197.46
810.948	158.55
811.127	125.78
811.306	131.92
811.485	242.51
811.664	164.69
811.843	244.56
812.022	174.93
812.201	217.94
812.38	125.78
812.559	127.83
812.737	101.2
812.916	144.21
813.095	127.83
813.274	78.68
813.453	136.02
813.632	187.22
813.811	156.5
813.989	160.59
814.168	150.36
814.347	164.69
814.526	127.83
814.704	148.31
814.883	222.03
815.062	133.97
815.24	64.34
815.419	123.73
815.598	136.02
815.776	78.68
815.955	113.49
816.133	52.05
816.312	154.45
816.49	185.17
816.669	142.16
816.847	127.83
817.026	93.01
817.204	207.7
817.383	162.64
817.561	99.16
817.74	181.07
817.918	154.45
818.097	125.78
818.275	154.45
818.453	82.77
818.632	174.93
818.81	54.1
818.988	78.68
819.167	117.59
819.345	148.31
819.523	39.76
819.701	146.26
819.879	189.27
820.058	131.92
820.236	123.73
820.414	68.44
820.592	226.13
820.77	111.44
820.948	74.58
821.127	109.4
821.305	78.68
821.483	150.36
821.661	109.4
821.839	140.12
822.017	127.83
822.195	76.63
822.373	117.59
822.551	109.4
822.729	140.12
822.907	66.39
823.085	68.44
823.262	99.16
823.44	119.64
823.618	78.68
823.796	86.87
823.974	123.73
824.152	62.29
824.329	123.73
824.507	152.4
824.685	193.36
824.863	105.3
825.04	123.73
825.218	158.55
825.396	86.87
825.574	166.74
825.751	129.88
825.929	86.87
826.107	187.22
826.284	113.49
826.462	113.49
826.639	113.49
826.817	52.05
826.994	84.82
827.172	19.29
827.349	148.31
827.527	-40.11
827.704	82.77
827.882	136.02
828.059	84.82
828.237	31.57
828.414	144.21
828.591	58.2
828.769	97.11
828.946	7
829.124	185.17
829.301	125.78
829.478	150.36
829.655	140.12
829.833	222.03
830.01	56.15
830.187	99.16
830.364	64.34
830.542	29.52
830.719	119.64
830.896	70.48
831.073	95.06
831.25	64.34
831.427	64.34
831.604	72.53
831.782	-1.19
831.959	115.54
832.136	107.35
832.313	156.5
832.49	97.11
832.667	19.29
832.844	76.63
833.021	47.96
833.198	80.72
833.374	66.39
833.551	86.87
833.728	47.96
833.905	113.49
834.082	4.95
834.259	68.44
834.436	97.11
834.612	2.9
834.789	97.11
834.966	21.33
835.143	84.82
835.319	101.2
835.496	86.87
835.673	7
835.85	47.96
836.026	117.59
836.203	136.02
836.38	25.43
836.556	45.91
836.733	76.63
836.909	88.92
837.086	23.38
837.262	54.1
837.439	-5.29
837.616	23.38
837.792	66.39
837.968	86.87
838.145	-11.43
838.321	95.06
838.498	25.43
838.674	82.77
838.851	50
839.027	41.81
839.203	129.88
839.38	78.68
839.556	101.2
839.732	62.29
839.909	101.2
840.085	54.1
840.261	72.53
840.437	84.82
840.614	74.58
840.79	109.4
840.966	-11.43
841.142	41.81
841.318	27.48
841.494	52.05
841.671	-7.34
841.847	111.44
842.023	33.62
842.199	0.85
842.375	47.96
842.551	-38.06
842.727	47.96
842.903	129.88
843.079	-23.72
843.255	56.15
843.431	62.29
843.607	56.15
843.783	-36.01
843.959	119.64
844.134	72.53
844.31	101.2
844.486	58.2
844.662	-5.29
844.838	107.35
845.013	70.48
845.189	33.62
845.365	-7.34
845.541	78.68
845.716	39.76
845.892	52.05
846.068	58.2
846.244	37.72
846.419	58.2
846.595	95.06
846.77	-5.29
846.946	62.29
847.122	84.82
847.297	23.38
847.473	76.63
847.648	-1.19
847.824	72.53
847.999	11.09
848.175	72.53
848.35	125.78
848.526	84.82
848.701	56.15
848.876	95.06
849.052	64.34
849.227	0.85
849.403	68.44
849.578	68.44
849.753	80.72
849.929	23.38
850.104	95.06
850.279	52.05
850.454	25.43
850.63	115.54
850.805	47.96
850.98	13.14
851.155	-1.19
851.33	95.06
851.505	21.33
851.681	-5.29
851.856	17.24
852.031	37.72
852.206	66.39
852.381	84.82
852.556	25.43
852.731	72.53
852.906	27.48
853.081	4.95
853.256	9.05
853.431	17.24
853.606	7
853.781	60.24
853.956	-31.91
854.131	109.4
854.305	11.09
854.48	72.53
854.655	101.2
854.83	58.2
855.005	-72.87
855.18	54.1
855.354	29.52
855.529	140.12
855.704	-11.43
855.879	74.58
856.053	-19.63
856.228	-9.39
856.403	33.62
856.577	70.48
856.752	-36.01
856.926	-46.25
857.101	-15.53
857.276	-19.63
857.45	31.57
857.625	29.52
857.799	21.33
857.974	0.85
858.148	39.76
858.323	68.44
858.497	25.43
858.672	25.43
858.846	99.16
859.02	58.2
859.195	29.52
859.369	62.29
859.543	-11.43
859.718	19.29
859.892	19.29
860.066	-27.82
860.241	78.68
860.415	84.82
860.589	9.05
860.763	82.77
860.938	62.29
861.112	56.15
861.286	7
861.46	7
861.634	70.48
861.808	68.44
861.982	33.62
862.157	43.86
862.331	54.1
862.505	-17.58
862.679	41.81
862.853	-7.34
863.027	58.2
863.201	56.15
863.375	39.76
863.549	76.63
863.722	0.85
863.896	72.53
864.07	27.48
864.244	107.35
864.418	-5.29
864.592	29.52
864.766	-15.53
864.939	-38.06
865.113	-72.87
865.287	0.85
865.461	-72.87
865.634	117.59
865.808	33.62
865.982	47.96
866.156	31.57
866.329	9.05
866.503	41.81
866.676	27.48
866.85	21.33
867.024	11.09
867.197	-17.58
867.371	82.77
867.544	33.62
867.718	39.76
867.891	66.39
868.065	70.48
868.238	68.44
868.412	99.16
868.585	-85.16
868.759	66.39
868.932	9.05
869.105	-27.82
869.279	33.62
869.452	25.43
869.625	4.95
869.799	-29.87
869.972	-44.2
870.145	-7.34
870.319	19.29
870.492	-15.53
870.665	-19.63
870.838	37.72
871.011	15.19
871.185	58.2
871.358	-5.29
871.531	64.34
871.704	29.52
871.877	50
872.05	27.48
872.223	0.85
872.396	23.38
872.569	56.15
872.742	-13.48
872.915	0.85
873.088	-15.53
873.261	11.09
873.434	7
873.607	-9.39
873.78	-9.39
873.953	-23.72
874.126	41.81
874.299	-33.96
874.471	-54.44
874.644	-5.29
874.817	29.52
874.99	111.44
875.163	17.24
875.335	-31.91
875.508	-36.01
875.681	56.15
875.853	27.48
876.026	7
876.199	43.86
876.371	15.19
876.544	-27.82
876.717	50
876.889	29.52
877.062	39.76
877.234	-27.82
877.407	23.38
877.579	-21.67
877.752	58.2
877.924	7
878.097	11.09
878.269	35.67
878.442	-5.29
878.614	13.14
878.786	21.33
878.959	-66.73
879.131	23.38
879.303	-29.87
879.476	47.96
879.648	74.58
879.82	68.44
879.993	-5.29
880.165	25.43
880.337	-9.39
880.509	-21.67
880.681	-1.19
880.854	-48.3
881.026	47.96
881.198	27.48
881.37	-27.82
881.542	54.1
881.714	33.62
881.886	15.19
882.058	-5.29
882.23	35.67
882.402	35.67
882.574	-29.87
882.746	11.09
882.918	29.52
883.09	-13.48
883.262	35.67
883.434	-40.11
883.606	54.1
883.778	13.14
883.95	117.59
884.122	-42.15
884.293	52.05
884.465	4.95
884.637	52.05
884.809	80.72
884.98	17.24
885.152	-1.19
885.324	-3.24
885.496	11.09
885.667	97.11
885.839	-36.01
886.011	35.67
886.182	-9.39
886.354	50
886.525	27.48
886.697	62.29
886.869	-31.91
887.04	27.48
887.212	13.14
887.383	0.85
887.555	113.49
887.726	-9.39
887.897	-19.63
888.069	52.05
888.24	25.43
888.412	9.05
888.583	-44.2
888.754	27.48
888.926	-3.24
889.097	-36.01
889.268	-56.49
889.44	-36.01
889.611	-21.67
889.782	37.72
889.953	13.14
890.125	23.38
890.296	-15.53
890.467	17.24
890.638	43.86
890.809	2.9
890.98	19.29
891.151	56.15
891.323	-79.02
891.494	-38.06
891.665	-21.67
891.836	-21.67
892.007	-31.91
892.178	-11.43
892.349	-52.39
892.52	66.39
892.691	15.19
892.862	-44.2
893.032	-7.34
893.203	54.1
893.374	11.09
893.545	-58.54
893.716	4.95
893.887	-52.39
894.057	-3.24
894.228	-5.29
894.399	-56.49
894.57	7
894.74	13.14
894.911	66.39
895.082	-44.2
895.253	43.86
895.423	-9.39
895.594	58.2
895.764	-29.87
895.935	-29.87
896.106	2.9
896.276	72.53
896.447	-9.39
896.617	-46.25
896.788	-21.67
896.958	23.38
897.129	88.92
897.299	33.62
897.47	37.72
897.64	39.76
897.81	-1.19
897.981	19.29
898.151	9.05
898.322	-3.24
898.492	7
898.662	60.24
898.832	-17.58
899.003	-38.06
899.173	58.2
899.343	13.14
899.513	-40.11
