Data from USB4F104151__66__12-01-56-028.txt Node

Date: Fri Mar 14 12:01:56 EDT 2025
User: louis
Spectrometer: USB4F10415
Trigger mode: 4
Integration Time (sec): 2.000000E-2
Scans to average: 1
Electric dark correction enabled: true
Nonlinearity correction enabled: false
Boxcar width: 0
XAxis mode: Wavelengths
Number of Pixels in Spectrum: 3648
>>>>>Begin Spectral Data<<<<<
178.204	-71.68
178.424	-71.68
178.644	-71.68
178.864	-73.73
179.084	-133.12
179.304	-8.19
179.524	6.14
179.744	28.67
179.964	38.91
180.184	22.53
180.404	-20.48
180.624	-2.05
180.844	-40.96
181.064	-10.24
181.283	-24.58
181.503	-59.39
181.723	69.63
181.943	-65.54
182.163	114.69
182.383	-40.96
182.602	-16.38
182.822	112.64
183.042	-36.86
183.262	26.62
183.482	-28.67
183.701	38.91
183.921	22.53
184.141	6.14
184.361	-43.01
184.58	22.53
184.8	-30.72
185.02	-16.38
185.239	24.58
185.459	-26.62
185.679	63.49
185.898	-55.3
186.118	14.34
186.338	32.77
186.557	71.68
186.777	-43.01
186.997	-49.15
187.216	-40.96
187.436	53.25
187.655	24.58
187.875	-26.62
188.095	53.25
188.314	-14.34
188.534	34.82
188.753	94.21
188.973	49.15
189.192	106.49
189.412	36.86
189.631	2.05
189.851	112.64
190.07	26.62
190.29	-18.43
190.509	-12.29
190.729	75.77
190.948	30.72
191.168	129.02
191.387	-24.58
191.607	-2.05
191.826	14.34
192.045	45.06
192.265	-12.29
192.484	4.1
192.704	-4.1
192.923	-12.29
193.142	77.82
193.362	12.29
193.581	28.67
193.8	47.1
194.02	55.3
194.239	73.73
194.458	43.01
194.678	12.29
194.897	139.26
195.116	106.49
195.335	12.29
195.555	12.29
195.774	-6.14
195.993	59.39
196.212	18.43
196.432	16.38
196.651	40.96
196.87	-43.01
197.089	92.16
197.308	45.06
197.528	12.29
197.747	55.3
197.966	67.58
198.185	12.29
198.404	-51.2
198.623	57.34
198.842	4.1
199.062	-47.1
199.281	57.34
199.5	-16.38
199.719	-18.43
199.938	75.77
200.157	77.82
200.376	53.25
200.595	69.63
200.814	36.86
201.033	-20.48
201.252	-16.38
201.471	43.01
201.69	65.53
201.909	36.86
202.128	67.58
202.347	67.58
202.566	-18.43
202.785	-4.1
203.004	-12.29
203.223	129.02
203.442	8.19
203.661	-6.14
203.879	49.15
204.098	61.44
204.317	18.43
204.536	34.82
204.755	20.48
204.974	55.3
205.193	-26.62
205.411	47.1
205.63	8.19
205.849	67.58
206.068	57.34
206.287	28.67
206.505	8.19
206.724	49.15
206.943	65.53
207.162	45.06
207.381	-6.14
207.599	36.86
207.818	30.72
208.037	30.72
208.255	-2.05
208.474	-22.53
208.693	110.59
208.911	38.91
209.13	45.06
209.349	22.53
209.567	34.82
209.786	34.82
210.005	10.24
210.223	-2.05
210.442	-26.62
210.661	86.01
210.879	-24.58
211.098	24.58
211.316	67.58
211.535	75.77
211.753	26.62
211.972	34.82
212.191	-32.77
212.409	10.24
212.628	73.73
212.846	-49.15
213.065	59.39
213.283	38.91
213.502	110.59
213.72	55.3
213.938	-22.53
214.157	36.86
214.375	-22.53
214.594	14.34
214.812	65.53
215.031	-12.29
215.249	-24.58
215.467	75.77
215.686	30.72
215.904	26.62
216.122	40.96
216.341	22.53
216.559	69.63
216.778	32.77
216.996	69.63
217.214	4.1
217.432	-12.29
217.651	59.39
217.869	20.48
218.087	16.38
218.306	57.34
218.524	43.01
218.742	-4.1
218.96	61.44
219.179	61.44
219.397	12.29
219.615	90.11
219.833	45.06
220.051	22.53
220.27	73.73
220.488	32.77
220.706	98.3
220.924	40.96
221.142	-86.01
221.36	6.14
221.578	6.14
221.796	-4.1
222.015	75.77
222.233	-49.15
222.451	34.82
222.669	-30.72
222.887	86.01
223.105	-53.25
223.323	4.1
223.541	0
223.759	38.91
223.977	92.16
224.195	40.96
224.413	65.53
224.631	55.3
224.849	77.82
225.067	40.96
225.285	69.63
225.503	-6.14
225.721	-12.29
225.939	-8.19
226.157	69.63
226.375	38.91
226.592	-6.14
226.81	55.3
227.028	57.34
227.246	69.63
227.464	-20.48
227.682	96.25
227.9	0
228.117	133.12
228.335	24.58
228.553	-49.15
228.771	71.68
228.989	22.53
229.206	51.2
229.424	-61.44
229.642	12.29
229.86	86.01
230.077	26.62
230.295	34.82
230.513	47.1
230.731	67.58
230.948	32.77
231.166	14.34
231.384	36.86
231.601	73.73
231.819	106.49
232.037	92.16
232.254	-14.34
232.472	67.58
232.689	67.58
232.907	22.53
233.125	-34.82
233.342	-20.48
233.56	92.16
233.777	43.01
233.995	30.72
234.213	124.93
234.43	32.77
234.648	12.29
234.865	-32.77
235.083	36.86
235.3	-47.1
235.518	14.34
235.735	34.82
235.953	32.77
236.17	57.34
236.388	69.63
236.605	49.15
236.822	30.72
237.04	-36.86
237.257	118.78
237.475	53.25
237.692	169.98
237.909	69.63
238.127	63.49
238.344	8.19
238.562	-20.48
238.779	2.05
238.996	8.19
239.214	26.62
239.431	20.48
239.648	2.05
239.865	6.14
240.083	98.3
240.3	-16.38
240.517	-8.19
240.735	45.06
240.952	79.87
241.169	102.4
241.386	71.68
241.603	55.3
241.821	36.86
242.038	81.92
242.255	45.06
242.472	12.29
242.689	114.69
242.907	0
243.124	57.34
243.341	-6.14
243.558	-26.62
243.775	26.62
243.992	10.24
244.209	-4.1
244.426	51.2
244.643	73.73
244.86	81.92
245.078	57.34
245.295	20.48
245.512	-6.14
245.729	40.96
245.946	40.96
246.163	12.29
246.38	-8.19
246.597	40.96
246.814	73.73
247.031	57.34
247.248	79.87
247.464	59.39
247.681	75.77
247.898	18.43
248.115	92.16
248.332	-8.19
248.549	-14.34
248.766	153.6
248.983	81.92
249.2	0
249.417	-38.91
249.633	55.3
249.85	65.53
250.067	20.48
250.284	30.72
250.501	40.96
250.717	75.77
250.934	-12.29
251.151	49.15
251.368	24.58
251.585	51.2
251.801	2.05
252.018	8.19
252.235	22.53
252.451	24.58
252.668	65.53
252.885	4.1
253.102	-4.1
253.318	18.43
253.535	-12.29
253.752	-6.14
253.968	40.96
254.185	-67.58
254.401	0
254.618	36.86
254.835	79.87
255.051	57.34
255.268	26.62
255.484	94.21
255.701	57.34
255.917	65.53
256.134	4.1
256.351	71.68
256.567	-16.38
256.784	40.96
257	-34.82
257.217	69.63
257.433	77.82
257.65	53.25
257.866	40.96
258.082	22.53
258.299	116.73
258.515	69.63
258.732	45.06
258.948	-22.53
259.165	49.15
259.381	-79.87
259.597	118.78
259.814	-18.43
260.03	69.63
260.246	26.62
260.463	22.53
260.679	14.34
260.895	61.44
261.112	-10.24
261.328	32.77
261.544	4.1
261.761	83.97
261.977	43.01
262.193	34.82
262.409	32.77
262.626	26.62
262.842	18.43
263.058	10.24
263.274	112.64
263.49	-26.62
263.707	61.44
263.923	-12.29
264.139	69.63
264.355	-2.05
264.571	51.2
264.787	40.96
265.004	61.44
265.22	-14.34
265.436	-4.1
265.652	-22.53
265.868	34.82
266.084	-30.72
266.3	34.82
266.516	-24.58
266.732	34.82
266.948	57.34
267.164	49.15
267.38	-4.1
267.596	30.72
267.812	2.05
268.028	47.1
268.244	32.77
268.46	49.15
268.676	43.01
268.892	106.49
269.108	-2.05
269.324	45.06
269.54	57.34
269.756	57.34
269.972	16.38
270.188	69.63
270.403	-24.58
270.619	61.44
270.835	94.21
271.051	-20.48
271.267	0
271.483	10.24
271.698	24.58
271.914	-8.19
272.13	-32.77
272.346	49.15
272.562	-49.15
272.777	102.4
272.993	106.49
273.209	-32.77
273.425	51.2
273.64	-67.58
273.856	53.25
274.072	10.24
274.287	28.67
274.503	86.01
274.719	75.77
274.934	49.15
275.15	-6.14
275.366	0
275.581	24.58
275.797	16.38
276.012	-51.2
276.228	0
276.444	59.39
276.659	90.11
276.875	28.67
277.09	-8.19
277.306	73.73
277.521	65.53
277.737	24.58
277.952	18.43
278.168	43.01
278.383	40.96
278.599	30.72
278.814	-2.05
279.03	65.53
279.245	55.3
279.461	-8.19
279.676	24.58
279.892	-61.44
280.107	73.73
280.322	30.72
280.538	22.53
280.753	6.14
280.969	75.77
281.184	32.77
281.399	53.25
281.615	69.63
281.83	-36.86
282.045	12.29
282.26	16.38
282.476	-4.1
282.691	24.58
282.906	-18.43
283.122	36.86
283.337	8.19
283.552	4.1
283.767	-53.25
283.983	57.34
284.198	45.06
284.413	22.53
284.628	4.1
284.843	51.2
285.058	24.58
285.274	59.39
285.489	38.91
285.704	92.16
285.919	-18.43
286.134	129.02
286.349	59.39
286.564	65.53
286.779	73.73
286.995	-28.67
287.21	30.72
287.425	8.19
287.64	22.53
287.855	22.53
288.07	18.43
288.285	12.29
288.5	34.82
288.715	67.58
288.93	40.96
289.145	-12.29
289.36	2.05
289.575	59.39
289.79	-26.62
290.004	-10.24
290.219	43.01
290.434	65.53
290.649	-55.3
290.864	-8.19
291.079	36.86
291.294	16.38
291.509	8.19
291.724	116.73
291.938	-20.48
292.153	-26.62
292.368	18.43
292.583	-4.1
292.798	49.15
293.012	98.3
293.227	43.01
293.442	28.67
293.657	-16.38
293.871	43.01
294.086	4.1
294.301	2.05
294.516	59.39
294.73	-26.62
294.945	-10.24
295.16	43.01
295.374	-4.1
295.589	67.58
295.804	96.25
296.018	57.34
296.233	49.15
296.447	22.53
296.662	77.82
296.877	112.64
297.091	43.01
297.306	38.91
297.52	45.06
297.735	67.58
297.949	51.2
298.164	86.01
298.378	30.72
298.593	83.97
298.807	98.3
299.022	77.82
299.236	-6.14
299.451	22.53
299.665	-14.34
299.88	67.58
300.094	6.14
300.309	-20.48
300.523	65.53
300.737	14.34
300.952	104.45
301.166	83.97
301.381	-12.29
301.595	-12.29
301.809	18.43
302.024	-14.34
302.238	26.62
302.452	45.06
302.667	43.01
302.881	133.12
303.095	-2.05
303.309	61.44
303.524	-20.48
303.738	22.53
303.952	67.58
304.166	104.45
304.381	43.01
304.595	-8.19
304.809	26.62
305.023	49.15
305.237	14.34
305.452	57.34
305.666	49.15
305.88	90.11
306.094	28.67
306.308	79.87
306.522	96.25
306.736	28.67
306.95	63.49
307.164	57.34
307.379	30.72
307.593	94.21
307.807	40.96
308.021	83.97
308.235	43.01
308.449	-2.05
308.663	69.63
308.877	43.01
309.091	67.58
309.305	49.15
309.519	-49.15
309.733	26.62
309.947	2.05
310.161	6.14
310.374	100.35
310.588	34.82
310.802	-6.14
311.016	79.87
311.23	88.06
311.444	40.96
311.658	49.15
311.872	61.44
312.085	77.82
312.299	71.68
312.513	22.53
312.727	98.3
312.941	0
313.154	61.44
313.368	129.02
313.582	116.73
313.796	47.1
314.009	28.67
314.223	69.63
314.437	73.73
314.651	63.49
314.864	40.96
315.078	-2.05
315.292	83.97
315.505	28.67
315.719	32.77
315.933	38.91
316.146	40.96
316.36	43.01
316.573	45.06
316.787	30.72
317.001	36.86
317.214	-6.14
317.428	43.01
317.641	0
317.855	81.92
318.068	6.14
318.282	36.86
318.495	102.4
318.709	49.15
318.922	90.11
319.136	36.86
319.349	90.11
319.563	-28.67
319.776	51.2
319.99	43.01
320.203	-20.48
320.417	28.67
320.63	63.49
320.843	137.21
321.057	49.15
321.27	79.87
321.483	75.77
321.697	112.64
321.91	36.86
322.124	14.34
322.337	51.2
322.55	-12.29
322.763	86.01
322.977	36.86
323.19	-2.05
323.403	36.86
323.617	67.58
323.83	43.01
324.043	-2.05
324.256	2.05
324.469	57.34
324.683	63.49
324.896	57.34
325.109	51.2
325.322	61.44
325.535	20.48
325.748	22.53
325.962	61.44
326.175	65.53
326.388	24.58
326.601	102.4
326.814	16.38
327.027	8.19
327.24	94.21
327.453	30.72
327.666	61.44
327.879	108.54
328.092	59.39
328.305	55.3
328.518	133.12
328.731	20.48
328.944	2.05
329.157	2.05
329.37	32.77
329.583	65.53
329.796	24.58
330.009	-51.2
330.222	14.34
330.435	79.87
330.648	51.2
330.861	6.14
331.073	49.15
331.286	34.82
331.499	77.82
331.712	53.25
331.925	38.91
332.138	67.58
332.35	126.97
332.563	24.58
332.776	-6.14
332.989	63.49
333.202	12.29
333.414	43.01
333.627	6.14
333.84	-28.67
334.053	110.59
334.265	-26.62
334.478	16.38
334.691	69.63
334.903	6.14
335.116	65.53
335.329	18.43
335.541	-36.86
335.754	24.58
335.966	-10.24
336.179	83.97
336.392	28.67
336.604	-30.72
336.817	4.1
337.029	18.43
337.242	32.77
337.454	116.73
337.667	34.82
337.88	67.58
338.092	83.97
338.305	126.97
338.517	145.41
338.729	79.87
338.942	98.3
339.154	63.49
339.367	-6.14
339.579	34.82
339.792	-26.62
340.004	20.48
340.217	20.48
340.429	102.4
340.641	12.29
340.854	79.87
341.066	-12.29
341.278	32.77
341.491	108.54
341.703	32.77
341.915	20.48
342.128	30.72
342.34	53.25
342.552	-6.14
342.764	-22.53
342.977	49.15
343.189	6.14
343.401	61.44
343.613	14.34
343.826	61.44
344.038	26.62
344.25	16.38
344.462	94.21
344.674	102.4
344.886	34.82
345.099	10.24
345.311	53.25
345.523	90.11
345.735	49.15
345.947	20.48
346.159	47.1
346.371	83.97
346.583	51.2
346.795	51.2
347.007	100.35
347.219	67.58
347.431	53.25
347.643	-12.29
347.855	6.14
348.067	57.34
348.279	-8.19
348.491	-14.34
348.703	-8.19
348.915	45.06
349.127	65.53
349.339	40.96
349.551	-20.48
349.763	124.93
349.975	34.82
350.187	47.1
350.399	88.06
350.61	43.01
350.822	30.72
351.034	24.58
351.246	73.73
351.458	6.14
351.669	73.73
351.881	59.39
352.093	71.68
352.305	36.86
352.517	22.53
352.728	51.2
352.94	28.67
353.152	43.01
353.363	-2.05
353.575	59.39
353.787	145.41
353.999	28.67
354.21	45.06
354.422	75.77
354.633	-20.48
354.845	110.59
355.057	79.87
355.268	108.54
355.48	-61.44
355.692	26.62
355.903	-16.38
356.115	-16.38
356.326	-57.34
356.538	45.06
356.749	75.77
356.961	106.49
357.172	-49.15
357.384	51.2
357.595	38.91
357.807	43.01
358.018	32.77
358.23	90.11
358.441	57.34
358.653	43.01
358.864	30.72
359.075	96.25
359.287	36.86
359.498	47.1
359.709	49.15
359.921	100.35
360.132	114.69
360.344	61.44
360.555	-16.38
360.766	18.43
360.977	53.25
361.189	90.11
361.4	65.53
361.611	104.45
361.823	34.82
362.034	-26.62
362.245	12.29
362.456	63.49
362.667	53.25
362.879	145.41
363.09	98.3
363.301	65.53
363.512	81.92
363.723	-4.1
363.935	38.91
364.146	10.24
364.357	71.68
364.568	18.43
364.779	24.58
364.99	65.53
365.201	28.67
365.412	116.73
365.623	73.73
365.834	43.01
366.045	-12.29
366.256	22.53
366.467	61.44
366.678	98.3
366.889	43.01
367.1	59.39
367.311	55.3
367.522	108.54
367.733	88.06
367.944	116.73
368.155	36.86
368.366	88.06
368.577	16.38
368.788	65.53
368.999	65.53
369.209	92.16
369.42	22.53
369.631	81.92
369.842	14.34
370.053	26.62
370.264	45.06
370.474	47.1
370.685	75.77
370.896	131.07
371.107	116.73
371.317	57.34
371.528	12.29
371.739	139.26
371.95	40.96
372.16	61.44
372.371	20.48
372.582	67.58
372.792	90.11
373.003	47.1
373.214	49.15
373.424	53.25
373.635	24.58
373.846	63.49
374.056	61.44
374.267	24.58
374.477	-12.29
374.688	65.53
374.898	51.2
375.109	92.16
375.319	96.25
375.53	45.06
375.74	32.77
375.951	65.53
376.161	53.25
376.372	102.4
376.582	12.29
376.793	49.15
377.003	71.68
377.214	38.91
377.424	67.58
377.635	124.93
377.845	57.34
378.055	88.06
378.266	86.01
378.476	77.82
378.686	16.38
378.897	120.83
379.107	26.62
379.317	69.63
379.528	40.96
379.738	69.63
379.948	59.39
380.158	40.96
380.369	51.2
380.579	120.83
380.789	96.25
380.999	69.63
381.21	79.87
381.42	61.44
381.63	22.53
381.84	100.35
382.05	59.39
382.261	30.72
382.471	59.39
382.681	26.62
382.891	65.53
383.101	94.21
383.311	-8.19
383.521	43.01
383.731	106.49
383.941	59.39
384.151	43.01
384.361	96.25
384.571	69.63
384.781	36.86
384.991	30.72
385.201	90.11
385.411	61.44
385.621	75.77
385.831	6.14
386.041	77.82
386.251	0
386.461	51.2
386.671	79.87
386.881	55.3
387.091	47.1
387.301	71.68
387.511	110.59
387.72	59.39
387.93	96.25
388.14	28.67
388.35	71.68
388.56	86.01
388.769	114.69
388.979	69.63
389.189	36.86
389.399	34.82
389.609	147.45
389.818	12.29
390.028	40.96
390.238	51.2
390.447	92.16
390.657	77.82
390.867	110.59
391.076	43.01
391.286	92.16
391.496	73.73
391.705	65.53
391.915	102.4
392.125	141.31
392.334	122.88
392.544	100.35
392.753	108.54
392.963	79.87
393.172	34.82
393.382	20.48
393.591	131.07
393.801	-34.82
394.01	167.93
394.22	20.48
394.429	110.59
394.639	-28.67
394.848	88.06
395.058	112.64
395.267	81.92
395.477	40.96
395.686	86.01
395.895	88.06
396.105	157.69
396.314	167.93
396.524	73.73
396.733	106.49
396.942	67.58
397.152	157.69
397.361	161.79
397.57	106.49
397.78	73.73
397.989	69.63
398.198	141.31
398.407	49.15
398.617	163.84
398.826	69.63
399.035	102.4
399.244	141.31
399.453	67.58
399.663	98.3
399.872	104.45
400.081	155.65
400.29	122.88
400.499	73.73
400.708	157.69
400.917	120.83
401.127	77.82
401.336	137.21
401.545	159.74
401.754	135.17
401.963	190.46
402.172	-4.1
402.381	131.07
402.59	151.55
402.799	215.04
403.008	129.02
403.217	212.99
403.426	159.74
403.635	92.16
403.844	161.79
404.053	153.6
404.262	135.17
404.471	212.99
404.68	151.55
404.888	126.97
405.097	149.5
405.306	174.08
405.515	186.37
405.724	206.84
405.933	182.27
406.142	223.23
406.35	133.12
406.559	212.99
406.768	176.13
406.977	188.41
407.185	241.66
407.394	282.62
407.603	200.7
407.812	272.38
408.02	196.61
408.229	210.94
408.438	202.75
408.646	354.3
408.855	296.96
409.064	323.58
409.272	292.86
409.481	290.81
409.69	344.06
409.898	296.96
410.107	350.2
410.315	401.4
410.524	315.39
410.733	313.34
410.941	364.54
411.15	405.5
411.358	432.12
411.567	428.03
411.775	387.07
411.984	485.37
412.192	501.75
412.401	524.28
412.609	526.33
412.818	544.76
413.026	585.72
413.234	497.66
413.443	538.62
413.651	604.15
413.86	595.96
414.068	718.84
414.276	694.26
414.485	759.8
414.693	751.6
414.901	718.84
415.11	741.36
415.318	774.13
415.526	737.27
415.734	774.13
415.943	798.71
416.151	878.58
416.359	856.05
416.567	888.82
416.776	1040.37
416.984	1075.18
417.192	1026.03
417.4	1107.95
417.608	1019.89
417.817	1077.23
418.025	1183.73
418.233	1294.32
418.441	1198.06
418.649	1265.64
418.857	1378.28
419.065	1370.09
419.273	1374.19
419.481	1460.2
419.689	1597.42
419.897	1679.33
420.105	1683.43
420.313	1826.79
420.521	1675.24
420.729	1851.36
420.937	1871.84
421.145	1970.15
421.353	2050.02
421.561	2123.74
421.769	2150.37
421.977	2230.24
422.185	2129.89
422.393	2379.74
422.601	2545.63
422.809	2533.34
423.017	2582.49
423.224	2594.78
423.432	2772.95
423.64	2727.89
423.848	3002.32
424.056	2836.44
424.263	3196.88
424.471	3178.45
424.679	3334.09
424.887	3436.49
425.094	3479.5
425.302	3516.36
425.51	3655.62
425.718	3700.68
425.925	3854.28
426.133	3758.02
426.341	4208.58
426.548	4304.83
426.756	4358.08
426.964	4556.73
427.171	4530.11
427.379	4706.23
427.586	4894.65
427.794	4876.21
428.001	5306.29
428.209	5420.97
428.417	5513.13
428.624	5810.09
428.832	5685.16
429.039	5617.58
429.247	5799.85
429.454	6207.39
429.662	6487.96
429.869	6080.42
430.076	6584.22
430.284	6533.02
430.491	6860.7
430.699	7245.71
430.906	7169.94
431.114	7186.32
431.321	7540.62
431.528	7614.35
431.736	8310.66
431.943	8519.55
432.15	8302.47
432.358	8359.81
432.565	8800.12
432.772	8802.17
432.979	9328.5
433.187	9492.34
433.394	9365.36
433.601	9918.31
433.808	10127.21
434.016	10116.97
434.223	10637.15
434.43	11212.63
434.637	10796.89
434.844	11528.02
435.052	11827.02
435.259	11718.48
435.466	12054.34
435.673	11771.72
435.88	12685.12
436.087	12982.07
436.294	13334.32
436.501	13018.94
436.708	13258.55
436.915	13797.17
437.122	14198.57
437.329	14294.82
437.537	14761.76
437.743	14878.49
437.95	14710.56
438.157	15462.16
438.364	15867.66
438.571	16115.47
438.778	16279.3
438.985	17647.35
439.192	16715.52
439.399	17530.61
439.606	16992
439.813	17985.26
440.02	19345.11
440.227	18751.2
440.433	18562.79
440.64	19306.2
440.847	18929.38
441.054	19633.88
441.261	21022.4
441.467	20870.85
441.674	20950.72
441.881	21673.65
442.088	21724.85
442.294	21692.08
442.501	22326.96
442.708	22533.8
442.914	23469.72
443.121	24479.37
443.328	23629.46
443.534	25429.63
443.741	24716.93
443.948	24358.54
444.154	26109.55
444.361	26265.2
444.568	26166.9
444.774	26359.41
444.981	26648.17
445.187	27049.57
445.394	28356.18
445.6	28028.5
445.807	30903.85
446.013	29230.66
446.22	30174.77
446.426	30828.07
446.633	31295.01
446.839	32478.74
447.046	30989.86
447.252	32941.58
447.459	32957.96
447.665	32466.45
447.871	34039.29
448.078	35513.83
448.284	33699.33
448.491	34706.93
448.697	35882.46
448.903	36750.8
449.11	36851.15
449.316	36578.77
449.522	36980.17
449.728	37551.56
449.935	38327.74
450.141	38274.49
450.347	38747.57
450.553	37875.13
450.76	38399.41
450.966	39572.9
451.172	39173.55
451.378	39990.69
451.584	38843.82
451.791	40080.8
451.997	40056.22
452.203	40320.41
452.409	40727.95
452.615	40164.76
452.821	38516.15
453.027	38260.15
453.233	40162.72
453.44	38530.48
453.646	39226.79
453.852	39325.1
454.058	40175
454.264	38362.55
454.47	39519.65
454.676	38403.51
454.882	39648.67
455.088	36474.32
455.294	37031.37
455.5	37512.64
455.705	37737.92
455.911	36087.26
456.117	35526.11
456.323	35014.12
456.529	33340.93
456.735	34452.98
456.941	33928.7
457.147	33185.29
457.352	32142.87
457.558	32050.71
457.764	31557.15
457.97	30842.41
458.176	30244.4
458.381	30602.8
458.587	28782.15
458.793	29132.36
458.999	27547.23
459.204	29410.88
459.41	28378.7
459.616	26670.7
459.821	26736.23
460.027	26437.23
460.233	25769.59
460.438	24704.65
460.644	25327.23
460.85	23522.97
461.055	23539.35
461.261	22947.49
461.466	21642.93
461.672	21006.02
461.878	22302.38
462.083	20963.01
462.289	20739.78
462.494	20336.33
462.7	19701.46
462.905	19013.34
463.111	19627.73
463.316	19900.11
463.522	19527.38
463.727	19494.61
463.932	19205.85
464.138	19189.47
464.343	19142.36
464.549	18579.17
464.754	19259.1
464.959	18874.08
465.165	18869.98
465.37	17977.07
465.575	17889.01
465.781	18474.73
465.986	18544.36
466.191	17837.81
466.397	17456.89
466.602	16295.69
466.807	17215.23
467.012	17252.09
467.218	17221.37
467.423	16946.94
467.628	17254.14
467.833	17780.46
468.038	17311.48
468.244	16516.87
468.449	17497.84
468.654	16656.13
468.859	16441.09
469.064	16273.16
469.269	15890.19
469.474	15963.92
469.679	16224.01
469.885	15877.9
470.09	16082.7
470.295	15777.55
470.5	15775.5
470.705	15468.31
470.91	15175.45
471.115	15025.95
471.32	15329.05
471.525	15109.91
471.73	14995.23
471.935	14858.01
472.139	14380.84
472.344	14585.63
472.549	14319.4
472.754	14163.75
472.959	13930.28
473.164	13342.52
473.369	13403.96
473.574	13854.51
473.778	13844.27
473.983	13696.81
474.188	13389.62
474.393	12885.82
474.598	12949.31
474.802	12883.77
475.007	12781.37
475.212	12683.07
475.417	12185.41
475.621	12470.08
475.826	12134.21
476.031	11867.98
476.235	11816.78
476.44	12083.02
476.645	11831.12
476.849	11964.23
477.054	11673.42
477.259	11362.13
477.463	11632.46
477.668	11122.52
477.872	11396.95
478.077	11296.6
478.282	10870.62
478.486	10786.65
478.691	10862.43
478.895	10641.25
479.1	10592.09
479.304	10442.59
479.509	10397.54
479.713	10565.47
479.918	10291.04
480.122	10241.89
480.326	10211.17
480.531	10209.12
480.735	10309.47
480.94	10149.73
481.144	10336.1
481.348	9856.87
481.553	10100.58
481.757	9779.05
481.961	9922.41
482.166	10080.1
482.37	9908.07
482.574	9957.22
482.778	9813.87
482.983	9924.46
483.187	9891.69
483.391	10020.71
483.595	9555.82
483.8	9817.96
484.004	9805.67
484.208	9951.08
484.412	9748.33
484.616	9832.3
484.821	9846.63
485.025	9682.8
485.229	9781.1
485.433	9660.27
485.637	9852.78
485.841	9615.21
486.045	9633.64
486.249	9555.82
486.453	9713.52
486.657	9690.99
486.861	9979.75
487.065	9533.29
487.269	9523.05
487.473	9662.32
487.677	9742.19
487.881	9877.35
488.085	9588.59
488.289	9908.07
488.493	9856.87
488.697	9785.19
488.901	9820.01
489.105	9760.62
489.309	9803.63
489.512	9785.19
489.716	9676.65
489.92	10125.16
490.124	9828.2
490.328	10078.05
490.531	10000.23
490.735	10133.35
490.939	10221.41
491.143	9977.7
491.346	9879.4
491.55	10209.12
491.754	9946.98
491.958	10219.36
492.161	10254.18
492.365	10401.63
492.569	10264.42
492.772	10225.51
492.976	10209.12
493.18	10321.76
493.383	10446.69
493.587	10674.01
493.79	10706.78
493.994	10577.76
494.197	10780.51
494.401	10659.68
494.605	10686.3
494.808	11081.56
495.012	10950.49
495.215	10946.39
495.419	11210.58
495.622	11075.41
495.825	11188.05
496.029	11435.86
496.232	11646.8
496.436	11556.69
496.639	11681.61
496.843	11628.37
497.046	12101.45
497.249	12035.91
497.453	12080.97
497.656	12154.69
497.859	12318.53
498.063	12336.96
498.266	12588.86
498.469	12410.69
498.673	12685.12
498.876	12861.24
499.079	13211.45
499.282	12865.34
499.485	13348.66
499.689	13391.67
499.892	13498.16
500.095	13553.46
500.298	14090.02
500.501	13520.69
500.705	14055.21
500.908	14339.88
501.111	14608.16
501.314	14731.04
501.517	14782.24
501.72	14712.61
501.923	14915.36
502.126	15343.38
502.329	15535.89
502.532	15451.92
502.735	15535.89
502.938	15748.88
503.141	15996.68
503.344	16142.09
503.547	16359.17
503.75	16527.11
503.953	16412.42
504.156	16588.55
504.359	16854.78
504.562	16826.11
504.765	17288.95
504.968	17592.05
505.17	17764.08
505.373	17657.59
505.576	18140.91
505.779	18224.87
505.982	18413.29
506.185	18575.08
506.387	18622.18
506.59	18912.99
506.793	19179.23
506.996	19261.15
507.198	19506.9
507.401	19687.12
507.604	19855.06
507.807	20238.03
508.009	20338.38
508.212	20704.96
508.415	20655.81
508.617	20965.06
508.82	20952.77
509.022	20954.82
509.225	21288.64
509.428	21655.22
509.63	21675.7
509.833	21898.93
510.035	22367.91
510.238	22359.72
510.44	22638.25
510.643	23125.66
510.845	23246.49
511.048	22890.15
511.25	23543.45
511.453	23576.22
511.655	24286.86
511.858	23727.77
512.06	24321.68
512.262	24682.12
512.465	24473.23
512.667	24993.41
512.87	25198.21
513.072	25155.2
513.274	25491.07
513.477	25802.36
513.679	26111.6
513.881	26267.25
514.084	26576.49
514.286	26474.09
514.488	26707.56
514.69	27631.19
514.893	27252.32
515.095	27909.72
515.297	27973.21
515.499	28010.07
515.701	28358.22
515.904	28464.72
516.106	28677.71
516.308	28890.7
516.51	29118.02
516.712	29222.47
516.914	29597.24
517.116	30133.81
517.318	30058.04
517.52	30045.75
517.722	30230.07
517.925	30823.98
518.127	31122.98
518.329	31387.17
518.531	30897.7
518.733	31886.87
518.935	32165.4
519.136	31942.17
519.338	32695.82
519.54	32409.11
519.742	32749.07
519.944	32792.08
520.146	33420.8
520.348	33654.27
520.55	33535.49
520.752	33854.97
520.954	34315.76
521.155	33932.79
521.357	34670.06
521.559	35431.91
521.761	35337.7
521.963	35085.8
522.164	35544.55
522.366	35161.58
522.568	35804.64
522.77	35853.79
522.971	36515.28
523.173	35931.61
523.375	36666.83
523.576	36566.48
523.778	36658.64
523.98	37236.17
524.181	37533.12
524.383	37436.87
524.584	37762.5
524.786	37885.37
524.988	37778.88
525.189	38043.07
525.391	38710.71
525.592	38530.48
525.794	38792.62
525.995	38665.65
526.197	38538.68
526.398	39011.76
526.6	39028.14
526.801	39069.1
527.003	39306.66
527.204	39267.75
527.406	39787.94
527.607	39429.54
527.808	39896.48
528.01	39318.95
528.211	39533.99
528.412	40672.66
528.614	40058.27
528.815	40695.19
529.016	40762.77
529.218	40471.96
529.419	40482.2
529.62	40781.2
529.822	40609.17
530.023	40478.1
530.224	40564.12
530.425	40643.99
530.626	40416.66
530.828	40414.62
531.029	41117.07
531.23	40596.88
531.431	40981.9
531.632	41287.05
531.833	41211.28
532.035	40730
532.236	41319.82
532.437	41198.99
532.638	40881.55
532.839	41528.71
533.04	41387.4
533.241	41084.3
533.442	41735.56
533.643	41250.19
533.844	41149.84
534.045	41346.44
534.246	40965.52
534.447	41461.13
534.648	41074.06
534.849	41817.47
535.05	41311.63
535.251	41518.47
535.451	40971.66
535.652	41229.71
535.853	41278.86
536.054	41573.77
536.255	41536.9
536.456	41153.93
536.657	41764.23
536.857	41416.07
537.058	41280.91
537.259	41645.44
537.46	41151.88
537.66	41360.78
537.861	41198.99
538.062	41252.23
538.263	41350.54
538.463	41414.02
538.664	41348.49
538.865	41586.05
539.065	41586.05
539.266	40813.97
539.466	41596.29
539.667	40816.02
539.868	41592.2
540.068	41020.81
540.269	41104.78
540.469	41328.01
540.67	40748.43
540.87	41180.56
541.071	40940.94
541.271	40983.95
541.472	40705.43
541.672	40474.01
541.873	40717.71
542.073	40398.23
542.274	41297.29
542.474	40412.57
542.675	40519.06
542.875	41072.01
543.075	41053.58
543.276	40484.25
543.476	41104.78
543.676	40873.36
543.877	40854.93
544.077	40635.8
544.277	40484.25
544.478	40684.95
544.678	40869.26
544.878	40799.63
545.078	40703.38
545.279	40263.07
545.479	40342.94
545.679	40596.88
545.879	40578.45
546.079	40660.37
546.28	40652.18
546.48	40459.67
546.68	40705.43
546.88	40525.21
547.08	40074.65
547.28	40502.68
547.48	39986.59
547.68	40676.76
547.88	39800.22
548.081	40367.51
548.281	40498.58
548.481	40328.6
548.681	40744.34
548.881	40207.77
549.081	40342.94
549.28	39789.98
549.48	40318.36
549.68	40342.94
549.88	40488.34
550.08	39814.56
550.28	40293.79
550.48	40084.89
550.68	40099.23
550.88	40201.63
551.08	40117.66
551.279	40211.87
551.479	39949.73
551.679	40379.8
551.879	40113.56
552.079	40070.56
552.278	39916.96
552.478	40019.36
552.678	39777.7
552.878	40297.88
553.077	40273.31
553.277	39515.56
553.477	40267.16
553.676	39845.28
553.876	40242.59
554.076	39841.18
554.275	39699.87
554.475	39470.5
554.674	40082.84
554.874	39847.33
555.074	39740.83
555.273	39450.02
555.473	39933.34
555.672	39271.85
555.872	39364.01
556.071	39716.26
556.271	39607.72
556.47	39478.69
556.67	39302.57
556.869	39386.53
557.068	39736.74
557.268	39122.35
557.467	39411.11
557.667	39355.82
557.866	39144.87
558.065	39163.31
558.265	38907.31
558.464	38634.93
558.663	39091.63
558.863	38704.56
559.062	39507.37
559.261	38643.12
559.461	39015.85
559.66	38720.95
559.859	38700.47
560.058	38866.35
560.258	38344.12
560.457	38251.96
560.656	38532.53
560.855	38675.89
561.054	38696.37
561.253	38423.99
561.453	38251.96
561.652	38415.8
561.851	38491.57
562.05	38147.51
562.249	38245.82
562.448	38274.49
562.647	38467
562.846	38069.69
563.045	37983.68
563.244	37582.27
563.443	38344.12
563.642	37338.57
563.841	37588.42
564.04	37612.99
564.239	37993.92
564.438	36984.27
564.637	37383.62
564.836	37709.25
565.035	36918.73
565.234	37217.74
565.432	37303.75
565.631	37053.9
565.83	37553.6
566.029	36845.01
566.228	37000.65
566.427	36947.4
566.625	36541.91
566.824	36586.96
567.023	36845.01
567.222	36148.7
567.42	36586.96
567.619	36566.48
567.818	36472.28
568.016	36253.14
568.215	36474.32
568.414	36310.49
568.612	36806.09
568.811	36646.35
569.01	36138.46
569.208	35720.67
569.407	36185.56
569.605	35665.38
569.804	36128.22
570.002	35614.18
570.201	35917.28
570.4	35323.36
570.598	35173.86
570.797	35382.76
570.995	35556.83
571.193	35046.89
571.392	35458.53
571.59	35137
571.789	35145.19
571.987	34692.59
572.186	34874.86
572.384	34637.3
572.582	34727.41
572.781	34645.49
572.979	34694.64
573.177	34649.58
573.376	34653.68
573.574	34045.43
573.772	34219.51
573.971	34366.96
574.169	34194.93
574.367	34018.81
574.565	34141.69
574.763	34182.65
574.962	33828.35
575.16	33908.22
575.358	33779.2
575.556	33197.57
575.754	34287.09
575.952	33336.84
576.151	33484.29
576.349	32843.27
576.547	33173
576.745	33293.83
576.943	32863.75
577.141	32988.68
577.339	33035.78
577.537	32673.29
577.735	32994.82
577.933	32808.46
578.131	32648.72
578.329	32501.26
578.527	32349.71
578.725	32493.07
578.923	32658.96
579.121	32284.18
579.319	32327.19
579.516	32431.63
579.714	32431.63
579.912	32054.81
580.11	31809.05
580.308	31927.83
580.506	31503.9
580.704	31268.39
580.901	31673.88
581.099	31778.33
581.297	31274.53
581.495	31159.84
581.692	31710.75
581.89	31327.78
582.088	31280.67
582.285	30909.99
582.483	31340.07
582.681	30764.59
582.878	30746.15
583.076	30744.11
583.274	31225.38
583.471	30690.86
583.669	30512.69
583.866	30469.68
584.064	30379.57
584.262	29888.06
584.459	30520.88
584.657	30484.01
584.854	30406.19
585.052	29670.97
585.249	30268.98
585.447	29748.79
585.644	29392.45
585.841	29738.55
586.039	30137.91
586.236	29220.42
586.434	29214.27
586.631	29269.57
586.828	29294.14
587.026	29052.48
587.223	29134.4
587.42	28995.14
587.618	28929.61
587.815	28802.63
588.012	28753.48
588.21	28694.09
588.407	28677.71
588.604	28542.54
588.801	28489.29
588.999	28452.43
589.196	28548.68
589.393	28335.7
589.59	28202.58
589.787	27977.3
589.984	27739.74
590.182	27674.2
590.379	27780.7
590.576	27909.72
590.773	27506.27
590.97	27674.2
591.167	27598.43
591.364	27209.31
591.561	27549.28
591.758	26977.89
591.955	27227.74
592.152	27258.46
592.349	27248.22
592.546	27377.25
592.743	27035.24
592.94	26705.51
593.137	26592.87
593.334	26887.78
593.531	26218.1
593.727	26969.7
593.924	26682.98
594.121	26433.13
594.318	26404.46
594.515	25984.63
594.712	26467.95
594.908	25822.84
595.105	26420.84
595.302	25755.25
595.499	25716.34
595.696	25699.96
595.892	25478.78
596.089	25364.09
596.286	25568.89
596.482	25714.3
596.679	25441.92
596.876	25517.69
597.072	25198.21
597.269	25269.89
597.466	24899.2
597.662	24909.44
597.859	24919.68
598.055	24958.6
598.252	24753.8
598.448	24202.89
598.645	24518.28
598.841	24280.72
599.038	24620.68
599.234	24223.37
599.431	24374.92
599.627	24202.89
599.824	24618.63
600.02	24014.48
600.217	24211.09
600.413	23881.36
600.609	23936.66
600.806	23525.02
601.002	23887.51
601.198	23791.25
601.395	23578.26
601.591	23516.83
601.787	23627.42
601.984	23287.45
602.18	23617.18
602.376	23113.38
602.572	23262.88
602.769	23047.84
602.965	22675.11
603.161	23078.56
603.357	22754.98
603.553	22900.39
603.75	22855.33
603.946	22847.14
604.142	22732.45
604.338	22455.98
604.534	22609.57
604.73	22412.97
604.926	22132.4
605.122	22437.55
605.318	22070.96
605.514	22132.4
605.71	21825.2
605.906	21931.7
606.102	21786.29
606.298	21907.12
606.494	21821.11
606.69	21716.66
606.886	21804.72
607.082	21399.23
607.278	21784.24
607.474	21446.33
607.67	21333.69
607.866	21229.24
608.062	21720.76
608.257	21325.5
608.453	21167.81
608.649	21212.86
608.845	21141.18
609.041	21270.2
609.236	21438.14
609.432	21155.52
609.628	20926.14
609.824	21147.33
610.019	20854.47
610.215	20825.79
610.411	21165.76
610.606	20600.52
610.802	20756.16
610.998	20719.3
611.193	21003.97
611.389	20420.3
611.584	20422.34
611.78	20477.64
611.976	20219.6
612.171	20592.33
612.367	20657.86
612.562	20166.35
612.758	20004.56
612.953	20201.16
613.149	20115.15
613.344	19859.15
613.539	20258.51
613.735	20385.48
613.93	19848.91
614.126	20029.13
614.321	20053.71
614.517	19992.27
614.712	19703.51
614.907	19566.29
615.103	19920.59
615.298	19547.86
615.493	19615.44
615.688	19574.49
615.884	19826.39
616.079	19443.42
616.274	19519.19
616.47	19437.27
616.665	19521.24
616.86	19414.74
617.055	19439.32
617.25	19513.05
617.445	19248.86
617.641	19130.08
617.836	19312.35
618.031	18968.29
618.226	19164.89
618.421	19115.74
618.616	19035.87
618.811	19023.58
619.006	19066.59
619.201	18423.53
619.396	18669.28
619.591	18357.99
619.786	18429.67
619.981	18292.46
620.176	18423.53
620.371	18024.17
620.566	18429.67
620.761	17866.48
620.956	18294.5
621.151	18069.23
621.346	18294.5
621.541	17860.34
621.735	17870.58
621.93	17448.69
622.125	17532.66
622.32	17078.01
622.515	17446.65
622.709	16987.9
622.904	17121.02
623.099	17184.51
623.294	17149.69
623.488	17098.49
623.683	16914.17
623.878	16623.36
624.072	16930.56
624.267	16688.9
624.462	16391.94
624.656	16379.65
624.851	16303.88
625.046	16232.2
625.24	15984.4
625.435	15933.2
625.629	15798.03
625.824	15916.81
626.018	15777.55
626.213	15728.4
626.407	15744.78
626.602	15511.32
626.796	15447.83
626.991	15511.32
627.185	15347.48
627.38	15218.46
627.574	15240.98
627.768	14980.89
627.963	14941.98
628.157	14978.84
628.352	14749.47
628.546	14632.74
628.74	14876.44
628.935	14642.98
629.129	14460.71
629.323	14219.05
629.517	14221.09
629.712	14475.04
629.906	14276.39
630.1	13786.93
630.294	14087.98
630.489	13981.48
630.683	13930.28
630.877	13819.69
631.071	13567.79
631.265	13807.41
631.459	13401.91
631.653	13422.39
631.848	13551.41
632.042	13082.42
632.236	13188.92
632.43	13240.12
632.624	13209.4
632.818	13119.29
633.012	12924.73
633.206	13139.77
633.4	13039.42
633.594	12740.41
633.788	13012.79
633.982	12631.87
634.176	12724.03
634.369	12613.44
634.563	12402.5
634.757	12343.11
634.951	12506.95
635.145	12334.92
635.339	12293.96
635.533	12343.11
635.726	12330.82
635.92	11935.56
636.114	11847.5
636.308	12054.34
636.501	11892.55
636.695	11917.13
636.889	11769.68
637.083	11599.69
637.276	11882.31
637.47	11466.58
637.664	11380.56
637.857	11583.31
638.051	11341.65
638.244	11319.12
638.438	11130.71
638.632	11054.94
638.825	11134.81
639.019	11024.22
639.212	10979.16
639.406	11001.69
639.599	10843.99
639.793	10778.46
639.986	10831.71
640.18	10657.63
640.373	10784.6
640.567	10532.7
640.76	10549.09
640.954	10534.75
641.147	10307.43
641.34	10358.63
641.534	10475.36
641.727	10295.14
641.92	10194.79
642.114	10047.33
642.307	9975.66
642.5	9867.11
642.694	9869.16
642.887	10098.53
643.08	9828.2
643.273	9826.15
643.467	9707.37
643.66	9729.9
643.853	9664.36
644.046	9514.86
644.239	9447.28
644.432	9572.21
644.626	9385.84
644.819	9377.65
645.012	9316.21
645.205	9434.99
645.398	9297.78
645.591	9045.88
645.784	9047.93
645.977	8916.86
646.17	8900.47
646.363	9052.02
646.556	8857.46
646.749	8845.18
646.942	9002.87
647.135	8683.39
647.328	8707.96
647.521	8787.83
647.714	8611.71
647.907	8820.6
648.099	8851.32
648.292	8441.73
648.485	8675.2
648.678	8558.46
648.871	8406.91
649.064	8292.23
649.256	8349.57
649.449	8269.7
649.642	8093.57
649.835	8337.28
650.027	8218.5
650.22	7999.37
650.413	8118.15
650.605	8085.38
650.798	7999.37
650.991	7794.57
651.183	7972.74
651.376	7835.53
651.568	7759.75
651.761	7937.93
651.954	7792.52
652.146	7608.2
652.339	7587.72
652.531	7516.05
652.724	7673.74
652.916	7395.22
653.109	7505.81
653.301	7436.17
653.494	7460.75
653.686	7282.58
653.879	7415.69
654.071	7276.43
654.263	7182.23
654.456	7106.45
654.648	7311.25
654.84	7167.89
655.033	6995.86
655.225	7057.3
655.417	6842.26
655.61	7081.88
655.802	7002.01
655.994	6813.59
656.186	7020.44
656.379	6956.95
656.571	6893.46
656.763	6891.41
656.955	6750.1
657.148	6590.36
657.34	6662.04
657.532	6571.93
657.724	6492.06
657.916	6662.04
658.108	6567.84
658.3	6381.47
658.492	6545.31
658.684	6317.98
658.876	6317.98
659.068	6471.58
659.26	6277.02
659.452	6244.26
659.644	6221.73
659.836	6262.69
660.028	6127.52
660.22	6115.23
660.412	6207.39
660.604	6119.33
660.796	6199.2
660.988	6102.95
661.18	5955.49
661.372	5826.47
661.563	5883.81
661.755	5965.73
661.947	5873.57
662.139	5793.7
662.331	5715.88
662.522	5777.32
662.714	5695.4
662.906	5629.87
663.097	5638.06
663.289	5590.95
663.481	5799.85
663.673	5656.49
663.864	5695.4
664.056	5480.36
664.247	5568.43
664.439	5420.97
664.631	5517.23
664.822	5498.8
665.014	5449.64
665.205	5339.05
665.397	5343.15
665.588	5511.08
665.78	5173.17
665.971	5189.55
666.163	5253.04
666.354	5158.83
666.546	5242.8
666.737	5111.73
666.929	5124.02
667.12	5146.55
667.311	5091.25
667.503	5029.81
667.694	5097.39
667.885	5107.63
668.077	4962.23
668.268	4876.21
668.459	4968.37
668.651	4943.8
668.842	4876.21
669.033	4923.32
669.224	4769.72
669.416	4945.84
669.607	4933.56
669.798	4818.87
669.989	4800.44
670.18	4802.49
670.371	4820.92
670.563	4777.91
670.754	4734.9
670.945	4638.65
671.136	4587.45
671.327	4698.04
671.518	4573.11
671.709	4753.34
671.9	4435.9
672.091	4542.39
672.282	4523.96
672.473	4519.87
672.664	4677.56
672.855	4444.09
673.046	4431.8
673.237	4509.63
673.428	4538.3
673.619	4618.17
673.809	4548.54
674	4444.09
674.191	4368.32
674.382	4351.93
674.573	4331.45
674.764	4401.08
674.954	4341.69
675.145	4161.47
675.336	4368.32
675.527	4351.93
675.717	4165.57
675.908	4255.68
676.099	4192.19
676.289	4179.9
676.48	4216.77
676.671	4179.9
676.861	4186.05
677.052	4202.43
677.243	3999.68
677.433	4114.37
677.624	4206.53
677.814	3991.49
678.005	3956.68
678.195	4124.61
678.386	4011.97
678.576	4052.93
678.767	4042.69
678.957	4026.31
679.148	4048.83
679.338	3983.3
679.529	4003.78
679.719	3934.15
679.909	3995.59
680.1	3825.61
680.29	3997.63
680.481	3848.13
680.671	3973.06
680.861	3731.4
681.052	3872.71
681.242	3854.28
681.432	3993.54
681.622	3815.37
681.813	3764.17
682.003	3809.22
682.193	3727.3
682.383	3774.41
682.573	3796.93
682.764	3895.24
682.954	3821.51
683.144	3694.54
683.334	3536.84
683.524	3704.78
683.714	3688.39
683.904	3626.95
684.094	3758.02
684.284	3616.71
684.474	3753.93
684.664	3690.44
684.854	3801.03
685.044	3682.25
685.234	3567.56
685.424	3606.47
685.614	3514.31
685.804	3563.47
685.994	3571.66
686.184	3545.03
686.374	3454.92
686.564	3454.92
686.753	3567.56
686.943	3526.6
687.133	3413.96
687.323	3436.49
687.513	3461.07
687.702	3407.82
687.892	3272.65
688.082	3356.62
688.272	3456.97
688.461	3342.28
688.651	3362.76
688.841	3313.61
689.03	3246.03
689.22	3246.03
689.41	3307.47
689.599	3342.28
689.789	3205.07
689.979	3225.55
690.168	3196.88
690.358	3305.42
690.547	3180.5
690.737	3227.6
690.926	3119.06
691.116	3217.36
691.305	3186.64
691.495	3063.76
691.684	3149.78
691.874	3147.73
692.063	3082.19
692.252	3024.85
692.442	3041.23
692.631	3121.1
692.82	3045.33
693.01	3139.54
693.199	3041.23
693.388	2975.7
693.578	3086.29
693.767	3051.47
693.956	2992.08
694.146	3059.67
694.335	2951.12
694.524	2942.93
694.713	3010.51
694.902	2938.84
695.092	3022.8
695.281	2871.25
695.47	2912.21
695.659	2834.39
695.848	2879.44
696.037	3020.75
696.226	2998.23
696.415	2971.6
696.604	2871.25
696.793	2957.27
696.982	2906.07
697.171	2834.39
697.36	2858.96
697.549	2836.44
697.738	2822.1
697.927	2801.62
698.116	2918.36
698.305	2869.2
698.494	2914.26
698.683	2750.42
698.872	2901.97
699.061	2830.29
699.25	2818.01
699.438	2881.49
699.627	2840.53
699.816	2828.24
700.005	2707.41
700.193	2658.26
700.382	2848.72
700.571	2826.2
700.76	2770.9
700.948	2822.1
701.137	2858.96
701.326	2824.15
701.514	2822.1
701.703	2848.72
701.892	2682.84
702.08	2852.82
702.269	2688.98
702.457	2818.01
702.646	2637.78
702.834	2748.37
703.023	2750.42
703.212	2856.92
703.4	2725.85
703.589	2820.05
703.777	2877.4
703.965	2619.35
704.154	2877.4
704.342	2693.08
704.531	2873.3
704.719	2760.66
704.907	2652.12
705.096	2750.42
705.284	2830.29
705.472	2740.18
705.661	2871.25
705.849	2791.38
706.037	2940.88
706.226	2834.39
706.414	2746.33
706.602	2701.27
706.79	2830.29
706.979	2762.71
707.167	2842.58
707.355	2781.14
707.543	2824.15
707.731	2877.4
707.919	2631.64
708.107	2822.1
708.296	2709.46
708.484	2822.1
708.672	2756.57
708.86	2803.67
709.048	2783.19
709.236	2711.51
709.424	2734.04
709.612	2777.05
709.8	2840.53
709.988	2701.27
710.176	2863.06
710.364	2873.3
710.551	2797.53
710.739	2830.29
710.927	2785.24
711.115	2686.93
711.303	2807.77
711.491	2840.53
711.679	2697.17
711.866	2729.94
712.054	2803.67
712.242	2746.33
712.43	2844.63
712.617	2748.37
712.805	2723.8
712.993	2736.09
713.181	2701.27
713.368	2813.91
713.556	2815.96
713.744	2693.08
713.931	2795.48
714.119	2662.36
714.306	2717.65
714.494	2766.81
714.682	2789.33
714.869	2701.27
715.057	2701.27
715.244	2822.1
715.432	2668.5
715.619	2648.02
715.807	2824.15
715.994	2711.51
716.182	2805.72
716.369	2674.65
716.556	2623.45
716.744	2758.61
716.931	2725.85
717.119	2846.68
717.306	2729.94
717.493	2738.13
717.681	2678.74
717.868	2717.65
718.055	2729.94
718.242	2627.54
718.43	2721.75
718.617	2668.5
718.804	2705.37
718.991	2725.85
719.179	2627.54
719.366	2674.65
719.553	2695.13
719.74	2648.02
719.927	2695.13
720.114	2701.27
720.301	2711.51
720.488	2717.65
720.676	2602.97
720.863	2693.08
721.05	2736.09
721.237	2738.13
721.424	2772.95
721.611	2631.64
721.798	2766.81
721.985	2674.65
722.172	2664.41
722.358	2668.5
722.545	2645.98
722.732	2592.73
722.919	2742.23
723.106	2738.13
723.293	2752.47
723.48	2590.68
723.667	2650.07
723.853	2678.74
724.04	2625.5
724.227	2611.16
724.414	2590.68
724.6	2609.11
724.787	2547.67
724.974	2568.15
725.161	2562.01
725.347	2568.15
725.534	2621.4
725.72	2598.87
725.907	2652.12
726.094	2609.11
726.28	2559.96
726.467	2549.72
726.653	2635.74
726.84	2461.66
727.027	2650.07
727.213	2611.16
727.4	2605.02
727.586	2619.35
727.773	2613.21
727.959	2562.01
728.145	2467.8
728.332	2686.93
728.518	2570.2
728.705	2637.78
728.891	2535.39
729.077	2674.65
729.264	2564.06
729.45	2482.14
729.636	2621.4
729.823	2582.49
730.009	2633.69
730.195	2510.81
730.382	2441.18
730.568	2609.11
730.754	2621.4
730.94	2521.05
731.126	2547.67
731.313	2549.72
731.499	2478.04
731.685	2576.34
731.871	2553.82
732.057	2527.19
732.243	2506.71
732.429	2467.8
732.615	2535.39
732.801	2504.67
732.987	2394.08
733.173	2416.6
733.359	2521.05
733.545	2412.51
733.731	2451.42
733.917	2467.8
734.103	2400.22
734.289	2408.41
734.475	2420.7
734.661	2492.38
734.847	2424.79
735.033	2580.44
735.219	2459.61
735.404	2498.52
735.59	2465.75
735.776	2326.49
735.962	2537.43
736.148	2490.33
736.333	2467.8
736.519	2389.98
736.705	2396.12
736.89	2537.43
737.076	2373.6
737.262	2353.12
737.447	2387.93
737.633	2392.03
737.819	2465.75
738.004	2408.41
738.19	2367.45
738.375	2320.35
738.561	2334.68
738.747	2447.32
738.932	2357.21
739.118	2400.22
739.303	2299.87
739.489	2267.1
739.674	2275.29
739.859	2295.77
740.045	2308.06
740.23	2287.58
740.416	2303.96
740.601	2267.1
740.786	2209.76
740.972	2158.56
741.157	2275.29
741.342	2365.4
741.528	2215.9
741.713	2359.26
741.898	2166.75
742.084	2234.33
742.269	2291.68
742.454	2289.63
742.639	2244.57
742.824	2170.85
743.01	2195.42
743.195	2287.58
743.38	2150.37
743.565	2101.22
743.75	1964
743.935	2115.55
744.12	2152.42
744.305	2037.73
744.49	2111.46
744.675	2043.87
744.86	2062.3
745.045	2066.4
745.23	2095.07
745.415	1968.1
745.6	2047.97
745.785	2111.46
745.97	1998.82
746.155	2037.73
746.34	2068.45
746.525	2070.5
746.71	1955.81
746.895	1943.52
747.079	1941.47
747.264	1888.23
747.449	1857.51
747.634	1875.94
747.819	1900.51
748.003	1875.94
748.188	2009.06
748.373	1873.89
748.557	1804.26
748.742	1695.72
748.927	1826.79
749.111	1757.16
749.296	1884.13
749.481	1736.68
749.665	1816.55
749.85	1755.11
750.034	1714.15
750.219	1732.58
750.404	1796.07
750.588	1617.9
750.773	1720.29
750.957	1720.29
751.141	1675.24
751.326	1609.7
751.51	1671.14
751.695	1755.11
751.879	1683.43
752.064	1677.29
752.248	1589.22
752.432	1722.34
752.617	1628.14
752.801	1611.75
752.985	1576.94
753.17	1538.02
753.354	1665
753.538	1638.38
753.722	1597.42
753.907	1484.78
754.091	1458.15
754.275	1497.07
754.459	1472.49
754.643	1421.29
754.828	1470.44
755.012	1433.58
755.196	1363.95
755.38	1384.43
755.564	1466.35
755.748	1398.76
755.932	1378.28
756.116	1345.52
756.3	1382.38
756.484	1409
756.668	1269.74
756.852	1363.95
757.036	1349.61
757.22	1273.84
757.404	1425.39
757.588	1247.21
757.772	1368.04
757.956	1247.21
758.14	1279.98
758.323	1232.88
758.507	1279.98
758.691	1318.89
758.875	1265.64
759.059	1263.6
759.242	1275.88
759.426	1191.92
759.61	1232.88
759.794	1239.02
759.977	1224.69
760.161	1144.81
760.345	1150.96
760.528	1189.87
760.712	1103.86
760.895	1138.67
761.079	1230.83
761.263	1161.2
761.446	1163.25
761.63	1150.96
761.813	1187.82
761.997	1044.46
762.18	1093.62
762.364	1212.4
762.547	1171.44
762.731	1050.61
762.914	1167.34
763.098	1099.76
763.281	1073.14
763.464	1105.9
763.648	1019.89
763.831	1056.75
764.015	991.22
764.198	1060.85
764.381	997.36
764.564	978.93
764.748	999.41
764.931	1054.7
765.114	1038.32
765.297	1040.37
765.481	989.17
765.664	1042.42
765.847	980.98
766.03	1021.94
766.213	956.4
766.397	995.31
766.58	1007.6
766.763	1034.22
766.946	976.88
767.129	1011.7
767.312	927.73
767.495	954.35
767.678	993.26
767.861	1091.57
768.044	962.55
768.227	995.31
768.41	954.35
768.593	976.88
768.776	911.35
768.959	978.93
769.142	929.78
769.324	882.67
769.507	935.92
769.69	882.67
769.873	862.19
770.056	991.22
770.239	897.01
770.421	964.59
770.604	944.11
770.787	931.83
770.97	837.62
771.152	876.53
771.335	872.43
771.518	806.9
771.7	899.06
771.883	892.91
772.066	886.77
772.248	913.39
772.431	817.14
772.613	821.24
772.796	724.98
772.978	770.04
773.161	917.49
773.343	831.48
773.526	741.36
773.708	811
773.891	747.51
774.073	790.52
774.256	790.52
774.438	835.57
774.621	767.99
774.803	694.26
774.985	796.66
775.168	698.36
775.35	712.69
775.532	862.19
775.715	692.21
775.897	763.89
776.079	710.65
776.261	688.12
776.444	731.12
776.626	712.69
776.808	681.97
776.99	716.79
777.173	636.92
777.355	655.35
777.537	704.5
777.719	671.73
777.901	669.69
778.083	610.29
778.265	569.34
778.447	727.03
778.629	653.3
778.811	589.82
778.993	692.21
779.175	700.41
779.357	694.26
779.539	634.87
779.721	593.91
779.903	641.01
780.085	690.17
780.267	661.49
780.449	655.35
780.631	608.25
780.812	573.43
780.994	612.34
781.176	557.05
781.358	645.11
781.54	589.82
781.721	673.78
781.903	614.39
782.085	579.58
782.267	569.34
782.448	538.62
782.63	552.95
782.812	591.86
782.993	552.95
783.175	606.2
783.357	520.18
783.538	505.85
783.72	587.77
783.901	528.38
784.083	503.8
784.264	493.56
784.446	438.27
784.627	511.99
784.809	468.98
784.99	456.7
785.172	491.51
785.353	528.38
785.535	479.22
785.716	495.61
785.897	421.88
786.079	522.23
786.26	393.21
786.441	462.84
786.623	456.7
786.804	376.83
786.985	409.59
787.167	448.51
787.348	419.83
787.529	430.07
787.71	378.87
787.891	321.53
788.073	415.74
788.254	397.31
788.435	475.13
788.616	450.55
788.797	448.51
788.978	366.59
789.159	405.5
789.34	446.46
789.522	376.83
789.703	323.58
789.884	436.22
790.065	366.59
790.246	397.31
790.427	315.39
790.607	342.01
790.788	413.69
790.969	350.2
791.15	440.31
791.331	337.91
791.512	434.17
791.693	339.96
791.874	348.15
792.054	444.41
792.235	360.44
792.416	280.57
792.597	415.74
792.778	372.73
792.958	335.87
793.139	370.68
793.32	323.58
793.5	356.35
793.681	301.05
793.862	305.15
794.042	282.62
794.223	309.24
794.404	311.29
794.584	292.86
794.765	303.1
794.945	344.06
795.126	358.39
795.306	387.07
795.487	317.44
795.667	309.24
795.848	247.8
796.028	311.29
796.209	403.45
796.389	331.77
796.57	313.34
796.75	274.43
796.93	294.91
797.111	288.76
797.291	321.53
797.471	249.85
797.652	354.3
797.832	282.62
798.012	245.76
798.192	229.37
798.373	227.32
798.553	294.91
798.733	266.24
798.913	227.32
799.093	329.72
799.274	233.47
799.454	270.33
799.634	284.67
799.814	342.01
799.994	276.48
800.174	235.52
800.354	217.08
800.534	260.09
800.714	305.15
800.894	282.62
801.074	135.17
801.254	176.13
801.434	290.81
801.614	200.7
801.794	237.56
801.974	577.53
802.154	153.6
802.334	288.76
802.514	296.96
802.693	194.56
802.873	239.61
803.053	266.24
803.233	276.48
803.413	264.19
803.592	141.31
803.772	233.47
803.952	174.08
804.131	223.23
804.311	256
804.491	223.23
804.67	198.65
804.85	227.32
805.03	208.89
805.209	202.75
805.389	270.33
805.568	235.52
805.748	268.28
805.928	215.04
806.107	212.99
806.287	221.18
806.466	227.32
806.646	172.03
806.825	202.75
807.004	174.08
807.184	266.24
807.363	196.61
807.543	204.8
807.722	243.71
807.901	202.75
808.081	239.61
808.26	102.4
808.439	167.93
808.619	192.51
808.798	174.08
808.977	192.51
809.156	196.61
809.336	204.8
809.515	268.28
809.694	153.6
809.873	221.18
810.052	198.65
810.231	167.93
810.411	198.65
810.59	225.28
810.769	133.12
810.948	245.76
811.127	143.36
811.306	116.73
811.485	180.22
811.664	202.75
811.843	210.94
812.022	131.07
812.201	200.7
812.38	204.8
812.559	182.27
812.737	141.31
812.916	151.55
813.095	102.4
813.274	268.28
813.453	178.17
813.632	137.21
813.811	161.79
813.989	104.45
814.168	100.35
814.347	131.07
814.526	104.45
814.704	190.46
814.883	180.22
815.062	182.27
815.24	143.36
815.419	155.65
815.598	167.93
815.776	77.82
815.955	100.35
816.133	200.7
816.312	223.23
816.49	36.86
816.669	155.65
816.847	149.5
817.026	131.07
817.204	143.36
817.383	145.41
817.561	126.97
817.74	262.14
817.918	65.53
818.097	169.98
818.275	104.45
818.453	122.88
818.632	188.41
818.81	112.64
818.988	131.07
819.167	143.36
819.345	88.06
819.523	114.69
819.701	112.64
819.879	129.02
820.058	104.45
820.236	92.16
820.414	153.6
820.592	159.74
820.77	104.45
820.948	163.84
821.127	69.63
821.305	94.21
821.483	75.77
821.661	100.35
821.839	79.87
822.017	110.59
822.195	120.83
822.373	190.46
822.551	59.39
822.729	96.25
822.907	92.16
823.085	110.59
823.262	75.77
823.44	108.54
823.618	139.26
823.796	83.97
823.974	176.13
824.152	86.01
824.329	143.36
824.507	24.58
824.685	61.44
824.863	79.87
825.04	96.25
825.218	108.54
825.396	65.53
825.574	147.45
825.751	192.51
825.929	200.7
826.107	106.49
826.284	106.49
826.462	110.59
826.639	49.15
826.817	108.54
826.994	63.49
827.172	98.3
827.349	165.89
827.527	114.69
827.704	110.59
827.882	149.5
828.059	81.92
828.237	104.45
828.414	122.88
828.591	32.77
828.769	102.4
828.946	75.77
829.124	61.44
829.301	75.77
829.478	118.78
829.655	36.86
829.833	149.5
830.01	112.64
830.187	20.48
830.364	110.59
830.542	114.69
830.719	40.96
830.896	143.36
831.073	65.53
831.25	86.01
831.427	77.82
831.604	120.83
831.782	45.06
831.959	77.82
832.136	20.48
832.313	157.69
832.49	63.49
832.667	131.07
832.844	61.44
833.021	88.06
833.198	71.68
833.374	83.97
833.551	139.26
833.728	108.54
833.905	57.34
834.082	63.49
834.259	18.43
834.436	110.59
834.612	169.98
834.789	174.08
834.966	143.36
835.143	126.97
835.319	71.68
835.496	45.06
835.673	67.58
835.85	47.1
836.026	110.59
836.203	122.88
836.38	88.06
836.556	47.1
836.733	55.3
836.909	126.97
837.086	-18.43
837.262	83.97
837.439	129.02
837.616	-6.14
837.792	59.39
837.968	83.97
838.145	75.77
838.321	88.06
838.498	49.15
838.674	94.21
838.851	92.16
839.027	45.06
839.203	63.49
839.38	55.3
839.556	75.77
839.732	51.2
839.909	94.21
840.085	116.73
840.261	-2.05
840.437	8.19
840.614	6.14
840.79	57.34
840.966	118.78
841.142	90.11
841.318	65.53
841.494	38.91
841.671	57.34
841.847	-12.29
842.023	106.49
842.199	79.87
842.375	100.35
842.551	6.14
842.727	36.86
842.903	65.53
843.079	51.2
843.255	77.82
843.431	75.77
843.607	100.35
843.783	-43.01
843.959	120.83
844.134	79.87
844.31	57.34
844.486	45.06
844.662	34.82
844.838	81.92
845.013	34.82
845.189	18.43
845.365	96.25
845.541	122.88
845.716	51.2
845.892	110.59
846.068	59.39
846.244	38.91
846.419	36.86
846.595	69.63
846.77	104.45
846.946	34.82
847.122	94.21
847.297	20.48
847.473	51.2
847.648	-16.38
847.824	-4.1
847.999	16.38
848.175	32.77
848.35	118.78
848.526	51.2
848.701	34.82
848.876	67.58
849.052	38.91
849.227	51.2
849.403	61.44
849.578	67.58
849.753	22.53
849.929	12.29
850.104	40.96
850.279	67.58
850.454	63.49
850.63	57.34
850.805	40.96
850.98	126.97
851.155	112.64
851.33	59.39
851.505	51.2
851.681	43.01
851.856	8.19
852.031	28.67
852.206	63.49
852.381	73.73
852.556	4.1
852.731	79.87
852.906	28.67
853.081	-6.14
853.256	47.1
853.431	57.34
853.606	77.82
853.781	20.48
853.956	94.21
854.131	-4.1
854.305	4.1
854.48	24.58
854.655	22.53
854.83	47.1
855.005	34.82
855.18	63.49
855.354	-38.91
855.529	67.58
855.704	-45.06
855.879	81.92
856.053	38.91
856.228	122.88
856.403	106.49
856.577	75.77
856.752	16.38
856.926	18.43
857.101	24.58
857.276	28.67
857.45	43.01
857.625	69.63
857.799	45.06
857.974	40.96
858.148	49.15
858.323	69.63
858.497	24.58
858.672	26.62
858.846	38.91
859.02	43.01
859.195	16.38
859.369	24.58
859.543	86.01
859.718	102.4
859.892	-16.38
860.066	65.53
860.241	77.82
860.415	100.35
860.589	34.82
860.763	59.39
860.938	26.62
861.112	-16.38
861.286	-43.01
861.46	47.1
861.634	4.1
861.808	24.58
861.982	108.54
862.157	-24.58
862.331	51.2
862.505	-14.34
862.679	-6.14
862.853	22.53
863.027	73.73
863.201	51.2
863.375	4.1
863.549	98.3
863.722	6.14
863.896	-45.06
864.07	20.48
864.244	57.34
864.418	53.25
864.592	4.1
864.766	40.96
864.939	-4.1
865.113	30.72
865.287	-36.86
865.461	-40.96
865.634	-14.34
865.808	43.01
865.982	-6.14
866.156	0
866.329	81.92
866.503	32.77
866.676	98.3
866.85	137.21
867.024	14.34
867.197	30.72
867.371	77.82
867.544	8.19
867.718	-20.48
867.891	75.77
868.065	0
868.238	22.53
868.412	28.67
868.585	22.53
868.759	32.77
868.932	4.1
869.105	6.14
869.279	-22.53
869.452	-8.19
869.625	20.48
869.799	43.01
869.972	-22.53
870.145	49.15
870.319	6.14
870.492	4.1
870.665	-6.14
870.838	43.01
871.011	-2.05
871.185	-6.14
871.358	47.1
871.531	32.77
871.704	59.39
871.877	49.15
872.05	-20.48
872.223	16.38
872.396	30.72
872.569	40.96
872.742	-10.24
872.915	47.1
873.088	-18.43
873.261	69.63
873.434	-40.96
873.607	55.3
873.78	108.54
873.953	34.82
874.126	8.19
874.299	-81.92
874.471	43.01
874.644	-24.58
874.817	-8.19
874.99	94.21
875.163	-40.96
875.335	75.77
875.508	-6.14
875.681	43.01
875.853	45.06
876.026	-26.62
876.199	10.24
876.371	24.58
876.544	32.77
876.717	34.82
876.889	2.05
877.062	20.48
877.234	40.96
877.407	-26.62
877.579	-36.86
877.752	18.43
877.924	79.87
878.097	83.97
878.269	38.91
878.442	32.77
878.614	-20.48
878.786	55.3
878.959	14.34
879.131	30.72
879.303	22.53
879.476	79.87
879.648	-6.14
879.82	22.53
879.993	-79.87
880.165	28.67
880.337	81.92
880.509	-8.19
880.681	18.43
880.854	30.72
881.026	8.19
881.198	63.49
881.37	-4.1
881.542	-6.14
881.714	36.86
881.886	8.19
882.058	-51.2
882.23	28.67
882.402	-28.67
882.574	-2.05
882.746	-14.34
882.918	53.25
883.09	-28.67
883.262	-45.06
883.434	32.77
883.606	-16.38
883.778	6.14
883.95	45.06
884.122	22.53
884.293	-12.29
884.465	-2.05
884.637	45.06
884.809	6.14
884.98	49.15
885.152	-30.72
885.324	32.77
885.496	8.19
885.667	16.38
885.839	51.2
886.011	40.96
886.182	-24.58
886.354	30.72
886.525	-16.38
886.697	-6.14
886.869	8.19
887.04	18.43
887.212	-6.14
887.383	86.01
887.555	36.86
887.726	55.3
887.897	-8.19
888.069	-4.1
888.24	22.53
888.412	59.39
888.583	4.1
888.754	51.2
888.926	69.63
889.097	57.34
889.268	51.2
889.44	92.16
889.611	-53.25
889.782	59.39
889.953	43.01
890.125	57.34
890.296	14.34
890.467	22.53
890.638	8.19
890.809	4.1
890.98	-24.58
891.151	-14.34
891.323	-18.43
891.494	8.19
891.665	-32.77
891.836	10.24
892.007	-8.19
892.178	55.3
892.349	-14.34
892.52	38.91
892.691	16.38
892.862	16.38
893.032	-22.53
893.203	12.29
893.374	-2.05
893.545	59.39
893.716	43.01
893.887	-14.34
894.057	8.19
894.228	-45.06
894.399	-20.48
894.57	34.82
894.74	-6.14
894.911	0
895.082	61.44
895.253	22.53
895.423	12.29
895.594	10.24
895.764	32.77
895.935	10.24
896.106	-14.34
896.276	-8.19
896.447	-22.53
896.617	-16.38
896.788	-2.05
896.958	2.05
897.129	-32.77
897.299	30.72
897.47	16.38
897.64	26.62
897.81	0
897.981	53.25
898.151	20.48
898.322	40.96
898.492	30.72
898.662	69.63
898.832	-36.86
899.003	-34.82
899.173	16.38
899.343	-57.34
899.513	-22.53
