Data from USB4F104151__65__12-01-52-188.txt Node

Date: Fri Mar 14 12:01:52 EDT 2025
User: louis
Spectrometer: USB4F10415
Trigger mode: 4
Integration Time (sec): 2.000000E-2
Scans to average: 1
Electric dark correction enabled: true
Nonlinearity correction enabled: false
Boxcar width: 0
XAxis mode: Wavelengths
Number of Pixels in Spectrum: 3648
>>>>>Begin Spectral Data<<<<<
178.204	-27.65
178.424	-27.65
178.644	-27.65
178.864	-35.84
179.084	-52.22
179.304	9.22
179.524	-64.51
179.744	-56.32
179.964	35.84
180.184	-7.17
180.404	-7.17
180.624	-21.5
180.844	-50.18
181.064	11.26
181.283	21.5
181.503	39.94
181.723	89.09
181.943	-11.26
182.163	35.84
182.383	-44.03
182.602	150.53
182.822	-23.55
183.042	48.13
183.262	19.46
183.482	-72.7
183.701	-7.17
183.921	-7.17
184.141	50.18
184.361	78.85
184.58	9.22
184.8	27.65
185.02	15.36
185.239	5.12
185.459	62.46
185.679	17.41
185.898	-39.94
186.118	44.03
186.338	89.09
186.557	-1.02
186.777	7.17
186.997	5.12
187.216	46.08
187.436	27.65
187.655	35.84
187.875	25.6
188.095	-5.12
188.314	7.17
188.534	15.36
188.753	-27.65
188.973	-17.41
189.192	48.13
189.412	-7.17
189.631	23.55
189.851	74.75
190.07	1.02
190.29	-33.79
190.509	25.6
190.729	-1.02
190.948	70.65
191.168	62.46
191.387	50.18
191.607	-11.26
191.826	-37.89
192.045	13.31
192.265	-11.26
192.484	-1.02
192.704	5.12
192.923	19.46
193.142	27.65
193.362	33.79
193.581	115.71
193.8	37.89
194.02	76.8
194.239	33.79
194.458	-15.36
194.678	39.94
194.897	37.89
195.116	-35.84
195.335	-19.46
195.555	41.98
195.774	89.09
195.993	-9.22
196.212	46.08
196.432	62.46
196.651	19.46
196.87	23.55
197.089	107.52
197.308	17.41
197.528	-41.98
197.747	3.07
197.966	41.98
198.185	93.18
198.404	-3.07
198.623	3.07
198.842	37.89
199.062	37.89
199.281	76.8
199.5	33.79
199.719	7.17
199.938	-76.8
200.157	-7.17
200.376	-21.5
200.595	3.07
200.814	25.6
201.033	-21.5
201.252	17.41
201.471	56.32
201.69	19.46
201.909	-5.12
202.128	13.31
202.347	17.41
202.566	9.22
202.785	-27.65
203.004	9.22
203.223	80.89
203.442	-17.41
203.661	48.13
203.879	-64.51
204.098	39.94
204.317	-29.7
204.536	105.47
204.755	101.37
204.974	33.79
205.193	25.6
205.411	72.7
205.63	-68.61
205.849	-1.02
206.068	-80.89
206.287	76.8
206.505	72.7
206.724	19.46
206.943	17.41
207.162	-46.08
207.381	1.02
207.599	52.22
207.818	-66.56
208.037	74.75
208.255	29.7
208.474	74.75
208.693	33.79
208.911	64.51
209.13	68.61
209.349	9.22
209.567	48.13
209.786	64.51
210.005	74.75
210.223	15.36
210.442	9.22
210.661	39.94
210.879	31.74
211.098	35.84
211.316	37.89
211.535	44.03
211.753	-11.26
211.972	58.37
212.191	-27.65
212.409	60.42
212.628	72.7
212.846	-33.79
213.065	72.7
213.283	3.07
213.502	19.46
213.72	89.09
213.938	93.18
214.157	31.74
214.375	-7.17
214.594	17.41
214.812	-3.07
215.031	48.13
215.249	11.26
215.467	62.46
215.686	56.32
215.904	123.9
216.122	19.46
216.341	33.79
216.559	7.17
216.778	111.61
216.996	-29.7
217.214	-89.09
217.432	54.27
217.651	-31.74
217.869	76.8
218.087	25.6
218.306	68.61
218.524	41.98
218.742	29.7
218.96	29.7
219.179	7.17
219.397	-11.26
219.615	66.56
219.833	39.94
220.051	95.23
220.27	99.33
220.488	33.79
220.706	-1.02
220.924	-17.41
221.142	54.27
221.36	-9.22
221.578	37.89
221.796	-31.74
222.015	-50.18
222.233	9.22
222.451	62.46
222.669	35.84
222.887	142.33
223.105	31.74
223.323	17.41
223.541	48.13
223.759	5.12
223.977	39.94
224.195	89.09
224.413	3.07
224.631	17.41
224.849	29.7
225.067	58.37
225.285	17.41
225.503	23.55
225.721	-21.5
225.939	-19.46
226.157	17.41
226.375	33.79
226.592	-13.31
226.81	39.94
227.028	52.22
227.246	76.8
227.464	7.17
227.682	39.94
227.9	70.65
228.117	31.74
228.335	31.74
228.553	78.85
228.771	60.42
228.989	31.74
229.206	21.5
229.424	58.37
229.642	-21.5
229.86	33.79
230.077	46.08
230.295	46.08
230.513	-19.46
230.731	21.5
230.948	52.22
231.166	82.94
231.384	-5.12
231.601	-13.31
231.819	13.31
232.037	39.94
232.254	19.46
232.472	37.89
232.689	-33.79
232.907	27.65
233.125	76.8
233.342	1.02
233.56	41.98
233.777	15.36
233.995	48.13
234.213	15.36
234.43	41.98
234.648	-27.65
234.865	-17.41
235.083	15.36
235.3	-31.74
235.518	44.03
235.735	52.22
235.953	80.89
236.17	25.6
236.388	-48.13
236.605	68.61
236.822	-5.12
237.04	13.31
237.257	1.02
237.475	-1.02
237.692	-103.42
237.909	-23.55
238.127	78.85
238.344	-31.74
238.562	60.42
238.779	58.37
238.996	-54.27
239.214	48.13
239.431	44.03
239.648	-66.56
239.865	54.27
240.083	11.26
240.3	64.51
240.517	-39.94
240.735	60.42
240.952	60.42
241.169	62.46
241.386	-68.61
241.603	41.98
241.821	27.65
242.038	66.56
242.255	97.28
242.472	17.41
242.689	33.79
242.907	80.89
243.124	74.75
243.341	15.36
243.558	62.46
243.775	23.55
243.992	23.55
244.209	1.02
244.426	109.57
244.643	-9.22
244.86	27.65
245.078	25.6
245.295	39.94
245.512	21.5
245.729	31.74
245.946	64.51
246.163	37.89
246.38	29.7
246.597	19.46
246.814	-21.5
247.031	-3.07
247.248	-46.08
247.464	-7.17
247.681	-11.26
247.898	64.51
248.115	27.65
248.332	33.79
248.549	95.23
248.766	-25.6
248.983	15.36
249.2	-9.22
249.417	27.65
249.633	-17.41
249.85	-1.02
250.067	68.61
250.284	50.18
250.501	39.94
250.717	25.6
250.934	-9.22
251.151	23.55
251.368	-13.31
251.585	56.32
251.801	17.41
252.018	-48.13
252.235	27.65
252.451	-33.79
252.668	117.76
252.885	23.55
253.102	50.18
253.318	62.46
253.535	13.31
253.752	-64.51
253.968	-7.17
254.185	-31.74
254.401	54.27
254.618	-21.5
254.835	31.74
255.051	31.74
255.268	-7.17
255.484	64.51
255.701	66.56
255.917	76.8
256.134	7.17
256.351	66.56
256.567	-5.12
256.784	31.74
257	-15.36
257.217	17.41
257.433	33.79
257.65	17.41
257.866	25.6
258.082	-29.7
258.299	44.03
258.515	109.57
258.732	-19.46
258.948	3.07
259.165	60.42
259.381	41.98
259.597	-21.5
259.814	39.94
260.03	1.02
260.246	37.89
260.463	21.5
260.679	9.22
260.895	78.85
261.112	-1.02
261.328	56.32
261.544	78.85
261.761	-17.41
261.977	60.42
262.193	48.13
262.409	27.65
262.626	91.13
262.842	46.08
263.058	-13.31
263.274	123.9
263.49	9.22
263.707	-15.36
263.923	-25.6
264.139	-35.84
264.355	29.7
264.571	15.36
264.787	95.23
265.004	99.33
265.22	21.5
265.436	54.27
265.652	7.17
265.868	21.5
266.084	39.94
266.3	13.31
266.516	-29.7
266.732	91.13
266.948	17.41
267.164	-15.36
267.38	5.12
267.596	66.56
267.812	33.79
268.028	-17.41
268.244	27.65
268.46	50.18
268.676	58.37
268.892	56.32
269.108	-31.74
269.324	-5.12
269.54	-11.26
269.756	72.7
269.972	56.32
270.188	48.13
270.403	39.94
270.619	-5.12
270.835	72.7
271.051	68.61
271.267	-19.46
271.483	82.94
271.698	31.74
271.914	11.26
272.13	41.98
272.346	58.37
272.562	13.31
272.777	3.07
272.993	60.42
273.209	31.74
273.425	87.04
273.64	1.02
273.856	99.33
274.072	-9.22
274.287	46.08
274.503	23.55
274.719	46.08
274.934	15.36
275.15	23.55
275.366	95.23
275.581	19.46
275.797	23.55
276.012	29.7
276.228	68.61
276.444	21.5
276.659	58.37
276.875	-7.17
277.09	35.84
277.306	-33.79
277.521	109.57
277.737	7.17
277.952	52.22
278.168	33.79
278.383	35.84
278.599	23.55
278.814	72.7
279.03	-9.22
279.245	35.84
279.461	89.09
279.676	23.55
279.892	11.26
280.107	-15.36
280.322	52.22
280.538	41.98
280.753	21.5
280.969	15.36
281.184	-7.17
281.399	93.18
281.615	21.5
281.83	48.13
282.045	-17.41
282.26	1.02
282.476	-3.07
282.691	21.5
282.906	-33.79
283.122	76.8
283.337	31.74
283.552	78.85
283.767	27.65
283.983	72.7
284.198	44.03
284.413	54.27
284.628	-82.94
284.843	-3.07
285.058	-5.12
285.274	50.18
285.489	-27.65
285.704	64.51
285.919	-35.84
286.134	-7.17
286.349	19.46
286.564	74.75
286.779	91.13
286.995	15.36
287.21	37.89
287.425	7.17
287.64	44.03
287.855	27.65
288.07	-68.61
288.285	58.37
288.5	-7.17
288.715	-58.37
288.93	25.6
289.145	33.79
289.36	31.74
289.575	-78.85
289.79	23.55
290.004	13.31
290.219	62.46
290.434	41.98
290.649	27.65
290.864	-17.41
291.079	3.07
291.294	19.46
291.509	-23.55
291.724	35.84
291.938	9.22
292.153	80.89
292.368	-54.27
292.583	39.94
292.798	82.94
293.012	89.09
293.227	-1.02
293.442	29.7
293.657	58.37
293.871	54.27
294.086	54.27
294.301	72.7
294.516	125.95
294.73	11.26
294.945	68.61
295.16	17.41
295.374	37.89
295.589	23.55
295.804	-3.07
296.018	5.12
296.233	70.65
296.447	13.31
296.662	11.26
296.877	58.37
297.091	37.89
297.306	-25.6
297.52	35.84
297.735	48.13
297.949	21.5
298.164	21.5
298.378	76.8
298.593	39.94
298.807	7.17
299.022	62.46
299.236	80.89
299.451	50.18
299.665	-1.02
299.88	5.12
300.094	-3.07
300.309	7.17
300.523	5.12
300.737	31.74
300.952	31.74
301.166	29.7
301.381	31.74
301.595	-5.12
301.809	-17.41
302.024	60.42
302.238	-11.26
302.452	35.84
302.667	68.61
302.881	27.65
303.095	13.31
303.309	62.46
303.524	25.6
303.738	58.37
303.952	46.08
304.166	-35.84
304.381	46.08
304.595	99.33
304.809	-105.47
305.023	33.79
305.237	23.55
305.452	119.81
305.666	7.17
305.88	46.08
306.094	41.98
306.308	74.75
306.522	52.22
306.736	50.18
306.95	78.85
307.164	89.09
307.379	52.22
307.593	31.74
307.807	87.04
308.021	87.04
308.235	33.79
308.449	60.42
308.663	-54.27
308.877	105.47
309.091	41.98
309.305	70.65
309.519	-1.02
309.733	128
309.947	-3.07
310.161	105.47
310.374	21.5
310.588	78.85
310.802	21.5
311.016	11.26
311.23	44.03
311.444	19.46
311.658	35.84
311.872	84.99
312.085	68.61
312.299	58.37
312.513	146.43
312.727	-1.02
312.941	-15.36
313.154	35.84
313.368	44.03
313.582	15.36
313.796	41.98
314.009	62.46
314.223	15.36
314.437	37.89
314.651	37.89
314.864	21.5
315.078	76.8
315.292	-62.46
315.505	33.79
315.719	31.74
315.933	-44.03
316.146	41.98
316.36	44.03
316.573	-3.07
316.787	7.17
317.001	17.41
317.214	-41.98
317.428	37.89
317.641	-1.02
317.855	-15.36
318.068	-1.02
318.282	7.17
318.495	17.41
318.709	39.94
318.922	-64.51
319.136	1.02
319.349	72.7
319.563	-25.6
319.776	21.5
319.99	52.22
320.203	80.89
320.417	-5.12
320.63	66.56
320.843	21.5
321.057	60.42
321.27	37.89
321.483	37.89
321.697	-29.7
321.91	-52.22
322.124	-23.55
322.337	-7.17
322.55	-37.89
322.763	9.22
322.977	-21.5
323.19	9.22
323.403	56.32
323.617	89.09
323.83	7.17
324.043	21.5
324.256	-3.07
324.469	84.99
324.683	113.66
324.896	15.36
325.109	1.02
325.322	-15.36
325.535	105.47
325.748	44.03
325.962	-33.79
326.175	1.02
326.388	89.09
326.601	39.94
326.814	44.03
327.027	15.36
327.24	152.57
327.453	9.22
327.666	23.55
327.879	11.26
328.092	44.03
328.305	101.37
328.518	33.79
328.731	25.6
328.944	25.6
329.157	13.31
329.37	17.41
329.583	31.74
329.796	89.09
330.009	44.03
330.222	78.85
330.435	64.51
330.648	33.79
330.861	-19.46
331.073	76.8
331.286	48.13
331.499	82.94
331.712	64.51
331.925	44.03
332.138	54.27
332.35	99.33
332.563	-58.37
332.776	64.51
332.989	72.7
333.202	50.18
333.414	5.12
333.627	39.94
333.84	11.26
334.053	7.17
334.265	5.12
334.478	19.46
334.691	48.13
334.903	29.7
335.116	3.07
335.329	21.5
335.541	138.24
335.754	13.31
335.966	17.41
336.179	3.07
336.392	52.22
336.604	-60.42
336.817	70.65
337.029	99.33
337.242	39.94
337.454	33.79
337.667	-60.42
337.88	1.02
338.092	31.74
338.305	48.13
338.517	19.46
338.729	31.74
338.942	13.31
339.154	39.94
339.367	-21.5
339.579	44.03
339.792	46.08
340.004	41.98
340.217	11.26
340.429	-11.26
340.641	-23.55
340.854	95.23
341.066	105.47
341.278	-44.03
341.491	138.24
341.703	-7.17
341.915	52.22
342.128	37.89
342.34	15.36
342.552	39.94
342.764	-11.26
342.977	-15.36
343.189	13.31
343.401	-1.02
343.613	117.76
343.826	21.5
344.038	-29.7
344.25	99.33
344.462	78.85
344.674	29.7
344.886	-13.31
345.099	15.36
345.311	15.36
345.523	5.12
345.735	-13.31
345.947	109.57
346.159	17.41
346.371	29.7
346.583	-25.6
346.795	64.51
347.007	21.5
347.219	97.28
347.431	27.65
347.643	70.65
347.855	-5.12
348.067	17.41
348.279	5.12
348.491	48.13
348.703	17.41
348.915	74.75
349.127	33.79
349.339	13.31
349.551	103.42
349.763	9.22
349.975	66.56
350.187	-11.26
350.399	44.03
350.61	58.37
350.822	74.75
351.034	50.18
351.246	15.36
351.458	-31.74
351.669	56.32
351.881	39.94
352.093	-1.02
352.305	41.98
352.517	41.98
352.728	101.37
352.94	70.65
353.152	46.08
353.363	-1.02
353.575	70.65
353.787	97.28
353.999	54.27
354.21	52.22
354.422	-31.74
354.633	1.02
354.845	54.27
355.057	27.65
355.268	29.7
355.48	-5.12
355.692	31.74
355.903	89.09
356.115	37.89
356.326	37.89
356.538	50.18
356.749	70.65
356.961	52.22
357.172	44.03
357.384	1.02
357.595	111.61
357.807	80.89
358.018	91.13
358.23	-58.37
358.441	119.81
358.653	-11.26
358.864	50.18
359.075	-1.02
359.287	35.84
359.498	66.56
359.709	-19.46
359.921	31.74
360.132	48.13
360.344	27.65
360.555	13.31
360.766	97.28
360.977	9.22
361.189	50.18
361.4	64.51
361.611	60.42
361.823	64.51
362.034	5.12
362.245	19.46
362.456	91.13
362.667	35.84
362.879	95.23
363.09	13.31
363.301	70.65
363.512	62.46
363.723	-58.37
363.935	33.79
364.146	72.7
364.357	-35.84
364.568	84.99
364.779	-17.41
364.99	58.37
365.201	27.65
365.412	41.98
365.623	15.36
365.834	97.28
366.045	17.41
366.256	-27.65
366.467	52.22
366.678	25.6
366.889	1.02
367.1	9.22
367.311	-19.46
367.522	72.7
367.733	72.7
367.944	31.74
368.155	-5.12
368.366	-29.7
368.577	41.98
368.788	50.18
368.999	-15.36
369.209	70.65
369.42	76.8
369.631	99.33
369.842	15.36
370.053	-9.22
370.264	50.18
370.474	132.09
370.685	31.74
370.896	-35.84
371.107	48.13
371.317	74.75
371.528	48.13
371.739	60.42
371.95	99.33
372.16	13.31
372.371	-21.5
372.582	50.18
372.792	27.65
373.003	48.13
373.214	-5.12
373.424	25.6
373.635	9.22
373.846	111.61
374.056	21.5
374.267	56.32
374.477	64.51
374.688	21.5
374.898	41.98
375.109	54.27
375.319	25.6
375.53	87.04
375.74	29.7
375.951	7.17
376.161	46.08
376.372	68.61
376.582	70.65
376.793	72.7
377.003	46.08
377.214	109.57
377.424	21.5
377.635	76.8
377.845	89.09
378.055	56.32
378.266	-39.94
378.476	103.42
378.686	39.94
378.897	-50.18
379.107	109.57
379.317	128
379.528	44.03
379.738	-3.07
379.948	84.99
380.158	72.7
380.369	15.36
380.579	48.13
380.789	84.99
380.999	87.04
381.21	11.26
381.42	115.71
381.63	107.52
381.84	64.51
382.05	9.22
382.261	109.57
382.471	68.61
382.681	27.65
382.891	123.9
383.101	50.18
383.311	35.84
383.521	97.28
383.731	25.6
383.941	93.18
384.151	9.22
384.361	5.12
384.571	7.17
384.781	15.36
384.991	56.32
385.201	70.65
385.411	97.28
385.621	35.84
385.831	91.13
386.041	70.65
386.251	-1.02
386.461	64.51
386.671	1.02
386.881	115.71
387.091	-15.36
387.301	78.85
387.511	52.22
387.72	52.22
387.93	44.03
388.14	31.74
388.35	52.22
388.56	76.8
388.769	33.79
388.979	50.18
389.189	66.56
389.399	80.89
389.609	48.13
389.818	76.8
390.028	58.37
390.238	76.8
390.447	39.94
390.657	76.8
390.867	-37.89
391.076	68.61
391.286	17.41
391.496	68.61
391.705	46.08
391.915	89.09
392.125	56.32
392.334	41.98
392.544	60.42
392.753	58.37
392.963	76.8
393.172	91.13
393.382	56.32
393.591	105.47
393.801	76.8
394.01	113.66
394.22	58.37
394.429	125.95
394.639	50.18
394.848	54.27
395.058	25.6
395.267	117.76
395.477	46.08
395.686	119.81
395.895	25.6
396.105	130.05
396.314	89.09
396.524	107.52
396.733	11.26
396.942	105.47
397.152	76.8
397.361	136.19
397.57	95.23
397.78	56.32
397.989	136.19
398.198	138.24
398.407	72.7
398.617	23.55
398.826	95.23
399.035	128
399.244	93.18
399.453	117.76
399.663	148.48
399.872	128
400.081	39.94
400.29	136.19
400.499	66.56
400.708	173.05
400.917	119.81
401.127	62.46
401.336	46.08
401.545	125.95
401.754	195.58
401.963	209.92
402.172	138.24
402.381	164.86
402.59	84.99
402.799	91.13
403.008	138.24
403.217	93.18
403.426	97.28
403.635	46.08
403.844	72.7
404.053	144.38
404.262	111.61
404.471	84.99
404.68	158.72
404.888	48.13
405.097	119.81
405.306	222.2
405.515	140.29
405.724	148.48
405.933	158.72
406.142	183.29
406.35	99.33
406.559	152.57
406.768	207.87
406.977	209.92
407.185	197.63
407.394	179.2
407.603	220.16
407.812	189.44
408.02	232.44
408.229	211.96
408.438	236.54
408.646	203.77
408.855	207.87
409.064	287.74
409.272	183.29
409.481	269.31
409.69	179.2
409.898	201.72
410.107	361.47
410.315	244.73
410.524	269.31
410.733	336.89
410.941	369.66
411.15	285.69
411.358	367.61
411.567	365.56
411.775	373.75
411.984	353.27
412.192	369.66
412.401	396.28
412.609	422.91
412.818	427
413.026	443.39
413.234	443.39
413.443	523.26
413.651	490.49
413.86	541.69
414.068	492.54
414.276	562.17
414.485	549.88
414.693	619.51
414.901	674.81
415.11	584.7
415.318	670.71
415.526	728.05
415.734	699.38
415.943	683
416.151	758.77
416.359	711.67
416.567	719.86
416.776	842.74
416.984	846.84
417.192	842.74
417.4	920.56
417.608	900.08
417.817	936.95
418.025	1035.25
418.233	1076.21
418.441	1045.49
418.649	1031.15
418.857	1215.47
419.065	1295.34
419.273	1121.26
419.481	1227.76
419.689	1244.14
419.897	1254.38
420.105	1354.73
420.313	1420.27
420.521	1428.46
420.729	1489.9
420.937	1450.99
421.145	1557.48
421.353	1670.12
421.561	1702.89
421.769	1799.14
421.977	1870.82
422.185	1801.19
422.393	1944.55
422.601	2155.49
422.809	1981.41
423.017	2137.06
423.224	2100.19
423.432	2192.35
423.64	2270.17
423.848	2489.31
424.056	2339.8
424.263	2620.38
424.471	2571.22
424.679	2675.67
424.887	2636.76
425.094	2773.97
425.302	2903
425.51	2849.75
425.718	2950.1
425.925	3079.12
426.133	3240.91
426.341	3421.13
426.548	3541.96
426.756	3486.67
426.964	3554.25
427.171	3843.01
427.379	3963.84
427.586	4033.47
427.794	4123.59
428.001	4301.76
428.209	4426.68
428.417	4271.04
428.624	4821.94
428.832	4635.58
429.039	4604.86
429.247	4709.3
429.454	5084.08
429.662	5399.47
429.869	5047.22
430.076	5540.78
430.284	5348.27
430.491	5483.44
430.699	5983.14
430.906	5804.97
431.114	6065.06
431.321	6220.71
431.528	6323.1
431.736	6716.31
431.943	7035.8
432.15	6970.26
432.358	6728.6
432.565	7349.14
432.772	7336.85
432.979	7619.47
433.187	7783.31
433.394	7732.11
433.601	8504.19
433.808	8330.11
434.016	8147.84
434.223	8510.33
434.43	9098.1
434.637	8954.74
434.844	9577.33
435.052	9825.13
435.259	9597.81
435.466	9825.13
435.673	9487.22
435.88	10281.83
436.087	10629.98
436.294	10810.2
436.501	10462.05
436.708	10883.93
436.915	11221.84
437.122	11529.04
437.329	11440.98
437.537	11971.4
437.743	12198.73
437.95	12170.05
438.157	12739.39
438.364	13056.82
438.571	13085.5
438.778	13230.9
438.985	14533.41
439.192	13929.26
439.399	14342.95
439.606	14011.18
439.813	14670.62
440.02	15766.29
440.227	15483.67
440.433	15174.42
440.64	15946.51
440.847	15635.22
441.054	16358.15
441.261	16943.87
441.467	16909.05
441.674	17378.04
441.881	18012.91
442.088	17752.82
442.294	17740.53
442.501	17961.71
442.708	18518.76
442.914	19393.24
443.121	20296.39
443.328	19847.89
443.534	20923.07
443.741	20273.87
443.948	20292.3
444.154	21719.73
444.361	21609.14
444.568	21430.97
444.774	21682.87
444.981	21852.85
445.187	22835.88
445.394	23487.13
445.6	23274.14
445.807	25256.57
446.013	24222.35
446.22	24773.25
446.426	25815.67
446.633	25860.73
446.839	26675.82
447.046	25766.52
447.252	27191.91
447.459	27062.88
447.665	27173.47
447.871	28406.35
448.078	29463.1
448.284	28154.45
448.491	28891.72
448.697	29985.33
448.903	30935.59
449.11	30591.53
449.316	29915.7
449.522	30779.95
449.728	31179.3
449.935	31431.2
450.141	31842.84
450.347	32338.45
450.553	31582.75
450.76	31808.03
450.966	33040.9
451.172	32332.31
451.378	33559.04
451.584	32334.35
451.791	33466.88
451.997	33180.17
452.203	33747.45
452.409	33794.56
452.615	33716.73
452.821	32412.18
453.027	32166.42
453.233	33745.41
453.44	32752.14
453.646	32848.39
453.852	32950.79
454.058	33647.1
454.264	32250.39
454.47	32934.41
454.676	32451.09
454.882	33374.72
455.088	30374.45
455.294	30777.9
455.5	30964.26
455.705	31607.33
455.911	30265.91
456.117	29649.47
456.323	29426.24
456.529	27865.69
456.735	29188.67
456.941	28320.34
457.147	27621.98
457.352	27021.92
457.558	26577.51
457.764	26604.14
457.97	26374.77
458.176	25707.13
458.381	25444.99
458.587	24177.3
458.793	24427.15
458.999	23218.85
459.204	24730.25
459.41	24267.41
459.616	22454.95
459.821	22319.79
460.027	22436.52
460.233	21760.69
460.438	20738.76
460.644	21101.25
460.85	19997.39
461.055	19745.49
461.261	19692.24
461.466	18313.96
461.672	17681.14
461.878	18916.06
462.083	17658.61
462.289	17511.16
462.494	17298.17
462.7	16665.35
462.905	16050.96
463.111	16530.18
463.316	16366.34
463.522	16245.51
463.727	16081.67
463.932	16134.92
464.138	16309
464.343	16122.63
464.549	15682.32
464.754	16247.56
464.959	15981.32
465.165	15930.12
465.37	15137.56
465.575	14809.89
465.781	15500.05
465.986	15555.35
466.191	14973.72
466.397	14752.54
466.602	14082.86
466.807	14433.06
467.012	14474.02
467.218	14392.1
467.423	14396.2
467.628	14312.23
467.833	14807.84
468.038	14445.35
468.244	13988.65
468.449	14457.64
468.654	14125.86
468.859	13908.78
469.064	13986.6
469.269	13261.62
469.474	13372.21
469.679	13675.31
469.885	13288.25
470.09	13624.11
470.295	13554.48
470.5	13153.08
470.705	12999.48
470.91	12778.3
471.115	12581.7
471.32	13093.69
471.525	12806.97
471.73	12655.42
471.935	12555.07
472.139	12106.57
472.344	12272.45
472.549	12251.97
472.754	12137.29
472.959	11690.83
473.164	11166.55
473.369	11330.39
473.574	11883.34
473.778	11553.62
473.983	11438.93
474.188	11535.18
474.393	10959.7
474.598	11010.9
474.802	10750.81
475.007	10738.52
475.212	10756.96
475.417	10382.18
475.621	10406.75
475.826	10586.97
476.031	10089.32
476.235	10134.37
476.44	10163.04
476.645	9941.86
476.849	9964.39
477.054	10021.74
477.259	9905
477.463	9855.85
477.668	9479.02
477.872	9786.22
478.077	9292.66
478.282	9255.79
478.486	9171.83
478.691	9153.4
478.895	8971.13
479.1	9132.92
479.304	8936.31
479.509	8903.54
479.713	8903.54
479.918	8743.8
480.122	8747.9
480.326	8688.51
480.531	8547.2
480.735	8665.98
480.94	8659.84
481.144	8786.81
481.348	8362.88
481.553	8496
481.757	8221.57
481.961	8409.98
482.166	8549.25
482.37	8403.84
482.574	8350.59
482.778	8268.67
482.983	8518.53
483.187	8287.11
483.391	8452.99
483.595	8299.39
483.8	8301.44
484.004	8227.71
484.208	8352.64
484.412	8364.93
484.616	8428.42
484.821	8242.05
485.025	8207.23
485.229	8307.59
485.433	8188.8
485.637	8457.09
485.841	8323.97
486.045	8303.49
486.249	8252.29
486.453	8309.63
486.657	8293.25
486.861	8543.1
487.065	8196.99
487.269	8354.69
487.473	8209.28
487.677	8471.42
487.881	8354.69
488.085	8276.87
488.289	8350.59
488.493	8340.35
488.697	8475.52
488.901	8293.25
489.105	8344.45
489.309	8207.23
489.512	8332.16
489.716	8504.19
489.92	8303.49
490.124	8303.49
490.328	8508.29
490.531	8438.66
490.735	8559.49
490.939	8420.22
491.143	8512.38
491.346	8463.23
491.55	8577.92
491.754	8502.14
491.958	8741.75
492.161	8524.67
492.365	8684.41
492.569	8688.51
492.772	8797.05
492.976	8670.08
493.18	8870.78
493.383	9048.95
493.587	8975.22
493.79	9116.53
493.994	9073.53
494.197	9239.41
494.401	9098.1
494.605	9251.7
494.808	9311.09
495.012	9315.19
495.215	9526.13
495.419	9433.97
495.622	9395.06
495.825	9673.58
496.029	9569.13
496.232	9599.85
496.436	9780.07
496.639	9921.38
496.843	9948.01
497.046	9984.87
497.249	10273.64
497.453	10255.2
497.656	10380.13
497.859	10390.37
498.063	10675.04
498.266	10951.51
498.469	10654.56
498.673	10795.87
498.876	10820.44
499.079	11072.34
499.282	11043.67
499.485	11230.04
499.689	11287.38
499.892	11281.24
500.095	11473.74
500.298	11701.07
500.501	11709.26
500.705	11993.93
500.908	12176.2
501.111	12268.36
501.314	12327.75
501.517	12581.7
501.72	12487.49
501.923	12524.35
502.126	12964.67
502.329	13284.15
502.532	13208.37
502.735	13341.49
502.938	13669.17
503.141	13355.83
503.344	13710.13
503.547	13689.65
503.75	13865.77
503.953	14293.8
504.156	14207.78
504.359	14332.71
504.562	14476.07
504.765	14826.27
504.968	14805.79
505.17	15379.22
505.373	15057.69
505.576	15428.37
505.779	15360.79
505.982	15555.35
506.185	16005.9
506.387	15852.3
506.59	16122.63
506.793	16255.75
506.996	16376.58
507.198	16622.34
507.401	16472.84
507.604	16988.92
507.807	17218.3
508.009	17103.61
508.212	17666.8
508.415	17470.2
508.617	17732.34
508.82	17953.52
509.022	17801.97
509.225	18498.28
509.428	18363.11
509.63	18463.46
509.833	18559.72
510.035	19094.24
510.238	18721.51
510.44	19426.01
510.643	19708.63
510.845	19714.77
511.048	19667.67
511.25	19792.59
511.453	20003.53
511.655	20669.12
511.858	20392.65
512.06	20619.97
512.262	21183.16
512.465	20912.83
512.667	21246.65
512.87	21416.63
513.072	21502.65
513.274	21828.27
513.477	22090.41
513.679	22315.69
513.881	22434.47
514.084	22436.52
514.286	22639.27
514.488	22799.01
514.69	23145.12
514.893	23315.1
515.095	23530.14
515.297	23790.23
515.499	23911.06
515.701	24085.14
515.904	24291.98
516.106	24529.55
516.308	24345.23
516.51	25029.25
516.712	24599.18
516.914	24926.85
517.116	25475.71
517.318	25608.83
517.52	25627.26
517.722	25604.73
517.925	25791.09
518.127	26444.4
518.329	26659.43
518.531	26399.34
518.733	27056.74
518.935	27120.23
519.136	27247.2
519.338	27759.19
519.54	27681.37
519.742	28033.62
519.944	27986.52
520.146	28121.68
520.348	28705.35
520.55	28600.91
520.752	28955.21
520.954	29379.14
521.155	29016.65
521.357	29469.25
521.559	29651.52
521.761	29700.67
521.963	29717.05
522.164	29966.9
522.366	30460.46
522.568	30439.98
522.77	30573.1
522.971	31212.07
523.173	30689.84
523.375	30704.17
523.576	30970.41
523.778	30984.74
523.98	31629.85
524.181	31562.27
524.383	31910.43
524.584	31961.62
524.786	31689.24
524.988	31742.49
525.189	32619.02
525.391	32524.82
525.592	32662.03
525.794	32854.54
525.995	32705.04
526.197	32965.13
526.398	32659.98
526.6	32987.66
526.801	33210.89
527.003	33454.59
527.204	32983.56
527.406	33522.18
527.607	33350.15
527.808	33774.08
528.01	33309.19
528.211	33503.74
528.412	34423.28
528.614	34109.94
528.815	33823.23
529.016	34273.78
529.218	34507.25
529.419	34132.47
529.62	34218.49
529.822	34318.84
530.023	34101.75
530.224	34462.19
530.425	34392.56
530.626	34167.29
530.828	34077.18
531.029	34675.18
531.23	34339.32
531.431	34707.95
531.632	34937.32
531.833	34681.33
532.035	34615.79
532.236	34882.03
532.437	34994.67
532.638	34652.66
532.839	34996.71
533.04	34716.14
533.241	34382.32
533.442	35172.84
533.643	34658.8
533.844	34892.27
534.045	34974.19
534.246	34367.99
534.447	35203.56
534.648	34787.82
534.849	34701.81
535.05	34488.82
535.251	34517.49
535.451	34628.08
535.652	34472.43
535.853	34886.12
536.054	34896.36
536.255	34961.9
536.456	34675.18
536.657	35174.89
536.857	34644.46
537.058	34691.57
537.259	34996.71
537.46	34755.05
537.66	34609.65
537.861	34449.91
538.062	34759.15
538.263	34626.03
538.463	34619.89
538.664	34613.74
538.865	34671.09
539.065	34793.97
539.266	34175.48
539.466	35066.34
539.667	34347.51
539.868	35095.02
540.068	35084.78
540.269	34636.27
540.469	34828.78
540.67	34505.2
540.87	34703.85
541.071	34402.8
541.271	34802.16
541.472	34681.33
541.672	34439.67
541.873	34294.26
542.073	34259.45
542.274	34574.83
542.474	34359.8
542.675	34277.88
542.875	34439.67
543.075	34259.45
543.276	34173.43
543.476	34583.02
543.676	33862.14
543.877	34064.89
544.077	34611.7
544.277	34122.23
544.478	34460.15
544.678	34652.66
544.878	34273.78
545.078	34050.55
545.279	34066.94
545.479	34290.16
545.679	34177.53
545.879	34208.25
546.079	34071.03
546.28	34222.58
546.48	33937.91
546.68	34343.41
546.88	34374.13
547.08	33980.92
547.28	34281.97
547.48	33843.71
547.68	33690.11
547.88	33982.97
548.081	34177.53
548.281	34159.09
548.481	34052.6
548.681	34400.76
548.881	33989.11
549.081	34372.08
549.28	33808.89
549.48	34273.78
549.68	33806.84
549.88	34155
550.08	33663.49
550.28	34132.47
550.48	33499.65
550.68	33880.57
550.88	33473.03
551.08	33565.18
551.279	33788.41
551.479	33530.37
551.679	33978.87
551.879	33868.28
552.079	33952.25
552.278	33634.81
552.478	33673.73
552.678	33600
552.878	33942.01
553.077	33425.92
553.277	33505.79
553.477	34097.66
553.676	33794.56
553.876	33569.28
554.076	33387.01
554.275	33397.25
554.475	33513.98
554.674	33602.05
554.874	33538.56
555.074	33604.1
555.273	33640.96
555.473	33636.86
555.672	33374.72
555.872	33317.38
556.071	33466.88
556.271	33647.1
556.47	33438.21
556.67	33180.17
556.869	33325.57
557.068	33249.8
557.268	33022.47
557.467	33182.21
557.667	33028.62
557.866	33077.77
558.065	32848.39
558.265	32815.63
558.464	32746
558.663	33268.23
558.863	32764.43
559.062	33495.55
559.261	32619.02
559.461	32948.75
559.66	32809.48
559.859	32989.7
560.058	32543.25
560.258	32858.63
560.457	32557.58
560.656	32848.39
560.855	32258.58
561.054	32674.32
561.253	32391.7
561.453	32555.54
561.652	32782.86
561.851	32426.51
562.05	32074.26
562.249	32000.54
562.448	32477.71
562.647	32385.55
562.846	32414.23
563.045	32485.9
563.244	31951.38
563.443	32299.54
563.642	32266.77
563.841	32094.74
564.04	31803.93
564.239	31982.1
564.438	31785.5
564.637	31791.64
564.836	31648.29
565.035	31912.47
565.234	31750.68
565.432	31644.19
565.631	31549.98
565.83	31582.75
566.029	31351.33
566.228	31537.69
566.427	31152.68
566.625	31513.12
566.824	31117.86
567.023	31566.37
567.222	30738.99
567.42	31332.9
567.619	30849.58
567.818	30980.65
568.016	30816.81
568.215	31240.74
568.414	31031.85
568.612	30917.16
568.811	30941.74
569.01	30769.71
569.208	30689.84
569.407	30634.54
569.605	30712.36
569.804	30609.96
570.002	30292.53
570.201	30822.95
570.4	30313.01
570.598	30267.95
570.797	30202.42
570.995	30364.21
571.193	29860.41
571.392	30183.99
571.59	29776.44
571.789	29987.38
571.987	29755.96
572.186	29882.94
572.384	29663.8
572.582	29753.91
572.781	29805.11
572.979	29305.41
573.177	29485.63
573.376	29555.26
573.574	29495.87
573.772	29794.87
573.971	29258.31
574.169	29024.84
574.367	29129.28
574.565	29235.78
574.763	28809.8
574.962	29588.03
575.16	29041.22
575.358	29012.55
575.556	28717.64
575.754	28924.49
575.952	28494.41
576.151	28887.62
576.349	28357.2
576.547	28414.54
576.745	28424.78
576.943	28432.97
577.141	28265.04
577.339	28445.26
577.537	28578.38
577.735	27828.82
577.933	28162.64
578.131	27843.16
578.329	27935.32
578.527	27581.02
578.725	27621.98
578.923	27740.76
579.121	27796.06
579.319	27599.45
579.516	27968.09
579.714	27920.98
579.912	27802.2
580.11	27484.76
580.308	27419.23
580.506	27304.54
580.704	26626.67
580.901	27089.51
581.099	27452
581.297	27052.64
581.495	26858.09
581.692	26894.95
581.89	27023.97
582.088	26878.57
582.285	26462.83
582.483	26724.97
582.681	26700.39
582.878	26538.6
583.076	26303.09
583.274	26833.51
583.471	26501.74
583.669	26032.75
583.866	26178.16
584.064	26233.46
584.262	26024.56
584.459	26102.39
584.657	25873.01
584.854	26198.64
585.052	25600.63
585.249	25635.45
585.447	25645.69
585.644	25789.05
585.841	25739.9
586.039	25778.81
586.236	25334.4
586.434	25240.19
586.631	25268.86
586.828	25184.9
587.026	25150.08
587.223	25141.89
587.42	25021.06
587.618	24918.66
587.815	24896.13
588.012	24894.08
588.21	24883.84
588.407	24742.53
588.604	24496.78
588.801	24396.43
588.999	24486.54
589.196	24488.59
589.393	24246.93
589.59	24427.15
589.787	24308.37
589.984	24220.3
590.182	23761.56
590.379	24115.86
590.576	23933.59
590.773	24025.75
590.97	23755.41
591.167	23788.18
591.364	23679.64
591.561	23999.12
591.758	23513.75
591.955	23331.48
592.152	23323.29
592.349	23278.24
592.546	23405.21
592.743	23386.78
592.94	22905.51
593.137	23472.79
593.334	23622.3
593.531	22889.12
593.727	23169.69
593.924	22889.12
594.121	22891.17
594.318	22964.9
594.515	22489.77
594.712	22698.66
594.908	22649.51
595.105	22370.99
595.302	22368.94
595.499	22325.93
595.696	22393.51
595.892	22250.16
596.089	22424.23
596.286	22129.33
596.482	22188.72
596.679	22053.55
596.876	22192.81
597.072	21680.82
597.269	22151.85
597.466	21858.99
597.662	21662.39
597.859	21693.11
598.055	21439.16
598.252	21615.29
598.448	21514.94
598.645	21471.93
598.841	21056.19
599.038	21371.58
599.234	21228.22
599.431	21037.76
599.627	20824.77
599.824	21285.56
600.02	20847.3
600.217	21457.59
600.413	20880.07
600.609	20435.66
600.806	20628.17
601.002	20632.26
601.198	20370.12
601.395	20630.21
601.591	20493
601.787	20591.3
601.984	20320.97
602.18	20521.67
602.376	20130.51
602.572	20273.87
602.769	20144.84
602.965	19993.29
603.161	20226.76
603.357	19516.12
603.553	19974.86
603.75	19931.86
603.946	19651.28
604.142	19698.39
604.338	19567.32
604.534	19677.91
604.73	19512.02
604.926	19221.21
605.122	19753.68
605.318	19331.8
605.514	19190.49
605.71	19102.43
605.906	18983.65
606.102	19133.15
606.298	19348.18
606.494	19094.24
606.69	19016.41
606.886	19301.08
607.082	18830.05
607.278	18948.83
607.474	18485.99
607.67	18959.07
607.866	18676.45
608.062	18631.4
608.257	18746.08
608.453	18397.93
608.649	18410.22
608.845	18471.65
609.041	18658.02
609.236	18350.82
609.432	18459.37
609.628	18406.12
609.824	18385.64
610.019	18330.34
610.215	18082.54
610.411	18154.22
610.606	18205.42
610.802	18402.02
610.998	18070.25
611.193	18191.08
611.389	17797.87
611.584	17955.57
611.78	17744.63
611.976	17900.27
612.171	17881.84
612.367	18057.96
612.562	17744.63
612.758	17330.94
612.953	17697.52
613.149	17728.24
613.344	17593.08
613.539	17996.53
613.735	17779.44
613.93	17502.96
614.126	17353.46
614.321	17914.61
614.517	17431.29
614.712	17443.57
614.907	17224.44
615.103	17410.81
615.298	17380.09
615.493	17361.66
615.688	16978.68
615.884	17464.05
616.079	17206.01
616.274	17308.41
616.47	17226.49
616.665	17093.37
616.86	17246.97
617.055	17179.39
617.25	17068.8
617.445	16954.11
617.641	16759.55
617.836	17050.36
618.031	16777.98
618.226	16665.35
618.421	16548.61
618.616	17017.6
618.811	16601.86
619.006	16784.13
619.201	16478.98
619.396	16399.11
619.591	16030.48
619.786	16538.37
619.981	16030.48
620.176	16292.62
620.371	15958.8
620.566	16036.62
620.761	15848.21
620.956	15989.52
621.151	15692.56
621.346	16063.24
621.541	15553.3
621.735	15760.14
621.93	15528.72
622.125	15569.68
622.32	15225.62
622.515	15545.11
622.709	15252.25
622.904	15254.3
623.099	15229.72
623.294	15139.61
623.488	14912.28
623.683	14934.81
623.878	14463.78
624.072	14695.2
624.267	14502.69
624.462	14678.82
624.656	14457.64
624.851	14805.79
625.046	14412.58
625.24	14029.61
625.435	14218.02
625.629	13994.79
625.824	13935.4
626.018	13927.21
626.213	13785.9
626.407	13802.29
626.602	13658.93
626.796	13728.56
626.991	13816.62
627.185	13364.02
627.38	13464.37
627.574	13278.01
627.768	13130.55
627.963	13050.68
628.157	13122.36
628.352	13155.13
628.546	12708.67
628.74	12991.29
628.935	12993.34
629.129	12903.23
629.323	12766.01
629.517	12716.86
629.712	12720.96
629.906	12690.24
630.1	12604.22
630.294	12469.06
630.489	12170.05
630.683	12333.89
630.877	12000.07
631.071	12065.61
631.265	12272.45
631.459	12116.81
631.653	11932.49
631.848	12090.18
632.042	11860.81
632.236	11809.61
632.43	11598.67
632.624	11631.44
632.818	11373.39
633.012	11553.62
633.206	11475.79
633.4	11357.01
633.594	11387.73
633.788	11510.61
633.982	11203.41
634.176	11309.91
634.369	11240.28
634.563	11064.15
634.757	11068.25
634.951	10885.98
635.145	10699.61
635.339	10830.68
635.533	10767.2
635.726	10675.04
635.92	10779.48
636.114	10595.17
636.308	10470.24
636.501	10607.45
636.695	10505.06
636.889	10271.59
637.083	10369.89
637.276	10025.83
637.47	10201.96
637.664	9962.34
637.857	10224.48
638.051	10161
638.244	9837.42
638.438	9939.82
638.632	9794.41
638.825	9784.17
639.019	9847.66
639.212	9884.52
639.406	9743.21
639.599	9556.85
639.793	9657.2
639.986	9429.87
640.18	9718.64
640.373	9423.73
640.567	9507.69
640.76	9456.5
640.954	9087.86
641.147	9257.84
641.34	9163.64
641.534	9194.36
641.727	8995.7
641.92	9028.47
642.114	9079.67
642.307	8999.8
642.5	9110.39
642.694	8817.53
642.887	8819.58
643.08	8915.83
643.273	8758.14
643.467	8819.58
643.66	8573.82
643.853	8637.31
644.046	8459.13
644.239	8598.4
644.432	8610.68
644.626	8371.07
644.819	8401.79
645.012	8244.1
645.205	8418.18
645.398	8424.32
645.591	8180.61
645.784	8278.91
645.977	8018.82
646.17	8092.55
646.363	7973.77
646.556	7947.14
646.749	7785.35
646.942	8090.5
647.135	7742.35
647.328	7707.53
647.521	7631.76
647.714	7695.24
647.907	7652.24
648.099	7463.82
648.292	7607.18
648.485	7744.39
648.678	7379.86
648.871	7418.77
649.064	7472.01
649.256	7463.82
649.449	7342.99
649.642	7232.4
649.835	7277.46
650.027	7375.76
650.22	7447.44
650.413	7156.63
650.605	7250.83
650.798	7218.07
650.991	7017.36
651.183	7082.9
651.376	6849.43
651.568	6947.73
651.761	6968.21
651.954	6835.1
652.146	6820.76
652.339	6882.2
652.531	6667.16
652.724	6792.09
652.916	6546.33
653.109	6669.21
653.301	6656.92
653.494	6667.16
653.686	6638.49
653.879	6521.76
654.071	6607.77
654.263	6513.56
654.456	6527.9
654.648	6368.16
654.84	6423.45
655.033	6362.01
655.225	6116.26
655.417	6189.99
655.61	6251.42
655.802	6214.56
655.994	6253.47
656.186	6224.8
656.379	6204.32
656.571	6114.21
656.763	6052.77
656.955	5903.27
657.148	6134.69
657.34	6034.34
657.532	5823.4
657.724	5761.96
657.916	5856.17
658.108	5874.6
658.3	5708.71
658.492	5974.95
658.684	5708.71
658.876	5589.93
659.068	5749.67
659.26	5598.12
659.452	5823.4
659.644	5639.08
659.836	5553.07
660.028	5620.65
660.22	5387.18
660.412	5587.88
660.604	5487.53
660.796	5469.1
660.988	5397.42
661.18	5383.09
661.372	5209.01
661.563	5217.2
661.755	5229.49
661.947	5178.29
662.139	5178.29
662.331	5157.81
662.522	5118.9
662.714	5073.84
662.906	5122.99
663.097	5110.71
663.289	4946.87
663.481	5014.45
663.673	4971.44
663.864	5026.74
664.056	4979.64
664.247	4942.77
664.439	4805.56
664.631	4879.29
664.822	5067.7
665.014	4797.37
665.205	4744.12
665.397	4715.45
665.588	4713.4
665.78	4617.15
665.971	4785.08
666.163	4707.26
666.354	4619.19
666.546	4776.89
666.737	4541.37
666.929	4430.78
667.12	4697.02
667.311	4629.43
667.503	4535.23
667.694	4611
667.885	4471.74
668.077	4420.54
668.268	4457.4
668.459	4543.42
668.651	4520.89
668.842	4522.94
669.033	4467.64
669.224	4520.89
669.416	4453.31
669.607	4303.81
669.798	4305.85
669.989	4369.34
670.18	4197.31
670.371	4252.61
670.563	4236.22
670.754	4086.72
670.945	4131.78
671.136	4203.46
671.327	4074.43
671.518	4027.33
671.709	4219.84
671.9	4088.77
672.091	4154.3
672.282	4010.95
672.473	4078.53
672.664	4066.24
672.855	4019.14
673.046	4090.82
673.237	4142.02
673.428	4154.3
673.619	3945.41
673.809	3869.64
674	3998.66
674.191	3890.12
674.382	3978.18
674.573	3865.54
674.764	3908.55
674.954	3892.16
675.145	3804.1
675.336	3836.87
675.527	3777.48
675.717	3920.84
675.908	3879.88
676.099	3980.23
676.289	3840.97
676.48	3865.54
676.671	3584.97
676.861	3564.49
677.052	3716.04
677.243	3595.21
677.433	3673.03
677.624	3857.35
677.814	3666.89
678.005	3800.01
678.195	3763.14
678.386	3566.54
678.576	3720.14
678.767	3615.69
678.957	3658.7
679.148	3652.55
679.338	3625.93
679.529	3660.74
679.719	3695.56
679.909	3607.5
680.1	3617.74
680.29	3546.06
680.481	3554.25
680.671	3539.91
680.861	3451.85
681.052	3425.23
681.242	3541.96
681.432	3681.22
681.622	3445.71
681.813	3437.52
682.003	3406.8
682.193	3525.58
682.383	3478.47
682.573	3498.95
682.764	3498.95
682.954	3423.18
683.144	3335.12
683.334	3437.52
683.524	3423.18
683.714	3359.69
683.904	3357.64
684.094	3455.95
684.284	3484.62
684.474	3316.69
684.664	3425.23
684.854	3273.68
685.044	3300.3
685.234	3236.81
685.424	3435.47
685.614	3249.1
685.804	3382.22
685.994	3294.16
686.184	3275.73
686.374	3277.77
686.564	3144.66
686.753	3175.38
686.943	3228.62
687.133	3173.33
687.323	3171.28
687.513	3376.08
687.702	3095.5
687.892	3122.13
688.082	3138.51
688.272	3095.5
688.461	3134.42
688.651	3052.5
688.841	3107.79
689.03	3027.92
689.22	3066.83
689.41	2993.11
689.599	3027.92
689.789	3048.4
689.979	2954.19
690.168	3017.68
690.358	2845.65
690.547	2915.28
690.737	2970.58
690.926	2888.66
691.116	2907.09
691.305	2921.43
691.495	2952.15
691.684	2769.88
691.874	2872.28
692.063	2833.36
692.252	2821.08
692.442	2833.36
692.631	2810.84
692.82	2997.2
693.01	2753.49
693.199	2821.08
693.388	2730.97
693.578	2905.04
693.767	2700.25
693.956	2831.32
694.146	2763.73
694.335	2618.33
694.524	2771.93
694.713	2814.93
694.902	2653.14
695.092	2759.64
695.281	2655.19
695.47	2685.91
695.659	2649.05
695.848	2606.04
696.037	2507.74
696.226	2616.28
696.415	2597.85
696.604	2546.65
696.793	2773.97
696.982	2569.18
697.171	2659.29
697.36	2679.77
697.549	2571.22
697.738	2601.94
697.927	2681.82
698.116	2544.6
698.305	2532.31
698.494	2657.24
698.683	2517.98
698.872	2685.91
699.061	2675.67
699.25	2546.65
699.438	2569.18
699.627	2565.08
699.816	2534.36
700.005	2634.71
700.193	2511.83
700.382	2552.79
700.571	2671.58
700.76	2548.7
700.948	2644.95
701.137	2520.03
701.326	2671.58
701.514	2491.35
701.703	2614.23
701.892	2552.79
702.08	2558.94
702.269	2638.81
702.457	2675.67
702.646	2642.9
702.834	2526.17
703.023	2583.51
703.212	2577.37
703.4	2614.23
703.589	2456.54
703.777	2581.46
703.965	2530.27
704.154	2405.34
704.342	2579.42
704.531	2550.75
704.719	2434.01
704.907	2620.38
705.096	2440.15
705.284	2642.9
705.472	2378.72
705.661	2462.68
705.849	2665.43
706.037	2546.65
706.226	2407.39
706.414	2647
706.602	2489.31
706.79	2614.23
706.979	2587.61
707.167	2493.4
707.355	2657.24
707.543	2491.35
707.731	2567.13
707.919	2603.99
708.107	2460.63
708.296	2573.27
708.484	2591.7
708.672	2513.88
708.86	2522.07
709.048	2616.28
709.236	2517.98
709.424	2563.03
709.612	2442.2
709.8	2495.45
709.988	2575.32
710.176	2538.46
710.364	2563.03
710.551	2632.66
710.739	2640.86
710.927	2608.09
711.115	2507.74
711.303	2599.9
711.491	2565.08
711.679	2548.7
711.866	2608.09
712.054	2511.83
712.242	2606.04
712.43	2597.85
712.617	2522.07
712.805	2540.51
712.993	2419.68
713.181	2585.56
713.368	2520.03
713.556	2548.7
713.744	2589.66
713.931	2536.41
714.119	2558.94
714.306	2575.32
714.494	2505.69
714.682	2634.71
714.869	2374.62
715.057	2644.95
715.244	2503.64
715.432	2479.07
715.619	2513.88
715.807	2378.72
715.994	2487.26
716.182	2624.47
716.369	2593.75
716.556	2552.79
716.744	2497.5
716.931	2511.83
717.119	2651.1
717.306	2532.31
717.493	2466.78
717.681	2587.61
717.868	2581.46
718.055	2530.27
718.242	2544.6
718.43	2520.03
718.617	2524.12
718.804	2477.02
718.991	2497.5
719.179	2497.5
719.366	2470.87
719.553	2509.79
719.74	2532.31
719.927	2442.2
720.114	2474.97
720.301	2520.03
720.488	2505.69
720.676	2546.65
720.863	2456.54
721.05	2544.6
721.237	2567.13
721.424	2436.06
721.611	2485.21
721.798	2548.7
721.985	2485.21
722.172	2472.92
722.358	2448.35
722.545	2477.02
722.732	2497.5
722.919	2474.97
723.106	2515.93
723.293	2485.21
723.48	2573.27
723.667	2423.77
723.853	2481.11
724.04	2487.26
724.227	2358.24
724.414	2417.63
724.6	2489.31
724.787	2425.82
724.974	2499.55
725.161	2474.97
725.347	2366.43
725.534	2491.35
725.72	2601.94
725.907	2421.72
726.094	2425.82
726.28	2483.16
726.467	2382.81
726.653	2391
726.84	2458.59
727.027	2550.75
727.213	2472.92
727.4	2444.25
727.586	2452.44
727.773	2477.02
727.959	2456.54
728.145	2481.11
728.332	2307.04
728.518	2440.15
728.705	2415.58
728.891	2298.84
729.077	2405.34
729.264	2485.21
729.45	2468.83
729.636	2391
729.823	2356.19
730.009	2407.39
730.195	2302.94
730.382	2370.52
730.568	2395.1
730.754	2419.68
730.94	2300.89
731.126	2444.25
731.313	2380.76
731.499	2337.76
731.685	2374.62
731.871	2323.42
732.057	2388.96
732.243	2339.8
732.429	2321.37
732.615	2452.44
732.801	2345.95
732.987	2296.8
733.173	2327.52
733.359	2454.49
733.545	2235.36
733.731	2401.24
733.917	2368.48
734.103	2315.23
734.289	2397.15
734.475	2321.37
734.661	2431.96
734.847	2300.89
735.033	2212.83
735.219	2380.76
735.404	2354.14
735.59	2221.02
735.776	2255.84
735.962	2278.37
736.148	2286.56
736.333	2298.84
736.519	2180.06
736.705	2264.03
736.89	2296.8
737.076	2173.92
737.262	2192.35
737.447	2335.71
737.633	2282.46
737.819	2362.33
738.004	2241.5
738.19	2237.41
738.375	2268.13
738.561	2266.08
738.747	2223.07
738.932	2251.74
739.118	2235.36
739.303	2270.17
739.489	2180.06
739.674	2157.54
739.859	2116.58
740.045	2196.45
740.23	2190.3
740.416	2102.24
740.601	2261.98
740.786	2184.16
740.972	2247.65
741.157	2135.01
741.342	2153.44
741.528	2208.73
741.713	2151.39
741.898	2137.06
742.084	2059.23
742.269	2051.04
742.454	2003.94
742.639	2182.11
742.824	2008.03
743.01	2075.62
743.195	2096.1
743.38	2016.23
743.565	2089.95
743.75	2032.61
743.935	1967.07
744.12	1879.01
744.305	1995.75
744.49	1971.17
744.675	2005.99
744.86	1911.78
745.045	1979.36
745.23	1901.54
745.415	1956.83
745.6	1876.96
745.785	1893.35
745.97	1844.2
746.155	1872.87
746.34	1883.11
746.525	1913.83
746.71	1989.6
746.895	1872.87
747.079	1870.82
747.264	1747.94
747.449	1868.77
747.634	1852.39
747.819	1793
748.003	1774.56
748.188	1752.04
748.373	1762.28
748.557	1764.33
748.742	1715.17
748.927	1741.8
749.111	1623.02
749.296	1684.45
749.481	1629.16
749.665	1715.17
749.85	1772.52
750.034	1653.73
750.219	1735.65
750.404	1770.47
750.588	1600.49
750.773	1547.24
750.957	1623.02
751.141	1711.08
751.326	1584.1
751.51	1534.95
751.695	1557.48
751.879	1596.39
752.064	1551.34
752.248	1553.38
752.432	1598.44
752.617	1475.56
752.801	1471.47
752.985	1534.95
753.17	1516.52
753.354	1367.02
753.538	1524.71
753.722	1383.4
753.907	1518.57
754.091	1418.22
754.275	1428.46
754.459	1440.75
754.643	1467.37
754.828	1350.64
755.012	1436.65
755.196	1301.48
755.38	1297.39
755.564	1309.68
755.748	1377.26
755.932	1293.29
756.116	1364.97
756.3	1246.19
756.484	1289.2
756.668	1240.05
756.852	1186.8
757.036	1229.81
757.22	1227.76
757.404	1164.27
757.588	1252.33
757.772	1176.56
757.956	1172.46
758.14	1283.05
758.323	1235.95
758.507	1149.93
758.691	1194.99
758.875	1174.51
759.059	1217.52
759.242	1137.65
759.426	1197.04
759.61	1123.31
759.794	1184.75
759.977	1156.08
760.161	1194.99
760.345	1158.13
760.528	1184.75
760.712	1045.49
760.895	1115.12
761.079	1033.2
761.263	1059.82
761.446	1018.86
761.63	1145.84
761.813	1055.73
761.997	1115.12
762.18	965.62
762.364	1154.03
762.547	1043.44
762.731	965.62
762.914	1033.2
763.098	1049.58
763.281	1047.54
763.464	1080.3
763.648	984.05
763.831	992.24
764.015	936.95
764.198	1065.97
764.381	945.14
764.564	988.14
764.748	1051.63
764.931	969.71
765.114	1035.25
765.297	918.51
765.481	1022.96
765.664	975.86
765.847	857.07
766.03	955.38
766.213	928.75
766.397	912.37
766.58	873.46
766.763	973.81
766.946	943.09
767.129	947.19
767.312	924.66
767.495	861.17
767.678	807.92
767.861	900.08
768.044	859.12
768.227	902.13
768.41	846.84
768.593	895.99
768.776	867.31
768.959	887.79
769.142	900.08
769.324	885.75
769.507	855.03
769.69	801.78
769.873	855.03
770.056	861.17
770.239	812.02
770.421	824.31
770.604	852.98
770.787	764.92
770.97	842.74
771.152	771.06
771.335	869.36
771.518	834.55
771.7	820.21
771.883	744.44
772.066	750.58
772.248	734.2
772.431	820.21
772.613	773.11
772.796	834.55
772.978	715.77
773.161	812.02
773.343	760.82
773.526	707.57
773.708	785.4
773.891	650.23
774.073	769.01
774.256	738.29
774.438	848.88
774.621	697.33
774.803	734.2
774.985	728.05
775.168	703.48
775.35	676.85
775.532	687.09
775.715	715.77
775.897	699.38
776.079	664.57
776.261	732.15
776.444	646.13
776.626	654.33
776.808	623.61
776.99	656.37
777.173	668.66
777.355	625.65
777.537	625.65
777.719	623.61
777.901	715.77
778.083	572.41
778.265	637.94
778.447	623.61
778.629	611.32
778.811	590.84
778.993	652.28
779.175	574.46
779.357	508.92
779.539	564.22
779.721	572.41
779.903	631.8
780.085	574.46
780.267	590.84
780.449	601.08
780.631	562.17
780.812	560.12
780.994	642.04
781.176	476.15
781.358	547.83
781.54	596.98
781.721	613.37
781.903	556.02
782.085	556.02
782.267	533.5
782.448	564.22
782.63	492.54
782.812	535.54
782.993	553.98
783.175	541.69
783.357	422.91
783.538	490.49
783.72	529.4
783.901	549.88
784.083	572.41
784.264	566.26
784.446	492.54
784.627	474.1
784.809	441.34
784.99	494.58
785.172	529.4
785.353	431.1
785.535	437.24
785.716	377.85
785.897	386.04
786.079	437.24
786.26	439.29
786.441	424.95
786.623	340.99
786.804	488.44
786.985	459.77
787.167	404.47
787.348	433.15
787.529	371.71
787.71	433.15
787.891	406.52
788.073	377.85
788.254	304.12
788.435	388.09
788.616	383.99
788.797	343.03
788.978	379.9
789.159	314.36
789.34	437.24
789.522	392.19
789.703	394.23
789.884	302.08
790.065	373.75
790.246	379.9
790.427	334.84
790.607	424.95
790.788	334.84
790.969	328.7
791.15	365.56
791.331	324.6
791.512	373.75
791.693	334.84
791.874	259.07
792.054	338.94
792.235	328.7
792.416	300.03
792.597	287.74
792.778	297.98
792.958	314.36
793.139	330.75
793.32	324.6
793.5	324.6
793.681	328.7
793.862	265.21
794.042	295.93
794.223	293.88
794.404	257.02
794.584	240.64
794.765	279.55
794.945	279.55
795.126	308.22
795.306	283.64
795.487	316.41
795.667	199.68
795.848	392.19
796.028	238.59
796.209	240.64
796.389	277.5
796.57	295.93
796.75	246.78
796.93	285.69
797.111	281.6
797.291	285.69
797.471	293.88
797.652	232.44
797.832	334.84
798.012	300.03
798.192	265.21
798.373	211.96
798.553	293.88
798.733	246.78
798.913	232.44
799.093	275.45
799.274	220.16
799.454	246.78
799.634	269.31
799.814	285.69
799.994	236.54
800.174	226.3
800.354	250.88
800.534	109.57
800.714	293.88
800.894	287.74
801.074	193.53
801.254	173.05
801.434	269.31
801.614	242.68
801.794	250.88
801.974	601.08
802.154	275.45
802.334	199.68
802.514	179.2
802.693	125.95
802.873	209.92
803.053	222.2
803.233	191.49
803.413	191.49
803.592	175.1
803.772	199.68
803.952	285.69
804.131	193.53
804.311	257.02
804.491	236.54
804.67	220.16
804.85	222.2
805.03	242.68
805.209	240.64
805.389	189.44
805.568	193.53
805.748	189.44
805.928	150.53
806.107	148.48
806.287	240.64
806.466	197.63
806.646	160.77
806.825	191.49
807.004	218.11
807.184	136.19
807.363	136.19
807.543	201.72
807.722	130.05
807.901	168.96
808.081	207.87
808.26	130.05
808.439	218.11
808.619	105.47
808.798	193.53
808.977	187.39
809.156	171.01
809.336	134.14
809.515	187.39
809.694	191.49
809.873	203.77
810.052	195.58
810.231	205.82
810.411	201.72
810.59	240.64
810.769	144.38
810.948	203.77
811.127	154.62
811.306	117.76
811.485	123.9
811.664	232.44
811.843	136.19
812.022	158.72
812.201	144.38
812.38	99.33
812.559	181.25
812.737	250.88
812.916	101.37
813.095	125.95
813.274	199.68
813.453	119.81
813.632	187.39
813.811	154.62
813.989	148.48
814.168	181.25
814.347	177.15
814.526	148.48
814.704	211.96
814.883	142.33
815.062	74.75
815.24	140.29
815.419	132.09
815.598	177.15
815.776	103.42
815.955	93.18
816.133	185.34
816.312	119.81
816.49	162.81
816.669	185.34
816.847	130.05
817.026	87.04
817.204	142.33
817.383	113.66
817.561	66.56
817.74	78.85
817.918	146.43
818.097	62.46
818.275	148.48
818.453	109.57
818.632	107.52
818.81	168.96
818.988	109.57
819.167	189.44
819.345	125.95
819.523	193.53
819.701	78.85
819.879	142.33
820.058	175.1
820.236	138.24
820.414	37.89
820.592	58.37
820.77	93.18
820.948	128
821.127	58.37
821.305	56.32
821.483	117.76
821.661	103.42
821.839	29.7
822.017	68.61
822.195	111.61
822.373	168.96
822.551	44.03
822.729	58.37
822.907	74.75
823.085	150.53
823.262	97.28
823.44	64.51
823.618	70.65
823.796	91.13
823.974	91.13
824.152	56.32
824.329	56.32
824.507	119.81
824.685	93.18
824.863	82.94
825.04	125.95
825.218	60.42
825.396	99.33
825.574	138.24
825.751	89.09
825.929	48.13
826.107	93.18
826.284	97.28
826.462	89.09
826.639	99.33
826.817	64.51
826.994	138.24
827.172	76.8
827.349	179.2
827.527	19.46
827.704	140.29
827.882	148.48
828.059	93.18
828.237	58.37
828.414	97.28
828.591	5.12
828.769	123.9
828.946	134.14
829.124	119.81
829.301	125.95
829.478	101.37
829.655	140.29
829.833	78.85
830.01	50.18
830.187	123.9
830.364	111.61
830.542	142.33
830.719	160.77
830.896	74.75
831.073	1.02
831.25	152.57
831.427	44.03
831.604	78.85
831.782	117.76
831.959	80.89
832.136	142.33
832.313	117.76
832.49	103.42
832.667	152.57
832.844	62.46
833.021	119.81
833.198	123.9
833.374	58.37
833.551	70.65
833.728	99.33
833.905	56.32
834.082	35.84
834.259	138.24
834.436	89.09
834.612	21.5
834.789	33.79
834.966	29.7
835.143	31.74
835.319	68.61
835.496	91.13
835.673	9.22
835.85	91.13
836.026	91.13
836.203	93.18
836.38	99.33
836.556	41.98
836.733	35.84
836.909	99.33
837.086	89.09
837.262	29.7
837.439	33.79
837.616	105.47
837.792	58.37
837.968	48.13
838.145	117.76
838.321	62.46
838.498	95.23
838.674	39.94
838.851	54.27
839.027	46.08
839.203	25.6
839.38	13.31
839.556	99.33
839.732	97.28
839.909	-1.02
840.085	166.91
840.261	39.94
840.437	123.9
840.614	60.42
840.79	74.75
840.966	31.74
841.142	164.86
841.318	39.94
841.494	134.14
841.671	95.23
841.847	82.94
842.023	89.09
842.199	15.36
842.375	84.99
842.551	25.6
842.727	107.52
842.903	33.79
843.079	15.36
843.255	84.99
843.431	48.13
843.607	27.65
843.783	46.08
843.959	119.81
844.134	-11.26
844.31	93.18
844.486	150.53
844.662	-7.17
844.838	58.37
845.013	68.61
845.189	78.85
845.365	72.7
845.541	54.27
845.716	84.99
845.892	78.85
846.068	-5.12
846.244	3.07
846.419	39.94
846.595	91.13
846.77	-11.26
846.946	64.51
847.122	19.46
847.297	21.5
847.473	41.98
847.648	76.8
847.824	11.26
847.999	27.65
848.175	50.18
848.35	33.79
848.526	21.5
848.701	19.46
848.876	29.7
849.052	9.22
849.227	70.65
849.403	-19.46
849.578	66.56
849.753	13.31
849.929	91.13
850.104	41.98
850.279	39.94
850.454	-9.22
850.63	-3.07
850.805	66.56
850.98	44.03
851.155	25.6
851.33	91.13
851.505	37.89
851.681	-3.07
851.856	48.13
852.031	56.32
852.206	41.98
852.381	50.18
852.556	82.94
852.731	-19.46
852.906	-17.41
853.081	41.98
853.256	33.79
853.431	89.09
853.606	-27.65
853.781	66.56
853.956	-13.31
854.131	56.32
854.305	-15.36
854.48	37.89
854.655	-3.07
854.83	44.03
855.005	23.55
855.18	128
855.354	54.27
855.529	15.36
855.704	-56.32
855.879	37.89
856.053	-11.26
856.228	9.22
856.403	29.7
856.577	17.41
856.752	-13.31
856.926	31.74
857.101	48.13
857.276	27.65
857.45	93.18
857.625	23.55
857.799	50.18
857.974	29.7
858.148	1.02
858.323	11.26
858.497	21.5
858.672	25.6
858.846	7.17
859.02	70.65
859.195	-37.89
859.369	25.6
859.543	19.46
859.718	84.99
859.892	41.98
860.066	-39.94
860.241	-23.55
860.415	-37.89
860.589	7.17
860.763	-21.5
860.938	5.12
861.112	74.75
861.286	-7.17
861.46	29.7
861.634	39.94
861.808	21.5
861.982	-1.02
862.157	-3.07
862.331	13.31
862.505	3.07
862.679	-15.36
862.853	35.84
863.027	-3.07
863.201	15.36
863.375	-13.31
863.549	58.37
863.722	-39.94
863.896	97.28
864.07	-19.46
864.244	-29.7
864.418	19.46
864.592	-21.5
864.766	3.07
864.939	54.27
865.113	-9.22
865.287	46.08
865.461	64.51
865.634	29.7
865.808	21.5
865.982	-13.31
866.156	-39.94
866.329	41.98
866.503	5.12
866.676	-1.02
866.85	27.65
867.024	41.98
867.197	37.89
867.371	23.55
867.544	-23.55
867.718	35.84
867.891	68.61
868.065	-11.26
868.238	44.03
868.412	11.26
868.585	17.41
868.759	-31.74
868.932	5.12
869.105	-21.5
869.279	44.03
869.452	-31.74
869.625	37.89
869.799	21.5
869.972	-9.22
870.145	-23.55
870.319	13.31
870.492	66.56
870.665	87.04
870.838	52.22
871.011	29.7
871.185	35.84
871.358	-76.8
871.531	33.79
871.704	-31.74
871.877	31.74
872.05	-11.26
872.223	5.12
872.396	1.02
872.569	37.89
872.742	70.65
872.915	25.6
873.088	-23.55
873.261	-60.42
873.434	-13.31
873.607	35.84
873.78	-7.17
873.953	-9.22
874.126	-52.22
874.299	56.32
874.471	9.22
874.644	-33.79
874.817	33.79
874.99	66.56
875.163	44.03
875.335	3.07
875.508	-50.18
875.681	35.84
875.853	17.41
876.026	-1.02
876.199	5.12
876.371	-44.03
876.544	29.7
876.717	13.31
876.889	39.94
877.062	33.79
877.234	27.65
877.407	-29.7
877.579	-1.02
877.752	27.65
877.924	-35.84
878.097	-23.55
878.269	1.02
878.442	-29.7
878.614	11.26
878.786	15.36
878.959	-31.74
879.131	17.41
879.303	-15.36
879.476	31.74
879.648	29.7
879.82	31.74
879.993	44.03
880.165	13.31
880.337	-39.94
880.509	23.55
880.681	-11.26
880.854	-39.94
881.026	64.51
881.198	23.55
881.37	-31.74
881.542	72.7
881.714	3.07
881.886	-9.22
882.058	-5.12
882.23	-35.84
882.402	-37.89
882.574	-29.7
882.746	27.65
882.918	68.61
883.09	39.94
883.262	23.55
883.434	-5.12
883.606	-44.03
883.778	-29.7
883.95	68.61
884.122	-25.6
884.293	58.37
884.465	17.41
884.637	-13.31
884.809	5.12
884.98	-21.5
885.152	54.27
885.324	9.22
885.496	-1.02
885.667	-29.7
885.839	21.5
886.011	-7.17
886.182	27.65
886.354	84.99
886.525	-3.07
886.697	-37.89
886.869	-19.46
887.04	-31.74
887.212	-1.02
887.383	7.17
887.555	21.5
887.726	3.07
887.897	-31.74
888.069	23.55
888.24	29.7
888.412	17.41
888.583	37.89
888.754	-72.7
888.926	-21.5
889.097	31.74
889.268	11.26
889.44	5.12
889.611	3.07
889.782	66.56
889.953	23.55
890.125	80.89
890.296	-31.74
890.467	39.94
890.638	37.89
890.809	11.26
890.98	-29.7
891.151	-48.13
891.323	3.07
891.494	23.55
891.665	33.79
891.836	29.7
892.007	37.89
892.178	5.12
892.349	-29.7
892.52	29.7
892.691	80.89
892.862	23.55
893.032	-31.74
893.203	31.74
893.374	68.61
893.545	7.17
893.716	9.22
893.887	31.74
894.057	-15.36
894.228	-9.22
894.399	-41.98
894.57	39.94
894.74	-23.55
894.911	64.51
895.082	64.51
895.253	44.03
895.423	7.17
895.594	25.6
895.764	48.13
895.935	-50.18
896.106	60.42
896.276	-3.07
896.447	-23.55
896.617	19.46
896.788	-44.03
896.958	-5.12
897.129	-19.46
897.299	25.6
897.47	-19.46
897.64	-41.98
897.81	-5.12
897.981	39.94
898.151	48.13
898.322	-5.12
898.492	21.5
898.662	62.46
898.832	11.26
899.003	1.02
899.173	-11.26
899.343	-52.22
899.513	-37.89
