Data from USB4F104151__7__12-00-21-054.txt Node

Date: Fri Mar 14 12:00:21 EDT 2025
User: louis
Spectrometer: USB4F10415
Trigger mode: 4
Integration Time (sec): 2.000000E-2
Scans to average: 1
Electric dark correction enabled: true
Nonlinearity correction enabled: false
Boxcar width: 0
XAxis mode: Wavelengths
Number of Pixels in Spectrum: 3648
>>>>>Begin Spectral Data<<<<<
178.204	-91.82
178.424	-91.82
178.644	-91.82
178.864	-106.15
179.084	-44.71
179.304	-81.58
179.524	0.34
179.744	31.06
179.964	37.2
180.184	-42.67
180.404	8.53
180.624	-34.47
180.844	35.16
181.064	2.39
181.283	53.59
181.503	76.12
181.723	-85.67
181.943	-52.91
182.163	12.63
182.383	-5.8
182.602	53.59
182.822	12.63
183.042	47.44
183.262	-1.71
183.482	-85.67
183.701	24.92
183.921	26.96
184.141	-1.71
184.361	-36.52
184.58	37.2
184.8	14.68
185.02	12.63
185.239	-1.71
185.459	16.73
185.679	51.54
185.898	-38.57
186.118	37.2
186.338	4.44
186.557	84.31
186.777	-16.04
186.997	20.82
187.216	-30.38
187.436	55.64
187.655	37.2
187.875	47.44
188.095	2.39
188.314	-5.8
188.534	2.39
188.753	76.12
188.973	37.2
189.192	59.73
189.412	84.31
189.631	49.49
189.851	2.39
190.07	22.87
190.29	-3.75
190.509	-7.85
190.729	53.59
190.948	61.78
191.168	49.49
191.387	26.96
191.607	59.73
191.826	2.39
192.045	31.06
192.265	41.3
192.484	-36.52
192.704	16.73
192.923	-26.28
193.142	86.36
193.362	37.2
193.581	76.12
193.8	35.16
194.02	100.69
194.239	18.77
194.458	12.63
194.678	31.06
194.897	43.35
195.116	-38.57
195.335	35.16
195.555	53.59
195.774	39.25
195.993	14.68
196.212	24.92
196.432	-40.62
196.651	59.73
196.87	51.54
197.089	74.07
197.308	82.26
197.528	39.25
197.747	35.16
197.966	-42.67
198.185	69.97
198.404	-34.47
198.623	37.2
198.842	41.3
199.062	-13.99
199.281	49.49
199.5	24.92
199.719	-18.09
199.938	6.49
200.157	4.44
200.376	14.68
200.595	14.68
200.814	67.92
201.033	6.49
201.252	-34.47
201.471	12.63
201.69	-7.85
201.909	-11.95
202.128	35.16
202.347	59.73
202.566	43.35
202.785	10.58
203.004	-13.99
203.223	65.88
203.442	18.77
203.661	4.44
203.879	-20.14
204.098	100.69
204.317	-54.95
204.536	-16.04
204.755	-1.71
204.974	22.87
205.193	22.87
205.411	78.16
205.63	59.73
205.849	31.06
206.068	2.39
206.287	20.82
206.505	18.77
206.724	47.44
206.943	-40.62
207.162	26.96
207.381	67.92
207.599	16.73
207.818	10.58
208.037	35.16
208.255	45.4
208.474	8.53
208.693	16.73
208.911	-11.95
209.13	51.54
209.349	14.68
209.567	82.26
209.786	-18.09
210.005	6.49
210.223	-24.23
210.442	-42.67
210.661	10.58
210.879	33.11
211.098	-16.04
211.316	20.82
211.535	106.84
211.753	-13.99
211.972	-81.58
212.191	37.2
212.409	-3.75
212.628	10.58
212.846	-1.71
213.065	65.88
213.283	24.92
213.502	-18.09
213.72	-5.8
213.938	43.35
214.157	-18.09
214.375	51.54
214.594	55.64
214.812	98.64
215.031	-9.9
215.249	-11.95
215.467	74.07
215.686	-18.09
215.904	90.45
216.122	20.82
216.341	37.2
216.559	96.6
216.778	88.4
216.996	20.82
217.214	-7.85
217.432	-13.99
217.651	-20.14
217.869	6.49
218.087	26.96
218.306	39.25
218.524	-54.95
218.742	0.34
218.96	-110.25
219.179	14.68
219.397	29.01
219.615	67.92
219.833	2.39
220.051	12.63
220.27	49.49
220.488	35.16
220.706	14.68
220.924	-30.38
221.142	-40.62
221.36	57.68
221.578	-30.38
221.796	57.68
222.015	22.87
222.233	-50.86
222.451	112.98
222.669	24.92
222.887	45.4
223.105	8.53
223.323	8.53
223.541	-9.9
223.759	76.12
223.977	65.88
224.195	33.11
224.413	16.73
224.631	57.68
224.849	26.96
225.067	35.16
225.285	-20.14
225.503	20.82
225.721	-69.29
225.939	37.2
226.157	-52.91
226.375	72.02
226.592	16.73
226.81	39.25
227.028	39.25
227.246	8.53
227.464	-30.38
227.682	-3.75
227.9	35.16
228.117	-24.23
228.335	16.73
228.553	-7.85
228.771	0.34
228.989	47.44
229.206	41.3
229.424	22.87
229.642	18.77
229.86	4.44
230.077	33.11
230.295	14.68
230.513	-24.23
230.731	74.07
230.948	31.06
231.166	35.16
231.384	4.44
231.601	-40.62
231.819	69.97
232.037	10.58
232.254	6.49
232.472	18.77
232.689	-26.28
232.907	6.49
233.125	4.44
233.342	-22.19
233.56	-26.28
233.777	-1.71
233.995	69.97
234.213	78.16
234.43	47.44
234.648	49.49
234.865	-13.99
235.083	14.68
235.3	35.16
235.518	22.87
235.735	43.35
235.953	-69.29
236.17	-5.8
236.388	37.2
236.605	20.82
236.822	-13.99
237.04	-7.85
237.257	37.2
237.475	-52.91
237.692	49.49
237.909	-11.95
238.127	-3.75
238.344	104.79
238.562	-3.75
238.779	20.82
238.996	-1.71
239.214	47.44
239.431	47.44
239.648	14.68
239.865	31.06
240.083	39.25
240.3	45.4
240.517	12.63
240.735	74.07
240.952	-18.09
241.169	31.06
241.386	63.83
241.603	102.74
241.821	-26.28
242.038	51.54
242.255	82.26
242.472	33.11
242.689	53.59
242.907	14.68
243.124	22.87
243.341	57.68
243.558	-40.62
243.775	-7.85
243.992	6.49
244.209	-75.43
244.426	125.27
244.643	47.44
244.86	-28.33
245.078	6.49
245.295	8.53
245.512	-26.28
245.729	16.73
245.946	18.77
246.163	74.07
246.38	0.34
246.597	12.63
246.814	26.96
247.031	39.25
247.248	-18.09
247.464	45.4
247.681	37.2
247.898	72.02
248.115	-1.71
248.332	-7.85
248.549	2.39
248.766	53.59
248.983	35.16
249.2	90.45
249.417	29.01
249.633	16.73
249.85	74.07
250.067	-28.33
250.284	-3.75
250.501	35.16
250.717	26.96
250.934	55.64
251.151	-3.75
251.368	-13.99
251.585	121.17
251.801	33.11
252.018	45.4
252.235	37.2
252.451	26.96
252.668	-26.28
252.885	-7.85
253.102	-40.62
253.318	31.06
253.535	82.26
253.752	86.36
253.968	8.53
254.185	2.39
254.401	14.68
254.618	-9.9
254.835	33.11
255.051	104.79
255.268	-20.14
255.484	-36.52
255.701	-18.09
255.917	29.01
256.134	-65.19
256.351	53.59
256.567	86.36
256.784	-24.23
257	-75.43
257.217	-7.85
257.433	-7.85
257.65	86.36
257.866	26.96
258.082	-52.91
258.299	39.25
258.515	35.16
258.732	-57
258.948	86.36
259.165	12.63
259.381	-3.75
259.597	10.58
259.814	-24.23
260.03	-5.8
260.246	6.49
260.463	67.92
260.679	43.35
260.895	-30.38
261.112	6.49
261.328	67.92
261.544	33.11
261.761	86.36
261.977	-32.43
262.193	76.12
262.409	8.53
262.626	-1.71
262.842	-22.19
263.058	2.39
263.274	-26.28
263.49	53.59
263.707	39.25
263.923	12.63
264.139	43.35
264.355	20.82
264.571	65.88
264.787	49.49
265.004	47.44
265.22	-20.14
265.436	16.73
265.652	-63.15
265.868	39.25
266.084	-104.11
266.3	0.34
266.516	-54.95
266.732	49.49
266.948	18.77
267.164	47.44
267.38	-11.95
267.596	49.49
267.812	16.73
268.028	4.44
268.244	31.06
268.46	41.3
268.676	45.4
268.892	-5.8
269.108	-3.75
269.324	29.01
269.54	6.49
269.756	-36.52
269.972	-22.19
270.188	22.87
270.403	2.39
270.619	45.4
270.835	12.63
271.051	22.87
271.267	-59.05
271.483	6.49
271.698	-63.15
271.914	14.68
272.13	47.44
272.346	26.96
272.562	-11.95
272.777	29.01
272.993	59.73
273.209	-30.38
273.425	65.88
273.64	31.06
273.856	37.2
274.072	59.73
274.287	-22.19
274.503	8.53
274.719	67.92
274.934	63.83
275.15	16.73
275.366	-52.91
275.581	35.16
275.797	8.53
276.012	-36.52
276.228	-5.8
276.444	12.63
276.659	51.54
276.875	-54.95
277.09	69.97
277.306	-73.39
277.521	12.63
277.737	22.87
277.952	-24.23
278.168	-38.57
278.383	-20.14
278.599	-48.81
278.814	22.87
279.03	104.79
279.245	33.11
279.461	-24.23
279.676	-20.14
279.892	45.4
280.107	-9.9
280.322	-46.76
280.538	10.58
280.753	-9.9
280.969	115.03
281.184	-11.95
281.399	45.4
281.615	55.64
281.83	53.59
282.045	20.82
282.26	-7.85
282.476	18.77
282.691	12.63
282.906	33.11
283.122	-18.09
283.337	-34.47
283.552	29.01
283.767	-3.75
283.983	57.68
284.198	18.77
284.413	51.54
284.628	-7.85
284.843	94.55
285.058	41.3
285.274	43.35
285.489	-59.05
285.704	72.02
285.919	59.73
286.134	0.34
286.349	-5.8
286.564	33.11
286.779	6.49
286.995	6.49
287.21	2.39
287.425	45.4
287.64	-5.8
287.855	24.92
288.07	-79.53
288.285	-3.75
288.5	-5.8
288.715	123.22
288.93	-18.09
289.145	47.44
289.36	59.73
289.575	33.11
289.79	84.31
290.004	12.63
290.219	72.02
290.434	39.25
290.649	-7.85
290.864	-18.09
291.079	8.53
291.294	43.35
291.509	31.06
291.724	-5.8
291.938	-22.19
292.153	55.64
292.368	59.73
292.583	49.49
292.798	26.96
293.012	59.73
293.227	69.97
293.442	-13.99
293.657	6.49
293.871	12.63
294.086	55.64
294.301	55.64
294.516	-9.9
294.73	61.78
294.945	51.54
295.16	4.44
295.374	8.53
295.589	94.55
295.804	22.87
296.018	72.02
296.233	16.73
296.447	45.4
296.662	-26.28
296.877	-7.85
297.091	-28.33
297.306	-59.05
297.52	18.77
297.735	76.12
297.949	16.73
298.164	33.11
298.378	51.54
298.593	-24.23
298.807	41.3
299.022	37.2
299.236	31.06
299.451	-42.67
299.665	2.39
299.88	55.64
300.094	-11.95
300.309	-42.67
300.523	6.49
300.737	29.01
300.952	92.5
301.166	10.58
301.381	37.2
301.595	-5.8
301.809	80.21
302.024	51.54
302.238	22.87
302.452	-36.52
302.667	12.63
302.881	51.54
303.095	-22.19
303.309	33.11
303.524	10.58
303.738	-13.99
303.952	33.11
304.166	8.53
304.381	45.4
304.595	145.75
304.809	24.92
305.023	-13.99
305.237	14.68
305.452	57.68
305.666	2.39
305.88	53.59
306.094	14.68
306.308	-5.8
306.522	31.06
306.736	18.77
306.95	26.96
307.164	53.59
307.379	24.92
307.593	57.68
307.807	-7.85
308.021	2.39
308.235	4.44
308.449	-50.86
308.663	-18.09
308.877	102.74
309.091	-16.04
309.305	57.68
309.519	-44.71
309.733	76.12
309.947	22.87
310.161	12.63
310.374	88.4
310.588	-7.85
310.802	12.63
311.016	55.64
311.23	16.73
311.444	65.88
311.658	20.82
311.872	80.21
312.085	55.64
312.299	2.39
312.513	-7.85
312.727	86.36
312.941	49.49
313.154	115.03
313.368	39.25
313.582	18.77
313.796	6.49
314.009	-16.04
314.223	131.41
314.437	18.77
314.651	12.63
314.864	59.73
315.078	-26.28
315.292	33.11
315.505	63.83
315.719	-28.33
315.933	98.64
316.146	-71.34
316.36	69.97
316.573	78.16
316.787	20.82
317.001	61.78
317.214	-11.95
317.428	20.82
317.641	31.06
317.855	53.59
318.068	63.83
318.282	49.49
318.495	123.22
318.709	-18.09
318.922	20.82
319.136	26.96
319.349	33.11
319.563	57.68
319.776	6.49
319.99	-36.52
320.203	69.97
320.417	20.82
320.63	14.68
320.843	29.01
321.057	16.73
321.27	-59.05
321.483	-18.09
321.697	4.44
321.91	92.5
322.124	16.73
322.337	49.49
322.55	12.63
322.763	47.44
322.977	2.39
323.19	35.16
323.403	29.01
323.617	55.64
323.83	26.96
324.043	16.73
324.256	53.59
324.469	-34.47
324.683	-18.09
324.896	115.03
325.109	35.16
325.322	-91.82
325.535	59.73
325.748	24.92
325.962	14.68
326.175	-1.71
326.388	57.68
326.601	49.49
326.814	35.16
327.027	33.11
327.24	110.93
327.453	41.3
327.666	86.36
327.879	-28.33
328.092	10.58
328.305	92.5
328.518	-18.09
328.731	-22.19
328.944	-24.23
329.157	26.96
329.37	22.87
329.583	65.88
329.796	24.92
330.009	-24.23
330.222	-24.23
330.435	16.73
330.648	41.3
330.861	29.01
331.073	45.4
331.286	43.35
331.499	24.92
331.712	47.44
331.925	-46.76
332.138	4.44
332.35	-1.71
332.563	80.21
332.776	76.12
332.989	-22.19
333.202	-9.9
333.414	-1.71
333.627	41.3
333.84	37.2
334.053	10.58
334.265	24.92
334.478	-85.67
334.691	106.84
334.903	55.64
335.116	37.2
335.329	26.96
335.541	22.87
335.754	6.49
335.966	-20.14
336.179	37.2
336.392	92.5
336.604	-26.28
336.817	45.4
337.029	14.68
337.242	-11.95
337.454	59.73
337.667	33.11
337.88	12.63
338.092	61.78
338.305	67.92
338.517	22.87
338.729	47.44
338.942	6.49
339.154	31.06
339.367	61.78
339.579	45.4
339.792	-46.76
340.004	29.01
340.217	-30.38
340.429	35.16
340.641	43.35
340.854	-22.19
341.066	-9.9
341.278	16.73
341.491	-5.8
341.703	-5.8
341.915	-3.75
342.128	-18.09
342.34	6.49
342.552	31.06
342.764	26.96
342.977	45.4
343.189	57.68
343.401	-26.28
343.613	-1.71
343.826	8.53
344.038	-7.85
344.25	67.92
344.462	-24.23
344.674	-46.76
344.886	-34.47
345.099	26.96
345.311	-28.33
345.523	129.36
345.735	49.49
345.947	4.44
346.159	10.58
346.371	-32.43
346.583	-1.71
346.795	24.92
347.007	-71.34
347.219	37.2
347.431	-63.15
347.643	20.82
347.855	10.58
348.067	76.12
348.279	-24.23
348.491	72.02
348.703	92.5
348.915	-3.75
349.127	49.49
349.339	26.96
349.551	14.68
349.763	61.78
349.975	-5.8
350.187	-40.62
350.399	59.73
350.61	18.77
350.822	10.58
351.034	-34.47
351.246	8.53
351.458	76.12
351.669	63.83
351.881	26.96
352.093	-50.86
352.305	-22.19
352.517	12.63
352.728	67.92
352.94	39.25
353.152	-34.47
353.363	6.49
353.575	-3.75
353.787	59.73
353.999	8.53
354.21	-3.75
354.422	84.31
354.633	8.53
354.845	8.53
355.057	96.6
355.268	80.21
355.48	31.06
355.692	-81.58
355.903	0.34
356.115	100.69
356.326	-1.71
356.538	37.2
356.749	-18.09
356.961	45.4
357.172	65.88
357.384	24.92
357.595	16.73
357.807	41.3
358.018	-1.71
358.23	39.25
358.441	74.07
358.653	-7.85
358.864	35.16
359.075	-7.85
359.287	20.82
359.498	31.06
359.709	14.68
359.921	37.2
360.132	55.64
360.344	41.3
360.555	29.01
360.766	37.2
360.977	-13.99
361.189	31.06
361.4	2.39
361.611	41.3
361.823	-44.71
362.034	55.64
362.245	6.49
362.456	76.12
362.667	-7.85
362.879	29.01
363.09	65.88
363.301	-36.52
363.512	78.16
363.723	100.69
363.935	63.83
364.146	78.16
364.357	47.44
364.568	61.78
364.779	51.54
364.99	88.4
365.201	43.35
365.412	47.44
365.623	12.63
365.834	72.02
366.045	57.68
366.256	47.44
366.467	-5.8
366.678	-3.75
366.889	-7.85
367.1	-13.99
367.311	14.68
367.522	-1.71
367.733	67.92
367.944	84.31
368.155	-38.57
368.366	69.97
368.577	51.54
368.788	29.01
368.999	69.97
369.209	65.88
369.42	67.92
369.631	26.96
369.842	6.49
370.053	8.53
370.264	37.2
370.474	-9.9
370.685	55.64
370.896	4.44
371.107	80.21
371.317	18.77
371.528	0.34
371.739	47.44
371.95	59.73
372.16	26.96
372.371	55.64
372.582	53.59
372.792	0.34
373.003	61.78
373.214	-36.52
373.424	14.68
373.635	-1.71
373.846	61.78
374.056	53.59
374.267	76.12
374.477	82.26
374.688	-1.71
374.898	-42.67
375.109	10.58
375.319	41.3
375.53	55.64
375.74	-22.19
375.951	8.53
376.161	16.73
376.372	100.69
376.582	43.35
376.793	10.58
377.003	-5.8
377.214	49.49
377.424	-50.86
377.635	47.44
377.845	18.77
378.055	29.01
378.266	37.2
378.476	-5.8
378.686	96.6
378.897	-11.95
379.107	117.08
379.317	4.44
379.528	55.64
379.738	80.21
379.948	-32.43
380.158	0.34
380.369	76.12
380.579	-5.8
380.789	-24.23
380.999	63.83
381.21	20.82
381.42	53.59
381.63	33.11
381.84	2.39
382.05	78.16
382.261	8.53
382.471	74.07
382.681	51.54
382.891	33.11
383.101	88.4
383.311	47.44
383.521	72.02
383.731	49.49
383.941	92.5
384.151	31.06
384.361	20.82
384.571	2.39
384.781	41.3
384.991	41.3
385.201	94.55
385.411	47.44
385.621	53.59
385.831	-1.71
386.041	92.5
386.251	43.35
386.461	43.35
386.671	61.78
386.881	37.2
387.091	35.16
387.301	117.08
387.511	49.49
387.72	12.63
387.93	135.51
388.14	94.55
388.35	65.88
388.56	78.16
388.769	47.44
388.979	-18.09
389.189	2.39
389.399	53.59
389.609	-24.23
389.818	4.44
390.028	45.4
390.238	72.02
390.447	-7.85
390.657	39.25
390.867	-38.57
391.076	102.74
391.286	67.92
391.496	92.5
391.705	24.92
391.915	88.4
392.125	4.44
392.334	88.4
392.544	65.88
392.753	39.25
392.963	-7.85
393.172	65.88
393.382	-13.99
393.591	129.36
393.801	6.49
394.01	90.45
394.22	12.63
394.429	0.34
394.639	2.39
394.848	72.02
395.058	43.35
395.267	92.5
395.477	33.11
395.686	88.4
395.895	80.21
396.105	147.8
396.314	106.84
396.524	74.07
396.733	84.31
396.942	80.21
397.152	84.31
397.361	153.94
397.57	45.4
397.78	41.3
397.989	74.07
398.198	90.45
398.407	67.92
398.617	80.21
398.826	129.36
399.035	100.69
399.244	100.69
399.453	96.6
399.663	14.68
399.872	65.88
400.081	0.34
400.29	119.12
400.499	69.97
400.708	45.4
400.917	53.59
401.127	67.92
401.336	67.92
401.545	76.12
401.754	18.77
401.963	6.49
402.172	115.03
402.381	168.27
402.59	158.03
402.799	72.02
403.008	55.64
403.217	119.12
403.426	94.55
403.635	125.27
403.844	153.94
404.053	172.37
404.262	123.22
404.471	92.5
404.68	53.59
404.888	76.12
405.097	90.45
405.306	131.41
405.515	160.08
405.724	121.17
405.933	190.8
406.142	104.79
406.35	145.75
406.559	123.22
406.768	112.98
406.977	170.32
407.185	127.32
407.394	162.13
407.603	149.84
407.812	242
408.02	217.43
408.229	158.03
408.438	264.53
408.646	227.67
408.855	119.12
409.064	145.75
409.272	203.09
409.481	160.08
409.69	174.42
409.898	178.51
410.107	280.91
410.315	287.06
410.524	260.43
410.733	319.82
410.941	211.28
411.15	282.96
411.358	342.35
411.567	371.02
411.775	237.91
411.984	321.87
412.192	293.2
412.401	305.49
412.609	414.03
412.818	360.78
413.026	368.98
413.234	528.72
413.443	375.12
413.651	389.46
413.86	426.32
414.068	536.91
414.276	524.62
414.485	430.41
414.693	477.52
414.901	561.48
415.11	559.44
415.318	600.4
415.526	588.11
415.734	670.03
415.943	645.45
416.151	682.31
416.359	661.84
416.567	627.02
416.776	708.94
416.984	784.71
417.192	831.82
417.4	729.42
417.608	786.76
417.817	885.06
418.025	880.97
418.233	1057.09
418.441	940.36
418.649	964.93
418.857	1005.89
419.065	1063.24
419.273	1104.2
419.481	1079.62
419.689	1225.03
419.897	1356.1
420.105	1298.75
420.313	1337.66
420.521	1280.32
420.729	1454.4
420.937	1435.97
421.145	1515.84
421.353	1577.28
421.561	1628.48
421.769	1655.1
421.977	1700.16
422.185	1728.83
422.393	1880.38
422.601	1915.19
422.809	1839.42
423.017	1935.67
423.224	1927.48
423.432	1978.68
423.64	2013.49
423.848	2171.19
424.056	2177.33
424.263	2418.99
424.471	2310.45
424.679	2513.2
424.887	2631.98
425.094	2607.41
425.302	2699.56
425.51	2765.1
425.718	2722.09
425.925	2965.8
426.133	3080.49
426.341	3205.41
426.548	3418.4
426.756	3213.6
426.964	3338.53
427.171	3434.78
427.379	3574.05
427.586	3696.92
427.794	3674.4
428.001	3911.96
428.209	4100.37
428.417	3944.73
428.624	4450.58
428.832	4393.23
429.039	4321.56
429.247	4335.89
429.454	4829.45
429.662	5056.78
429.869	4845.84
430.076	5107.98
430.284	5073.16
430.491	5185.8
430.699	5443.84
430.906	5421.31
431.114	5421.31
431.321	5716.22
431.528	5904.64
431.736	6172.92
431.943	6641.9
432.15	6228.21
432.358	6295.8
432.565	7031.02
432.772	6545.65
432.979	7184.62
433.187	7063.79
433.394	7315.69
433.601	7764.19
433.808	7784.67
434.016	7858.4
434.223	8024.28
434.43	8464.6
434.637	8239.32
434.844	8964.3
435.052	9138.38
435.259	9025.74
435.466	9220.3
435.673	8999.12
435.88	9703.62
436.087	10057.92
436.294	10367.16
436.501	9787.58
436.708	10184.89
436.915	10481.85
437.122	10868.91
437.329	10881.2
437.537	11098.28
437.743	11405.48
437.95	11233.45
438.157	11810.98
438.364	12181.66
438.571	12228.76
438.778	12236.95
438.985	13656.2
439.192	12972.18
439.399	13332.62
439.606	13226.12
439.813	13840.51
440.02	14751.86
440.227	14364.79
440.433	14268.54
440.64	14686.33
440.847	14739.57
441.054	15028.34
441.261	15859.81
441.467	15609.96
441.674	16056.42
441.881	16730.2
442.088	16584.79
442.294	16726.1
442.501	17047.63
442.708	17307.73
442.914	18167.87
443.121	19009.59
443.328	18319.42
443.534	19531.82
443.741	19085.36
443.948	18688.06
444.154	20248.61
444.361	20314.14
444.568	20426.78
444.774	20357.15
444.981	20482.08
445.187	21147.67
445.394	21680.14
445.6	21790.73
445.807	23638
446.013	22700.03
446.22	23089.14
446.426	23789.55
446.633	24457.18
446.839	25061.33
447.046	23799.79
447.252	25303
447.459	25022.42
447.665	25122.77
447.871	26372.03
448.078	27815.85
448.284	26218.44
448.491	26884.03
448.697	28182.44
448.903	28356.52
449.11	28872.6
449.316	28123.05
449.522	28647.33
449.728	29319.06
449.935	29253.53
450.141	29855.63
450.347	30400.39
450.553	29417.36
450.76	29728.66
450.966	30693.25
451.172	30242.7
451.378	30822.27
451.584	30437.25
451.791	30939.01
451.997	30846.85
452.203	31203.19
452.409	31467.38
452.615	31209.34
452.821	29829.01
453.027	29908.88
453.233	31131.51
453.44	30101.39
453.646	30596.99
453.852	30474.12
454.058	30867.33
454.264	29560.72
454.47	30764.93
454.676	29712.27
454.882	30537.6
455.088	28053.42
455.294	28268.45
455.5	28809.12
455.705	28954.52
455.911	27830.19
456.117	27391.92
456.323	27256.76
456.529	25472.98
456.735	26570.69
456.941	25837.52
457.147	25614.29
457.352	24784.86
457.558	24432.61
457.764	24580.06
457.97	24195.04
458.176	23367.66
458.381	23480.3
458.587	21966.85
458.793	22212.61
458.999	21071.89
459.204	22642.68
459.41	21958.66
459.616	20426.78
459.821	20158.5
460.027	20123.68
460.233	19836.97
460.438	18767.93
460.644	19079.22
460.85	18128.96
461.055	18163.78
461.261	17745.99
461.466	16838.74
461.672	15980.64
461.878	17109.07
462.083	16093.28
462.289	16056.42
462.494	15431.79
462.7	15005.81
462.905	14598.26
463.111	14844.02
463.316	15048.82
463.522	14813.3
463.727	14669.94
463.932	14545.02
464.138	14446.71
464.343	14633.08
464.549	14192.76
464.754	14717.04
464.959	14966.9
465.165	14590.07
465.37	13781.12
465.575	13336.71
465.781	14100.61
465.986	14125.18
466.191	13609.09
466.397	13213.84
466.602	12609.68
466.807	13301.9
467.012	13428.87
467.218	13125.77
467.423	12900.5
467.628	12998.8
467.833	13619.33
468.038	13045.9
468.244	12613.78
468.449	13185.16
468.654	12808.34
468.859	12892.3
469.064	12630.16
469.269	12032.16
469.474	12296.35
469.679	12535.96
469.885	12261.53
470.09	12091.55
470.295	12175.52
470.5	11958.43
470.705	11983.01
470.91	11784.35
471.115	11389.1
471.32	11802.79
471.525	11739.3
471.73	11374.76
471.935	11157.68
472.139	10844.34
472.344	11118.76
472.549	10985.65
472.754	10844.34
472.959	10555.57
473.164	10354.87
473.369	10430.65
473.574	10731.7
473.778	10508.47
473.983	10528.95
474.188	10256.57
474.393	9916.61
474.598	9920.7
474.802	9654.47
475.007	9674.95
475.212	9869.5
475.417	9445.57
475.621	9367.75
475.826	9547.97
476.031	9300.17
476.235	9134.28
476.44	9261.26
476.645	9005.26
476.849	8990.92
477.054	8831.18
477.259	8876.24
477.463	8714.45
477.668	8659.15
477.872	8818.89
478.077	8593.62
478.282	8138.97
478.486	8368.34
478.691	8153.3
478.895	8337.62
479.1	8073.43
479.304	8018.14
479.509	8194.26
479.713	8065.24
479.918	7768.29
480.122	7737.57
480.326	7915.74
480.531	7971.04
480.735	7782.62
480.94	7747.81
481.144	8093.91
481.348	7483.62
481.553	7792.86
481.757	7373.03
481.961	7790.81
482.166	7702.75
482.37	7712.99
482.574	7588.07
482.778	7792.86
482.983	7665.89
483.187	7590.11
483.391	7631.07
483.595	7459.04
483.8	7512.29
484.004	7442.66
484.208	7569.63
484.412	7516.39
484.616	7647.46
484.821	7289.06
485.025	7461.09
485.229	7868.64
485.433	7526.63
485.637	7543.01
485.841	7405.8
486.045	7477.48
486.249	7647.46
486.453	7561.44
486.657	7655.65
486.861	7586.02
487.065	7157.99
487.269	7520.48
487.473	7418.08
487.677	7581.92
487.881	7508.19
488.085	7575.78
488.289	7600.35
488.493	7461.09
488.697	7669.98
488.901	7557.35
489.105	7522.53
489.309	7559.39
489.512	7663.84
489.716	7518.43
489.92	7672.03
490.124	7536.87
490.328	7778.53
490.531	7645.41
490.735	7821.53
490.939	7801.05
491.143	7669.98
491.346	7588.07
491.55	7999.71
491.754	7971.04
491.958	7964.89
492.161	7772.38
492.365	7905.5
492.569	7860.45
492.772	8067.29
492.976	8159.45
493.18	8153.3
493.383	8048.86
493.587	8270.04
493.79	8274.14
493.994	8141.02
494.197	8241.37
494.401	8124.63
494.605	8368.34
494.808	8364.25
495.012	8448.21
495.215	8444.12
495.419	8665.3
495.622	8616.15
495.825	8810.7
496.029	8712.4
496.232	8917.2
496.436	8800.46
496.639	9078.99
496.843	9148.62
497.046	9142.47
497.249	9304.26
497.453	9285.83
497.656	9607.36
497.859	9425.09
498.063	9476.29
498.266	9908.41
498.469	9642.18
498.673	9842.88
498.876	9955.52
499.079	10092.73
499.282	9996.48
499.485	10221.75
499.689	10498.23
499.892	10571.96
500.095	10596.53
500.298	10928.3
500.501	10723.51
500.705	11047.08
500.908	10926.25
501.111	11131.05
501.314	11098.28
501.517	11565.22
501.72	11485.35
501.923	11434.15
502.126	11870.37
502.329	11729.06
502.532	11960.48
502.735	12052.64
502.938	12107.93
503.141	12325.02
503.344	12570.77
503.547	12527.77
503.75	12683.41
503.953	12906.64
504.156	13023.37
504.359	13101.2
504.562	13201.55
504.765	13527.17
504.968	13660.29
505.17	13834.37
505.373	13547.65
505.576	13918.34
505.779	14096.51
505.982	13994.11
506.185	14329.98
506.387	14819.44
506.59	14628.98
506.793	15087.73
506.996	14852.21
507.198	15349.87
507.401	15265.9
507.604	15448.17
507.807	15698.02
508.009	15956.07
508.212	15767.65
508.415	16134.24
508.617	16396.38
508.82	16273.5
509.022	16519.26
509.225	16679
509.428	16832.6
509.63	16832.6
509.833	16988.24
510.035	17356.88
510.238	17324.11
510.44	17602.63
510.643	17825.86
510.845	18036.8
511.048	17688.65
511.25	18208.83
511.453	17971.27
511.655	18823.22
511.858	18698.3
512.06	18757.69
512.262	19064.88
512.465	18931.76
512.667	19136.56
512.87	19550.25
513.072	19540.01
513.274	19980.32
513.477	20009
513.679	20148.26
513.881	20195.36
514.084	20742.17
514.286	20594.72
514.488	20600.86
514.69	21395.47
514.893	21520.4
515.095	21221.39
515.297	21803.02
515.499	21618.7
515.701	21858.31
515.904	22159.36
516.106	22073.35
516.308	22194.18
516.51	22775.8
516.712	22585.34
516.914	23035.89
517.116	23080.95
517.318	23410.67
517.52	23341.04
517.722	23271.41
517.925	23879.66
518.127	24328.16
518.329	24301.54
518.531	24000.49
518.733	24598.49
518.935	24895.45
519.136	24666.08
519.338	25403.35
519.54	25130.97
519.742	25513.94
519.944	25538.51
520.146	25933.77
520.348	25913.29
520.55	26183.62
520.752	26048.46
520.954	26425.28
521.155	26826.68
521.357	26851.26
521.559	27135.93
521.761	27277.24
521.963	27445.17
522.164	27463.6
522.366	27418.55
522.568	27742.13
522.77	27621.3
522.971	28225.45
523.173	28409.76
523.375	28082.09
523.576	28454.82
523.778	28628.9
523.98	28946.33
524.181	28729.25
524.383	28917.66
524.584	29290.39
524.786	29071.26
524.988	29036.44
525.189	29450.13
525.391	29491.09
525.592	29912.97
525.794	29829.01
525.995	30089.1
526.197	30244.74
526.398	30140.3
526.6	30267.27
526.801	30388.1
527.003	30443.4
527.204	30508.93
527.406	30599.04
527.607	30556.04
527.808	30838.65
528.01	30510.98
528.211	30781.31
528.412	31117.18
528.614	31360.89
528.815	31393.65
529.016	31379.32
529.218	31242.1
529.419	31283.06
529.62	31367.03
529.822	31215.48
530.023	31129.47
530.224	31319.93
530.425	31563.64
530.626	31174.52
530.828	31238.01
531.029	32032.62
531.23	31608.69
531.431	31354.74
531.632	31598.45
531.833	31541.11
532.035	31926.13
532.236	31735.67
532.437	32292.71
532.638	31670.13
532.839	31989.61
533.04	31549.3
533.241	31465.33
533.442	31958.89
533.643	31924.08
533.844	31668.08
534.045	32016.24
534.246	31551.35
534.447	32104.3
534.648	31704.95
534.849	31676.27
535.05	31606.64
535.251	31977.33
535.451	31625.07
535.652	32059.24
535.853	31721.33
536.054	31991.66
536.255	31989.61
536.456	31610.74
536.657	31952.75
536.857	31786.86
537.058	31537.01
537.259	32311.14
537.46	31842.16
537.66	31813.49
537.861	31856.5
538.062	32147.31
538.263	31868.78
538.463	31770.48
538.664	31715.19
538.865	31641.46
539.065	32192.36
539.266	31471.48
539.466	32145.26
539.667	31401.85
539.868	32165.74
540.068	31827.82
540.269	31805.3
540.469	31754.1
540.67	31594.36
540.87	31508.34
541.071	31754.1
541.271	31483.76
541.472	31104.89
541.672	31537.01
541.873	31317.88
542.073	31145.85
542.274	31676.27
542.474	31614.83
542.675	31451
542.875	32112.49
543.075	31297.4
543.276	31033.21
543.476	31528.82
543.676	31393.65
543.877	31801.2
544.077	31190.91
544.277	31199.1
544.478	31276.92
544.678	31647.6
544.878	31305.59
545.078	31770.48
545.279	31289.21
545.479	31281.02
545.679	31913.84
545.879	31369.08
546.079	31137.66
546.28	31305.59
546.48	31008.64
546.68	31653.75
546.88	31111.03
547.08	31133.56
547.28	31242.1
547.48	30838.65
547.68	31211.39
547.88	30891.9
548.081	31502.2
548.281	31074.17
548.481	31348.6
548.681	31618.93
548.881	31135.61
549.081	31000.44
549.28	31162.23
549.48	31242.1
549.68	31113.08
549.88	31145.85
550.08	30861.18
550.28	31151.99
550.48	31367.03
550.68	31281.02
550.88	30855.04
551.08	30797.7
551.279	30703.49
551.479	30801.79
551.679	31027.07
551.879	30764.93
552.079	31217.53
552.278	31010.68
552.478	30898.05
552.678	30949.25
552.878	31334.26
553.077	30916.48
553.277	30883.71
553.477	31195
553.676	30551.94
553.876	30660.48
554.076	30474.12
554.275	30818.18
554.475	30314.37
554.674	30629.76
554.874	30855.04
555.074	30840.7
555.273	30721.92
555.473	31004.54
555.672	30592.9
555.872	30484.36
556.071	31076.22
556.271	30596.99
556.47	30314.37
556.67	30132.11
556.869	30404.49
557.068	30414.73
557.268	30119.82
557.467	30224.26
557.667	30357.38
557.866	30136.2
558.065	30175.11
558.265	30209.93
558.464	30013.32
558.663	30347.14
558.863	30015.37
559.062	30480.26
559.261	29874.06
559.461	30605.19
559.66	29632.4
559.859	29777.81
560.058	29761.42
560.258	29853.58
560.457	29421.46
560.656	29863.82
560.855	29849.49
561.054	29777.81
561.253	29671.31
561.453	29656.98
561.652	29804.43
561.851	29847.44
562.05	29685.65
562.249	29286.29
562.448	29474.71
562.647	29499.28
562.846	29499.28
563.045	29196.18
563.244	28948.38
563.443	29654.93
563.642	28721.06
563.841	29095.83
564.04	28884.89
564.239	29271.96
564.438	28938.14
564.637	28835.74
564.836	28831.65
565.035	28616.61
565.234	29077.4
565.432	28848.03
565.631	28469.15
565.83	28927.9
566.029	28483.49
566.228	28569.51
566.427	28358.56
566.625	28360.61
566.824	28391.33
567.023	28903.32
567.222	27991.98
567.42	28632.99
567.619	28133.29
567.818	28491.68
568.016	28219.3
568.215	28028.84
568.414	27963.31
568.612	28290.98
568.811	27809.71
569.01	28463.01
569.208	27914.16
569.407	27893.68
569.605	27461.55
569.804	27649.97
570.002	27668.4
570.201	27781.04
570.4	27094.97
570.598	27424.69
570.797	27283.38
570.995	27193.27
571.193	27242.42
571.392	27305.91
571.59	26924.99
571.789	27154.36
571.987	27189.17
572.186	27133.88
572.384	26609.6
572.582	27101.11
572.781	27086.78
572.979	26554.3
573.177	26945.47
573.376	26816.44
573.574	26572.74
573.772	26372.03
573.971	26681.28
574.169	26453.95
574.367	26333.12
574.565	26779.58
574.763	26363.84
574.962	25862.09
575.16	26113.99
575.358	26111.94
575.556	25911.24
575.754	26204.1
575.952	25880.52
576.151	26220.49
576.349	25778.12
576.547	25806.8
576.745	25632.72
576.943	25763.79
577.141	25681.87
577.339	25395.15
577.537	25403.35
577.735	25528.27
577.933	25188.31
578.131	25429.97
578.329	25112.53
578.527	25006.04
578.725	25366.48
578.923	25106.39
579.121	25036.76
579.319	25098.2
579.516	24915.93
579.714	25057.24
579.912	24846.3
580.11	25003.99
580.308	24860.63
580.506	24516.58
580.704	24367.07
580.901	24674.27
581.099	24655.84
581.297	24090.6
581.495	24217.57
581.692	24340.45
581.89	24113.13
582.088	24303.59
582.285	24211.43
582.483	24258.53
582.681	24076.26
582.878	23799.79
583.076	23967.72
583.274	23977.96
583.471	23601.13
583.669	23609.33
583.866	23422.96
584.064	23484.4
584.262	23656.43
584.459	23695.34
584.657	23580.65
584.854	23506.93
585.052	23179.25
585.249	23347.19
585.447	23277.55
585.644	22816.76
585.841	22702.07
586.039	23164.92
586.236	22925.3
586.434	23025.65
586.631	22687.74
586.828	22798.33
587.026	22771.71
587.223	22644.73
587.42	22456.32
587.618	22478.85
587.815	22407.17
588.012	22376.45
588.21	22456.32
588.407	22112.26
588.604	22106.12
588.801	22003.72
588.999	22018.05
589.196	22095.88
589.393	21915.65
589.59	21917.7
589.787	21848.07
589.984	21635.08
590.182	21604.36
590.379	21723.15
590.576	21465.1
590.773	21403.66
590.97	21164.05
591.167	21483.53
591.364	21225.49
591.561	21516.3
591.758	21018.64
591.955	21090.32
592.152	21274.64
592.349	21129.23
592.546	21049.36
592.743	21162
592.94	20658.2
593.137	20887.57
593.334	20631.58
593.531	20920.34
593.727	20693.02
593.924	20631.58
594.121	20500.51
594.318	20486.17
594.515	20090.91
594.712	20613.15
594.908	20213.79
595.105	20293.66
595.302	20262.94
595.499	20318.24
595.696	19902.5
595.892	19699.75
596.089	20099.11
596.286	19978.28
596.482	20111.39
596.679	19802.15
596.876	20068.39
597.072	19845.16
597.269	19578.92
597.466	19456.04
597.662	19478.57
597.859	19544.11
598.055	19542.06
598.252	19310.64
598.448	19220.53
598.645	19050.55
598.841	18722.87
599.038	19161.14
599.234	18880.57
599.431	19130.42
599.627	18769.97
599.824	18827.32
600.02	18716.73
600.217	18704.44
600.413	18939.96
600.609	18819.13
600.806	18507.83
601.002	18796.6
601.198	18651.19
601.395	18581.56
601.591	18571.32
601.787	18403.39
601.984	18417.72
602.18	18575.42
602.376	18329.66
602.572	18057.28
602.769	18339.9
602.965	17999.94
603.161	17711.18
603.357	17711.18
603.553	17823.81
603.75	17856.58
603.946	17510.47
604.142	17723.46
604.338	17649.74
604.534	17750.09
604.73	17545.29
604.926	17530.95
605.122	17444.94
605.318	17428.56
605.514	17322.06
605.71	17252.43
605.906	17125.46
606.102	17180.75
606.298	17324.11
606.494	17121.36
606.69	17115.22
606.886	17250.38
607.082	17188.94
607.278	17186.9
607.474	16578.65
607.67	17119.31
607.866	16724.05
608.062	16855.12
608.257	16785.49
608.453	16765.01
608.649	16676.95
608.845	16552.02
609.041	16519.26
609.236	16351.32
609.432	16355.42
609.628	16541.78
609.824	16353.37
610.019	16441.43
610.215	16521.31
610.411	16451.67
610.606	16615.51
610.802	16306.27
610.998	16185.44
611.193	16287.84
611.389	16220.25
611.584	16293.98
611.78	16031.84
611.976	16207.97
612.171	16341.08
612.367	15945.83
612.562	16199.77
612.758	15837.28
612.953	16001.12
613.149	16040.03
613.344	15482.99
613.539	15970.4
613.735	15601.77
613.93	15798.37
614.126	15761.51
614.321	16074.85
614.517	15747.17
614.712	15593.58
614.907	15718.5
615.103	15614.06
615.298	15685.73
615.493	15800.42
615.688	15521.9
615.884	15693.93
616.079	15392.87
616.274	15433.83
616.47	15163.5
616.665	15313
616.86	15327.34
617.055	15517.8
617.25	15087.73
617.445	15439.98
617.641	14975.09
617.836	15132.78
618.031	14989.42
618.226	14921.84
618.421	14891.12
618.616	15032.43
618.811	14798.96
619.006	14983.28
619.201	14563.45
619.396	14905.46
619.591	14510.2
619.786	14835.83
619.981	14397.56
620.176	14702.71
620.371	14413.95
620.566	14459
620.761	14069.89
620.956	14487.67
621.151	14121.09
621.346	14282.88
621.541	13959.3
621.735	14008.45
621.93	13705.35
622.125	14129.28
622.32	13541.51
622.515	13736.07
622.709	13494.41
622.904	13594.76
623.099	13678.72
623.294	13615.24
623.488	13617.29
623.683	13369.48
623.878	12982.42
624.072	13322.38
624.267	13168.78
624.462	13078.67
624.656	12996.75
624.851	12978.32
625.046	13099.15
625.24	12853.39
625.435	12703.89
625.629	12765.33
625.824	12527.77
626.018	12587.16
626.213	12341.4
626.407	12089.5
626.602	12173.47
626.796	12398.74
626.991	12189.85
627.185	12140.7
627.38	12196
627.574	12023.97
627.768	11956.38
627.963	11983.01
628.157	11774.11
628.352	11774.11
628.546	11571.36
628.74	11712.67
628.935	11620.52
629.129	11505.83
629.323	11501.73
629.517	11526.31
629.712	11395.24
629.906	11198.63
630.1	11055.28
630.294	10959.02
630.489	10989.74
630.683	11126.96
630.877	10737.84
631.071	10803.38
631.265	10938.54
631.459	10743.99
631.653	10690.74
631.848	10920.11
632.042	10639.54
632.236	10750.13
632.43	10367.16
632.624	10524.85
632.818	10498.23
633.012	10420.41
633.206	10211.51
633.4	10074.3
633.594	10096.83
633.788	10238.14
633.982	10105.02
634.176	10070.2
634.369	10174.65
634.563	9980.09
634.757	9795.78
634.951	9803.97
635.145	10006.72
635.339	9894.08
635.533	9593.03
635.726	9715.91
635.92	9466.05
636.114	9574.6
636.308	9418.95
636.501	9488.58
636.695	9466.05
636.889	9013.45
637.083	9130.19
637.276	9189.58
637.47	9134.28
637.664	9081.03
637.857	9091.27
638.051	8958.16
638.244	8892.62
638.438	8796.37
638.632	8925.39
638.825	8720.59
639.019	8784.08
639.212	8505.56
639.406	8726.74
639.599	8683.73
639.793	8696.02
639.986	8673.49
640.18	8534.23
640.373	8392.92
640.567	8354.01
640.76	8315.09
640.954	8394.97
641.147	8341.72
641.34	8061.15
641.534	8134.87
641.727	7991.52
641.92	8065.24
642.114	7968.99
642.307	7985.37
642.5	7934.17
642.694	7813.34
642.887	7788.77
643.08	7987.42
643.273	7760.09
643.467	7823.58
643.66	7710.94
643.853	7588.07
644.046	7452.9
644.239	7678.18
644.432	7530.72
644.626	7481.57
644.819	7444.71
645.012	7495.91
645.205	7616.74
645.398	7209.19
645.591	7395.56
645.784	7401.7
645.977	7172.33
646.17	7182.57
646.363	7000.3
646.556	6990.06
646.749	7235.81
646.942	7076.07
647.135	7086.31
647.328	6902
647.521	7110.89
647.714	6902
647.907	6885.61
648.099	6770.93
648.292	6813.93
648.485	6646
648.678	6543.6
648.871	6822.13
649.064	6686.96
649.256	6701.3
649.449	6779.12
649.642	6447.35
649.835	6502.64
650.027	6430.96
650.22	6426.87
650.413	6369.52
650.605	6428.92
650.798	6299.89
650.991	6113.53
651.183	6230.26
651.376	6324.47
651.568	6260.98
651.761	6158.58
651.954	6236.41
652.146	6109.43
652.339	6023.42
652.531	6174.97
652.724	6000.89
652.916	5939.45
653.109	6121.72
653.301	5855.48
653.494	6000.89
653.686	5835
653.879	5949.69
654.071	5812.48
654.263	5734.65
654.456	5808.38
654.648	5785.85
654.84	5681.41
655.033	5640.45
655.225	5650.69
655.417	5529.86
655.61	5662.97
655.802	5579.01
655.994	5443.84
656.186	5417.22
656.379	5421.31
656.571	5411.07
656.763	5392.64
656.955	5196.04
657.148	5472.51
657.34	5495.04
657.532	5253.38
657.724	5261.57
657.916	5300.48
658.108	5193.99
658.3	5099.78
658.492	5105.93
658.684	5077.26
658.876	5103.88
659.068	4970.76
659.26	4919.56
659.452	5083.4
659.644	4999.43
659.836	4839.69
660.028	4987.15
660.22	4948.23
660.412	4921.61
660.604	4876.55
660.796	4925.71
660.988	4815.12
661.18	4679.95
661.372	4731.15
661.563	4874.51
661.755	4661.52
661.947	4550.93
662.139	4651.28
662.331	4616.46
662.522	4501.78
662.714	4475.15
662.906	4507.92
663.097	4579.6
663.289	4571.41
663.481	4479.25
663.673	4487.44
663.864	4587.79
664.056	4557.07
664.247	4493.58
664.439	4249.88
664.631	4319.51
664.822	4272.4
665.014	4389.14
665.205	4337.94
665.397	4219.16
665.588	4247.83
665.78	4190.49
665.971	4188.44
666.163	4153.62
666.354	4206.87
666.546	4165.91
666.737	4192.53
666.929	4051.22
667.12	4098.33
667.311	4000.02
667.503	4139.29
667.694	4018.46
667.885	4098.33
668.077	4094.23
668.268	3901.72
668.459	3907.87
668.651	3959.06
668.842	4020.5
669.033	3848.47
669.224	3848.47
669.416	3827.99
669.607	3936.54
669.798	3694.88
669.989	3725.6
670.18	3877.15
670.371	3739.93
670.563	3653.92
670.754	3746.08
670.945	3615.01
671.136	3703.07
671.327	3719.45
671.518	3811.61
671.709	3782.94
671.9	3705.12
672.091	3676.45
672.282	3598.62
672.473	3649.82
672.664	3660.06
672.855	3598.62
673.046	3526.94
673.237	3455.26
673.428	3520.8
673.619	3502.37
673.809	3545.38
674	3506.46
674.191	3627.29
674.382	3516.7
674.573	3483.94
674.764	3418.4
674.954	3332.39
675.145	3356.96
675.336	3399.97
675.527	3309.86
675.717	3432.74
675.908	3299.62
676.099	3391.78
676.289	3397.92
676.48	3125.54
676.671	3287.33
676.861	3303.71
677.052	3164.45
677.243	3184.93
677.433	3258.66
677.624	3328.29
677.814	3332.39
678.005	3250.47
678.195	3289.38
678.386	3258.66
678.576	3219.75
678.767	3203.36
678.957	3160.36
679.148	3248.42
679.338	3146.02
679.529	3209.51
679.719	3100.97
679.909	3156.26
680.1	3207.46
680.29	3180.84
680.481	3156.26
680.671	3082.53
680.861	3105.06
681.052	3060.01
681.242	3062.05
681.432	3105.06
681.622	3002.66
681.813	3148.07
682.003	3033.38
682.193	3080.49
682.383	3047.72
682.573	3094.82
682.764	3135.78
682.954	3082.53
683.144	3006.76
683.334	2994.47
683.524	2965.8
683.714	3035.43
683.904	2918.7
684.094	3051.81
684.284	2930.98
684.474	2916.65
684.664	2949.42
684.854	2875.69
685.044	2939.18
685.234	2871.59
685.424	2896.17
685.614	2693.42
685.804	2914.6
685.994	2838.83
686.184	2869.55
686.374	2933.03
686.564	2789.67
686.753	2869.55
686.943	2761
687.133	2701.61
687.323	2879.79
687.513	2885.93
687.702	2756.91
687.892	2711.85
688.082	2677.04
688.272	2707.76
688.461	2668.84
688.651	2654.51
688.841	2720.04
689.03	2691.37
689.22	2648.36
689.41	2718
689.599	2578.73
689.789	2652.46
689.979	2586.93
690.168	2718
690.358	2689.32
690.547	2537.77
690.737	2570.54
690.926	2529.58
691.116	2453.81
691.305	2652.46
691.495	2582.83
691.684	2566.45
691.874	2560.3
692.063	2457.9
692.252	2451.76
692.442	2386.22
692.631	2466.1
692.82	2425.14
693.01	2353.46
693.199	2347.31
693.388	2464.05
693.578	2359.6
693.767	2371.89
693.956	2306.35
694.146	2337.07
694.335	2324.79
694.524	2343.22
694.713	2277.68
694.902	2339.12
695.092	2402.61
695.281	2388.27
695.47	2316.59
695.659	2283.83
695.848	2322.74
696.037	2222.39
696.226	2275.63
696.415	2199.86
696.604	2259.25
696.793	2435.38
696.982	2271.54
697.171	2283.83
697.36	2249.01
697.549	2285.87
697.738	2218.29
697.927	2146.61
698.116	2240.82
698.305	2269.49
698.494	2181.43
698.683	2179.38
698.872	2318.64
699.061	2269.49
699.25	2210.1
699.438	2330.93
699.627	2267.44
699.816	2312.5
700.005	2177.33
700.193	2255.15
700.382	2128.18
700.571	2289.97
700.76	2226.48
700.948	2226.48
701.137	2275.63
701.326	2203.96
701.514	2109.75
701.703	2259.25
701.892	2298.16
702.08	2214.2
702.269	2246.96
702.457	2265.39
702.646	2165.04
702.834	2101.56
703.023	2193.72
703.212	2259.25
703.4	2273.59
703.589	2173.24
703.777	2230.58
703.965	2142.52
704.154	2218.29
704.342	2152.76
704.531	2132.28
704.719	2257.2
704.907	2355.51
705.096	2175.28
705.284	2152.76
705.472	2265.39
705.661	2179.38
705.849	2197.81
706.037	2259.25
706.226	2144.56
706.414	2222.39
706.602	2208.05
706.79	2185.52
706.979	2156.85
707.167	2203.96
707.355	2234.68
707.543	2218.29
707.731	2224.44
707.919	2177.33
708.107	2259.25
708.296	2150.71
708.484	2230.58
708.672	2210.1
708.86	2206
709.048	2179.38
709.236	2187.57
709.424	2308.4
709.612	2306.35
709.8	2134.32
709.988	2132.28
710.176	2183.48
710.364	2201.91
710.551	2203.96
710.739	2218.29
710.927	2308.4
711.115	2255.15
711.303	2259.25
711.491	2367.79
711.679	2230.58
711.866	2240.82
712.054	2246.96
712.242	2189.62
712.43	2222.39
712.617	2253.11
712.805	2201.91
712.993	2216.24
713.181	2136.37
713.368	2144.56
713.556	2324.79
713.744	2265.39
713.931	2201.91
714.119	2177.33
714.306	2253.11
714.494	2193.72
714.682	2261.3
714.869	2400.56
715.057	2273.59
715.244	2193.72
715.432	2175.28
715.619	2140.47
715.807	2230.58
715.994	2238.77
716.182	2267.44
716.369	2189.62
716.556	2298.16
716.744	2148.66
716.931	2244.92
717.119	2257.2
717.306	2206
717.493	2265.39
717.681	2232.63
717.868	2283.83
718.055	2285.87
718.242	2148.66
718.43	2210.1
718.617	2132.28
718.804	2294.07
718.991	2275.63
719.179	2179.38
719.366	2302.26
719.553	2287.92
719.74	2183.48
719.927	2316.59
720.114	2226.48
720.301	2298.16
720.488	2287.92
720.676	2265.39
720.863	2300.21
721.05	2234.68
721.237	2240.82
721.424	2236.72
721.611	2115.89
721.798	2181.43
721.985	2009.4
722.172	2165.04
722.358	2167.09
722.545	2246.96
722.732	2181.43
722.919	2222.39
723.106	2242.87
723.293	2191.67
723.48	2191.67
723.667	2259.25
723.853	2242.87
724.04	2222.39
724.227	2191.67
724.414	2304.31
724.6	2226.48
724.787	2275.63
724.974	2234.68
725.161	2294.07
725.347	2072.89
725.534	2025.78
725.72	2201.91
725.907	2130.23
726.094	2253.11
726.28	2148.66
726.467	2163
726.653	2259.25
726.84	2249.01
727.027	2187.57
727.213	2208.05
727.4	2203.96
727.586	2156.85
727.773	2130.23
727.959	2042.17
728.145	2156.85
728.332	2070.84
728.518	2060.6
728.705	2171.19
728.891	2179.38
729.077	2031.93
729.264	2085.17
729.45	2236.72
729.636	2230.58
729.823	2189.62
730.009	2173.24
730.195	2062.65
730.382	2187.57
730.568	2113.85
730.754	2056.5
730.94	2126.13
731.126	2179.38
731.313	2095.41
731.499	2140.47
731.685	2117.94
731.871	2101.56
732.057	2158.9
732.243	2148.66
732.429	2109.75
732.615	2054.45
732.801	2191.67
732.987	2097.46
733.173	2040.12
733.359	2124.08
733.545	2072.89
733.731	2087.22
733.917	2052.41
734.103	2066.74
734.289	2128.18
734.475	2050.36
734.661	2089.27
734.847	2195.76
735.033	2122.04
735.219	1966.39
735.404	1966.39
735.59	2097.46
735.776	2066.74
735.962	2007.35
736.148	2111.8
736.333	2036.02
736.519	2122.04
736.705	2062.65
736.89	1988.92
737.076	2066.74
737.262	1972.54
737.447	2113.85
737.633	1976.63
737.819	2148.66
738.004	1972.54
738.19	1986.87
738.375	1997.11
738.561	1976.63
738.747	1999.16
738.932	1921.34
739.118	2001.21
739.303	1960.25
739.489	2070.84
739.674	1888.57
739.859	1900.86
740.045	1896.76
740.23	1911.1
740.416	2019.64
740.601	1964.34
740.786	1907
740.972	1870.14
741.157	1909.05
741.342	1988.92
741.528	1925.43
741.713	1898.81
741.898	1806.65
742.084	1753.4
742.269	1913.14
742.454	1937.72
742.639	1902.9
742.824	1841.47
743.01	1911.1
743.195	1882.42
743.38	1780.03
743.565	1792.31
743.75	1767.74
743.935	1737.02
744.12	1904.95
744.305	1755.45
744.49	1835.32
744.675	1757.5
744.86	1849.66
745.045	1792.31
745.23	1743.16
745.415	1685.82
745.6	1771.83
745.785	1775.93
745.97	1757.5
746.155	1661.24
746.34	1763.64
746.525	1691.96
746.71	1712.44
746.895	1810.75
747.079	1734.97
747.264	1671.48
747.449	1663.29
747.634	1661.24
747.819	1423.68
748.003	1659.2
748.188	1530.17
748.373	1474.88
748.557	1507.65
748.742	1585.47
748.927	1521.98
749.111	1618.24
749.296	1548.61
749.481	1501.5
749.665	1507.65
749.85	1450.3
750.034	1608
750.219	1591.61
750.404	1564.99
750.588	1476.93
750.773	1386.82
750.957	1489.21
751.141	1454.4
751.326	1419.58
751.51	1399.1
751.695	1456.45
751.879	1356.1
752.064	1390.91
752.248	1296.71
752.432	1372.48
752.617	1409.34
752.801	1370.43
752.985	1395.01
753.17	1435.97
753.354	1413.44
753.538	1329.47
753.722	1341.76
753.907	1321.28
754.091	1173.83
754.275	1372.48
754.459	1284.42
754.643	1243.46
754.828	1304.9
755.012	1259.84
755.196	1231.17
755.38	1149.25
755.564	1184.07
755.748	1087.81
755.932	1169.73
756.116	1065.29
756.3	1151.3
756.484	1165.64
756.668	1151.3
756.852	1079.62
757.036	1141.06
757.22	1218.88
757.404	1081.67
757.588	1110.34
757.772	1044.81
757.956	1204.55
758.14	1055.05
758.323	1044.81
758.507	1110.34
758.691	1124.68
758.875	1128.77
759.059	1061.19
759.242	1208.64
759.426	1026.37
759.61	1012.04
759.794	1050.95
759.977	1034.57
760.161	1083.72
760.345	1108.29
760.528	977.22
760.712	985.41
760.895	1020.23
761.079	1009.99
761.263	948.55
761.446	901.45
761.63	1009.99
761.813	928.07
761.997	921.93
762.18	932.17
762.364	928.07
762.547	901.45
762.731	938.31
762.914	950.6
763.098	917.83
763.281	962.89
763.464	919.88
763.648	874.82
763.831	827.72
764.015	885.06
764.198	940.36
764.381	985.41
764.564	876.87
764.748	889.16
764.931	1001.8
765.114	842.06
765.297	893.26
765.481	823.62
765.664	801.1
765.847	852.3
766.03	926.02
766.213	858.44
766.397	883.02
766.58	885.06
766.763	930.12
766.946	856.39
767.129	678.22
767.312	733.51
767.495	862.54
767.678	805.19
767.861	794.95
768.044	805.19
768.227	727.37
768.41	891.21
768.593	819.53
768.776	768.33
768.959	833.86
769.142	829.77
769.324	741.71
769.507	809.29
769.69	753.99
769.873	813.38
770.056	829.77
770.239	762.19
770.421	719.18
770.604	739.66
770.787	684.36
770.97	743.75
771.152	823.62
771.335	760.14
771.518	729.42
771.7	788.81
771.883	782.67
772.066	672.08
772.248	729.42
772.431	715.08
772.613	813.38
772.796	731.47
772.978	749.9
773.161	729.42
773.343	727.37
773.526	680.27
773.708	653.64
773.891	665.93
774.073	768.33
774.256	651.6
774.438	665.93
774.621	680.27
774.803	692.55
774.985	592.2
775.168	678.22
775.35	588.11
775.532	719.18
775.715	596.3
775.897	528.72
776.079	627.02
776.261	678.22
776.444	614.73
776.626	663.88
776.808	610.64
776.99	608.59
777.173	600.4
777.355	622.92
777.537	586.06
777.719	620.88
777.901	571.72
778.083	581.96
778.265	534.86
778.447	661.84
778.629	565.58
778.811	629.07
778.993	653.64
779.175	608.59
779.357	516.43
779.539	530.77
779.721	479.57
779.903	483.66
780.085	524.62
780.267	559.44
780.449	522.57
780.631	528.72
780.812	602.44
780.994	498
781.176	432.46
781.358	538.96
781.54	510.29
781.721	461.13
781.903	489.81
782.085	454.99
782.267	438.61
782.448	479.57
782.63	498
782.812	440.65
782.993	387.41
783.175	495.95
783.357	420.17
783.538	387.41
783.72	469.33
783.901	489.81
784.083	342.35
784.264	377.17
784.446	401.74
784.627	385.36
784.809	426.32
784.99	405.84
785.172	334.16
785.353	465.23
785.535	477.52
785.716	420.17
785.897	379.22
786.079	254.29
786.26	454.99
786.441	379.22
786.623	379.22
786.804	330.06
786.985	483.66
787.167	362.83
787.348	397.65
787.529	354.64
787.71	416.08
787.891	371.02
788.073	387.41
788.254	375.12
788.435	389.46
788.616	321.87
788.797	364.88
788.978	385.36
789.159	373.07
789.34	379.22
789.522	393.55
789.703	381.26
789.884	311.63
790.065	362.83
790.246	321.87
790.427	313.68
790.607	321.87
790.788	379.22
790.969	180.56
791.15	317.78
791.331	307.54
791.512	317.78
791.693	248.15
791.874	250.19
792.054	297.3
792.235	313.68
792.416	287.06
792.597	270.67
792.778	303.44
792.958	325.97
793.139	260.43
793.32	246.1
793.5	248.15
793.681	289.1
793.862	379.22
794.042	344.4
794.223	268.63
794.404	272.72
794.584	262.48
794.765	305.49
794.945	268.63
795.126	332.11
795.306	268.63
795.487	258.39
795.667	266.58
795.848	287.06
796.028	207.19
796.209	293.2
796.389	342.35
796.57	256.34
796.75	291.15
796.93	260.43
797.111	246.1
797.291	250.19
797.471	252.24
797.652	223.57
797.832	227.67
798.012	242
798.192	158.03
798.373	196.95
798.553	264.53
798.733	235.86
798.913	207.19
799.093	190.8
799.274	196.95
799.454	254.29
799.634	203.09
799.814	186.71
799.994	164.18
800.174	239.95
800.354	213.33
800.534	110.93
800.714	221.52
800.894	201.04
801.074	158.03
801.254	237.91
801.434	264.53
801.614	233.81
801.794	211.28
801.974	592.2
802.154	112.98
802.334	233.81
802.514	155.99
802.693	127.32
802.873	188.75
803.053	223.57
803.233	172.37
803.413	153.94
803.592	192.85
803.772	153.94
803.952	219.47
804.131	135.51
804.311	133.46
804.491	252.24
804.67	182.61
804.85	215.38
805.03	244.05
805.209	172.37
805.389	143.7
805.568	186.71
805.748	131.41
805.928	260.43
806.107	231.76
806.287	196.95
806.466	217.43
806.646	117.08
806.825	186.71
807.004	160.08
807.184	254.29
807.363	168.27
807.543	123.22
807.722	188.75
807.901	207.19
808.081	229.71
808.26	108.88
808.439	184.66
808.619	135.51
808.798	137.56
808.977	110.93
809.156	96.6
809.336	164.18
809.515	178.51
809.694	115.03
809.873	112.98
810.052	235.86
810.231	151.89
810.411	180.56
810.59	147.8
810.769	196.95
810.948	84.31
811.127	74.07
811.306	123.22
811.485	125.27
811.664	190.8
811.843	174.42
812.022	162.13
812.201	158.03
812.38	131.41
812.559	133.46
812.737	149.84
812.916	153.94
813.095	186.71
813.274	135.51
813.453	69.97
813.632	125.27
813.811	170.32
813.989	78.16
814.168	78.16
814.347	98.64
814.526	55.64
814.704	119.12
814.883	158.03
815.062	84.31
815.24	92.5
815.419	145.75
815.598	76.12
815.776	123.22
815.955	139.6
816.133	63.83
816.312	110.93
816.49	53.59
816.669	98.64
816.847	121.17
817.026	127.32
817.204	104.79
817.383	74.07
817.561	98.64
817.74	100.69
817.918	90.45
818.097	141.65
818.275	155.99
818.453	117.08
818.632	53.59
818.81	145.75
818.988	160.08
819.167	133.46
819.345	123.22
819.523	102.74
819.701	96.6
819.879	123.22
820.058	86.36
820.236	63.83
820.414	57.68
820.592	94.55
820.77	78.16
820.948	37.2
821.127	151.89
821.305	149.84
821.483	26.96
821.661	49.49
821.839	119.12
822.017	96.6
822.195	102.74
822.373	137.56
822.551	100.69
822.729	84.31
822.907	102.74
823.085	76.12
823.262	86.36
823.44	100.69
823.618	96.6
823.796	84.31
823.974	98.64
824.152	33.11
824.329	65.88
824.507	112.98
824.685	94.55
824.863	125.27
825.04	139.6
825.218	121.17
825.396	51.54
825.574	102.74
825.751	55.64
825.929	96.6
826.107	47.44
826.284	45.4
826.462	90.45
826.639	49.49
826.817	125.27
826.994	94.55
827.172	88.4
827.349	110.93
827.527	45.4
827.704	112.98
827.882	72.02
828.059	76.12
828.237	55.64
828.414	110.93
828.591	49.49
828.769	112.98
828.946	35.16
829.124	102.74
829.301	33.11
829.478	82.26
829.655	119.12
829.833	59.73
830.01	98.64
830.187	92.5
830.364	45.4
830.542	78.16
830.719	37.2
830.896	104.79
831.073	106.84
831.25	18.77
831.427	90.45
831.604	61.78
831.782	33.11
831.959	41.3
832.136	121.17
832.313	22.87
832.49	51.54
832.667	14.68
832.844	98.64
833.021	135.51
833.198	53.59
833.374	22.87
833.551	131.41
833.728	65.88
833.905	6.49
834.082	80.21
834.259	72.02
834.436	137.56
834.612	61.78
834.789	90.45
834.966	-5.8
835.143	16.73
835.319	82.26
835.496	67.92
835.673	78.16
835.85	31.06
836.026	43.35
836.203	49.49
836.38	35.16
836.556	26.96
836.733	65.88
836.909	106.84
837.086	55.64
837.262	127.32
837.439	76.12
837.616	67.92
837.792	31.06
837.968	-5.8
838.145	69.97
838.321	63.83
838.498	59.73
838.674	41.3
838.851	10.58
839.027	86.36
839.203	80.21
839.38	90.45
839.556	-30.38
839.732	90.45
839.909	76.12
840.085	121.17
840.261	24.92
840.437	14.68
840.614	49.49
840.79	51.54
840.966	24.92
841.142	43.35
841.318	-54.95
841.494	102.74
841.671	22.87
841.847	12.63
842.023	8.53
842.199	29.01
842.375	72.02
842.551	-18.09
842.727	4.44
842.903	74.07
843.079	18.77
843.255	110.93
843.431	43.35
843.607	4.44
843.783	37.2
843.959	43.35
844.134	12.63
844.31	131.41
844.486	16.73
844.662	24.92
844.838	86.36
845.013	61.78
845.189	72.02
845.365	35.16
845.541	45.4
845.716	61.78
845.892	-24.23
846.068	53.59
846.244	-13.99
846.419	-26.28
846.595	-28.33
846.77	-22.19
846.946	22.87
847.122	8.53
847.297	-34.47
847.473	151.89
847.648	43.35
847.824	31.06
847.999	-11.95
848.175	-7.85
848.35	12.63
848.526	0.34
848.701	72.02
848.876	57.68
849.052	22.87
849.227	24.92
849.403	-34.47
849.578	74.07
849.753	33.11
849.929	-22.19
850.104	63.83
850.279	55.64
850.454	41.3
850.63	10.58
850.805	106.84
850.98	72.02
851.155	-11.95
851.33	2.39
851.505	-30.38
851.681	102.74
851.856	-40.62
852.031	76.12
852.206	33.11
852.381	14.68
852.556	47.44
852.731	84.31
852.906	39.25
853.081	47.44
853.256	-1.71
853.431	24.92
853.606	63.83
853.781	-34.47
853.956	43.35
854.131	4.44
854.305	2.39
854.48	49.49
854.655	-36.52
854.83	37.2
855.005	51.54
855.18	47.44
855.354	12.63
855.529	37.2
855.704	26.96
855.879	78.16
856.053	-1.71
856.228	61.78
856.403	-63.15
856.577	14.68
856.752	10.58
856.926	98.64
857.101	-69.29
857.276	-24.23
857.45	-18.09
857.625	74.07
857.799	-13.99
857.974	123.22
858.148	-5.8
858.323	37.2
858.497	43.35
858.672	-38.57
858.846	-61.1
859.02	80.21
859.195	-28.33
859.369	12.63
859.543	43.35
859.718	10.58
859.892	-44.71
860.066	12.63
860.241	-42.67
860.415	22.87
860.589	59.73
860.763	16.73
860.938	-48.81
861.112	100.69
861.286	33.11
861.46	63.83
861.634	8.53
861.808	-18.09
861.982	18.77
862.157	-20.14
862.331	41.3
862.505	-5.8
862.679	-32.43
862.853	0.34
863.027	-7.85
863.201	4.44
863.375	55.64
863.549	-5.8
863.722	-36.52
863.896	57.68
864.07	-7.85
864.244	-38.57
864.418	-30.38
864.592	45.4
864.766	-22.19
864.939	-3.75
865.113	-95.91
865.287	43.35
865.461	4.44
865.634	-28.33
865.808	35.16
865.982	-3.75
866.156	-7.85
866.329	-42.67
866.503	2.39
866.676	-24.23
866.85	29.01
867.024	31.06
867.197	26.96
867.371	14.68
867.544	6.49
867.718	29.01
867.891	80.21
868.065	-18.09
868.238	-3.75
868.412	-16.04
868.585	-7.85
868.759	-40.62
868.932	-13.99
869.105	-16.04
869.279	18.77
869.452	-40.62
869.625	-34.47
869.799	12.63
869.972	22.87
870.145	-38.57
870.319	-7.85
870.492	31.06
870.665	-71.34
870.838	33.11
871.011	12.63
871.185	6.49
871.358	-63.15
871.531	4.44
871.704	6.49
871.877	-11.95
872.05	78.16
872.223	-48.81
872.396	76.12
872.569	-16.04
872.742	-7.85
872.915	-11.95
873.088	-20.14
873.261	-9.9
873.434	-22.19
873.607	0.34
873.78	4.44
873.953	-77.48
874.126	51.54
874.299	-13.99
874.471	92.5
874.644	-18.09
874.817	4.44
874.99	-3.75
875.163	-7.85
875.335	20.82
875.508	8.53
875.681	55.64
875.853	-9.9
876.026	53.59
876.199	-7.85
876.371	59.73
876.544	2.39
876.717	18.77
876.889	-18.09
877.062	-100.01
877.234	-3.75
877.407	92.5
877.579	65.88
877.752	-52.91
877.924	18.77
878.097	96.6
878.269	-1.71
878.442	45.4
878.614	82.26
878.786	72.02
878.959	22.87
879.131	-38.57
879.303	10.58
879.476	16.73
879.648	2.39
879.82	-30.38
879.993	39.25
880.165	12.63
880.337	14.68
880.509	0.34
880.681	29.01
880.854	18.77
881.026	-26.28
881.198	29.01
881.37	-67.24
881.542	-34.47
881.714	-50.86
881.886	-3.75
882.058	43.35
882.23	22.87
882.402	-20.14
882.574	-32.43
882.746	-7.85
882.918	31.06
883.09	-3.75
883.262	65.88
883.434	-24.23
883.606	33.11
883.778	10.58
883.95	29.01
884.122	57.68
884.293	98.64
884.465	-28.33
884.637	26.96
884.809	0.34
884.98	-18.09
885.152	-18.09
885.324	-36.52
885.496	6.49
885.667	0.34
885.839	49.49
886.011	65.88
886.182	51.54
886.354	-16.04
886.525	39.25
886.697	20.82
886.869	29.01
887.04	10.58
887.212	37.2
887.383	6.49
887.555	67.92
887.726	8.53
887.897	16.73
888.069	18.77
888.24	8.53
888.412	-32.43
888.583	47.44
888.754	-38.57
888.926	8.53
889.097	12.63
889.268	-13.99
889.44	-1.71
889.611	8.53
889.782	-28.33
889.953	22.87
890.125	-40.62
890.296	-57
890.467	12.63
890.638	-13.99
890.809	76.12
890.98	-42.67
891.151	-5.8
891.323	-1.71
891.494	16.73
891.665	51.54
891.836	4.44
892.007	-24.23
892.178	63.83
892.349	-16.04
892.52	-7.85
892.691	-20.14
892.862	55.64
893.032	-30.38
893.203	2.39
893.374	24.92
893.545	18.77
893.716	12.63
893.887	-18.09
894.057	18.77
894.228	29.01
894.399	-50.86
894.57	-13.99
894.74	72.02
894.911	6.49
895.082	12.63
895.253	-42.67
895.423	61.78
895.594	24.92
895.764	57.68
895.935	18.77
896.106	12.63
896.276	6.49
896.447	-7.85
896.617	-69.29
896.788	-50.86
896.958	22.87
897.129	63.83
897.299	10.58
897.47	63.83
897.64	6.49
897.81	-48.81
897.981	0.34
898.151	-18.09
898.322	12.63
898.492	33.11
898.662	2.39
898.832	-63.15
899.003	35.16
899.173	39.25
899.343	-71.34
899.513	6.49
