Data from USB4F104151__2__12-10-40-241.txt Node

Date: Fri Mar 14 12:10:40 EDT 2025
User: louis
Spectrometer: USB4F10415
Trigger mode: 4
Integration Time (sec): 5.000000E-2
Scans to average: 1
Electric dark correction enabled: true
Nonlinearity correction enabled: false
Boxcar width: 0
XAxis mode: Wavelengths
Number of Pixels in Spectrum: 3648
>>>>>Begin Spectral Data<<<<<
178.204	-223.91
178.424	-223.91
178.644	-223.91
178.864	-160.42
179.084	-266.92
179.304	17.75
179.524	50.52
179.744	-39.59
179.964	5.46
180.184	5.46
180.404	-8.87
180.624	-15.02
180.844	19.8
181.064	-72.36
181.283	27.99
181.503	-29.35
181.723	38.23
181.943	1.37
182.163	107.86
182.383	68.95
182.602	103.76
182.822	140.63
183.042	42.32
183.262	-10.92
183.482	5.46
183.701	27.99
183.921	19.8
184.141	40.28
184.361	128.34
184.58	122.2
184.8	71
185.02	48.47
185.239	99.67
185.459	50.52
185.679	114
185.898	-10.92
186.118	130.39
186.338	68.95
186.557	64.85
186.777	1.37
186.997	40.28
187.216	-4.78
187.436	91.48
187.655	77.14
187.875	66.9
188.095	-10.92
188.314	66.9
188.534	136.53
188.753	-23.21
188.973	27.99
189.192	140.63
189.412	25.94
189.631	56.66
189.851	21.84
190.07	130.39
190.29	30.04
190.509	17.75
190.729	21.84
190.948	130.39
191.168	185.68
191.387	103.76
191.607	7.51
191.826	73.04
192.045	-29.35
192.265	62.8
192.484	36.18
192.704	101.72
192.923	-19.11
193.142	134.48
193.362	38.23
193.581	79.19
193.8	103.76
194.02	114
194.239	30.04
194.458	60.76
194.678	-27.31
194.897	19.8
195.116	89.43
195.335	23.89
195.555	109.91
195.774	79.19
195.993	118.1
196.212	79.19
196.432	73.04
196.651	5.46
196.87	38.23
197.089	107.86
197.308	32.08
197.528	89.43
197.747	-55.98
197.966	64.85
198.185	175.44
198.404	-27.31
198.623	19.8
198.842	81.24
199.062	42.32
199.281	152.91
199.5	23.89
199.719	58.71
199.938	68.95
200.157	109.91
200.376	27.99
200.595	91.48
200.814	68.95
201.033	-23.21
201.252	167.25
201.471	126.29
201.69	116.05
201.909	30.04
202.128	71
202.347	3.41
202.566	62.8
202.785	3.41
203.004	-80.55
203.223	142.68
203.442	66.9
203.661	21.84
203.879	89.43
204.098	34.13
204.317	17.75
204.536	114
204.755	27.99
204.974	111.96
205.193	85.33
205.411	187.73
205.63	120.15
205.849	91.48
206.068	-31.4
206.287	103.76
206.505	56.66
206.724	52.56
206.943	46.42
207.162	73.04
207.381	48.47
207.599	11.61
207.818	21.84
208.037	15.7
208.255	42.32
208.474	-12.97
208.693	48.47
208.911	-2.73
209.13	93.52
209.349	83.28
209.567	36.18
209.786	95.57
210.005	81.24
210.223	50.52
210.442	-39.59
210.661	71
210.879	87.38
211.098	19.8
211.316	48.47
211.535	71
211.753	56.66
211.972	32.08
212.191	60.76
212.409	25.94
212.628	60.76
212.846	44.37
213.065	87.38
213.283	114
213.502	23.89
213.72	89.43
213.938	66.9
214.157	54.61
214.375	15.7
214.594	21.84
214.812	73.04
215.031	85.33
215.249	136.53
215.467	54.61
215.686	48.47
215.904	81.24
216.122	142.68
216.341	134.48
216.559	23.89
216.778	60.76
216.996	91.48
217.214	56.66
217.432	62.8
217.651	48.47
217.869	54.61
218.087	91.48
218.306	27.99
218.524	19.8
218.742	17.75
218.96	120.15
219.179	36.18
219.397	30.04
219.615	89.43
219.833	146.77
220.051	56.66
220.27	91.48
220.488	142.68
220.706	105.81
220.924	17.75
221.142	60.76
221.36	52.56
221.578	109.91
221.796	46.42
222.015	179.54
222.233	34.13
222.451	99.67
222.669	42.32
222.887	79.19
223.105	77.14
223.323	73.04
223.541	-17.07
223.759	103.76
223.977	64.85
224.195	68.95
224.413	95.57
224.631	93.52
224.849	77.14
225.067	124.24
225.285	36.18
225.503	66.9
225.721	-47.79
225.939	19.8
226.157	-0.68
226.375	122.2
226.592	-51.88
226.81	97.62
227.028	103.76
227.246	93.52
227.464	89.43
227.682	118.1
227.9	75.09
228.117	132.44
228.335	13.65
228.553	52.56
228.771	91.48
228.989	-17.07
229.206	64.85
229.424	40.28
229.642	1.37
229.86	36.18
230.077	83.28
230.295	42.32
230.513	52.56
230.731	44.37
230.948	111.96
231.166	81.24
231.384	19.8
231.601	-6.83
231.819	52.56
232.037	-2.73
232.254	7.51
232.472	157.01
232.689	21.84
232.907	60.76
233.125	44.37
233.342	-4.78
233.56	-6.83
233.777	54.61
233.995	11.61
234.213	25.94
234.43	107.86
234.648	79.19
234.865	38.23
235.083	150.87
235.3	73.04
235.518	89.43
235.735	105.81
235.953	71
236.17	23.89
236.388	58.71
236.605	120.15
236.822	89.43
237.04	91.48
237.257	126.29
237.475	3.41
237.692	-4.78
237.909	181.59
238.127	-39.59
238.344	46.42
238.562	34.13
238.779	-96.94
238.996	42.32
239.214	42.32
239.431	109.91
239.648	5.46
239.865	-2.73
240.083	58.71
240.3	9.56
240.517	58.71
240.735	87.38
240.952	36.18
241.169	126.29
241.386	95.57
241.603	46.42
241.821	44.37
242.038	120.15
242.255	148.82
242.472	-2.73
242.689	111.96
242.907	99.67
243.124	-15.02
243.341	23.89
243.558	52.56
243.775	30.04
243.992	-70.31
244.209	68.95
244.426	148.82
244.643	27.99
244.86	19.8
245.078	136.53
245.295	79.19
245.512	91.48
245.729	36.18
245.946	-4.78
246.163	1.37
246.38	-58.03
246.597	44.37
246.814	34.13
247.031	46.42
247.248	50.52
247.464	13.65
247.681	89.43
247.898	-47.79
248.115	5.46
248.332	19.8
248.549	105.81
248.766	177.49
248.983	50.52
249.2	93.52
249.417	114
249.633	11.61
249.85	46.42
250.067	17.75
250.284	-47.79
250.501	64.85
250.717	62.8
250.934	36.18
251.151	23.89
251.368	5.46
251.585	73.04
251.801	-10.92
252.018	19.8
252.235	50.52
252.451	42.32
252.668	52.56
252.885	79.19
253.102	-4.78
253.318	73.04
253.535	56.66
253.752	19.8
253.968	-29.35
254.185	-53.93
254.401	58.71
254.618	30.04
254.835	1.37
255.051	138.58
255.268	103.76
255.484	54.61
255.701	64.85
255.917	138.58
256.134	5.46
256.351	15.7
256.567	27.99
256.784	23.89
257	30.04
257.217	83.28
257.433	38.23
257.65	42.32
257.866	118.1
258.082	-62.12
258.299	-10.92
258.515	48.47
258.732	-8.87
258.948	-12.97
259.165	34.13
259.381	68.95
259.597	9.56
259.814	1.37
260.03	-45.74
260.246	87.38
260.463	73.04
260.679	81.24
260.895	68.95
261.112	101.72
261.328	75.09
261.544	79.19
261.761	91.48
261.977	71
262.193	-15.02
262.409	81.24
262.626	64.85
262.842	148.82
263.058	-8.87
263.274	40.28
263.49	128.34
263.707	62.8
263.923	58.71
264.139	38.23
264.355	73.04
264.571	214.35
264.787	66.9
265.004	173.39
265.22	75.09
265.436	32.08
265.652	21.84
265.868	109.91
266.084	-39.59
266.3	30.04
266.516	71
266.732	77.14
266.948	68.95
267.164	-4.78
267.38	56.66
267.596	17.75
267.812	152.91
268.028	101.72
268.244	32.08
268.46	114
268.676	9.56
268.892	50.52
269.108	32.08
269.324	38.23
269.54	-15.02
269.756	83.28
269.972	-21.16
270.188	60.76
270.403	-78.51
270.619	21.84
270.835	23.89
271.051	-25.26
271.267	107.86
271.483	32.08
271.698	91.48
271.914	66.9
272.13	5.46
272.346	-4.78
272.562	-4.78
272.777	101.72
272.993	56.66
273.209	-17.07
273.425	71
273.64	46.42
273.856	81.24
274.072	21.84
274.287	-4.78
274.503	132.44
274.719	50.52
274.934	3.41
275.15	46.42
275.366	40.28
275.581	30.04
275.797	87.38
276.012	32.08
276.228	44.37
276.444	83.28
276.659	150.87
276.875	3.41
277.09	48.47
277.306	81.24
277.521	77.14
277.737	21.84
277.952	167.25
278.168	-47.79
278.383	83.28
278.599	40.28
278.814	58.71
279.03	140.63
279.245	132.44
279.461	107.86
279.676	93.52
279.892	-41.64
280.107	-15.02
280.322	83.28
280.538	89.43
280.753	66.9
280.969	73.04
281.184	-6.83
281.399	30.04
281.615	11.61
281.83	85.33
282.045	-4.78
282.26	64.85
282.476	42.32
282.691	36.18
282.906	87.38
283.122	71
283.337	5.46
283.552	103.76
283.767	-8.87
283.983	161.11
284.198	-23.21
284.413	136.53
284.628	-60.07
284.843	75.09
285.058	101.72
285.274	34.13
285.489	81.24
285.704	62.8
285.919	32.08
286.134	105.81
286.349	-37.55
286.564	-0.68
286.779	48.47
286.995	13.65
287.21	1.37
287.425	83.28
287.64	58.71
287.855	34.13
288.07	-78.51
288.285	126.29
288.5	48.47
288.715	79.19
288.93	21.84
289.145	-2.73
289.36	161.11
289.575	75.09
289.79	36.18
290.004	34.13
290.219	97.62
290.434	11.61
290.649	-0.68
290.864	3.41
291.079	7.51
291.294	46.42
291.509	32.08
291.724	40.28
291.938	-45.74
292.153	101.72
292.368	44.37
292.583	183.63
292.798	103.76
293.012	89.43
293.227	42.32
293.442	32.08
293.657	85.33
293.871	165.2
294.086	44.37
294.301	150.87
294.516	103.76
294.73	75.09
294.945	52.56
295.16	68.95
295.374	75.09
295.589	130.39
295.804	7.51
296.018	83.28
296.233	79.19
296.447	134.48
296.662	-25.26
296.877	157.01
297.091	118.1
297.306	48.47
297.52	64.85
297.735	60.76
297.949	54.61
298.164	93.52
298.378	-41.64
298.593	38.23
298.807	-15.02
299.022	48.47
299.236	87.38
299.451	130.39
299.665	56.66
299.88	114
300.094	79.19
300.309	62.8
300.523	52.56
300.737	-72.36
300.952	52.56
301.166	81.24
301.381	50.52
301.595	40.28
301.809	116.05
302.024	17.75
302.238	3.41
302.452	118.1
302.667	-45.74
302.881	66.9
303.095	56.66
303.309	48.47
303.524	7.51
303.738	114
303.952	9.56
304.166	109.91
304.381	-68.27
304.595	183.63
304.809	-19.11
305.023	-0.68
305.237	77.14
305.452	50.52
305.666	111.96
305.88	132.44
306.094	122.2
306.308	60.76
306.522	111.96
306.736	50.52
306.95	52.56
307.164	15.7
307.379	3.41
307.593	150.87
307.807	71
308.021	42.32
308.235	114
308.449	17.75
308.663	66.9
308.877	154.96
309.091	83.28
309.305	146.77
309.519	-35.5
309.733	132.44
309.947	-53.93
310.161	91.48
310.374	83.28
310.588	109.91
310.802	-15.02
311.016	1.37
311.23	36.18
311.444	42.32
311.658	85.33
311.872	85.33
312.085	17.75
312.299	114
312.513	120.15
312.727	40.28
312.941	21.84
313.154	54.61
313.368	46.42
313.582	89.43
313.796	73.04
314.009	27.99
314.223	109.91
314.437	87.38
314.651	107.86
314.864	85.33
315.078	1.37
315.292	30.04
315.505	-25.26
315.719	75.09
315.933	136.53
316.146	13.65
316.36	9.56
316.573	114
316.787	124.24
317.001	64.85
317.214	-23.21
317.428	68.95
317.641	56.66
317.855	60.76
318.068	44.37
318.282	99.67
318.495	167.25
318.709	54.61
318.922	148.82
319.136	50.52
319.349	130.39
319.563	-2.73
319.776	118.1
319.99	64.85
320.203	128.34
320.417	38.23
320.63	75.09
320.843	81.24
321.057	109.91
321.27	87.38
321.483	50.52
321.697	157.01
321.91	62.8
322.124	42.32
322.337	87.38
322.55	15.7
322.763	38.23
322.977	81.24
323.19	11.61
323.403	77.14
323.617	103.76
323.83	120.15
324.043	19.8
324.256	25.94
324.469	-17.07
324.683	179.54
324.896	-8.87
325.109	75.09
325.322	48.47
325.535	93.52
325.748	71
325.962	-12.97
326.175	52.56
326.388	105.81
326.601	114
326.814	62.8
327.027	13.65
327.24	101.72
327.453	3.41
327.666	77.14
327.879	23.89
328.092	107.86
328.305	99.67
328.518	34.13
328.731	19.8
328.944	-0.68
329.157	19.8
329.37	68.95
329.583	154.96
329.796	210.26
330.009	-2.73
330.222	95.57
330.435	87.38
330.648	27.99
330.861	44.37
331.073	105.81
331.286	140.63
331.499	111.96
331.712	-49.83
331.925	11.61
332.138	-29.35
332.35	177.49
332.563	5.46
332.776	130.39
332.989	56.66
333.202	77.14
333.414	103.76
333.627	34.13
333.84	-58.03
334.053	25.94
334.265	75.09
334.478	50.52
334.691	97.62
334.903	58.71
335.116	48.47
335.329	34.13
335.541	42.32
335.754	89.43
335.966	34.13
336.179	36.18
336.392	27.99
336.604	48.47
336.817	91.48
337.029	73.04
337.242	52.56
337.454	138.58
337.667	73.04
337.88	111.96
338.092	105.81
338.305	44.37
338.517	1.37
338.729	46.42
338.942	154.96
339.154	30.04
339.367	5.46
339.579	134.48
339.792	40.28
340.004	71
340.217	56.66
340.429	25.94
340.641	-17.07
340.854	13.65
341.066	15.7
341.278	124.24
341.491	140.63
341.703	79.19
341.915	15.7
342.128	44.37
342.34	23.89
342.552	15.7
342.764	40.28
342.977	52.56
343.189	85.33
343.401	46.42
343.613	77.14
343.826	-27.31
344.038	66.9
344.25	68.95
344.462	52.56
344.674	19.8
344.886	81.24
345.099	58.71
345.311	122.2
345.523	73.04
345.735	9.56
345.947	52.56
346.159	132.44
346.371	81.24
346.583	-10.92
346.795	118.1
347.007	44.37
347.219	83.28
347.431	25.94
347.643	30.04
347.855	54.61
348.067	109.91
348.279	-78.51
348.491	-12.97
348.703	64.85
348.915	105.81
349.127	19.8
349.339	111.96
349.551	46.42
349.763	60.76
349.975	79.19
350.187	87.38
350.399	107.86
350.61	91.48
350.822	40.28
351.034	64.85
351.246	46.42
351.458	32.08
351.669	109.91
351.881	130.39
352.093	52.56
352.305	75.09
352.517	38.23
352.728	97.62
352.94	44.37
353.152	48.47
353.363	54.61
353.575	140.63
353.787	167.25
353.999	42.32
354.21	87.38
354.422	85.33
354.633	46.42
354.845	75.09
355.057	50.52
355.268	97.62
355.48	140.63
355.692	77.14
355.903	58.71
356.115	-31.4
356.326	23.89
356.538	157.01
356.749	48.47
356.961	138.58
357.172	81.24
357.384	13.65
357.595	114
357.807	9.56
358.018	-6.83
358.23	81.24
358.441	130.39
358.653	134.48
358.864	-0.68
359.075	46.42
359.287	44.37
359.498	71
359.709	48.47
359.921	105.81
360.132	56.66
360.344	75.09
360.555	25.94
360.766	128.34
360.977	46.42
361.189	85.33
361.4	25.94
361.611	103.76
361.823	66.9
362.034	105.81
362.245	42.32
362.456	19.8
362.667	120.15
362.879	71
363.09	50.52
363.301	101.72
363.512	91.48
363.723	120.15
363.935	32.08
364.146	111.96
364.357	97.62
364.568	116.05
364.779	66.9
364.99	103.76
365.201	44.37
365.412	140.63
365.623	19.8
365.834	128.34
366.045	132.44
366.256	-45.74
366.467	73.04
366.678	91.48
366.889	120.15
367.1	99.67
367.311	103.76
367.522	103.76
367.733	17.75
367.944	154.96
368.155	79.19
368.366	19.8
368.577	163.15
368.788	163.15
368.999	71
369.209	71
369.42	200.02
369.631	171.35
369.842	107.86
370.053	81.24
370.264	107.86
370.474	83.28
370.685	58.71
370.896	30.04
371.107	48.47
371.317	120.15
371.528	-23.21
371.739	138.58
371.95	120.15
372.16	89.43
372.371	107.86
372.582	-23.21
372.792	66.9
373.003	109.91
373.214	27.99
373.424	93.52
373.635	71
373.846	89.43
374.056	40.28
374.267	48.47
374.477	120.15
374.688	5.46
374.898	118.1
375.109	13.65
375.319	73.04
375.53	132.44
375.74	103.76
375.951	3.41
376.161	44.37
376.372	136.53
376.582	38.23
376.793	97.62
377.003	60.76
377.214	52.56
377.424	46.42
377.635	64.85
377.845	5.46
378.055	116.05
378.266	40.28
378.476	46.42
378.686	25.94
378.897	79.19
379.107	124.24
379.317	116.05
379.528	32.08
379.738	42.32
379.948	13.65
380.158	83.28
380.369	124.24
380.579	124.24
380.789	36.18
380.999	52.56
381.21	181.59
381.42	136.53
381.63	71
381.84	89.43
382.05	58.71
382.261	165.2
382.471	152.91
382.681	79.19
382.891	120.15
383.101	32.08
383.311	11.61
383.521	34.13
383.731	157.01
383.941	71
384.151	89.43
384.361	56.66
384.571	58.71
384.781	109.91
384.991	157.01
385.201	171.35
385.411	114
385.621	-2.73
385.831	13.65
386.041	91.48
386.251	87.38
386.461	97.62
386.671	87.38
386.881	128.34
387.091	66.9
387.301	85.33
387.511	23.89
387.72	97.62
387.93	56.66
388.14	-25.26
388.35	97.62
388.56	116.05
388.769	152.91
388.979	128.34
389.189	146.77
389.399	3.41
389.609	118.1
389.818	138.58
390.028	38.23
390.238	46.42
390.447	122.2
390.657	103.76
390.867	97.62
391.076	32.08
391.286	107.86
391.496	64.85
391.705	58.71
391.915	171.35
392.125	134.48
392.334	79.19
392.544	171.35
392.753	32.08
392.963	107.86
393.172	87.38
393.382	25.94
393.591	226.64
393.801	99.67
394.01	234.83
394.22	23.89
394.429	64.85
394.639	97.62
394.848	144.72
395.058	116.05
395.267	91.48
395.477	144.72
395.686	58.71
395.895	181.59
396.105	204.11
396.314	97.62
396.524	140.63
396.733	64.85
396.942	107.86
397.152	93.52
397.361	97.62
397.57	126.29
397.78	134.48
397.989	163.15
398.198	132.44
398.407	107.86
398.617	152.91
398.826	71
399.035	128.34
399.244	193.87
399.453	109.91
399.663	122.2
399.872	71
400.081	122.2
400.29	185.68
400.499	83.28
400.708	93.52
400.917	107.86
401.127	157.01
401.336	75.09
401.545	183.63
401.754	111.96
401.963	130.39
402.172	169.3
402.381	107.86
402.59	105.81
402.799	64.85
403.008	183.63
403.217	161.11
403.426	189.78
403.635	73.04
403.844	232.79
404.053	77.14
404.262	181.59
404.471	236.88
404.68	85.33
404.888	71
405.097	132.44
405.306	185.68
405.515	193.87
405.724	142.68
405.933	195.92
406.142	191.83
406.35	245.07
406.559	238.93
406.768	107.86
406.977	286.03
407.185	169.3
407.394	279.89
407.603	218.45
407.812	247.12
408.02	275.79
408.229	189.78
408.438	298.32
408.646	173.39
408.855	189.78
409.064	232.79
409.272	210.26
409.481	380.24
409.69	314.7
409.898	247.12
410.107	365.9
410.315	240.98
410.524	290.13
410.733	298.32
410.941	410.96
411.15	367.95
411.358	347.47
411.567	367.95
411.775	396.62
411.984	386.38
412.192	484.69
412.401	388.43
412.609	509.26
412.818	443.73
413.026	490.83
413.234	486.73
413.443	578.89
413.651	533.84
413.86	560.46
414.068	689.48
414.276	658.76
414.485	605.52
414.693	576.84
414.901	703.82
415.11	646.48
415.318	595.28
415.526	652.62
415.734	623.95
415.943	757.07
416.151	877.9
416.359	818.5
416.567	806.22
416.776	838.98
416.984	871.75
417.192	1058.12
417.4	970.05
417.608	959.81
417.817	1107.27
418.025	1076.55
418.233	1135.94
418.441	1054.02
418.649	1090.88
418.857	1250.63
419.065	1279.3
419.273	1129.8
419.481	1277.25
419.689	1242.43
419.897	1424.7
420.105	1398.08
420.313	1506.62
420.521	1494.33
420.729	1641.79
420.937	1652.03
421.145	1619.26
421.353	1813.82
421.561	1795.39
421.769	1873.21
421.977	1918.26
422.185	2008.37
422.393	2047.29
422.601	2137.4
422.809	2164.02
423.017	2090.29
423.224	2278.71
423.432	2360.63
423.64	2358.58
423.848	2575.66
424.056	2401.58
424.263	2585.9
424.471	2614.57
424.679	2745.64
424.887	2841.9
425.094	3142.95
425.302	3061.03
425.51	3140.9
425.718	3208.48
425.925	3249.44
426.133	3456.29
426.341	3532.06
426.548	3722.52
426.756	3712.28
426.964	3812.64
427.171	3929.37
427.379	4158.74
427.586	4013.34
427.794	4199.7
428.001	4461.84
428.209	4676.88
428.417	4674.83
428.624	4848.91
428.832	4900.11
429.039	4885.77
429.247	4855.05
429.454	5340.42
429.662	5557.5
429.869	5266.69
430.076	5678.33
430.284	5590.27
430.491	5731.58
430.699	5946.62
430.906	5987.58
431.114	6065.4
431.321	6337.78
431.528	6442.23
431.736	6941.93
431.943	7255.27
432.15	6958.32
432.358	7169.26
432.565	7474.4
432.772	7347.43
432.979	7955.68
433.187	7912.67
433.394	7898.33
433.601	8414.42
433.808	8590.55
434.016	8383.7
434.223	8817.87
434.43	9430.21
434.637	9342.15
434.844	9741.5
435.052	10003.64
435.259	9774.27
435.466	10075.32
435.673	9792.7
435.88	10544.31
436.087	11216.04
436.294	11095.21
436.501	10933.42
436.708	11261.1
436.915	11496.61
437.122	11957.41
437.329	11981.98
437.537	12272.79
437.743	12483.73
437.95	12432.54
438.157	13091.98
438.364	13556.87
438.571	13577.35
438.778	13493.38
438.985	14777.46
439.192	14072.96
439.399	14644.34
439.606	14136.45
439.813	15174.77
440.02	15836.26
440.227	15823.97
440.433	15522.92
440.64	16047.2
440.847	16100.45
441.054	16473.18
441.261	17675.34
441.467	17521.74
441.674	17742.92
441.881	18312.25
442.088	18172.99
442.294	18064.45
442.501	18623.55
442.708	18922.55
442.914	19620.91
443.121	20282.4
443.328	20071.46
443.534	21312.53
443.741	20554.78
443.948	20452.38
444.154	21885.96
444.361	21969.93
444.568	21910.53
444.774	22070.28
444.981	22434.81
445.187	22612.99
445.394	23772.14
445.6	23538.67
445.807	25519.06
446.013	24339.43
446.22	25033.69
446.426	25940.94
446.633	26082.25
446.839	26993.59
447.046	25916.36
447.252	27358.13
447.459	27638.7
447.665	27495.35
447.871	28713.89
448.078	30036.88
448.284	28412.84
448.491	29092.76
448.697	30176.14
448.903	31226.74
449.11	30851.97
449.316	30450.56
449.522	31150.97
449.728	31916.91
449.935	32166.76
450.141	31857.52
450.347	32940.89
450.553	31791.98
450.76	31929.2
450.966	33293.15
451.172	32885.6
451.378	33559.38
451.584	32824.16
451.791	33598.29
451.997	33698.64
452.203	34212.68
452.409	33975.12
452.615	33979.21
452.821	32342.89
453.027	32377.7
453.233	33962.83
453.44	32349.03
453.646	32906.08
453.852	32934.75
454.058	33739.6
454.264	32648.04
454.47	33178.46
454.676	32488.29
454.882	33440.6
455.088	30790.53
455.294	31191.93
455.5	31294.33
455.705	31564.66
455.911	30598.02
456.117	30045.07
456.323	29733.78
456.529	28013.48
456.735	29217.69
456.941	28566.43
457.147	27931.56
457.352	27182.01
457.558	26876.86
457.764	26878.91
457.97	26358.72
458.176	25684.94
458.381	25562.06
458.587	24548.32
458.793	24755.16
458.999	22881.27
459.204	24622.05
459.41	23966.7
459.616	22789.11
459.821	22524.93
460.027	22520.83
460.233	22021.13
460.438	21283.86
460.644	20947.99
460.85	20145.19
461.055	19743.78
461.261	19809.32
461.466	18246.72
461.672	17701.96
461.878	18805.81
462.083	17835.08
462.289	17226.83
462.494	17239.12
462.7	16614.49
462.905	16032.86
463.111	16643.16
463.316	16628.82
463.522	16299.1
463.727	16460.89
463.932	16315.48
464.138	16065.63
464.343	16159.84
464.549	15481.96
464.754	16039.01
464.959	15881.31
465.165	15830.12
465.37	15209.58
465.575	14773.36
465.781	15404.14
465.986	15385.71
466.191	14914.67
466.397	14773.36
466.602	13784.19
466.807	14374.01
467.012	14324.86
467.218	14269.56
467.423	14079.1
467.628	14476.41
467.833	14765.17
468.038	14384.25
468.244	13784.19
468.449	14316.67
468.654	13976.7
468.859	13669.51
469.064	13763.72
469.269	13180.04
469.474	13393.03
469.679	13386.89
469.885	13094.03
470.09	13180.04
470.295	13157.52
470.5	12874.9
470.705	12864.66
470.91	12754.07
471.115	12426.39
471.32	12788.88
471.525	12625.04
471.73	12504.21
471.935	12190.88
472.139	11539.62
472.344	12098.72
472.549	11818.15
472.754	11693.22
472.959	11416.74
473.164	11334.82
473.369	11318.44
473.574	11590.82
473.778	11304.1
473.983	11455.65
474.188	11369.64
474.393	10816.69
474.598	10871.98
474.802	10652.85
475.007	10714.29
475.212	10761.39
475.417	10286.26
475.621	10265.78
475.826	10153.15
476.031	10048.7
476.235	9845.95
476.44	10024.12
476.645	9766.08
476.849	9837.76
477.054	9520.32
477.259	9592
477.463	9444.55
477.668	9395.4
477.872	9446.6
478.077	9315.53
478.282	9000.14
478.486	8926.41
478.691	8940.75
478.895	8836.3
479.1	8830.16
479.304	8905.93
479.509	8600.79
479.713	8639.7
479.918	8572.11
480.122	8574.16
480.326	8602.83
480.531	8578.26
480.735	8436.95
480.94	8340.69
481.144	8617.17
481.348	8131.8
481.553	8357.08
481.757	7984.35
481.961	8361.17
482.166	8439
482.37	8332.5
482.574	8084.7
482.778	8074.46
482.983	8201.43
483.187	8131.8
483.391	8226.01
483.595	8166.62
483.8	8178.9
484.004	8238.3
484.208	8211.67
484.412	8121.56
484.616	8316.12
484.821	8088.79
485.025	7953.63
485.229	8129.75
485.433	8031.45
485.637	8068.31
485.841	8058.07
486.045	8195.29
486.249	7978.2
486.453	8008.92
486.657	7984.35
486.861	8072.41
487.065	7933.15
487.269	8158.42
487.473	7830.75
487.677	8017.11
487.881	8301.78
488.085	8131.8
488.289	8037.59
488.493	8068.31
488.697	8033.5
488.901	8152.28
489.105	8000.73
489.309	8219.86
489.512	8211.67
489.716	8080.6
489.92	8133.85
490.124	8133.85
490.328	8379.61
490.531	8271.06
490.735	8305.88
490.939	8170.71
491.143	8283.35
491.346	8191.19
491.55	8291.54
491.754	8248.54
491.958	8398.04
492.161	8490.2
492.365	8506.58
492.569	8574.16
492.772	8443.09
492.976	8545.49
493.18	8651.99
493.383	8635.6
493.587	8725.71
493.79	8862.93
493.994	8797.39
494.197	8778.96
494.401	8705.23
494.605	9028.81
494.808	9088.2
495.012	8887.5
495.215	9129.16
495.419	8975.56
495.622	9176.27
495.825	9460.93
496.029	9100.49
496.232	9362.63
496.436	9557.19
496.639	9614.53
496.843	9571.52
497.046	9708.74
497.249	9764.03
497.453	9909.44
497.656	9987.26
497.859	10083.52
498.063	10214.59
498.266	10425.53
498.469	10446.01
498.673	10392.76
498.876	10525.88
499.079	10718.39
499.282	10689.71
499.485	10929.33
499.689	11003.05
499.892	11132.08
500.095	11185.32
500.298	11488.42
500.501	11199.66
500.705	11736.23
500.908	11691.17
501.111	11758.75
501.314	11900.06
501.517	12186.78
501.72	12176.54
501.923	12051.61
502.126	12508.31
502.329	12446.87
502.532	12704.92
502.735	12649.62
502.938	13042.83
503.141	13253.77
503.344	13034.64
503.547	13051.02
503.75	13685.89
503.953	13730.95
504.156	13757.57
504.359	13847.68
504.562	13958.27
504.765	14177.41
504.968	14255.23
505.17	14890.1
505.373	14611.57
505.576	14716.02
505.779	14818.42
505.982	14664.82
506.185	15334.51
506.387	15344.75
506.59	15653.99
506.793	15774.82
506.996	15735.91
507.198	16254.05
507.401	16063.58
507.604	16057.44
507.807	16333.92
508.009	16534.62
508.212	16825.43
508.415	17181.78
508.617	17144.91
508.82	17378.38
509.022	17126.48
509.225	17699.91
509.428	17411.15
509.63	17620.04
509.833	17640.52
510.035	18484.28
510.238	18269.25
510.44	18558.01
510.643	18867.25
510.845	18820.15
511.048	18893.88
511.25	19012.66
511.453	19121.2
511.655	19680.3
511.858	19590.19
512.06	19760.17
512.262	19817.51
512.465	19817.51
512.667	20239.39
512.87	20198.43
513.072	20364.32
513.274	20861.97
513.477	20646.94
513.679	21146.64
513.881	21423.12
514.084	21429.26
514.286	21537.8
514.488	21650.44
514.69	22150.15
514.893	22150.15
515.095	22338.56
515.297	22313.98
515.499	22242.31
515.701	22842.36
515.904	22844.41
516.106	23297.01
516.308	23305.2
516.51	23589.87
516.712	23577.58
516.914	23618.54
517.116	24009.7
517.318	24026.09
517.52	24069.09
517.722	24095.72
517.925	24329.19
518.127	24941.53
518.329	25072.6
518.531	24726.49
518.733	25230.29
518.935	25310.16
519.136	25306.07
519.338	25924.55
519.54	25746.38
519.742	25846.73
519.944	25828.3
520.146	26610.62
520.348	26620.86
520.55	26899.39
520.752	26565.57
520.954	27007.93
521.155	26977.21
521.357	27163.57
521.559	27356.08
521.761	27767.73
521.963	27712.43
522.164	27823.02
522.366	27857.84
522.568	28033.96
522.77	28253.09
522.971	28617.63
523.173	27841.45
523.375	28646.3
523.576	28591.01
523.778	28582.82
523.98	29189.02
524.181	29070.23
524.383	29367.19
524.584	29344.66
524.786	29096.86
524.988	28988.31
525.189	29461.4
525.391	29711.25
525.592	29907.85
525.794	29713.3
525.995	29670.29
526.197	29883.28
526.398	29899.66
526.6	30137.23
526.801	30153.61
527.003	30581.63
527.204	30208.9
527.406	30626.69
527.607	30264.2
527.808	30628.74
528.01	30245.77
528.211	30548.87
528.412	30878.59
528.614	30581.63
528.815	30503.81
529.016	31056.76
529.218	30735.23
529.419	30851.97
529.62	30987.13
529.822	30765.95
530.023	30933.89
530.224	30866.3
530.425	30956.41
530.626	30509.96
530.828	30368.65
531.029	31169.4
531.23	31140.73
531.431	30800.77
531.632	31017.85
531.833	31128.44
532.035	30862.21
532.236	30733.18
532.437	31433.59
532.638	30798.72
532.839	30980.99
533.04	31255.42
533.241	31013.76
533.442	31503.22
533.643	30968.7
533.844	31044.48
534.045	30688.13
534.246	30843.77
534.447	30839.68
534.648	30925.69
534.849	30997.37
535.05	30606.21
535.251	31126.39
535.451	30817.15
535.652	30829.44
535.853	30854.01
536.054	31279.99
536.255	30788.48
536.456	30473.09
536.657	30909.31
536.857	30790.53
537.058	30561.15
537.259	30589.83
537.46	30878.59
537.66	30546.82
537.861	30845.82
538.062	30581.63
538.263	30342.02
538.463	30290.82
538.664	30571.39
538.865	30653.31
539.065	30894.97
539.266	30364.55
539.466	30823.29
539.667	30673.79
539.868	30866.3
540.068	30577.54
540.269	30579.59
540.469	30569.35
540.67	30591.87
540.87	30548.87
541.071	30296.97
541.271	30739.33
541.472	30364.55
541.672	30264.2
541.873	29969.29
542.073	30065.55
542.274	30509.96
542.474	30593.92
542.675	30122.89
542.875	30505.86
543.075	30348.17
543.276	29967.24
543.476	30598.02
543.676	30243.72
543.877	30329.73
544.077	30260.1
544.277	30118.79
544.478	30479.24
544.678	30331.78
544.878	29885.33
545.078	30153.61
545.279	30200.71
545.479	29840.27
545.679	30407.56
545.879	30243.72
546.079	30010.25
546.28	29862.8
546.48	29875.09
546.68	30030.73
546.88	30010.25
547.08	29942.67
547.28	30213
547.48	29494.16
547.68	30266.25
547.88	29696.91
548.081	30262.15
548.281	29815.69
548.481	29565.84
548.681	29957
548.881	29647.76
549.081	29844.37
549.28	29911.95
549.48	29987.72
549.68	29547.41
549.88	29850.51
550.08	29565.84
550.28	29760.4
550.48	29901.71
550.68	29651.86
550.88	29574.03
551.08	29547.41
551.279	29746.06
551.479	29395.86
551.679	29731.73
551.879	29428.63
552.079	29731.73
552.278	29225.88
552.478	29326.23
552.678	29420.44
552.878	29723.54
553.077	29461.4
553.277	29199.26
553.477	29588.37
553.676	29451.16
553.876	29252.5
554.076	29342.61
554.275	29313.94
554.475	29209.5
554.674	29488.02
554.874	29250.45
555.074	29006.75
555.273	29367.19
555.473	29350.81
555.672	29105.05
555.872	28933.02
556.071	29385.62
556.271	29408.15
556.47	29176.73
556.67	28994.46
556.869	28928.92
557.068	29160.34
557.268	28924.83
557.467	29037.47
557.667	29039.51
557.866	29084.57
558.065	28783.52
558.265	28785.57
558.464	28863.39
558.663	29299.61
558.863	28828.57
559.062	29141.91
559.261	28734.37
559.461	29037.47
559.66	28650.4
559.859	28771.23
560.058	28494.75
560.258	28691.36
560.457	28478.37
560.656	28687.26
560.855	28631.97
561.054	28605.34
561.253	28636.06
561.453	28652.45
561.652	28556.19
561.851	28818.33
562.05	28554.15
562.249	28568.48
562.448	28752.8
562.647	28640.16
562.846	28613.54
563.045	28672.93
563.244	28318.63
563.443	29100.95
563.642	28222.37
563.841	28439.46
564.04	27986.86
564.239	28732.32
564.438	28443.56
564.637	28636.06
564.836	28222.37
565.035	28122.02
565.234	28222.37
565.432	28015.53
565.631	28253.09
565.83	28369.83
566.029	27794.35
566.228	28081.06
566.427	28365.73
566.625	27939.75
566.824	27700.14
567.023	28511.14
567.222	27956.14
567.42	28089.26
567.619	28191.66
567.818	27837.36
568.016	27941.8
568.215	28038.06
568.414	27941.8
568.612	27868.08
568.811	27859.88
569.01	28019.63
569.208	27360.18
569.407	27931.56
569.605	27444.15
569.804	27509.68
570.002	27448.24
570.201	27691.95
570.4	27548.59
570.598	27763.63
570.797	27132.86
570.995	27503.54
571.193	27065.27
571.392	27222.97
571.59	27200.44
571.789	27249.59
571.987	27323.32
572.186	27556.78
572.384	27265.97
572.582	27315.12
572.781	27272.12
572.979	26915.77
573.177	27167.67
573.376	27132.86
573.574	26979.26
573.772	27120.57
573.971	26975.16
574.169	27108.28
574.367	26897.34
574.565	26973.11
574.763	26606.53
574.962	27046.84
575.16	26618.82
575.358	26690.49
575.556	26444.74
575.754	26897.34
575.952	26600.38
576.151	26473.41
576.349	26213.32
576.547	26356.68
576.745	26794.94
576.943	26598.34
577.141	26301.38
577.339	26592.19
577.537	26377.15
577.735	26438.59
577.933	26196.93
578.131	26342.34
578.329	25938.89
578.527	26045.38
578.725	26162.12
578.923	25779.15
579.121	25748.43
579.319	25893.83
579.516	26067.91
579.714	26115.01
579.912	26059.72
580.11	25959.37
580.308	25828.3
580.506	25691.09
580.704	25211.86
580.901	25904.07
581.099	25717.71
581.297	25961.42
581.495	25478.1
581.692	25680.85
581.89	25400.27
582.088	25246.68
582.285	25474
582.483	25197.52
582.681	25193.43
582.878	25482.19
583.076	25115.61
583.274	25261.01
583.471	24921.05
583.669	25078.74
583.866	24673.24
584.064	25043.93
584.262	24794.08
584.459	25189.33
584.657	24845.27
584.854	25019.35
585.052	24454.11
585.249	24714.2
585.447	25113.56
585.644	24411.1
585.841	24792.03
586.039	24927.19
586.236	24497.12
586.434	24431.58
586.631	24099.81
586.828	24529.89
587.026	24519.65
587.223	24099.81
587.42	24312.8
587.618	24282.08
587.815	24435.68
588.012	23780.33
588.21	24062.95
588.407	24394.72
588.604	23743.47
588.801	23997.42
588.999	23911.4
589.196	24003.56
589.393	24013.8
589.59	23925.74
589.787	23548.91
589.984	23823.34
590.182	23317.49
590.379	23645.16
590.576	23460.85
590.773	23583.73
590.97	23297.01
591.167	23649.26
591.364	23321.59
591.561	23548.91
591.758	23395.31
591.955	23231.47
592.152	23542.77
592.349	23227.38
592.546	23094.26
592.743	23344.11
592.94	22750.2
593.137	22828.02
593.334	23286.77
593.531	22850.55
593.727	23241.71
593.924	22834.17
594.121	22973.43
594.318	22893.56
594.515	22569.98
594.712	22537.21
594.908	22662.14
595.105	22735.87
595.302	22715.39
595.499	22823.93
595.696	22805.5
595.892	22307.84
596.089	22371.33
596.286	22553.6
596.482	22363.14
596.679	22408.19
596.876	22184.96
597.072	22318.08
597.269	22397.95
597.466	22240.26
597.662	22230.02
597.859	22101
598.055	22256.64
598.252	21967.88
598.448	22062.08
598.645	21869.58
598.841	21957.64
599.038	21838.86
599.234	21699.59
599.431	21881.86
599.627	21812.23
599.824	21705.74
600.02	21658.63
600.217	21537.8
600.413	21890.06
600.609	21713.93
600.806	21808.14
601.002	21683.21
601.198	21361.68
601.395	21523.47
601.591	21507.09
601.787	21339.15
601.984	21177.36
602.18	21353.49
602.376	20927.51
602.572	21337.1
602.769	21105.68
602.965	21107.73
603.161	21048.34
603.357	21175.31
603.553	21054.48
603.75	21179.41
603.946	20888.6
604.142	21220.37
604.338	20864.02
604.534	20931.61
604.73	20745.24
604.926	20431.9
605.122	20878.36
605.318	20653.08
605.514	20587.55
605.71	20722.71
605.906	20583.45
606.102	20491.29
606.298	20773.91
606.494	20407.33
606.69	20694.04
606.886	20487.2
607.082	20354.08
607.278	20610.07
607.474	20177.95
607.67	20765.72
607.866	20257.82
608.062	20565.02
608.257	20286.5
608.453	20341.79
608.649	20263.97
608.845	20075.56
609.041	20098.08
609.236	20253.73
609.432	20139.04
609.628	20405.28
609.824	20159.52
610.019	19967.01
610.215	19848.23
610.411	20372.51
610.606	20003.88
610.802	20046.88
610.998	19881
611.193	20067.36
611.389	19704.87
611.584	19815.46
611.78	19788.84
611.976	20026.4
612.171	19909.67
612.367	19899.43
612.562	19690.54
612.758	19465.26
612.953	19530.8
613.149	19952.68
613.344	19461.16
613.539	19637.29
613.735	19704.87
613.93	19686.44
614.126	19612.71
614.321	19749.93
614.517	19733.54
614.712	19414.06
614.907	19493.93
615.103	19768.36
615.298	19489.84
615.493	19846.18
615.688	18996.28
615.884	19674.15
616.079	19029.04
616.274	19268.66
616.47	19110.96
616.665	19313.71
616.86	19166.26
617.055	19252.27
617.25	19070
617.445	19289.13
617.641	18818.1
617.836	19041.33
618.031	18920.5
618.226	19104.82
618.421	18902.07
618.616	19063.86
618.811	18678.84
619.006	19045.43
619.201	18275.39
619.396	18615.35
619.591	18320.45
619.786	18398.27
619.981	18408.51
620.176	18596.92
620.371	18056.26
620.566	18207.81
620.761	18297.92
620.956	17917
621.151	17828.93
621.346	17792.07
621.541	17583.18
621.735	17898.56
621.93	17554.51
622.125	17439.82
622.32	17362
622.515	17251.41
622.709	17456.2
622.904	17349.71
623.099	17200.21
623.294	17312.85
623.488	16993.36
623.683	17040.47
623.878	16770.13
624.072	16884.82
624.267	16733.27
624.462	16858.2
624.656	16256.09
624.851	16561.24
625.046	16190.56
625.24	16448.6
625.435	16206.94
625.629	16045.15
625.824	16204.89
626.018	15952.99
626.213	15783.01
626.407	16016.48
626.602	15635.56
626.796	16102.5
626.991	15971.43
627.185	15389.8
627.38	15350.89
627.574	15361.13
627.768	15236.2
627.963	15211.63
628.157	15279.21
628.352	15103.09
628.546	14890.1
628.74	15084.66
628.935	14806.13
629.129	14947.44
629.323	14464.12
629.517	14683.25
629.712	14558.33
629.906	14224.51
630.1	14298.24
630.294	14376.06
630.489	14238.84
630.683	14163.07
630.877	14075.01
631.071	14029.95
631.265	14212.22
631.459	13980.8
631.653	13945.98
631.848	13976.7
632.042	13864.07
632.236	13857.92
632.43	13532.29
632.624	13390.99
632.818	13403.27
633.012	13374.6
633.206	13313.16
633.4	13442.18
633.594	13098.13
633.788	13161.61
633.982	13069.45
634.176	12991.63
634.369	12862.61
634.563	12901.52
634.757	12813.46
634.951	12915.86
635.145	12815.51
635.339	12586.13
635.533	12504.21
635.726	12549.27
635.92	12213.4
636.114	12399.77
636.308	12182.68
636.501	12471.45
636.695	12432.54
636.889	12092.57
637.083	12061.85
637.276	12057.76
637.47	12049.57
637.664	11556
637.857	11771.04
638.051	11799.71
638.244	11611.3
638.438	11646.12
638.632	11619.49
638.825	11572.39
639.019	11560.1
639.212	11322.54
639.406	11279.53
639.599	11156.65
639.793	11222.19
639.986	11037.87
640.18	11113.64
640.373	10933.42
640.567	11015.34
640.76	10820.78
640.954	10716.34
641.147	10638.51
641.34	10591.41
641.534	10710.19
641.727	10493.11
641.92	10591.41
642.114	10486.97
642.307	10429.62
642.5	10214.59
642.694	10038.46
642.887	10013.88
643.08	9999.55
643.273	10026.17
643.467	10013.88
643.66	9848
643.853	9776.32
644.046	9587.91
644.239	9751.74
644.432	9663.68
644.626	9364.68
644.819	9460.93
645.012	9563.33
645.205	9522.37
645.398	9465.03
645.591	9178.31
645.784	9434.31
645.977	9176.27
646.17	9067.72
646.363	9172.17
646.556	9043.15
646.749	9026.76
646.942	9039.05
647.135	8848.59
647.328	8910.03
647.521	8684.75
647.714	8637.65
647.907	8703.18
648.099	8514.77
648.292	8709.33
648.485	8613.07
648.678	8391.89
648.871	8406.23
649.064	8506.58
649.256	8410.33
649.449	8250.58
649.642	8197.34
649.835	8209.62
650.027	8039.64
650.22	8185.05
650.413	8053.98
650.605	7961.82
650.798	7941.34
650.991	7818.46
651.183	7959.77
651.376	7861.47
651.568	7787.74
651.761	7728.35
651.954	7701.73
652.146	7746.78
652.339	7687.39
652.531	7384.29
652.724	7634.14
652.916	7488.74
653.109	7404.77
653.301	7302.37
653.494	7568.61
653.686	7314.66
653.879	7449.83
654.071	7206.12
654.263	7292.13
654.456	7091.43
654.648	7199.98
654.84	7124.2
655.033	7050.47
655.225	6991.08
655.417	6960.36
655.61	6903.02
655.802	6886.64
655.994	6978.79
656.186	6913.26
656.379	6927.6
656.571	6786.29
656.763	6790.38
656.955	6812.91
657.148	6651.12
657.34	6710.51
657.532	6450.42
657.724	6626.54
657.916	6458.61
658.108	6567.15
658.3	6356.21
658.492	6382.84
658.684	6305.01
658.876	6227.19
659.068	6352.12
659.26	6200.57
659.452	6223.09
659.644	6110.46
659.836	6225.14
660.028	6141.18
660.22	6100.22
660.412	6059.26
660.604	6051.06
660.796	6057.21
660.988	5942.52
661.18	5741.82
661.372	5897.47
661.563	5735.68
661.755	5793.02
661.947	5793.02
662.139	5901.56
662.331	5543.17
662.522	5684.48
662.714	5446.91
662.906	5723.39
663.097	5559.55
663.289	5582.08
663.481	5557.5
663.673	5461.25
663.864	5477.63
664.056	5594.37
664.247	5516.55
664.439	5428.48
664.631	5469.44
664.822	5336.32
665.014	5301.51
665.205	5291.27
665.397	5123.34
665.588	5281.03
665.78	5186.82
665.971	5188.87
666.163	5268.74
666.354	5332.23
666.546	4975.88
666.737	5031.18
666.929	5096.71
667.12	5195.01
667.311	5006.6
667.503	5061.9
667.694	5162.25
667.885	5006.6
668.077	5010.7
668.268	4803.85
668.459	4957.45
668.651	4867.34
668.842	4766.99
669.033	4977.93
669.224	4803.85
669.416	4898.06
669.607	4928.78
669.798	4703.5
669.989	4945.16
670.18	4863.24
670.371	4744.46
670.563	4623.63
670.754	4834.57
670.945	4683.02
671.136	4887.82
671.327	4541.71
671.518	4746.51
671.709	4748.56
671.9	4705.55
672.091	4656.4
672.282	4564.24
672.473	4521.23
672.664	4543.76
672.855	4633.87
673.046	4533.52
673.237	4564.24
673.428	4375.83
673.619	4443.41
673.809	4336.92
674	4502.8
674.191	4539.66
674.382	4431.12
674.573	4353.3
674.764	4418.83
674.954	4433.17
675.145	4224.28
675.336	4418.83
675.527	4603.15
675.717	4353.3
675.908	4357.39
676.099	4379.92
676.289	4338.96
676.48	4261.14
676.671	4230.42
676.861	4369.68
677.052	4365.59
677.243	4242.71
677.433	4295.96
677.624	4369.68
677.814	4330.77
678.005	4050.2
678.195	4377.87
678.386	4185.37
678.576	4203.8
678.767	4111.64
678.957	4332.82
679.148	4365.59
679.338	4363.54
679.529	4250.9
679.719	4105.49
679.909	4226.32
680.1	4150.55
680.29	4156.69
680.481	4023.58
680.671	4181.27
680.861	4130.07
681.052	4189.46
681.242	4191.51
681.432	4418.83
681.622	4189.46
681.813	4211.99
682.003	4187.41
682.193	4064.54
682.383	4240.66
682.573	4146.45
682.764	4087.06
682.954	4164.89
683.144	4252.95
683.334	4056.34
683.524	4111.64
683.714	4191.51
683.904	4148.5
684.094	4197.65
684.284	4021.53
684.474	4302.1
684.664	4103.45
684.854	4273.43
685.044	4105.49
685.234	4029.72
685.424	4101.4
685.614	3943.71
685.804	4078.87
685.994	4033.82
686.184	4101.4
686.374	4078.87
686.564	3966.23
686.753	4082.97
686.943	4033.82
687.133	3888.41
687.323	3912.99
687.513	3931.42
687.702	3970.33
687.892	3906.84
688.082	3892.51
688.272	3849.5
688.461	3925.27
688.651	4080.92
688.841	3910.94
689.03	3831.07
689.22	3898.65
689.41	3777.82
689.599	3648.8
689.789	3796.25
689.979	3775.77
690.168	3749.15
690.358	3915.03
690.547	3771.68
690.737	3685.66
690.926	3718.43
691.116	3613.98
691.305	3808.54
691.495	3761.44
691.684	3800.35
691.874	3712.28
692.063	3730.72
692.252	3796.25
692.442	3818.78
692.631	3843.35
692.82	3759.39
693.01	3573.02
693.199	3794.2
693.388	3697.95
693.578	3730.72
693.767	3771.68
693.956	3695.9
694.146	3808.54
694.335	3706.14
694.524	3763.48
694.713	3775.77
694.902	3683.61
695.092	3702.04
695.281	3667.23
695.47	3802.4
695.659	3771.68
695.848	3661.09
696.037	3712.28
696.226	3857.69
696.415	3570.97
696.604	3974.42
696.793	3874.07
696.982	3728.67
697.171	3853.59
697.36	3720.48
697.549	3687.71
697.738	3771.68
697.927	3755.29
698.116	3740.96
698.305	3720.48
698.494	3951.9
698.683	3851.55
698.872	3910.94
699.061	3896.6
699.25	3749.15
699.438	3900.7
699.627	3849.5
699.816	3923.23
700.005	3796.25
700.193	3824.92
700.382	3982.62
700.571	3958.04
700.76	4025.62
700.948	3958.04
701.137	4015.38
701.326	4019.48
701.514	3970.33
701.703	3890.46
701.892	3923.23
702.08	4052.25
702.269	3960.09
702.457	3999
702.646	3943.71
702.834	3773.72
703.023	3937.56
703.212	4080.92
703.4	4009.24
703.589	4177.17
703.777	4119.83
703.965	4058.39
704.154	4027.67
704.342	4095.25
704.531	4099.35
704.719	4017.43
704.907	3984.66
705.096	3992.86
705.284	3964.18
705.472	4148.5
705.661	4103.45
705.849	3929.37
706.037	4123.93
706.226	4062.49
706.414	3927.32
706.602	4140.31
706.79	4007.19
706.979	4007.19
707.167	4189.46
707.355	3949.85
707.543	4056.34
707.731	4142.36
707.919	4173.08
708.107	4019.48
708.296	4005.14
708.484	4136.21
708.672	4150.55
708.86	3939.61
709.048	4085.01
709.236	4013.34
709.424	4177.17
709.612	4185.37
709.8	4070.68
709.988	4082.97
710.176	4205.85
710.364	4031.77
710.551	4199.7
710.739	4085.01
710.927	4144.41
711.115	4117.78
711.303	4166.93
711.491	4101.4
711.679	4056.34
711.866	4117.78
712.054	4168.98
712.242	4125.97
712.43	4238.61
712.617	4091.16
712.805	4187.41
712.993	4275.48
713.181	4138.26
713.368	4033.82
713.556	4158.74
713.744	4226.32
713.931	4326.68
714.119	4156.69
714.306	4261.14
714.494	4107.54
714.682	4146.45
714.869	4082.97
715.057	4207.89
715.244	4128.02
715.432	4185.37
715.619	4218.13
715.807	4054.3
715.994	4066.58
716.182	4105.49
716.369	4214.04
716.556	4226.32
716.744	4097.3
716.931	4123.93
717.119	4144.41
717.306	4119.83
717.493	4115.73
717.681	4130.07
717.868	4357.39
718.055	4044.06
718.242	4123.93
718.43	4130.07
718.617	4154.65
718.804	4154.65
718.991	4160.79
719.179	4224.28
719.366	4019.48
719.553	4166.93
719.74	4152.6
719.927	4093.21
720.114	4130.07
720.301	4175.13
720.488	3992.86
720.676	4007.19
720.863	4119.83
721.05	4128.02
721.237	4187.41
721.424	4042.01
721.611	4097.3
721.798	3980.57
721.985	3982.62
722.172	4125.97
722.358	3935.51
722.545	4306.2
722.732	4021.53
722.919	4046.1
723.106	3874.07
723.293	3931.42
723.48	3984.66
723.667	4171.03
723.853	3872.03
724.04	4121.88
724.227	4056.34
724.414	4035.86
724.6	3945.75
724.787	4031.77
724.974	3990.81
725.161	4076.82
725.347	3992.86
725.534	3915.03
725.72	4013.34
725.907	4107.54
726.094	4035.86
726.28	3919.13
726.467	3947.8
726.653	3988.76
726.84	3953.94
727.027	4101.4
727.213	3835.16
727.4	4107.54
727.586	3923.23
727.773	3978.52
727.959	3962.14
728.145	3966.23
728.332	3929.37
728.518	3863.83
728.705	3968.28
728.891	4005.14
729.077	3939.61
729.264	4072.73
729.45	3845.4
729.636	3894.55
729.823	3822.87
730.009	3896.6
730.195	3902.75
730.382	3929.37
730.568	3839.26
730.754	4009.24
730.94	3915.03
731.126	4003.1
731.313	3894.55
731.499	3747.1
731.685	3687.71
731.871	3769.63
732.057	3849.5
732.243	3945.75
732.429	3751.2
732.615	3849.5
732.801	3812.64
732.987	3753.24
733.173	3829.02
733.359	3788.06
733.545	3818.78
733.731	3687.71
733.917	3796.25
734.103	3700
734.289	3755.29
734.475	3654.94
734.661	3829.02
734.847	3816.73
735.033	3716.38
735.219	3593.5
735.404	3659.04
735.59	3573.02
735.776	3642.65
735.962	3677.47
736.148	3613.98
736.333	3693.85
736.519	3568.93
736.705	3671.33
736.89	3540.26
737.076	3632.41
737.262	3509.54
737.447	3513.63
737.633	3661.09
737.819	3601.69
738.004	3468.58
738.19	3509.54
738.375	3564.83
738.561	3423.52
738.747	3521.82
738.932	3495.2
739.118	3575.07
739.303	3560.73
739.489	3626.27
739.674	3427.62
739.859	3398.95
740.045	3480.86
740.23	3392.8
740.416	3339.55
740.601	3441.95
740.786	3255.59
740.972	3249.44
741.157	3294.5
741.342	3249.44
741.528	3241.25
741.713	3282.21
741.898	3231.01
742.084	3388.71
742.269	3421.47
742.454	3237.16
742.639	3280.16
742.824	3085.61
743.01	3237.16
743.195	3110.18
743.38	3173.67
743.565	3175.72
743.75	3093.8
743.935	3130.66
744.12	3278.12
744.305	3001.64
744.49	2960.68
744.675	3179.81
744.86	3091.75
745.045	3050.79
745.23	3091.75
745.415	2997.54
745.6	3056.93
745.785	2954.54
745.97	2929.96
746.155	2968.87
746.34	2893.1
746.525	2907.43
746.71	2919.72
746.895	2958.63
747.079	2837.8
747.264	2864.43
747.449	2929.96
747.634	2802.99
747.819	2762.03
748.003	2802.99
748.188	2759.98
748.373	2784.55
748.557	2596.14
748.742	2727.21
748.927	2694.44
749.111	2731.31
749.296	2749.74
749.481	2716.97
749.665	2671.92
749.85	2553.13
750.034	2673.96
750.219	2528.56
750.404	2600.24
750.588	2540.85
750.773	2397.49
750.957	2600.24
751.141	2485.55
751.326	2432.3
751.51	2336.05
751.695	2327.86
751.879	2399.54
752.064	2493.74
752.248	2438.45
752.432	2377.01
752.617	2362.67
752.801	2379.06
752.985	2344.24
753.17	2413.87
753.354	2323.76
753.538	2362.67
753.722	2295.09
753.907	2155.83
754.091	2094.39
754.275	2168.12
754.459	2225.46
754.643	2151.73
754.828	2100.53
755.012	2116.92
755.196	2121.01
755.38	2219.32
755.564	2078.01
755.748	2112.82
755.932	2157.88
756.116	2170.16
756.3	2026.81
756.484	2037.05
756.668	2030.9
756.852	1981.75
757.036	2075.96
757.22	1942.84
757.404	1985.85
757.588	2043.19
757.772	2075.96
757.956	1998.13
758.14	1996.09
758.323	1813.82
758.507	1951.03
758.691	1817.91
758.875	1924.41
759.059	1891.64
759.242	1758.52
759.426	1822.01
759.61	1811.77
759.794	1815.87
759.977	1846.59
760.161	1957.18
760.345	1867.06
760.528	1858.87
760.712	1772.86
760.895	1735.99
761.079	1723.71
761.263	1647.93
761.446	1742.14
761.63	1690.94
761.813	1637.69
761.997	1731.9
762.18	1758.52
762.364	1774.91
762.547	1596.73
762.731	1670.46
762.914	1695.04
763.098	1596.73
763.281	1684.8
763.464	1553.73
763.648	1692.99
763.831	1592.64
764.015	1623.36
764.198	1633.6
764.381	1715.52
764.564	1606.97
764.748	1547.58
764.931	1582.4
765.114	1549.63
765.297	1598.78
765.481	1588.54
765.664	1510.72
765.847	1707.32
766.03	1643.84
766.213	1465.66
766.397	1455.42
766.58	1502.53
766.763	1453.38
766.946	1457.47
767.129	1576.25
767.312	1520.96
767.495	1320.26
767.678	1451.33
767.861	1498.43
768.044	1404.22
768.227	1410.37
768.41	1432.9
768.593	1414.46
768.776	1402.18
768.959	1506.62
769.142	1459.52
769.324	1471.81
769.507	1381.7
769.69	1387.84
769.873	1375.55
770.056	1547.58
770.239	1412.42
770.421	1434.94
770.604	1473.85
770.787	1355.07
770.97	1373.5
771.152	1277.25
771.335	1295.68
771.518	1301.83
771.7	1359.17
771.883	1371.46
772.066	1219.91
772.248	1334.59
772.431	1361.22
772.613	1361.22
772.796	1316.16
772.978	1295.68
773.161	1242.43
773.343	1318.21
773.526	1252.67
773.708	1181
773.891	1185.09
774.073	1248.58
774.256	1234.24
774.438	1277.25
774.621	1230.15
774.803	1228.1
774.985	1195.33
775.168	1203.52
775.35	1131.84
775.532	1269.06
775.715	1269.06
775.897	1123.65
776.079	1021.25
776.261	1131.84
776.444	1185.09
776.626	1097.03
776.808	1131.84
776.99	1035.59
777.173	1127.75
777.355	1082.69
777.537	1070.4
777.719	1074.5
777.901	1097.03
778.083	1045.83
778.265	1092.93
778.447	1090.88
778.629	1068.36
778.811	1011.01
778.993	1068.36
779.175	1060.17
779.357	937.29
779.539	908.62
779.721	1056.07
779.903	1062.21
780.085	968.01
780.267	933.19
780.449	955.72
780.631	970.05
780.812	920.9
780.994	834.89
781.176	865.61
781.358	838.98
781.54	920.9
781.721	945.48
781.903	910.66
782.085	865.61
782.267	879.94
782.448	838.98
782.63	841.03
782.812	855.37
782.993	873.8
783.175	904.52
783.357	890.18
783.538	775.5
783.72	783.69
783.901	828.74
784.083	814.41
784.264	869.7
784.446	728.39
784.627	838.98
784.809	845.13
784.99	671.05
785.172	800.07
785.353	752.97
785.535	740.68
785.716	658.76
785.897	660.81
786.079	755.02
786.26	769.35
786.441	740.68
786.623	599.37
786.804	697.67
786.985	679.24
787.167	812.36
787.348	613.71
787.529	693.58
787.71	777.55
787.891	654.67
788.073	677.19
788.254	648.52
788.435	669
788.616	701.77
788.797	644.43
788.978	679.24
789.159	580.94
789.34	685.39
789.522	574.8
789.703	626
789.884	525.65
790.065	671.05
790.246	673.1
790.427	652.62
790.607	564.56
790.788	648.52
790.969	582.99
791.15	640.33
791.331	544.08
791.512	664.91
791.693	492.88
791.874	542.03
792.054	630.09
792.235	642.38
792.416	580.94
792.597	480.59
792.778	591.18
792.958	527.69
793.139	550.22
793.32	568.65
793.5	521.55
793.681	570.7
793.862	488.78
794.042	486.73
794.223	552.27
794.404	544.08
794.584	423.25
794.765	482.64
794.945	456.01
795.126	525.65
795.306	562.51
795.487	451.92
795.667	384.34
795.848	499.02
796.028	464.21
796.209	511.31
796.389	482.64
796.57	419.15
796.75	370
796.93	427.34
797.111	398.67
797.291	408.91
797.471	429.39
797.652	423.25
797.832	425.29
798.012	468.3
798.192	406.86
798.373	361.81
798.553	472.4
798.733	476.49
798.913	367.95
799.093	449.87
799.274	511.31
799.454	503.12
799.634	435.53
799.814	445.77
799.994	402.77
800.174	472.4
800.354	466.25
800.534	310.61
800.714	374.1
800.894	308.56
801.074	417.1
801.254	341.33
801.434	470.35
801.614	394.58
801.794	347.47
801.974	1461.57
802.154	324.94
802.334	433.49
802.514	427.34
802.693	447.82
802.873	329.04
803.053	441.68
803.233	384.34
803.413	376.14
803.592	376.14
803.772	271.7
803.952	380.24
804.131	337.23
804.311	384.34
804.491	384.34
804.67	335.18
804.85	347.47
805.03	382.29
805.209	404.82
805.389	367.95
805.568	357.71
805.748	343.38
805.928	394.58
806.107	365.9
806.287	337.23
806.466	345.42
806.646	253.27
806.825	339.28
807.004	326.99
807.184	347.47
807.363	347.47
807.543	341.33
807.722	277.84
807.901	390.48
808.081	302.42
808.26	146.77
808.439	275.79
808.619	400.72
808.798	275.79
808.977	271.7
809.156	294.22
809.336	286.03
809.515	318.8
809.694	271.7
809.873	296.27
810.052	367.95
810.231	388.43
810.411	320.85
810.59	339.28
810.769	329.04
810.948	286.03
811.127	224.59
811.306	179.54
811.485	257.36
811.664	363.86
811.843	249.17
812.022	255.31
812.201	195.92
812.38	243.03
812.559	273.75
812.737	257.36
812.916	230.74
813.095	300.37
813.274	271.7
813.453	228.69
813.632	283.98
813.811	222.55
813.989	249.17
814.168	326.99
814.347	267.6
814.526	273.75
814.704	296.27
814.883	206.16
815.062	222.55
815.24	351.57
815.419	277.84
815.598	232.79
815.776	226.64
815.955	312.66
816.133	222.55
816.312	296.27
816.49	206.16
816.669	281.94
816.847	249.17
817.026	171.35
817.204	195.92
817.383	204.11
817.561	200.02
817.74	234.83
817.918	257.36
818.097	173.39
818.275	154.96
818.453	218.45
818.632	322.9
818.81	161.11
818.988	183.63
819.167	204.11
819.345	281.94
819.523	175.44
819.701	220.5
819.879	161.11
820.058	218.45
820.236	179.54
820.414	230.74
820.592	259.41
820.77	197.97
820.948	140.63
821.127	134.48
821.305	222.55
821.483	195.92
821.661	271.7
821.839	230.74
822.017	109.91
822.195	138.58
822.373	163.15
822.551	183.63
822.729	249.17
822.907	128.34
823.085	345.42
823.262	177.49
823.44	62.8
823.618	89.43
823.796	179.54
823.974	124.24
824.152	124.24
824.329	152.91
824.507	181.59
824.685	204.11
824.863	109.91
825.04	202.07
825.218	193.87
825.396	210.26
825.574	159.06
825.751	202.07
825.929	120.15
826.107	175.44
826.284	134.48
826.462	193.87
826.639	171.35
826.817	114
826.994	185.68
827.172	68.95
827.349	236.88
827.527	111.96
827.704	226.64
827.882	105.81
828.059	134.48
828.237	290.13
828.414	161.11
828.591	140.63
828.769	93.52
828.946	114
829.124	163.15
829.301	197.97
829.478	103.76
829.655	202.07
829.833	64.85
830.01	81.24
830.187	122.2
830.364	136.53
830.542	111.96
830.719	234.83
830.896	161.11
831.073	136.53
831.25	140.63
831.427	122.2
831.604	140.63
831.782	140.63
831.959	136.53
832.136	175.44
832.313	144.72
832.49	136.53
832.667	189.78
832.844	71
833.021	271.7
833.198	87.38
833.374	171.35
833.551	114
833.728	101.72
833.905	103.76
834.082	124.24
834.259	146.77
834.436	185.68
834.612	105.81
834.789	163.15
834.966	52.56
835.143	169.3
835.319	101.72
835.496	132.44
835.673	99.67
835.85	146.77
836.026	58.71
836.203	187.73
836.38	134.48
836.556	58.71
836.733	146.77
836.909	204.11
837.086	54.61
837.262	83.28
837.439	101.72
837.616	9.56
837.792	66.9
837.968	89.43
838.145	58.71
838.321	46.42
838.498	75.09
838.674	173.39
838.851	134.48
839.027	161.11
839.203	46.42
839.38	89.43
839.556	62.8
839.732	118.1
839.909	56.66
840.085	163.15
840.261	91.48
840.437	120.15
840.614	42.32
840.79	101.72
840.966	71
841.142	21.84
841.318	42.32
841.494	87.38
841.671	68.95
841.847	71
842.023	97.62
842.199	150.87
842.375	183.63
842.551	-4.78
842.727	48.47
842.903	191.83
843.079	40.28
843.255	44.37
843.431	42.32
843.607	134.48
843.783	5.46
843.959	124.24
844.134	118.1
844.31	152.91
844.486	87.38
844.662	66.9
844.838	64.85
845.013	183.63
845.189	77.14
845.365	42.32
845.541	97.62
845.716	105.81
845.892	120.15
846.068	21.84
846.244	103.76
846.419	126.29
846.595	60.76
846.77	-39.59
846.946	161.11
847.122	89.43
847.297	91.48
847.473	42.32
847.648	75.09
847.824	56.66
847.999	25.94
848.175	42.32
848.35	25.94
848.526	169.3
848.701	132.44
848.876	130.39
849.052	95.57
849.227	97.62
849.403	-17.07
849.578	23.89
849.753	107.86
849.929	56.66
850.104	-6.83
850.279	66.9
850.454	114
850.63	146.77
850.805	142.68
850.98	101.72
851.155	17.75
851.33	81.24
851.505	109.91
851.681	124.24
851.856	38.23
852.031	107.86
852.206	169.3
852.381	58.71
852.556	85.33
852.731	126.29
852.906	107.86
853.081	19.8
853.256	85.33
853.431	81.24
853.606	107.86
853.781	75.09
853.956	36.18
854.131	5.46
854.305	56.66
854.48	-15.02
854.655	30.04
854.83	34.13
855.005	1.37
855.18	58.71
855.354	58.71
855.529	116.05
855.704	9.56
855.879	38.23
856.053	79.19
856.228	75.09
856.403	50.52
856.577	101.72
856.752	17.75
856.926	44.37
857.101	64.85
857.276	15.7
857.45	46.42
857.625	120.15
857.799	7.51
857.974	21.84
858.148	-12.97
858.323	120.15
858.497	19.8
858.672	95.57
858.846	36.18
859.02	114
859.195	40.28
859.369	99.67
859.543	73.04
859.718	11.61
859.892	25.94
860.066	50.52
860.241	25.94
860.415	85.33
860.589	-53.93
860.763	5.46
860.938	-21.16
861.112	91.48
861.286	68.95
861.46	56.66
861.634	58.71
861.808	73.04
861.982	40.28
862.157	52.56
862.331	64.85
862.505	32.08
862.679	38.23
862.853	-12.97
863.027	13.65
863.201	66.9
863.375	50.52
863.549	116.05
863.722	85.33
863.896	116.05
864.07	75.09
864.244	5.46
864.418	54.61
864.592	32.08
864.766	71
864.939	89.43
865.113	9.56
865.287	75.09
865.461	66.9
865.634	103.76
865.808	71
865.982	64.85
866.156	38.23
866.329	-10.92
866.503	52.56
866.676	95.57
866.85	87.38
867.024	-15.02
867.197	54.61
867.371	122.2
867.544	64.85
867.718	-51.88
867.891	122.2
868.065	36.18
868.238	103.76
868.412	97.62
868.585	58.71
868.759	-37.55
868.932	11.61
869.105	-47.79
869.279	42.32
869.452	32.08
869.625	109.91
869.799	9.56
869.972	-25.26
870.145	68.95
870.319	58.71
870.492	50.52
870.665	48.47
870.838	-2.73
871.011	-31.4
871.185	-0.68
871.358	9.56
871.531	124.24
871.704	27.99
871.877	105.81
872.05	-2.73
872.223	-33.45
872.396	71
872.569	42.32
872.742	-47.79
872.915	99.67
873.088	87.38
873.261	13.65
873.434	68.95
873.607	34.13
873.78	103.76
873.953	52.56
874.126	62.8
874.299	73.04
874.471	60.76
874.644	11.61
874.817	34.13
874.99	64.85
875.163	15.7
875.335	9.56
875.508	-25.26
875.681	64.85
875.853	46.42
876.026	40.28
876.199	64.85
876.371	-6.83
876.544	23.89
876.717	50.52
876.889	-6.83
877.062	27.99
877.234	27.99
877.407	-8.87
877.579	34.13
877.752	50.52
877.924	66.9
878.097	83.28
878.269	30.04
878.442	40.28
878.614	97.62
878.786	71
878.959	32.08
879.131	30.04
879.303	1.37
879.476	-33.45
879.648	83.28
879.82	1.37
879.993	17.75
880.165	-4.78
880.337	-31.4
880.509	91.48
880.681	-25.26
880.854	9.56
881.026	56.66
881.198	142.68
881.37	40.28
881.542	34.13
881.714	19.8
881.886	21.84
882.058	56.66
882.23	99.67
882.402	50.52
882.574	1.37
882.746	114
882.918	38.23
883.09	73.04
883.262	-8.87
883.434	25.94
883.606	-35.5
883.778	56.66
883.95	54.61
884.122	38.23
884.293	3.41
884.465	42.32
884.637	46.42
884.809	46.42
884.98	42.32
885.152	58.71
885.324	25.94
885.496	-86.7
885.667	1.37
885.839	91.48
886.011	165.2
886.182	27.99
886.354	99.67
886.525	46.42
886.697	-10.92
886.869	-45.74
887.04	46.42
887.212	79.19
887.383	114
887.555	71
887.726	-33.45
887.897	40.28
888.069	42.32
888.24	30.04
888.412	-2.73
888.583	62.8
888.754	64.85
888.926	-37.55
889.097	58.71
889.268	-92.84
889.44	62.8
889.611	-58.03
889.782	11.61
889.953	40.28
890.125	32.08
890.296	-72.36
890.467	48.47
890.638	-33.45
890.809	-2.73
890.98	42.32
891.151	30.04
891.323	23.89
891.494	32.08
891.665	-17.07
891.836	-2.73
892.007	-12.97
892.178	-29.35
892.349	66.9
892.52	-49.83
892.691	-39.59
892.862	-43.69
893.032	-39.59
893.203	15.7
893.374	13.65
893.545	1.37
893.716	-12.97
893.887	107.86
894.057	-0.68
894.228	-45.74
894.399	-19.11
894.57	19.8
894.74	38.23
894.911	23.89
895.082	11.61
895.253	-45.74
895.423	34.13
895.594	71
895.764	-47.79
895.935	-29.35
896.106	23.89
896.276	17.75
896.447	23.89
896.617	34.13
896.788	40.28
896.958	7.51
897.129	-0.68
897.299	-21.16
897.47	48.47
897.64	46.42
897.81	64.85
897.981	95.57
898.151	-64.17
898.322	105.81
898.492	73.04
898.662	9.56
898.832	-6.83
899.003	-35.5
899.173	9.56
899.343	-58.03
899.513	15.7
