Data from USB4F104151__44__12-00-55-489.txt Node

Date: Fri Mar 14 12:00:55 EDT 2025
User: louis
Spectrometer: USB4F10415
Trigger mode: 4
Integration Time (sec): 2.000000E-2
Scans to average: 1
Electric dark correction enabled: true
Nonlinearity correction enabled: false
Boxcar width: 0
XAxis mode: Wavelengths
Number of Pixels in Spectrum: 3648
>>>>>Begin Spectral Data<<<<<
178.204	-39.08
178.424	-39.08
178.644	-39.08
178.864	-211.11
179.084	-86.19
179.304	-14.51
179.524	46.93
179.744	22.36
179.964	32.6
180.184	-37.03
180.404	-24.75
180.624	32.6
180.844	-59.56
181.064	-12.46
181.283	36.69
181.503	-0.17
181.723	-22.7
181.943	-41.13
182.163	59.22
182.383	53.08
182.602	10.07
182.822	34.64
183.042	104.28
183.262	30.55
183.482	73.56
183.701	-32.94
183.921	48.98
184.141	3.93
184.361	1.88
184.58	1.88
184.8	-30.89
185.02	22.36
185.239	24.4
185.459	71.51
185.679	36.69
185.898	-12.46
186.118	46.93
186.338	-12.46
186.557	8.02
186.777	5.97
186.997	75.6
187.216	-63.66
187.436	79.7
187.655	48.98
187.875	44.88
188.095	46.93
188.314	32.6
188.534	53.08
188.753	14.17
188.973	30.55
189.192	5.97
189.412	73.56
189.631	-0.17
189.851	44.88
190.07	26.45
190.29	-10.41
190.509	71.51
190.729	34.64
190.948	24.4
191.168	106.32
191.387	46.93
191.607	-10.41
191.826	94.04
192.045	55.12
192.265	48.98
192.484	75.6
192.704	14.17
192.923	51.03
193.142	89.94
193.362	85.84
193.581	34.64
193.8	89.94
194.02	51.03
194.239	16.21
194.458	-41.13
194.678	32.6
194.897	91.99
195.116	55.12
195.335	20.31
195.555	-18.6
195.774	26.45
195.993	42.84
196.212	42.84
196.432	16.21
196.651	22.36
196.87	18.26
197.089	28.5
197.308	1.88
197.528	48.98
197.747	-2.22
197.966	18.26
198.185	30.55
198.404	100.18
198.623	30.55
198.842	24.4
199.062	14.17
199.281	34.64
199.5	-26.79
199.719	57.17
199.938	55.12
200.157	57.17
200.376	55.12
200.595	73.56
200.814	61.27
201.033	40.79
201.252	48.98
201.471	-14.51
201.69	79.7
201.909	26.45
202.128	-14.51
202.347	10.07
202.566	48.98
202.785	-65.71
203.004	65.36
203.223	44.88
203.442	34.64
203.661	65.36
203.879	69.46
204.098	16.21
204.317	8.02
204.536	36.69
204.755	-24.75
204.974	44.88
205.193	32.6
205.411	32.6
205.63	38.74
205.849	81.75
206.068	75.6
206.287	69.46
206.505	46.93
206.724	-32.94
206.943	34.64
207.162	67.41
207.381	57.17
207.599	51.03
207.818	16.21
208.037	75.6
208.255	53.08
208.474	-6.31
208.693	83.8
208.911	26.45
209.13	36.69
209.349	8.02
209.567	16.21
209.786	26.45
210.005	12.12
210.223	69.46
210.442	69.46
210.661	42.84
210.879	65.36
211.098	-8.36
211.316	59.22
211.535	67.41
211.753	-4.27
211.972	-8.36
212.191	55.12
212.409	-8.36
212.628	3.93
212.846	-43.18
213.065	71.51
213.283	-20.65
213.502	14.17
213.72	67.41
213.938	-26.79
214.157	34.64
214.375	51.03
214.594	40.79
214.812	79.7
215.031	30.55
215.249	10.07
215.467	59.22
215.686	10.07
215.904	61.27
216.122	-28.84
216.341	87.89
216.559	36.69
216.778	51.03
216.996	141.14
217.214	-16.55
217.432	-22.7
217.651	14.17
217.869	22.36
218.087	69.46
218.306	3.93
218.524	-4.27
218.742	81.75
218.96	34.64
219.179	118.61
219.397	-0.17
219.615	85.84
219.833	24.4
220.051	44.88
220.27	91.99
220.488	18.26
220.706	59.22
220.924	-32.94
221.142	14.17
221.36	-12.46
221.578	30.55
221.796	14.17
222.015	55.12
222.233	-69.8
222.451	81.75
222.669	-22.7
222.887	42.84
223.105	-22.7
223.323	61.27
223.541	-39.08
223.759	53.08
223.977	-2.22
224.195	46.93
224.413	36.69
224.631	67.41
224.849	73.56
225.067	-10.41
225.285	32.6
225.503	14.17
225.721	-6.31
225.939	91.99
226.157	-14.51
226.375	73.56
226.592	22.36
226.81	34.64
227.028	36.69
227.246	122.71
227.464	73.56
227.682	87.89
227.9	69.46
228.117	16.21
228.335	73.56
228.553	30.55
228.771	83.8
228.989	57.17
229.206	12.12
229.424	61.27
229.642	16.21
229.86	65.36
230.077	30.55
230.295	30.55
230.513	-14.51
230.731	1.88
230.948	77.65
231.166	79.7
231.384	30.55
231.601	61.27
231.819	59.22
232.037	12.12
232.254	57.17
232.472	20.31
232.689	48.98
232.907	16.21
233.125	55.12
233.342	-4.27
233.56	42.84
233.777	40.79
233.995	51.03
234.213	38.74
234.43	24.4
234.648	-22.7
234.865	71.51
235.083	24.4
235.3	-34.99
235.518	98.13
235.735	79.7
235.953	32.6
236.17	-0.17
236.388	51.03
236.605	26.45
236.822	96.08
237.04	73.56
237.257	-24.75
237.475	-14.51
237.692	24.4
237.909	34.64
238.127	-14.51
238.344	20.31
238.562	114.52
238.779	69.46
238.996	8.02
239.214	5.97
239.431	24.4
239.648	14.17
239.865	61.27
240.083	38.74
240.3	32.6
240.517	-82.09
240.735	40.79
240.952	36.69
241.169	26.45
241.386	-69.8
241.603	10.07
241.821	114.52
242.038	61.27
242.255	38.74
242.472	79.7
242.689	48.98
242.907	34.64
243.124	73.56
243.341	89.94
243.558	40.79
243.775	12.12
243.992	-16.55
244.209	-34.99
244.426	10.07
244.643	-0.17
244.86	-24.75
245.078	24.4
245.295	51.03
245.512	73.56
245.729	20.31
245.946	73.56
246.163	30.55
246.38	16.21
246.597	-12.46
246.814	59.22
247.031	120.66
247.248	44.88
247.464	40.79
247.681	75.6
247.898	135
248.115	20.31
248.332	-20.65
248.549	34.64
248.766	106.32
248.983	83.8
249.2	55.12
249.417	26.45
249.633	8.02
249.85	65.36
250.067	-6.31
250.284	-2.22
250.501	51.03
250.717	26.45
250.934	14.17
251.151	-0.17
251.368	24.4
251.585	87.89
251.801	30.55
252.018	48.98
252.235	14.17
252.451	42.84
252.668	26.45
252.885	59.22
253.102	69.46
253.318	-6.31
253.535	36.69
253.752	36.69
253.968	-0.17
254.185	79.7
254.401	12.12
254.618	65.36
254.835	14.17
255.051	71.51
255.268	51.03
255.484	38.74
255.701	3.93
255.917	96.08
256.134	3.93
256.351	40.79
256.567	8.02
256.784	61.27
257	24.4
257.217	71.51
257.433	14.17
257.65	18.26
257.866	32.6
258.082	-6.31
258.299	30.55
258.515	28.5
258.732	40.79
258.948	98.13
259.165	12.12
259.381	51.03
259.597	81.75
259.814	67.41
260.03	57.17
260.246	42.84
260.463	-0.17
260.679	42.84
260.895	55.12
261.112	26.45
261.328	-53.42
261.544	5.97
261.761	32.6
261.977	-47.27
262.193	10.07
262.409	38.74
262.626	57.17
262.842	30.55
263.058	-20.65
263.274	22.36
263.49	-37.03
263.707	26.45
263.923	94.04
264.139	59.22
264.355	14.17
264.571	53.08
264.787	26.45
265.004	137.04
265.22	57.17
265.436	-67.75
265.652	55.12
265.868	20.31
266.084	-2.22
266.3	73.56
266.516	44.88
266.732	102.23
266.948	65.36
267.164	79.7
267.38	44.88
267.596	5.97
267.812	73.56
268.028	65.36
268.244	42.84
268.46	61.27
268.676	38.74
268.892	24.4
269.108	38.74
269.324	20.31
269.54	-4.27
269.756	65.36
269.972	79.7
270.188	53.08
270.403	1.88
270.619	110.42
270.835	-43.18
271.051	3.93
271.267	40.79
271.483	36.69
271.698	36.69
271.914	22.36
272.13	16.21
272.346	75.6
272.562	48.98
272.777	75.6
272.993	5.97
273.209	8.02
273.425	-51.37
273.64	14.17
273.856	85.84
274.072	-77.99
274.287	38.74
274.503	-4.27
274.719	71.51
274.934	79.7
275.15	75.6
275.366	30.55
275.581	-30.89
275.797	20.31
276.012	42.84
276.228	48.98
276.444	55.12
276.659	100.18
276.875	-28.84
277.09	26.45
277.306	59.22
277.521	69.46
277.737	63.32
277.952	69.46
278.168	44.88
278.383	12.12
278.599	8.02
278.814	126.8
279.03	53.08
279.245	94.04
279.461	-8.36
279.676	36.69
279.892	61.27
280.107	-16.55
280.322	36.69
280.538	38.74
280.753	110.42
280.969	14.17
281.184	40.79
281.399	26.45
281.615	77.65
281.83	26.45
282.045	65.36
282.26	30.55
282.476	44.88
282.691	28.5
282.906	-6.31
283.122	-2.22
283.337	14.17
283.552	-0.17
283.767	5.97
283.983	-18.6
284.198	14.17
284.413	26.45
284.628	-65.71
284.843	3.93
285.058	18.26
285.274	79.7
285.489	61.27
285.704	12.12
285.919	-37.03
286.134	-2.22
286.349	-2.22
286.564	24.4
286.779	135
286.995	51.03
287.21	38.74
287.425	81.75
287.64	-0.17
287.855	12.12
288.07	44.88
288.285	1.88
288.5	32.6
288.715	75.6
288.93	8.02
289.145	65.36
289.36	75.6
289.575	30.55
289.79	-24.75
290.004	108.37
290.219	34.64
290.434	51.03
290.649	5.97
290.864	1.88
291.079	24.4
291.294	65.36
291.509	20.31
291.724	89.94
291.938	32.6
292.153	48.98
292.368	-10.41
292.583	44.88
292.798	24.4
293.012	5.97
293.227	42.84
293.442	3.93
293.657	14.17
293.871	85.84
294.086	71.51
294.301	26.45
294.516	36.69
294.73	3.93
294.945	42.84
295.16	57.17
295.374	24.4
295.589	22.36
295.804	8.02
296.018	61.27
296.233	40.79
296.447	36.69
296.662	-24.75
296.877	69.46
297.091	77.65
297.306	3.93
297.52	-6.31
297.735	42.84
297.949	24.4
298.164	24.4
298.378	14.17
298.593	-45.23
298.807	22.36
299.022	48.98
299.236	22.36
299.451	114.52
299.665	20.31
299.88	48.98
300.094	63.32
300.309	91.99
300.523	100.18
300.737	40.79
300.952	-6.31
301.166	85.84
301.381	24.4
301.595	120.66
301.809	83.8
302.024	24.4
302.238	40.79
302.452	135
302.667	3.93
302.881	-6.31
303.095	44.88
303.309	48.98
303.524	38.74
303.738	79.7
303.952	32.6
304.166	98.13
304.381	3.93
304.595	59.22
304.809	44.88
305.023	120.66
305.237	42.84
305.452	20.31
305.666	118.61
305.88	91.99
306.094	-34.99
306.308	114.52
306.522	36.69
306.736	28.5
306.95	63.32
307.164	36.69
307.379	112.47
307.593	38.74
307.807	18.26
308.021	32.6
308.235	-22.7
308.449	53.08
308.663	55.12
308.877	42.84
309.091	51.03
309.305	30.55
309.519	87.89
309.733	75.6
309.947	-37.03
310.161	-4.27
310.374	14.17
310.588	40.79
310.802	-8.36
311.016	12.12
311.23	87.89
311.444	171.86
311.658	-6.31
311.872	77.65
312.085	55.12
312.299	59.22
312.513	24.4
312.727	-6.31
312.941	18.26
313.154	132.95
313.368	77.65
313.582	79.7
313.796	128.85
314.009	14.17
314.223	18.26
314.437	46.93
314.651	28.5
314.864	55.12
315.078	30.55
315.292	51.03
315.505	55.12
315.719	77.65
315.933	34.64
316.146	48.98
316.36	28.5
316.573	73.56
316.787	40.79
317.001	16.21
317.214	96.08
317.428	30.55
317.641	120.66
317.855	77.65
318.068	61.27
318.282	-14.51
318.495	-18.6
318.709	-32.94
318.922	65.36
319.136	14.17
319.349	104.28
319.563	40.79
319.776	36.69
319.99	51.03
320.203	75.6
320.417	81.75
320.63	48.98
320.843	51.03
321.057	40.79
321.27	10.07
321.483	26.45
321.697	14.17
321.91	-2.22
322.124	67.41
322.337	34.64
322.55	24.4
322.763	53.08
322.977	12.12
323.19	77.65
323.403	12.12
323.617	30.55
323.83	-12.46
324.043	65.36
324.256	-34.99
324.469	-12.46
324.683	104.28
324.896	-45.23
325.109	57.17
325.322	-30.89
325.535	18.26
325.748	44.88
325.962	40.79
326.175	59.22
326.388	-10.41
326.601	38.74
326.814	40.79
327.027	34.64
327.24	89.94
327.453	24.4
327.666	46.93
327.879	61.27
328.092	53.08
328.305	-2.22
328.518	26.45
328.731	34.64
328.944	36.69
329.157	18.26
329.37	-14.51
329.583	108.37
329.796	89.94
330.009	63.32
330.222	28.5
330.435	73.56
330.648	-10.41
330.861	5.97
331.073	61.27
331.286	59.22
331.499	5.97
331.712	-8.36
331.925	69.46
332.138	69.46
332.35	85.84
332.563	24.4
332.776	-2.22
332.989	24.4
333.202	85.84
333.414	5.97
333.627	28.5
333.84	53.08
334.053	24.4
334.265	51.03
334.478	135
334.691	18.26
334.903	48.98
335.116	28.5
335.329	-26.79
335.541	85.84
335.754	63.32
335.966	3.93
336.179	77.65
336.392	63.32
336.604	46.93
336.817	1.88
337.029	51.03
337.242	36.69
337.454	59.22
337.667	18.26
337.88	28.5
338.092	5.97
338.305	122.71
338.517	30.55
338.729	-24.75
338.942	46.93
339.154	55.12
339.367	-28.84
339.579	67.41
339.792	36.69
340.004	34.64
340.217	1.88
340.429	108.37
340.641	10.07
340.854	-28.84
341.066	14.17
341.278	94.04
341.491	83.8
341.703	135
341.915	22.36
342.128	12.12
342.34	71.51
342.552	53.08
342.764	26.45
342.977	87.89
343.189	-63.66
343.401	71.51
343.613	-37.03
343.826	20.31
344.038	-16.55
344.25	36.69
344.462	22.36
344.674	65.36
344.886	-8.36
345.099	5.97
345.311	130.9
345.523	-0.17
345.735	16.21
345.947	16.21
346.159	10.07
346.371	67.41
346.583	-18.6
346.795	94.04
347.007	3.93
347.219	81.75
347.431	65.36
347.643	104.28
347.855	5.97
348.067	85.84
348.279	40.79
348.491	38.74
348.703	38.74
348.915	46.93
349.127	20.31
349.339	22.36
349.551	-6.31
349.763	28.5
349.975	32.6
350.187	163.67
350.399	34.64
350.61	67.41
350.822	61.27
351.034	75.6
351.246	67.41
351.458	22.36
351.669	20.31
351.881	30.55
352.093	122.71
352.305	59.22
352.517	94.04
352.728	34.64
352.94	42.84
353.152	24.4
353.363	36.69
353.575	83.8
353.787	16.21
353.999	30.55
354.21	51.03
354.422	73.56
354.633	-12.46
354.845	77.65
355.057	32.6
355.268	1.88
355.48	81.75
355.692	104.28
355.903	38.74
356.115	28.5
356.326	63.32
356.538	53.08
356.749	69.46
356.961	-10.41
357.172	-18.6
357.384	18.26
357.595	94.04
357.807	104.28
358.018	26.45
358.23	81.75
358.441	40.79
358.653	12.12
358.864	67.41
359.075	26.45
359.287	57.17
359.498	44.88
359.709	-34.99
359.921	57.17
360.132	-2.22
360.344	3.93
360.555	42.84
360.766	34.64
360.977	46.93
361.189	55.12
361.4	42.84
361.611	83.8
361.823	20.31
362.034	57.17
362.245	-32.94
362.456	83.8
362.667	10.07
362.879	81.75
363.09	79.7
363.301	102.23
363.512	3.93
363.723	1.88
363.935	3.93
364.146	57.17
364.357	48.98
364.568	57.17
364.779	8.02
364.99	122.71
365.201	89.94
365.412	57.17
365.623	-14.51
365.834	83.8
366.045	34.64
366.256	69.46
366.467	163.67
366.678	38.74
366.889	44.88
367.1	38.74
367.311	5.97
367.522	116.56
367.733	69.46
367.944	38.74
368.155	-6.31
368.366	100.18
368.577	48.98
368.788	38.74
368.999	22.36
369.209	-12.46
369.42	130.9
369.631	141.14
369.842	20.31
370.053	1.88
370.264	149.33
370.474	42.84
370.685	65.36
370.896	73.56
371.107	-6.31
371.317	3.93
371.528	30.55
371.739	67.41
371.95	55.12
372.16	69.46
372.371	53.08
372.582	65.36
372.792	71.51
373.003	26.45
373.214	-2.22
373.424	51.03
373.635	48.98
373.846	85.84
374.056	128.85
374.267	67.41
374.477	96.08
374.688	73.56
374.898	61.27
375.109	14.17
375.319	77.65
375.53	28.5
375.74	34.64
375.951	-12.46
376.161	81.75
376.372	61.27
376.582	-2.22
376.793	44.88
377.003	-2.22
377.214	57.17
377.424	44.88
377.635	69.46
377.845	20.31
378.055	126.8
378.266	77.65
378.476	48.98
378.686	139.09
378.897	116.56
379.107	83.8
379.317	42.84
379.528	12.12
379.738	40.79
379.948	30.55
380.158	38.74
380.369	34.64
380.579	108.37
380.789	24.4
380.999	85.84
381.21	98.13
381.42	85.84
381.63	51.03
381.84	34.64
382.05	10.07
382.261	85.84
382.471	157.52
382.681	87.89
382.891	89.94
383.101	102.23
383.311	53.08
383.521	59.22
383.731	30.55
383.941	100.18
384.151	59.22
384.361	48.98
384.571	14.17
384.781	12.12
384.991	126.8
385.201	59.22
385.411	36.69
385.621	124.76
385.831	98.13
386.041	91.99
386.251	77.65
386.461	73.56
386.671	24.4
386.881	59.22
387.091	67.41
387.301	98.13
387.511	20.31
387.72	20.31
387.93	20.31
388.14	77.65
388.35	63.32
388.56	44.88
388.769	46.93
388.979	132.95
389.189	48.98
389.399	69.46
389.609	79.7
389.818	104.28
390.028	110.42
390.238	81.75
390.447	12.12
390.657	153.43
390.867	77.65
391.076	139.09
391.286	-6.31
391.496	112.47
391.705	22.36
391.915	141.14
392.125	98.13
392.334	71.51
392.544	87.89
392.753	112.47
392.963	-18.6
393.172	96.08
393.382	89.94
393.591	114.52
393.801	10.07
394.01	145.24
394.22	132.95
394.429	75.6
394.639	104.28
394.848	83.8
395.058	75.6
395.267	102.23
395.477	63.32
395.686	91.99
395.895	96.08
396.105	83.8
396.314	108.37
396.524	110.42
396.733	135
396.942	46.93
397.152	139.09
397.361	12.12
397.57	87.89
397.78	85.84
397.989	132.95
398.198	163.67
398.407	102.23
398.617	106.32
398.826	110.42
399.035	81.75
399.244	122.71
399.453	71.51
399.663	46.93
399.872	139.09
400.081	130.9
400.29	114.52
400.499	112.47
400.708	114.52
400.917	85.84
401.127	165.71
401.336	91.99
401.545	116.56
401.754	112.47
401.963	149.33
402.172	118.61
402.381	44.88
402.59	102.23
402.799	163.67
403.008	106.32
403.217	130.9
403.426	216.91
403.635	221.01
403.844	112.47
404.053	116.56
404.262	165.71
404.471	233.3
404.68	116.56
404.888	69.46
405.097	85.84
405.306	182.1
405.515	132.95
405.724	98.13
405.933	173.91
406.142	212.82
406.35	147.28
406.559	184.15
406.768	241.49
406.977	216.91
407.185	241.49
407.394	212.82
407.603	155.47
407.812	178
408.02	225.11
408.229	239.44
408.438	214.87
408.646	188.24
408.855	237.39
409.064	249.68
409.272	227.15
409.481	290.64
409.69	251.73
409.898	276.31
410.107	233.3
410.315	364.37
410.524	294.74
410.733	253.78
410.941	288.59
411.15	319.31
411.358	356.18
411.567	362.32
411.775	362.32
411.984	309.07
412.192	425.81
412.401	403.28
412.609	462.67
412.818	444.24
413.026	460.62
413.234	542.54
413.443	491.34
413.651	493.39
413.86	520.01
414.068	544.59
414.276	579.4
414.485	573.26
414.693	585.55
414.901	698.19
415.11	673.61
415.318	743.24
415.526	681.8
415.734	767.82
415.943	702.28
416.151	786.25
416.359	692.04
416.567	773.96
416.776	835.4
416.984	925.51
417.192	964.42
417.4	984.9
417.608	855.88
417.817	982.85
418.025	1070.92
418.233	1087.3
418.441	1064.77
418.649	1142.6
418.857	1281.86
419.065	1220.42
419.273	1275.71
419.481	1214.27
419.689	1333.06
419.897	1431.36
420.105	1433.41
420.313	1441.6
420.521	1513.28
420.729	1513.28
420.937	1587.01
421.145	1615.68
421.353	1742.65
421.561	1785.66
421.769	1843
421.977	2146.1
422.185	1947.45
422.393	2074.42
422.601	2172.72
422.809	2187.06
423.017	2131.76
423.224	2307.89
423.432	2441.01
423.64	2357.04
423.848	2594.61
424.056	2590.51
424.263	2750.25
424.471	2737.96
424.679	2754.35
424.887	2834.22
425.094	3028.78
425.302	3116.84
425.51	3102.5
425.718	3194.66
425.925	3274.53
426.133	3344.16
426.341	3532.58
426.548	3757.85
426.756	3677.98
426.964	3688.22
427.171	4028.18
427.379	4030.23
427.586	4085.53
427.794	4398.87
428.001	4552.46
428.209	4640.53
428.417	4509.46
428.624	5023.5
428.832	4816.65
429.039	4796.17
429.247	4939.53
429.454	5293.83
429.662	5648.13
429.869	5240.58
430.076	5658.37
430.284	5527.3
430.491	5803.77
430.699	6065.91
430.906	6184.69
431.114	6283
431.321	6610.67
431.528	6678.26
431.736	7053.03
431.943	7442.15
432.15	7055.08
432.358	7229.16
432.565	7583.46
432.772	7628.51
432.979	7896.8
433.187	8058.59
433.394	8181.46
433.601	8664.79
433.808	8638.16
434.016	8730.32
434.223	9076.43
434.43	9600.71
434.637	9418.44
434.844	9961.15
435.052	10157.75
435.259	10180.28
435.466	10137.27
435.673	10118.84
435.88	10847.92
436.087	11411.11
436.294	11273.9
436.501	11034.28
436.708	11351.72
436.915	11577
437.122	12295.83
437.329	12172.96
437.537	12439.19
437.743	12914.32
437.95	12914.32
438.157	13471.37
438.364	13889.15
438.571	13643.4
438.778	13893.25
438.985	15105.65
439.192	14421.63
439.399	15050.35
439.606	14421.63
439.813	15394.41
440.02	16481.88
440.227	16264.8
440.433	16074.34
440.64	16447.07
440.847	16514.65
441.054	16690.77
441.261	18085.44
441.467	17464.91
441.674	18189.89
441.881	18806.33
442.088	19164.72
442.294	18765.37
442.501	19056.18
442.708	19580.46
442.914	20196.9
443.121	21007.89
443.328	20848.15
443.534	22058.5
443.741	21589.52
443.948	20874.77
444.154	22707.71
444.361	22590.97
444.568	22621.69
444.774	22439.42
444.981	22826.49
445.187	23780.84
445.394	24665.56
445.6	24325.6
445.807	26383.81
446.013	25425.36
446.22	26201.54
446.426	26955.19
446.633	27092.41
446.839	28331.43
447.046	26891.71
447.252	28472.74
447.459	28464.55
447.665	28274.09
447.871	29552.02
448.078	31010.17
448.284	29603.22
448.491	30295.43
448.697	31212.92
448.903	32011.63
449.11	32281.96
449.316	31413.62
449.522	31921.52
449.728	32843.1
449.935	33115.48
450.141	33252.7
450.347	34059.6
450.553	32832.86
450.76	33045.85
450.966	34272.59
451.172	33848.66
451.378	34618.69
451.584	33881.42
451.791	34667.84
451.997	34862.4
452.203	35286.33
452.409	35527.99
452.615	34958.66
452.821	33678.68
453.027	32941.41
453.233	35179.84
453.44	33693.01
453.646	34172.24
453.852	34114.89
454.058	34884.93
454.264	33443.16
454.47	34667.84
454.676	33678.68
454.882	34227.53
455.088	31556.98
455.294	31757.68
455.5	32243.05
455.705	32779.62
455.911	31546.74
456.117	30815.62
456.323	30287.24
456.529	28650.91
456.735	30006.67
456.941	29042.07
457.147	28769.69
457.352	28376.48
457.558	27389.36
457.764	27573.68
457.97	27049.4
458.176	26715.58
458.381	26455.49
458.587	25015.77
458.793	25093.59
458.999	23703.02
459.204	25585.1
459.41	24774.11
459.616	23379.44
459.821	22918.65
460.027	23199.22
460.233	22568.44
460.438	21329.42
460.644	21638.67
460.85	20551.2
461.055	20127.27
461.261	20069.92
461.466	18654.78
461.672	18374.2
461.878	19658.28
462.083	18363.97
462.289	17929.8
462.494	17739.33
462.7	16922.2
462.905	16375.39
463.111	16762.45
463.316	17253.97
463.522	16490.07
463.727	16737.88
463.932	16672.34
464.138	16625.24
464.343	16604.76
464.549	16088.67
464.754	16703.06
464.959	16629.34
465.165	16383.58
465.37	15761
465.575	15433.32
465.781	16060
465.986	15715.94
466.191	15246.96
466.397	15050.35
466.602	14341.75
466.807	14976.62
467.012	14702.2
467.218	14896.75
467.423	14657.14
467.628	14667.38
467.833	15390.31
468.038	14579.32
468.244	14382.71
468.449	15160.94
468.654	14415.48
468.859	14208.64
469.064	13889.15
469.269	13772.42
469.474	13768.32
469.679	14093.95
469.885	13682.31
470.09	13721.22
470.295	13770.37
470.5	13364.87
470.705	13285
470.91	13102.73
471.115	12938.9
471.32	13315.72
471.525	13072.01
471.73	12777.11
471.935	12981.9
472.139	12379.8
472.344	12660.37
472.549	12213.91
472.754	12336.79
472.959	12054.17
473.164	11818.66
473.369	11601.57
473.574	11990.69
473.778	11751.07
473.983	11671.2
474.188	11599.52
474.393	11196.07
474.598	11351.72
474.802	11073.2
475.007	10892.98
475.212	11144.88
475.417	10733.23
475.621	10630.84
475.826	10739.38
476.031	10460.85
476.235	10282.68
476.44	10497.72
476.645	10184.38
476.849	10387.13
477.054	9952.96
477.259	10133.18
477.463	10102.46
477.668	9656
477.872	9799.36
478.077	9649.86
478.282	9486.02
478.486	9295.56
478.691	9377.48
478.895	9273.03
479.1	9387.72
479.304	9301.7
479.509	9101
479.713	9187.02
479.918	8869.58
480.122	8826.57
480.326	8824.53
480.531	8928.97
480.735	8804.05
480.94	8607.44
481.144	8965.84
481.348	8410.84
481.553	8566.48
481.757	8543.95
481.961	8918.73
482.166	8771.28
482.37	8533.72
482.574	8531.67
482.778	8746.7
482.983	8838.86
483.187	8589.01
483.391	8441.56
483.595	8611.54
483.8	8437.46
484.004	8560.34
484.208	8724.18
484.412	8500.95
484.616	8582.87
484.821	8552.15
485.025	8445.65
485.229	8589.01
485.433	8599.25
485.637	8490.71
485.841	8521.43
486.045	8435.41
486.249	8562.39
486.453	8279.77
486.657	8658.64
486.861	8701.65
487.065	8431.32
487.269	8533.72
487.473	8310.49
487.677	8525.52
487.881	8496.85
488.085	8552.15
488.289	8357.59
488.493	8287.96
488.697	8472.28
488.901	8529.62
489.105	8636.11
489.309	8623.83
489.512	8525.52
489.716	8586.96
489.92	8767.18
490.124	8599.25
490.328	8734.42
490.531	8732.37
490.735	8619.73
490.939	8797.9
491.143	8611.54
491.346	8763.09
491.55	8763.09
491.754	8822.48
491.958	8988.36
492.161	8881.87
492.365	8834.77
492.569	8894.16
492.772	8912.59
492.976	9025.23
493.18	9029.32
493.383	9338.57
493.587	9019.08
493.79	9299.66
493.994	9105.1
494.197	9191.11
494.401	9170.63
494.605	9291.46
494.808	9619.14
495.012	9385.67
495.215	9748.16
495.419	9703.11
495.622	9649.86
495.825	9840.32
496.029	9766.59
496.232	9944.77
496.436	10059.45
496.639	10315.45
496.843	10124.99
497.046	10340.02
497.249	10477.24
497.453	10477.24
497.656	10686.13
497.859	10487.48
498.063	10671.79
498.266	11054.76
498.469	10866.35
498.673	11431.59
498.876	11431.59
499.079	11544.23
499.282	11353.77
499.485	11636.39
499.689	11357.86
499.892	11728.55
500.095	11832.99
500.298	12132
500.501	11992.73
500.705	12256.92
500.908	12525.21
501.111	12633.75
501.314	12533.4
501.517	12762.77
501.72	12949.14
501.923	13024.91
502.126	13223.56
502.329	13397.64
502.532	13532.81
502.735	13713.03
502.938	13911.68
503.141	13774.47
503.344	14163.58
503.547	13936.26
503.75	14349.95
503.953	14581.37
504.156	14483.06
504.359	14933.62
504.562	14927.47
504.765	15103.6
504.968	15316.59
505.17	15470.19
505.373	15457.9
505.576	15816.29
505.779	16205.41
505.982	15808.1
506.185	16375.39
506.387	16412.25
506.59	16674.39
506.793	16875.09
506.996	16639.58
507.198	17331.79
507.401	17135.18
507.604	17116.75
507.807	17657.42
508.009	17348.17
508.212	17679.94
508.415	18009.67
508.617	18239.04
508.82	18427.45
509.022	18441.79
509.225	18763.32
509.428	18818.61
509.63	18777.65
509.833	19082.8
510.035	19725.86
510.238	19547.69
510.44	19514.92
510.643	20078.11
510.845	20018.72
511.048	19906.09
511.25	20260.38
511.453	20547.1
511.655	21198.35
511.858	21011.99
512.06	21057.04
512.262	21186.07
512.465	21413.39
512.667	21558.8
512.87	21870.09
513.072	21976.58
513.274	22375.94
513.477	22308.35
513.679	22654.46
513.881	22672.89
514.084	22943.22
514.286	23293.43
514.488	23490.03
514.69	23848.43
514.893	23967.21
515.095	24079.85
515.297	24194.53
515.499	24239.59
515.701	24694.24
515.904	24788.44
516.106	24937.94
516.308	25175.51
516.51	25318.87
516.712	25587.15
516.914	25853.39
517.116	26146.25
517.318	26142.15
517.52	26301.89
517.722	26525.12
517.925	26680.77
518.127	26793.4
518.329	27395.51
518.531	26899.9
518.733	27772.33
518.935	27958.7
519.136	27839.92
519.338	28126.63
519.54	28179.88
519.742	28575.14
519.944	28616.1
520.146	29318.55
520.348	29074.84
520.55	29334.93
520.752	29396.37
520.954	29859.21
521.155	29406.61
521.357	30182.79
521.559	30021
521.761	30682.5
521.963	30428.55
522.164	30686.59
522.366	30795.14
522.568	30862.72
522.77	30950.78
522.971	31681.91
523.173	31321.46
523.375	31962.48
523.576	31733.11
523.778	31769.97
523.98	32527.72
524.181	32073.07
524.383	32728.42
524.584	33299.8
524.786	32816.48
524.988	32509.29
525.189	33080.67
525.391	33142.11
525.592	33439.06
525.794	33406.3
525.995	33117.53
526.197	33516.89
526.398	33817.94
526.6	34055.5
526.801	34004.3
527.003	33881.42
527.204	33826.13
527.406	34178.38
527.607	34407.75
527.808	34770.24
528.01	34256.2
528.211	34573.64
528.412	35278.14
528.614	34569.54
528.815	34972.99
529.016	35142.97
529.218	34897.22
529.419	35077.44
529.62	35306.81
529.822	34782.53
530.023	35120.45
530.224	35220.8
530.425	35011.9
530.626	34989.38
530.828	34776.39
531.029	35691.83
531.23	35579.19
531.431	35003.71
531.632	35628.34
531.833	35390.78
532.035	35192.12
532.236	35880.24
532.437	35540.28
532.638	35661.11
532.839	35767.6
533.04	36068.65
533.241	35409.21
533.442	36341.03
533.643	35849.52
533.844	35722.55
534.045	36058.42
534.246	35755.32
534.447	35874.1
534.648	35409.21
534.849	35691.83
535.05	35310.91
535.251	35376.44
535.451	35927.35
535.652	35609.91
535.853	35431.74
536.054	35865.91
536.255	35736.88
536.456	35325.24
536.657	36052.27
536.857	35962.16
537.058	35427.64
537.259	35896.63
537.46	35753.27
537.66	35573.05
537.861	35618.1
538.062	35511.61
538.263	35794.23
538.463	35628.34
538.664	35169.6
538.865	35470.65
539.065	35308.86
539.266	35554.61
539.466	35798.32
539.667	34592.07
539.868	35935.54
540.068	35634.49
540.269	35687.73
540.469	35638.58
540.67	35288.38
540.87	35126.59
541.071	35272
541.271	35708.21
541.472	35265.85
541.672	35454.26
541.873	35286.33
542.073	35208.51
542.274	35743.03
542.474	35220.8
542.675	34850.11
542.875	35364.15
543.075	35521.85
543.276	34999.62
543.476	35351.87
543.676	35018.05
543.877	35519.8
544.077	35290.43
544.277	35216.7
544.478	35132.73
544.678	34975.04
544.878	35284.28
545.078	35401.02
545.279	34970.94
545.479	34889.02
545.679	35384.63
545.879	35097.92
546.079	35069.25
546.28	35177.79
546.48	35075.39
546.68	35372.35
546.88	35235.13
547.08	34907.46
547.28	34868.55
547.48	34729.28
547.68	34688.32
547.88	34811.2
548.081	35161.4
548.281	34827.59
548.481	34895.17
548.681	34956.61
548.881	35104.06
549.081	34944.32
549.28	34864.45
549.48	34776.39
549.68	34391.37
549.88	35145.02
550.08	34700.61
550.28	34970.94
550.48	34753.86
550.68	35130.69
550.88	34514.25
551.08	34710.85
551.279	34426.18
551.479	34639.17
551.679	34788.67
551.879	34209.1
552.079	34897.22
552.278	34524.49
552.478	34516.29
552.678	34727.24
552.878	34274.63
553.077	34481.48
553.277	34147.66
553.477	35071.29
553.676	34512.2
553.876	34616.65
554.076	34164.04
554.275	34434.38
554.475	34102.6
554.674	34393.42
554.874	34395.46
555.074	33942.86
555.273	34164.04
555.473	34788.67
555.672	33848.66
555.872	34039.12
556.071	34340.17
556.271	34174.28
556.47	34135.37
556.67	34118.99
556.869	33709.39
557.068	34268.49
557.268	33611.09
557.467	34075.98
557.667	34178.38
557.866	33908.05
558.065	33860.94
558.265	33445.21
558.464	33547.61
558.663	33783.12
558.863	33326.42
559.062	34192.72
559.261	33721.68
559.461	33586.52
559.66	33008.99
559.859	33283.42
560.058	33123.68
560.258	33371.48
560.457	33262.94
560.656	33084.76
560.855	33029.47
561.054	33213.79
561.253	32959.84
561.453	33566.04
561.652	33316.18
561.851	33074.52
562.05	33264.99
562.249	32982.37
562.448	33015.13
562.647	33236.31
562.846	32707.94
563.045	32939.36
563.244	32812.38
563.443	33039.71
563.642	32335.21
563.841	32873.82
564.04	32525.67
564.239	32941.41
564.438	32595.3
564.637	32546.15
564.836	32468.33
565.035	32241
565.234	32613.73
565.432	32116.08
565.631	32159.08
565.83	32165.23
566.029	32077.16
566.228	31935.85
566.427	31884.65
566.625	31769.97
566.824	31649.14
567.023	31970.67
567.222	31393.14
567.42	31921.52
567.619	31591.8
567.818	31661.43
568.016	31372.66
568.215	31907.18
568.414	31534.45
568.612	31575.41
568.811	31477.11
569.01	31356.28
569.208	31042.94
569.407	30948.73
569.605	30766.46
569.804	31282.55
570.002	30750.08
570.201	31225.21
570.4	30420.36
570.598	30498.18
570.797	30121.35
570.995	30963.07
571.193	30754.18
571.392	30739.84
571.59	30469.51
571.789	30367.11
571.987	30369.16
572.186	30254.47
572.384	30342.53
572.582	30301.57
572.781	30453.12
572.979	29814.16
573.177	30037.39
573.376	29916.56
573.574	29900.17
573.772	29728.14
573.971	29746.58
574.169	29853.07
574.367	29412.76
574.565	29846.93
574.763	29715.86
574.962	29455.76
575.16	29349.27
575.358	29443.48
575.556	28927.39
575.754	29388.18
575.952	28525.99
576.151	29103.51
576.349	29017.5
576.547	28954.01
576.745	28790.17
576.943	28872.09
577.141	28444.07
577.339	28585.38
577.537	28276.13
577.735	28540.32
577.933	28403.11
578.131	28478.88
578.329	28284.33
578.527	27985.32
578.725	28360.1
578.923	28302.76
579.121	28165.54
579.319	27921.84
579.516	28329.38
579.714	28202.41
579.912	27794.86
580.11	27631.02
580.308	27868.59
580.506	27764.14
580.704	27108.79
580.901	27465.14
581.099	27338.16
581.297	26955.19
581.495	27350.45
581.692	27073.98
581.89	27293.11
582.088	27022.78
582.285	26965.43
582.483	27446.71
582.681	27010.49
582.878	26678.72
583.076	26445.25
583.274	26848.7
583.471	26371.52
583.669	26447.3
583.866	26498.5
584.064	26617.28
584.262	26437.06
584.459	26611.14
584.657	26099.14
584.854	26598.85
585.052	25968.07
585.249	26277.32
585.447	26191.3
585.644	25765.32
585.841	25794
586.039	26258.88
586.236	25535.95
586.434	25501.14
586.631	25560.53
586.828	25585.1
587.026	25470.42
587.223	25556.43
587.42	25005.53
587.618	25408.98
587.815	25247.19
588.012	24708.57
588.21	24915.42
588.407	25331.15
588.604	24983
588.801	24946.14
588.999	24612.32
589.196	24585.69
589.393	24681.95
589.59	24438.24
589.787	24614.37
589.984	24505.82
590.182	24319.46
590.379	24417.76
590.576	24135.14
590.773	24116.71
590.97	24102.37
591.167	24444.38
591.364	23909.86
591.561	23916.01
591.758	23746.03
591.955	23760.36
592.152	23922.15
592.349	23547.37
592.546	23707.12
592.743	23578.09
592.94	23371.25
593.137	23643.63
593.334	23397.87
593.531	23176.69
593.727	23444.98
593.924	23361.01
594.121	23186.93
594.318	22945.27
594.515	22840.82
594.712	23039.48
594.908	22625.79
595.105	23062.01
595.302	22406.66
595.499	22593.02
595.696	22412.8
595.892	22431.23
596.089	22578.68
596.286	22679.04
596.482	22314.5
596.679	22205.95
596.876	22146.56
597.072	21968.39
597.269	21997.06
597.466	21988.87
597.662	21847.56
597.859	22040.07
598.055	21636.62
598.252	21419.53
598.448	21579.28
598.645	21599.76
598.841	21429.77
599.038	21562.89
599.234	21440.01
599.431	21308.94
599.627	21259.79
599.824	21478.93
600.02	20973.08
600.217	20956.69
600.413	21108.24
600.609	20985.37
600.806	20952.6
601.002	21016.08
601.198	20629.02
601.395	20577.82
601.591	20768.28
601.787	20641.31
601.984	20250.14
602.18	20891.16
602.376	20291.1
602.572	20309.54
602.769	20200.99
602.965	20125.22
603.161	20248.1
603.357	19953.19
603.553	19961.38
603.75	20291.1
603.946	19803.69
604.142	19787.3
604.338	19488.3
604.534	19867.17
604.73	19645.99
604.926	19654.19
605.122	19615.27
605.318	19471.92
605.514	19437.1
605.71	19181.1
605.906	19289.65
606.102	19097.14
606.298	19144.24
606.494	19201.58
606.69	19471.92
606.886	19144.24
607.082	18531.9
607.278	18777.65
607.474	18882.1
607.67	18880.05
607.866	18681.4
608.062	18968.12
608.257	18783.8
608.453	18785.85
608.649	18685.5
608.845	18527.8
609.041	18632.25
609.236	18607.67
609.432	18789.94
609.628	18361.92
609.824	18378.3
610.019	18398.78
610.215	18343.49
610.411	18632.25
610.606	18302.53
610.802	18222.66
610.998	18126.4
611.193	18314.81
611.389	18124.35
611.584	18093.63
611.78	17727.05
611.976	18026.05
612.171	18224.7
612.367	17940.04
612.562	18048.58
612.758	17694.28
612.953	17655.37
613.149	17751.62
613.344	17690.18
613.539	17839.69
613.735	17604.17
613.93	17684.04
614.126	17618.5
614.321	17718.85
614.517	17731.14
614.712	17667.66
614.907	17524.3
615.103	17632.84
615.298	17499.72
615.493	17518.15
615.688	17129.04
615.884	17393.23
616.079	17276.49
616.274	17448.52
616.47	17028.69
616.665	17262.16
616.86	17081.94
617.055	17272.4
617.25	16987.73
617.445	17188.43
617.641	17081.94
617.836	17176.14
618.031	16690.77
618.226	17151.57
618.421	16737.88
618.616	17073.74
618.811	16367.2
619.006	16688.73
619.201	16385.63
619.396	16803.41
619.591	16369.24
619.786	16678.49
619.981	16012.9
620.176	16483.93
620.371	16201.31
620.566	16019.04
620.761	16027.23
620.956	16090.72
621.151	15869.54
621.346	16080.48
621.541	15668.84
621.735	15869.54
621.93	15660.65
622.125	15799.91
622.32	15308.4
622.515	15482.47
622.709	15355.5
622.904	15259.24
623.099	15056.5
623.294	15226.48
623.488	15054.45
623.683	15044.21
623.878	14888.56
624.072	14919.28
624.267	14773.88
624.462	14773.88
624.656	14472.82
624.851	14505.59
625.046	14546.55
625.24	14249.6
625.435	14276.22
625.629	14294.65
625.824	13948.54
626.018	14071.42
626.213	13696.64
626.407	14065.28
626.602	13637.25
626.796	13975.17
626.991	13696.64
627.185	13622.92
627.38	13524.61
627.574	13463.18
627.768	13395.59
627.963	13315.72
628.157	13411.98
628.352	13264.52
628.546	12924.56
628.74	13133.45
628.935	12754.58
629.129	13029.01
629.323	12709.52
629.517	12869.26
629.712	12709.52
629.906	12641.94
630.1	12529.3
630.294	12435.1
630.489	12523.16
630.683	12347.03
630.877	12148.38
631.071	12240.54
631.265	12119.71
631.459	11943.58
631.653	11951.77
631.848	12080.8
632.042	11964.06
632.236	11863.71
632.43	11718.31
632.624	11720.35
632.818	11384.49
633.012	11429.54
633.206	11527.85
633.4	11533.99
633.594	11275.95
633.788	11466.41
633.982	11321
634.176	11175.59
634.369	11003.57
634.563	10995.37
634.757	11087.53
634.951	11069.1
635.145	10897.07
635.339	10782.38
635.533	10860.21
635.726	10960.56
635.92	10491.57
636.114	10696.37
636.308	10690.23
636.501	10792.62
636.695	10524.34
636.889	10526.39
637.083	10397.37
637.276	10413.75
637.47	10315.45
637.664	10104.51
637.857	9995.96
638.051	10036.92
638.244	10145.47
638.438	10051.26
638.632	9873.09
638.825	10090.17
639.019	10002.11
639.212	9916.09
639.406	9772.74
639.599	9615.04
639.793	9785.02
639.986	9621.19
640.18	9508.55
640.373	9451.21
640.567	9377.48
640.76	9404.1
640.954	9291.46
641.147	9182.92
641.34	9160.39
641.534	9242.31
641.727	9203.4
641.92	8986.32
642.114	9074.38
642.307	9088.71
642.5	8896.21
642.694	8924.88
642.887	8871.63
643.08	8656.59
643.273	8529.62
643.467	8836.81
643.66	8771.28
643.853	8634.07
644.046	8410.84
644.239	8738.51
644.432	8470.23
644.626	8390.36
644.819	8482.52
645.012	8337.11
645.205	8206.04
645.398	8242.9
645.591	8089.31
645.784	8160.98
645.977	8140.51
646.17	8199.9
646.363	7845.6
646.556	7909.08
646.749	8019.67
646.942	8042.2
647.135	7890.65
647.328	7880.41
647.521	7698.14
647.714	7630.56
647.907	7726.82
648.099	7667.42
648.292	7640.8
648.485	7661.28
648.678	7522.02
648.871	7388.9
649.064	7485.16
649.256	7315.17
649.449	7411.43
649.642	7415.52
649.835	7341.8
650.027	7286.5
650.22	7186.15
650.413	7089.9
650.605	7128.81
650.798	7169.77
650.991	7018.22
651.183	7071.47
651.376	6829.81
651.568	6889.2
651.761	6983.4
651.954	6921.96
652.146	6858.48
652.339	6766.32
652.531	6823.66
652.724	6616.82
652.916	6594.29
653.109	6653.68
653.301	6600.43
653.494	6661.87
653.686	6717.17
653.879	6633.2
654.071	6541.04
654.263	6553.33
654.456	6342.39
654.648	6477.55
654.84	6416.12
655.033	6346.48
655.225	6371.06
655.417	6129.4
655.61	6352.63
655.802	6121.21
655.994	6162.17
656.186	6330.1
656.379	6074.1
656.571	6223.61
656.763	5916.41
656.955	6006.52
657.148	6027
657.34	5983.99
657.532	5656.32
657.724	5834.49
657.916	5918.46
658.108	6045.43
658.3	5775.1
658.492	5750.53
658.684	5730.05
658.876	5609.22
659.068	5717.76
659.26	5654.27
659.452	5582.59
659.644	5705.47
659.836	5580.54
660.028	5428.99
660.22	5488.39
660.412	5560.06
660.604	5416.71
660.796	5367.56
660.988	5408.51
661.18	5269.25
661.372	5326.6
661.563	5314.31
661.755	5261.06
661.947	5238.53
662.139	5220.1
662.331	5259.01
662.522	5222.15
662.714	5179.14
662.906	5263.11
663.097	5091.08
663.289	5037.83
663.481	5019.4
663.673	4996.87
663.864	4943.63
664.056	4767.5
664.247	4896.52
664.439	5170.95
664.631	4988.68
664.822	4906.76
665.014	4736.78
665.205	4865.8
665.397	4689.68
665.588	4683.53
665.78	4826.89
665.971	4763.4
666.163	4720.4
666.354	4622.09
666.546	4757.26
666.737	4634.38
666.929	4568.85
667.12	4550.42
667.311	4511.5
667.503	4407.06
667.694	4499.22
667.885	4441.87
668.077	4626.19
668.268	4482.83
668.459	4491.02
668.651	4243.22
668.842	4441.87
669.033	4396.82
669.224	4267.8
669.416	4353.81
669.607	4232.98
669.798	4419.35
669.989	4298.52
670.18	4220.69
670.371	4327.19
670.563	4261.65
670.754	4275.99
670.945	4116.25
671.136	4280.08
671.327	4067.1
671.518	4087.57
671.709	4112.15
671.9	4017.94
672.091	4173.59
672.282	4048.66
672.473	4112.15
672.664	4009.75
672.855	4122.39
673.046	3999.51
673.237	4024.09
673.428	4036.38
673.619	3976.98
673.809	3954.46
674	3931.93
674.191	3802.91
674.382	3899.16
674.573	3874.59
674.764	3850.01
674.954	3909.4
675.145	3874.59
675.336	3940.12
675.527	3929.88
675.717	3933.98
675.908	3825.43
676.099	3813.15
676.289	3835.67
676.48	3800.86
676.671	3682.08
676.861	3714.84
677.052	3813.15
677.243	3696.41
677.433	3725.08
677.624	3628.83
677.814	3655.45
678.005	3677.98
678.195	3669.79
678.386	3645.21
678.576	3604.25
678.767	3628.83
678.957	3589.92
679.148	3606.3
679.338	3690.27
679.529	3594.01
679.719	3651.36
679.909	3643.17
680.1	3587.87
680.29	3604.25
680.481	3548.96
680.671	3569.44
680.861	3505.95
681.052	3573.53
681.242	3546.91
681.432	3630.88
681.622	3405.6
681.813	3471.14
682.003	3516.19
682.193	3495.71
682.383	3452.7
682.573	3434.27
682.764	3538.72
682.954	3462.94
683.144	3426.08
683.334	3436.32
683.524	3528.48
683.714	3372.83
683.904	3497.76
684.094	3432.22
684.284	3340.07
684.474	3372.83
684.664	3407.65
684.854	3295.01
685.044	3297.06
685.234	3247.91
685.424	3288.87
685.614	3249.96
685.804	3252
685.994	3282.72
686.184	3198.76
686.374	3276.58
686.564	3219.24
686.753	3370.79
686.943	3086.12
687.133	3057.45
687.323	3141.41
687.513	3090.21
687.702	3163.94
687.892	3055.4
688.082	3088.17
688.272	3147.56
688.461	3110.69
688.651	3047.21
688.841	3073.83
689.03	3067.69
689.22	3096.36
689.41	2938.66
689.599	3102.5
689.789	3047.21
689.979	2930.47
690.168	2938.66
690.358	2938.66
690.547	2981.67
690.737	2891.56
690.926	2920.23
691.116	2932.52
691.305	2897.71
691.495	2860.84
691.684	2848.55
691.874	2993.96
692.063	2877.23
692.252	2778.92
692.442	2770.73
692.631	2727.72
692.82	2787.11
693.01	2844.46
693.199	2627.37
693.388	2813.74
693.578	2926.38
693.767	2690.86
693.956	2750.25
694.146	2674.48
694.335	2764.59
694.524	2637.61
694.713	2701.1
694.902	2647.85
695.092	2633.52
695.281	2617.13
695.47	2574.13
695.659	2565.93
695.848	2694.96
696.037	2613.04
696.226	2563.89
696.415	2615.09
696.604	2699.05
696.793	2600.75
696.982	2504.5
697.171	2684.72
697.36	2676.52
697.549	2619.18
697.738	2606.89
697.927	2574.13
698.116	2608.94
698.305	2584.37
698.494	2649.9
698.683	2447.15
698.872	2633.52
699.061	2635.57
699.25	2506.54
699.438	2563.89
699.627	2498.35
699.816	2471.73
700.005	2551.6
700.193	2570.03
700.382	2567.98
700.571	2567.98
700.76	2635.57
700.948	2596.65
701.137	2537.26
701.326	2637.61
701.514	2471.73
701.703	2504.5
701.892	2531.12
702.08	2541.36
702.269	2580.27
702.457	2570.03
702.646	2529.07
702.834	2443.06
703.023	2594.61
703.212	2613.04
703.4	2494.26
703.589	2537.26
703.777	2539.31
703.965	2500.4
704.154	2553.65
704.342	2559.79
704.531	2578.22
704.719	2555.69
704.907	2500.4
705.096	2547.5
705.284	2547.5
705.472	2541.36
705.661	2510.64
705.849	2506.54
706.037	2553.65
706.226	2574.13
706.414	2379.57
706.602	2545.45
706.79	2625.33
706.979	2475.82
707.167	2580.27
707.355	2527.02
707.543	2619.18
707.731	2678.57
707.919	2545.45
708.107	2588.46
708.296	2606.89
708.484	2512.69
708.672	2563.89
708.86	2588.46
709.048	2619.18
709.236	2627.37
709.424	2494.26
709.612	2443.06
709.8	2481.97
709.988	2520.88
710.176	2492.21
710.364	2524.97
710.551	2508.59
710.739	2496.3
710.927	2574.13
711.115	2621.23
711.303	2580.27
711.491	2426.67
711.679	2563.89
711.866	2520.88
712.054	2649.9
712.242	2459.44
712.43	2469.68
712.617	2498.35
712.805	2514.73
712.993	2541.36
713.181	2547.5
713.368	2496.3
713.556	2557.74
713.744	2533.17
713.931	2604.85
714.119	2533.17
714.306	2567.98
714.494	2654
714.682	2494.26
714.869	2547.5
715.057	2488.11
715.244	2572.08
715.432	2555.69
715.619	2625.33
715.807	2576.17
715.994	2553.65
716.182	2594.61
716.369	2539.31
716.556	2572.08
716.744	2389.81
716.931	2506.54
717.119	2555.69
717.306	2567.98
717.493	2531.12
717.681	2572.08
717.868	2471.73
718.055	2535.21
718.242	2555.69
718.43	2672.43
718.617	2543.41
718.804	2613.04
718.991	2582.32
719.179	2625.33
719.366	2588.46
719.553	2604.85
719.74	2518.83
719.927	2496.3
720.114	2590.51
720.301	2502.45
720.488	2426.67
720.676	2504.5
720.863	2537.26
721.05	2535.21
721.237	2649.9
721.424	2686.76
721.611	2608.94
721.798	2455.34
721.985	2533.17
722.172	2500.4
722.358	2475.82
722.545	2561.84
722.732	2438.96
722.919	2473.78
723.106	2451.25
723.293	2541.36
723.48	2441.01
723.667	2490.16
723.853	2498.35
724.04	2350.9
724.227	2471.73
724.414	2459.44
724.6	2477.87
724.787	2438.96
724.974	2514.73
725.161	2420.53
725.347	2428.72
725.534	2629.42
725.72	2514.73
725.907	2434.86
726.094	2518.83
726.28	2467.63
726.467	2481.97
726.653	2492.21
726.84	2441.01
727.027	2551.6
727.213	2510.64
727.4	2383.66
727.586	2500.4
727.773	2408.24
727.959	2414.38
728.145	2531.12
728.332	2441.01
728.518	2469.68
728.705	2443.06
728.891	2510.64
729.077	2512.69
729.264	2385.71
729.45	2492.21
729.636	2420.53
729.823	2359.09
730.009	2316.08
730.195	2473.78
730.382	2508.59
730.568	2412.34
730.754	2537.26
730.94	2379.57
731.126	2416.43
731.313	2391.86
731.499	2365.23
731.685	2504.5
731.871	2551.6
732.057	2475.82
732.243	2361.14
732.429	2361.14
732.615	2430.77
732.801	2357.04
732.987	2346.8
733.173	2316.08
733.359	2346.8
733.545	2320.18
733.731	2402.1
733.917	2342.71
734.103	2350.9
734.289	2330.42
734.475	2412.34
734.661	2271.03
734.847	2441.01
735.033	2342.71
735.219	2264.88
735.404	2277.17
735.59	2391.86
735.776	2268.98
735.962	2238.26
736.148	2295.6
736.333	2373.43
736.519	2322.23
736.705	2223.92
736.89	2242.36
737.076	2318.13
737.262	2311.99
737.447	2297.65
737.633	2332.47
737.819	2330.42
738.004	2268.98
738.19	2182.96
738.375	2320.18
738.561	2303.79
738.747	2336.56
738.932	2215.73
739.118	2139.96
739.303	2289.46
739.489	2328.37
739.674	2199.35
739.859	2211.64
740.045	2185.01
740.23	2101.05
740.416	2180.92
740.601	2103.09
740.786	2166.58
740.972	2154.29
741.157	2277.17
741.342	2170.68
741.528	2135.86
741.713	2146.1
741.898	2135.86
742.084	2101.05
742.269	2109.24
742.454	2076.47
742.639	2152.24
742.824	2037.56
743.01	2053.94
743.195	2107.19
743.38	2096.95
743.565	2111.29
743.75	2148.15
743.935	2060.09
744.12	2045.75
744.305	1865.53
744.49	2086.71
744.675	1957.69
744.86	2055.99
745.045	2058.04
745.23	1988.41
745.415	1857.34
745.6	1972.02
745.785	1922.87
745.97	1996.6
746.155	1965.88
746.34	1926.97
746.525	1847.1
746.71	1890.1
746.895	1877.82
747.079	1783.61
747.264	1802.04
747.449	1912.63
747.634	1920.82
747.819	1947.45
748.003	1873.72
748.188	1816.38
748.373	1875.77
748.557	1834.81
748.742	1689.4
748.927	1634.11
749.111	1709.88
749.296	1701.69
749.481	1736.51
749.665	1722.17
749.85	1580.86
750.034	1720.12
750.219	1726.27
750.404	1709.88
750.588	1632.06
750.773	1742.65
750.957	1748.79
751.141	1589.05
751.326	1668.92
751.51	1605.44
751.695	1605.44
751.879	1570.62
752.064	1666.88
752.248	1541.95
752.432	1546.05
752.617	1648.44
752.801	1578.81
752.985	1439.55
753.17	1439.55
753.354	1464.13
753.538	1541.95
753.722	1558.33
753.907	1439.55
754.091	1384.26
754.275	1441.6
754.459	1361.73
754.643	1455.94
754.828	1365.82
755.012	1378.11
755.196	1443.65
755.38	1312.58
755.564	1304.39
755.748	1335.1
755.932	1331.01
756.116	1421.12
756.3	1298.24
756.484	1236.8
756.668	1345.34
756.852	1318.72
757.036	1310.53
757.22	1339.2
757.404	1277.76
757.588	1267.52
757.772	1244.99
757.956	1277.76
758.14	1288
758.323	1199.94
758.507	1140.55
758.691	1220.42
758.875	1148.74
759.059	1222.47
759.242	1197.89
759.426	1210.18
759.61	1204.03
759.794	1081.16
759.977	1216.32
760.161	1220.42
760.345	1095.49
760.528	1118.02
760.712	1079.11
760.895	1210.18
761.079	1161.03
761.263	1154.88
761.446	1103.68
761.63	1091.4
761.813	1097.54
761.997	1140.55
762.18	1177.41
762.364	1023.81
762.547	989
762.731	1077.06
762.914	1052.49
763.098	1048.39
763.281	1054.53
763.464	1130.31
763.648	1007.43
763.831	1058.63
764.015	1032.01
764.198	1050.44
764.381	964.42
764.564	1027.91
764.748	925.51
764.931	943.94
765.114	927.56
765.297	1042.25
765.481	1007.43
765.664	964.42
765.847	927.56
766.03	993.09
766.213	968.52
766.397	894.79
766.58	1017.67
766.763	948.04
766.946	937.8
767.129	978.76
767.312	964.42
767.495	984.9
767.678	921.42
767.861	878.41
768.044	1007.43
768.227	843.59
768.41	941.89
768.593	948.04
768.776	999.24
768.959	884.55
769.142	868.17
769.324	841.54
769.507	796.49
769.69	767.82
769.873	802.63
770.056	1023.81
770.239	841.54
770.421	833.35
770.604	753.48
770.787	921.42
770.97	933.7
771.152	847.69
771.335	857.93
771.518	786.25
771.7	849.74
771.883	819.02
772.066	870.22
772.248	753.48
772.431	882.5
772.613	800.59
772.796	782.15
772.978	808.78
773.161	796.49
773.343	792.39
773.526	792.39
773.708	733
773.891	720.71
774.073	733
774.256	726.86
774.438	761.67
774.621	702.28
774.803	827.21
774.985	698.19
775.168	759.63
775.35	661.32
775.532	716.62
775.715	757.58
775.897	726.86
776.079	687.95
776.261	689.99
776.444	687.95
776.626	667.47
776.808	642.89
776.99	618.32
777.173	702.28
777.355	661.32
777.537	747.34
777.719	718.67
777.901	694.09
778.083	659.28
778.265	612.17
778.447	687.95
778.629	485.2
778.811	663.37
778.993	616.27
779.175	653.13
779.357	667.47
779.539	569.16
779.721	603.98
779.903	624.46
780.085	646.99
780.267	575.31
780.449	534.35
780.631	620.36
780.812	669.52
780.994	517.97
781.176	591.69
781.358	571.21
781.54	599.88
781.721	581.45
781.903	550.73
782.085	548.68
782.267	499.53
782.448	536.4
782.63	567.12
782.812	450.38
782.993	554.83
783.175	524.11
783.357	530.25
783.538	550.73
783.72	501.58
783.901	411.47
784.083	495.44
784.264	485.2
784.446	474.96
784.627	421.71
784.809	438.09
784.99	511.82
785.172	438.09
785.353	382.8
785.535	378.7
785.716	417.61
785.897	436.05
786.079	450.38
786.26	442.19
786.441	487.25
786.623	497.49
786.804	419.66
786.985	509.77
787.167	434
787.348	485.2
787.529	446.29
787.71	517.97
787.891	372.56
788.073	407.38
788.254	407.38
788.435	409.42
788.616	362.32
788.797	319.31
788.978	300.88
789.159	358.22
789.34	423.76
789.522	452.43
789.703	343.89
789.884	325.46
790.065	434
790.246	362.32
790.427	380.75
790.607	407.38
790.788	378.7
790.969	421.71
791.15	380.75
791.331	380.75
791.512	358.22
791.693	313.17
791.874	292.69
792.054	436.05
792.235	288.59
792.416	374.61
792.597	401.23
792.778	294.74
792.958	341.84
793.139	364.37
793.32	251.73
793.5	296.78
793.681	362.32
793.862	300.88
794.042	302.93
794.223	231.25
794.404	337.74
794.584	315.22
794.765	321.36
794.945	257.87
795.126	327.5
795.306	264.02
795.487	286.54
795.667	302.93
795.848	304.98
796.028	278.35
796.209	286.54
796.389	315.22
796.57	343.89
796.75	208.72
796.93	288.59
797.111	223.06
797.291	319.31
797.471	300.88
797.652	229.2
797.832	307.02
798.012	270.16
798.192	208.72
798.373	259.92
798.553	276.31
798.733	264.02
798.913	243.54
799.093	323.41
799.274	243.54
799.454	288.59
799.634	249.68
799.814	259.92
799.994	255.83
800.174	304.98
800.354	249.68
800.534	212.82
800.714	284.5
800.894	192.34
801.074	231.25
801.254	212.82
801.434	280.4
801.614	321.36
801.794	237.39
801.974	558.92
802.154	233.3
802.334	175.95
802.514	178
802.693	196.43
802.873	175.95
803.053	225.11
803.233	284.5
803.413	216.91
803.592	167.76
803.772	71.51
803.952	204.63
804.131	225.11
804.311	173.91
804.491	202.58
804.67	108.37
804.85	264.02
805.03	196.43
805.209	241.49
805.389	200.53
805.568	223.06
805.748	173.91
805.928	180.05
806.107	218.96
806.287	182.1
806.466	139.09
806.646	241.49
806.825	208.72
807.004	245.59
807.184	204.63
807.363	225.11
807.543	186.19
807.722	204.63
807.901	296.78
808.081	206.67
808.26	145.24
808.439	124.76
808.619	212.82
808.798	163.67
808.977	83.8
809.156	153.43
809.336	108.37
809.515	223.06
809.694	157.52
809.873	202.58
810.052	210.77
810.231	173.91
810.411	173.91
810.59	241.49
810.769	184.15
810.948	284.5
811.127	169.81
811.306	161.62
811.485	137.04
811.664	173.91
811.843	202.58
812.022	165.71
812.201	163.67
812.38	188.24
812.559	169.81
812.737	186.19
812.916	169.81
813.095	163.67
813.274	161.62
813.453	178
813.632	202.58
813.811	202.58
813.989	104.28
814.168	200.53
814.347	196.43
814.526	167.76
814.704	151.38
814.883	221.01
815.062	96.08
815.24	63.32
815.419	137.04
815.598	194.39
815.776	91.99
815.955	137.04
816.133	87.89
816.312	169.81
816.49	98.13
816.669	67.41
816.847	108.37
817.026	180.05
817.204	132.95
817.383	120.66
817.561	167.76
817.74	188.24
817.918	178
818.097	206.67
818.275	104.28
818.453	128.85
818.632	83.8
818.81	128.85
818.988	182.1
819.167	151.38
819.345	132.95
819.523	180.05
819.701	135
819.879	157.52
820.058	147.28
820.236	126.8
820.414	106.32
820.592	135
820.77	44.88
820.948	110.42
821.127	71.51
821.305	116.56
821.483	128.85
821.661	171.86
821.839	98.13
822.017	81.75
822.195	110.42
822.373	104.28
822.551	137.04
822.729	175.95
822.907	69.46
823.085	124.76
823.262	108.37
823.44	124.76
823.618	178
823.796	44.88
823.974	79.7
824.152	110.42
824.329	28.5
824.507	239.44
824.685	3.93
824.863	53.08
825.04	155.47
825.218	128.85
825.396	116.56
825.574	61.27
825.751	100.18
825.929	106.32
826.107	89.94
826.284	147.28
826.462	157.52
826.639	69.46
826.817	65.36
826.994	79.7
827.172	83.8
827.349	73.56
827.527	98.13
827.704	87.89
827.882	108.37
828.059	110.42
828.237	112.47
828.414	139.09
828.591	32.6
828.769	102.23
828.946	141.14
829.124	48.98
829.301	100.18
829.478	38.74
829.655	102.23
829.833	65.36
830.01	69.46
830.187	132.95
830.364	110.42
830.542	94.04
830.719	108.37
830.896	141.14
831.073	42.84
831.25	98.13
831.427	106.32
831.604	94.04
831.782	85.84
831.959	69.46
832.136	157.52
832.313	44.88
832.49	137.04
832.667	100.18
832.844	32.6
833.021	83.8
833.198	63.32
833.374	53.08
833.551	126.8
833.728	108.37
833.905	87.89
834.082	65.36
834.259	104.28
834.436	65.36
834.612	10.07
834.789	51.03
834.966	32.6
835.143	59.22
835.319	-8.36
835.496	44.88
835.673	26.45
835.85	16.21
836.026	65.36
836.203	116.56
836.38	73.56
836.556	28.5
836.733	46.93
836.909	89.94
837.086	5.97
837.262	36.69
837.439	46.93
837.616	42.84
837.792	36.69
837.968	106.32
838.145	22.36
838.321	48.98
838.498	63.32
838.674	20.31
838.851	139.09
839.027	16.21
839.203	42.84
839.38	83.8
839.556	26.45
839.732	116.56
839.909	108.37
840.085	28.5
840.261	5.97
840.437	55.12
840.614	24.4
840.79	110.42
840.966	24.4
841.142	59.22
841.318	26.45
841.494	110.42
841.671	20.31
841.847	55.12
842.023	-14.51
842.199	1.88
842.375	110.42
842.551	48.98
842.727	51.03
842.903	81.75
843.079	10.07
843.255	71.51
843.431	67.41
843.607	5.97
843.783	-12.46
843.959	75.6
844.134	-6.31
844.31	48.98
844.486	46.93
844.662	81.75
844.838	38.74
845.013	14.17
845.189	87.89
845.365	14.17
845.541	42.84
845.716	61.27
845.892	48.98
846.068	91.99
846.244	85.84
846.419	26.45
846.595	71.51
846.77	67.41
846.946	124.76
847.122	59.22
847.297	63.32
847.473	34.64
847.648	18.26
847.824	22.36
847.999	-30.89
848.175	51.03
848.35	94.04
848.526	36.69
848.701	79.7
848.876	108.37
849.052	34.64
849.227	34.64
849.403	5.97
849.578	-2.22
849.753	108.37
849.929	73.56
850.104	14.17
850.279	83.8
850.454	61.27
850.63	55.12
850.805	38.74
850.98	132.95
851.155	46.93
851.33	16.21
851.505	44.88
851.681	100.18
851.856	143.19
852.031	32.6
852.206	63.32
852.381	65.36
852.556	69.46
852.731	48.98
852.906	57.17
853.081	108.37
853.256	55.12
853.431	10.07
853.606	65.36
853.781	-16.55
853.956	57.17
854.131	26.45
854.305	36.69
854.48	42.84
854.655	120.66
854.83	8.02
855.005	36.69
855.18	34.64
855.354	38.74
855.529	132.95
855.704	126.8
855.879	126.8
856.053	22.36
856.228	83.8
856.403	22.36
856.577	32.6
856.752	24.4
856.926	79.7
857.101	3.93
857.276	44.88
857.45	34.64
857.625	67.41
857.799	118.61
857.974	141.14
858.148	-22.7
858.323	-12.46
858.497	-16.55
858.672	91.99
858.846	-8.36
859.02	20.31
859.195	-57.51
859.369	-39.08
859.543	65.36
859.718	-14.51
859.892	10.07
860.066	40.79
860.241	20.31
860.415	32.6
860.589	-2.22
860.763	46.93
860.938	16.21
861.112	42.84
861.286	-28.84
861.46	40.79
861.634	-18.6
861.808	91.99
861.982	69.46
862.157	32.6
862.331	30.55
862.505	-6.31
862.679	16.21
862.853	-20.65
863.027	22.36
863.201	22.36
863.375	1.88
863.549	63.32
863.722	-6.31
863.896	65.36
864.07	18.26
864.244	12.12
864.418	81.75
864.592	28.5
864.766	53.08
864.939	110.42
865.113	55.12
865.287	81.75
865.461	-41.13
865.634	10.07
865.808	-26.79
865.982	-24.75
866.156	-34.99
866.329	-8.36
866.503	26.45
866.676	-32.94
866.85	-24.75
867.024	32.6
867.197	104.28
867.371	87.89
867.544	22.36
867.718	-22.7
867.891	22.36
868.065	-26.79
868.238	69.46
868.412	48.98
868.585	75.6
868.759	26.45
868.932	3.93
869.105	-32.94
869.279	67.41
869.452	20.31
869.625	-4.27
869.799	30.55
869.972	-32.94
870.145	-6.31
870.319	1.88
870.492	67.41
870.665	55.12
870.838	48.98
871.011	34.64
871.185	10.07
871.358	40.79
871.531	22.36
871.704	24.4
871.877	12.12
872.05	22.36
872.223	26.45
872.396	83.8
872.569	30.55
872.742	-28.84
872.915	16.21
873.088	-86.19
873.261	57.17
873.434	38.74
873.607	44.88
873.78	57.17
873.953	-61.61
874.126	75.6
874.299	65.36
874.471	3.93
874.644	-88.23
874.817	28.5
874.99	-10.41
875.163	36.69
875.335	14.17
875.508	94.04
875.681	81.75
875.853	-34.99
876.026	-34.99
876.199	40.79
876.371	-0.17
876.544	16.21
876.717	44.88
876.889	67.41
877.062	-10.41
877.234	36.69
877.407	79.7
877.579	-55.47
877.752	61.27
877.924	51.03
878.097	10.07
878.269	57.17
878.442	-6.31
878.614	26.45
878.786	46.93
878.959	57.17
879.131	1.88
879.303	42.84
879.476	22.36
879.648	67.41
879.82	34.64
879.993	48.98
880.165	48.98
880.337	-14.51
880.509	59.22
880.681	14.17
880.854	-4.27
881.026	-8.36
881.198	22.36
881.37	38.74
881.542	42.84
881.714	18.26
881.886	36.69
882.058	-12.46
882.23	59.22
882.402	36.69
882.574	28.5
882.746	-26.79
882.918	91.99
883.09	-6.31
883.262	-49.32
883.434	-22.7
883.606	10.07
883.778	-0.17
883.95	77.65
884.122	-34.99
884.293	38.74
884.465	38.74
884.637	14.17
884.809	-26.79
884.98	53.08
885.152	63.32
885.324	73.56
885.496	14.17
885.667	-6.31
885.839	36.69
886.011	32.6
886.182	-8.36
886.354	20.31
886.525	-16.55
886.697	1.88
886.869	16.21
887.04	-8.36
887.212	26.45
887.383	75.6
887.555	51.03
887.726	-4.27
887.897	8.02
888.069	-10.41
888.24	-51.37
888.412	26.45
888.583	12.12
888.754	12.12
888.926	-14.51
889.097	69.46
889.268	44.88
889.44	1.88
889.611	-100.52
889.782	-4.27
889.953	-12.46
890.125	61.27
890.296	-28.84
890.467	20.31
890.638	-32.94
890.809	110.42
890.98	-59.56
891.151	24.4
891.323	48.98
891.494	-16.55
891.665	44.88
891.836	55.12
892.007	44.88
892.178	44.88
892.349	-51.37
892.52	-32.94
892.691	-106.67
892.862	63.32
893.032	8.02
893.203	22.36
893.374	57.17
893.545	38.74
893.716	20.31
893.887	53.08
894.057	-39.08
894.228	-32.94
894.399	-51.37
894.57	30.55
894.74	24.4
894.911	34.64
895.082	85.84
895.253	28.5
895.423	51.03
895.594	1.88
895.764	30.55
895.935	-22.7
896.106	12.12
896.276	30.55
896.447	-6.31
896.617	1.88
896.788	-47.27
896.958	-47.27
897.129	-41.13
897.299	-30.89
897.47	24.4
897.64	34.64
897.81	-0.17
897.981	10.07
898.151	1.88
898.322	67.41
898.492	16.21
898.662	20.31
898.832	71.51
899.003	34.64
899.173	79.7
899.343	-43.18
899.513	14.17
