Data from USB4F104151__54__12-01-41-610.txt Node

Date: Fri Mar 14 12:01:41 EDT 2025
User: louis
Spectrometer: USB4F10415
Trigger mode: 4
Integration Time (sec): 2.000000E-2
Scans to average: 1
Electric dark correction enabled: true
Nonlinearity correction enabled: false
Boxcar width: 0
XAxis mode: Wavelengths
Number of Pixels in Spectrum: 3648
>>>>>Begin Spectral Data<<<<<
178.204	-115.71
178.424	-115.71
178.644	-115.71
178.864	-107.52
179.084	-82.94
179.304	-1.02
179.524	-41.98
179.744	41.98
179.964	33.79
180.184	-33.79
180.404	7.17
180.624	3.07
180.844	25.6
181.064	-84.99
181.283	-1.02
181.503	89.09
181.723	-37.89
181.943	-54.27
182.163	84.99
182.383	35.84
182.602	15.36
182.822	52.22
183.042	35.84
183.262	37.89
183.482	39.94
183.701	-3.07
183.921	48.13
184.141	41.98
184.361	19.46
184.58	13.31
184.8	56.32
185.02	64.51
185.239	76.8
185.459	21.5
185.679	35.84
185.898	44.03
186.118	11.26
186.338	-3.07
186.557	35.84
186.777	23.55
186.997	7.17
187.216	1.02
187.436	72.7
187.655	80.89
187.875	17.41
188.095	33.79
188.314	-25.6
188.534	97.28
188.753	11.26
188.973	35.84
189.192	-13.31
189.412	27.65
189.631	33.79
189.851	50.18
190.07	111.61
190.29	11.26
190.509	-29.7
190.729	54.27
190.948	-35.84
191.168	39.94
191.387	76.8
191.607	44.03
191.826	17.41
192.045	-44.03
192.265	78.85
192.484	1.02
192.704	54.27
192.923	-27.65
193.142	117.76
193.362	37.89
193.581	99.33
193.8	25.6
194.02	105.47
194.239	-37.89
194.458	52.22
194.678	-3.07
194.897	3.07
195.116	-17.41
195.335	76.8
195.555	7.17
195.774	21.5
195.993	17.41
196.212	17.41
196.432	54.27
196.651	58.37
196.87	21.5
197.089	23.55
197.308	37.89
197.528	58.37
197.747	-13.31
197.966	48.13
198.185	11.26
198.404	33.79
198.623	-5.12
198.842	68.61
199.062	48.13
199.281	33.79
199.5	48.13
199.719	31.74
199.938	89.09
200.157	35.84
200.376	17.41
200.595	72.7
200.814	21.5
201.033	19.46
201.252	15.36
201.471	66.56
201.69	-9.22
201.909	31.74
202.128	-33.79
202.347	54.27
202.566	39.94
202.785	21.5
203.004	54.27
203.223	60.42
203.442	13.31
203.661	58.37
203.879	-23.55
204.098	60.42
204.317	3.07
204.536	39.94
204.755	13.31
204.974	39.94
205.193	-33.79
205.411	17.41
205.63	50.18
205.849	35.84
206.068	27.65
206.287	-33.79
206.505	17.41
206.724	84.99
206.943	5.12
207.162	41.98
207.381	-19.46
207.599	44.03
207.818	58.37
208.037	66.56
208.255	-9.22
208.474	-15.36
208.693	29.7
208.911	-5.12
209.13	-3.07
209.349	-19.46
209.567	80.89
209.786	39.94
210.005	-9.22
210.223	31.74
210.442	-35.84
210.661	7.17
210.879	27.65
211.098	54.27
211.316	31.74
211.535	-7.17
211.753	-1.02
211.972	54.27
212.191	-60.42
212.409	17.41
212.628	35.84
212.846	39.94
213.065	50.18
213.283	25.6
213.502	-23.55
213.72	99.33
213.938	93.18
214.157	-27.65
214.375	-19.46
214.594	66.56
214.812	44.03
215.031	50.18
215.249	-62.46
215.467	52.22
215.686	-27.65
215.904	-19.46
216.122	103.42
216.341	111.61
216.559	5.12
216.778	44.03
216.996	72.7
217.214	25.6
217.432	41.98
217.651	64.51
217.869	31.74
218.087	5.12
218.306	-25.6
218.524	-23.55
218.742	50.18
218.96	-1.02
219.179	-19.46
219.397	-17.41
219.615	46.08
219.833	33.79
220.051	64.51
220.27	70.65
220.488	-17.41
220.706	54.27
220.924	54.27
221.142	31.74
221.36	58.37
221.578	50.18
221.796	-9.22
222.015	64.51
222.233	64.51
222.451	-9.22
222.669	31.74
222.887	78.85
223.105	54.27
223.323	23.55
223.541	-15.36
223.759	-29.7
223.977	21.5
224.195	82.94
224.413	13.31
224.631	142.33
224.849	68.61
225.067	128
225.285	33.79
225.503	7.17
225.721	33.79
225.939	21.5
226.157	35.84
226.375	35.84
226.592	91.13
226.81	27.65
227.028	70.65
227.246	-1.02
227.464	84.99
227.682	56.32
227.9	62.46
228.117	50.18
228.335	-31.74
228.553	41.98
228.771	15.36
228.989	31.74
229.206	7.17
229.424	50.18
229.642	21.5
229.86	-25.6
230.077	-11.26
230.295	48.13
230.513	-3.07
230.731	3.07
230.948	13.31
231.166	84.99
231.384	3.07
231.601	-17.41
231.819	46.08
232.037	-7.17
232.254	-11.26
232.472	-7.17
232.689	13.31
232.907	82.94
233.125	33.79
233.342	87.04
233.56	33.79
233.777	27.65
233.995	-3.07
234.213	99.33
234.43	64.51
234.648	17.41
234.865	19.46
235.083	13.31
235.3	7.17
235.518	15.36
235.735	56.32
235.953	74.75
236.17	7.17
236.388	-54.27
236.605	-15.36
236.822	52.22
237.04	15.36
237.257	7.17
237.475	25.6
237.692	13.31
237.909	29.7
238.127	41.98
238.344	64.51
238.562	70.65
238.779	3.07
238.996	-11.26
239.214	54.27
239.431	11.26
239.648	39.94
239.865	103.42
240.083	48.13
240.3	41.98
240.517	35.84
240.735	-21.5
240.952	44.03
241.169	54.27
241.386	-21.5
241.603	50.18
241.821	-13.31
242.038	82.94
242.255	48.13
242.472	35.84
242.689	50.18
242.907	62.46
243.124	5.12
243.341	37.89
243.558	-29.7
243.775	7.17
243.992	-7.17
244.209	19.46
244.426	70.65
244.643	62.46
244.86	1.02
245.078	25.6
245.295	31.74
245.512	-15.36
245.729	25.6
245.946	5.12
246.163	80.89
246.38	46.08
246.597	54.27
246.814	25.6
247.031	23.55
247.248	31.74
247.464	66.56
247.681	101.37
247.898	-1.02
248.115	27.65
248.332	64.51
248.549	17.41
248.766	17.41
248.983	21.5
249.2	-9.22
249.417	-7.17
249.633	-91.13
249.85	3.07
250.067	15.36
250.284	39.94
250.501	-17.41
250.717	60.42
250.934	76.8
251.151	68.61
251.368	70.65
251.585	52.22
251.801	58.37
252.018	41.98
252.235	-1.02
252.451	11.26
252.668	64.51
252.885	97.28
253.102	70.65
253.318	9.22
253.535	-23.55
253.752	23.55
253.968	1.02
254.185	37.89
254.401	7.17
254.618	48.13
254.835	25.6
255.051	66.56
255.268	54.27
255.484	58.37
255.701	17.41
255.917	60.42
256.134	17.41
256.351	-13.31
256.567	41.98
256.784	27.65
257	-3.07
257.217	-33.79
257.433	91.13
257.65	-11.26
257.866	35.84
258.082	-33.79
258.299	56.32
258.515	7.17
258.732	103.42
258.948	-17.41
259.165	62.46
259.381	-23.55
259.597	35.84
259.814	-21.5
260.03	-7.17
260.246	60.42
260.463	17.41
260.679	78.85
260.895	15.36
261.112	41.98
261.328	-56.32
261.544	-31.74
261.761	50.18
261.977	41.98
262.193	41.98
262.409	7.17
262.626	46.08
262.842	35.84
263.058	41.98
263.274	3.07
263.49	11.26
263.707	95.23
263.923	54.27
264.139	37.89
264.355	72.7
264.571	3.07
264.787	50.18
265.004	-3.07
265.22	105.47
265.436	70.65
265.652	1.02
265.868	-7.17
266.084	56.32
266.3	46.08
266.516	-39.94
266.732	78.85
266.948	31.74
267.164	37.89
267.38	9.22
267.596	56.32
267.812	130.05
268.028	13.31
268.244	48.13
268.46	11.26
268.676	15.36
268.892	41.98
269.108	11.26
269.324	58.37
269.54	44.03
269.756	95.23
269.972	5.12
270.188	41.98
270.403	-21.5
270.619	-3.07
270.835	80.89
271.051	78.85
271.267	29.7
271.483	93.18
271.698	56.32
271.914	68.61
272.13	-68.61
272.346	3.07
272.562	39.94
272.777	31.74
272.993	70.65
273.209	-11.26
273.425	21.5
273.64	15.36
273.856	3.07
274.072	7.17
274.287	33.79
274.503	39.94
274.719	-15.36
274.934	-3.07
275.15	35.84
275.366	-5.12
275.581	-60.42
275.797	31.74
276.012	5.12
276.228	-33.79
276.444	-7.17
276.659	46.08
276.875	-7.17
277.09	39.94
277.306	23.55
277.521	19.46
277.737	58.37
277.952	68.61
278.168	48.13
278.383	-1.02
278.599	11.26
278.814	-23.55
279.03	-9.22
279.245	29.7
279.461	64.51
279.676	46.08
279.892	-41.98
280.107	-37.89
280.322	48.13
280.538	50.18
280.753	17.41
280.969	101.37
281.184	-7.17
281.399	74.75
281.615	-3.07
281.83	37.89
282.045	31.74
282.26	68.61
282.476	13.31
282.691	78.85
282.906	56.32
283.122	50.18
283.337	31.74
283.552	-1.02
283.767	25.6
283.983	35.84
284.198	-44.03
284.413	-13.31
284.628	54.27
284.843	31.74
285.058	-25.6
285.274	17.41
285.489	13.31
285.704	70.65
285.919	74.75
286.134	5.12
286.349	-3.07
286.564	33.79
286.779	78.85
286.995	29.7
287.21	48.13
287.425	82.94
287.64	48.13
287.855	113.66
288.07	1.02
288.285	84.99
288.5	111.61
288.715	136.19
288.93	-9.22
289.145	68.61
289.36	-19.46
289.575	91.13
289.79	115.71
290.004	5.12
290.219	-3.07
290.434	62.46
290.649	37.89
290.864	9.22
291.079	15.36
291.294	11.26
291.509	-9.22
291.724	-13.31
291.938	-37.89
292.153	-9.22
292.368	46.08
292.583	46.08
292.798	5.12
293.012	78.85
293.227	15.36
293.442	54.27
293.657	31.74
293.871	123.9
294.086	66.56
294.301	78.85
294.516	60.42
294.73	60.42
294.945	44.03
295.16	-35.84
295.374	84.99
295.589	-7.17
295.804	27.65
296.018	52.22
296.233	68.61
296.447	13.31
296.662	7.17
296.877	46.08
297.091	17.41
297.306	3.07
297.52	-41.98
297.735	25.6
297.949	-9.22
298.164	80.89
298.378	41.98
298.593	-7.17
298.807	-37.89
299.022	56.32
299.236	89.09
299.451	35.84
299.665	58.37
299.88	23.55
300.094	3.07
300.309	74.75
300.523	48.13
300.737	19.46
300.952	31.74
301.166	35.84
301.381	21.5
301.595	29.7
301.809	11.26
302.024	97.28
302.238	9.22
302.452	93.18
302.667	44.03
302.881	80.89
303.095	54.27
303.309	111.61
303.524	11.26
303.738	-27.65
303.952	80.89
304.166	35.84
304.381	-74.75
304.595	97.28
304.809	39.94
305.023	-23.55
305.237	21.5
305.452	29.7
305.666	117.76
305.88	78.85
306.094	56.32
306.308	31.74
306.522	1.02
306.736	-1.02
306.95	1.02
307.164	84.99
307.379	23.55
307.593	44.03
307.807	64.51
308.021	52.22
308.235	62.46
308.449	21.5
308.663	33.79
308.877	152.57
309.091	-17.41
309.305	76.8
309.519	21.5
309.733	105.47
309.947	-37.89
310.161	52.22
310.374	31.74
310.588	37.89
310.802	7.17
311.016	19.46
311.23	7.17
311.444	74.75
311.658	41.98
311.872	44.03
312.085	70.65
312.299	68.61
312.513	15.36
312.727	-13.31
312.941	-60.42
313.154	46.08
313.368	50.18
313.582	15.36
313.796	21.5
314.009	19.46
314.223	66.56
314.437	68.61
314.651	9.22
314.864	29.7
315.078	31.74
315.292	27.65
315.505	66.56
315.719	-23.55
315.933	60.42
316.146	46.08
316.36	17.41
316.573	64.51
316.787	15.36
317.001	31.74
317.214	17.41
317.428	105.47
317.641	7.17
317.855	37.89
318.068	82.94
318.282	33.79
318.495	70.65
318.709	46.08
318.922	64.51
319.136	72.7
319.349	82.94
319.563	11.26
319.776	68.61
319.99	7.17
320.203	60.42
320.417	80.89
320.63	-1.02
320.843	76.8
321.057	9.22
321.27	1.02
321.483	39.94
321.697	37.89
321.91	70.65
322.124	35.84
322.337	70.65
322.55	89.09
322.763	48.13
322.977	46.08
323.19	46.08
323.403	74.75
323.617	128
323.83	44.03
324.043	103.42
324.256	123.9
324.469	60.42
324.683	74.75
324.896	13.31
325.109	35.84
325.322	-15.36
325.535	19.46
325.748	74.75
325.962	54.27
326.175	46.08
326.388	52.22
326.601	48.13
326.814	121.85
327.027	35.84
327.24	48.13
327.453	21.5
327.666	19.46
327.879	25.6
328.092	31.74
328.305	31.74
328.518	68.61
328.731	9.22
328.944	-3.07
329.157	39.94
329.37	33.79
329.583	21.5
329.796	66.56
330.009	35.84
330.222	68.61
330.435	58.37
330.648	74.75
330.861	27.65
331.073	56.32
331.286	82.94
331.499	27.65
331.712	46.08
331.925	107.52
332.138	33.79
332.35	11.26
332.563	50.18
332.776	68.61
332.989	15.36
333.202	144.38
333.414	11.26
333.627	29.7
333.84	89.09
334.053	25.6
334.265	11.26
334.478	41.98
334.691	95.23
334.903	41.98
335.116	23.55
335.329	23.55
335.541	72.7
335.754	121.85
335.966	64.51
336.179	35.84
336.392	27.65
336.604	68.61
336.817	89.09
337.029	33.79
337.242	41.98
337.454	50.18
337.667	11.26
337.88	70.65
338.092	48.13
338.305	134.14
338.517	-17.41
338.729	46.08
338.942	48.13
339.154	29.7
339.367	19.46
339.579	78.85
339.792	-3.07
340.004	60.42
340.217	-17.41
340.429	41.98
340.641	62.46
340.854	60.42
341.066	-1.02
341.278	46.08
341.491	21.5
341.703	134.14
341.915	-1.02
342.128	54.27
342.34	-17.41
342.552	41.98
342.764	-3.07
342.977	72.7
343.189	35.84
343.401	19.46
343.613	78.85
343.826	33.79
344.038	91.13
344.25	105.47
344.462	-21.5
344.674	31.74
344.886	48.13
345.099	52.22
345.311	56.32
345.523	89.09
345.735	-78.85
345.947	44.03
346.159	3.07
346.371	46.08
346.583	62.46
346.795	35.84
347.007	11.26
347.219	103.42
347.431	66.56
347.643	136.19
347.855	25.6
348.067	64.51
348.279	52.22
348.491	115.71
348.703	64.51
348.915	80.89
349.127	21.5
349.339	101.37
349.551	19.46
349.763	56.32
349.975	-15.36
350.187	39.94
350.399	121.85
350.61	121.85
350.822	56.32
351.034	80.89
351.246	130.05
351.458	134.14
351.669	-21.5
351.881	99.33
352.093	111.61
352.305	72.7
352.517	17.41
352.728	35.84
352.94	39.94
353.152	31.74
353.363	39.94
353.575	93.18
353.787	107.52
353.999	31.74
354.21	68.61
354.422	29.7
354.633	15.36
354.845	60.42
355.057	-3.07
355.268	15.36
355.48	52.22
355.692	-52.22
355.903	52.22
356.115	31.74
356.326	-21.5
356.538	68.61
356.749	72.7
356.961	52.22
357.172	58.37
357.384	-19.46
357.595	136.19
357.807	35.84
358.018	66.56
358.23	31.74
358.441	35.84
358.653	97.28
358.864	19.46
359.075	119.81
359.287	35.84
359.498	123.9
359.709	68.61
359.921	52.22
360.132	50.18
360.344	62.46
360.555	-3.07
360.766	91.13
360.977	-37.89
361.189	37.89
361.4	80.89
361.611	93.18
361.823	80.89
362.034	54.27
362.245	29.7
362.456	19.46
362.667	121.85
362.879	19.46
363.09	78.85
363.301	130.05
363.512	84.99
363.723	101.37
363.935	-17.41
364.146	54.27
364.357	-15.36
364.568	21.5
364.779	11.26
364.99	76.8
365.201	80.89
365.412	29.7
365.623	-11.26
365.834	54.27
366.045	70.65
366.256	-1.02
366.467	35.84
366.678	-13.31
366.889	50.18
367.1	84.99
367.311	7.17
367.522	52.22
367.733	78.85
367.944	87.04
368.155	99.33
368.366	123.9
368.577	41.98
368.788	70.65
368.999	23.55
369.209	74.75
369.42	60.42
369.631	89.09
369.842	46.08
370.053	82.94
370.264	37.89
370.474	-17.41
370.685	-3.07
370.896	62.46
371.107	21.5
371.317	68.61
371.528	62.46
371.739	105.47
371.95	27.65
372.16	74.75
372.371	89.09
372.582	5.12
372.792	60.42
373.003	109.57
373.214	-19.46
373.424	23.55
373.635	7.17
373.846	105.47
374.056	41.98
374.267	103.42
374.477	31.74
374.688	62.46
374.898	95.23
375.109	25.6
375.319	58.37
375.53	117.76
375.74	107.52
375.951	121.85
376.161	52.22
376.372	64.51
376.582	3.07
376.793	62.46
377.003	72.7
377.214	39.94
377.424	113.66
377.635	66.56
377.845	48.13
378.055	101.37
378.266	74.75
378.476	46.08
378.686	7.17
378.897	35.84
379.107	89.09
379.317	52.22
379.528	25.6
379.738	13.31
379.948	9.22
380.158	103.42
380.369	48.13
380.579	105.47
380.789	15.36
380.999	48.13
381.21	25.6
381.42	115.71
381.63	50.18
381.84	99.33
382.05	76.8
382.261	31.74
382.471	-5.12
382.681	23.55
382.891	121.85
383.101	132.09
383.311	48.13
383.521	44.03
383.731	37.89
383.941	130.05
384.151	56.32
384.361	117.76
384.571	76.8
384.781	123.9
384.991	91.13
385.201	99.33
385.411	64.51
385.621	11.26
385.831	60.42
386.041	54.27
386.251	87.04
386.461	72.7
386.671	25.6
386.881	130.05
387.091	25.6
387.301	154.62
387.511	89.09
387.72	31.74
387.93	-13.31
388.14	44.03
388.35	62.46
388.56	44.03
388.769	66.56
388.979	21.5
389.189	82.94
389.399	48.13
389.609	91.13
389.818	117.76
390.028	72.7
390.238	105.47
390.447	9.22
390.657	95.23
390.867	97.28
391.076	-50.18
391.286	146.43
391.496	89.09
391.705	39.94
391.915	70.65
392.125	121.85
392.334	95.23
392.544	105.47
392.753	74.75
392.963	80.89
393.172	68.61
393.382	48.13
393.591	58.37
393.801	41.98
394.01	152.57
394.22	74.75
394.429	95.23
394.639	171.01
394.848	146.43
395.058	123.9
395.267	78.85
395.477	115.71
395.686	130.05
395.895	156.67
396.105	132.09
396.314	89.09
396.524	166.91
396.733	183.29
396.942	150.53
397.152	25.6
397.361	82.94
397.57	140.29
397.78	109.57
397.989	134.14
398.198	209.92
398.407	87.04
398.617	160.77
398.826	95.23
399.035	99.33
399.244	132.09
399.453	156.67
399.663	183.29
399.872	187.39
400.081	99.33
400.29	164.86
400.499	173.05
400.708	113.66
400.917	50.18
401.127	121.85
401.336	160.77
401.545	234.49
401.754	148.48
401.963	154.62
402.172	113.66
402.381	89.09
402.59	173.05
402.799	130.05
403.008	187.39
403.217	179.2
403.426	89.09
403.635	236.54
403.844	164.86
404.053	164.86
404.262	117.76
404.471	185.34
404.68	185.34
404.888	193.53
405.097	142.33
405.306	236.54
405.515	185.34
405.724	211.96
405.933	259.07
406.142	166.91
406.35	240.64
406.559	236.54
406.768	191.49
406.977	232.44
407.185	265.21
407.394	269.31
407.603	300.03
407.812	271.36
408.02	220.16
408.229	263.16
408.438	318.46
408.646	265.21
408.855	373.75
409.064	254.97
409.272	238.59
409.481	381.95
409.69	334.84
409.898	316.41
410.107	361.47
410.315	373.75
410.524	320.51
410.733	406.52
410.941	314.36
411.15	494.58
411.358	558.07
411.567	527.35
411.775	533.5
411.984	504.82
412.192	551.93
412.401	517.11
412.609	599.03
412.818	635.89
413.026	599.03
413.234	580.6
413.443	658.42
413.651	674.81
413.86	678.9
414.068	832.5
414.276	758.77
414.485	732.15
414.693	775.16
414.901	918.51
415.11	805.88
415.318	859.12
415.526	971.76
415.734	953.33
415.943	951.28
416.151	1100.78
416.359	1020.91
416.567	1065.97
416.776	1049.58
416.984	1176.56
417.192	1211.37
417.4	1168.37
417.608	1254.38
417.817	1352.68
418.025	1270.76
418.233	1487.85
418.441	1461.23
418.649	1475.56
418.857	1596.39
419.065	1586.15
419.273	1612.78
419.481	1672.17
419.689	1678.31
419.897	1924.07
420.105	1932.26
420.313	1928.16
420.521	2038.75
420.729	2032.61
420.937	2085.86
421.145	2206.69
421.353	2313.18
421.561	2325.47
421.769	2382.81
421.977	2587.61
422.185	2579.42
422.393	2712.53
422.601	2890.71
422.809	2690.01
423.017	2903
423.224	2964.43
423.432	3101.65
423.64	3171.28
423.848	3371.98
424.056	3322.83
424.263	3724.23
424.471	3601.35
424.679	3650.5
424.887	3843.01
425.094	3865.54
425.302	4119.49
425.51	4121.54
425.718	4164.54
425.925	4314.05
426.133	4420.54
426.341	4633.53
426.548	4946.87
426.756	4975.54
426.964	4887.48
427.171	5276.59
427.379	5505.96
427.586	5393.33
427.794	5639.08
428.001	5952.42
428.209	6239.14
428.417	6171.55
428.624	6650.78
428.832	6706.07
429.039	6495.13
429.247	6581.15
429.454	7158.67
429.662	7596.94
429.869	7060.37
430.076	7461.77
430.284	7351.18
430.491	7594.89
430.699	8172.42
430.906	8242.05
431.114	8444.8
431.321	8663.93
431.528	8713.08
431.736	9354.1
431.943	9628.53
432.15	9272.18
432.358	9444.21
432.565	9999.21
432.772	10234.72
432.979	10400.61
433.187	10783.58
433.394	10785.63
433.601	11539.28
433.808	11496.27
434.016	11723.6
434.223	12120.9
434.43	12890.94
434.637	12636.99
434.844	13218.61
435.052	13308.72
435.259	13566.77
435.466	13464.37
435.673	13450.03
435.88	14521.12
436.087	15026.97
436.294	15098.65
436.501	14713.63
436.708	15205.14
436.915	15844.11
437.122	16474.88
437.329	15958.8
437.537	16978.68
437.743	17083.13
437.95	17119.99
438.157	17980.14
438.364	18473.7
438.571	18180.84
438.778	18608.87
438.985	20413.13
439.192	19686.1
439.399	20126.41
439.606	19608.28
439.813	20519.62
440.02	21928.63
440.227	21615.29
440.433	21117.63
440.64	22092.46
440.847	21871.28
441.054	22780.58
441.261	23743.13
441.467	23788.18
441.674	24265.36
441.881	25117.31
442.088	24920.71
442.294	24789.64
442.501	25156.22
442.708	25979.51
442.914	26892.9
443.121	28314.19
443.328	27310.69
443.534	29262.4
443.741	28174.93
443.948	28150.35
444.154	30253.62
444.361	29755.96
444.568	30177.84
444.774	30202.42
444.981	30669.36
445.187	31287.84
445.394	32913.93
445.6	32414.23
445.807	35181.03
446.013	33751.55
446.22	34626.03
446.426	36045.27
446.633	35981.79
446.839	37286.34
447.046	35695.07
447.252	37566.91
447.459	37810.62
447.665	37714.37
447.871	39225.77
448.078	40898.96
448.284	39428.52
448.491	40106.4
448.697	41531.78
448.903	42451.32
449.11	42023.29
449.316	42037.63
449.522	42443.13
449.728	43585.89
449.935	44069.22
450.141	43729.25
450.347	44677.46
450.553	43174.25
450.76	44001.63
450.966	45359.44
451.172	45095.25
451.378	45668.68
451.584	45070.67
451.791	46164.29
451.997	46078.27
452.203	46643.51
452.409	47008.05
452.615	46461.24
452.821	44687.7
453.027	44796.24
453.233	46285.12
453.44	44652.89
453.646	45341
453.852	45437.26
454.058	46184.77
454.264	44925.27
454.47	45490.51
454.676	44908.88
454.882	46070.08
455.088	42334.59
455.294	42588.53
455.5	42916.21
455.705	43823.46
455.911	41718.15
456.117	41146.76
456.323	40575.38
456.529	38748.59
456.735	40153.5
456.941	39154.09
457.147	38148.54
457.352	37454.28
457.558	37108.17
457.764	36948.43
457.97	36143.58
458.176	35398.12
458.381	35240.42
458.587	33862.14
458.793	33823.23
458.999	31679
459.204	33974.78
459.41	33278.47
459.616	30620.2
459.821	30927.4
460.027	30956.07
460.233	30376.5
460.438	29157.96
460.644	29282.88
460.85	27560.54
461.055	27345.5
461.261	27304.54
461.466	25389.69
461.672	24232.59
461.878	26360.43
462.083	24593.03
462.289	24212.11
462.494	23761.56
462.7	22723.24
462.905	22213.29
463.111	23132.83
463.316	23100.06
463.522	22600.36
463.727	22565.54
463.932	22502.06
464.138	22399.66
464.343	22229.68
464.549	21469.88
464.754	22657.7
464.959	22493.86
465.165	22065.84
465.37	21191.36
465.575	20660.93
465.781	21551.8
465.986	21557.94
466.191	20886.21
466.397	20382.41
466.602	19393.24
466.807	20030.16
467.012	20347.59
467.218	19894.99
467.423	19940.05
467.628	20001.49
467.833	20869.83
468.038	20087.5
468.244	19487.45
468.449	20019.92
468.654	19528.41
468.859	19421.91
469.064	19213.02
469.269	18414.31
469.474	18838.24
469.679	18936.54
469.885	18369.26
470.09	18625.25
470.295	18240.23
470.5	17990.38
470.705	18318.06
470.91	17736.43
471.115	17326.84
471.32	17857.26
471.525	17789.68
471.73	17521.4
471.935	17339.13
472.139	16728.83
472.344	16982.78
472.549	16730.88
472.754	16833.28
472.959	16237.32
473.164	15862.54
473.369	15700.75
473.574	16290.57
473.778	16175.88
473.983	16055.05
474.188	15782.67
474.393	15266.58
474.598	15192.86
474.802	14967.58
475.007	14945.05
475.212	14881.56
475.417	14326.57
475.621	14420.77
475.826	14338.85
476.031	14279.46
476.235	13785.9
476.44	14277.41
476.645	13628.21
476.849	13767.47
477.054	13669.17
477.259	13626.16
477.463	13243.19
477.668	13069.11
477.872	13540.15
478.077	12995.39
478.282	12665.66
478.486	12596.03
478.691	12743.49
478.895	12526.4
479.1	12593.98
479.304	12561.22
479.509	12069.7
479.713	12327.75
479.918	12090.18
480.122	11905.87
480.326	11998.02
480.531	12204.87
480.735	11895.63
480.94	11789.13
481.144	12163.91
481.348	11635.53
481.553	11580.24
481.757	11572.05
481.961	11504.46
482.166	11651.92
482.37	11742.03
482.574	11481.94
482.778	11332.44
482.983	11799.37
483.187	11662.16
483.391	11494.22
483.595	11645.77
483.8	11289.43
484.004	11367.25
484.208	11748.17
484.412	11469.65
484.616	11535.18
484.821	11440.98
485.025	11410.26
485.229	11578.19
485.433	11324.24
485.637	11455.31
485.841	11514.7
486.045	11563.86
486.249	11322.2
486.453	11422.55
486.657	11357.01
486.861	11817.8
487.065	11246.42
487.269	11453.27
487.473	11357.01
487.677	11379.54
487.881	11635.53
488.085	11391.83
488.289	11410.26
488.493	11404.11
488.697	11504.46
488.901	11348.82
489.105	11631.44
489.309	11651.92
489.512	11629.39
489.716	11842.38
489.92	11797.32
490.124	11477.84
490.328	11756.36
490.531	11467.6
490.735	11649.87
490.939	11588.43
491.143	11723.6
491.346	11856.72
491.55	11955.02
491.754	12016.46
491.958	11871.05
492.161	11916.11
492.365	12063.56
492.569	12094.28
492.772	11905.87
492.976	12116.81
493.18	12227.4
493.383	12516.16
493.587	12524.35
493.79	12469.06
493.994	12344.13
494.197	12393.28
494.401	12665.66
494.605	12790.59
494.808	12790.59
495.012	12874.56
495.215	12686.14
495.419	13239.09
495.622	13083.45
495.825	13056.82
496.029	13222.71
496.232	13611.82
496.436	13458.23
496.639	13910.83
496.843	13710.13
497.046	13910.83
497.249	13951.79
497.453	14222.12
497.656	14408.48
497.859	14373.67
498.063	14512.93
498.266	14930.72
498.469	14881.56
498.673	14867.23
498.876	15176.47
499.079	15203.1
499.282	15246.1
499.485	15819.53
499.689	15764.24
499.892	16055.05
500.095	15790.86
500.298	16470.79
500.501	16241.42
500.705	16788.22
500.908	16827.14
501.111	16892.67
501.314	17095.42
501.517	17359.61
501.72	17386.23
501.923	17400.57
502.126	17926.89
502.329	18004.72
502.532	18387.69
502.735	18193.13
502.938	18666.21
503.141	18703.07
503.344	18969.31
503.547	19122.91
503.75	19264.22
503.953	19604.18
504.156	19600.08
504.359	20122.32
504.562	20116.17
504.765	20570.82
504.968	20689.6
505.17	20611.78
505.373	20857.54
505.576	21398.2
505.779	21519.03
505.982	21639.86
506.185	22026.93
506.387	22467.24
506.59	22141.61
506.793	22792.87
506.996	22524.58
507.198	22956.71
507.401	23220.89
507.604	23421.59
507.807	23872.15
508.009	23845.52
508.212	24171.15
508.415	24304.27
508.617	24748.68
508.82	24744.58
509.022	24771.21
509.225	25258.62
509.428	25510.52
509.63	25643.64
509.833	25877.11
510.035	26063.47
510.238	26204.78
510.44	26792.55
510.643	26966.63
510.845	27191.91
511.048	27181.67
511.25	27386.46
511.453	27763.29
511.655	28437.07
511.858	28547.66
512.06	28615.24
512.262	28822.09
512.465	28668.49
512.667	29026.89
512.87	29454.91
513.072	29551.17
513.274	30128.69
513.477	30403.12
513.679	30501.42
513.881	30779.95
514.084	31103.53
514.286	31197.73
514.488	31420.96
514.69	31957.53
514.893	32098.84
515.095	32819.72
515.297	32530.96
515.499	32768.52
515.701	33210.89
515.904	33503.74
516.106	33806.84
516.308	33845.76
516.51	34140.66
516.712	34079.22
516.914	34720.24
517.116	35027.43
517.318	35244.52
517.52	35256.81
517.722	35807.71
517.925	36198.87
518.127	36256.21
518.329	36762.06
518.531	36381.14
518.733	37353.93
518.935	37204.42
519.136	37568.96
519.338	38052.28
519.54	38068.67
519.742	38531.51
519.944	38580.66
520.146	39203.24
520.348	39530.92
520.55	39598.5
520.752	39690.66
520.954	40309.14
521.155	39891.36
521.357	40257.95
521.559	40499.61
521.761	41472.39
521.963	41001.36
522.164	41763.2
522.366	41499.01
522.568	41965.95
522.77	41933.18
522.971	42406.26
523.173	42551.67
523.375	42727.8
523.576	42613.11
523.778	42819.95
523.98	43336.04
524.181	43229.55
524.383	43483.5
524.584	43671.91
524.786	43882.85
524.988	43884.9
525.189	44368.22
525.391	44943.7
525.592	44417.37
525.794	44865.88
525.995	45015.38
526.197	45238.61
526.398	45347.15
526.6	45089.1
526.801	45719.88
527.003	46121.28
527.204	45766.98
527.406	46016.83
527.607	46217.53
527.808	46737.72
528.01	46000.45
528.211	45957.44
528.412	47141.17
528.614	46426.43
528.815	46821.69
529.016	47112.5
529.218	46883.12
529.419	47096.11
529.62	47114.55
529.822	46963
530.023	46874.93
530.224	46932.28
530.425	47227.18
530.626	46948.66
530.828	47173.94
531.029	48144.67
531.23	47452.46
531.431	47233.33
531.632	47604.01
531.833	47651.11
532.035	47565.1
532.236	47886.63
532.437	47687.98
532.638	47595.82
532.839	47767.85
533.04	48103.71
533.241	47517.99
533.442	48308.51
533.643	47755.56
533.844	47903.01
534.045	48058.66
534.246	47538.47
534.447	48036.13
534.648	47632.68
534.849	48034.08
535.05	47591.72
535.251	47796.52
535.451	47491.37
535.652	48234.78
535.853	48034.08
536.054	47702.31
536.255	48034.08
536.456	47933.73
536.657	48570.65
536.857	47726.89
537.058	47640.87
537.259	48511.26
537.46	48189.73
537.66	47927.59
537.861	47915.3
538.062	47702.31
538.263	47939.88
538.463	47587.63
538.664	48097.57
538.865	48269.6
539.065	48140.58
539.266	47407.4
539.466	48046.37
539.667	46985.52
539.868	48038.18
540.068	47782.18
540.269	47460.65
540.469	47780.13
540.67	47298.86
540.87	47640.87
541.071	47356.21
541.271	47683.88
541.472	47374.64
541.672	47204.66
541.873	47581.48
542.073	46983.48
542.274	47593.77
542.474	47462.7
542.675	46973.24
542.875	47624.49
543.075	47391.02
543.276	46866.74
543.476	47819.05
543.676	47575.34
543.877	47335.73
544.077	47372.59
544.277	47112.5
544.478	47479.08
544.678	47233.33
544.878	47114.55
545.078	47022.39
545.279	46917.94
545.479	47198.51
545.679	47245.62
545.879	47278.38
546.079	46965.04
546.28	47282.48
546.48	46702.9
546.68	47149.36
546.88	47108.4
547.08	47194.42
547.28	46928.18
547.48	46629.18
547.68	47386.92
547.88	46285.12
548.081	47182.13
548.281	46778.68
548.481	46760.25
548.681	47192.37
548.881	47112.5
549.081	47098.16
549.28	46737.72
549.48	46821.69
549.68	46590.27
549.88	47202.61
550.08	46530.87
550.28	46862.64
550.48	46596.41
550.68	46721.34
550.88	46108.99
551.08	46641.46
551.279	47024.43
551.479	46489.91
551.679	46719.29
551.879	46397.76
552.079	46602.55
552.278	46491.96
552.478	46555.45
552.678	46739.77
552.878	46645.56
553.077	46496.06
553.277	46518.59
553.477	46690.62
553.676	46256.45
553.876	46160.19
554.076	46180.67
554.275	46377.28
554.475	45760.84
554.674	46401.85
554.874	46362.94
555.074	46025.03
555.273	46663.99
555.473	46313.79
555.672	45893.96
555.872	46045.51
556.071	46238.01
556.271	46371.13
556.47	45719.88
556.67	45965.63
556.869	46063.94
557.068	46065.99
557.268	45703.49
557.467	46041.41
557.667	45853
557.866	45398.35
558.065	45738.31
558.265	45771.08
558.464	45474.12
558.663	46012.74
558.863	45082.96
559.062	46012.74
559.261	45001.04
559.461	45807.94
559.66	45377.87
559.859	45773.13
560.058	44941.65
560.258	45476.17
560.457	44886.36
560.656	45474.12
560.855	44972.37
561.054	44757.33
561.253	44786
561.453	44736.85
561.652	45033.81
561.851	45097.3
562.05	44661.08
562.249	44468.57
562.448	45052.24
562.647	44927.31
562.846	44562.78
563.045	44648.79
563.244	44564.82
563.443	44573.02
563.642	43917.67
563.841	44450.14
564.04	44165.47
564.239	44378.46
564.438	43598.18
564.637	44284.25
564.836	44423.51
565.035	43639.14
565.234	44263.77
565.432	43802.98
565.631	43352.43
565.83	43956.58
566.029	43532.65
566.228	43495.78
566.427	43528.55
566.625	43299.18
566.824	43196.78
567.023	43231.6
567.222	42387.83
567.42	43616.61
567.619	43000.18
567.818	43356.52
568.016	43075.95
568.215	43350.38
568.414	42750.32
568.612	43245.93
568.811	42686.84
569.01	42672.5
569.208	42336.63
569.407	42627.45
569.605	42353.02
569.804	42754.42
570.002	42086.78
570.201	42563.96
570.4	41896.32
570.598	42072.45
570.797	41879.94
570.995	42031.49
571.193	41374.09
571.392	41693.57
571.59	41421.19
571.789	41200.01
571.987	41795.97
572.186	41820.55
572.384	41027.98
572.582	41611.65
572.781	41439.62
572.979	40995.21
573.177	40700.31
573.376	41251.21
573.574	40632.72
573.772	41277.83
573.971	40331.67
574.169	40432.02
574.367	40438.17
574.565	40481.17
574.763	40198.55
574.962	40432.02
575.16	40386.97
575.358	40346.01
575.556	39809.44
575.754	40272.28
575.952	39795.1
576.151	40067.48
576.349	39477.67
576.547	39469.48
576.745	39815.58
576.943	39623.08
577.141	39449
577.339	39782.82
577.537	39029.16
577.735	39446.95
577.933	38973.87
578.131	39109.04
578.329	38611.38
578.527	38646.19
578.725	38859.18
578.923	38539.7
579.121	38724.02
579.319	38347.19
579.516	38814.13
579.714	38560.18
579.912	38490.55
580.11	37806.53
580.308	38400.44
580.506	37671.36
580.704	37648.83
580.901	38250.94
581.099	38060.48
581.297	37724.61
581.495	37511.62
581.692	37431.75
581.89	37157.32
582.088	37591.49
582.285	36723.15
582.483	37444.04
582.681	37212.62
582.878	36948.43
583.076	36667.86
583.274	37079.5
583.471	36454.87
583.669	36917.71
583.866	36260.31
584.064	36995.53
584.262	36049.37
584.459	36520.4
584.657	36061.66
584.854	36469.2
585.052	35604.96
585.249	36094.43
585.447	36159.96
585.644	35539.43
585.841	35662.3
586.039	35930.59
586.236	35584.48
586.434	35164.65
586.631	34998.76
586.828	35144.17
587.026	35465.7
587.223	34861.55
587.42	34963.95
587.618	34972.14
587.815	34808.3
588.012	34558.45
588.21	34501.11
588.407	34603.5
588.604	34324.98
588.801	33896.95
588.999	34191.86
589.196	34042.36
589.393	34062.84
589.59	33886.71
589.787	33837.56
589.984	33821.18
590.182	33171.97
590.379	33655.29
590.576	33530.37
590.773	33374.72
590.97	33128.97
591.167	33636.86
591.364	32600.59
591.561	33329.67
591.758	32881.16
591.955	32934.41
592.152	32793.1
592.349	32664.08
592.546	33174.02
592.743	32799.24
592.94	31904.28
593.137	32477.71
593.334	32612.88
593.531	31908.38
593.727	31988.25
593.924	32068.12
594.121	31644.19
594.318	32070.17
594.515	31838.75
594.712	31613.47
594.908	31529.5
595.105	31517.22
595.302	31066.66
595.499	31455.78
595.696	31068.71
595.892	30906.92
596.089	31185.44
596.286	30927.4
596.482	30618.16
596.679	30829.1
596.876	30941.74
597.072	30841.39
597.269	30497.33
597.466	30175.8
597.662	29747.77
597.859	30046.77
598.055	30235.19
598.252	29708.86
598.448	30046.77
598.645	29897.27
598.841	29530.69
599.038	29911.61
599.234	29866.55
599.431	29407.81
599.627	28977.73
599.824	29211.2
600.02	28777.03
600.217	29459.01
600.413	28885.58
600.609	28953.16
600.806	28899.91
601.002	28910.15
601.198	29051.46
601.395	28316.24
601.591	28494.41
601.787	28406.35
601.984	28461.65
602.18	28549.71
602.376	28090.96
602.572	28244.56
602.769	28162.64
602.965	27830.87
603.161	27722.33
603.357	27740.76
603.553	27746.9
603.75	27742.81
603.946	27388.51
604.142	27611.74
604.338	27122.27
604.534	27400.8
604.73	27263.58
604.926	26894.95
605.122	27245.15
605.318	27056.74
605.514	26976.87
605.71	26864.23
605.906	26526.32
606.102	26741.35
606.298	26606.19
606.494	26659.43
606.69	26569.32
606.886	26440.3
607.082	26129.01
607.278	26301.04
607.474	26126.96
607.67	26139.25
607.866	25877.11
608.062	26444.4
608.257	26026.61
608.453	26090.1
608.649	26116.72
608.845	25770.61
609.041	25612.92
609.236	26184.3
609.432	25877.11
609.628	25784.95
609.824	25541.24
610.019	25645.69
610.215	25049.73
610.411	25537.15
610.606	25549.43
610.802	25154.18
610.998	25094.79
611.193	25068.16
611.389	25068.16
611.584	25330.3
611.78	25037.44
611.976	24969.86
612.171	24662.66
612.367	24971.91
612.562	24631.94
612.758	24539.79
612.953	24478.35
613.149	24947.33
613.344	24326.8
613.539	24697.48
613.735	24560.27
613.93	24603.27
614.126	24507.02
614.321	24631.94
614.517	24281.74
614.712	24494.73
614.907	24285.84
615.103	24494.73
615.298	24300.17
615.493	24312.46
615.688	23954.07
615.884	24285.84
616.079	23669.4
616.274	23913.11
616.47	24023.7
616.665	23599.77
616.86	23638.68
617.055	23700.12
617.25	23458.46
617.445	23704.21
617.641	23626.39
617.836	23622.3
618.031	23194.27
618.226	23407.26
618.421	23212.7
618.616	23294.62
618.811	22977.19
619.006	23476.89
619.201	22606.5
619.396	23130.78
619.591	22690.47
619.786	22815.4
619.981	22440.62
620.176	22719.14
620.371	22336.17
620.566	22305.45
620.761	22252.2
620.956	22364.84
621.151	21772.98
621.346	21973.68
621.541	21484.22
621.735	21865.14
621.93	21600.95
622.125	21793.46
622.32	21097.15
622.515	21269.18
622.709	21379.77
622.904	21121.73
623.099	20837.06
623.294	20863.68
623.488	20650.69
623.683	20800.19
623.878	20445.9
624.072	20531.91
624.267	20320.97
624.462	20177.61
624.656	20142.8
624.851	19993.29
625.046	19858.13
625.24	19806.93
625.435	19614.42
625.629	19626.71
625.824	19452.63
626.018	19466.97
626.213	19010.27
626.407	19421.91
626.602	19129.05
626.796	19069.66
626.991	19073.76
627.185	18795.23
627.38	18584.29
627.574	18213.61
627.768	18533.09
627.963	18379.5
628.157	18197.23
628.352	18334.44
628.546	17935.09
628.74	18068.2
628.935	17871.6
629.129	18084.59
629.323	17599.22
629.517	17681.14
629.712	17384.18
629.906	17580.79
630.1	17490.68
630.294	17470.2
630.489	17070.84
630.683	17115.9
630.877	16845.57
631.071	17019.64
631.265	16927.49
631.459	16655.11
631.653	16538.37
631.848	16562.95
632.042	16202.5
632.236	16366.34
632.43	16083.72
632.624	16323.33
632.818	15964.94
633.012	15934.22
633.206	15883.02
633.4	15719.18
633.594	15567.63
633.788	15647.51
633.982	15657.75
634.176	15612.69
634.369	15381.27
634.563	15069.98
634.757	15248.15
634.951	15471.38
635.145	15110.94
635.339	15332.12
635.533	14826.27
635.726	14850.85
635.92	14517.03
636.114	14813.98
636.308	14764.83
636.501	14574.37
636.695	14668.58
636.889	14424.87
637.083	14394.15
637.276	14279.46
637.47	14160.68
637.664	14021.42
637.857	14025.51
638.051	14105.38
638.244	13771.57
638.438	13822.77
638.632	13873.96
638.825	13679.41
639.019	13703.98
639.212	13419.32
639.406	13349.68
639.599	13308.72
639.793	13394.74
639.986	13194.04
640.18	13204.28
640.373	13165.37
640.567	12766.01
640.76	13200.18
640.954	12741.44
641.147	12737.34
641.34	12665.66
641.534	12514.11
641.727	12716.86
641.92	12751.68
642.114	12624.7
642.307	12454.72
642.5	12522.3
642.694	12182.34
642.887	12067.66
643.08	12479.3
643.273	11963.21
643.467	11928.39
643.66	11826
643.853	11959.11
644.046	11856.72
644.239	11791.18
644.432	11545.42
644.626	11823.95
644.819	11488.08
645.012	11352.91
645.205	11502.42
645.398	11664.21
645.591	11424.59
645.784	11467.6
645.977	11256.66
646.17	11457.36
646.363	10849.11
646.556	11219.8
646.749	10910.55
646.942	11072.34
647.135	10873.69
647.328	10935.13
647.521	10722.14
647.714	10406.75
647.907	10759
648.099	10707.8
648.292	10648.41
648.485	10507.1
648.678	10603.36
648.871	10445.66
649.064	10230.63
649.256	10533.73
649.449	10117.99
649.642	10003.3
649.835	10105.7
650.027	10103.65
650.22	9913.19
650.413	9874.28
650.605	9872.23
650.798	10003.3
650.991	9532.27
651.183	9786.22
651.376	9751.4
651.568	9577.33
651.761	9558.89
651.954	9579.37
652.146	9472.88
652.339	9546.61
652.531	9562.99
652.724	9315.19
652.916	9188.21
653.109	9137.01
653.301	9419.63
653.494	9319.28
653.686	9091.96
653.879	9055.09
654.071	9094.01
654.263	8938.36
654.456	9007.99
654.648	8852.34
654.84	8719.23
655.033	8680.32
655.225	8657.79
655.417	8817.53
655.61	8557.44
655.802	8582.01
655.994	8551.29
656.186	8446.85
656.379	8414.08
656.571	8178.56
656.763	8287.11
656.955	8354.69
657.148	8391.55
657.34	8213.38
657.532	8043.4
657.724	8176.52
657.916	8090.5
658.108	8209.28
658.3	7908.23
658.492	8100.74
658.684	7863.18
658.876	7797.64
659.068	7818.12
659.26	7838.6
659.452	7775.11
659.644	7897.99
659.836	7662.48
660.028	7814.02
660.22	7519.12
660.412	7678.86
660.604	7486.35
660.796	7531.41
660.988	7594.89
661.18	7211.92
661.372	7246.74
661.563	7310.22
661.755	7289.74
661.947	7265.17
662.139	7046.04
662.331	7203.73
662.522	7082.9
662.714	7087
662.906	7074.71
663.097	7166.87
663.289	6902.68
663.481	6841.24
663.673	6955.93
663.864	6908.82
664.056	6929.3
664.247	6781.85
664.439	6683.55
664.631	6753.18
664.822	6718.36
665.014	6706.07
665.205	6646.68
665.397	6507.42
665.588	6691.74
665.78	6501.28
665.971	6472.61
666.163	6470.56
666.354	6470.56
666.546	6310.82
666.737	6302.62
666.929	6241.18
667.12	6194.08
667.311	6423.45
667.503	6251.42
667.694	6194.08
667.885	6046.63
668.077	6075.3
668.268	6194.08
668.459	6046.63
668.651	6144.93
668.842	6112.16
669.033	6044.58
669.224	5886.89
669.416	6046.63
669.607	6032.29
669.798	5899.17
669.989	5858.21
670.18	5936.04
670.371	5557.16
670.563	5858.21
670.754	5772.2
670.945	5686.19
671.136	5770.15
671.327	5659.56
671.518	5684.14
671.709	5518.25
671.9	5559.21
672.091	5608.36
672.282	5587.88
672.473	5485.48
672.664	5454.76
672.855	5299.12
673.046	5528.49
673.237	5530.54
673.428	5395.37
673.619	5553.07
673.809	5499.82
674	5180.34
674.191	5284.78
674.382	5129.14
674.573	5348.27
674.764	5268.4
674.954	5233.58
675.145	5211.06
675.336	5288.88
675.527	5006.26
675.717	5272.5
675.908	5069.75
676.099	5196.72
676.289	5071.79
676.48	5122.99
676.671	4993.97
676.861	5139.38
677.052	5045.17
677.243	4871.09
677.433	4918.2
677.624	4985.78
677.814	4940.72
678.005	4828.09
678.195	4889.53
678.386	4971.44
678.576	4770.74
678.767	4760.5
678.957	4879.29
679.148	4871.09
679.338	4719.54
679.529	4758.46
679.719	4752.31
679.909	4856.76
680.1	4830.13
680.29	4752.31
680.481	4721.59
680.671	4649.91
680.861	4744.12
681.052	4559.8
681.242	4592.57
681.432	4699.06
681.622	4549.56
681.813	4576.19
682.003	4709.3
682.193	4475.84
682.383	4625.34
682.573	4629.43
682.764	4524.99
682.954	4488.12
683.144	4535.23
683.334	4426.68
683.524	4504.51
683.714	4549.56
683.904	4443.07
684.094	4604.86
684.284	4387.77
684.474	4408.25
684.664	4381.63
684.854	4428.73
685.044	4481.98
685.234	4322.24
685.424	4318.14
685.614	4180.93
685.804	4264.89
685.994	4289.47
686.184	4338.62
686.374	4328.38
686.564	4211.65
686.753	4115.39
686.943	4088.77
687.133	4230.08
687.323	4156.35
687.513	4142.02
687.702	4125.63
687.892	4027.33
688.082	4154.3
688.272	4094.91
688.461	4008.9
688.651	4072.39
688.841	3894.21
689.03	4086.72
689.22	3969.99
689.41	4010.95
689.599	3863.49
689.789	3810.25
689.979	3941.32
690.168	3865.54
690.358	3752.9
690.547	3789.77
690.737	3824.58
690.926	3859.4
691.116	3834.82
691.305	3763.14
691.495	3681.22
691.684	3666.89
691.874	3605.45
692.063	3740.61
692.252	3654.6
692.442	3617.74
692.631	3591.11
692.82	3601.35
693.01	3550.15
693.199	3505.1
693.388	3539.91
693.578	3492.81
693.767	3574.73
693.956	3394.51
694.146	3478.47
694.335	3443.66
694.524	3584.97
694.713	3445.71
694.902	3607.5
695.092	3328.97
695.281	3488.71
695.47	3466.19
695.659	3427.28
695.848	3410.89
696.037	3423.18
696.226	3496.91
696.415	3335.12
696.604	3302.35
696.793	3419.08
696.982	3300.3
697.171	3417.04
697.36	3312.59
697.549	3320.78
697.738	3249.1
697.927	3259.34
698.116	3408.84
698.305	3345.36
698.494	3298.25
698.683	3281.87
698.872	3265.49
699.061	3216.33
699.25	3234.77
699.438	3298.25
699.627	3378.12
699.816	3253.2
700.005	3257.29
700.193	3302.35
700.382	3265.49
700.571	3130.32
700.76	3212.24
700.948	3277.77
701.137	3103.7
701.326	3292.11
701.514	3144.66
701.703	3300.3
701.892	3187.66
702.08	3310.54
702.269	3122.13
702.457	3236.81
702.646	3052.5
702.834	3142.61
703.023	3308.49
703.212	3247.05
703.4	3093.46
703.589	3126.22
703.777	3103.7
703.965	3136.46
704.154	3158.99
704.342	3107.79
704.531	3042.26
704.719	3095.5
704.907	3091.41
705.096	3132.37
705.284	3044.31
705.472	3124.18
705.661	3050.45
705.849	3206.1
706.037	3136.46
706.226	3075.03
706.414	2921.43
706.602	3050.45
706.79	3132.37
706.979	3056.59
707.167	3146.7
707.355	3148.75
707.543	3081.17
707.731	3044.31
707.919	3144.66
708.107	3023.83
708.296	3001.3
708.484	2964.43
708.672	3068.88
708.86	2952.15
709.048	3034.07
709.236	3013.59
709.424	2989.01
709.612	3034.07
709.8	2980.82
709.988	2974.67
710.176	3062.74
710.364	2962.39
710.551	2980.82
710.739	2941.91
710.927	3099.6
711.115	2857.94
711.303	2941.91
711.491	3150.8
711.679	2952.15
711.866	3122.13
712.054	2968.53
712.242	3023.83
712.43	2966.48
712.617	3038.16
712.805	2894.8
712.993	2995.15
713.181	3021.78
713.368	2794.45
713.556	2941.91
713.744	3079.12
713.931	2853.84
714.119	2859.99
714.306	3013.59
714.494	3048.4
714.682	2970.58
714.869	2855.89
715.057	3066.83
715.244	2894.8
715.432	2939.86
715.619	2933.72
715.807	2909.14
715.994	2937.81
716.182	2909.14
716.369	3017.68
716.556	2960.34
716.744	2737.11
716.931	2950.1
717.119	2862.04
717.306	2978.77
717.493	2851.8
717.681	2855.89
717.868	2894.8
718.055	2952.15
718.242	2878.42
718.43	2833.36
718.617	2853.84
718.804	2923.48
718.991	2784.21
719.179	2892.76
719.366	2823.12
719.553	2827.22
719.74	2829.27
719.927	2825.17
720.114	2855.89
720.301	2759.64
720.488	2800.6
720.676	2821.08
720.863	2808.79
721.05	2896.85
721.237	2782.17
721.424	2878.42
721.611	2814.93
721.798	2915.28
721.985	2726.87
722.172	2773.97
722.358	2786.26
722.545	2851.8
722.732	2661.34
722.919	2716.63
723.106	2808.79
723.293	2763.73
723.48	2714.58
723.667	2814.93
723.853	2704.34
724.04	2814.93
724.227	2737.11
724.414	2796.5
724.6	2651.1
724.787	2757.59
724.974	2825.17
725.161	2733.01
725.347	2626.52
725.534	2622.42
725.72	2833.36
725.907	2673.62
726.094	2843.6
726.28	2675.67
726.467	2773.97
726.653	2638.81
726.84	2630.62
727.027	2769.88
727.213	2644.95
727.4	2626.52
727.586	2771.93
727.773	2665.43
727.959	2765.78
728.145	2698.2
728.332	2612.18
728.518	2636.76
728.705	2839.51
728.891	2687.96
729.077	2814.93
729.264	2628.57
729.45	2599.9
729.636	2808.79
729.823	2726.87
730.009	2653.14
730.195	2763.73
730.382	2739.16
730.568	2753.49
730.754	2673.62
730.94	2538.46
731.126	2573.27
731.313	2503.64
731.499	2661.34
731.685	2624.47
731.871	2606.04
732.057	2616.28
732.243	2618.33
732.429	2624.47
732.615	2620.38
732.801	2647
732.987	2599.9
733.173	2651.1
733.359	2675.67
733.545	2520.03
733.731	2563.03
733.917	2567.13
734.103	2575.32
734.289	2513.88
734.475	2421.72
734.661	2612.18
734.847	2556.89
735.033	2540.51
735.219	2501.59
735.404	2524.12
735.59	2606.04
735.776	2565.08
735.962	2575.32
736.148	2546.65
736.333	2528.22
736.519	2583.51
736.705	2329.56
736.89	2329.56
737.076	2407.39
737.262	2493.4
737.447	2440.15
737.633	2444.25
737.819	2421.72
738.004	2419.68
738.19	2452.44
738.375	2503.64
738.561	2391
738.747	2321.37
738.932	2266.08
739.118	2524.12
739.303	2341.85
739.489	2440.15
739.674	2339.8
739.859	2429.91
740.045	2417.63
740.23	2448.35
740.416	2337.76
740.601	2421.72
740.786	2364.38
740.972	2280.41
741.157	2237.41
741.342	2280.41
741.528	2298.84
741.713	2255.84
741.898	2298.84
742.084	2272.22
742.269	2196.45
742.454	2313.18
742.639	2259.93
742.824	2317.28
743.01	2153.44
743.195	2208.73
743.38	2251.74
743.565	2184.16
743.75	2237.41
743.935	2139.1
744.12	2204.64
744.305	2208.73
744.49	2173.92
744.675	2194.4
744.86	2053.09
745.045	2151.39
745.23	2175.97
745.415	2120.67
745.6	1991.65
745.785	2042.85
745.97	2071.52
746.155	2028.51
746.34	2067.42
746.525	1948.64
746.71	2094.05
746.895	1952.74
747.079	1962.98
747.264	2012.13
747.449	2102.24
747.634	1889.25
747.819	1915.87
748.003	1950.69
748.188	2028.51
748.373	1879.01
748.557	1973.22
748.742	1838.05
748.927	1862.63
749.111	1764.33
749.296	1768.42
749.481	1932.26
749.665	1797.09
749.85	1684.45
750.034	1842.15
750.219	1813.48
750.404	1901.54
750.588	1836
750.773	1706.98
750.957	1690.6
751.141	1776.61
751.326	1674.21
751.51	1706.98
751.695	1690.6
751.879	1780.71
752.064	1653.73
752.248	1698.79
752.432	1778.66
752.617	1649.64
752.801	1641.45
752.985	1641.45
753.17	1600.49
753.354	1584.1
753.538	1537
753.722	1547.24
753.907	1588.2
754.091	1487.85
754.275	1541.1
754.459	1563.62
754.643	1491.95
754.828	1575.91
755.012	1440.75
755.196	1485.8
755.38	1475.56
755.564	1356.78
755.748	1520.62
755.932	1436.65
756.116	1389.55
756.3	1446.89
756.484	1383.4
756.668	1448.94
756.852	1346.54
757.036	1346.54
757.22	1348.59
757.404	1303.53
757.588	1350.64
757.772	1354.73
757.956	1352.68
758.14	1313.77
758.323	1305.58
758.507	1324.01
758.691	1246.19
758.875	1244.14
759.059	1274.86
759.242	1301.48
759.426	1340.4
759.61	1223.66
759.794	1197.04
759.977	1305.58
760.161	1258.48
760.345	1244.14
760.528	1270.76
760.712	1233.9
760.895	1194.99
761.079	1225.71
761.263	1178.61
761.446	1227.76
761.63	1131.5
761.813	1160.17
761.997	1102.83
762.18	1160.17
762.364	1240.05
762.547	1068.02
762.731	1076.21
762.914	1102.83
763.098	1039.34
763.281	1160.17
763.464	1002.48
763.648	1139.69
763.831	1135.6
764.015	1168.37
764.198	1100.78
764.381	1078.26
764.564	1088.5
764.748	1111.02
764.931	1006.58
765.114	1145.84
765.297	1135.6
765.481	1043.44
765.664	1070.06
765.847	1084.4
766.03	1119.21
766.213	1068.02
766.397	984.05
766.58	1045.49
766.763	959.47
766.946	953.33
767.129	1029.1
767.312	1047.54
767.495	1065.97
767.678	1063.92
767.861	895.99
768.044	1018.86
768.227	1037.3
768.41	969.71
768.593	998.38
768.776	949.23
768.959	883.7
769.142	930.8
769.324	912.37
769.507	1000.43
769.69	891.89
769.873	1002.48
770.056	1025.01
770.239	844.79
770.421	924.66
770.604	850.93
770.787	889.84
770.97	990.19
771.152	838.64
771.335	924.66
771.518	805.88
771.7	926.71
771.883	957.43
772.066	801.78
772.248	828.4
772.431	891.89
772.613	932.85
772.796	885.75
772.978	1000.43
773.161	830.45
773.343	873.46
773.526	850.93
773.708	934.9
773.891	799.73
774.073	869.36
774.256	785.4
774.438	828.4
774.621	805.88
774.803	764.92
774.985	807.92
775.168	861.17
775.35	721.91
775.532	787.44
775.715	803.83
775.897	787.44
776.079	861.17
776.261	738.29
776.444	705.53
776.626	615.41
776.808	721.91
776.99	750.58
777.173	664.57
777.355	695.29
777.537	646.13
777.719	672.76
777.901	683
778.083	717.81
778.265	746.48
778.447	652.28
778.629	621.56
778.811	713.72
778.993	781.3
779.175	662.52
779.357	646.13
779.539	701.43
779.721	601.08
779.903	635.89
780.085	639.99
780.267	627.7
780.449	556.02
780.631	613.37
780.812	646.13
780.994	582.65
781.176	668.66
781.358	611.32
781.54	533.5
781.721	547.83
781.903	613.37
782.085	523.26
782.267	578.55
782.448	590.84
782.63	568.31
782.812	588.79
782.993	535.54
783.175	580.6
783.357	556.02
783.538	582.65
783.72	515.06
783.901	535.54
784.083	439.29
784.264	527.35
784.446	568.31
784.627	465.91
784.809	504.82
784.99	470.01
785.172	513.02
785.353	549.88
785.535	515.06
785.716	508.92
785.897	420.86
786.079	537.59
786.26	412.67
786.441	453.63
786.623	461.82
786.804	424.95
786.985	441.34
787.167	474.1
787.348	529.4
787.529	429.05
787.71	451.58
787.891	429.05
788.073	379.9
788.254	447.48
788.435	431.1
788.616	461.82
788.797	379.9
788.978	396.28
789.159	357.37
789.34	453.63
789.522	433.15
789.703	480.25
789.884	424.95
790.065	412.67
790.246	457.72
790.427	418.81
790.607	404.47
790.788	390.14
790.969	302.08
791.15	461.82
791.331	367.61
791.512	424.95
791.693	328.7
791.874	396.28
792.054	439.29
792.235	355.32
792.416	271.36
792.597	250.88
792.778	431.1
792.958	402.43
793.139	357.37
793.32	283.64
793.5	392.19
793.681	420.86
793.862	449.53
794.042	379.9
794.223	365.56
794.404	416.76
794.584	482.3
794.765	369.66
794.945	365.56
795.126	365.56
795.306	336.89
795.487	295.93
795.667	267.26
795.848	306.17
796.028	353.27
796.209	287.74
796.389	314.36
796.57	353.27
796.75	261.12
796.93	345.08
797.111	322.56
797.291	314.36
797.471	347.13
797.652	259.07
797.832	271.36
798.012	246.78
798.192	281.6
798.373	246.78
798.553	291.84
798.733	332.79
798.913	269.31
799.093	316.41
799.274	308.22
799.454	343.03
799.634	267.26
799.814	297.98
799.994	240.64
800.174	283.64
800.354	306.17
800.534	234.49
800.714	214.01
800.894	205.82
801.074	199.68
801.254	261.12
801.434	302.08
801.614	214.01
801.794	226.3
801.974	566.26
802.154	287.74
802.334	220.16
802.514	252.92
802.693	244.73
802.873	187.39
803.053	289.79
803.233	246.78
803.413	199.68
803.592	275.45
803.772	304.12
803.952	220.16
804.131	181.25
804.311	285.69
804.491	281.6
804.67	148.48
804.85	189.44
805.03	236.54
805.209	244.73
805.389	197.63
805.568	185.34
805.748	197.63
805.928	207.87
806.107	252.92
806.287	242.68
806.466	216.06
806.646	209.92
806.825	197.63
807.004	144.38
807.184	238.59
807.363	201.72
807.543	201.72
807.722	148.48
807.901	205.82
808.081	228.35
808.26	232.44
808.439	244.73
808.619	160.77
808.798	166.91
808.977	199.68
809.156	166.91
809.336	177.15
809.515	197.63
809.694	183.29
809.873	216.06
810.052	166.91
810.231	158.72
810.411	181.25
810.59	214.01
810.769	222.2
810.948	177.15
811.127	132.09
811.306	236.54
811.485	146.43
811.664	156.67
811.843	130.05
812.022	121.85
812.201	171.01
812.38	128
812.559	242.68
812.737	179.2
812.916	195.58
813.095	123.9
813.274	185.34
813.453	230.4
813.632	181.25
813.811	277.5
813.989	156.67
814.168	140.29
814.347	195.58
814.526	234.49
814.704	156.67
814.883	173.05
815.062	166.91
815.24	181.25
815.419	128
815.598	177.15
815.776	84.99
815.955	156.67
816.133	111.61
816.312	154.62
816.49	152.57
816.669	87.04
816.847	189.44
817.026	150.53
817.204	109.57
817.383	144.38
817.561	87.04
817.74	158.72
817.918	211.96
818.097	121.85
818.275	160.77
818.453	111.61
818.632	156.67
818.81	111.61
818.988	154.62
819.167	187.39
819.345	134.14
819.523	78.85
819.701	80.89
819.879	134.14
820.058	132.09
820.236	132.09
820.414	138.24
820.592	164.86
820.77	136.19
820.948	267.26
821.127	232.44
821.305	154.62
821.483	132.09
821.661	134.14
821.839	156.67
822.017	113.66
822.195	56.32
822.373	160.77
822.551	121.85
822.729	142.33
822.907	125.95
823.085	113.66
823.262	113.66
823.44	156.67
823.618	160.77
823.796	117.76
823.974	91.13
824.152	87.04
824.329	111.61
824.507	91.13
824.685	158.72
824.863	87.04
825.04	138.24
825.218	152.57
825.396	156.67
825.574	25.6
825.751	117.76
825.929	195.58
826.107	101.37
826.284	80.89
826.462	136.19
826.639	99.33
826.817	66.56
826.994	78.85
827.172	84.99
827.349	132.09
827.527	80.89
827.704	189.44
827.882	150.53
828.059	181.25
828.237	66.56
828.414	89.09
828.591	134.14
828.769	109.57
828.946	152.57
829.124	58.37
829.301	164.86
829.478	187.39
829.655	150.53
829.833	84.99
830.01	52.22
830.187	109.57
830.364	80.89
830.542	117.76
830.719	72.7
830.896	70.65
831.073	62.46
831.25	150.53
831.427	140.29
831.604	84.99
831.782	50.18
831.959	142.33
832.136	66.56
832.313	107.52
832.49	44.03
832.667	13.31
832.844	74.75
833.021	140.29
833.198	62.46
833.374	101.37
833.551	80.89
833.728	56.32
833.905	103.42
834.082	56.32
834.259	70.65
834.436	66.56
834.612	74.75
834.789	64.51
834.966	25.6
835.143	78.85
835.319	54.27
835.496	54.27
835.673	115.71
835.85	117.76
836.026	82.94
836.203	46.08
836.38	70.65
836.556	-19.46
836.733	103.42
836.909	140.29
837.086	97.28
837.262	68.61
837.439	70.65
837.616	87.04
837.792	23.55
837.968	121.85
838.145	-1.02
838.321	41.98
838.498	97.28
838.674	64.51
838.851	84.99
839.027	52.22
839.203	125.95
839.38	99.33
839.556	-9.22
839.732	91.13
839.909	72.7
840.085	119.81
840.261	54.27
840.437	25.6
840.614	78.85
840.79	78.85
840.966	95.23
841.142	58.37
841.318	25.6
841.494	7.17
841.671	84.99
841.847	74.75
842.023	68.61
842.199	111.61
842.375	21.5
842.551	33.79
842.727	50.18
842.903	89.09
843.079	44.03
843.255	93.18
843.431	115.71
843.607	29.7
843.783	17.41
843.959	148.48
844.134	76.8
844.31	72.7
844.486	-13.31
844.662	31.74
844.838	21.5
845.013	119.81
845.189	111.61
845.365	11.26
845.541	46.08
845.716	115.71
845.892	93.18
846.068	80.89
846.244	27.65
846.419	31.74
846.595	-19.46
846.77	31.74
846.946	78.85
847.122	17.41
847.297	44.03
847.473	91.13
847.648	-15.36
847.824	84.99
847.999	13.31
848.175	76.8
848.35	52.22
848.526	144.38
848.701	107.52
848.876	33.79
849.052	62.46
849.227	101.37
849.403	29.7
849.578	-7.17
849.753	3.07
849.929	64.51
850.104	3.07
850.279	15.36
850.454	82.94
850.63	52.22
850.805	23.55
850.98	46.08
851.155	-9.22
851.33	13.31
851.505	-56.32
851.681	93.18
851.856	-19.46
852.031	82.94
852.206	27.65
852.381	70.65
852.556	62.46
852.731	76.8
852.906	58.37
853.081	25.6
853.256	17.41
853.431	5.12
853.606	-19.46
853.781	52.22
853.956	11.26
854.131	60.42
854.305	-21.5
854.48	72.7
854.655	62.46
854.83	35.84
855.005	11.26
855.18	52.22
855.354	44.03
855.529	95.23
855.704	21.5
855.879	9.22
856.053	35.84
856.228	11.26
856.403	-15.36
856.577	17.41
856.752	7.17
856.926	48.13
857.101	39.94
857.276	1.02
857.45	9.22
857.625	-15.36
857.799	50.18
857.974	21.5
858.148	-1.02
858.323	35.84
858.497	70.65
858.672	27.65
858.846	41.98
859.02	17.41
859.195	37.89
859.369	62.46
859.543	39.94
859.718	27.65
859.892	66.56
860.066	105.47
860.241	19.46
860.415	17.41
860.589	-13.31
860.763	84.99
860.938	3.07
861.112	68.61
861.286	-23.55
861.46	48.13
861.634	13.31
861.808	41.98
861.982	-15.36
862.157	31.74
862.331	39.94
862.505	-37.89
862.679	31.74
862.853	-27.65
863.027	17.41
863.201	56.32
863.375	-21.5
863.549	95.23
863.722	11.26
863.896	27.65
864.07	-5.12
864.244	66.56
864.418	15.36
864.592	84.99
864.766	-1.02
864.939	35.84
865.113	-7.17
865.287	35.84
865.461	-17.41
865.634	9.22
865.808	-64.51
865.982	46.08
866.156	56.32
866.329	-60.42
866.503	84.99
866.676	76.8
866.85	27.65
867.024	-60.42
867.197	-7.17
867.371	-13.31
867.544	93.18
867.718	41.98
867.891	7.17
868.065	19.46
868.238	-9.22
868.412	27.65
868.585	19.46
868.759	64.51
868.932	56.32
869.105	13.31
869.279	7.17
869.452	-15.36
869.625	-7.17
869.799	44.03
869.972	-7.17
870.145	78.85
870.319	44.03
870.492	11.26
870.665	46.08
870.838	48.13
871.011	54.27
871.185	-17.41
871.358	7.17
871.531	-29.7
871.704	13.31
871.877	97.28
872.05	-3.07
872.223	84.99
872.396	58.37
872.569	80.89
872.742	60.42
872.915	62.46
873.088	41.98
873.261	-17.41
873.434	70.65
873.607	1.02
873.78	95.23
873.953	27.65
874.126	99.33
874.299	25.6
874.471	-1.02
874.644	-15.36
874.817	41.98
874.99	13.31
875.163	-31.74
875.335	52.22
875.508	29.7
875.681	-3.07
875.853	19.46
876.026	101.37
876.199	37.89
876.371	68.61
876.544	15.36
876.717	29.7
876.889	-3.07
877.062	11.26
877.234	39.94
877.407	-7.17
877.579	7.17
877.752	54.27
877.924	99.33
878.097	82.94
878.269	46.08
878.442	-21.5
878.614	35.84
878.786	39.94
878.959	29.7
879.131	-48.13
879.303	3.07
879.476	95.23
879.648	29.7
879.82	60.42
879.993	29.7
880.165	-62.46
880.337	-27.65
880.509	11.26
880.681	60.42
880.854	27.65
881.026	-3.07
881.198	95.23
881.37	15.36
881.542	-11.26
881.714	-23.55
881.886	-15.36
882.058	-13.31
882.23	19.46
882.402	19.46
882.574	66.56
882.746	48.13
882.918	44.03
883.09	89.09
883.262	54.27
883.434	15.36
883.606	-3.07
883.778	-15.36
883.95	-5.12
884.122	39.94
884.293	76.8
884.465	21.5
884.637	-5.12
884.809	-1.02
884.98	31.74
885.152	91.13
885.324	7.17
885.496	-111.61
885.667	-37.89
885.839	-29.7
886.011	-62.46
886.182	25.6
886.354	-72.7
886.525	33.79
886.697	19.46
886.869	80.89
887.04	-29.7
887.212	78.85
887.383	17.41
887.555	56.32
887.726	-44.03
887.897	29.7
888.069	70.65
888.24	-11.26
888.412	7.17
888.583	-68.61
888.754	99.33
888.926	17.41
889.097	-27.65
889.268	5.12
889.44	54.27
889.611	-17.41
889.782	-27.65
889.953	-44.03
890.125	37.89
890.296	41.98
890.467	19.46
890.638	-23.55
890.809	41.98
890.98	17.41
891.151	31.74
891.323	-54.27
891.494	23.55
891.665	68.61
891.836	21.5
892.007	-19.46
892.178	-17.41
892.349	-5.12
892.52	-29.7
892.691	54.27
892.862	33.79
893.032	-27.65
893.203	13.31
893.374	50.18
893.545	11.26
893.716	-41.98
893.887	15.36
894.057	-62.46
894.228	27.65
894.399	5.12
894.57	17.41
894.74	9.22
894.911	27.65
895.082	-31.74
895.253	-62.46
895.423	29.7
895.594	39.94
895.764	48.13
895.935	7.17
896.106	29.7
896.276	-48.13
896.447	52.22
896.617	-21.5
896.788	-25.6
896.958	-60.42
897.129	-5.12
897.299	-5.12
897.47	48.13
897.64	82.94
897.81	-13.31
897.981	70.65
898.151	-15.36
898.322	17.41
898.492	15.36
898.662	23.55
898.832	9.22
899.003	9.22
899.173	41.98
899.343	35.84
899.513	-1.02
