Data from USB4F104151__70__12-01-57-687.txt Node

Date: Fri Mar 14 12:01:57 EDT 2025
User: louis
Spectrometer: USB4F10415
Trigger mode: 4
Integration Time (sec): 2.000000E-2
Scans to average: 1
Electric dark correction enabled: true
Nonlinearity correction enabled: false
Boxcar width: 0
XAxis mode: Wavelengths
Number of Pixels in Spectrum: 3648
>>>>>Begin Spectral Data<<<<<
178.204	-47.96
178.424	-47.96
178.644	-47.96
178.864	-68.44
179.084	-119.64
179.304	-56.15
179.524	-31.57
179.744	-21.33
179.964	42.15
180.184	46.25
180.404	3.24
180.624	1.19
180.844	31.91
181.064	-37.72
181.283	42.15
181.503	-23.38
181.723	3.24
181.943	-62.29
182.163	107.69
182.383	38.06
182.602	25.77
182.822	50.35
183.042	15.53
183.262	56.49
183.482	-25.43
183.701	-37.72
183.921	-13.14
184.141	44.2
184.361	-9.05
184.58	29.87
184.8	70.83
185.02	19.63
185.239	72.87
185.459	13.48
185.679	11.43
185.898	-9.05
186.118	-41.81
186.338	46.25
186.557	-45.91
186.777	-7
186.997	103.59
187.216	-31.57
187.436	136.36
187.655	-64.34
187.875	9.39
188.095	62.63
188.314	72.87
188.534	70.83
188.753	11.43
188.973	-9.05
189.192	19.63
189.412	68.78
189.631	9.39
189.851	15.53
190.07	27.82
190.29	5.29
190.509	13.48
190.729	60.59
190.948	109.74
191.168	105.64
191.387	115.88
191.607	21.67
191.826	29.87
192.045	13.48
192.265	40.11
192.484	54.44
192.704	19.63
192.923	3.24
193.142	-45.91
193.362	-45.91
193.581	128.17
193.8	-0.85
194.02	126.12
194.239	19.63
194.458	3.24
194.678	70.83
194.897	13.48
195.116	9.39
195.335	-23.38
195.555	-0.85
195.774	74.92
195.993	5.29
196.212	109.74
196.432	56.49
196.651	38.06
196.87	13.48
197.089	93.35
197.308	40.11
197.528	50.35
197.747	40.11
197.966	25.77
198.185	101.55
198.404	3.24
198.623	42.15
198.842	74.92
199.062	36.01
199.281	1.19
199.5	-2.9
199.719	27.82
199.938	7.34
200.157	52.39
200.376	58.54
200.595	58.54
200.814	-31.57
201.033	-7
201.252	76.97
201.471	54.44
201.69	7.34
201.909	40.11
202.128	-45.91
202.347	31.91
202.566	25.77
202.785	7.34
203.004	7.34
203.223	97.45
203.442	3.24
203.661	5.29
203.879	-35.67
204.098	93.35
204.317	-17.24
204.536	99.5
204.755	33.96
204.974	13.48
205.193	7.34
205.411	48.3
205.63	-15.19
205.849	79.02
206.068	7.34
206.287	-66.39
206.505	54.44
206.724	58.54
206.943	29.87
207.162	17.58
207.381	64.68
207.599	17.58
207.818	46.25
208.037	17.58
208.255	9.39
208.474	-54.1
208.693	50.35
208.911	9.39
209.13	-0.85
209.349	58.54
209.567	42.15
209.786	95.4
210.005	15.53
210.223	3.24
210.442	-0.85
210.661	-17.24
210.879	48.3
211.098	46.25
211.316	23.72
211.535	72.87
211.753	54.44
211.972	-29.52
212.191	1.19
212.409	3.24
212.628	1.19
212.846	13.48
213.065	89.26
213.283	89.26
213.502	76.97
213.72	48.3
213.938	21.67
214.157	113.83
214.375	-7
214.594	11.43
214.812	25.77
215.031	70.83
215.249	50.35
215.467	17.58
215.686	-9.05
215.904	56.49
216.122	46.25
216.341	48.3
216.559	-9.05
216.778	40.11
216.996	87.21
217.214	93.35
217.432	-17.24
217.651	85.16
217.869	54.44
218.087	-19.29
218.306	-37.72
218.524	72.87
218.742	40.11
218.96	91.31
219.179	-15.19
219.397	-2.9
219.615	66.73
219.833	-27.48
220.051	-39.76
220.27	107.69
220.488	13.48
220.706	107.69
220.924	44.2
221.142	42.15
221.36	25.77
221.578	38.06
221.796	29.87
222.015	-0.85
222.233	54.44
222.451	58.54
222.669	-39.76
222.887	117.93
223.105	-25.43
223.323	3.24
223.541	62.63
223.759	56.49
223.977	-15.19
224.195	29.87
224.413	60.59
224.631	44.2
224.849	19.63
225.067	60.59
225.285	103.59
225.503	21.67
225.721	-62.29
225.939	52.39
226.157	-15.19
226.375	-19.29
226.592	36.01
226.81	40.11
227.028	44.2
227.246	1.19
227.464	21.67
227.682	93.35
227.9	33.96
228.117	50.35
228.335	9.39
228.553	44.2
228.771	-23.38
228.989	107.69
229.206	46.25
229.424	3.24
229.642	7.34
229.86	87.21
230.077	11.43
230.295	52.39
230.513	-15.19
230.731	25.77
230.948	-0.85
231.166	27.82
231.384	-45.91
231.601	23.72
231.819	107.69
232.037	54.44
232.254	-7
232.472	60.59
232.689	46.25
232.907	76.97
233.125	124.07
233.342	-2.9
233.56	83.11
233.777	60.59
233.995	52.39
234.213	48.3
234.43	11.43
234.648	66.73
234.865	-11.09
235.083	52.39
235.3	-2.9
235.518	33.96
235.735	44.2
235.953	79.02
236.17	-31.57
236.388	62.63
236.605	-11.09
236.822	79.02
237.04	93.35
237.257	5.29
237.475	-35.67
237.692	70.83
237.909	33.96
238.127	31.91
238.344	-13.14
238.562	60.59
238.779	-64.34
238.996	-13.14
239.214	1.19
239.431	23.72
239.648	-7
239.865	58.54
240.083	29.87
240.3	46.25
240.517	-7
240.735	27.82
240.952	19.63
241.169	-4.95
241.386	23.72
241.603	46.25
241.821	25.77
242.038	111.78
242.255	17.58
242.472	-9.05
242.689	72.87
242.907	76.97
243.124	11.43
243.341	15.53
243.558	64.68
243.775	15.53
243.992	-0.85
244.209	36.01
244.426	58.54
244.643	85.16
244.86	31.91
245.078	27.82
245.295	79.02
245.512	99.5
245.729	13.48
245.946	21.67
246.163	54.44
246.38	31.91
246.597	64.68
246.814	97.45
247.031	68.78
247.248	40.11
247.464	36.01
247.681	42.15
247.898	48.3
248.115	95.4
248.332	128.17
248.549	33.96
248.766	48.3
248.983	27.82
249.2	-27.48
249.417	95.4
249.633	-19.29
249.85	60.59
250.067	36.01
250.284	27.82
250.501	17.58
250.717	40.11
250.934	-4.95
251.151	25.77
251.368	25.77
251.585	46.25
251.801	-90.96
252.018	60.59
252.235	29.87
252.451	-13.14
252.668	3.24
252.885	58.54
253.102	81.07
253.318	25.77
253.535	36.01
253.752	-23.38
253.968	17.58
254.185	-0.85
254.401	70.83
254.618	46.25
254.835	23.72
255.051	119.98
255.268	15.53
255.484	74.92
255.701	36.01
255.917	62.63
256.134	3.24
256.351	27.82
256.567	11.43
256.784	42.15
257	23.72
257.217	81.07
257.433	44.2
257.65	60.59
257.866	27.82
258.082	-31.57
258.299	-17.24
258.515	50.35
258.732	52.39
258.948	19.63
259.165	1.19
259.381	97.45
259.597	50.35
259.814	1.19
260.03	27.82
260.246	29.87
260.463	52.39
260.679	81.07
260.895	52.39
261.112	105.64
261.328	7.34
261.544	-13.14
261.761	70.83
261.977	42.15
262.193	46.25
262.409	17.58
262.626	56.49
262.842	11.43
263.058	-11.09
263.274	74.92
263.49	52.39
263.707	74.92
263.923	-4.95
264.139	38.06
264.355	103.59
264.571	68.78
264.787	21.67
265.004	-11.09
265.22	29.87
265.436	83.11
265.652	-9.05
265.868	-7
266.084	-11.09
266.3	-13.14
266.516	13.48
266.732	11.43
266.948	-37.72
267.164	-13.14
267.38	-21.33
267.596	-31.57
267.812	107.69
268.028	68.78
268.244	58.54
268.46	-43.86
268.676	58.54
268.892	50.35
269.108	-15.19
269.324	-23.38
269.54	60.59
269.756	36.01
269.972	19.63
270.188	-11.09
270.403	-31.57
270.619	-17.24
270.835	66.73
271.051	-41.81
271.267	-2.9
271.483	3.24
271.698	52.39
271.914	48.3
272.13	56.49
272.346	-2.9
272.562	-7
272.777	107.69
272.993	42.15
273.209	21.67
273.425	1.19
273.64	7.34
273.856	3.24
274.072	13.48
274.287	21.67
274.503	76.97
274.719	72.87
274.934	1.19
275.15	-0.85
275.366	19.63
275.581	70.83
275.797	76.97
276.012	21.67
276.228	27.82
276.444	27.82
276.659	81.07
276.875	58.54
277.09	9.39
277.306	7.34
277.521	70.83
277.737	31.91
277.952	66.73
278.168	-2.9
278.383	21.67
278.599	11.43
278.814	95.4
279.03	72.87
279.245	54.44
279.461	42.15
279.676	29.87
279.892	-2.9
280.107	-21.33
280.322	13.48
280.538	40.11
280.753	-29.52
280.969	3.24
281.184	62.63
281.399	60.59
281.615	38.06
281.83	29.87
282.045	15.53
282.26	31.91
282.476	11.43
282.691	72.87
282.906	70.83
283.122	52.39
283.337	46.25
283.552	46.25
283.767	31.91
283.983	-39.76
284.198	46.25
284.413	17.58
284.628	-15.19
284.843	48.3
285.058	21.67
285.274	72.87
285.489	-0.85
285.704	70.83
285.919	-19.29
286.134	60.59
286.349	52.39
286.564	48.3
286.779	103.59
286.995	19.63
287.21	27.82
287.425	33.96
287.64	60.59
287.855	36.01
288.07	56.49
288.285	68.78
288.5	27.82
288.715	13.48
288.93	31.91
289.145	31.91
289.36	13.48
289.575	46.25
289.79	52.39
290.004	48.3
290.219	89.26
290.434	48.3
290.649	29.87
290.864	3.24
291.079	-35.67
291.294	15.53
291.509	29.87
291.724	-41.81
291.938	68.78
292.153	15.53
292.368	50.35
292.583	27.82
292.798	36.01
293.012	-17.24
293.227	36.01
293.442	36.01
293.657	-13.14
293.871	89.26
294.086	62.63
294.301	97.45
294.516	81.07
294.73	9.39
294.945	38.06
295.16	9.39
295.374	-33.62
295.589	15.53
295.804	15.53
296.018	13.48
296.233	74.92
296.447	66.73
296.662	38.06
296.877	15.53
297.091	27.82
297.306	15.53
297.52	19.63
297.735	-56.15
297.949	46.25
298.164	3.24
298.378	46.25
298.593	21.67
298.807	31.91
299.022	21.67
299.236	107.69
299.451	62.63
299.665	17.58
299.88	13.48
300.094	40.11
300.309	64.68
300.523	1.19
300.737	58.54
300.952	66.73
301.166	54.44
301.381	52.39
301.595	21.67
301.809	46.25
302.024	101.55
302.238	11.43
302.452	42.15
302.667	29.87
302.881	62.63
303.095	54.44
303.309	179.37
303.524	15.53
303.738	42.15
303.952	15.53
304.166	46.25
304.381	7.34
304.595	7.34
304.809	27.82
305.023	91.31
305.237	33.96
305.452	-29.52
305.666	7.34
305.88	74.92
306.094	40.11
306.308	27.82
306.522	23.72
306.736	11.43
306.95	52.39
307.164	-2.9
307.379	23.72
307.593	70.83
307.807	111.78
308.021	38.06
308.235	72.87
308.449	15.53
308.663	15.53
308.877	95.4
309.091	7.34
309.305	-15.19
309.519	-4.95
309.733	5.29
309.947	17.58
310.161	40.11
310.374	21.67
310.588	97.45
310.802	-47.96
311.016	7.34
311.23	-27.48
311.444	25.77
311.658	66.73
311.872	81.07
312.085	79.02
312.299	115.88
312.513	-47.96
312.727	46.25
312.941	38.06
313.154	33.96
313.368	54.44
313.582	48.3
313.796	58.54
314.009	-19.29
314.223	25.77
314.437	9.39
314.651	17.58
314.864	-0.85
315.078	15.53
315.292	11.43
315.505	1.19
315.719	7.34
315.933	19.63
316.146	25.77
316.36	25.77
316.573	13.48
316.787	50.35
317.001	1.19
317.214	21.67
317.428	40.11
317.641	23.72
317.855	13.48
318.068	29.87
318.282	38.06
318.495	52.39
318.709	79.02
318.922	7.34
319.136	144.55
319.349	60.59
319.563	3.24
319.776	1.19
319.99	46.25
320.203	66.73
320.417	19.63
320.63	54.44
320.843	79.02
321.057	3.24
321.27	38.06
321.483	-13.14
321.697	124.07
321.91	52.39
322.124	-13.14
322.337	52.39
322.55	50.35
322.763	21.67
322.977	36.01
323.19	19.63
323.403	-4.95
323.617	76.97
323.83	7.34
324.043	79.02
324.256	33.96
324.469	3.24
324.683	101.55
324.896	48.3
325.109	48.3
325.322	-0.85
325.535	25.77
325.748	3.24
325.962	58.54
326.175	5.29
326.388	126.12
326.601	76.97
326.814	70.83
327.027	5.29
327.24	27.82
327.453	-27.48
327.666	31.91
327.879	15.53
328.092	52.39
328.305	13.48
328.518	83.11
328.731	36.01
328.944	46.25
329.157	62.63
329.37	62.63
329.583	52.39
329.796	52.39
330.009	-9.05
330.222	27.82
330.435	83.11
330.648	44.2
330.861	68.78
331.073	-0.85
331.286	83.11
331.499	23.72
331.712	21.67
331.925	-4.95
332.138	76.97
332.35	83.11
332.563	-84.82
332.776	25.77
332.989	36.01
333.202	109.74
333.414	27.82
333.627	21.67
333.84	-2.9
334.053	-21.33
334.265	-29.52
334.478	13.48
334.691	-0.85
334.903	17.58
335.116	15.53
335.329	-0.85
335.541	17.58
335.754	115.88
335.966	113.83
336.179	70.83
336.392	13.48
336.604	21.67
336.817	5.29
337.029	52.39
337.242	-13.14
337.454	124.07
337.667	44.2
337.88	91.31
338.092	-9.05
338.305	46.25
338.517	44.2
338.729	7.34
338.942	33.96
339.154	46.25
339.367	50.35
339.579	70.83
339.792	3.24
340.004	-9.05
340.217	-31.57
340.429	25.77
340.641	40.11
340.854	27.82
341.066	36.01
341.278	103.59
341.491	70.83
341.703	68.78
341.915	-29.52
342.128	42.15
342.34	13.48
342.552	68.78
342.764	33.96
342.977	9.39
343.189	27.82
343.401	-43.86
343.613	-7
343.826	36.01
344.038	23.72
344.25	87.21
344.462	68.78
344.674	15.53
344.886	103.59
345.099	66.73
345.311	27.82
345.523	31.91
345.735	36.01
345.947	76.97
346.159	74.92
346.371	46.25
346.583	23.72
346.795	93.35
347.007	58.54
347.219	52.39
347.431	36.01
347.643	89.26
347.855	31.91
348.067	54.44
348.279	44.2
348.491	11.43
348.703	54.44
348.915	50.35
349.127	9.39
349.339	50.35
349.551	79.02
349.763	81.07
349.975	40.11
350.187	54.44
350.399	193.7
350.61	11.43
350.822	-33.62
351.034	-7
351.246	-2.9
351.458	93.35
351.669	42.15
351.881	107.69
352.093	44.2
352.305	87.21
352.517	74.92
352.728	42.15
352.94	64.68
353.152	19.63
353.363	21.67
353.575	70.83
353.787	101.55
353.999	-7
354.21	48.3
354.422	15.53
354.633	-13.14
354.845	103.59
355.057	7.34
355.268	50.35
355.48	74.92
355.692	54.44
355.903	40.11
356.115	44.2
356.326	33.96
356.538	27.82
356.749	76.97
356.961	19.63
357.172	17.58
357.384	79.02
357.595	15.53
357.807	-68.44
358.018	27.82
358.23	87.21
358.441	74.92
358.653	122.02
358.864	44.2
359.075	36.01
359.287	33.96
359.498	60.59
359.709	48.3
359.921	-2.9
360.132	60.59
360.344	109.74
360.555	-11.09
360.766	87.21
360.977	15.53
361.189	23.72
361.4	33.96
361.611	85.16
361.823	-13.14
362.034	72.87
362.245	5.29
362.456	52.39
362.667	23.72
362.879	42.15
363.09	25.77
363.301	7.34
363.512	83.11
363.723	97.45
363.935	156.84
364.146	-4.95
364.357	40.11
364.568	107.69
364.779	93.35
364.99	62.63
365.201	89.26
365.412	58.54
365.623	-2.9
365.834	117.93
366.045	68.78
366.256	21.67
366.467	15.53
366.678	38.06
366.889	29.87
367.1	-4.95
367.311	40.11
367.522	54.44
367.733	-17.24
367.944	81.07
368.155	42.15
368.366	136.36
368.577	58.54
368.788	83.11
368.999	66.73
369.209	99.5
369.42	36.01
369.631	142.5
369.842	40.11
370.053	58.54
370.264	56.49
370.474	97.45
370.685	128.17
370.896	89.26
371.107	68.78
371.317	48.3
371.528	91.31
371.739	89.26
371.95	38.06
372.16	126.12
372.371	-52.05
372.582	31.91
372.792	-29.52
373.003	68.78
373.214	-72.53
373.424	107.69
373.635	31.91
373.846	7.34
374.056	109.74
374.267	48.3
374.477	23.72
374.688	5.29
374.898	79.02
375.109	38.06
375.319	36.01
375.53	64.68
375.74	48.3
375.951	56.49
376.161	17.58
376.372	83.11
376.582	38.06
376.793	21.67
377.003	48.3
377.214	58.54
377.424	13.48
377.635	64.68
377.845	52.39
378.055	95.4
378.266	-35.67
378.476	-0.85
378.686	54.44
378.897	25.77
379.107	83.11
379.317	167.08
379.528	9.39
379.738	167.08
379.948	52.39
380.158	107.69
380.369	13.48
380.579	21.67
380.789	-21.33
380.999	113.83
381.21	91.31
381.42	95.4
381.63	44.2
381.84	68.78
382.05	101.55
382.261	140.46
382.471	66.73
382.681	101.55
382.891	68.78
383.101	40.11
383.311	91.31
383.521	21.67
383.731	60.59
383.941	76.97
384.151	81.07
384.361	66.73
384.571	48.3
384.781	85.16
384.991	19.63
385.201	95.4
385.411	85.16
385.621	36.01
385.831	50.35
386.041	36.01
386.251	79.02
386.461	38.06
386.671	81.07
386.881	101.55
387.091	50.35
387.301	70.83
387.511	31.91
387.72	126.12
387.93	81.07
388.14	60.59
388.35	105.64
388.56	103.59
388.769	89.26
388.979	70.83
389.189	62.63
389.399	134.31
389.609	101.55
389.818	23.72
390.028	79.02
390.238	140.46
390.447	38.06
390.657	70.83
390.867	29.87
391.076	-29.52
391.286	83.11
391.496	60.59
391.705	119.98
391.915	85.16
392.125	58.54
392.334	56.49
392.544	42.15
392.753	54.44
392.963	85.16
393.172	38.06
393.382	44.2
393.591	111.78
393.801	93.35
394.01	44.2
394.22	130.22
394.429	74.92
394.639	48.3
394.848	101.55
395.058	72.87
395.267	89.26
395.477	76.97
395.686	189.61
395.895	91.31
396.105	179.37
396.314	160.94
396.524	83.11
396.733	122.02
396.942	89.26
397.152	136.36
397.361	113.83
397.57	62.63
397.78	54.44
397.989	132.26
398.198	154.79
398.407	101.55
398.617	111.78
398.826	60.59
399.035	60.59
399.244	62.63
399.453	140.46
399.663	64.68
399.872	105.64
400.081	122.02
400.29	148.65
400.499	162.98
400.708	150.7
400.917	113.83
401.127	111.78
401.336	60.59
401.545	93.35
401.754	142.5
401.963	105.64
402.172	60.59
402.381	154.79
402.59	179.37
402.799	85.16
403.008	117.93
403.217	107.69
403.426	113.83
403.635	134.31
403.844	169.13
404.053	105.64
404.262	58.54
404.471	226.47
404.68	162.98
404.888	122.02
405.097	173.22
405.306	169.13
405.515	244.9
405.724	152.74
405.933	169.13
406.142	138.41
406.35	136.36
406.559	175.27
406.768	251.05
406.977	193.7
407.185	255.14
407.394	240.81
407.603	201.9
407.812	304.29
408.02	259.24
408.229	292.01
408.438	228.52
408.646	279.72
408.855	310.44
409.064	285.86
409.272	255.14
409.481	363.69
409.69	304.29
409.898	365.73
410.107	298.15
410.315	289.96
410.524	439.46
410.733	279.72
410.941	396.45
411.15	328.87
411.358	347.3
411.567	455.84
411.775	404.64
411.984	386.21
412.192	504.99
412.401	476.32
412.609	509.09
412.818	461.99
413.026	562.34
413.234	523.43
413.443	650.4
413.651	548
413.86	623.78
414.068	642.21
414.276	687.26
414.485	750.75
414.693	703.65
414.901	756.9
415.11	812.19
415.318	799.9
415.526	793.76
415.734	783.52
415.943	890.01
416.151	894.11
416.359	953.5
416.567	928.92
416.776	980.12
416.984	1033.37
417.192	992.41
417.4	1059.99
417.608	1062.04
417.817	1125.53
418.025	1115.29
418.233	1344.66
418.441	1195.16
418.649	1270.94
418.857	1379.48
419.065	1442.96
419.273	1389.72
419.481	1416.34
419.689	1551.51
419.897	1674.39
420.105	1610.9
420.313	1787.02
420.521	1694.86
420.729	1737.87
420.937	1864.85
421.145	1936.53
421.353	2026.64
421.561	2098.31
421.769	2213
421.977	2280.58
422.185	2190.47
422.393	2378.89
422.601	2442.37
422.809	2569.35
423.017	2446.47
423.224	2591.88
423.432	2724.99
423.64	2630.79
423.848	2999.42
424.056	2991.23
424.263	3257.46
424.471	3175.55
424.679	3234.94
424.887	3279.99
425.094	3464.31
425.302	3486.84
425.51	3572.85
425.718	3748.98
425.925	3705.97
426.133	3955.82
426.341	4113.52
426.548	4359.27
426.756	4263.02
426.964	4404.33
427.171	4621.41
427.379	4709.47
427.586	4783.2
427.794	4883.55
428.001	5205.08
428.209	5477.46
428.417	5385.3
428.624	5647.44
428.832	5688.4
429.039	5672.02
429.247	5801.04
429.454	6403.14
429.662	6493.26
429.869	6247.5
430.076	6620.23
430.284	6358.09
430.491	6644.81
430.699	7306.3
430.906	7218.24
431.114	7330.87
431.321	7363.64
431.528	7648.31
431.736	8195.12
431.943	8461.35
432.15	8279.08
432.358	8475.69
432.565	8733.73
432.772	9014.31
432.979	9278.49
433.187	9286.68
433.394	9614.36
433.601	10118.16
433.808	10267.66
434.016	10005.52
434.223	10730.5
434.43	11183.1
434.637	10744.84
434.844	11510.78
435.052	11768.82
435.259	11709.43
435.466	11887.61
435.673	11910.13
435.88	12522.48
436.087	13052.9
436.294	12903.4
436.501	12831.72
436.708	13257.7
436.915	13616.09
437.122	14148.56
437.329	14058.45
437.537	14427.09
437.743	14857.16
437.95	14556.11
438.157	15340.48
438.364	16126.9
438.571	15977.4
438.778	15891.38
438.985	17482.66
439.192	16860.07
439.399	17589.15
439.606	17044.39
439.813	17595.29
440.02	18987.91
440.227	18535.31
440.433	18504.59
440.64	19096.46
440.847	19231.62
441.054	19360.64
441.261	20771.69
441.467	20788.08
441.674	20845.42
441.881	21904.22
442.088	21742.43
442.294	21425
442.501	21932.89
442.708	22688.59
442.914	23173.96
443.121	24376.12
443.328	23538.5
443.534	25561.89
443.741	24597.3
443.948	24316.73
444.154	26379.03
444.361	25850.66
444.568	26385.18
444.774	26186.52
444.981	26430.23
445.187	27128.59
445.394	28269.31
445.6	27970.3
445.807	30675.67
446.013	29119.21
446.22	29776.61
446.426	30825.17
446.633	31310.54
446.839	32328.38
447.046	31091.41
447.252	32522.94
447.459	32641.72
447.665	32455.36
447.871	34040.48
448.078	35551.88
448.284	33944.23
448.491	34534.04
448.697	36035.2
448.903	36291.2
449.11	36733.56
449.316	36203.14
449.522	36778.62
449.728	37818.99
449.935	37835.37
450.141	38089.32
450.347	38922.84
450.553	37640.81
450.76	38189.67
450.966	39379.54
451.172	39066.2
451.378	39606.86
451.584	38795.87
451.791	40299.08
451.997	39627.34
452.203	40505.92
452.409	40327.75
452.615	39961.16
452.821	38955.61
453.027	38234.72
453.233	40360.51
453.44	38851.16
453.646	38754.91
453.852	39074.39
454.058	40286.79
454.264	38629.98
454.47	39387.73
454.676	38261.35
454.882	39621.2
455.088	36127.36
455.294	36809.34
455.5	37069.43
455.705	37667.44
455.911	36397.7
456.117	35410.57
456.323	34841.24
456.529	33340.08
456.735	34869.91
456.941	33686.18
457.147	33348.27
457.352	32176.83
457.558	31406.8
457.764	31728.33
457.97	30950.1
458.176	30491.35
458.381	30550.74
458.587	28695.28
458.793	29090.54
458.999	27384.58
459.204	29401.83
459.41	28349.18
459.616	26813.2
459.821	26774.29
460.027	26360.6
460.233	26327.83
460.438	24681.27
460.644	25303.85
460.85	23774.02
461.055	23458.63
461.261	23513.92
461.466	21939.04
461.672	21154.66
461.878	22418.26
462.083	20884.33
462.289	20659.06
462.494	20462.45
462.7	19880.83
462.905	19112.84
463.111	19688.32
463.316	19641.21
463.522	19323.78
463.727	19329.92
463.932	19207.05
464.138	19260.29
464.343	18998.15
464.549	18645.9
464.754	19262.34
464.959	19026.82
465.165	18869.13
465.37	18135.96
465.575	17785.76
465.781	18269.08
465.986	18512.78
466.191	17898.39
466.397	17476.51
466.602	16735.15
466.807	17267.62
467.012	17195.94
467.218	16810.92
467.423	16829.35
467.628	17185.7
467.833	18035.61
468.038	17167.27
468.244	16690.09
468.449	17298.34
468.654	16608.17
468.859	16552.88
469.064	16614.32
469.269	15795.13
469.474	16141.24
469.679	16196.53
469.885	15688.64
470.09	16069.56
470.295	15827.9
470.5	15434.69
470.705	15473.6
470.91	15154.12
471.115	15072.2
471.32	15223.75
471.525	15207.36
471.73	14785.48
471.935	14644.17
472.139	14218.19
472.344	14236.63
472.549	14080.98
472.754	14355.41
472.959	13630.43
473.164	13503.45
473.369	13370.33
473.574	13667.29
473.778	13624.28
473.983	13472.73
474.188	13419.49
474.393	12774.38
474.598	12844.01
474.802	12999.65
475.007	12907.49
475.212	13050.85
475.417	12344.3
475.621	12082.16
475.826	12391.41
476.031	12190.7
476.235	11731.96
476.44	11953.14
476.645	11764.73
476.849	11774.97
477.054	11750.39
477.259	11355.13
477.463	11443.2
477.668	10972.16
477.872	11244.54
478.077	10916.87
478.282	10765.32
478.486	10646.54
478.691	10685.45
478.895	10750.98
479.1	10722.31
479.304	10669.06
479.509	10472.46
479.713	10556.43
479.918	10456.08
480.122	10148.88
480.326	10300.43
480.531	10200.08
480.735	10077.2
480.94	9985.04
481.144	10374.16
481.348	9679.89
481.553	9933.84
481.757	9688.09
481.961	10187.79
482.166	9958.42
482.37	10040.34
482.574	9722.9
482.778	9837.59
482.983	9989.14
483.187	9974.8
483.391	9864.21
483.595	9720.85
483.8	9557.02
484.004	10019.86
484.208	9677.85
484.412	9708.57
484.616	9894.93
484.821	9819.16
485.025	9694.23
485.229	10048.53
485.433	9761.81
485.637	9800.73
485.841	9489.43
486.045	9761.81
486.249	9710.61
486.453	9802.77
486.657	9864.21
486.861	9868.31
487.065	9741.33
487.269	9735.19
487.473	9518.11
487.677	9817.11
487.881	9894.93
488.085	9612.31
488.289	9874.45
488.493	9839.64
488.697	9905.17
488.901	9921.56
489.105	9770.01
489.309	9882.64
489.512	9985.04
489.716	9927.7
489.92	9753.62
490.124	9808.92
490.328	9995.28
490.531	9870.36
490.735	9894.93
490.939	10017.81
491.143	9968.66
491.346	10042.39
491.55	10263.57
491.754	10238.99
491.958	10097.68
492.161	10214.41
492.365	10296.33
492.569	10386.44
492.772	10267.66
492.976	10437.64
493.18	10339.34
493.383	10646.54
493.587	10476.55
493.79	10695.69
493.994	10482.7
494.197	10761.22
494.401	10873.86
494.605	10787.85
494.808	10841.09
495.012	10865.67
495.215	11119.62
495.419	11207.68
495.622	10925.06
495.825	11379.71
496.029	11119.62
496.232	11568.12
496.436	11541.5
496.639	11912.18
496.843	11658.23
497.046	12010.48
497.249	12022.77
497.453	12012.53
497.656	12211.18
497.859	12309.49
498.063	12323.82
498.266	12545
498.469	12514.28
498.673	12729.32
498.876	12823.53
499.079	13024.23
499.282	13100
499.485	13288.42
499.689	13321.18
499.892	13650.91
500.095	13609.95
500.298	13870.04
500.501	13702.11
500.705	14191.57
500.908	14408.65
501.111	14371.79
501.314	14382.03
501.517	14760.91
501.72	14742.47
501.923	14857.16
502.126	15299.52
502.329	15451.07
502.532	15520.7
502.735	15479.74
502.938	15801.27
503.141	15905.72
503.344	16161.72
503.547	16311.22
503.75	16413.62
503.953	16483.25
504.156	16772.01
504.359	16870.31
504.562	17060.77
504.765	17683.36
504.968	17531.81
505.17	17888.15
505.373	17740.7
505.576	17937.3
505.779	18410.39
505.982	18373.52
506.185	18551.7
506.387	18658.19
506.59	18895.75
506.793	19078.02
506.996	19205
507.198	19661.69
507.401	19411.84
507.604	19848.06
507.807	20263.8
508.009	20253.56
508.212	20470.64
508.415	20738.93
508.617	20829.04
508.82	20953.96
509.022	21056.36
509.225	21451.62
509.428	21320.55
509.63	21674.85
509.833	21889.88
510.035	22539.09
510.238	22184.79
510.44	22778.7
510.643	23016.27
510.845	23358.28
511.048	23147.34
511.25	23350.09
511.453	23239.5
511.655	24400.69
511.858	23935.81
512.06	24146.75
512.262	24593.2
512.465	24343.35
512.667	24789.81
512.87	24994.61
513.072	25146.15
513.274	25629.48
513.477	25844.51
513.679	26245.91
513.881	26510.1
514.084	26702.61
514.286	26278.68
514.488	26725.14
514.69	27384.58
514.893	27288.33
515.095	27630.34
515.297	27654.92
515.499	27886.34
515.701	28377.85
515.904	28644.09
516.106	28734.2
516.308	28969.71
516.51	29063.92
516.712	29254.38
516.914	29418.22
517.116	29809.38
517.318	30143.2
517.52	30128.86
517.722	30597.85
517.925	30685.91
518.127	30939.86
518.329	31365.84
518.531	30972.63
518.733	31716.04
518.935	31562.44
519.136	32219.84
519.338	32449.21
519.54	32633.53
519.742	33049.27
519.944	32924.34
520.146	33278.64
520.348	33303.21
520.55	33530.54
520.752	33657.51
520.954	33929.89
521.155	34163.36
521.357	34560.67
521.559	34642.59
521.761	35697.29
521.963	35256.98
522.164	35623.56
522.366	35383.95
522.568	36311.68
522.77	35990.15
522.971	36407.94
523.173	36428.41
523.375	36733.56
523.576	36608.64
523.778	36743.8
523.98	37155.44
524.181	37194.36
524.383	37552.75
524.584	37642.86
524.786	38019.69
524.988	37761.64
525.189	38687.32
525.391	38330.98
525.592	38199.91
525.794	38421.09
525.995	38603.36
526.197	38963.8
526.398	38580.83
526.6	38724.19
526.801	39199.32
527.003	39688.78
527.204	39502.42
527.406	39684.69
527.607	39596.62
527.808	40163.91
528.01	39617.1
528.211	39774.8
528.412	40825.4
528.614	40751.68
528.815	40534.59
529.016	40712.77
529.218	40374.85
529.419	40524.35
529.62	40469.06
529.822	40761.92
530.023	40596.03
530.224	40673.85
530.425	40782.4
530.626	40452.67
530.828	40452.67
531.029	41183.8
531.23	40688.19
531.431	40847.93
531.632	40919.61
531.833	41275.96
532.035	41091.64
532.236	40794.68
532.437	41073.21
532.638	41198.13
532.839	41185.85
533.04	41316.92
533.241	40698.43
533.442	41585.2
533.643	41257.53
533.844	41828.91
534.045	41411.12
534.246	40723.01
534.447	41361.97
534.648	41359.92
534.849	41697.84
535.05	41011.77
535.251	41581.1
535.451	41093.69
535.652	41384.5
535.853	41153.08
536.054	41042.49
536.255	41460.27
536.456	40970.81
536.657	41699.89
536.857	41339.44
537.058	40989.24
537.259	41490.99
537.46	41452.08
537.66	41200.18
537.861	40895.03
538.062	41087.54
538.263	41294.39
538.463	41202.23
538.664	41462.32
538.865	41425.46
539.065	41542.19
539.266	40858.17
539.466	41351.73
539.667	40989.24
539.868	41366.07
540.068	41191.99
540.269	41151.03
540.469	41220.66
540.67	40723.01
540.87	41091.64
541.071	40800.83
541.271	40950.33
541.472	41071.16
541.672	40591.94
541.873	40880.7
542.073	40335.94
542.274	41179.7
542.474	40698.43
542.675	40524.35
542.875	41128.5
543.075	40968.76
543.276	40325.7
543.476	40931.9
543.676	40731.2
543.877	40847.93
544.077	40614.46
544.277	40827.45
544.478	40931.9
544.678	40747.58
544.878	40352.32
545.078	40641.09
545.279	40542.78
545.479	40493.63
545.679	40739.39
545.879	40645.18
546.079	40430.15
546.28	40553.02
546.48	40362.56
546.68	40446.53
546.88	40438.34
547.08	40452.67
547.28	40634.94
547.48	39950.92
547.68	40671.81
547.88	40616.51
548.081	40780.35
548.281	40274.5
548.481	40153.67
548.681	40096.33
548.881	40448.58
549.081	40415.81
549.28	39979.59
549.48	40368.71
549.68	39803.47
549.88	40802.88
550.08	39764.56
550.28	40163.91
550.48	40251.97
550.68	40792.64
550.88	39977.54
551.08	40014.41
551.279	40024.65
551.479	39600.72
551.679	40163.91
551.879	39735.88
552.079	40626.75
552.278	39866.95
552.478	39754.32
552.678	39887.43
552.878	40063.56
553.077	39682.64
553.277	39420.5
553.477	40292.93
553.676	39854.67
553.876	39834.19
554.076	39613.01
554.275	40081.99
554.475	39608.91
554.674	39860.81
554.874	39574.09
555.074	39832.14
555.273	39770.7
555.473	39641.68
555.672	39731.79
555.872	39240.28
556.071	39713.36
556.271	40145.48
556.47	39027.29
556.67	39168.6
556.869	39574.09
557.068	39268.95
557.268	38720.09
557.467	39402.07
557.667	38945.37
557.866	38842.97
558.065	39119.45
558.265	38900.31
558.464	38460
558.663	39156.31
558.863	38449.76
559.062	39266.9
559.261	38799.96
559.461	39494.22
559.66	38589.02
559.859	38668.89
560.058	38416.99
560.258	38871.64
560.457	38611.55
560.656	38861.4
560.855	38249.06
561.054	38658.65
561.253	38427.23
561.453	38378.08
561.652	38453.86
561.851	38928.98
562.05	38181.48
562.249	37866.09
562.448	38079.08
562.647	38130.28
562.846	37864.04
563.045	38330.98
563.244	37556.85
563.443	38341.22
563.642	37538.41
563.841	38181.48
564.04	37499.5
564.239	38101.61
564.438	36862.58
564.637	37364.34
564.836	37362.29
565.035	37214.83
565.234	37532.27
565.432	36776.57
565.631	37257.84
565.83	36872.82
566.029	36829.82
566.228	37347.95
566.427	37071.48
566.625	36829.82
566.824	36397.7
567.023	37288.56
567.222	36328.06
567.42	36801.15
567.619	36676.22
567.818	36332.16
568.016	36053.64
568.215	36692.6
568.414	36158.08
568.612	36299.39
568.811	36209.28
569.01	36110.98
569.208	35844.74
569.407	36201.09
569.605	35465.87
569.804	36307.58
570.002	35719.82
570.201	35555.98
570.4	35431.05
570.598	35058.32
570.797	35414.67
570.995	35590.8
571.193	34701.98
571.392	35451.53
571.59	35087
571.789	34974.36
571.987	35422.86
572.186	35152.53
572.384	34947.73
572.582	34953.88
572.781	35148.43
572.979	34257.57
573.177	34572.96
573.376	34882.2
573.574	34499.23
573.772	34785.94
573.971	34044.58
574.169	33968.8
574.367	33749.67
574.565	34587.29
574.763	33944.23
574.962	34085.54
575.16	33413.8
575.358	34044.58
575.556	33292.97
575.754	33942.18
575.952	33198.77
576.151	33587.88
576.349	33254.06
576.547	32885.43
576.745	33231.54
576.943	33409.71
577.141	33092.27
577.339	33049.27
577.537	32633.53
577.735	32574.14
577.933	32412.35
578.131	32854.71
578.329	32344.77
578.527	32598.71
578.725	32588.47
578.923	32131.78
579.121	32395.96
579.319	31969.99
579.516	32234.17
579.714	32131.78
579.912	32043.71
580.11	32092.86
580.308	31740.61
580.506	31853.25
580.704	31351.5
580.901	31716.04
581.099	31914.69
581.297	31341.26
581.495	31191.76
581.692	31689.42
581.89	30978.77
582.088	31261.39
582.285	30941.91
582.483	31361.74
582.681	31212.24
582.878	30507.74
583.076	30335.71
583.274	30603.99
583.471	30249.69
583.669	30567.13
583.866	30253.79
584.064	30507.74
584.262	29715.17
584.459	30470.87
584.657	29915.87
584.854	30366.43
585.052	29569.77
585.249	29788.9
585.447	29801.19
585.644	29772.52
585.841	29700.84
586.039	29975.27
586.236	29207.28
586.434	29281
586.631	29074.16
586.828	28865.27
587.026	29145.84
587.223	28889.84
587.42	28844.79
587.618	29154.03
587.815	28828.4
588.012	28814.07
588.21	28889.84
588.407	28932.85
588.604	28312.31
588.801	28353.27
588.999	28269.31
589.196	28183.29
589.393	28171
589.59	27876.1
589.787	28121.85
589.984	28164.86
590.182	27685.64
590.379	27892.48
590.576	27788.03
590.773	27503.37
590.97	27237.13
591.167	27540.23
591.364	27147.02
591.561	27261.71
591.758	27181.84
591.955	27159.31
592.152	27460.36
592.349	27171.6
592.546	27085.58
592.743	27015.95
592.94	26604.31
593.137	26639.12
593.334	27042.57
593.531	26114.84
593.727	26512.15
593.924	26395.42
594.121	26120.99
594.318	26368.79
594.515	26080.03
594.712	26258.2
594.908	25989.92
595.105	25938.72
595.302	25664.29
595.499	26051.36
595.696	25654.05
595.892	25707.3
596.089	25627.43
596.286	25629.48
596.482	25447.21
596.679	25492.26
596.876	25305.9
597.072	25062.19
597.269	25258.79
597.466	24939.31
597.662	25266.99
597.859	24937.26
598.055	25113.39
598.252	24533.81
598.448	24732.47
598.645	24658.74
598.841	24499
599.038	24537.91
599.234	24228.66
599.431	24113.98
599.627	23978.81
599.824	24122.17
600.02	24009.53
600.217	24150.84
600.413	23759.68
600.609	23636.8
600.806	23743.3
601.002	23636.8
601.198	23573.31
601.395	23393.09
601.591	23450.44
601.787	23436.1
601.984	23696.19
602.18	23475.01
602.376	23079.75
602.572	23075.66
602.769	23063.37
602.965	22790.99
603.161	23059.27
603.357	22487.89
603.553	22756.18
603.75	22702.93
603.946	22633.3
604.142	22784.85
604.338	22039.39
604.534	22764.37
604.73	22233.94
604.926	22121.31
605.122	21984.09
605.318	21990.24
605.514	22063.96
605.71	22082.39
605.906	21951.32
606.102	22100.83
606.298	21982.04
606.494	21754.72
606.69	21533.54
606.886	22037.34
607.082	21545.83
607.278	21535.59
607.474	21166.95
607.67	21431.14
607.866	21316.45
608.062	21511.01
608.257	21406.56
608.453	21158.76
608.649	21502.82
608.845	21263.21
609.041	21336.93
609.236	21265.25
609.432	20941.68
609.628	20769.65
609.824	20804.46
610.019	20765.55
610.215	21003.11
610.411	20849.52
610.606	20777.84
610.802	20845.42
610.998	20812.65
611.193	20857.71
611.389	20376.44
611.584	20728.69
611.78	20423.54
611.976	20501.36
612.171	20194.17
612.367	20247.41
612.562	20192.12
612.758	20245.37
612.953	20173.69
613.149	20315
613.344	19770.24
613.539	20218.74
613.735	20097.91
613.93	20198.26
614.126	19800.96
614.321	20056.95
614.517	19719.04
614.712	19929.98
614.907	19583.87
615.103	19944.31
615.298	19555.2
615.493	19874.68
615.688	19315.59
615.884	19925.88
616.079	19307.4
616.274	19647.36
616.47	19696.51
616.665	19460.99
616.86	19551.1
617.055	19272.58
617.25	19327.88
617.445	19272.58
617.641	18762.64
617.836	19112.84
618.031	18953.1
618.226	19073.93
618.421	18971.53
618.616	19145.61
618.811	18723.72
619.006	19184.52
619.201	18418.58
619.396	18721.68
619.591	18373.52
619.786	18658.19
619.981	18471.82
620.176	18482.06
620.371	18203.54
620.566	18199.44
620.761	17884.06
620.956	18346.9
621.151	17847.19
621.346	17970.07
621.541	17709.98
621.735	17761.18
621.93	17843.1
622.125	17566.62
622.32	17320.87
622.515	17302.43
622.709	17118.12
622.904	17034.15
623.099	17232.8
623.294	16970.66
623.488	17034.15
623.683	17044.39
623.878	16608.17
624.072	16731.05
624.267	16616.37
624.462	16456.62
624.656	16354.23
624.851	16411.57
625.046	16348.08
625.24	16274.35
625.435	15934.39
625.629	15842.23
625.824	15770.55
626.018	16073.65
626.213	15371.2
626.407	15735.74
626.602	15717.31
626.796	15481.79
626.991	15330.24
627.185	15377.34
627.38	15164.36
627.574	15096.77
627.768	15031.24
627.963	15080.39
628.157	14930.89
628.352	14891.98
628.546	14351.31
628.74	14924.74
628.935	14601.16
629.129	14496.72
629.323	14293.97
629.517	14046.16
629.712	14222.29
629.906	14142.42
630.1	13992.92
630.294	13886.42
630.489	13931.48
630.683	13929.43
630.877	13675.48
631.071	13718.49
631.265	13716.44
631.459	13583.32
631.653	13579.23
631.848	13292.51
632.042	13167.59
632.236	13265.89
632.43	13044.71
632.624	13407.2
632.818	12948.45
633.012	12819.43
633.206	12905.45
633.4	12813.29
633.594	12655.59
633.788	12817.38
633.982	12792.81
634.176	12760.04
634.369	12590.06
634.563	12596.2
634.757	12463.08
634.951	12458.99
635.145	12297.2
635.339	12391.41
635.533	12145.65
635.726	12063.73
635.92	12012.53
636.114	11990
636.308	11949.04
636.501	11926.52
636.695	12092.4
636.889	11424.76
637.083	11727.86
637.276	11455.48
637.47	11420.67
637.664	11455.48
637.857	11430.91
638.051	11385.85
638.244	11342.85
638.438	11330.56
638.632	11105.28
638.825	11121.66
639.019	10880
639.212	10935.3
639.406	10957.83
639.599	10785.8
639.793	10937.35
639.986	10736.65
640.18	10728.45
640.373	10728.45
640.567	10533.9
640.76	10542.09
640.954	10501.13
641.147	10519.56
641.34	10220.56
641.534	10292.24
641.727	10247.18
641.92	10288.14
642.114	10064.91
642.307	10060.82
642.5	9970.71
642.694	9899.03
642.887	9731.09
643.08	9874.45
643.273	9923.6
643.467	9743.38
643.66	9720.85
643.853	9761.81
644.046	9542.68
644.239	9624.6
644.432	9501.72
644.626	9337.88
644.819	9303.07
645.012	9309.21
645.205	9309.21
645.398	9120.8
645.591	8991.78
645.784	9112.61
645.977	9110.56
646.17	9178.14
646.363	9049.12
646.556	8946.72
646.749	8928.29
646.942	8944.67
647.135	8829.99
647.328	8703.01
647.521	8657.96
647.714	8555.56
647.907	8492.07
648.099	8498.22
648.292	8649.77
648.485	8594.47
648.678	8430.63
648.871	8334.38
649.064	8483.88
649.256	8434.73
649.449	8231.98
649.642	8227.89
649.835	8068.14
650.027	8164.4
650.22	8221.74
650.413	8053.81
650.605	7849.01
650.798	8006.7
650.991	7937.07
651.183	7937.07
651.376	7664.69
651.568	7861.3
651.761	7783.48
651.954	7912.5
652.146	7572.54
652.339	7724.08
652.531	7480.38
652.724	7439.42
652.916	7355.45
653.109	7420.99
653.301	7529.53
653.494	7564.34
653.686	7109.69
653.879	7296.06
654.071	7314.49
654.263	7226.43
654.456	7228.48
654.648	7246.91
654.84	7179.33
655.033	7042.11
655.225	7005.25
655.417	6870.08
655.61	6980.67
655.802	6917.19
655.994	6808.64
656.186	6962.24
656.379	6792.26
656.571	6835.27
656.763	6679.62
656.955	6775.88
657.148	6820.93
657.34	6638.66
657.532	6591.56
657.724	6562.89
657.916	6462.54
658.108	6464.58
658.3	6376.52
658.492	6487.11
658.684	6337.61
658.876	6276.17
659.068	6360.14
659.26	6118.48
659.452	6362.19
659.644	6241.36
659.836	6229.07
660.028	6294.6
660.22	6065.23
660.412	6022.22
660.604	6098
660.796	6179.92
660.988	5915.73
661.18	5950.54
661.372	5911.63
661.563	6048.85
661.755	5917.78
661.947	5919.82
662.139	5925.97
662.331	5848.15
662.522	5821.52
662.714	5594.2
662.906	5719.12
663.097	5717.08
663.289	5456.98
663.481	5651.54
663.673	5686.36
663.864	5489.75
664.056	5586.01
664.247	5565.53
664.439	5327.96
664.631	5424.22
664.822	5569.62
665.014	5581.91
665.205	5270.62
665.397	5409.88
665.588	5264.47
665.78	5377.11
665.971	5301.34
666.163	5284.95
666.354	5223.51
666.546	5069.92
666.737	5194.84
666.929	5278.81
667.12	5051.49
667.311	5006.43
667.503	4996.19
667.694	5002.33
667.885	5076.06
668.077	5006.43
668.268	4942.94
668.459	4959.33
668.651	4818.02
668.842	4916.32
669.033	4906.08
669.224	4883.55
669.416	4820.07
669.607	4727.91
669.798	4813.92
669.989	4727.91
670.18	4727.91
670.371	4805.73
670.563	4695.14
670.754	4723.81
670.945	4652.13
671.136	4623.46
671.327	4664.42
671.518	4639.84
671.709	4596.84
671.9	4607.08
672.091	4637.8
672.282	4494.44
672.473	4457.57
672.664	4502.63
672.855	4545.64
673.046	4500.58
673.237	4416.62
673.428	4330.6
673.619	4371.56
673.809	4238.44
674	4383.85
674.191	4414.57
674.382	4351.08
674.573	4246.63
674.764	4318.31
674.954	4332.65
675.145	4361.32
675.336	4248.68
675.527	4142.19
675.717	4172.91
675.908	4252.78
676.099	4140.14
676.289	4273.26
676.48	4209.77
676.671	4164.72
676.861	4076.65
677.052	4111.47
677.243	4058.22
677.433	4023.41
677.624	4117.61
677.814	4099.18
678.005	4265.07
678.195	4025.45
678.386	4140.14
678.576	3970.16
678.767	4021.36
678.957	3990.64
679.148	4009.07
679.338	4011.12
679.529	3941.49
679.719	3867.76
679.909	3961.97
680.1	3992.69
680.29	3980.4
680.481	3847.28
680.671	4023.41
680.861	3918.96
681.052	3861.62
681.242	4000.88
681.432	3861.62
681.622	3777.65
681.813	3857.52
682.003	3894.38
682.193	3806.32
682.383	3906.67
682.573	3859.57
682.764	3779.7
682.954	3775.6
683.144	3765.36
683.334	3867.76
683.524	3609.72
683.714	3894.38
683.904	3640.44
684.094	3992.69
684.284	3722.35
684.474	3673.2
684.664	3585.14
684.854	3814.51
685.044	3689.59
685.234	3619.96
685.424	3687.54
685.614	3558.52
685.804	3626.1
685.994	3570.8
686.184	3648.63
686.374	3646.58
686.564	3404.92
686.753	3529.84
686.943	3474.55
687.133	3554.42
687.323	3507.32
687.513	3435.64
687.702	3353.72
687.892	3361.91
688.082	3392.63
688.272	3466.36
688.461	3460.21
688.651	3359.86
688.841	3411.06
689.03	3366.01
689.22	3206.27
689.41	3290.23
689.599	3343.48
689.789	3329.14
689.979	3273.85
690.168	3320.95
690.358	3339.38
690.547	3249.27
690.737	3331.19
690.926	3144.83
691.116	3200.12
691.305	3310.71
691.495	3191.93
691.684	3175.55
691.874	3142.78
692.063	3185.79
692.252	2966.65
692.442	3011.71
692.631	3155.07
692.82	3038.33
693.01	3064.96
693.199	2989.18
693.388	3165.31
693.578	3081.34
693.767	2997.37
693.956	2915.45
694.146	3013.76
694.335	3026.04
694.524	3024
694.713	3048.57
694.902	2993.28
695.092	2940.03
695.281	2954.37
695.47	3032.19
695.659	2940.03
695.848	2989.18
696.037	2999.42
696.226	2972.8
696.415	2923.65
696.604	2917.5
696.793	2847.87
696.982	2903.17
697.171	2937.98
697.36	2913.41
697.549	2909.31
697.738	3009.66
697.927	2907.26
698.116	2905.21
698.305	2899.07
698.494	2821.25
698.683	2870.4
698.872	2868.35
699.061	2743.42
699.25	2892.93
699.438	2813.06
699.627	2876.54
699.816	2905.21
700.005	2696.32
700.193	2897.02
700.382	2831.49
700.571	2858.11
700.76	2835.58
700.948	2825.34
701.137	2770.05
701.326	2802.82
701.514	2847.87
701.703	2745.47
701.892	2854.02
702.08	2792.58
702.269	2860.16
702.457	2772.1
702.646	2817.15
702.834	2808.96
703.023	2811.01
703.212	2778.24
703.4	2825.34
703.589	2923.65
703.777	2692.23
703.965	2747.52
704.154	2788.48
704.342	2755.71
704.531	2851.97
704.719	2757.76
704.907	2774.14
705.096	2886.78
705.284	2909.31
705.472	2774.14
705.661	2802.82
705.849	2829.44
706.037	2837.63
706.226	2694.27
706.414	2649.22
706.602	2765.95
706.79	2892.93
706.979	2833.54
707.167	2811.01
707.355	2804.86
707.543	2759.81
707.731	2833.54
707.919	2749.57
708.107	2854.02
708.296	2882.69
708.484	2817.15
708.672	2757.76
708.86	2880.64
709.048	2925.69
709.236	2722.95
709.424	2792.58
709.612	2739.33
709.8	2649.22
709.988	2776.19
710.176	2827.39
710.364	2724.99
710.551	2702.47
710.739	2776.19
710.927	2673.79
711.115	2739.33
711.303	2866.3
711.491	2880.64
711.679	2759.81
711.866	2942.08
712.054	2788.48
712.242	2782.34
712.43	2813.06
712.617	2747.52
712.805	2821.25
712.993	2792.58
713.181	2765.95
713.368	2856.06
713.556	2806.91
713.744	2860.16
713.931	2792.58
714.119	2755.71
714.306	2796.67
714.494	2743.42
714.682	2710.66
714.869	2751.62
715.057	2647.17
715.244	2778.24
715.432	2829.44
715.619	2755.71
715.807	2677.89
715.994	2772.1
716.182	2890.88
716.369	2833.54
716.556	2817.15
716.744	2854.02
716.931	2684.03
717.119	2790.53
717.306	2768
717.493	2768
717.681	2788.48
717.868	2714.75
718.055	2833.54
718.242	2753.66
718.43	2722.95
718.617	2608.26
718.804	2751.62
718.991	2776.19
719.179	2727.04
719.366	2714.75
719.553	2743.42
719.74	2741.38
719.927	2606.21
720.114	2741.38
720.301	2694.27
720.488	2681.99
720.676	2618.5
720.863	2694.27
721.05	2755.71
721.237	2684.03
721.424	2624.64
721.611	2782.34
721.798	2659.46
721.985	2595.97
722.172	2636.93
722.358	2702.47
722.545	2757.76
722.732	2800.77
722.919	2569.35
723.106	2794.62
723.293	2692.23
723.48	2704.51
723.667	2675.84
723.853	2720.9
724.04	2706.56
724.227	2700.42
724.414	2632.83
724.6	2622.59
724.787	2700.42
724.974	2649.22
725.161	2655.36
725.347	2606.21
725.534	2739.33
725.72	2634.88
725.907	2616.45
726.094	2571.4
726.28	2552.96
726.467	2544.77
726.653	2569.35
726.84	2634.88
727.027	2729.09
727.213	2528.39
727.4	2657.41
727.586	2618.5
727.773	2528.39
727.959	2712.71
728.145	2612.35
728.332	2575.49
728.518	2706.56
728.705	2602.11
728.891	2555.01
729.077	2532.48
729.264	2491.52
729.45	2557.06
729.636	2727.04
729.823	2618.5
730.009	2548.87
730.195	2542.72
730.382	2540.68
730.568	2415.75
730.754	2540.68
730.94	2585.73
731.126	2464.9
731.313	2538.63
731.499	2593.92
731.685	2708.61
731.871	2587.78
732.057	2548.87
732.243	2530.44
732.429	2509.96
732.615	2452.61
732.801	2507.91
732.987	2499.72
733.173	2645.12
733.359	2337.93
733.545	2477.19
733.731	2485.38
733.917	2669.7
734.103	2442.37
734.289	2538.63
734.475	2475.14
734.661	2522.24
734.847	2407.56
735.033	2520.2
735.219	2514.05
735.404	2557.06
735.59	2452.61
735.776	2567.3
735.962	2581.64
736.148	2536.58
736.333	2483.33
736.519	2356.36
736.705	2548.87
736.89	2352.26
737.076	2440.33
737.262	2417.8
737.447	2362.5
737.633	2346.12
737.819	2454.66
738.004	2415.75
738.19	2333.83
738.375	2434.18
738.561	2466.95
738.747	2292.87
738.932	2395.27
739.118	2380.93
739.303	2258.06
739.489	2409.61
739.674	2317.45
739.859	2389.13
740.045	2378.89
740.23	2362.5
740.416	2239.62
740.601	2319.5
740.786	2120.84
740.972	2243.72
741.157	2339.97
741.342	2227.34
741.528	2315.4
741.713	2262.15
741.898	2268.3
742.084	2237.58
742.269	2223.24
742.454	2266.25
742.639	2206.86
742.824	2233.48
743.01	2356.36
743.195	2243.72
743.38	2157.71
743.565	2159.75
743.75	2198.67
743.935	2116.75
744.12	2067.6
744.305	2133.13
744.49	2028.68
744.675	2167.95
744.86	2045.07
745.045	2149.51
745.23	2040.97
745.415	2069.64
745.6	2030.73
745.785	2106.51
745.97	2129.03
746.155	2006.16
746.34	2077.83
746.525	2106.51
746.71	2028.68
746.895	1893.52
747.079	1899.66
747.264	1987.72
747.449	2016.4
747.634	1940.62
747.819	1889.42
748.003	1846.41
748.188	1856.65
748.373	1930.38
748.557	1766.54
748.742	1825.93
748.927	1797.26
749.111	1836.17
749.296	1883.28
749.481	1762.45
749.665	1848.46
749.85	1719.44
750.034	1830.03
750.219	1758.35
750.404	1856.65
750.588	1830.03
750.773	1709.2
750.957	1780.88
751.141	1709.2
751.326	1768.59
751.51	1823.89
751.695	1658
751.879	1705.1
752.064	1827.98
752.248	1633.43
752.432	1645.71
752.617	1643.67
752.801	1533.08
752.985	1668.24
753.17	1543.32
753.354	1627.28
753.538	1475.73
753.722	1514.64
753.907	1508.5
754.091	1516.69
754.275	1385.62
754.459	1496.21
754.643	1547.41
754.828	1465.49
755.012	1383.57
755.196	1506.45
755.38	1383.57
755.564	1512.6
755.748	1533.08
755.932	1387.67
756.116	1371.29
756.3	1438.87
756.484	1445.01
756.668	1436.82
756.852	1272.98
757.036	1356.95
757.22	1399.96
757.404	1295.51
757.588	1291.41
757.772	1262.74
757.956	1217.69
758.14	1340.57
758.323	1258.65
758.507	1260.7
758.691	1359
758.875	1297.56
759.059	1279.13
759.242	1309.85
759.426	1205.4
759.61	1203.35
759.794	1201.3
759.977	1197.21
760.161	1143.96
760.345	1152.15
760.528	1164.44
760.712	1139.87
760.895	1191.06
761.079	1068.19
761.263	1162.39
761.446	1205.4
761.63	1119.39
761.813	1137.82
761.997	1221.78
762.18	1246.36
762.364	1117.34
762.547	1125.53
762.731	1164.44
762.914	1178.78
763.098	1041.56
763.281	1094.81
763.464	1039.51
763.648	1068.19
763.831	1088.67
764.015	1076.38
764.198	1123.48
764.381	1094.81
764.564	978.08
764.748	1133.72
764.931	1078.43
765.114	1084.57
765.297	1109.15
765.481	1008.8
765.664	994.46
765.847	1047.71
766.03	1090.71
766.213	988.32
766.397	1076.38
766.58	963.74
766.763	1088.67
766.946	1053.85
767.129	982.17
767.312	980.12
767.495	1057.95
767.678	986.27
767.861	1014.94
768.044	949.4
768.227	973.98
768.41	959.64
768.593	969.88
768.776	947.36
768.959	965.79
769.142	1010.84
769.324	939.16
769.507	996.51
769.69	951.45
769.873	955.55
770.056	916.64
770.239	947.36
770.421	949.4
770.604	902.3
770.787	957.6
770.97	924.83
771.152	894.11
771.335	826.53
771.518	865.44
771.7	869.53
771.883	838.81
772.066	816.29
772.248	898.2
772.431	861.34
772.613	801.95
772.796	750.75
772.978	914.59
773.161	799.9
773.343	861.34
773.526	783.52
773.708	744.61
773.891	728.22
774.073	838.81
774.256	720.03
774.438	799.9
774.621	849.05
774.803	758.94
774.985	861.34
775.168	748.7
775.35	740.51
775.532	785.57
775.715	703.65
775.897	724.13
776.079	826.53
776.261	722.08
776.444	679.07
776.626	740.51
776.808	746.66
776.99	687.26
777.173	646.3
777.355	674.98
777.537	732.32
777.719	773.28
777.901	629.92
778.083	662.69
778.265	652.45
778.447	783.52
778.629	640.16
778.811	670.88
778.993	586.91
779.175	740.51
779.357	662.69
779.539	648.35
779.721	566.43
779.903	664.74
780.085	623.78
780.267	621.73
780.449	582.82
780.631	611.49
780.812	646.3
780.994	568.48
781.176	664.74
781.358	525.47
781.54	545.95
781.721	677.02
781.903	609.44
782.085	607.39
782.267	572.58
782.448	531.62
782.63	646.3
782.812	597.15
782.993	605.35
783.175	603.3
783.357	533.67
783.538	500.9
783.72	466.08
783.901	513.19
784.083	496.8
784.264	472.23
784.446	447.65
784.627	533.67
784.809	533.67
784.99	531.62
785.172	453.8
785.353	476.32
785.535	431.27
785.716	451.75
785.897	539.81
786.079	494.76
786.26	562.34
786.441	507.04
786.623	435.36
786.804	480.42
786.985	406.69
787.167	525.47
787.348	455.84
787.529	482.47
787.71	457.89
787.891	496.8
788.073	416.93
788.254	408.74
788.435	400.55
788.616	437.41
788.797	502.95
788.978	464.04
789.159	404.64
789.34	404.64
789.522	388.26
789.703	394.4
789.884	390.31
790.065	455.84
790.246	429.22
790.427	386.21
790.607	498.85
790.788	400.55
790.969	384.16
791.15	392.36
791.331	400.55
791.512	406.69
791.693	324.77
791.874	416.93
792.054	347.3
792.235	298.15
792.416	287.91
792.597	283.81
792.778	337.06
792.958	398.5
793.139	363.69
793.32	328.87
793.5	312.49
793.681	378.02
793.862	394.4
794.042	330.92
794.223	289.96
794.404	257.19
794.584	298.15
794.765	310.44
794.945	306.34
795.126	371.88
795.306	330.92
795.487	365.73
795.667	187.56
795.848	302.25
796.028	292.01
796.209	318.63
796.389	312.49
796.57	328.87
796.75	316.58
796.93	271.53
797.111	246.95
797.291	298.15
797.471	253.09
797.652	292.01
797.832	300.2
798.012	341.16
798.192	292.01
798.373	294.05
798.553	255.14
798.733	269.48
798.913	226.47
799.093	205.99
799.274	300.2
799.454	312.49
799.634	304.29
799.814	310.44
799.994	238.76
800.174	281.77
800.354	191.66
800.534	255.14
800.714	249
800.894	294.05
801.074	216.23
801.254	236.71
801.434	253.09
801.614	259.24
801.794	332.97
801.974	640.16
802.154	232.62
802.334	191.66
802.514	246.95
802.693	261.29
802.873	214.18
803.053	365.73
803.233	251.05
803.413	187.56
803.592	156.84
803.772	226.47
803.952	322.73
804.131	236.71
804.311	249
804.491	238.76
804.67	218.28
804.85	158.89
805.03	222.38
805.209	214.18
805.389	214.18
805.568	189.61
805.748	271.53
805.928	203.94
806.107	298.15
806.287	193.7
806.466	220.33
806.646	191.66
806.825	271.53
807.004	138.41
807.184	203.94
807.363	220.33
807.543	222.38
807.722	165.03
807.901	191.66
808.081	205.99
808.26	134.31
808.439	191.66
808.619	226.47
808.798	183.46
808.977	171.18
809.156	222.38
809.336	148.65
809.515	255.14
809.694	136.36
809.873	158.89
810.052	189.61
810.231	222.38
810.411	140.46
810.59	160.94
810.769	189.61
810.948	230.57
811.127	197.8
811.306	191.66
811.485	214.18
811.664	199.85
811.843	167.08
812.022	193.7
812.201	87.21
812.38	210.09
812.559	132.26
812.737	175.27
812.916	76.97
813.095	183.46
813.274	132.26
813.453	187.56
813.632	195.75
813.811	185.51
813.989	126.12
814.168	199.85
814.347	156.84
814.526	177.32
814.704	257.19
814.883	203.94
815.062	162.98
815.24	142.5
815.419	150.7
815.598	113.83
815.776	85.16
815.955	162.98
816.133	85.16
816.312	222.38
816.49	140.46
816.669	154.79
816.847	242.85
817.026	222.38
817.204	169.13
817.383	105.64
817.561	81.07
817.74	171.18
817.918	179.37
818.097	173.22
818.275	115.88
818.453	203.94
818.632	50.35
818.81	119.98
818.988	144.55
819.167	81.07
819.345	171.18
819.523	79.02
819.701	72.87
819.879	132.26
820.058	183.46
820.236	83.11
820.414	165.03
820.592	140.46
820.77	124.07
820.948	136.36
821.127	66.73
821.305	74.92
821.483	146.6
821.661	126.12
821.839	101.55
822.017	87.21
822.195	165.03
822.373	115.88
822.551	140.46
822.729	144.55
822.907	181.42
823.085	138.41
823.262	119.98
823.44	111.78
823.618	136.36
823.796	107.69
823.974	99.5
824.152	142.5
824.329	72.87
824.507	64.68
824.685	119.98
824.863	122.02
825.04	76.97
825.218	132.26
825.396	167.08
825.574	140.46
825.751	62.63
825.929	119.98
826.107	74.92
826.284	134.31
826.462	128.17
826.639	109.74
826.817	40.11
826.994	128.17
827.172	89.26
827.349	113.83
827.527	124.07
827.704	158.89
827.882	9.39
828.059	60.59
828.237	93.35
828.414	165.03
828.591	124.07
828.769	62.63
828.946	105.64
829.124	87.21
829.301	122.02
829.478	148.65
829.655	23.72
829.833	148.65
830.01	83.11
830.187	81.07
830.364	81.07
830.542	23.72
830.719	191.66
830.896	64.68
831.073	52.39
831.25	142.5
831.427	89.26
831.604	81.07
831.782	9.39
831.959	126.12
832.136	64.68
832.313	93.35
832.49	38.06
832.667	79.02
832.844	70.83
833.021	140.46
833.198	68.78
833.374	44.2
833.551	124.07
833.728	62.63
833.905	105.64
834.082	40.11
834.259	76.97
834.436	158.89
834.612	111.78
834.789	31.91
834.966	79.02
835.143	54.44
835.319	115.88
835.496	130.22
835.673	122.02
835.85	64.68
836.026	138.41
836.203	31.91
836.38	117.93
836.556	56.49
836.733	72.87
836.909	83.11
837.086	72.87
837.262	72.87
837.439	72.87
837.616	95.4
837.792	19.63
837.968	111.78
838.145	15.53
838.321	66.73
838.498	13.48
838.674	122.02
838.851	87.21
839.027	58.54
839.203	101.55
839.38	36.01
839.556	60.59
839.732	60.59
839.909	31.91
840.085	117.93
840.261	29.87
840.437	132.26
840.614	81.07
840.79	74.92
840.966	19.63
841.142	107.69
841.318	21.67
841.494	31.91
841.671	42.15
841.847	64.68
842.023	23.72
842.199	31.91
842.375	13.48
842.551	29.87
842.727	68.78
842.903	134.31
843.079	21.67
843.255	85.16
843.431	52.39
843.607	64.68
843.783	-4.95
843.959	42.15
844.134	38.06
844.31	56.49
844.486	-25.43
844.662	54.44
844.838	99.5
845.013	68.78
845.189	56.49
845.365	76.97
845.541	40.11
845.716	48.3
845.892	117.93
846.068	89.26
846.244	11.43
846.419	52.39
846.595	-17.24
846.77	50.35
846.946	36.01
847.122	40.11
847.297	44.2
847.473	48.3
847.648	-41.81
847.824	38.06
847.999	62.63
848.175	27.82
848.35	33.96
848.526	99.5
848.701	33.96
848.876	-7
849.052	-23.38
849.227	64.68
849.403	36.01
849.578	9.39
849.753	50.35
849.929	7.34
850.104	-27.48
850.279	-45.91
850.454	89.26
850.63	126.12
850.805	66.73
850.98	29.87
851.155	3.24
851.33	140.46
851.505	-21.33
851.681	154.79
851.856	58.54
852.031	54.44
852.206	-35.67
852.381	72.87
852.556	-13.14
852.731	74.92
852.906	33.96
853.081	68.78
853.256	58.54
853.431	68.78
853.606	1.19
853.781	72.87
853.956	38.06
854.131	44.2
854.305	-27.48
854.48	62.63
854.655	1.19
854.83	99.5
855.005	7.34
855.18	31.91
855.354	64.68
855.529	-2.9
855.704	31.91
855.879	40.11
856.053	-35.67
856.228	83.11
856.403	25.77
856.577	38.06
856.752	11.43
856.926	25.77
857.101	40.11
857.276	44.2
857.45	-29.52
857.625	19.63
857.799	7.34
857.974	-9.05
858.148	9.39
858.323	42.15
858.497	44.2
858.672	21.67
858.846	-64.34
859.02	25.77
859.195	38.06
859.369	29.87
859.543	17.58
859.718	29.87
859.892	25.77
860.066	52.39
860.241	27.82
860.415	44.2
860.589	91.31
860.763	40.11
860.938	-17.24
861.112	9.39
861.286	58.54
861.46	70.83
861.634	19.63
861.808	66.73
861.982	29.87
862.157	64.68
862.331	15.53
862.505	-23.38
862.679	-62.29
862.853	23.72
863.027	56.49
863.201	64.68
863.375	7.34
863.549	81.07
863.722	-11.09
863.896	74.92
864.07	46.25
864.244	23.72
864.418	62.63
864.592	21.67
864.766	54.44
864.939	17.58
865.113	5.29
865.287	87.21
865.461	85.16
865.634	66.73
865.808	87.21
865.982	68.78
866.156	25.77
866.329	3.24
866.503	25.77
866.676	58.54
866.85	-11.09
867.024	-15.19
867.197	27.82
867.371	1.19
867.544	5.29
867.718	38.06
867.891	91.31
868.065	-23.38
868.238	89.26
868.412	36.01
868.585	3.24
868.759	21.67
868.932	-45.91
869.105	15.53
869.279	3.24
869.452	-17.24
869.625	5.29
869.799	48.3
869.972	-23.38
870.145	126.12
870.319	44.2
870.492	-25.43
870.665	103.59
870.838	9.39
871.011	-31.57
871.185	-62.29
871.358	3.24
871.531	29.87
871.704	17.58
871.877	83.11
872.05	3.24
872.223	87.21
872.396	58.54
872.569	50.35
872.742	-19.29
872.915	-9.05
873.088	48.3
873.261	36.01
873.434	-39.76
873.607	-7
873.78	89.26
873.953	-23.38
874.126	33.96
874.299	3.24
874.471	9.39
874.644	-19.29
874.817	29.87
874.99	46.25
875.163	17.58
875.335	44.2
875.508	5.29
875.681	7.34
875.853	50.35
876.026	56.49
876.199	103.59
876.371	-35.67
876.544	-50
876.717	-11.09
876.889	-21.33
877.062	-19.29
877.234	17.58
877.407	-29.52
877.579	-4.95
877.752	60.59
877.924	-17.24
878.097	-76.63
878.269	-23.38
878.442	81.07
878.614	29.87
878.786	-31.57
878.959	52.39
879.131	21.67
879.303	-39.76
879.476	50.35
879.648	52.39
879.82	23.72
879.993	7.34
880.165	33.96
880.337	52.39
880.509	23.72
880.681	-21.33
880.854	19.63
881.026	44.2
881.198	79.02
881.37	-43.86
881.542	68.78
881.714	27.82
881.886	33.96
882.058	44.2
882.23	-11.09
882.402	99.5
882.574	5.29
882.746	85.16
882.918	58.54
883.09	40.11
883.262	-60.24
883.434	1.19
883.606	31.91
883.778	38.06
883.95	56.49
884.122	40.11
884.293	52.39
884.465	54.44
884.637	54.44
884.809	-33.62
884.98	1.19
885.152	-2.9
885.324	25.77
885.496	87.21
885.667	-27.48
885.839	-29.52
886.011	50.35
886.182	33.96
886.354	-23.38
886.525	17.58
886.697	72.87
886.869	-17.24
887.04	52.39
887.212	9.39
887.383	38.06
887.555	113.83
887.726	25.77
887.897	54.44
888.069	46.25
888.24	-9.05
888.412	-52.05
888.583	13.48
888.754	13.48
888.926	11.43
889.097	-4.95
889.268	-11.09
889.44	40.11
889.611	-62.29
889.782	-70.48
889.953	31.91
890.125	25.77
890.296	-39.76
890.467	-39.76
890.638	58.54
890.809	85.16
890.98	-27.48
891.151	54.44
891.323	40.11
891.494	-0.85
891.665	29.87
891.836	-11.09
892.007	29.87
892.178	44.2
892.349	11.43
892.52	-9.05
892.691	44.2
892.862	21.67
893.032	36.01
893.203	42.15
893.374	-66.39
893.545	-13.14
893.716	-58.2
893.887	21.67
894.057	-31.57
894.228	-66.39
894.399	29.87
894.57	56.49
894.74	27.82
894.911	15.53
895.082	-17.24
895.253	25.77
895.423	42.15
895.594	25.77
895.764	7.34
895.935	-13.14
896.106	-47.96
896.276	-13.14
896.447	5.29
896.617	81.07
896.788	-37.72
896.958	-31.57
897.129	-47.96
897.299	-7
897.47	7.34
897.64	50.35
897.81	17.58
897.981	-23.38
898.151	-41.81
898.322	40.11
898.492	56.49
898.662	15.53
898.832	-19.29
899.003	-58.2
899.173	66.73
899.343	42.15
899.513	7.34
