Data from USB4F104151__36__12-00-47-992.txt Node

Date: Fri Mar 14 12:00:47 EDT 2025
User: louis
Spectrometer: USB4F10415
Trigger mode: 4
Integration Time (sec): 2.000000E-2
Scans to average: 1
Electric dark correction enabled: true
Nonlinearity correction enabled: false
Boxcar width: 0
XAxis mode: Wavelengths
Number of Pixels in Spectrum: 3648
>>>>>Begin Spectral Data<<<<<
178.204	-127.49
178.424	-127.49
178.644	-127.49
178.864	-86.53
179.084	-68.09
179.304	19.97
179.524	-55.81
179.744	-27.14
179.964	56.83
180.184	3.58
180.404	19.97
180.624	54.78
180.844	11.78
181.064	-23.04
181.283	34.3
181.503	-61.95
181.723	-33.28
181.943	-37.38
182.163	38.4
182.383	-10.75
182.602	62.98
182.822	24.06
183.042	73.21
183.262	36.35
183.482	11.78
183.701	-0.51
183.921	44.54
184.141	-18.94
184.361	46.59
184.58	40.45
184.8	13.82
185.02	9.73
185.239	99.84
185.459	-55.81
185.679	52.74
185.898	60.93
186.118	34.3
186.338	48.64
186.557	42.5
186.777	5.63
186.997	-35.33
187.216	-57.86
187.436	48.64
187.655	108.03
187.875	15.87
188.095	-43.52
188.314	32.26
188.534	56.83
188.753	73.21
188.973	83.45
189.192	-4.61
189.412	110.08
189.631	36.35
189.851	54.78
190.07	38.4
190.29	28.16
190.509	1.54
190.729	-6.66
190.948	-8.7
191.168	128.51
191.387	-0.51
191.607	-66.05
191.826	19.97
192.045	-16.9
192.265	60.93
192.484	-43.52
192.704	-49.66
192.923	38.4
193.142	93.69
193.362	-31.23
193.581	101.89
193.8	54.78
194.02	85.5
194.239	97.79
194.458	58.88
194.678	38.4
194.897	36.35
195.116	26.11
195.335	26.11
195.555	48.64
195.774	22.02
195.993	26.11
196.212	108.03
196.432	1.54
196.651	42.5
196.87	-0.51
197.089	69.12
197.308	-31.23
197.528	62.98
197.747	-0.51
197.966	-12.8
198.185	-14.85
198.404	-41.47
198.623	-10.75
198.842	9.73
199.062	7.68
199.281	34.3
199.5	30.21
199.719	-12.8
199.938	44.54
200.157	71.17
200.376	26.11
200.595	85.5
200.814	19.97
201.033	-2.56
201.252	85.5
201.471	99.84
201.69	81.41
201.909	73.21
202.128	54.78
202.347	-27.14
202.566	-16.9
202.785	38.4
203.004	17.92
203.223	120.32
203.442	89.6
203.661	22.02
203.879	56.83
204.098	69.12
204.317	22.02
204.536	101.89
204.755	87.55
204.974	-10.75
205.193	17.92
205.411	11.78
205.63	46.59
205.849	99.84
206.068	-39.42
206.287	-4.61
206.505	-4.61
206.724	3.58
206.943	22.02
207.162	13.82
207.381	60.93
207.599	34.3
207.818	17.92
208.037	40.45
208.255	15.87
208.474	7.68
208.693	24.06
208.911	26.11
209.13	13.82
209.349	91.65
209.567	30.21
209.786	85.5
210.005	54.78
210.223	42.5
210.442	75.26
210.661	73.21
210.879	75.26
211.098	30.21
211.316	42.5
211.535	3.58
211.753	65.02
211.972	26.11
212.191	-66.05
212.409	62.98
212.628	54.78
212.846	46.59
213.065	28.16
213.283	60.93
213.502	-53.76
213.72	-25.09
213.938	58.88
214.157	5.63
214.375	36.35
214.594	73.21
214.812	103.93
215.031	71.17
215.249	-35.33
215.467	19.97
215.686	73.21
215.904	22.02
216.122	67.07
216.341	97.79
216.559	-4.61
216.778	42.5
216.996	28.16
217.214	-16.9
217.432	-14.85
217.651	44.54
217.869	7.68
218.087	65.02
218.306	42.5
218.524	44.54
218.742	58.88
218.96	22.02
219.179	-23.04
219.397	50.69
219.615	28.16
219.833	26.11
220.051	28.16
220.27	13.82
220.488	-39.42
220.706	15.87
220.924	-2.56
221.142	58.88
221.36	-23.04
221.578	32.26
221.796	26.11
222.015	73.21
222.233	32.26
222.451	28.16
222.669	-20.99
222.887	9.73
223.105	30.21
223.323	1.54
223.541	-51.71
223.759	34.3
223.977	-8.7
224.195	22.02
224.413	34.3
224.631	17.92
224.849	77.31
225.067	46.59
225.285	13.82
225.503	-64
225.721	-37.38
225.939	15.87
226.157	34.3
226.375	52.74
226.592	26.11
226.81	-25.09
227.028	42.5
227.246	58.88
227.464	91.65
227.682	-6.66
227.9	-18.94
228.117	28.16
228.335	38.4
228.553	-6.66
228.771	67.07
228.989	11.78
229.206	-4.61
229.424	-33.28
229.642	26.11
229.86	50.69
230.077	89.6
230.295	42.5
230.513	46.59
230.731	99.84
230.948	67.07
231.166	65.02
231.384	19.97
231.601	-25.09
231.819	34.3
232.037	-49.66
232.254	5.63
232.472	-8.7
232.689	79.36
232.907	56.83
233.125	13.82
233.342	73.21
233.56	40.45
233.777	-4.61
233.995	-8.7
234.213	44.54
234.43	65.02
234.648	48.64
234.865	-27.14
235.083	83.45
235.3	46.59
235.518	-2.56
235.735	26.11
235.953	13.82
236.17	22.02
236.388	38.4
236.605	-4.61
236.822	134.65
237.04	58.88
237.257	-14.85
237.475	-76.29
237.692	1.54
237.909	22.02
238.127	-25.09
238.344	-10.75
238.562	89.6
238.779	-2.56
238.996	67.07
239.214	-14.85
239.431	7.68
239.648	19.97
239.865	3.58
240.083	5.63
240.3	73.21
240.517	19.97
240.735	40.45
240.952	87.55
241.169	22.02
241.386	42.5
241.603	-2.56
241.821	-14.85
242.038	83.45
242.255	42.5
242.472	44.54
242.689	-47.62
242.907	58.88
243.124	73.21
243.341	81.41
243.558	42.5
243.775	34.3
243.992	-18.94
244.209	-6.66
244.426	1.54
244.643	58.88
244.86	32.26
245.078	17.92
245.295	48.64
245.512	77.31
245.729	42.5
245.946	46.59
246.163	-23.04
246.38	67.07
246.597	-74.24
246.814	67.07
247.031	77.31
247.248	17.92
247.464	36.35
247.681	77.31
247.898	-35.33
248.115	7.68
248.332	9.73
248.549	26.11
248.766	60.93
248.983	40.45
249.2	24.06
249.417	40.45
249.633	32.26
249.85	69.12
250.067	11.78
250.284	50.69
250.501	24.06
250.717	73.21
250.934	46.59
251.151	-12.8
251.368	26.11
251.585	1.54
251.801	3.58
252.018	34.3
252.235	13.82
252.451	9.73
252.668	40.45
252.885	187.9
253.102	7.68
253.318	67.07
253.535	48.64
253.752	15.87
253.968	114.17
254.185	46.59
254.401	5.63
254.618	-33.28
254.835	-10.75
255.051	65.02
255.268	-23.04
255.484	15.87
255.701	-4.61
255.917	54.78
256.134	-61.95
256.351	58.88
256.567	13.82
256.784	28.16
257	1.54
257.217	15.87
257.433	-2.56
257.65	99.84
257.866	-0.51
258.082	26.11
258.299	28.16
258.515	40.45
258.732	56.83
258.948	52.74
259.165	60.93
259.381	32.26
259.597	32.26
259.814	50.69
260.03	24.06
260.246	34.3
260.463	67.07
260.679	79.36
260.895	77.31
261.112	101.89
261.328	46.59
261.544	17.92
261.761	87.55
261.977	22.02
262.193	44.54
262.409	15.87
262.626	69.12
262.842	17.92
263.058	-33.28
263.274	-12.8
263.49	54.78
263.707	120.32
263.923	-45.57
264.139	36.35
264.355	40.45
264.571	54.78
264.787	34.3
265.004	67.07
265.22	1.54
265.436	50.69
265.652	-12.8
265.868	-66.05
266.084	62.98
266.3	9.73
266.516	-29.18
266.732	48.64
266.948	-6.66
267.164	85.5
267.38	22.02
267.596	108.03
267.812	46.59
268.028	3.58
268.244	-10.75
268.46	-0.51
268.676	62.98
268.892	58.88
269.108	-4.61
269.324	7.68
269.54	24.06
269.756	124.41
269.972	-41.47
270.188	38.4
270.403	5.63
270.619	-20.99
270.835	85.5
271.051	-45.57
271.267	-20.99
271.483	56.83
271.698	67.07
271.914	1.54
272.13	91.65
272.346	52.74
272.562	38.4
272.777	91.65
272.993	28.16
273.209	24.06
273.425	-43.52
273.64	22.02
273.856	79.36
274.072	-8.7
274.287	54.78
274.503	11.78
274.719	34.3
274.934	26.11
275.15	-8.7
275.366	81.41
275.581	-47.62
275.797	44.54
276.012	40.45
276.228	-6.66
276.444	17.92
276.659	65.02
276.875	-4.61
277.09	79.36
277.306	-6.66
277.521	38.4
277.737	44.54
277.952	44.54
278.168	54.78
278.383	-49.66
278.599	85.5
278.814	112.13
279.03	85.5
279.245	75.26
279.461	30.21
279.676	60.93
279.892	-18.94
280.107	-33.28
280.322	-2.56
280.538	62.98
280.753	-51.71
280.969	77.31
281.184	122.37
281.399	13.82
281.615	38.4
281.83	44.54
282.045	24.06
282.26	26.11
282.476	5.63
282.691	52.74
282.906	26.11
283.122	-37.38
283.337	26.11
283.552	60.93
283.767	69.12
283.983	5.63
284.198	-2.56
284.413	28.16
284.628	17.92
284.843	32.26
285.058	-29.18
285.274	34.3
285.489	50.69
285.704	79.36
285.919	-10.75
286.134	-20.99
286.349	13.82
286.564	22.02
286.779	46.59
286.995	9.73
287.21	50.69
287.425	-39.42
287.64	75.26
287.855	36.35
288.07	-43.52
288.285	7.68
288.5	81.41
288.715	42.5
288.93	-14.85
289.145	32.26
289.36	36.35
289.575	32.26
289.79	46.59
290.004	9.73
290.219	5.63
290.434	42.5
290.649	-8.7
290.864	65.02
291.079	17.92
291.294	48.64
291.509	1.54
291.724	83.45
291.938	15.87
292.153	67.07
292.368	-25.09
292.583	11.78
292.798	24.06
293.012	71.17
293.227	42.5
293.442	22.02
293.657	26.11
293.871	-8.7
294.086	73.21
294.301	95.74
294.516	67.07
294.73	132.61
294.945	19.97
295.16	32.26
295.374	95.74
295.589	81.41
295.804	60.93
296.018	46.59
296.233	42.5
296.447	81.41
296.662	58.88
296.877	3.58
297.091	103.93
297.306	11.78
297.52	26.11
297.735	7.68
297.949	89.6
298.164	17.92
298.378	48.64
298.593	46.59
298.807	-10.75
299.022	56.83
299.236	62.98
299.451	-25.09
299.665	-49.66
299.88	42.5
300.094	38.4
300.309	34.3
300.523	65.02
300.737	58.88
300.952	24.06
301.166	108.03
301.381	11.78
301.595	75.26
301.809	-37.38
302.024	48.64
302.238	-10.75
302.452	50.69
302.667	32.26
302.881	65.02
303.095	69.12
303.309	56.83
303.524	-10.75
303.738	-20.99
303.952	38.4
304.166	75.26
304.381	-53.76
304.595	112.13
304.809	-14.85
305.023	56.83
305.237	38.4
305.452	17.92
305.666	3.58
305.88	87.55
306.094	13.82
306.308	122.37
306.522	54.78
306.736	62.98
306.95	-0.51
307.164	44.54
307.379	28.16
307.593	19.97
307.807	30.21
308.021	122.37
308.235	46.59
308.449	-8.7
308.663	44.54
308.877	60.93
309.091	19.97
309.305	15.87
309.519	17.92
309.733	91.65
309.947	36.35
310.161	22.02
310.374	22.02
310.588	105.98
310.802	44.54
311.016	42.5
311.23	22.02
311.444	83.45
311.658	-14.85
311.872	17.92
312.085	34.3
312.299	38.4
312.513	50.69
312.727	54.78
312.941	-4.61
313.154	-10.75
313.368	-12.8
313.582	19.97
313.796	40.45
314.009	60.93
314.223	34.3
314.437	83.45
314.651	93.69
314.864	9.73
315.078	7.68
315.292	89.6
315.505	67.07
315.719	30.21
315.933	138.75
316.146	38.4
316.36	9.73
316.573	54.78
316.787	-12.8
317.001	56.83
317.214	-61.95
317.428	1.54
317.641	62.98
317.855	54.78
318.068	3.58
318.282	-10.75
318.495	26.11
318.709	69.12
318.922	34.3
319.136	124.41
319.349	17.92
319.563	62.98
319.776	3.58
319.99	60.93
320.203	77.31
320.417	103.93
320.63	34.3
320.843	-12.8
321.057	50.69
321.27	28.16
321.483	-8.7
321.697	13.82
321.91	69.12
322.124	79.36
322.337	13.82
322.55	15.87
322.763	-12.8
322.977	1.54
323.19	32.26
323.403	44.54
323.617	1.54
323.83	108.03
324.043	40.45
324.256	38.4
324.469	-39.42
324.683	52.74
324.896	52.74
325.109	110.08
325.322	110.08
325.535	22.02
325.748	15.87
325.962	71.17
326.175	3.58
326.388	9.73
326.601	24.06
326.814	44.54
327.027	-8.7
327.24	22.02
327.453	-12.8
327.666	48.64
327.879	79.36
328.092	89.6
328.305	5.63
328.518	-16.9
328.731	19.97
328.944	118.27
329.157	46.59
329.37	73.21
329.583	58.88
329.796	79.36
330.009	101.89
330.222	38.4
330.435	75.26
330.648	9.73
330.861	71.17
331.073	-10.75
331.286	24.06
331.499	-0.51
331.712	-43.52
331.925	3.58
332.138	42.5
332.35	101.89
332.563	11.78
332.776	136.7
332.989	56.83
333.202	5.63
333.414	-4.61
333.627	26.11
333.84	42.5
334.053	36.35
334.265	83.45
334.478	-10.75
334.691	44.54
334.903	85.5
335.116	65.02
335.329	9.73
335.541	54.78
335.754	101.89
335.966	54.78
336.179	30.21
336.392	15.87
336.604	67.07
336.817	36.35
337.029	28.16
337.242	5.63
337.454	46.59
337.667	32.26
337.88	-16.9
338.092	22.02
338.305	71.17
338.517	5.63
338.729	34.3
338.942	54.78
339.154	22.02
339.367	36.35
339.579	28.16
339.792	-43.52
340.004	28.16
340.217	-33.28
340.429	91.65
340.641	7.68
340.854	42.5
341.066	91.65
341.278	95.74
341.491	28.16
341.703	-16.9
341.915	-0.51
342.128	97.79
342.34	62.98
342.552	-2.56
342.764	13.82
342.977	11.78
343.189	87.55
343.401	-6.66
343.613	75.26
343.826	22.02
344.038	5.63
344.25	54.78
344.462	9.73
344.674	44.54
344.886	26.11
345.099	105.98
345.311	-33.28
345.523	36.35
345.735	77.31
345.947	-6.66
346.159	17.92
346.371	17.92
346.583	95.74
346.795	89.6
347.007	-0.51
347.219	71.17
347.431	15.87
347.643	130.56
347.855	-12.8
348.067	118.27
348.279	44.54
348.491	65.02
348.703	108.03
348.915	28.16
349.127	-25.09
349.339	108.03
349.551	-8.7
349.763	71.17
349.975	19.97
350.187	40.45
350.399	73.21
350.61	36.35
350.822	38.4
351.034	62.98
351.246	54.78
351.458	81.41
351.669	110.08
351.881	34.3
352.093	77.31
352.305	56.83
352.517	-43.52
352.728	30.21
352.94	69.12
353.152	71.17
353.363	9.73
353.575	83.45
353.787	79.36
353.999	97.79
354.21	5.63
354.422	-20.99
354.633	-8.7
354.845	99.84
355.057	50.69
355.268	9.73
355.48	93.69
355.692	22.02
355.903	13.82
356.115	9.73
356.326	34.3
356.538	62.98
356.749	52.74
356.961	60.93
357.172	11.78
357.384	26.11
357.595	99.84
357.807	19.97
358.018	13.82
358.23	79.36
358.441	54.78
358.653	122.37
358.864	-0.51
359.075	48.64
359.287	58.88
359.498	40.45
359.709	36.35
359.921	46.59
360.132	28.16
360.344	38.4
360.555	77.31
360.766	-0.51
360.977	62.98
361.189	5.63
361.4	17.92
361.611	89.6
361.823	-6.66
362.034	73.21
362.245	69.12
362.456	48.64
362.667	28.16
362.879	85.5
363.09	71.17
363.301	44.54
363.512	48.64
363.723	65.02
363.935	77.31
364.146	5.63
364.357	28.16
364.568	95.74
364.779	-16.9
364.99	62.98
365.201	60.93
365.412	17.92
365.623	44.54
365.834	79.36
366.045	26.11
366.256	73.21
366.467	62.98
366.678	30.21
366.889	71.17
367.1	89.6
367.311	67.07
367.522	83.45
367.733	32.26
367.944	-4.61
368.155	15.87
368.366	50.69
368.577	77.31
368.788	108.03
368.999	-14.85
369.209	28.16
369.42	38.4
369.631	62.98
369.842	93.69
370.053	56.83
370.264	54.78
370.474	28.16
370.685	-2.56
370.896	7.68
371.107	108.03
371.317	22.02
371.528	19.97
371.739	77.31
371.95	44.54
372.16	58.88
372.371	58.88
372.582	3.58
372.792	15.87
373.003	22.02
373.214	30.21
373.424	108.03
373.635	7.68
373.846	103.93
374.056	58.88
374.267	30.21
374.477	17.92
374.688	75.26
374.898	75.26
375.109	22.02
375.319	81.41
375.53	87.55
375.74	87.55
375.951	65.02
376.161	48.64
376.372	91.65
376.582	24.06
376.793	34.3
377.003	85.5
377.214	26.11
377.424	67.07
377.635	19.97
377.845	-2.56
378.055	75.26
378.266	36.35
378.476	24.06
378.686	79.36
378.897	56.83
379.107	28.16
379.317	79.36
379.528	-6.66
379.738	52.74
379.948	1.54
380.158	15.87
380.369	52.74
380.579	67.07
380.789	42.5
380.999	44.54
381.21	58.88
381.42	62.98
381.63	40.45
381.84	-16.9
382.05	50.69
382.261	79.36
382.471	30.21
382.681	77.31
382.891	73.21
383.101	17.92
383.311	-12.8
383.521	48.64
383.731	26.11
383.941	56.83
384.151	89.6
384.361	46.59
384.571	11.78
384.781	32.26
384.991	105.98
385.201	52.74
385.411	93.69
385.621	42.5
385.831	60.93
386.041	15.87
386.251	81.41
386.461	73.21
386.671	58.88
386.881	-49.66
387.091	36.35
387.301	105.98
387.511	71.17
387.72	22.02
387.93	60.93
388.14	-4.61
388.35	87.55
388.56	120.32
388.769	48.64
388.979	103.93
389.189	30.21
389.399	24.06
389.609	60.93
389.818	95.74
390.028	42.5
390.238	9.73
390.447	62.98
390.657	24.06
390.867	89.6
391.076	58.88
391.286	-10.75
391.496	24.06
391.705	69.12
391.915	65.02
392.125	15.87
392.334	65.02
392.544	40.45
392.753	112.13
392.963	-4.61
393.172	48.64
393.382	110.08
393.591	101.89
393.801	24.06
394.01	65.02
394.22	52.74
394.429	71.17
394.639	38.4
394.848	85.5
395.058	116.22
395.267	1.54
395.477	50.69
395.686	163.33
395.895	110.08
396.105	62.98
396.314	97.79
396.524	62.98
396.733	97.79
396.942	87.55
397.152	110.08
397.361	60.93
397.57	134.65
397.78	124.41
397.989	108.03
398.198	110.08
398.407	73.21
398.617	26.11
398.826	114.17
399.035	50.69
399.244	60.93
399.453	81.41
399.663	48.64
399.872	165.37
400.081	79.36
400.29	112.13
400.499	124.41
400.708	124.41
400.917	44.54
401.127	81.41
401.336	42.5
401.545	62.98
401.754	116.22
401.963	108.03
402.172	112.13
402.381	71.17
402.59	118.27
402.799	151.04
403.008	134.65
403.217	32.26
403.426	157.18
403.635	97.79
403.844	124.41
404.053	134.65
404.262	36.35
404.471	155.13
404.68	95.74
404.888	159.23
405.097	148.99
405.306	114.17
405.515	122.37
405.724	95.74
405.933	159.23
406.142	91.65
406.35	122.37
406.559	196.09
406.768	212.48
406.977	230.91
407.185	187.9
407.394	169.47
407.603	124.41
407.812	194.05
408.02	171.52
408.229	216.57
408.438	228.86
408.646	212.48
408.855	226.81
409.064	294.4
409.272	290.3
409.481	253.44
409.69	206.33
409.898	278.01
410.107	255.48
410.315	298.49
410.524	239.1
410.733	327.16
410.941	265.72
411.15	364.03
411.358	306.68
411.567	407.03
411.775	370.17
411.984	359.93
412.192	382.46
412.401	384.51
412.609	380.41
412.818	425.47
413.026	411.13
413.234	421.37
413.443	407.03
413.651	364.03
413.86	566.78
414.068	529.91
414.276	603.64
414.485	497.14
414.693	597.49
414.901	615.93
415.11	587.26
415.318	658.93
415.526	652.79
415.734	624.12
415.943	658.93
416.151	740.85
416.359	703.99
416.567	740.85
416.776	798.2
416.984	851.44
417.192	935.41
417.4	822.77
417.608	779.76
417.817	906.74
418.025	955.89
418.233	986.61
418.441	953.84
418.649	1062.38
418.857	1095.15
419.065	1138.16
419.273	978.42
419.481	1132.01
419.689	1248.75
419.897	1236.46
420.105	1109.49
420.313	1232.37
420.521	1306.09
420.729	1412.59
420.937	1418.73
421.145	1508.84
421.353	1553.9
421.561	1603.05
421.769	1668.58
421.977	1709.54
422.185	1850.85
422.393	1916.39
422.601	1992.16
422.809	2067.94
423.017	1953.25
423.224	2035.17
423.432	2307.55
423.64	2221.53
423.848	2342.36
424.056	2260.45
424.263	2498.01
424.471	2436.57
424.679	2473.43
424.887	2526.68
425.094	2700.76
425.302	2711
425.51	2825.68
425.718	2844.12
425.925	2915.8
426.133	3055.06
426.341	3249.61
426.548	3306.96
426.756	3284.43
426.964	3417.55
427.171	3714.5
427.379	3571.15
427.586	3747.27
427.794	3818.95
428.001	4001.22
428.209	4398.52
428.417	4122.05
428.624	4414.91
428.832	4431.29
429.039	4390.33
429.247	4380.09
429.454	4677.05
429.662	5242.29
429.869	4900.28
430.076	5172.66
430.284	4957.62
430.491	5103.03
430.699	5547.44
430.906	5619.11
431.114	5604.78
431.321	5916.07
431.528	5930.41
431.736	6321.57
431.943	6401.44
432.15	6317.47
432.358	6559.13
432.565	6935.96
432.772	6940.05
432.979	7185.81
433.187	7378.32
433.394	7339.41
433.601	7794.06
433.808	7802.25
434.016	7804.3
434.223	8191.36
434.43	8670.59
434.637	8494.46
434.844	8932.73
435.052	9080.18
435.259	9057.65
435.466	9370.99
435.673	8887.67
435.88	9704.81
436.087	10216.8
436.294	10237.28
436.501	10167.65
436.708	10280.29
436.915	10542.43
437.122	11015.51
437.329	11183.45
437.537	11445.59
437.743	11269.46
437.95	11562.32
438.157	11933
438.364	12627.26
438.571	12248.39
438.778	12385.6
438.985	13907.24
439.192	13061.43
439.399	13579.57
439.606	13194.55
439.813	14028.07
440.02	14798.11
440.227	14722.34
440.433	14374.18
440.64	14857.5
440.847	14652.7
441.054	15119.64
441.261	16250.12
441.467	16145.67
441.674	16276.74
441.881	16950.53
442.088	17106.17
442.294	16628.99
442.501	17280.25
442.708	17693.94
442.914	18386.15
443.121	19059.93
443.328	18638.05
443.534	19637.46
443.741	19242.2
443.948	18744.55
444.154	20440.26
444.361	20219.08
444.568	20516.04
444.774	20311.24
444.981	20626.63
445.187	21269.69
445.394	22355.11
445.6	21843.12
445.807	23817.36
446.013	22928.55
446.22	23178.4
446.426	24104.08
446.633	24370.32
446.839	25308.29
447.046	24265.87
447.252	25627.77
447.459	25437.31
447.665	25627.77
447.871	26410.09
448.078	27991.12
448.284	26315.89
448.491	27270.24
448.697	28183.63
448.903	28746.83
449.11	28726.35
449.316	28337.23
449.522	28353.62
449.728	29664.32
449.935	29779
450.141	29705.27
450.347	30686.25
450.553	29643.84
450.76	30170.16
450.966	31046.69
451.172	30559.28
451.378	31280.16
451.584	30497.84
451.791	31509.54
451.997	31400.99
452.203	31923.22
452.409	31976.47
452.615	31616.03
452.821	30538.8
453.027	30321.71
453.233	31779.87
453.44	30356.53
453.646	30731.31
453.852	30661.68
454.058	31353.89
454.264	30219.31
454.47	31181.86
454.676	30532.65
454.882	31179.81
455.088	28632.14
455.294	29002.82
455.5	29219.91
455.705	29377.6
455.911	28724.3
456.117	27855.96
456.323	27268.19
456.529	26049.65
456.735	27307.1
456.941	26408.05
457.147	26041.46
457.352	25158.78
457.558	24622.22
457.764	24927.36
457.97	24611.98
458.176	23993.49
458.381	23905.43
458.587	22682.79
458.793	22662.31
458.999	21793.97
459.204	22977.7
459.41	22353.07
459.616	21116.09
459.821	20735.17
460.027	20853.95
460.233	20427.98
460.438	19203.29
460.644	19528.92
460.85	18599.14
461.055	18509.03
461.261	18144.49
461.466	16987.39
461.672	16282.89
461.878	17458.42
462.083	16573.7
462.289	16182.54
462.494	15977.74
462.7	15389.97
462.905	14714.14
463.111	15420.69
463.316	15484.18
463.522	15166.74
463.727	15193.37
463.932	15238.42
464.138	15303.96
464.343	15226.14
464.549	14753.05
464.754	15009.05
464.959	14998.81
465.165	14527.78
465.37	14021.93
465.575	13626.67
465.781	14316.84
465.986	14402.85
466.191	14054.7
466.397	13776.17
466.602	12893.5
466.807	13542.71
467.012	13450.55
467.218	13647.15
467.423	13253.94
467.628	13436.21
467.833	13911.34
468.038	13507.89
468.244	12920.12
468.449	13395.25
468.654	13225.27
468.859	12989.75
469.064	12762.43
469.269	12297.54
469.474	12256.58
469.679	12631.36
469.885	12383.56
470.09	12485.95
470.295	12604.74
470.5	12143.94
470.705	12166.47
470.91	12023.11
471.115	11928.91
471.32	12111.18
471.525	11904.33
471.73	11715.92
471.935	11478.35
472.139	11181.4
472.344	11302.23
472.549	11079
472.754	11193.69
472.959	10802.52
473.164	10673.5
473.369	10589.53
473.574	10925.4
473.778	10800.48
473.983	10562.91
474.188	10616.16
474.393	10184.04
474.598	10208.61
474.802	10081.64
475.007	10026.34
475.212	9948.52
475.417	9508.21
475.621	9725.29
475.826	9534.83
476.031	9444.72
476.235	9289.07
476.44	9661.8
476.645	9291.12
476.849	9315.7
477.054	9272.69
477.259	9143.67
477.463	9100.66
477.668	8805.75
477.872	8996.21
478.077	8697.21
478.282	8543.61
478.486	8535.42
478.691	8476.03
478.895	8279.43
479.1	8332.67
479.304	8293.76
479.509	8209.79
479.713	8222.08
479.918	8121.73
480.122	8029.57
480.326	8220.03
480.531	8131.97
480.735	8033.67
480.94	7996.81
481.144	8109.44
481.348	7724.43
481.553	7806.34
481.757	7673.23
481.961	7822.73
482.166	7927.18
482.37	7939.46
482.574	7722.38
482.778	7701.9
482.983	7671.18
483.187	7622.03
483.391	7724.43
483.595	7611.79
483.8	7746.95
484.004	7626.12
484.208	7816.58
484.412	7544.2
484.616	7783.82
484.821	7574.92
485.025	7679.37
485.229	7830.92
485.433	7701.9
485.637	7685.51
485.841	7613.84
486.045	7406.99
486.249	7718.28
486.453	7716.23
486.657	7636.36
486.861	7785.87
487.065	7456.14
487.269	7570.83
487.473	7560.59
487.677	7699.85
487.881	7976.33
488.085	7521.68
488.289	7773.58
488.493	7552.4
488.697	7853.45
488.901	7699.85
489.105	7705.99
489.309	7832.97
489.512	7939.46
489.716	7835.02
489.92	7738.76
490.124	7644.56
490.328	7859.59
490.531	7859.59
490.735	7935.37
490.939	7812.49
491.143	7937.41
491.346	7742.86
491.55	8164.74
491.754	7976.33
491.958	8041.86
492.161	8011.14
492.365	8109.44
492.569	8074.63
492.772	8017.29
492.976	8215.94
493.18	8152.45
493.383	8258.95
493.587	8430.98
493.79	8476.03
493.994	8344.96
494.197	8256.9
494.401	8547.71
494.605	8447.36
494.808	8684.92
495.012	8596.86
495.215	8799.61
495.419	8826.23
495.622	8844.67
495.825	8824.19
496.029	8852.86
496.232	9129.33
496.436	9010.55
496.639	9178.48
496.843	9262.45
497.046	9321.84
497.249	9463.15
497.453	9586.03
497.656	9698.67
497.859	9569.65
498.063	9622.89
498.266	9948.52
498.469	10046.82
498.673	10126.69
498.876	10112.36
499.079	10196.32
499.282	10317.15
499.485	10616.16
499.689	10597.73
499.892	10437.98
500.095	10558.81
500.298	10872.15
500.501	10958.17
500.705	11109.72
500.908	11363.67
501.111	11273.56
501.314	11445.59
501.517	11580.75
501.72	11781.45
501.923	11646.29
502.126	12211.53
502.329	12207.43
502.532	12215.62
502.735	12393.79
502.938	12592.45
503.141	12494.15
503.344	12657.98
503.547	12543.3
503.75	13075.77
503.953	13081.91
504.156	13223.22
504.359	13274.42
504.562	13456.69
504.765	13749.55
504.968	14095.66
505.17	13968.68
505.373	13927.72
505.576	14239.01
505.779	14279.97
505.982	14435.62
506.185	14488.87
506.387	14869.79
506.59	14943.52
506.793	15203.61
506.996	15140.12
507.198	15580.43
507.401	15441.17
507.604	15609.11
507.807	15916.3
508.009	16155.91
508.212	16069.9
508.415	16532.74
508.617	16426.25
508.82	16708.87
509.022	16571.65
509.225	16944.38
509.428	16948.48
509.63	17229.05
509.833	17161.47
510.035	17638.64
510.238	17497.33
510.44	18009.33
510.643	18033.9
510.845	18158.83
511.048	18181.35
511.25	18435.3
511.453	18562.28
511.655	19205.34
511.858	19088.6
512.06	19010.78
512.262	19012.83
512.465	19170.52
512.667	19504.34
512.87	19786.96
513.072	19950.8
513.274	20145.36
513.477	20178.12
513.679	20384.97
513.881	20724.93
514.084	21085.37
514.286	20958.4
514.488	21206.2
514.69	21499.06
514.893	21689.53
515.095	21542.07
515.297	21636.28
515.499	22025.39
515.701	22068.4
515.904	22547.62
516.106	22822.05
516.308	22770.85
516.51	23073.95
516.712	22852.77
516.914	23403.67
517.116	23413.91
517.318	23620.76
517.52	23827.6
517.722	24016.02
517.925	24224.91
518.127	24476.81
518.329	24525.96
518.531	24196.24
518.733	24966.28
518.935	24882.31
519.136	24870.02
519.338	25291.9
519.54	25422.97
519.742	25873.53
519.944	26027.12
520.146	25939.06
520.348	26180.72
520.55	26416.24
520.752	26575.98
520.954	27004
521.155	26733.67
521.357	26842.21
521.559	27161.7
521.761	27415.65
521.963	27585.63
522.164	27769.94
522.366	27886.68
522.568	28019.8
522.77	28202.07
522.971	28570.7
523.173	28337.23
523.375	28720.2
523.576	28695.63
523.778	28552.27
523.98	29019.21
524.181	29279.3
524.383	28841.03
524.584	29254.72
524.786	29328.45
524.988	29389.89
525.189	29774.91
525.391	29525.05
525.592	30088.24
525.794	30047.29
525.995	30458.93
526.197	30211.12
526.398	30358.58
526.6	30546.99
526.801	30430.26
527.003	30456.88
527.204	30694.44
527.406	31013.93
527.607	30919.72
527.808	31202.34
528.01	30768.17
528.211	31159.33
528.412	31435.81
528.614	31409.18
528.815	31130.66
529.016	32021.53
529.218	31319.07
529.419	31849.5
529.62	31620.13
529.822	31282.21
530.023	31579.17
530.224	31613.98
530.425	31304.74
530.626	31536.16
530.828	31282.21
531.029	31996.95
531.23	31595.55
531.431	31724.57
531.632	31865.88
531.833	32023.58
532.035	32017.43
532.236	31728.67
532.437	31939.61
532.638	31691.8
532.839	32148.5
533.04	32033.82
533.241	31820.83
533.442	32257.04
533.643	32113.69
533.844	32107.54
534.045	32048.15
534.246	31730.72
534.447	31790.11
534.648	31632.41
534.849	32287.76
535.05	32066.58
535.251	31812.63
535.451	31630.37
535.652	32070.68
535.853	31833.11
536.054	32138.26
536.255	32062.49
536.456	32257.04
536.657	32168.98
536.857	32115.73
537.058	31706.14
537.259	31720.48
537.46	32115.73
537.66	31955.99
537.861	31874.07
538.062	32158.74
538.263	31888.41
538.463	31796.25
538.664	31976.47
538.865	31718.43
539.065	31712.28
539.266	31749.15
539.466	32259.09
539.667	31378.47
539.868	32343.06
540.068	31878.17
540.269	31861.79
540.469	32027.67
540.67	31771.68
540.87	31710.24
541.071	31626.27
541.271	32240.66
541.472	31861.79
541.672	31274.02
541.873	31241.25
542.073	31454.24
542.274	31814.68
542.474	31831.07
542.675	31349.79
542.875	31937.56
543.075	31679.52
543.276	30991.4
543.476	31904.79
543.676	31487.01
543.877	31577.12
544.077	31773.72
544.277	32003.1
544.478	31538.21
544.678	31540.25
544.878	31663.13
545.078	31583.26
545.279	31226.92
545.479	31054.89
545.679	31794.2
545.879	31134.76
546.079	31452.19
546.28	31308.83
546.48	31147.04
546.68	31192.1
546.88	31288.35
547.08	31147.04
547.28	31065.13
547.48	30841.9
547.68	31173.67
547.88	30923.82
548.081	31345.7
548.281	31345.7
548.481	31040.55
548.681	31257.64
548.881	31091.75
549.081	31093.8
549.28	30786.6
549.48	30958.63
549.68	31022.12
549.88	31548.45
550.08	31345.7
550.28	31247.4
550.48	30809.13
550.68	31302.69
550.88	30686.25
551.08	31026.21
551.279	31067.17
551.479	31081.51
551.679	30657.58
551.879	30825.51
552.079	31099.94
552.278	30874.66
552.478	31046.69
552.678	30774.31
552.878	31046.69
553.077	30872.62
553.277	30411.82
553.477	31065.13
553.676	30843.95
553.876	30784.55
554.076	30714.92
554.275	30829.61
554.475	30358.58
554.674	30970.92
554.874	30669.87
555.074	30624.81
555.273	30538.8
555.473	31048.74
555.672	30577.71
555.872	30374.96
556.071	30477.36
556.271	30432.3
556.47	30463.02
556.67	30188.6
556.869	30465.07
557.068	30454.83
557.268	30403.63
557.467	30405.68
557.667	30526.51
557.866	30403.63
558.065	30282.8
558.265	30247.99
558.464	30100.53
558.663	30555.18
558.863	29795.39
559.062	30198.84
559.261	29791.29
559.461	30403.63
559.66	29783.1
559.859	30170.16
560.058	29971.51
560.258	29891.64
560.457	29576.25
560.656	30035
560.855	29631.55
561.054	29942.84
561.253	29549.63
561.453	29987.89
561.652	29819.96
561.851	29572.16
562.05	29576.25
562.249	29531.2
562.448	29492.29
562.647	29664.32
562.846	29525.05
563.045	29408.32
563.244	29348.93
563.443	29549.63
563.642	29185.09
563.841	29619.26
564.04	28951.62
564.239	29355.07
564.438	29105.22
564.637	29234.24
564.836	29566.01
565.035	28894.28
565.234	28931.14
565.432	28816.46
565.631	28765.26
565.83	29002.82
566.029	28818.5
566.228	28974.15
566.427	28640.33
566.625	28703.82
566.824	28193.87
567.023	28615.76
567.222	28087.38
567.42	28304.46
567.619	28347.47
567.818	28480.59
568.016	28245.07
568.215	28552.27
568.414	28240.98
568.612	28116.05
568.811	28324.94
569.01	28140.63
569.208	27769.94
569.407	28326.99
569.605	27737.18
569.804	27976.79
570.002	27784.28
570.201	28073.04
570.4	27337.82
570.598	27460.7
570.797	27423.84
570.995	27669.59
571.193	27313.25
571.392	27436.13
571.59	27092.07
571.789	27231.33
571.987	27282.53
572.186	27198.56
572.384	27319.39
572.582	27270.24
572.781	27315.3
572.979	26776.68
573.177	27065.44
573.376	27051.11
573.574	26823.78
573.772	26737.77
573.971	26520.68
574.169	26692.71
574.367	26614.89
574.565	26786.92
574.763	26690.66
574.962	26424.43
575.16	26096.75
575.358	26506.35
575.556	26334.32
575.754	26328.17
575.952	25953.4
576.151	26414.19
576.349	25980.02
576.547	26082.42
576.745	26127.47
576.943	25857.14
577.141	25595
577.339	25721.98
577.537	25625.72
577.735	25703.54
577.933	25568.38
578.131	25551.99
578.329	25455.74
578.527	25164.93
578.725	25597.05
578.923	25343.1
579.121	25091.2
579.319	25267.33
579.516	25220.22
579.714	25146.5
579.912	24951.94
580.11	24974.47
580.308	25134.21
580.506	24646.79
580.704	24599.69
580.901	24837.25
581.099	25060.48
581.297	24597.64
581.495	24632.46
581.692	24339.6
581.89	24296.59
582.088	24546.44
582.285	24362.12
582.483	24442
582.681	24130.7
582.878	24175.76
583.076	24016.02
583.274	24108.18
583.471	23790.74
583.669	23823.51
583.866	23923.86
584.064	23803.03
584.262	23536.79
584.459	23846.04
584.657	23454.87
584.854	24028.31
585.052	23272.6
585.249	23803.03
585.447	23534.74
585.644	23366.81
585.841	23508.12
586.039	23692.44
586.236	23030.94
586.434	23372.96
586.631	23092.38
586.828	22803.62
587.026	23053.47
587.223	22742.18
587.42	22803.62
587.618	22901.92
587.815	22461.61
588.012	22420.65
588.21	22332.59
588.407	22973.6
588.604	22459.56
588.801	22303.92
588.999	22521
589.196	22236.33
589.393	22293.68
589.59	22328.49
589.787	22154.41
589.984	21908.66
590.182	21931.19
590.379	21662.9
590.576	21902.51
590.773	21816.5
590.97	21415.1
591.167	21824.69
591.364	21664.95
591.561	21613.75
591.758	21382.33
591.955	21402.81
592.152	21791.92
592.349	21302.46
592.546	21286.08
592.743	21398.71
592.94	21103.81
593.137	21347.51
593.334	21165.25
593.531	20866.24
593.727	21093.57
593.924	20939.97
594.121	20841.67
594.318	20778.18
594.515	20665.54
594.712	20765.89
594.908	20446.41
595.105	20569.29
595.302	20223.18
595.499	20374.73
595.696	20325.58
595.892	20208.84
596.089	20341.96
596.286	20505.8
596.482	19956.94
596.679	20204.75
596.876	20161.74
597.072	20055.25
597.269	20356.3
597.466	19608.79
597.662	19832.02
597.859	19928.27
598.055	19762.39
598.252	19743.95
598.448	19455.19
598.645	19455.19
598.841	19320.03
599.038	19571.93
599.234	19360.98
599.431	18990.3
599.627	19393.75
599.824	19254.49
600.02	19145.95
600.217	19385.56
600.413	19117.28
600.609	18920.67
600.806	18799.84
601.002	18928.86
601.198	18742.5
601.395	18859.23
601.591	18736.35
601.787	18455.78
601.984	18556.13
602.18	18648.29
602.376	18283.75
602.572	18533.61
602.769	18363.62
602.965	18160.87
603.161	18420.97
603.357	18369.77
603.553	18044.14
603.75	18097.39
603.946	17890.54
604.142	18031.85
604.338	17759.47
604.534	18074.86
604.73	17661.17
604.926	17800.43
605.122	17835.25
605.318	17667.31
605.514	17446.13
605.71	17483
605.906	17431.8
606.102	17673.46
606.298	17276.15
606.494	17333.5
606.69	17175.8
606.886	17304.82
607.082	17054.97
607.278	17196.28
607.474	16983.29
607.67	17378.55
607.866	16897.28
608.062	17210.62
608.257	16934.14
608.453	17145.08
608.649	17100.03
608.845	16850.17
609.041	16895.23
609.236	16778.5
609.432	16815.36
609.628	17020.16
609.824	16819.46
610.019	16577.8
610.215	16618.75
610.411	16733.44
610.606	16383.24
610.802	16497.92
610.998	16272.65
611.193	16266.5
611.389	16313.61
611.584	16211.21
611.78	16360.71
611.976	16379.14
612.171	16342.28
612.367	16121.1
612.562	16205.06
612.758	15918.35
612.953	16078.09
613.149	16299.27
613.344	15981.84
613.539	16078.09
613.735	16053.52
613.93	16186.63
614.126	15951.12
614.321	15881.49
614.517	15881.49
614.712	15758.61
614.907	15906.06
615.103	15787.28
615.298	15969.55
615.493	16014.6
615.688	15766.8
615.884	16213.26
616.079	15688.98
616.274	15820.05
616.47	15637.78
616.665	15656.21
616.86	15435.03
617.055	15332.63
617.25	15660.31
617.445	15627.54
617.641	15502.61
617.836	15363.35
618.031	15217.94
618.226	15367.45
618.421	15162.65
618.616	15205.66
618.811	15066.39
619.006	15166.74
619.201	14998.81
619.396	15181.08
619.591	14699.81
619.786	14875.93
619.981	14671.14
620.176	14964
620.371	14535.97
620.566	14693.66
620.761	14589.22
620.956	14576.93
621.151	14515.49
621.346	14415.14
621.541	14181.67
621.735	14310.69
621.93	14279.97
622.125	14322.98
622.32	13968.68
622.515	14198.06
622.709	13958.44
622.904	13845.8
623.099	13604.14
623.294	13706.54
623.488	13602.1
623.683	13868.33
623.878	13475.12
624.072	13626.67
624.267	13309.24
624.462	13370.68
624.656	13114.68
624.851	13135.16
625.046	13045.05
625.24	12936.51
625.435	12744
625.629	12864.83
625.824	12766.53
626.018	12930.36
626.213	12567.87
626.407	12752.19
626.602	12301.64
626.796	12612.93
626.991	12539.2
627.185	12348.74
627.38	12309.83
627.574	12150.09
627.768	12053.83
627.963	11988.3
628.157	12121.42
628.352	12049.74
628.546	11844.94
628.74	11947.34
628.935	11668.81
629.129	12002.63
629.323	11507.02
629.517	11570.51
629.712	11705.68
629.906	11484.5
630.1	11275.6
630.294	11515.22
630.489	11404.63
630.683	11253.08
630.877	11025.75
631.071	10866.01
631.265	11021.66
631.459	10954.07
631.653	11058.52
631.848	10997.08
632.042	10732.89
632.236	10884.44
632.43	10370.4
632.624	10691.93
632.818	10530.14
633.012	10480.99
633.206	10349.92
633.4	10323.3
633.594	10448.22
633.788	10268
633.982	10399.07
634.176	10077.54
634.369	10018.15
634.563	9985.38
634.757	10009.96
634.951	10206.56
635.145	10235.24
635.339	9954.66
635.533	9702.76
635.726	9909.61
635.92	9981.29
636.114	9567.6
636.308	9588.08
636.501	9629.04
636.695	9485.68
636.889	9442.67
637.083	9379.18
637.276	9360.75
637.47	9295.22
637.664	9225.59
637.857	9256.31
638.051	9094.52
638.244	9078.13
638.438	9043.32
638.632	9065.85
638.825	8926.58
639.019	8936.82
639.212	8930.68
639.406	9000.31
639.599	8713.6
639.793	8902.01
639.986	8480.13
640.18	8652.16
640.373	8721.79
640.567	8504.7
640.76	8551.81
640.954	8371.58
641.147	8406.4
641.34	8361.34
641.534	8392.06
641.727	8320.39
641.92	8359.3
642.114	8213.89
642.307	8148.36
642.5	8279.43
642.694	8062.34
642.887	7851.4
643.08	7892.36
643.273	7851.4
643.467	7892.36
643.66	7923.08
643.853	8000.9
644.046	7740.81
644.239	7935.37
644.432	7685.51
644.626	7681.42
644.819	7630.22
645.012	7652.75
645.205	7601.55
645.398	7456.14
645.591	7624.08
645.784	7464.33
645.977	7507.34
646.17	7466.38
646.363	7323.02
646.556	7128.47
646.749	7163.28
646.942	7331.22
647.135	7134.61
647.328	7228.82
647.521	7103.89
647.714	7056.79
647.907	6991.25
648.099	6935.96
648.292	7017.88
648.485	6923.67
648.678	6731.16
648.871	6849.94
649.064	6888.85
649.256	6620.57
649.449	6647.19
649.642	6546.84
649.835	6675.87
650.027	6600.09
650.22	6735.26
650.413	6370.72
650.605	6561.18
650.798	6530.46
650.991	6237.6
651.183	6407.58
651.376	6315.42
651.568	6411.68
651.761	6221.22
651.954	6223.27
652.146	6241.7
652.339	6120.87
652.531	6116.77
652.724	6190.5
652.916	6022.56
653.109	6118.82
653.301	6178.21
653.494	6104.48
653.686	5846.44
653.879	6120.87
654.071	5911.97
654.263	6086.05
654.456	5893.54
654.648	6012.32
654.84	5887.4
655.033	5819.82
655.225	5807.53
655.417	5670.31
655.61	5789.1
655.802	5727.66
655.994	5649.83
656.186	5672.36
656.379	5475.76
656.571	5469.61
656.763	5551.53
656.955	5549.48
657.148	5453.23
657.34	5574.06
657.532	5502.38
657.724	5432.75
657.916	5236.14
658.108	5299.63
658.3	5404.08
658.492	5232.05
658.684	5098.93
658.876	5279.15
659.068	5070.26
659.26	5146.03
659.452	5186.99
659.644	5023.16
659.836	4978.1
660.028	5078.45
660.22	5045.68
660.412	4881.85
660.604	4914.61
660.796	4969.91
660.988	4926.9
661.18	4744.63
661.372	4797.88
661.563	4828.6
661.755	4810.17
661.947	4750.78
662.139	4761.02
662.331	4656.57
662.522	4693.43
662.714	4662.71
662.906	4785.59
663.097	4609.47
663.289	4548.03
663.481	4580.79
663.673	4494.78
663.864	4591.03
664.056	4443.58
664.247	4539.83
664.439	4390.33
664.631	4617.66
664.822	4312.51
665.014	4552.12
665.205	4453.82
665.397	4441.53
665.588	4361.66
665.78	4267.45
665.971	4265.41
666.163	4210.11
666.354	4296.13
666.546	4269.5
666.737	4341.18
666.929	4251.07
667.12	4212.16
667.311	4328.89
667.503	4255.17
667.694	4107.71
667.885	4122.05
668.077	4007.36
668.268	4031.94
668.459	4089.28
668.651	3939.78
668.842	4087.23
669.033	3808.71
669.224	3960.26
669.416	4011.46
669.607	3843.53
669.798	3931.59
669.989	3958.21
670.18	3892.68
670.371	3972.55
670.563	4023.75
670.754	3843.53
670.945	3849.67
671.136	3859.91
671.327	3743.17
671.518	3823.05
671.709	3775.94
671.9	3804.61
672.091	3853.77
672.282	3681.74
672.473	3687.88
672.664	3614.15
672.855	3681.74
673.046	3726.79
673.237	3624.39
673.428	3577.29
673.619	3552.71
673.809	3507.66
674	3681.74
674.191	3573.19
674.382	3573.19
674.573	3675.59
674.764	3565
674.954	3397.07
675.145	3528.14
675.336	3487.18
675.527	3452.36
675.717	3378.64
675.908	3440.08
676.099	3495.37
676.289	3536.33
676.48	3425.74
676.671	3452.36
676.861	3427.79
677.052	3440.08
677.243	3481.03
677.433	3450.32
677.624	3442.12
677.814	3440.08
678.005	3327.44
678.195	3337.68
678.386	3339.73
678.576	3341.77
678.767	3325.39
678.957	3220.94
679.148	3370.44
679.338	3317.2
679.529	3423.69
679.719	3235.28
679.909	3237.33
680.1	3296.72
680.29	3354.06
680.481	3210.7
680.671	3163.6
680.861	3102.16
681.052	3134.93
681.242	3290.57
681.432	3192.27
681.622	3067.35
681.813	3200.46
682.003	3169.74
682.193	3050.96
682.383	3175.89
682.573	3116.5
682.764	3077.59
682.954	3059.15
683.144	3173.84
683.334	3104.21
683.524	3085.78
683.714	3061.2
683.904	2962.9
684.094	3089.87
684.284	3020.24
684.474	3046.87
684.664	3096.02
684.854	3020.24
685.044	3028.43
685.234	2938.32
685.424	3057.11
685.614	2903.51
685.804	3089.87
685.994	3028.43
686.184	3042.77
686.374	2907.6
686.564	2850.26
686.753	2997.71
686.943	2803.16
687.133	2936.28
687.323	3012.05
687.513	2817.49
687.702	2792.92
687.892	2897.36
688.082	2913.75
688.272	2887.12
688.461	2827.73
688.651	2696.66
688.841	2713.05
689.03	2729.43
689.22	2702.81
689.41	2727.38
689.599	2731.48
689.789	2835.92
689.979	2760.15
690.168	2624.98
690.358	2768.34
690.547	2784.73
690.737	2657.75
690.926	2655.7
691.116	2536.92
691.305	2639.32
691.495	2688.47
691.684	2620.89
691.874	2495.96
692.063	2643.42
692.252	2579.93
692.442	2567.64
692.631	2524.63
692.82	2481.63
693.01	2551.26
693.199	2561.5
693.388	2457.05
693.578	2545.11
693.767	2459.1
693.956	2528.73
694.146	2473.43
694.335	2409.95
694.524	2407.9
694.713	2471.39
694.902	2561.5
695.092	2475.48
695.281	2401.76
695.47	2373.08
695.659	2409.95
695.848	2381.28
696.037	2426.33
696.226	2426.33
696.415	2293.21
696.604	2485.72
696.793	2407.9
696.982	2303.45
697.171	2403.8
697.36	2315.74
697.549	2403.8
697.738	2412
697.927	2393.56
698.116	2311.64
698.305	2467.29
698.494	2244.06
698.683	2319.84
698.872	2389.47
699.061	2280.93
699.25	2368.99
699.438	2330.08
699.627	2405.85
699.816	2438.62
700.005	2334.17
700.193	2317.79
700.382	2405.85
700.571	2313.69
700.76	2362.84
700.948	2426.33
701.137	2334.17
701.326	2342.36
701.514	2242.01
701.703	2387.42
701.892	2264.54
702.08	2397.66
702.269	2280.93
702.457	2309.6
702.646	2319.84
702.834	2231.77
703.023	2213.34
703.212	2274.78
703.4	2264.54
703.589	2336.22
703.777	2397.66
703.965	2297.31
704.154	2432.47
704.342	2463.19
704.531	2313.69
704.719	2368.99
704.907	2467.29
705.096	2291.17
705.284	2270.69
705.472	2395.61
705.661	2272.73
705.849	2399.71
706.037	2268.64
706.226	2364.89
706.414	2364.89
706.602	2293.21
706.79	2414.04
706.979	2385.37
707.167	2303.45
707.355	2360.8
707.543	2282.97
707.731	2416.09
707.919	2387.42
708.107	2342.36
708.296	2342.36
708.484	2254.3
708.672	2319.84
708.86	2455
709.048	2285.02
709.236	2432.47
709.424	2342.36
709.612	2330.08
709.8	2362.84
709.988	2346.46
710.176	2354.65
710.364	2387.42
710.551	2291.17
710.739	2303.45
710.927	2334.17
711.115	2272.73
711.303	2274.78
711.491	2336.22
711.679	2502.11
711.866	2489.82
712.054	2352.6
712.242	2360.8
712.43	2448.86
712.617	2399.71
712.805	2358.75
712.993	2461.15
713.181	2317.79
713.368	2368.99
713.556	2387.42
713.744	2254.3
713.931	2409.95
714.119	2287.07
714.306	2387.42
714.494	2266.59
714.682	2397.66
714.869	2457.05
715.057	2373.08
715.244	2319.84
715.432	2434.52
715.619	2444.76
715.807	2348.51
715.994	2360.8
716.182	2315.74
716.369	2389.47
716.556	2313.69
716.744	2399.71
716.931	2338.27
717.119	2313.69
717.306	2360.8
717.493	2305.5
717.681	2405.85
717.868	2397.66
718.055	2481.63
718.242	2446.81
718.43	2397.66
718.617	2377.18
718.804	2309.6
718.991	2422.24
719.179	2371.04
719.366	2424.28
719.553	2446.81
719.74	2387.42
719.927	2319.84
720.114	2235.87
720.301	2373.08
720.488	2315.74
720.676	2299.36
720.863	2448.86
721.05	2287.07
721.237	2352.6
721.424	2366.94
721.611	2313.69
721.798	2287.07
721.985	2242.01
722.172	2301.4
722.358	2272.73
722.545	2368.99
722.732	2266.59
722.919	2387.42
723.106	2196.96
723.293	2366.94
723.48	2260.45
723.667	2276.83
723.853	2252.25
724.04	2366.94
724.227	2248.16
724.414	2371.04
724.6	2268.64
724.787	2405.85
724.974	2270.69
725.161	2317.79
725.347	2272.73
725.534	2282.97
725.72	2258.4
725.907	2448.86
726.094	2362.84
726.28	2307.55
726.467	2307.55
726.653	2242.01
726.84	2336.22
727.027	2340.32
727.213	2342.36
727.4	2356.7
727.586	2311.64
727.773	2323.93
727.959	2323.93
728.145	2344.41
728.332	2389.47
728.518	2248.16
728.705	2315.74
728.891	2223.58
729.077	2287.07
729.264	2231.77
729.45	2233.82
729.636	2205.15
729.823	2291.17
730.009	2285.02
730.195	2239.97
730.382	2352.6
730.568	2307.55
730.754	2412
730.94	2309.6
731.126	2340.32
731.313	2227.68
731.499	2172.38
731.685	2260.45
731.871	2270.69
732.057	2192.86
732.243	2401.76
732.429	2256.35
732.615	2268.64
732.801	2239.97
732.987	2141.66
733.173	2248.16
733.359	2303.45
733.545	2178.53
733.731	2227.68
733.917	2207.2
734.103	2217.44
734.289	2194.91
734.475	2172.38
734.661	2268.64
734.847	2176.48
735.033	2211.29
735.219	2059.74
735.404	2196.96
735.59	2151.9
735.776	2188.77
735.962	2156
736.148	2311.64
736.333	2135.52
736.519	2086.37
736.705	2137.57
736.89	2160.1
737.076	2268.64
737.262	2135.52
737.447	2067.94
737.633	2160.1
737.819	2094.56
738.004	2149.86
738.19	2151.9
738.375	2106.85
738.561	2178.53
738.747	2137.57
738.932	2129.38
739.118	2172.38
739.303	2176.48
739.489	2168.29
739.674	2029.03
739.859	2141.66
740.045	2026.98
740.23	2160.1
740.416	1973.73
740.601	2108.9
740.786	2106.85
740.972	2098.66
741.157	2108.9
741.342	1934.82
741.528	1957.35
741.713	1996.26
741.898	2026.98
742.084	1981.92
742.269	1988.07
742.454	2018.79
742.639	2022.88
742.824	1891.81
743.01	2045.41
743.195	2031.07
743.38	2014.69
743.565	2004.45
743.75	1900
743.935	1934.82
744.12	1883.62
744.305	1852.9
744.49	1807.84
744.675	1838.56
744.86	1875.43
745.045	1832.42
745.23	1799.65
745.415	1904.1
745.6	1836.52
745.785	1848.8
745.97	1902.05
746.155	1803.75
746.34	1857
746.525	1834.47
746.71	1773.03
746.895	1713.64
747.079	1648.1
747.264	1713.64
747.449	1752.55
747.634	1742.31
747.819	1684.97
748.003	1601
748.188	1629.67
748.373	1752.55
748.557	1611.24
748.742	1605.1
748.927	1652.2
749.111	1656.29
749.296	1596.9
749.481	1654.25
749.665	1553.9
749.85	1545.7
750.034	1592.81
750.219	1603.05
750.404	1605.1
750.588	1535.46
750.773	1482.22
750.957	1494.51
751.141	1510.89
751.326	1480.17
751.51	1445.35
751.695	1465.83
751.879	1498.6
752.064	1580.52
752.248	1437.16
752.432	1385.96
752.617	1459.69
752.801	1478.12
752.985	1449.45
753.17	1439.21
753.354	1361.39
753.538	1388.01
753.722	1437.16
753.907	1396.2
754.091	1330.67
754.275	1297.9
754.459	1316.33
754.643	1314.28
754.828	1381.87
755.012	1236.46
755.196	1263.08
755.38	1285.61
755.564	1240.56
755.748	1250.8
755.932	1306.09
756.116	1267.18
756.3	1185.26
756.484	1183.21
756.668	1230.32
756.852	1166.83
757.036	1215.98
757.22	1209.84
757.404	1136.11
757.588	1256.94
757.772	1074.67
757.956	1220.08
758.14	1177.07
758.323	1142.25
758.507	1189.36
758.691	1162.73
758.875	1240.56
759.059	1191.41
759.242	1127.92
759.426	1041.9
759.61	1002.99
759.794	1068.53
759.977	1119.73
760.161	1121.77
760.345	1144.3
760.528	1039.86
760.712	1054.19
760.895	1072.62
761.079	1058.29
761.263	1048.05
761.446	1009.14
761.63	1048.05
761.813	1107.44
761.997	1050.1
762.18	994.8
762.364	1015.28
762.547	1070.58
762.731	1054.19
762.914	998.9
763.098	951.79
763.281	902.64
763.464	970.23
763.648	890.35
763.831	970.23
764.015	968.18
764.198	994.8
764.381	974.32
764.564	1041.9
764.748	990.7
764.931	882.16
765.114	792.05
765.297	974.32
765.481	894.45
765.664	1002.99
765.847	931.31
766.03	972.27
766.213	927.22
766.397	980.47
766.58	880.11
766.763	978.42
766.946	867.83
767.129	896.5
767.312	904.69
767.495	818.68
767.678	916.98
767.861	859.63
768.044	792.05
768.227	869.87
768.41	833.01
768.593	837.11
768.776	865.78
768.959	833.01
769.142	843.25
769.324	767.48
769.507	855.54
769.69	851.44
769.873	865.78
770.056	816.63
770.239	781.81
770.421	863.73
770.604	781.81
770.787	812.53
770.97	763.38
771.152	720.37
771.335	792.05
771.518	765.43
771.7	806.39
771.883	830.96
772.066	796.15
772.248	771.57
772.431	804.34
772.613	779.76
772.796	749.04
772.978	744.95
773.161	830.96
773.343	751.09
773.526	753.14
773.708	726.52
773.891	710.13
774.073	687.61
774.256	615.93
774.438	734.71
774.621	747
774.803	716.28
774.985	714.23
775.168	706.04
775.35	679.41
775.532	720.37
775.715	708.09
775.897	757.24
776.079	636.41
776.261	630.26
776.444	697.85
776.626	587.26
776.808	611.83
776.99	654.84
777.173	660.98
777.355	556.54
777.537	660.98
777.719	572.92
777.901	607.73
778.083	531.96
778.265	579.06
778.447	648.69
778.629	538.1
778.811	556.54
778.993	669.17
779.175	583.16
779.357	628.21
779.539	493.05
779.721	609.78
779.903	630.26
780.085	574.97
780.267	525.82
780.449	566.78
780.631	564.73
780.812	566.78
780.994	591.35
781.176	540.15
781.358	480.76
781.54	509.43
781.721	560.63
781.903	544.25
782.085	507.38
782.267	427.51
782.448	552.44
782.63	460.28
782.812	509.43
782.993	525.82
783.175	450.04
783.357	577.02
783.538	445.95
783.72	511.48
783.901	466.42
784.083	439.8
784.264	462.33
784.446	357.88
784.627	486.9
784.809	364.03
784.99	435.71
785.172	501.24
785.353	398.84
785.535	493.05
785.716	347.64
785.897	339.45
786.079	415.23
786.26	441.85
786.441	372.22
786.623	425.47
786.804	392.7
786.985	468.47
787.167	435.71
787.348	435.71
787.529	427.51
787.71	447.99
787.891	409.08
788.073	423.42
788.254	382.46
788.435	433.66
788.616	310.78
788.797	302.59
788.978	351.74
789.159	321.02
789.34	364.03
789.522	368.12
789.703	380.41
789.884	321.02
790.065	337.4
790.246	327.16
790.427	366.07
790.607	323.07
790.788	368.12
790.969	343.55
791.15	394.75
791.331	321.02
791.512	370.17
791.693	292.35
791.874	341.5
792.054	335.35
792.235	292.35
792.416	306.68
792.597	278.01
792.778	314.88
792.958	333.31
793.139	306.68
793.32	302.59
793.5	257.53
793.681	253.44
793.862	306.68
794.042	294.4
794.223	275.96
794.404	251.39
794.584	302.59
794.765	239.1
794.945	284.16
795.126	341.5
795.306	357.88
795.487	278.01
795.667	280.06
795.848	259.58
796.028	241.15
796.209	292.35
796.389	243.2
796.57	251.39
796.75	251.39
796.93	292.35
797.111	218.62
797.291	343.55
797.471	249.34
797.652	271.87
797.832	235
798.012	292.35
798.192	302.59
798.373	169.47
798.553	255.48
798.733	255.48
798.913	192
799.093	292.35
799.274	224.76
799.454	237.05
799.634	286.2
799.814	187.9
799.994	298.49
800.174	239.1
800.354	220.67
800.534	148.99
800.714	208.38
800.894	296.44
801.074	235
801.254	296.44
801.434	157.18
801.614	239.1
801.794	192
801.974	527.86
802.154	222.72
802.334	282.11
802.514	220.67
802.693	206.33
802.873	200.19
803.053	245.24
803.233	222.72
803.413	241.15
803.592	181.76
803.772	226.81
803.952	171.52
804.131	175.61
804.311	181.76
804.491	177.66
804.67	196.09
804.85	108.03
805.03	196.09
805.209	222.72
805.389	189.95
805.568	198.14
805.748	134.65
805.928	198.14
806.107	136.7
806.287	208.38
806.466	165.37
806.646	173.57
806.825	179.71
807.004	173.57
807.184	108.03
807.363	140.8
807.543	171.52
807.722	183.81
807.901	148.99
808.081	185.85
808.26	144.89
808.439	155.13
808.619	118.27
808.798	114.17
808.977	226.81
809.156	153.09
809.336	148.99
809.515	220.67
809.694	159.23
809.873	155.13
810.052	124.41
810.231	146.94
810.411	230.91
810.59	159.23
810.769	167.42
810.948	134.65
811.127	142.85
811.306	167.42
811.485	134.65
811.664	140.8
811.843	167.42
812.022	194.05
812.201	216.57
812.38	140.8
812.559	196.09
812.737	144.89
812.916	163.33
813.095	171.52
813.274	124.41
813.453	138.75
813.632	153.09
813.811	161.28
813.989	126.46
814.168	175.61
814.347	200.19
814.526	206.33
814.704	136.7
814.883	185.85
815.062	87.55
815.24	204.28
815.419	159.23
815.598	87.55
815.776	112.13
815.955	124.41
816.133	54.78
816.312	161.28
816.49	110.08
816.669	108.03
816.847	116.22
817.026	181.76
817.204	79.36
817.383	132.61
817.561	194.05
817.74	95.74
817.918	97.79
818.097	210.43
818.275	56.83
818.453	171.52
818.632	116.22
818.81	130.56
818.988	206.33
819.167	177.66
819.345	116.22
819.523	114.17
819.701	140.8
819.879	103.93
820.058	75.26
820.236	128.51
820.414	73.21
820.592	75.26
820.77	83.45
820.948	83.45
821.127	157.18
821.305	99.84
821.483	85.5
821.661	116.22
821.839	112.13
822.017	62.98
822.195	124.41
822.373	44.54
822.551	67.07
822.729	116.22
822.907	116.22
823.085	83.45
823.262	52.74
823.44	75.26
823.618	103.93
823.796	163.33
823.974	148.99
824.152	54.78
824.329	77.31
824.507	120.32
824.685	130.56
824.863	153.09
825.04	122.37
825.218	151.04
825.396	128.51
825.574	73.21
825.751	138.75
825.929	77.31
826.107	85.5
826.284	124.41
826.462	134.65
826.639	15.87
826.817	134.65
826.994	93.69
827.172	71.17
827.349	120.32
827.527	97.79
827.704	65.02
827.882	22.02
828.059	103.93
828.237	122.37
828.414	116.22
828.591	17.92
828.769	114.17
828.946	36.35
829.124	105.98
829.301	93.69
829.478	181.76
829.655	132.61
829.833	99.84
830.01	138.75
830.187	138.75
830.364	77.31
830.542	122.37
830.719	112.13
830.896	151.04
831.073	101.89
831.25	165.37
831.427	89.6
831.604	54.78
831.782	136.7
831.959	126.46
832.136	116.22
832.313	105.98
832.49	50.69
832.667	99.84
832.844	7.68
833.021	26.11
833.198	1.54
833.374	71.17
833.551	13.82
833.728	116.22
833.905	91.65
834.082	44.54
834.259	97.79
834.436	73.21
834.612	34.3
834.789	97.79
834.966	36.35
835.143	81.41
835.319	69.12
835.496	157.18
835.673	75.26
835.85	136.7
836.026	85.5
836.203	19.97
836.38	36.35
836.556	99.84
836.733	46.59
836.909	151.04
837.086	69.12
837.262	93.69
837.439	134.65
837.616	60.93
837.792	67.07
837.968	67.07
838.145	69.12
838.321	56.83
838.498	65.02
838.674	130.56
838.851	157.18
839.027	83.45
839.203	83.45
839.38	95.74
839.556	67.07
839.732	110.08
839.909	26.11
840.085	15.87
840.261	-6.66
840.437	71.17
840.614	138.75
840.79	87.55
840.966	79.36
841.142	114.17
841.318	34.3
841.494	95.74
841.671	19.97
841.847	-10.75
842.023	-25.09
842.199	81.41
842.375	28.16
842.551	-18.94
842.727	42.5
842.903	97.79
843.079	-31.23
843.255	34.3
843.431	124.41
843.607	5.63
843.783	-0.51
843.959	87.55
844.134	-29.18
844.31	71.17
844.486	71.17
844.662	42.5
844.838	48.64
845.013	130.56
845.189	5.63
845.365	85.5
845.541	50.69
845.716	42.5
845.892	108.03
846.068	60.93
846.244	110.08
846.419	79.36
846.595	52.74
846.77	56.83
846.946	-0.51
847.122	13.82
847.297	32.26
847.473	85.5
847.648	-2.56
847.824	73.21
847.999	-29.18
848.175	-0.51
848.35	56.83
848.526	124.41
848.701	116.22
848.876	99.84
849.052	48.64
849.227	101.89
849.403	136.7
849.578	11.78
849.753	77.31
849.929	38.4
850.104	-29.18
850.279	7.68
850.454	60.93
850.63	42.5
850.805	93.69
850.98	105.98
851.155	17.92
851.33	42.5
851.505	3.58
851.681	56.83
851.856	-0.51
852.031	67.07
852.206	103.93
852.381	91.65
852.556	69.12
852.731	42.5
852.906	17.92
853.081	17.92
853.256	50.69
853.431	28.16
853.606	9.73
853.781	3.58
853.956	36.35
854.131	50.69
854.305	-0.51
854.48	17.92
854.655	52.74
854.83	22.02
855.005	60.93
855.18	24.06
855.354	-0.51
855.529	26.11
855.704	22.02
855.879	52.74
856.053	-6.66
856.228	1.54
856.403	-14.85
856.577	89.6
856.752	56.83
856.926	58.88
857.101	26.11
857.276	15.87
857.45	26.11
857.625	42.5
857.799	15.87
857.974	15.87
858.148	-6.66
858.323	22.02
858.497	36.35
858.672	9.73
858.846	36.35
859.02	75.26
859.195	5.63
859.369	15.87
859.543	28.16
859.718	46.59
859.892	5.63
860.066	5.63
860.241	-12.8
860.415	-25.09
860.589	17.92
860.763	-2.56
860.938	-43.52
861.112	5.63
861.286	-25.09
861.46	44.54
861.634	116.22
861.808	75.26
861.982	54.78
862.157	-86.53
862.331	36.35
862.505	9.73
862.679	1.54
862.853	-33.28
863.027	38.4
863.201	65.02
863.375	17.92
863.549	36.35
863.722	-2.56
863.896	46.59
864.07	-8.7
864.244	-0.51
864.418	36.35
864.592	-39.42
864.766	1.54
864.939	19.97
865.113	-4.61
865.287	22.02
865.461	26.11
865.634	50.69
865.808	15.87
865.982	50.69
866.156	-35.33
866.329	-27.14
866.503	69.12
866.676	60.93
866.85	1.54
867.024	7.68
867.197	9.73
867.371	-6.66
867.544	7.68
867.718	-55.81
867.891	3.58
868.065	75.26
868.238	48.64
868.412	69.12
868.585	93.69
868.759	93.69
868.932	-16.9
869.105	-14.85
869.279	17.92
869.452	-66.05
869.625	3.58
869.799	42.5
869.972	-23.04
870.145	11.78
870.319	-37.38
870.492	26.11
870.665	-0.51
870.838	-86.53
871.011	24.06
871.185	36.35
871.358	-14.85
871.531	44.54
871.704	-4.61
871.877	28.16
872.05	28.16
872.223	30.21
872.396	-14.85
872.569	-25.09
872.742	19.97
872.915	5.63
873.088	-4.61
873.261	30.21
873.434	3.58
873.607	46.59
873.78	11.78
873.953	7.68
874.126	-2.56
874.299	65.02
874.471	1.54
874.644	7.68
874.817	79.36
874.99	85.5
875.163	-16.9
875.335	-8.7
875.508	58.88
875.681	17.92
875.853	-6.66
876.026	7.68
876.199	3.58
876.371	11.78
876.544	56.83
876.717	13.82
876.889	122.37
877.062	-4.61
877.234	-10.75
877.407	-12.8
877.579	22.02
877.752	60.93
877.924	-10.75
878.097	46.59
878.269	-6.66
878.442	-2.56
878.614	126.46
878.786	1.54
878.959	34.3
879.131	-0.51
879.303	-10.75
879.476	28.16
879.648	42.5
879.82	110.08
879.993	46.59
880.165	9.73
880.337	-29.18
880.509	67.07
880.681	-43.52
880.854	48.64
881.026	87.55
881.198	15.87
881.37	34.3
881.542	28.16
881.714	30.21
881.886	34.3
882.058	62.98
882.23	22.02
882.402	71.17
882.574	34.3
882.746	44.54
882.918	26.11
883.09	101.89
883.262	1.54
883.434	30.21
883.606	30.21
883.778	11.78
883.95	46.59
884.122	81.41
884.293	22.02
884.465	-29.18
884.637	73.21
884.809	52.74
884.98	19.97
885.152	-39.42
885.324	1.54
885.496	30.21
885.667	-31.23
885.839	24.06
886.011	71.17
886.182	77.31
886.354	62.98
886.525	34.3
886.697	42.5
886.869	-31.23
887.04	-20.99
887.212	17.92
887.383	69.12
887.555	28.16
887.726	-0.51
887.897	-51.71
888.069	34.3
888.24	-68.09
888.412	46.59
888.583	-20.99
888.754	30.21
888.926	-55.81
889.097	108.03
889.268	-39.42
889.44	-8.7
889.611	71.17
889.782	22.02
889.953	-53.76
890.125	46.59
890.296	-8.7
890.467	46.59
890.638	-35.33
890.809	-55.81
890.98	-0.51
891.151	-12.8
891.323	65.02
891.494	5.63
891.665	42.5
891.836	-20.99
892.007	28.16
892.178	36.35
892.349	-4.61
892.52	-82.43
892.691	-0.51
892.862	9.73
893.032	-74.24
893.203	22.02
893.374	22.02
893.545	85.5
893.716	-135.68
893.887	9.73
894.057	-0.51
894.228	9.73
894.399	32.26
894.57	89.6
894.74	-33.28
894.911	-47.62
895.082	9.73
895.253	-0.51
895.423	-27.14
895.594	44.54
895.764	15.87
895.935	28.16
896.106	13.82
896.276	50.69
896.447	-14.85
896.617	15.87
896.788	5.63
896.958	-23.04
897.129	24.06
897.299	24.06
897.47	-2.56
897.64	19.97
897.81	-33.28
897.981	50.69
898.151	-29.18
898.322	-8.7
898.492	-4.61
898.662	26.11
898.832	9.73
899.003	38.4
899.173	-0.51
899.343	-0.51
899.513	24.06
