Data from USB4F104151__93__12-02-36-124.txt Node

Date: Fri Mar 14 12:02:36 EDT 2025
User: louis
Spectrometer: USB4F10415
Trigger mode: 4
Integration Time (sec): 2.000000E-2
Scans to average: 1
Electric dark correction enabled: true
Nonlinearity correction enabled: false
Boxcar width: 0
XAxis mode: Wavelengths
Number of Pixels in Spectrum: 3648
>>>>>Begin Spectral Data<<<<<
178.204	-73.73
178.424	-73.73
178.644	-73.73
178.864	-36.86
179.084	-65.54
179.304	10.24
179.524	-55.3
179.744	-45.06
179.964	57.34
180.184	-0
180.404	43.01
180.624	26.62
180.844	43.01
181.064	-112.64
181.283	22.53
181.503	10.24
181.723	-0
181.943	-16.38
182.163	81.92
182.383	-6.14
182.602	63.49
182.822	18.43
183.042	90.11
183.262	24.58
183.482	34.82
183.701	-10.24
183.921	47.1
184.141	-18.43
184.361	63.49
184.58	16.38
184.8	14.34
185.02	-2.05
185.239	59.39
185.459	22.53
185.679	20.48
185.898	53.25
186.118	6.14
186.338	88.06
186.557	2.05
186.777	26.62
186.997	65.53
187.216	2.05
187.436	14.34
187.655	100.35
187.875	26.62
188.095	86.01
188.314	55.3
188.534	47.1
188.753	69.63
188.973	28.67
189.192	81.92
189.412	30.72
189.631	81.92
189.851	40.96
190.07	59.39
190.29	30.72
190.509	36.86
190.729	12.29
190.948	114.69
191.168	135.17
191.387	63.49
191.607	45.06
191.826	47.1
192.045	45.06
192.265	63.49
192.484	94.21
192.704	73.73
192.923	-0
193.142	47.1
193.362	24.58
193.581	122.88
193.8	45.06
194.02	32.77
194.239	73.73
194.458	94.21
194.678	30.72
194.897	-20.48
195.116	69.63
195.335	36.86
195.555	43.01
195.774	28.67
195.993	92.16
196.212	81.92
196.432	8.19
196.651	88.06
196.87	32.77
197.089	8.19
197.308	67.58
197.528	18.43
197.747	-10.24
197.966	32.77
198.185	30.72
198.404	47.1
198.623	47.1
198.842	59.39
199.062	-16.38
199.281	79.87
199.5	14.34
199.719	2.05
199.938	55.3
200.157	59.39
200.376	22.53
200.595	126.97
200.814	75.77
201.033	16.38
201.252	90.11
201.471	96.25
201.69	34.82
201.909	75.77
202.128	49.15
202.347	32.77
202.566	63.49
202.785	30.72
203.004	24.58
203.223	98.3
203.442	47.1
203.661	2.05
203.879	63.49
204.098	30.72
204.317	38.91
204.536	45.06
204.755	20.48
204.974	55.3
205.193	2.05
205.411	22.53
205.63	61.44
205.849	112.64
206.068	57.34
206.287	6.14
206.505	4.1
206.724	75.77
206.943	32.77
207.162	71.68
207.381	26.62
207.599	28.67
207.818	-14.34
208.037	18.43
208.255	6.14
208.474	6.14
208.693	71.68
208.911	22.53
209.13	53.25
209.349	16.38
209.567	83.97
209.786	61.44
210.005	8.19
210.223	-2.05
210.442	16.38
210.661	-4.1
210.879	36.86
211.098	-22.53
211.316	124.93
211.535	61.44
211.753	104.45
211.972	18.43
212.191	83.97
212.409	51.2
212.628	73.73
212.846	12.29
213.065	24.58
213.283	118.78
213.502	6.14
213.72	-0
213.938	-6.14
214.157	86.01
214.375	6.14
214.594	75.77
214.812	18.43
215.031	8.19
215.249	79.87
215.467	75.77
215.686	126.97
215.904	45.06
216.122	-12.29
216.341	57.34
216.559	-4.1
216.778	71.68
216.996	81.92
217.214	10.24
217.432	34.82
217.651	20.48
217.869	55.3
218.087	167.93
218.306	118.78
218.524	43.01
218.742	43.01
218.96	94.21
219.179	-18.43
219.397	63.49
219.615	49.15
219.833	14.34
220.051	36.86
220.27	90.11
220.488	36.86
220.706	22.53
220.924	63.49
221.142	-10.24
221.36	75.77
221.578	104.45
221.796	12.29
222.015	65.53
222.233	-61.44
222.451	55.3
222.669	86.01
222.887	-47.1
223.105	86.01
223.323	10.24
223.541	112.64
223.759	22.53
223.977	110.59
224.195	116.73
224.413	18.43
224.631	30.72
224.849	-4.1
225.067	65.53
225.285	20.48
225.503	83.97
225.721	36.86
225.939	30.72
226.157	18.43
226.375	100.35
226.592	36.86
226.81	32.77
227.028	108.54
227.246	114.69
227.464	40.96
227.682	61.44
227.9	65.53
228.117	57.34
228.335	57.34
228.553	34.82
228.771	-2.05
228.989	16.38
229.206	28.67
229.424	28.67
229.642	-24.58
229.86	34.82
230.077	10.24
230.295	32.77
230.513	8.19
230.731	86.01
230.948	24.58
231.166	96.25
231.384	18.43
231.601	51.2
231.819	69.63
232.037	14.34
232.254	-10.24
232.472	10.24
232.689	16.38
232.907	32.77
233.125	40.96
233.342	32.77
233.56	100.35
233.777	4.1
233.995	-6.14
234.213	-4.1
234.43	57.34
234.648	110.59
234.865	94.21
235.083	36.86
235.3	22.53
235.518	30.72
235.735	43.01
235.953	65.53
236.17	34.82
236.388	4.1
236.605	-8.19
236.822	24.58
237.04	106.49
237.257	81.92
237.475	49.15
237.692	100.35
237.909	-30.72
238.127	26.62
238.344	26.62
238.562	47.1
238.779	-2.05
238.996	92.16
239.214	10.24
239.431	36.86
239.648	51.2
239.865	61.44
240.083	55.3
240.3	24.58
240.517	28.67
240.735	69.63
240.952	90.11
241.169	38.91
241.386	28.67
241.603	57.34
241.821	43.01
242.038	53.25
242.255	8.19
242.472	-2.05
242.689	53.25
242.907	73.73
243.124	-4.1
243.341	30.72
243.558	34.82
243.775	45.06
243.992	12.29
244.209	20.48
244.426	102.4
244.643	98.3
244.86	20.48
245.078	69.63
245.295	86.01
245.512	51.2
245.729	28.67
245.946	-14.34
246.163	4.1
246.38	32.77
246.597	43.01
246.814	59.39
247.031	36.86
247.248	40.96
247.464	51.2
247.681	51.2
247.898	57.34
248.115	-4.1
248.332	-6.14
248.549	92.16
248.766	98.3
248.983	96.25
249.2	88.06
249.417	36.86
249.633	-47.1
249.85	53.25
250.067	10.24
250.284	30.72
250.501	65.53
250.717	88.06
250.934	38.91
251.151	30.72
251.368	16.38
251.585	92.16
251.801	6.14
252.018	10.24
252.235	-4.1
252.451	-8.19
252.668	43.01
252.885	34.82
253.102	8.19
253.318	73.73
253.535	6.14
253.752	4.1
253.968	24.58
254.185	86.01
254.401	73.73
254.618	24.58
254.835	30.72
255.051	65.53
255.268	65.53
255.484	12.29
255.701	-4.1
255.917	63.49
256.134	-20.48
256.351	55.3
256.567	14.34
256.784	49.15
257	-2.05
257.217	14.34
257.433	104.45
257.65	22.53
257.866	69.63
258.082	40.96
258.299	112.64
258.515	14.34
258.732	20.48
258.948	38.91
259.165	28.67
259.381	18.43
259.597	65.53
259.814	6.14
260.03	51.2
260.246	94.21
260.463	-10.24
260.679	6.14
260.895	67.58
261.112	73.73
261.328	90.11
261.544	120.83
261.761	61.44
261.977	18.43
262.193	4.1
262.409	-10.24
262.626	26.62
262.842	61.44
263.058	59.39
263.274	43.01
263.49	-18.43
263.707	71.68
263.923	-20.48
264.139	32.77
264.355	43.01
264.571	28.67
264.787	67.58
265.004	73.73
265.22	71.68
265.436	10.24
265.652	57.34
265.868	129.02
266.084	63.49
266.3	145.41
266.516	47.1
266.732	59.39
266.948	32.77
267.164	-0
267.38	79.87
267.596	40.96
267.812	106.49
268.028	-12.29
268.244	43.01
268.46	24.58
268.676	43.01
268.892	104.45
269.108	26.62
269.324	12.29
269.54	63.49
269.756	36.86
269.972	-22.53
270.188	77.82
270.403	-16.38
270.619	47.1
270.835	57.34
271.051	38.91
271.267	-34.82
271.483	61.44
271.698	18.43
271.914	75.77
272.13	28.67
272.346	40.96
272.562	-2.05
272.777	108.54
272.993	38.91
273.209	61.44
273.425	63.49
273.64	-43.01
273.856	-4.1
274.072	71.68
274.287	-10.24
274.503	32.77
274.719	-4.1
274.934	12.29
275.15	43.01
275.366	28.67
275.581	28.67
275.797	69.63
276.012	65.53
276.228	69.63
276.444	67.58
276.659	75.77
276.875	-57.34
277.09	55.3
277.306	73.73
277.521	14.34
277.737	45.06
277.952	36.86
278.168	8.19
278.383	126.97
278.599	45.06
278.814	75.77
279.03	73.73
279.245	32.77
279.461	30.72
279.676	90.11
279.892	43.01
280.107	36.86
280.322	36.86
280.538	120.83
280.753	98.3
280.969	18.43
281.184	71.68
281.399	38.91
281.615	47.1
281.83	-2.05
282.045	6.14
282.26	43.01
282.476	65.53
282.691	51.2
282.906	34.82
283.122	51.2
283.337	-22.53
283.552	79.87
283.767	71.68
283.983	69.63
284.198	-36.86
284.413	36.86
284.628	20.48
284.843	71.68
285.058	45.06
285.274	104.45
285.489	-6.14
285.704	63.49
285.919	22.53
286.134	38.91
286.349	104.45
286.564	10.24
286.779	108.54
286.995	40.96
287.21	65.53
287.425	40.96
287.64	92.16
287.855	108.54
288.07	-36.86
288.285	-10.24
288.5	30.72
288.715	92.16
288.93	-28.67
289.145	86.01
289.36	122.88
289.575	-4.1
289.79	59.39
290.004	26.62
290.219	12.29
290.434	69.63
290.649	43.01
290.864	79.87
291.079	-2.05
291.294	75.77
291.509	-2.05
291.724	73.73
291.938	-22.53
292.153	57.34
292.368	-0
292.583	20.48
292.798	69.63
293.012	133.12
293.227	-2.05
293.442	12.29
293.657	73.73
293.871	20.48
294.086	10.24
294.301	47.1
294.516	73.73
294.73	16.38
294.945	14.34
295.16	81.92
295.374	22.53
295.589	-8.19
295.804	18.43
296.018	8.19
296.233	63.49
296.447	40.96
296.662	88.06
296.877	67.58
297.091	8.19
297.306	22.53
297.52	20.48
297.735	106.49
297.949	16.38
298.164	69.63
298.378	-10.24
298.593	10.24
298.807	32.77
299.022	63.49
299.236	47.1
299.451	34.82
299.665	34.82
299.88	77.82
300.094	16.38
300.309	49.15
300.523	-38.91
300.737	53.25
300.952	45.06
301.166	16.38
301.381	86.01
301.595	-0
301.809	10.24
302.024	28.67
302.238	40.96
302.452	71.68
302.667	65.53
302.881	28.67
303.095	63.49
303.309	53.25
303.524	10.24
303.738	12.29
303.952	-22.53
304.166	18.43
304.381	-26.62
304.595	129.02
304.809	75.77
305.023	59.39
305.237	47.1
305.452	49.15
305.666	100.35
305.88	57.34
306.094	49.15
306.308	110.59
306.522	73.73
306.736	-0
306.95	8.19
307.164	40.96
307.379	47.1
307.593	90.11
307.807	12.29
308.021	63.49
308.235	77.82
308.449	34.82
308.663	106.49
308.877	129.02
309.091	106.49
309.305	59.39
309.519	-16.38
309.733	86.01
309.947	55.3
310.161	22.53
310.374	45.06
310.588	55.3
310.802	-22.53
311.016	67.58
311.23	-20.48
311.444	73.73
311.658	2.05
311.872	61.44
312.085	53.25
312.299	81.92
312.513	16.38
312.727	30.72
312.941	-8.19
313.154	47.1
313.368	30.72
313.582	47.1
313.796	88.06
314.009	81.92
314.223	18.43
314.437	34.82
314.651	94.21
314.864	-14.34
315.078	59.39
315.292	-8.19
315.505	-22.53
315.719	40.96
315.933	38.91
316.146	69.63
316.36	55.3
316.573	57.34
316.787	26.62
317.001	30.72
317.214	28.67
317.428	10.24
317.641	81.92
317.855	-16.38
318.068	30.72
318.282	45.06
318.495	81.92
318.709	40.96
318.922	108.54
319.136	14.34
319.349	139.26
319.563	12.29
319.776	69.63
319.99	57.34
320.203	102.4
320.417	63.49
320.63	40.96
320.843	75.77
321.057	-0
321.27	86.01
321.483	26.62
321.697	71.68
321.91	47.1
322.124	40.96
322.337	43.01
322.55	81.92
322.763	40.96
322.977	141.31
323.19	65.53
323.403	96.25
323.617	47.1
323.83	-14.34
324.043	20.48
324.256	124.93
324.469	73.73
324.683	69.63
324.896	59.39
325.109	141.31
325.322	-8.19
325.535	43.01
325.748	83.97
325.962	24.58
326.175	8.19
326.388	18.43
326.601	47.1
326.814	8.19
327.027	-26.62
327.24	36.86
327.453	20.48
327.666	83.97
327.879	36.86
328.092	83.97
328.305	116.73
328.518	-10.24
328.731	47.1
328.944	92.16
329.157	120.83
329.37	49.15
329.583	112.64
329.796	137.21
330.009	32.77
330.222	-24.58
330.435	59.39
330.648	77.82
330.861	120.83
331.073	14.34
331.286	-12.29
331.499	8.19
331.712	-18.43
331.925	4.1
332.138	45.06
332.35	73.73
332.563	16.38
332.776	120.83
332.989	-4.1
333.202	63.49
333.414	133.12
333.627	59.39
333.84	24.58
334.053	71.68
334.265	-57.34
334.478	110.59
334.691	-30.72
334.903	32.77
335.116	55.3
335.329	112.64
335.541	51.2
335.754	106.49
335.966	24.58
336.179	6.14
336.392	59.39
336.604	30.72
336.817	30.72
337.029	67.58
337.242	18.43
337.454	57.34
337.667	49.15
337.88	59.39
338.092	26.62
338.305	122.88
338.517	65.53
338.729	71.68
338.942	75.77
339.154	24.58
339.367	6.14
339.579	124.93
339.792	49.15
340.004	77.82
340.217	88.06
340.429	6.14
340.641	30.72
340.854	30.72
341.066	96.25
341.278	96.25
341.491	6.14
341.703	169.98
341.915	14.34
342.128	43.01
342.34	-30.72
342.552	16.38
342.764	26.62
342.977	71.68
343.189	6.14
343.401	67.58
343.613	12.29
343.826	100.35
344.038	-30.72
344.25	112.64
344.462	43.01
344.674	22.53
344.886	79.87
345.099	-6.14
345.311	75.77
345.523	124.93
345.735	40.96
345.947	38.91
346.159	43.01
346.371	67.58
346.583	98.3
346.795	79.87
347.007	32.77
347.219	47.1
347.431	16.38
347.643	24.58
347.855	14.34
348.067	6.14
348.279	24.58
348.491	112.64
348.703	131.07
348.915	75.77
349.127	71.68
349.339	69.63
349.551	59.39
349.763	67.58
349.975	47.1
350.187	49.15
350.399	16.38
350.61	28.67
350.822	51.2
351.034	34.82
351.246	65.53
351.458	45.06
351.669	63.49
351.881	59.39
352.093	63.49
352.305	55.3
352.517	65.53
352.728	-18.43
352.94	30.72
353.152	94.21
353.363	92.16
353.575	51.2
353.787	75.77
353.999	61.44
354.21	88.06
354.422	-0
354.633	30.72
354.845	-4.1
355.057	38.91
355.268	114.69
355.48	110.59
355.692	57.34
355.903	8.19
356.115	131.07
356.326	49.15
356.538	59.39
356.749	24.58
356.961	147.45
357.172	73.73
357.384	49.15
357.595	155.65
357.807	90.11
358.018	43.01
358.23	86.01
358.441	75.77
358.653	38.91
358.864	73.73
359.075	57.34
359.287	86.01
359.498	-16.38
359.709	120.83
359.921	67.58
360.132	129.02
360.344	65.53
360.555	73.73
360.766	55.3
360.977	53.25
361.189	61.44
361.4	47.1
361.611	-0
361.823	79.87
362.034	22.53
362.245	26.62
362.456	96.25
362.667	32.77
362.879	28.67
363.09	53.25
363.301	137.21
363.512	53.25
363.723	71.68
363.935	67.58
364.146	65.53
364.357	122.88
364.568	96.25
364.779	10.24
364.99	94.21
365.201	69.63
365.412	88.06
365.623	47.1
365.834	104.45
366.045	65.53
366.256	18.43
366.467	32.77
366.678	40.96
366.889	20.48
367.1	135.17
367.311	143.36
367.522	75.77
367.733	61.44
367.944	26.62
368.155	45.06
368.366	114.69
368.577	94.21
368.788	114.69
368.999	69.63
369.209	-4.1
369.42	106.49
369.631	88.06
369.842	45.06
370.053	79.87
370.264	69.63
370.474	73.73
370.685	126.97
370.896	26.62
371.107	55.3
371.317	96.25
371.528	45.06
371.739	114.69
371.95	65.53
372.16	79.87
372.371	-12.29
372.582	124.93
372.792	65.53
373.003	90.11
373.214	-12.29
373.424	38.91
373.635	30.72
373.846	77.82
374.056	22.53
374.267	104.45
374.477	75.77
374.688	63.49
374.898	198.65
375.109	53.25
375.319	102.4
375.53	114.69
375.74	124.93
375.951	53.25
376.161	18.43
376.372	96.25
376.582	20.48
376.793	43.01
377.003	36.86
377.214	73.73
377.424	102.4
377.635	-22.53
377.845	8.19
378.055	45.06
378.266	16.38
378.476	22.53
378.686	30.72
378.897	57.34
379.107	30.72
379.317	-51.2
379.528	12.29
379.738	61.44
379.948	-2.05
380.158	18.43
380.369	57.34
380.579	108.54
380.789	67.58
380.999	94.21
381.21	51.2
381.42	118.78
381.63	86.01
381.84	55.3
382.05	116.73
382.261	61.44
382.471	55.3
382.681	94.21
382.891	118.78
383.101	81.92
383.311	24.58
383.521	75.77
383.731	90.11
383.941	122.88
384.151	71.68
384.361	47.1
384.571	79.87
384.781	75.77
384.991	106.49
385.201	55.3
385.411	75.77
385.621	71.68
385.831	55.3
386.041	73.73
386.251	69.63
386.461	51.2
386.671	20.48
386.881	57.34
387.091	30.72
387.301	94.21
387.511	79.87
387.72	167.93
387.93	98.3
388.14	92.16
388.35	104.45
388.56	36.86
388.769	108.54
388.979	-4.1
389.189	67.58
389.399	112.64
389.609	86.01
389.818	114.69
390.028	45.06
390.238	88.06
390.447	112.64
390.657	104.45
390.867	90.11
391.076	83.97
391.286	161.79
391.496	114.69
391.705	102.4
391.915	63.49
392.125	141.31
392.334	92.16
392.544	86.01
392.753	47.1
392.963	10.24
393.172	104.45
393.382	43.01
393.591	98.3
393.801	79.87
394.01	73.73
394.22	129.02
394.429	92.16
394.639	79.87
394.848	100.35
395.058	59.39
395.267	79.87
395.477	77.82
395.686	2.05
395.895	157.69
396.105	88.06
396.314	106.49
396.524	139.26
396.733	149.5
396.942	159.74
397.152	116.73
397.361	155.65
397.57	57.34
397.78	118.78
397.989	96.25
398.198	59.39
398.407	79.87
398.617	176.13
398.826	65.53
399.035	161.79
399.244	116.73
399.453	129.02
399.663	149.5
399.872	159.74
400.081	34.82
400.29	77.82
400.499	131.07
400.708	151.55
400.917	167.93
401.127	98.3
401.336	116.73
401.545	141.31
401.754	161.79
401.963	196.6
402.172	104.45
402.381	137.21
402.59	141.31
402.799	151.55
403.008	186.37
403.217	75.77
403.426	104.45
403.635	110.59
403.844	124.93
404.053	161.79
404.262	114.69
404.471	227.32
404.68	206.84
404.888	151.55
405.097	157.69
405.306	217.08
405.515	112.64
405.724	167.93
405.933	94.21
406.142	256
406.35	202.75
406.559	208.89
406.768	276.48
406.977	215.04
407.185	243.71
407.394	266.24
407.603	229.37
407.812	210.94
408.02	319.48
408.229	299
408.438	286.72
408.646	286.72
408.855	198.65
409.064	303.1
409.272	258.04
409.481	280.57
409.69	233.47
409.898	282.62
410.107	323.58
410.315	350.2
410.524	387.07
410.733	382.97
410.941	331.77
411.15	436.22
411.358	333.82
411.567	440.31
411.775	428.03
411.984	387.07
412.192	471.03
412.401	487.42
412.609	550.9
412.818	561.14
413.026	544.76
413.234	591.86
413.443	548.86
413.651	546.81
413.86	659.45
414.068	704.5
414.276	677.88
414.485	636.92
414.693	698.36
414.901	741.36
415.11	706.55
415.318	772.08
415.526	813.04
415.734	956.4
415.943	831.48
416.151	960.5
416.359	948.21
416.567	960.5
416.776	1007.6
416.984	1013.74
417.192	1087.47
417.4	1081.33
417.608	1085.42
417.817	1153.01
418.025	1220.59
418.233	1185.77
418.441	1214.45
418.649	1318.89
418.857	1384.43
419.065	1415.15
419.273	1374.19
419.481	1423.34
419.689	1576.94
419.897	1578.98
420.105	1693.67
420.313	1619.94
420.521	1775.59
420.729	1716.2
420.937	1843.17
421.145	1869.8
421.353	1943.52
421.561	2211.81
421.769	2105.31
421.977	2263.01
422.185	2142.18
422.393	2387.93
422.601	2516.95
422.809	2455.51
423.017	2471.9
423.224	2572.25
423.432	2838.48
423.64	2658.26
423.848	2887.64
424.056	2861.01
424.263	2987.99
424.471	3100.62
424.679	3106.77
424.887	3350.48
425.094	3459.02
425.302	3465.16
425.51	3583.95
425.718	3594.19
425.925	3710.92
426.133	3755.97
426.341	4239.3
426.548	4325.31
426.756	4239.3
426.964	4353.98
427.171	4544.44
427.379	4702.14
427.586	4736.95
427.794	4906.93
428.001	5117.87
428.209	5214.13
428.417	5261.23
428.624	5736.36
428.832	5543.85
429.039	5580.71
429.247	5699.5
429.454	6055.84
429.662	6459.29
429.869	6096.8
430.076	6516.64
430.284	6279.07
430.491	6561.69
430.699	7133.08
430.906	6999.96
431.114	7346.06
431.321	7464.85
431.528	7663.5
431.736	7880.58
431.943	8255.36
432.15	8236.93
432.358	8232.83
432.565	8705.92
432.772	8560.51
432.979	9041.78
433.187	9312.11
433.394	9215.86
433.601	9869.16
433.808	9840.49
434.016	9748.33
434.223	10489.7
434.43	10841.95
434.637	10469.22
434.844	11323.22
435.052	11337.55
435.259	11448.15
435.466	11497.3
435.673	11325.27
435.88	12255.04
436.087	13016.89
436.294	12789.56
436.501	12490.56
436.708	12947.26
436.915	13385.52
437.122	13856.56
437.329	13670.19
437.537	14192.42
437.743	14798.62
437.95	14438.18
438.157	15226.65
438.364	15331.09
438.571	15533.84
438.778	15814.41
438.985	17274.62
439.192	16353.03
439.399	17075.96
439.606	16582.4
439.813	17452.79
440.02	18542.31
440.227	18292.46
440.433	17913.58
440.64	18671.33
440.847	18564.84
441.054	18937.57
441.261	20258.51
441.467	20031.18
441.674	20723.4
441.881	21229.24
442.088	21087.93
442.294	20901.57
442.501	21452.47
442.708	21894.83
442.914	22757.03
443.121	23604.89
443.328	23099.04
443.534	24860.29
443.741	23938.71
443.948	23778.97
444.154	25501.31
444.361	25163.39
444.568	25452.16
444.774	25355.9
444.981	25636.47
445.187	26590.83
445.394	27610.71
445.6	27319.9
445.807	30029.37
446.013	28632.65
446.22	29224.51
446.426	30324.27
446.633	30248.5
446.839	31014.44
447.046	30268.98
447.252	31731.23
447.459	32017.94
447.665	31610.4
447.871	33050.12
448.078	34723.31
448.284	33005.06
448.491	33529.34
448.697	35130.86
448.903	35882.46
449.11	35603.94
449.316	35085.8
449.522	35986.91
449.728	36789.71
449.935	37191.11
450.141	37055.95
450.347	37733.82
450.553	36734.42
450.76	36883.92
450.966	38407.61
451.172	37932.48
451.378	38458.81
451.584	37799.36
451.791	38940.08
451.997	38708.66
452.203	39286.18
452.409	39007.66
452.615	38892.97
452.821	37369.29
453.027	37428.68
453.233	38942.13
453.44	37576.13
453.646	38247.86
453.852	38475.19
454.058	38725.04
454.264	37604.8
454.47	38305.21
454.676	37641.67
454.882	38251.96
455.088	35106.28
455.294	35810.78
455.5	36203.99
455.705	36912.59
455.911	35202.53
456.117	34350.58
456.323	33639.93
456.529	32421.39
456.735	33420.8
456.941	32943.63
457.147	31913.5
457.352	31346.21
457.558	30879.27
457.764	30852.65
457.97	29908.54
458.176	29736.51
458.381	29722.17
458.587	27913.81
458.793	28114.51
458.999	26764.9
459.204	28819.02
459.41	27876.95
459.616	25921.14
459.821	25925.24
460.027	25599.61
460.233	25259.65
460.438	23916.18
460.644	24221.33
460.85	23074.46
461.055	22857.38
461.261	22628.01
461.466	21155.52
461.672	20645.57
461.878	22144.69
462.083	20383.43
462.289	20041.42
462.494	19951.31
462.7	18919.14
462.905	18509.54
463.111	19085.02
463.316	19062.49
463.522	18673.38
463.727	18861.79
463.932	18693.86
464.138	18493.16
464.343	18564.84
464.549	18038.51
464.754	18675.43
464.959	18163.43
465.165	18327.27
465.37	17639.15
465.575	17047.29
465.781	17895.15
465.986	17688.31
466.191	17276.66
466.397	16809.73
466.602	15775.5
466.807	16641.79
467.012	16811.78
467.218	16705.28
467.423	16422.66
467.628	16367.37
467.833	17088.25
468.038	16461.57
468.244	16199.43
468.449	16619.27
468.654	16135.95
468.859	16070.41
469.064	16023.31
469.269	15314.71
469.474	15427.35
469.679	15900.43
469.885	15294.23
470.09	15507.22
470.295	15327
470.5	14874.4
470.705	15032.09
470.91	14645.02
471.115	14649.12
471.32	14966.56
471.525	14554.91
471.73	14460.71
471.935	14255.91
472.139	13850.41
472.344	14202.66
472.549	13903.66
472.754	13629.23
472.959	13709.1
473.164	13313.84
473.369	13135.67
473.574	13449.01
473.778	13494.07
473.983	13100.86
474.188	13088.57
474.393	12492.61
474.598	12793.66
474.802	12478.27
475.007	12343.11
475.212	12345.16
475.417	11880.27
475.621	11857.74
475.826	11974.47
476.031	11749.2
476.235	11454.29
476.44	11802.44
476.645	11487.06
476.849	11366.23
477.054	11413.33
477.259	11278.16
477.463	11171.67
477.668	10903.39
477.872	10999.64
478.077	10954.58
478.282	10624.86
478.486	10555.23
478.691	10481.5
478.895	10524.51
479.1	10458.98
479.304	10495.84
479.509	10080.1
479.713	10344.29
479.918	10116.97
480.122	9828.2
480.326	9989.99
480.531	10037.09
480.735	9844.59
480.94	9793.39
481.144	10033
481.348	9734
481.553	9906.02
481.757	9582.45
481.961	9807.72
482.166	9879.4
482.37	9615.21
482.574	9363.31
482.778	9564.01
482.983	9670.51
483.187	9797.48
483.391	9721.71
483.595	9639.79
483.8	9510.77
484.004	9615.21
484.208	9811.82
484.412	9496.43
484.616	9662.32
484.821	9633.64
485.025	9551.73
485.229	9664.36
485.433	9607.02
485.637	9461.62
485.841	9545.58
486.045	9523.05
486.249	9615.21
486.453	9586.54
486.657	9602.93
486.861	9711.47
487.065	9434.99
487.269	9332.59
487.473	9351.03
487.677	9314.16
487.881	9719.66
488.085	9578.35
488.289	9631.6
488.493	9422.7
488.697	9592.69
488.901	9641.84
489.105	9709.42
489.309	9781.1
489.512	9652.08
489.716	9637.74
489.92	9686.89
490.124	9355.12
490.328	9979.75
490.531	9756.52
490.735	9758.57
490.939	9817.96
491.143	9869.16
491.346	9777
491.55	9887.59
491.754	9854.83
491.958	9887.59
492.161	9989.99
492.365	9979.75
492.569	10202.98
492.772	10133.35
492.976	10307.43
493.18	10266.47
493.383	10205.03
493.587	10389.35
493.79	10473.31
493.994	10278.76
494.197	10448.74
494.401	10694.49
494.605	10585.95
494.808	10800.99
495.012	10846.04
495.215	10676.06
495.419	10954.58
495.622	11022.17
495.825	11059.03
496.029	11091.8
496.232	11476.82
496.436	11341.65
496.639	11691.85
496.843	11466.58
497.046	11763.53
497.249	11722.57
497.453	11818.83
497.656	11902.79
497.859	11980.62
498.063	12279.62
498.266	12320.58
498.469	12314.44
498.673	12248.9
498.876	12476.23
499.079	12889.92
499.282	12744.51
499.485	12957.5
499.689	13041.46
499.892	13246.26
500.095	13131.58
500.298	13735.73
500.501	13561.65
500.705	13737.77
500.908	14030.63
501.111	14087.98
501.314	14157.61
501.517	14374.69
501.72	14423.84
501.923	14591.78
502.126	14903.07
502.329	15243.03
502.532	15376.15
502.735	14933.79
502.938	15310.61
503.141	15642.39
503.344	15798.03
503.547	16006.92
503.75	16176.91
503.953	16236.3
504.156	16213.77
504.359	16463.62
504.562	16721.66
504.765	17262.33
504.968	17045.24
505.17	17307.38
505.373	17479.41
505.576	17868.53
505.779	17948.4
505.982	18097.9
506.185	18564.84
506.387	18503.4
506.59	18575.08
506.793	19115.74
506.996	18917.09
507.198	19449.56
507.401	19334.87
507.604	19424.98
507.807	19597.01
508.009	19961.55
508.212	19828.43
508.415	20512.46
508.617	20711.11
508.82	20592.33
509.022	20338.38
509.225	21028.54
509.428	21292.73
509.63	21518.01
509.833	21399.23
510.035	21741.24
510.238	21888.69
510.44	22066.86
510.643	22460.07
510.845	22728.36
511.048	22554.28
511.25	22746.79
511.453	22937.25
511.655	23842.45
511.858	23451.29
512.06	23895.7
512.262	24002.19
512.465	24008.34
512.667	24551.05
512.87	24612.49
513.072	24559.24
513.274	25257.6
513.477	25255.55
513.679	25392.76
513.881	25923.19
514.084	25788.02
514.286	26107.51
514.488	25824.89
514.69	26635.88
514.893	26924.65
515.095	26650.22
515.297	27311.71
515.499	27321.95
515.701	27770.46
515.904	27758.17
516.106	27889.24
516.308	28378.7
516.51	28735.05
516.712	28679.75
516.914	28989
517.116	29281.86
517.318	29201.99
517.52	29691.45
517.722	29750.84
517.925	30166.58
518.127	30449.2
518.329	30545.45
518.531	30662.19
518.733	31155.75
518.935	30879.27
519.136	31260.19
519.338	31628.83
519.54	31833.63
519.742	32060.95
519.944	31925.78
520.146	32687.63
520.348	32714.25
520.55	32787.98
520.752	32765.45
520.954	33648.13
521.155	33363.46
521.357	33852.92
521.559	34076.15
521.761	34508.27
521.963	34459.12
522.164	34639.34
522.366	34848.24
522.568	35253.73
522.77	35190.25
522.971	35861.98
523.173	35610.08
523.375	35902.94
523.576	35775.97
523.778	36130.26
523.98	36392.4
524.181	36609.49
524.383	36533.71
524.584	36851.15
524.786	36709.84
524.988	36490.71
525.189	37260.74
525.391	37139.91
525.592	37850.56
525.794	37557.7
525.995	37459.4
526.197	37731.78
526.398	37531.08
526.6	38235.58
526.801	38071.74
527.003	38641.07
527.204	38352.31
527.406	38546.87
527.607	38397.37
527.808	38909.36
528.01	38528.44
528.211	38634.93
528.412	39579.04
528.614	38858.16
528.815	39105.96
529.016	39327.14
529.218	39151.02
529.419	39415.21
529.62	39396.77
529.822	39447.97
530.023	39490.98
530.224	39718.31
530.425	39300.52
530.626	39206.31
530.828	39202.22
531.029	40086.94
531.23	39706.02
531.431	39574.95
531.632	39865.76
531.833	40029.6
532.035	39773.6
532.236	40060.32
532.437	40258.97
532.638	40099.23
532.839	40023.45
533.04	39869.86
533.241	39660.96
533.442	40095.13
533.643	40021.41
533.844	39710.11
534.045	40285.59
534.246	39361.96
534.447	40234.39
534.648	39976.35
534.849	40037.79
535.05	39650.72
535.251	40080.8
535.451	40064.41
535.652	40078.75
535.853	40175
536.054	40170.91
536.255	40318.36
536.456	39486.89
536.657	40301.98
536.857	39665.06
537.058	39546.28
537.259	39746.98
537.46	40199.58
537.66	39771.55
537.861	40068.51
538.062	39800.22
538.263	39886.24
538.463	39411.11
538.664	39536.04
538.865	40168.86
539.065	40037.79
539.266	39429.54
539.466	39857.57
539.667	39452.07
539.868	40052.12
540.068	39632.29
540.269	39460.26
540.469	40084.89
540.67	39587.24
540.87	39490.98
541.071	39708.07
541.271	39951.77
541.472	39445.93
541.672	39642.53
541.873	39253.42
542.073	38792.62
542.274	39726.5
542.474	39710.11
542.675	39095.72
542.875	39966.11
543.075	39368.1
543.276	39159.21
543.476	39832.99
543.676	39095.72
543.877	39046.57
544.077	39044.52
544.277	39001.52
544.478	39263.66
544.678	39542.18
544.878	39040.43
545.078	39050.67
545.279	39067.05
545.479	38972.85
545.679	39269.8
545.879	38974.89
546.079	39228.84
546.28	38727.09
546.48	38829.49
546.68	39046.57
546.88	38931.89
547.08	39050.67
547.28	39011.76
547.48	38516.15
547.68	39292.33
547.88	38686.13
548.081	39189.93
548.281	38925.74
548.481	38331.83
548.681	39187.88
548.881	38868.4
549.081	38585.78
549.28	38694.32
549.48	38616.5
549.68	38536.63
549.88	39130.54
550.08	38325.69
550.28	38481.33
550.48	38614.45
550.68	39146.92
550.88	38501.81
551.08	38729.14
551.279	38583.73
551.479	38303.16
551.679	38895.02
551.879	38651.31
552.079	38485.43
552.278	38200.76
552.478	38417.85
552.678	38467
552.878	38755.76
553.077	38374.84
553.277	38206.9
553.477	38555.06
553.676	38342.07
553.876	38014.4
554.076	38374.84
554.275	37883.33
554.475	37940.67
554.674	38354.36
554.874	38399.41
555.074	37721.54
555.273	38493.62
555.473	38149.56
555.672	37934.53
555.872	38071.74
556.071	37723.58
556.271	37969.34
556.47	37764.54
556.67	37594.56
556.869	37195.21
557.068	37455.3
557.268	37373.38
557.467	37453.25
557.667	37381.57
557.866	37410.25
558.065	37754.3
558.265	37307.85
558.464	37410.25
558.663	37621.19
558.863	37053.9
559.062	38145.47
559.261	37080.52
559.461	37985.72
559.66	36691.41
559.859	37672.39
560.058	36916.68
560.258	37053.9
560.457	36824.53
560.656	37367.24
560.855	36980.17
561.054	36892.11
561.253	36648.4
561.453	36836.81
561.652	36580.82
561.851	36832.72
562.05	36881.87
562.249	36326.87
562.448	36894.16
562.647	36892.11
562.846	36691.41
563.045	36355.54
563.244	35907.04
563.443	36519.38
563.642	36019.67
563.841	36752.85
564.04	35827.17
564.239	36330.97
564.438	35941.85
564.637	36195.8
564.836	35837.41
565.035	35720.67
565.234	35800.54
565.432	35689.95
565.631	35601.89
565.83	35890.65
566.029	35311.08
566.228	35122.66
566.427	35626.46
566.625	35474.91
566.824	35239.4
567.023	35710.43
567.222	34569.71
567.42	35536.35
567.619	35372.52
567.818	34782.7
568.016	34825.71
568.215	35089.9
568.414	34825.71
568.612	35071.46
568.811	34573.81
569.01	34344.44
569.208	34164.21
569.407	34663.92
569.605	33965.56
569.804	34688.49
570.002	34205.17
570.201	34430.45
570.4	34344.44
570.598	34039.29
570.797	33897.98
570.995	34065.91
571.193	33543.68
571.392	33953.27
571.59	33734.14
571.789	33578.5
571.987	33568.26
572.186	33588.74
572.384	33512.96
572.582	33404.42
572.781	33279.49
572.979	32853.51
573.177	33533.44
573.376	33676.8
573.574	33043.98
573.772	32859.66
573.971	32898.57
574.169	33052.17
574.367	32640.53
574.565	32820.75
574.763	32337.43
574.962	32654.86
575.16	32390.67
575.358	32267.8
575.556	32292.37
575.754	32560.66
575.952	32157.21
576.151	32318.99
576.349	31534.62
576.547	31899.16
576.745	31987.22
576.943	31768.09
577.141	31776.28
577.339	31970.84
577.537	31426.08
577.735	31686.17
577.933	31456.8
578.131	31669.79
578.329	31221.28
578.527	31313.44
578.725	31254.05
578.923	31493.66
579.121	30979.62
579.319	30967.34
579.516	31356.45
579.714	30879.27
579.912	30842.41
580.11	30832.17
580.308	30647.85
580.506	30266.93
580.704	30373.42
580.901	30735.92
581.099	30787.11
581.297	30144.05
581.495	30475.82
581.692	30590.51
581.89	29896.25
582.088	30201.4
582.285	29548.09
582.483	30191.16
582.681	30080.56
582.878	29926.97
583.076	29470.27
583.274	29746.75
583.471	29285.95
583.669	29374.02
583.866	29445.69
584.064	29300.29
584.262	28941.89
584.459	29443.65
584.657	28900.94
584.854	29138.5
585.052	28630.6
585.249	29187.65
585.447	28819.02
585.644	28530.25
585.841	29195.84
586.039	28837.45
586.236	28272.21
586.434	28335.7
586.631	28055.12
586.828	28243.54
587.026	28202.58
587.223	28309.07
587.42	27985.49
587.618	28114.51
587.815	27772.5
588.012	27901.53
588.21	27768.41
588.407	28036.69
588.604	27870.81
588.801	27321.95
588.999	27491.93
589.196	27338.33
589.393	27260.51
589.59	27180.64
589.787	27012.71
589.984	27215.46
590.182	26758.76
590.379	27061.86
590.576	27012.71
590.773	26883.69
590.97	26644.07
591.167	26709.61
591.364	26482.28
591.561	26515.05
591.758	26140.27
591.955	26398.32
592.152	26132.08
592.349	26187.38
592.546	26326.64
592.743	26140.27
592.94	25437.82
593.137	25970.29
593.334	26046.07
593.531	25534.07
593.727	25546.36
593.924	25921.14
594.121	25450.11
594.318	25704.06
594.515	25044.61
594.712	25826.93
594.908	25192.06
595.105	25319.04
595.302	25251.45
595.499	25259.65
595.696	24977.03
595.892	25083.52
596.089	25052.8
596.286	25190.02
596.482	24925.83
596.679	24618.63
596.876	24800.9
597.072	24661.64
597.269	24589.96
597.466	24557.19
597.662	24505.99
597.859	24557.19
598.055	24221.33
598.252	24088.21
598.448	24030.87
598.645	24026.77
598.841	23723.67
599.038	24067.73
599.234	23930.51
599.431	23770.77
599.627	23525.02
599.824	23635.61
600.02	23357.08
600.217	23525.02
600.413	23449.24
600.609	23199.39
600.806	23137.95
601.002	23316.12
601.198	23348.89
601.395	22998.69
601.591	22976.16
601.787	23156.38
601.984	22818.47
602.18	23162.53
602.376	22689.45
602.572	22630.05
602.769	22867.62
602.965	22185.65
603.161	22486.7
603.357	22232.75
603.553	22238.89
603.75	22339.24
603.946	22054.58
604.142	22195.89
604.338	21761.72
604.534	22251.18
604.73	21716.66
604.926	21718.71
605.122	21868.21
605.318	21868.21
605.514	21581.49
605.71	21675.7
605.906	21634.74
606.102	21630.65
606.298	21403.32
606.494	21509.82
606.69	21245.63
606.886	21475
607.082	20983.49
607.278	21348.03
607.474	21173.95
607.67	21249.72
607.866	21235.39
608.062	21243.58
608.257	20936.38
608.453	21018.3
608.649	21028.54
608.845	20676.29
609.041	20958.91
609.236	20719.3
609.432	20709.06
609.628	20813.51
609.824	20561.61
610.019	20827.84
610.215	20590.28
610.411	20268.75
610.606	20442.82
610.802	20285.13
610.998	20371.15
611.193	20410.06
611.389	20184.78
611.584	20313.8
611.78	20031.18
611.976	20258.51
612.171	20371.15
612.367	20131.53
612.562	20127.44
612.758	19730.13
612.953	20000.46
613.149	20074.19
613.344	19818.19
613.539	20365
613.735	19984.08
613.93	20068.05
614.126	19664.6
614.321	20178.64
614.517	19791.57
614.712	19678.93
614.907	19513.05
615.103	19803.86
615.298	19232.47
615.493	19830.48
615.688	19351.26
615.884	19984.08
616.079	19267.29
616.274	19373.78
616.47	19500.76
616.665	19502.81
616.86	19105.5
617.055	19177.18
617.25	19269.34
617.445	19531.48
617.641	18933.47
617.836	19154.65
618.031	18790.11
618.226	19326.68
618.421	18587.36
618.616	18933.47
618.811	18388.71
619.006	18728.67
619.201	18292.46
619.396	18597.6
619.591	18255.59
619.786	18450.15
619.981	18216.68
620.176	18429.67
620.371	18026.22
620.566	18255.59
620.761	18163.43
620.956	18341.61
621.151	17594.1
621.346	17972.97
621.541	17417.97
621.735	17618.68
621.93	17180.41
622.125	17377.01
622.32	17135.35
622.515	17356.54
622.709	17155.83
622.904	17211.13
623.099	16867.07
623.294	17141.5
623.488	16707.33
623.683	16967.42
623.878	16869.12
624.072	16498.44
624.267	16389.89
624.462	16252.68
624.656	16146.19
624.851	16307.98
625.046	16461.57
625.24	16033.55
625.435	15982.35
625.629	15824.65
625.824	15791.89
626.018	15580.95
626.213	15466.26
626.407	15472.4
626.602	15257.37
626.796	15458.07
626.991	15263.51
627.185	15036.19
627.38	15019.8
627.574	15279.89
627.768	15040.28
627.963	14792.48
628.157	14772
628.352	14749.47
628.546	14700.32
628.74	14845.73
628.935	14511.91
629.129	14651.17
629.323	14114.6
629.517	14335.78
629.712	14212.9
629.906	14194.47
630.1	14008.11
630.294	13907.76
630.489	13774.64
630.683	14210.86
630.877	13707.05
631.071	13905.71
631.265	13563.7
631.459	13459.25
631.653	13567.79
631.848	13637.42
632.042	13412.15
632.236	13395.76
632.43	13094.71
632.624	13203.25
632.818	13027.13
633.012	12803.9
633.206	12959.55
633.4	12879.68
633.594	12601.15
633.788	12840.76
633.982	12678.97
634.176	12906.3
634.369	12474.18
634.563	12437.31
634.757	12556.1
634.951	12508.99
635.145	12310.34
635.339	12382.02
635.533	12179.27
635.726	12377.92
635.92	11980.62
636.114	12025.67
636.308	11968.33
636.501	11949.9
636.695	11775.82
636.889	11814.73
637.083	11589.46
637.276	11462.48
637.47	11472.72
637.664	11401.04
637.857	11663.18
638.051	11243.35
638.244	11261.78
638.438	11282.26
638.632	11224.92
638.825	11079.51
639.019	11056.98
639.212	10862.43
639.406	10870.62
639.599	10790.75
639.793	10985.3
639.986	10723.16
640.18	10770.27
640.373	10717.02
640.567	10387.3
640.76	10213.22
640.954	10325.86
641.147	10282.85
641.34	10311.52
641.534	10389.35
641.727	10145.64
641.92	10192.74
642.114	10051.43
642.307	10209.12
642.5	9975.66
642.694	9975.66
642.887	9774.95
643.08	9813.87
643.273	9848.68
643.467	9815.91
643.66	9521.01
643.853	9668.46
644.046	9459.57
644.239	9541.49
644.432	9338.74
644.626	9330.55
644.819	9269.11
645.012	9224.05
645.205	9420.66
645.398	9338.74
645.591	9146.23
645.784	9293.68
645.977	9035.64
646.17	8894.33
646.363	8931.19
646.556	8984.44
646.749	8793.98
646.942	8970.1
647.135	8671.1
647.328	8609.66
647.521	8744.83
647.714	8531.84
647.907	8605.56
648.099	8556.41
648.292	8529.79
648.485	8437.63
648.678	8396.67
648.871	8357.76
649.064	8413.06
649.256	8281.99
649.449	8365.95
649.642	8212.35
649.835	8019.85
650.027	8071.04
650.22	7925.64
650.413	7919.5
650.605	7995.27
650.798	7899.02
650.991	7937.93
651.183	7954.31
651.376	7729.03
651.568	7751.56
651.761	7688.07
651.954	7724.94
652.146	7602.06
652.339	7612.3
652.531	7602.06
652.724	7569.29
652.916	7423.89
653.109	7616.4
653.301	7479.18
653.494	7415.69
653.686	7237.52
653.879	7376.78
654.071	7165.84
654.263	7286.67
654.456	7286.67
654.648	7151.51
654.84	6973.33
655.033	7116.69
655.225	6891.41
655.417	6901.65
655.61	6967.19
655.802	6844.31
655.994	6930.33
656.186	6897.56
656.379	6713.24
656.571	6729.63
656.763	6770.58
656.955	6700.95
657.148	6825.88
657.34	6645.66
657.532	6600.6
657.724	6633.37
657.916	6641.56
658.108	6369.18
658.3	6530.97
658.492	6442.91
658.684	6385.57
658.876	6369.18
659.068	6412.19
659.26	6158.24
659.452	6266.78
659.644	6211.49
659.836	6254.5
660.028	6213.54
660.22	5896.1
660.412	6027.17
660.604	5937.06
660.796	6070.18
660.988	6008.74
661.18	5904.29
661.372	5967.78
661.563	6061.99
661.755	5853.09
661.947	5961.64
662.139	5820.33
662.331	5898.15
662.522	5576.62
662.714	5627.82
662.906	5746.6
663.097	5603.24
663.289	5463.98
663.481	5582.76
663.673	5666.73
663.864	5398.45
664.056	5390.25
664.247	5314.48
664.439	5408.69
664.631	5468.08
664.822	5486.51
665.014	5486.51
665.205	5363.63
665.397	5343.15
665.588	5365.68
665.78	5330.86
665.971	5257.14
666.163	5115.83
666.354	5167.03
666.546	5283.76
666.737	5121.97
666.929	5003.19
667.12	4962.23
667.311	5119.92
667.503	4925.36
667.694	4995
667.885	4939.7
668.077	4818.87
668.268	4951.99
668.459	4999.09
668.651	4929.46
668.842	4763.58
669.033	5072.82
669.224	4890.55
669.416	4939.7
669.607	4806.58
669.798	4732.86
669.989	4741.05
670.18	4689.85
670.371	4825.01
670.563	4712.38
670.754	4706.23
670.945	4630.46
671.136	4784.05
671.327	4618.17
671.518	4628.41
671.709	4732.86
671.9	4548.54
672.091	4554.68
672.282	4560.83
672.473	4519.87
672.664	4548.54
672.855	4358.08
673.046	4577.21
673.237	4421.56
673.428	4405.18
673.619	4335.55
673.809	4409.28
674	4270.01
674.191	4407.23
674.382	4255.68
674.573	4321.21
674.764	4337.6
674.954	4249.54
675.145	4181.95
675.336	4190.14
675.527	4177.86
675.717	4184
675.908	4138.94
676.099	4147.14
676.289	4224.96
676.48	4067.27
676.671	4214.72
676.861	4091.84
677.052	3960.77
677.243	3991.49
677.433	4087.75
677.624	4192.19
677.814	4087.75
678.005	4104.13
678.195	3995.59
678.386	4061.12
678.576	4081.6
678.767	3968.96
678.957	4063.17
679.148	4073.41
679.338	3950.53
679.529	4067.27
679.719	3889.09
679.909	4042.69
680.1	3946.44
680.29	3880.9
680.481	3839.94
680.671	3848.13
680.861	3942.34
681.052	3911.62
681.242	3983.3
681.432	3913.67
681.622	3878.85
681.813	3919.81
682.003	3887.04
682.193	3815.37
682.383	3841.99
682.573	3786.69
682.764	3766.21
682.954	3815.37
683.144	3788.74
683.334	3700.68
683.524	3733.45
683.714	3624.9
683.904	3641.29
684.094	3678.15
684.284	3792.84
684.474	3751.88
684.664	3602.38
684.854	3600.33
685.044	3755.97
685.234	3624.9
685.424	3676.1
685.614	3647.43
685.804	3633.1
685.994	3657.67
686.184	3661.77
686.374	3723.21
686.564	3542.99
686.753	3512.27
686.943	3360.72
687.133	3483.59
687.323	3385.29
687.513	3497.93
687.702	3381.2
687.892	3319.76
688.082	3426.25
688.272	3495.88
688.461	3243.98
688.651	3346.38
688.841	3235.79
689.03	3272.65
689.22	3262.41
689.41	3276.75
689.599	3311.57
689.789	3272.65
689.979	3282.89
690.168	3205.07
690.358	3274.7
690.547	3209.17
690.737	3135.44
690.926	3203.02
691.116	3104.72
691.305	3248.08
691.495	3149.78
691.684	3076.05
691.874	3182.54
692.063	3065.81
692.252	3084.24
692.442	3071.95
692.631	2973.65
692.82	3084.24
693.01	2838.48
693.199	2971.6
693.388	2920.4
693.578	2994.13
693.767	2863.06
693.956	3041.23
694.146	3028.95
694.335	2930.64
694.524	2932.69
694.713	3049.43
694.902	2998.23
695.092	3016.66
695.281	2953.17
695.47	2930.64
695.659	2926.55
695.848	3030.99
696.037	2871.25
696.226	2908.12
696.415	2883.54
696.604	2996.18
696.793	2920.4
696.982	2838.48
697.171	2863.06
697.36	2910.16
697.549	2863.06
697.738	2906.07
697.927	2824.15
698.116	2873.3
698.305	2756.57
698.494	2789.33
698.683	2867.16
698.872	2887.64
699.061	2858.96
699.25	2842.58
699.438	2826.2
699.627	2891.73
699.816	2934.74
700.005	2799.57
700.193	2873.3
700.382	2852.82
700.571	2844.63
700.76	2957.27
700.948	2873.3
701.137	2811.86
701.326	2756.57
701.514	2891.73
701.703	2854.87
701.892	2783.19
702.08	2969.55
702.269	2957.27
702.457	2875.35
702.646	2971.6
702.834	2865.11
703.023	2764.76
703.212	2813.91
703.4	2906.07
703.589	2822.1
703.777	2873.3
703.965	2766.81
704.154	2912.21
704.342	2772.95
704.531	3000.27
704.719	2752.47
704.907	2924.5
705.096	2934.74
705.284	2852.82
705.472	2852.82
705.661	2754.52
705.849	2914.26
706.037	2766.81
706.226	2805.72
706.414	2875.35
706.602	2779.09
706.79	3024.85
706.979	2791.38
707.167	2850.77
707.355	2785.24
707.543	2848.72
707.731	2752.47
707.919	2770.9
708.107	2881.49
708.296	2672.6
708.484	2805.72
708.672	2899.92
708.86	2807.77
709.048	2887.64
709.236	2844.63
709.424	2664.41
709.612	2783.19
709.8	2850.77
709.988	2791.38
710.176	2836.44
710.364	2805.72
710.551	2842.58
710.739	2744.28
710.927	2850.77
711.115	2973.65
711.303	2871.25
711.491	2662.36
711.679	2723.8
711.866	2766.81
712.054	2736.09
712.242	2768.85
712.43	2875.35
712.617	2727.89
712.805	2803.67
712.993	2725.85
713.181	2766.81
713.368	2805.72
713.556	2889.68
713.744	2660.31
713.931	2818
714.119	2713.56
714.306	2725.85
714.494	2746.33
714.682	2764.76
714.869	2699.22
715.057	2775
715.244	2656.22
715.432	2791.38
715.619	2750.42
715.807	2770.9
715.994	2738.13
716.182	2848.72
716.369	2711.51
716.556	2723.8
716.744	2799.57
716.931	2793.43
717.119	2746.33
717.306	2752.47
717.493	2707.41
717.681	2645.98
717.868	2725.85
718.055	2752.47
718.242	2635.74
718.43	2680.79
718.617	2701.27
718.804	2670.55
718.991	2766.81
719.179	2752.47
719.366	2691.03
719.553	2744.28
719.74	2699.22
719.927	2701.27
720.114	2682.84
720.301	2725.85
720.488	2664.41
720.676	2701.27
720.863	2746.33
721.05	2672.6
721.237	2686.93
721.424	2639.83
721.611	2555.86
721.798	2662.36
721.985	2625.5
722.172	2717.65
722.358	2584.54
722.545	2578.39
722.732	2676.7
722.919	2654.17
723.106	2469.85
723.293	2508.76
723.48	2570.2
723.667	2631.64
723.853	2566.1
724.04	2676.7
724.227	2566.1
724.414	2553.82
724.6	2486.23
724.787	2615.26
724.974	2637.78
725.161	2600.92
725.347	2404.32
725.534	2623.45
725.72	2562.01
725.907	2519
726.094	2498.52
726.28	2574.3
726.467	2607.06
726.653	2465.75
726.84	2514.91
727.027	2492.38
727.213	2494.43
727.4	2480.09
727.586	2516.95
727.773	2516.95
727.959	2596.82
728.145	2459.61
728.332	2410.46
728.518	2453.47
728.705	2451.42
728.891	2555.86
729.077	2418.65
729.264	2412.51
729.45	2420.7
729.636	2488.28
729.823	2543.58
730.009	2508.76
730.195	2447.32
730.382	2504.67
730.568	2422.75
730.754	2621.4
730.94	2418.65
731.126	2410.46
731.313	2404.32
731.499	2408.41
731.685	2435.03
731.871	2414.56
732.057	2496.47
732.243	2422.75
732.429	2342.88
732.615	2293.72
732.801	2465.75
732.987	2375.64
733.173	2338.78
733.359	2340.83
733.545	2373.6
733.731	2361.31
733.917	2406.36
734.103	2482.14
734.289	2410.46
734.475	2263.01
734.661	2412.51
734.847	2254.81
735.033	2359.26
735.219	2269.15
735.404	2303.96
735.59	2336.73
735.776	2420.7
735.962	2271.2
736.148	2414.56
736.333	2248.67
736.519	2447.32
736.705	2295.77
736.89	2308.06
737.076	2207.71
737.262	2275.29
737.447	2234.33
737.633	2373.6
737.819	2250.72
738.004	2279.39
738.19	2289.63
738.375	2258.91
738.561	2316.25
738.747	2230.24
738.932	2205.66
739.118	2176.99
739.303	2277.34
739.489	2269.15
739.674	2170.85
739.859	2111.46
740.045	2160.61
740.23	2125.79
740.416	2138.08
740.601	2103.26
740.786	2217.95
740.972	2156.51
741.157	2176.99
741.342	2138.08
741.528	2037.73
741.713	2136.03
741.898	2099.17
742.084	2037.73
742.269	2176.99
742.454	2000.87
742.639	2176.99
742.824	2140.13
743.01	2070.5
743.195	2107.36
743.38	2084.83
743.565	1994.72
743.75	2027.49
743.935	2011.11
744.12	2009.06
744.305	1918.95
744.49	2039.78
744.675	1990.63
744.86	1955.81
745.045	2004.96
745.23	1906.66
745.415	1994.72
745.6	1902.56
745.785	1884.13
745.97	2082.78
746.155	1880.04
746.34	1855.46
746.525	1867.75
746.71	1908.71
746.895	1824.74
747.079	1763.3
747.264	1679.33
747.449	1830.88
747.634	1687.53
747.819	1904.61
748.003	1683.43
748.188	1867.75
748.373	1853.41
748.557	1767.4
748.742	1738.73
748.927	1724.39
749.111	1621.99
749.296	1748.97
749.481	1703.91
749.665	1621.99
749.85	1630.18
750.034	1617.9
750.219	1656.81
750.404	1624.04
750.588	1578.98
750.773	1566.7
750.957	1677.29
751.141	1488.87
751.326	1568.74
751.51	1583.08
751.695	1665
751.879	1554.41
752.064	1527.78
752.248	1482.73
752.432	1585.13
752.617	1538.02
752.801	1515.5
752.985	1527.78
753.17	1552.36
753.354	1402.86
753.538	1505.26
753.722	1333.23
753.907	1388.52
754.091	1392.62
754.275	1443.82
754.459	1351.66
754.643	1327.08
754.828	1355.76
755.012	1300.46
755.196	1419.24
755.38	1282.03
755.564	1269.74
755.748	1372.14
755.932	1275.88
756.116	1302.51
756.3	1228.78
756.484	1322.99
756.668	1273.84
756.852	1187.82
757.036	1220.59
757.22	1171.44
757.404	1361.9
757.588	1312.75
757.772	1300.46
757.956	1161.2
758.14	1271.79
758.323	1257.45
758.507	1193.97
758.691	1234.93
758.875	1185.77
759.059	1187.82
759.242	1130.48
759.426	1116.14
759.61	1275.88
759.794	1191.92
759.977	1089.52
760.161	1148.91
760.345	1071.09
760.528	1138.67
760.712	1054.7
760.895	1165.29
761.079	1087.47
761.263	1054.7
761.446	1105.9
761.63	1032.18
761.813	1019.89
761.997	1099.76
762.18	1062.9
762.364	1093.62
762.547	1050.61
762.731	948.21
762.914	958.45
763.098	1021.94
763.281	1023.98
763.464	1034.22
763.648	1017.84
763.831	1009.65
764.015	980.98
764.198	1046.51
764.381	897.01
764.564	944.11
764.748	960.5
764.931	1030.13
765.114	1034.22
765.297	915.44
765.481	950.26
765.664	980.98
765.847	888.82
766.03	937.97
766.213	931.83
766.397	935.92
766.58	950.26
766.763	966.64
766.946	888.82
767.129	882.67
767.312	903.15
767.495	970.74
767.678	907.25
767.861	915.44
768.044	976.88
768.227	903.15
768.41	917.49
768.593	839.67
768.776	847.86
768.959	933.87
769.142	915.44
769.324	897.01
769.507	944.11
769.69	901.11
769.873	806.9
770.056	866.29
770.239	925.68
770.421	817.14
770.604	905.2
770.787	897.01
770.97	882.67
771.152	763.89
771.335	774.13
771.518	798.71
771.7	743.41
771.883	901.11
772.066	821.24
772.248	811
772.431	823.28
772.613	808.95
772.796	745.46
772.978	714.74
773.161	749.56
773.343	829.43
773.526	737.27
773.708	681.97
773.891	661.49
774.073	763.89
774.256	722.93
774.438	774.13
774.621	686.07
774.803	673.78
774.985	821.24
775.168	808.95
775.35	743.41
775.532	765.94
775.715	702.45
775.897	704.5
776.079	655.35
776.261	690.17
776.444	663.54
776.626	692.21
776.808	649.21
776.99	636.92
777.173	634.87
777.355	598.01
777.537	651.25
777.719	669.69
777.901	653.3
778.083	667.64
778.265	690.17
778.447	614.39
778.629	677.88
778.811	591.86
778.993	585.72
779.175	679.93
779.357	600.05
779.539	555
779.721	538.62
779.903	624.63
780.085	550.9
780.267	526.33
780.449	557.05
780.631	577.53
780.812	591.86
780.994	516.09
781.176	542.71
781.358	528.38
781.54	563.19
781.721	538.62
781.903	559.1
782.085	526.33
782.267	509.94
782.448	505.85
782.63	542.71
782.812	509.94
782.993	487.42
783.175	593.91
783.357	438.27
783.538	432.12
783.72	436.22
783.901	421.88
784.083	460.79
784.264	491.51
784.446	389.11
784.627	509.94
784.809	462.84
784.99	485.37
785.172	450.55
785.353	497.66
785.535	546.81
785.716	313.34
785.897	446.46
786.079	346.11
786.26	485.37
786.441	468.98
786.623	473.08
786.804	425.98
786.985	397.31
787.167	438.27
787.348	421.88
787.529	430.07
787.71	368.63
787.891	440.31
788.073	421.88
788.254	358.39
788.435	409.59
788.616	495.61
788.797	313.34
788.978	454.65
789.159	405.5
789.34	307.2
789.522	442.36
789.703	409.59
789.884	339.96
790.065	360.44
790.246	405.5
790.427	362.49
790.607	331.77
790.788	407.55
790.969	382.97
791.15	421.88
791.331	335.87
791.512	264.19
791.693	294.91
791.874	315.39
792.054	405.5
792.235	301.05
792.416	296.96
792.597	423.93
792.778	358.39
792.958	305.15
793.139	352.25
793.32	282.62
793.5	299
793.681	368.63
793.862	313.34
794.042	348.15
794.223	276.48
794.404	264.19
794.584	303.1
794.765	323.58
794.945	280.57
795.126	333.82
795.306	360.44
795.487	311.29
795.667	245.76
795.848	303.1
796.028	266.24
796.209	296.96
796.389	235.52
796.57	301.05
796.75	313.34
796.93	276.48
797.111	227.32
797.291	196.6
797.471	272.38
797.652	235.52
797.832	264.19
798.012	368.63
798.192	276.48
798.373	264.19
798.553	307.2
798.733	251.9
798.913	282.62
799.093	321.53
799.274	204.8
799.454	204.8
799.634	256
799.814	327.67
799.994	190.46
800.174	282.62
800.354	262.14
800.534	235.52
800.714	249.85
800.894	227.32
801.074	206.84
801.254	260.09
801.434	237.56
801.614	208.89
801.794	231.42
801.974	636.92
802.154	169.98
802.334	198.65
802.514	204.8
802.693	303.1
802.873	163.84
803.053	253.95
803.233	212.99
803.413	292.86
803.592	206.84
803.772	278.52
803.952	139.26
804.131	133.12
804.311	227.32
804.491	305.15
804.67	202.75
804.85	153.6
805.03	143.36
805.209	249.85
805.389	161.79
805.568	188.41
805.748	167.93
805.928	208.89
806.107	223.23
806.287	192.51
806.466	229.37
806.646	235.52
806.825	212.99
807.004	206.84
807.184	266.24
807.363	307.2
807.543	149.5
807.722	176.13
807.901	206.84
808.081	202.75
808.26	161.79
808.439	159.74
808.619	182.27
808.798	174.08
808.977	212.99
809.156	151.55
809.336	243.71
809.515	167.93
809.694	145.41
809.873	223.23
810.052	233.47
810.231	151.55
810.411	161.79
810.59	122.88
810.769	190.46
810.948	112.64
811.127	114.69
811.306	190.46
811.485	110.59
811.664	192.51
811.843	163.84
812.022	235.52
812.201	145.41
812.38	243.71
812.559	231.42
812.737	153.6
812.916	149.5
813.095	172.03
813.274	174.08
813.453	126.97
813.632	198.65
813.811	137.21
813.989	145.41
814.168	190.46
814.347	51.2
814.526	174.08
814.704	210.94
814.883	149.5
815.062	116.73
815.24	159.74
815.419	139.26
815.598	256
815.776	172.03
815.955	151.55
816.133	174.08
816.312	108.54
816.49	94.21
816.669	210.94
816.847	143.36
817.026	217.08
817.204	192.51
817.383	194.56
817.561	155.65
817.74	210.94
817.918	141.31
818.097	131.07
818.275	100.35
818.453	210.94
818.632	108.54
818.81	122.88
818.988	114.69
819.167	165.89
819.345	143.36
819.523	155.65
819.701	163.84
819.879	172.03
820.058	129.02
820.236	96.25
820.414	212.99
820.592	102.4
820.77	77.82
820.948	178.17
821.127	100.35
821.305	122.88
821.483	161.79
821.661	120.83
821.839	143.36
822.017	114.69
822.195	221.18
822.373	139.26
822.551	83.97
822.729	176.13
822.907	94.21
823.085	96.25
823.262	90.11
823.44	126.97
823.618	155.65
823.796	98.3
823.974	120.83
824.152	190.46
824.329	45.06
824.507	180.22
824.685	188.41
824.863	79.87
825.04	110.59
825.218	110.59
825.396	169.98
825.574	188.41
825.751	83.97
825.929	151.55
826.107	69.63
826.284	194.56
826.462	141.31
826.639	63.49
826.817	59.39
826.994	96.25
827.172	108.54
827.349	116.73
827.527	92.16
827.704	131.07
827.882	110.59
828.059	112.64
828.237	139.26
828.414	129.02
828.591	53.25
828.769	129.02
828.946	83.97
829.124	75.77
829.301	79.87
829.478	96.25
829.655	131.07
829.833	131.07
830.01	47.1
830.187	180.22
830.364	172.03
830.542	112.64
830.719	159.74
830.896	67.58
831.073	67.58
831.25	100.35
831.427	36.86
831.604	120.83
831.782	75.77
831.959	155.65
832.136	100.35
832.313	161.79
832.49	67.58
832.667	63.49
832.844	98.3
833.021	75.77
833.198	108.54
833.374	114.69
833.551	57.34
833.728	75.77
833.905	108.54
834.082	57.34
834.259	67.58
834.436	126.97
834.612	124.93
834.789	116.73
834.966	43.01
835.143	104.45
835.319	8.19
835.496	118.78
835.673	94.21
835.85	141.31
836.026	108.54
836.203	61.44
836.38	59.39
836.556	24.58
836.733	59.39
836.909	98.3
837.086	63.49
837.262	16.38
837.439	96.25
837.616	67.58
837.792	63.49
837.968	34.82
838.145	63.49
838.321	86.01
838.498	40.96
838.674	6.14
838.851	4.1
839.027	86.01
839.203	100.35
839.38	94.21
839.556	20.48
839.732	28.67
839.909	83.97
840.085	57.34
840.261	90.11
840.437	51.2
840.614	55.3
840.79	108.54
840.966	122.88
841.142	92.16
841.318	57.34
841.494	83.97
841.671	112.64
841.847	16.38
842.023	-8.19
842.199	6.14
842.375	102.4
842.551	38.91
842.727	141.31
842.903	100.35
843.079	100.35
843.255	57.34
843.431	36.86
843.607	45.06
843.783	43.01
843.959	77.82
844.134	40.96
844.31	92.16
844.486	47.1
844.662	65.53
844.838	73.73
845.013	61.44
845.189	57.34
845.365	88.06
845.541	26.62
845.716	28.67
845.892	94.21
846.068	30.72
846.244	79.87
846.419	106.49
846.595	-92.16
846.77	73.73
846.946	63.49
847.122	75.77
847.297	71.68
847.473	122.88
847.648	-26.62
847.824	79.87
847.999	14.34
848.175	-4.1
848.35	32.77
848.526	106.49
848.701	12.29
848.876	94.21
849.052	92.16
849.227	43.01
849.403	30.72
849.578	47.1
849.753	104.45
849.929	69.63
850.104	55.3
850.279	194.56
850.454	43.01
850.63	79.87
850.805	73.73
850.98	-2.05
851.155	10.24
851.33	-22.53
851.505	-10.24
851.681	167.93
851.856	47.1
852.031	55.3
852.206	59.39
852.381	-14.34
852.556	10.24
852.731	69.63
852.906	83.97
853.081	83.97
853.256	28.67
853.431	61.44
853.606	86.01
853.781	-4.1
853.956	83.97
854.131	71.68
854.305	-20.48
854.48	24.58
854.655	-16.38
854.83	120.83
855.005	116.73
855.18	61.44
855.354	-10.24
855.529	36.86
855.704	-30.72
855.879	32.77
856.053	34.82
856.228	53.25
856.403	43.01
856.577	-0
856.752	-4.1
856.926	67.58
857.101	-14.34
857.276	26.62
857.45	18.43
857.625	59.39
857.799	47.1
857.974	71.68
858.148	81.92
858.323	71.68
858.497	67.58
858.672	65.53
858.846	8.19
859.02	94.21
859.195	-18.43
859.369	43.01
859.543	96.25
859.718	-16.38
859.892	116.73
860.066	98.3
860.241	16.38
860.415	53.25
860.589	-38.91
860.763	14.34
860.938	-18.43
861.112	65.53
861.286	90.11
861.46	-18.43
861.634	-47.1
861.808	65.53
861.982	63.49
862.157	38.91
862.331	-16.38
862.505	61.44
862.679	6.14
862.853	104.45
863.027	83.97
863.201	20.48
863.375	94.21
863.549	47.1
863.722	-4.1
863.896	102.4
864.07	49.15
864.244	4.1
864.418	36.86
864.592	4.1
864.766	14.34
864.939	57.34
865.113	34.82
865.287	61.44
865.461	2.05
865.634	12.29
865.808	-38.91
865.982	-38.91
866.156	63.49
866.329	-32.77
866.503	30.72
866.676	18.43
866.85	53.25
867.024	-2.05
867.197	40.96
867.371	75.77
867.544	22.53
867.718	-49.15
867.891	24.58
868.065	8.19
868.238	-22.53
868.412	40.96
868.585	24.58
868.759	30.72
868.932	28.67
869.105	-12.29
869.279	-8.19
869.452	30.72
869.625	47.1
869.799	43.01
869.972	75.77
870.145	102.4
870.319	73.73
870.492	79.87
870.665	114.69
870.838	-18.43
871.011	43.01
871.185	-40.96
871.358	43.01
871.531	104.45
871.704	-22.53
871.877	16.38
872.05	38.91
872.223	12.29
872.396	81.92
872.569	67.58
872.742	16.38
872.915	86.01
873.088	102.4
873.261	28.67
873.434	22.53
873.607	45.06
873.78	61.44
873.953	-10.24
874.126	38.91
874.299	73.73
874.471	-0
874.644	81.92
874.817	96.25
874.99	36.86
875.163	61.44
875.335	24.58
875.508	4.1
875.681	88.06
875.853	-32.77
876.026	-14.34
876.199	51.2
876.371	86.01
876.544	6.14
876.717	32.77
876.889	43.01
877.062	26.62
877.234	14.34
877.407	69.63
877.579	-0
877.752	34.82
877.924	28.67
878.097	12.29
878.269	63.49
878.442	26.62
878.614	55.3
878.786	18.43
878.959	67.58
879.131	28.67
879.303	-24.58
879.476	6.14
879.648	8.19
879.82	88.06
879.993	-14.34
880.165	-4.1
880.337	-8.19
880.509	73.73
880.681	-34.82
880.854	22.53
881.026	59.39
881.198	139.26
881.37	55.3
881.542	47.1
881.714	77.82
881.886	-2.05
882.058	49.15
882.23	120.83
882.402	45.06
882.574	28.67
882.746	79.87
882.918	28.67
883.09	45.06
883.262	-4.1
883.434	32.77
883.606	-8.19
883.778	-0
883.95	40.96
884.122	67.58
884.293	81.92
884.465	6.14
884.637	65.53
884.809	-2.05
884.98	24.58
885.152	40.96
885.324	57.34
885.496	55.3
885.667	-38.91
885.839	-32.77
886.011	104.45
886.182	36.86
886.354	-40.96
886.525	24.58
886.697	77.82
886.869	30.72
887.04	-16.38
887.212	32.77
887.383	47.1
887.555	-45.06
887.726	-40.96
887.897	-24.58
888.069	32.77
888.24	-12.29
888.412	-40.96
888.583	-0
888.754	18.43
888.926	53.25
889.097	86.01
889.268	59.39
889.44	16.38
889.611	51.2
889.782	40.96
889.953	-30.72
890.125	71.68
890.296	47.1
890.467	34.82
890.638	-16.38
890.809	65.53
890.98	71.68
891.151	28.67
891.323	98.3
891.494	59.39
891.665	20.48
891.836	-12.29
892.007	-28.67
892.178	2.05
892.349	34.82
892.52	57.34
892.691	106.49
892.862	79.87
893.032	34.82
893.203	28.67
893.374	24.58
893.545	53.25
893.716	73.73
893.887	88.06
894.057	40.96
894.228	6.14
894.399	45.06
894.57	22.53
894.74	-14.34
894.911	-4.1
895.082	4.1
895.253	81.92
895.423	24.58
895.594	79.87
895.764	36.86
895.935	6.14
896.106	-14.34
896.276	10.24
896.447	47.1
896.617	-28.67
896.788	38.91
896.958	10.24
897.129	-30.72
897.299	-34.82
897.47	67.58
897.64	36.86
897.81	-24.58
897.981	-20.48
898.151	65.53
898.322	16.38
898.492	-8.19
898.662	75.77
898.832	-34.82
899.003	4.1
899.173	-2.05
899.343	-14.34
899.513	86.01
