Data from USB4F104151__30__12-00-38-993.txt Node

Date: Fri Mar 14 12:00:38 EDT 2025
User: louis
Spectrometer: USB4F10415
Trigger mode: 4
Integration Time (sec): 2.000000E-2
Scans to average: 1
Electric dark correction enabled: true
Nonlinearity correction enabled: false
Boxcar width: 0
XAxis mode: Wavelengths
Number of Pixels in Spectrum: 3648
>>>>>Begin Spectral Data<<<<<
178.204	-51.2
178.424	-51.2
178.644	-51.2
178.864	-79.87
179.084	-75.77
179.304	-53.25
179.524	10.24
179.744	22.53
179.964	2.05
180.184	2.05
180.404	38.91
180.624	-36.86
180.844	14.34
181.064	-18.43
181.283	32.77
181.503	-20.48
181.723	6.14
181.943	-16.38
182.163	-4.1
182.383	-10.24
182.602	67.58
182.822	55.3
183.042	61.44
183.262	30.72
183.482	77.82
183.701	55.3
183.921	10.24
184.141	-10.24
184.361	-38.91
184.58	-10.24
184.8	55.3
185.02	18.43
185.239	75.77
185.459	61.44
185.679	71.68
185.898	8.19
186.118	67.58
186.338	8.19
186.557	26.62
186.777	18.43
186.997	-22.53
187.216	4.1
187.436	102.4
187.655	14.34
187.875	108.54
188.095	57.34
188.314	32.77
188.534	98.3
188.753	-34.82
188.973	63.49
189.192	65.54
189.412	-26.62
189.631	34.82
189.851	10.24
190.07	22.53
190.29	43.01
190.509	69.63
190.729	-40.96
190.948	26.62
191.168	104.45
191.387	0
191.607	98.3
191.826	81.92
192.045	-6.14
192.265	43.01
192.484	34.82
192.704	65.54
192.923	-53.25
193.142	118.78
193.362	40.96
193.581	38.91
193.8	75.77
194.02	98.3
194.239	96.25
194.458	90.11
194.678	59.39
194.897	34.82
195.116	26.62
195.335	-8.19
195.555	18.43
195.774	0
195.993	24.58
196.212	40.96
196.432	47.1
196.651	38.91
196.87	4.1
197.089	79.87
197.308	-8.19
197.528	53.25
197.747	-18.43
197.966	55.3
198.185	59.39
198.404	-49.15
198.623	-8.19
198.842	-12.29
199.062	47.1
199.281	96.25
199.5	-12.29
199.719	40.96
199.938	-22.53
200.157	43.01
200.376	24.58
200.595	73.73
200.814	34.82
201.033	116.73
201.252	32.77
201.471	73.73
201.69	45.06
201.909	49.15
202.128	43.01
202.347	45.06
202.566	28.67
202.785	104.45
203.004	-90.11
203.223	139.26
203.442	18.43
203.661	47.1
203.879	94.21
204.098	61.44
204.317	45.06
204.536	8.19
204.755	63.49
204.974	-22.53
205.193	34.82
205.411	83.97
205.63	40.96
205.849	16.38
206.068	22.53
206.287	63.49
206.505	61.44
206.724	16.38
206.943	-8.19
207.162	26.62
207.381	10.24
207.599	86.01
207.818	40.96
208.037	63.49
208.255	-6.14
208.474	36.86
208.693	71.68
208.911	55.3
209.13	63.49
209.349	40.96
209.567	10.24
209.786	40.96
210.005	-6.14
210.223	-6.14
210.442	18.43
210.661	49.15
210.879	34.82
211.098	88.06
211.316	-6.14
211.535	0
211.753	88.06
211.972	10.24
212.191	38.91
212.409	63.49
212.628	65.54
212.846	34.82
213.065	71.68
213.283	36.86
213.502	-12.29
213.72	69.63
213.938	-6.14
214.157	47.1
214.375	-4.1
214.594	49.15
214.812	38.91
215.031	77.82
215.249	32.77
215.467	81.92
215.686	59.39
215.904	45.06
216.122	38.91
216.341	28.67
216.559	75.77
216.778	49.15
216.996	51.2
217.214	53.25
217.432	51.2
217.651	94.21
217.869	98.3
218.087	12.29
218.306	57.34
218.524	22.53
218.742	49.15
218.96	40.96
219.179	10.24
219.397	40.96
219.615	71.68
219.833	-26.62
220.051	8.19
220.27	32.77
220.488	10.24
220.706	51.2
220.924	73.73
221.142	90.11
221.36	77.82
221.578	100.35
221.796	10.24
222.015	14.34
222.233	6.14
222.451	47.1
222.669	69.63
222.887	55.3
223.105	75.77
223.323	32.77
223.541	28.67
223.759	26.62
223.977	-14.34
224.195	59.39
224.413	-24.58
224.631	-12.29
224.849	75.77
225.067	90.11
225.285	8.19
225.503	6.14
225.721	22.53
225.939	-40.96
226.157	53.25
226.375	79.87
226.592	-2.05
226.81	20.48
227.028	65.54
227.246	157.69
227.464	10.24
227.682	69.63
227.9	55.3
228.117	47.1
228.335	14.34
228.553	100.35
228.771	67.58
228.989	16.38
229.206	36.86
229.424	34.82
229.642	-30.72
229.86	45.06
230.077	22.53
230.295	-2.05
230.513	81.92
230.731	45.06
230.948	22.53
231.166	59.39
231.384	34.82
231.601	104.45
231.819	45.06
232.037	55.3
232.254	49.15
232.472	8.19
232.689	14.34
232.907	-20.48
233.125	40.96
233.342	73.73
233.56	18.43
233.777	49.15
233.995	47.1
234.213	16.38
234.43	4.1
234.648	16.38
234.865	-30.72
235.083	-18.43
235.3	86.01
235.518	90.11
235.735	49.15
235.953	45.06
236.17	38.91
236.388	-18.43
236.605	16.38
236.822	59.39
237.04	30.72
237.257	112.64
237.475	40.96
237.692	79.87
237.909	-20.48
238.127	69.63
238.344	61.44
238.562	38.91
238.779	4.1
238.996	38.91
239.214	-10.24
239.431	36.86
239.648	34.82
239.865	-24.58
240.083	22.53
240.3	28.67
240.517	45.06
240.735	28.67
240.952	118.78
241.169	69.63
241.386	73.73
241.603	57.34
241.821	-2.05
242.038	0
242.255	120.83
242.472	32.77
242.689	57.34
242.907	24.58
243.124	-2.05
243.341	32.77
243.558	40.96
243.775	49.15
243.992	-6.14
244.209	-12.29
244.426	22.53
244.643	0
244.86	22.53
245.078	69.63
245.295	102.4
245.512	106.49
245.729	10.24
245.946	63.49
246.163	67.58
246.38	2.05
246.597	32.77
246.814	59.39
247.031	75.77
247.248	16.38
247.464	51.2
247.681	86.01
247.898	75.77
248.115	-24.58
248.332	114.69
248.549	59.39
248.766	73.73
248.983	34.82
249.2	59.39
249.417	149.5
249.633	20.48
249.85	43.01
250.067	0
250.284	34.82
250.501	30.72
250.717	2.05
250.934	79.87
251.151	10.24
251.368	6.14
251.585	98.3
251.801	36.86
252.018	-20.48
252.235	0
252.451	2.05
252.668	-24.58
252.885	59.39
253.102	18.43
253.318	57.34
253.535	63.49
253.752	49.15
253.968	81.92
254.185	20.48
254.401	-59.39
254.618	71.68
254.835	49.15
255.051	67.58
255.268	77.82
255.484	131.07
255.701	-8.19
255.917	77.82
256.134	36.86
256.351	32.77
256.567	28.67
256.784	43.01
257	16.38
257.217	36.86
257.433	24.58
257.65	28.67
257.866	122.88
258.082	-45.06
258.299	32.77
258.515	45.06
258.732	-6.14
258.948	6.14
259.165	88.06
259.381	36.86
259.597	4.1
259.814	106.49
260.03	100.35
260.246	-12.29
260.463	26.62
260.679	59.39
260.895	69.63
261.112	38.91
261.328	63.49
261.544	-49.15
261.761	69.63
261.977	14.34
262.193	108.54
262.409	81.92
262.626	88.06
262.842	131.07
263.058	4.1
263.274	59.39
263.49	86.01
263.707	65.54
263.923	45.06
264.139	18.43
264.355	81.92
264.571	45.06
264.787	92.16
265.004	34.82
265.22	51.2
265.436	47.1
265.652	79.87
265.868	40.96
266.084	34.82
266.3	-8.19
266.516	49.15
266.732	83.97
266.948	26.62
267.164	51.2
267.38	34.82
267.596	63.49
267.812	20.48
268.028	32.77
268.244	-22.53
268.46	88.06
268.676	2.05
268.892	40.96
269.108	28.67
269.324	22.53
269.54	75.77
269.756	90.11
269.972	43.01
270.188	49.15
270.403	71.68
270.619	43.01
270.835	2.05
271.051	67.58
271.267	49.15
271.483	45.06
271.698	47.1
271.914	59.39
272.13	26.62
272.346	114.69
272.562	20.48
272.777	-10.24
272.993	24.58
273.209	61.44
273.425	108.54
273.64	-51.2
273.856	53.25
274.072	-32.77
274.287	0
274.503	18.43
274.719	-12.29
274.934	2.05
275.15	51.2
275.366	110.59
275.581	-6.14
275.797	36.86
276.012	-4.1
276.228	-18.43
276.444	131.07
276.659	55.3
276.875	38.91
277.09	28.67
277.306	47.1
277.521	63.49
277.737	10.24
277.952	20.48
278.168	22.53
278.383	86.01
278.599	-2.05
278.814	45.06
279.03	-53.25
279.245	53.25
279.461	43.01
279.676	108.54
279.892	49.15
280.107	20.48
280.322	-12.29
280.538	139.26
280.753	45.06
280.969	34.82
281.184	-20.48
281.399	88.06
281.615	71.68
281.83	65.54
282.045	57.34
282.26	67.58
282.476	14.34
282.691	10.24
282.906	55.3
283.122	43.01
283.337	6.14
283.552	63.49
283.767	-16.38
283.983	98.3
284.198	100.35
284.413	0
284.628	51.2
284.843	14.34
285.058	63.49
285.274	98.3
285.489	71.68
285.704	12.29
285.919	69.63
286.134	38.91
286.349	-26.62
286.564	38.91
286.779	36.86
286.995	-6.14
287.21	-4.1
287.425	73.73
287.64	-6.14
287.855	14.34
288.07	-10.24
288.285	51.2
288.5	36.86
288.715	98.3
288.93	51.2
289.145	38.91
289.36	49.15
289.575	63.49
289.79	73.73
290.004	59.39
290.219	40.96
290.434	75.77
290.649	0
290.864	8.19
291.079	10.24
291.294	26.62
291.509	-43.01
291.724	81.92
291.938	40.96
292.153	57.34
292.368	-14.34
292.583	47.1
292.798	49.15
293.012	32.77
293.227	-8.19
293.442	-20.48
293.657	114.69
293.871	45.06
294.086	45.06
294.301	120.83
294.516	30.72
294.73	90.11
294.945	2.05
295.16	77.82
295.374	69.63
295.589	28.67
295.804	-10.24
296.018	16.38
296.233	20.48
296.447	67.58
296.662	4.1
296.877	47.1
297.091	69.63
297.306	69.63
297.52	28.67
297.735	83.97
297.949	43.01
298.164	65.54
298.378	18.43
298.593	30.72
298.807	43.01
299.022	32.77
299.236	6.14
299.451	98.3
299.665	96.25
299.88	83.97
300.094	71.68
300.309	118.78
300.523	-6.14
300.737	0
300.952	26.62
301.166	20.48
301.381	36.86
301.595	-10.24
301.809	-12.29
302.024	98.3
302.238	77.82
302.452	67.58
302.667	20.48
302.881	67.58
303.095	75.77
303.309	51.2
303.524	20.48
303.738	28.67
303.952	86.01
304.166	75.77
304.381	61.44
304.595	49.15
304.809	40.96
305.023	86.01
305.237	18.43
305.452	81.92
305.666	75.77
305.88	51.2
306.094	32.77
306.308	47.1
306.522	79.87
306.736	90.11
306.95	53.25
307.164	71.68
307.379	77.82
307.593	53.25
307.807	55.3
308.021	14.34
308.235	73.73
308.449	51.2
308.663	30.72
308.877	81.92
309.091	36.86
309.305	59.39
309.519	-22.53
309.733	63.49
309.947	12.29
310.161	47.1
310.374	10.24
310.588	28.67
310.802	57.34
311.016	-4.1
311.23	12.29
311.444	65.54
311.658	47.1
311.872	65.54
312.085	102.4
312.299	100.35
312.513	98.3
312.727	67.58
312.941	65.54
313.154	77.82
313.368	51.2
313.582	18.43
313.796	59.39
314.009	40.96
314.223	-4.1
314.437	88.06
314.651	57.34
314.864	71.68
315.078	32.77
315.292	100.35
315.505	14.34
315.719	90.11
315.933	4.1
316.146	67.58
316.36	-6.14
316.573	77.82
316.787	112.64
317.001	4.1
317.214	51.2
317.428	-4.1
317.641	38.91
317.855	69.63
318.068	92.16
318.282	51.2
318.495	79.87
318.709	178.17
318.922	32.77
319.136	36.86
319.349	73.73
319.563	4.1
319.776	102.4
319.99	94.21
320.203	112.64
320.417	67.58
320.63	4.1
320.843	106.49
321.057	102.4
321.27	-4.1
321.483	18.43
321.697	69.63
321.91	20.48
322.124	102.4
322.337	86.01
322.55	-30.72
322.763	51.2
322.977	55.3
323.19	24.58
323.403	73.73
323.617	126.97
323.83	108.54
324.043	108.54
324.256	47.1
324.469	8.19
324.683	16.38
324.896	12.29
325.109	67.58
325.322	81.92
325.535	51.2
325.748	32.77
325.962	4.1
326.175	61.44
326.388	34.82
326.601	108.54
326.814	71.68
327.027	18.43
327.24	110.59
327.453	51.2
327.666	34.82
327.879	45.06
328.092	26.62
328.305	53.25
328.518	104.45
328.731	55.3
328.944	63.49
329.157	34.82
329.37	53.25
329.583	65.54
329.796	34.82
330.009	-69.63
330.222	83.97
330.435	24.58
330.648	120.83
330.861	94.21
331.073	59.39
331.286	16.38
331.499	57.34
331.712	38.91
331.925	14.34
332.138	106.49
332.35	12.29
332.563	40.96
332.776	126.97
332.989	-34.82
333.202	120.83
333.414	26.62
333.627	45.06
333.84	69.63
334.053	53.25
334.265	65.54
334.478	4.1
334.691	55.3
334.903	116.73
335.116	22.53
335.329	61.44
335.541	38.91
335.754	106.49
335.966	94.21
336.179	92.16
336.392	47.1
336.604	71.68
336.817	79.87
337.029	32.77
337.242	110.59
337.454	108.54
337.667	57.34
337.88	114.69
338.092	36.86
338.305	73.73
338.517	14.34
338.729	126.97
338.942	75.77
339.154	61.44
339.367	83.97
339.579	71.68
339.792	30.72
340.004	34.82
340.217	-28.67
340.429	-10.24
340.641	-4.1
340.854	67.58
341.066	65.54
341.278	47.1
341.491	6.14
341.703	40.96
341.915	75.77
342.128	43.01
342.34	104.45
342.552	106.49
342.764	43.01
342.977	73.73
343.189	30.72
343.401	98.3
343.613	26.62
343.826	24.58
344.038	14.34
344.25	75.77
344.462	77.82
344.674	94.21
344.886	71.68
345.099	75.77
345.311	-18.43
345.523	51.2
345.735	43.01
345.947	83.97
346.159	61.44
346.371	28.67
346.583	47.1
346.795	90.11
347.007	26.62
347.219	69.63
347.431	22.53
347.643	47.1
347.855	47.1
348.067	20.48
348.279	16.38
348.491	79.87
348.703	24.58
348.915	63.49
349.127	67.58
349.339	32.77
349.551	57.34
349.763	90.11
349.975	63.49
350.187	112.64
350.399	63.49
350.61	32.77
350.822	63.49
351.034	100.35
351.246	4.1
351.458	34.82
351.669	104.45
351.881	69.63
352.093	24.58
352.305	88.06
352.517	26.62
352.728	108.54
352.94	124.93
353.152	-51.2
353.363	79.87
353.575	8.19
353.787	110.59
353.999	92.16
354.21	61.44
354.422	63.49
354.633	20.48
354.845	143.36
355.057	67.58
355.268	55.3
355.48	49.15
355.692	24.58
355.903	47.1
356.115	98.3
356.326	-18.43
356.538	45.06
356.749	40.96
356.961	94.21
357.172	77.82
357.384	98.3
357.595	86.01
357.807	30.72
358.018	112.64
358.23	45.06
358.441	-2.05
358.653	-20.48
358.864	26.62
359.075	40.96
359.287	77.82
359.498	120.83
359.709	-26.62
359.921	75.77
360.132	100.35
360.344	34.82
360.555	18.43
360.766	69.63
360.977	43.01
361.189	12.29
361.4	47.1
361.611	47.1
361.823	69.63
362.034	53.25
362.245	10.24
362.456	45.06
362.667	55.3
362.879	12.29
363.09	83.97
363.301	126.97
363.512	53.25
363.723	63.49
363.935	14.34
364.146	151.55
364.357	-57.34
364.568	90.11
364.779	47.1
364.99	81.92
365.201	49.15
365.412	133.12
365.623	36.86
365.834	131.07
366.045	32.77
366.256	65.54
366.467	69.63
366.678	49.15
366.889	-2.05
367.1	32.77
367.311	120.83
367.522	53.25
367.733	57.34
367.944	51.2
368.155	88.06
368.366	86.01
368.577	75.77
368.788	75.77
368.999	49.15
369.209	73.73
369.42	100.35
369.631	32.77
369.842	26.62
370.053	49.15
370.264	114.69
370.474	53.25
370.685	14.34
370.896	124.93
371.107	45.06
371.317	116.73
371.528	69.63
371.739	69.63
371.95	65.54
372.16	59.39
372.371	53.25
372.582	69.63
372.792	30.72
373.003	83.97
373.214	43.01
373.424	100.35
373.635	57.34
373.846	77.82
374.056	67.58
374.267	16.38
374.477	106.49
374.688	71.68
374.898	94.21
375.109	49.15
375.319	100.35
375.53	49.15
375.74	10.24
375.951	116.73
376.161	67.58
376.372	53.25
376.582	141.31
376.793	104.45
377.003	45.06
377.214	67.58
377.424	86.01
377.635	51.2
377.845	-12.29
378.055	139.26
378.266	32.77
378.476	77.82
378.686	77.82
378.897	90.11
379.107	137.21
379.317	77.82
379.528	69.63
379.738	126.97
379.948	-38.91
380.158	110.59
380.369	55.3
380.579	59.39
380.789	-6.14
380.999	86.01
381.21	65.54
381.42	75.77
381.63	53.25
381.84	124.93
382.05	22.53
382.261	10.24
382.471	83.97
382.681	6.14
382.891	92.16
383.101	47.1
383.311	26.62
383.521	129.02
383.731	114.69
383.941	45.06
384.151	65.54
384.361	45.06
384.571	94.21
384.781	90.11
384.991	137.21
385.201	145.41
385.411	98.3
385.621	79.87
385.831	106.49
386.041	47.1
386.251	71.68
386.461	71.68
386.671	53.25
386.881	24.58
387.091	57.34
387.301	88.06
387.511	143.36
387.72	96.25
387.93	61.44
388.14	55.3
388.35	92.16
388.56	116.73
388.769	96.25
388.979	83.97
389.189	96.25
389.399	114.69
389.609	92.16
389.818	75.77
390.028	61.44
390.238	147.45
390.447	100.35
390.657	30.72
390.867	63.49
391.076	81.92
391.286	40.96
391.496	49.15
391.705	10.24
391.915	75.77
392.125	96.25
392.334	77.82
392.544	126.97
392.753	143.36
392.963	94.21
393.172	86.01
393.382	75.77
393.591	204.8
393.801	36.86
394.01	153.6
394.22	104.45
394.429	126.97
394.639	77.82
394.848	73.73
395.058	94.21
395.267	206.84
395.477	65.54
395.686	118.78
395.895	167.93
396.105	79.87
396.314	153.6
396.524	137.21
396.733	63.49
396.942	137.21
397.152	176.13
397.361	133.12
397.57	98.3
397.78	110.59
397.989	118.78
398.198	124.93
398.407	178.17
398.617	137.21
398.826	108.54
399.035	36.86
399.244	137.21
399.453	124.93
399.663	151.55
399.872	122.88
400.081	159.74
400.29	159.74
400.499	169.98
400.708	116.73
400.917	10.24
401.127	151.55
401.336	143.36
401.545	182.27
401.754	245.76
401.963	165.89
402.172	165.89
402.381	122.88
402.59	143.36
402.799	139.26
403.008	114.69
403.217	208.89
403.426	143.36
403.635	151.55
403.844	163.84
404.053	165.89
404.262	141.31
404.471	288.76
404.68	186.37
404.888	182.27
405.097	235.52
405.306	153.6
405.515	260.09
405.724	198.65
405.933	215.04
406.142	192.51
406.35	163.84
406.559	217.08
406.768	225.28
406.977	288.76
407.185	235.52
407.394	278.52
407.603	270.33
407.812	233.47
408.02	219.13
408.229	256
408.438	286.72
408.646	276.48
408.855	329.72
409.064	313.34
409.272	329.72
409.481	376.83
409.69	362.49
409.898	370.68
410.107	356.35
410.315	393.21
410.524	448.51
410.733	411.64
410.941	491.51
411.15	468.98
411.358	569.34
411.567	479.22
411.775	483.32
411.984	466.94
412.192	593.91
412.401	534.52
412.609	653.3
412.818	604.15
413.026	638.97
413.234	630.77
413.443	688.12
413.651	653.3
413.86	679.93
414.068	700.41
414.276	788.47
414.485	722.93
414.693	884.72
414.901	905.2
415.11	970.74
415.318	954.35
415.526	933.87
415.734	1005.55
415.943	1118.19
416.151	1144.81
416.359	1103.86
416.567	1163.25
416.776	1150.96
416.984	1185.77
417.192	1249.26
417.4	1292.27
417.608	1302.51
417.817	1329.13
418.025	1452.01
418.233	1456.11
418.441	1437.67
418.649	1583.08
418.857	1761.25
419.065	1568.74
419.273	1773.54
419.481	1669.09
419.689	1789.92
419.897	1941.47
420.105	1998.82
420.313	2033.63
420.521	2162.65
420.729	2150.37
420.937	2242.53
421.145	2310.11
421.353	2492.38
421.561	2539.48
421.769	2574.3
421.977	2625.5
422.185	2613.21
422.393	2787.29
422.601	3030.99
422.809	2961.36
423.017	2983.89
423.224	3176.4
423.432	3229.65
423.64	3338.19
423.848	3559.37
424.056	3508.17
424.263	3680.2
424.471	3760.07
424.679	3882.95
424.887	3999.68
425.094	4300.73
425.302	4177.86
425.51	4382.65
425.718	4556.73
425.925	4544.44
426.133	4669.37
426.341	4874.17
426.548	5138.35
426.756	5189.55
426.964	5263.28
427.171	5552.04
427.379	5816.23
427.586	5791.66
427.794	5902.25
428.001	6100.9
428.209	6590.36
428.417	6442.91
428.624	6774.68
428.832	6846.36
429.039	6881.18
429.247	6741.91
429.454	7507.85
429.662	8025.99
429.869	7503.76
430.076	7853.96
430.284	7939.97
430.491	8163.2
430.699	8644.48
430.906	8693.63
431.114	8802.17
431.321	9029.49
431.528	9168.76
431.736	9924.46
431.943	10198.88
432.15	9969.51
432.358	10119.01
432.565	10596.19
432.772	10764.12
432.979	11333.46
433.187	11341.65
433.394	11628.37
433.601	12019.53
433.808	12298.05
434.016	12146.5
434.223	12605.25
434.43	13516.59
434.637	13156.15
434.844	13940.52
435.052	14278.44
435.259	14356.26
435.466	14350.12
435.673	14235.43
435.88	15136.54
436.087	15963.92
436.294	15810.32
436.501	15417.11
436.708	15992.59
436.915	16371.46
437.122	17118.97
437.329	16992
437.537	17805.04
437.743	17856.24
437.95	17704.69
438.157	18863.84
438.364	19566.29
438.571	19201.75
438.778	19640.02
438.985	21429.94
439.192	20596.42
439.399	21108.41
439.606	20672.2
439.813	21622.45
440.02	23121.57
440.227	22728.36
440.433	22769.32
440.64	23299.74
440.847	23219.87
441.054	23543.45
441.261	25380.48
441.467	24972.93
441.674	25669.24
441.881	26621.55
442.088	26095.22
442.294	26048.11
442.501	26955.36
442.708	27434.59
442.914	28235.35
443.121	29767.23
443.328	28560.97
443.534	30844.46
443.741	29916.73
443.948	29546.05
444.154	31999.51
444.361	31426.08
444.568	31417.89
444.774	31772.19
444.981	32079.38
445.187	33101.32
445.394	34680.3
445.6	34127.35
445.807	37514.69
446.013	35347.94
446.22	36384.21
446.426	37211.59
446.633	37647.81
446.839	39142.83
447.046	38137.27
447.252	39515.56
447.459	39599.52
447.665	39796.13
447.871	41192.84
448.078	43576.68
448.284	40955.28
448.491	42296.7
448.697	43726.18
448.903	44461.4
449.11	44518.74
449.316	43797.86
449.522	44518.74
449.728	45788.49
449.935	45942.08
450.141	45899.08
450.347	47037.75
450.553	45518.15
450.76	46390.59
450.966	47557.93
451.172	46898.48
451.378	48221.47
451.584	47326.51
451.791	48047.39
451.997	47766.82
452.203	49360.14
452.409	48893.21
452.615	48299.29
452.821	46857.52
453.027	46216.51
453.233	48534.81
453.44	46931.25
453.646	47410.48
453.852	47379.76
454.058	48108.83
454.264	46867.76
454.47	47752.49
454.676	46280
454.882	47856.93
455.088	43920.74
455.294	44551.51
455.5	45325.64
455.705	45684.04
455.911	43347.31
456.117	42980.72
456.323	42354.04
456.529	40086.94
456.735	41713.03
456.941	40725.91
457.147	40344.98
457.352	39017.9
457.558	38385.08
457.764	38432.18
457.97	37641.67
458.176	36513.23
458.381	36679.12
458.587	34928.11
458.793	35198.44
458.999	33279.49
459.204	35395.04
459.41	34229.75
459.616	32140.82
459.821	32245.27
460.027	31962.65
460.233	30871.08
460.438	29765.18
460.644	30322.23
460.85	28728.91
461.055	28259.92
461.261	28227.15
461.466	26089.07
461.672	25276.03
461.878	26957.41
462.083	25259.65
462.289	24675.98
462.494	24315.53
462.7	23525.02
462.905	22748.84
463.111	23803.54
463.316	23920.27
463.522	23377.56
463.727	23352.99
463.932	23328.41
464.138	22828.71
464.343	23185.05
464.549	22546.09
464.754	23121.57
464.959	22873.76
465.165	22814.37
465.37	22269.61
465.575	21313.21
465.781	22210.22
465.986	22097.58
466.191	21438.14
466.397	20936.38
466.602	20051.66
466.807	21030.59
467.012	20885.19
467.218	20549.32
467.423	20340.43
467.628	20391.62
467.833	21466.81
468.038	20772.55
468.244	20063.95
468.449	20729.54
468.654	20057.81
468.859	19853.01
469.064	20072.14
469.269	18839.26
469.474	19046.11
469.679	19429.08
469.885	18978.53
470.09	19203.8
470.295	18863.84
470.5	18626.28
470.705	18853.6
470.91	18444.01
471.115	18110.19
471.32	18337.51
471.525	18157.29
471.73	17880.82
471.935	17786.61
472.139	17268.47
472.344	17243.9
472.549	17372.92
472.754	17112.83
472.959	16699.14
473.164	16264.97
473.369	16252.68
473.574	16609.03
473.778	16535.3
473.983	16441.09
474.188	16471.81
474.393	15544.08
474.598	15550.23
474.802	15566.61
475.007	15286.04
475.212	15367.96
475.417	14815.01
475.621	14741.28
475.826	14796.57
476.031	14841.63
476.235	14319.4
476.44	14468.9
476.645	14233.38
476.849	14208.81
477.054	14184.23
477.259	13801.26
477.463	13811.5
477.668	13309.75
477.872	13614.9
478.077	13340.47
478.282	13154.1
478.486	13084.47
478.691	13041.46
478.895	12775.23
479.1	12775.23
479.304	13018.94
479.509	12588.86
479.713	12697.41
479.918	12310.34
480.122	12365.64
480.326	12322.63
480.531	12324.68
480.735	12289.86
480.94	12253
481.144	12339.01
481.348	11966.28
481.553	12054.34
481.757	11904.84
481.961	12033.86
482.166	11917.13
482.37	12040.01
482.574	11753.29
482.778	11802.44
482.983	12095.3
483.187	11765.58
483.391	11818.83
483.595	12083.02
483.8	11775.82
484.004	11863.88
484.208	11915.08
484.412	11845.45
484.616	11925.32
484.821	11870.03
485.025	11902.79
485.229	11882.31
485.433	11880.27
485.637	11661.13
485.841	11611.98
486.045	11683.66
486.249	11927.37
486.453	11716.43
486.657	11810.64
486.861	11802.44
487.065	11654.99
487.269	11679.57
487.473	11628.37
487.677	11722.57
487.881	11898.7
488.085	11902.79
488.289	12046.15
488.493	11724.62
488.697	11990.86
488.901	11931.47
489.105	11902.79
489.309	11892.55
489.512	12050.25
489.716	12154.69
489.92	12099.4
490.124	11917.13
490.328	12148.55
490.531	12146.5
490.735	12193.61
490.939	12300.1
491.143	12005.19
491.346	12070.73
491.55	12379.97
491.754	12148.55
491.958	12537.66
492.161	12320.58
492.365	12435.27
492.569	12486.47
492.772	12515.14
492.976	12527.42
493.18	12597.06
493.383	12838.72
493.587	12830.52
493.79	13092.66
493.994	12539.71
494.197	13141.82
494.401	13291.32
494.605	13076.28
494.808	13442.87
495.012	13569.84
495.215	13461.3
495.419	13698.86
495.622	13375.28
495.825	13758.25
496.029	13709.1
496.232	14268.2
496.436	13926.19
496.639	14378.79
496.843	14063.4
497.046	14452.52
497.249	14731.04
497.453	14755.61
497.656	14976.8
497.859	14733.09
498.063	15062.81
498.266	15298.33
498.469	15175.45
498.673	15556.37
498.876	15560.47
499.079	15834.89
499.282	15697.68
499.485	16310.02
499.689	16111.37
499.892	16322.31
500.095	16404.23
500.298	17086.2
500.501	16680.71
500.705	17477.37
500.908	17243.9
501.111	17686.26
501.314	17903.34
501.517	17940.21
501.72	18155.24
501.923	18194.15
502.126	18898.66
502.329	18898.66
502.532	18800.35
502.735	18972.38
502.938	19334.87
503.141	19535.57
503.344	19928.78
503.547	19936.98
503.75	20145.87
503.953	20420.3
504.156	20610.76
504.359	20762.31
504.562	20831.94
504.765	21182.14
504.968	21399.23
505.17	21696.18
505.373	21679.8
505.576	22169.26
505.779	22242.99
505.982	22329
506.185	23029.41
506.387	23082.66
506.59	23025.31
506.793	23541.4
506.996	23221.92
507.198	24112.78
507.401	23838.36
507.604	24231.57
507.807	24518.28
508.009	24819.33
508.212	24868.48
508.415	25390.72
508.617	25722.49
508.82	25517.69
509.022	25714.3
509.225	26429.04
509.428	26820.2
509.63	26738.28
509.833	26801.77
510.035	27262.56
510.238	27559.52
510.44	27786.84
510.643	28192.34
510.845	28302.93
511.048	28358.22
511.25	28628.56
511.453	28718.67
511.655	29765.18
511.858	29261.38
512.06	29634.11
512.262	30271.03
512.465	30119.48
512.667	30383.66
512.87	30805.55
513.072	30905.9
513.274	31583.77
513.477	31839.77
513.679	31880.73
513.881	32036.38
514.084	32558.61
514.286	32513.55
514.488	32968.2
514.69	33451.52
514.893	33807.87
515.095	33242.63
515.297	34330.1
515.499	34160.12
515.701	34735.6
515.904	35073.51
516.106	35390.95
516.308	35536.35
516.51	36015.58
516.712	36048.35
516.914	36349.4
517.116	36683.22
517.318	36515.28
517.52	37207.5
517.722	36955.6
517.925	37672.39
518.127	37809.6
518.329	38180.28
518.531	38196.67
518.733	38923.69
518.935	38997.42
519.136	39275.94
519.338	40025.5
519.54	40021.41
519.742	39873.95
519.944	40600.98
520.146	41065.87
520.348	41123.21
520.55	41418.12
520.752	41219.47
520.954	42298.75
521.155	41801.09
521.357	42429.82
521.559	42960.24
521.761	43087.21
521.963	43162.99
522.164	43601.25
522.366	43677.03
522.568	43832.68
522.77	44096.86
522.971	44731.73
523.173	44477.79
523.375	44770.64
523.576	44850.52
523.778	44936.53
523.98	45370.7
524.181	45507.91
524.383	45821.25
524.584	46030.15
524.786	46163.26
524.988	46101.82
525.189	46570.81
525.391	46708.02
525.592	47166.77
525.794	47351.09
525.995	47189.3
526.197	46990.64
526.398	47316.27
526.6	47889.7
526.801	47983.91
527.003	48219.42
527.204	48254.24
527.406	48268.58
527.607	48577.82
527.808	48823.57
528.01	48244
528.211	48895.25
528.412	49624.33
528.614	48731.42
528.815	49446.16
529.016	49507.6
529.218	49192.21
529.419	49466.64
529.62	49141.01
529.822	49487.12
530.023	49571.08
530.224	49282.32
530.425	49566.99
530.626	49628.43
530.828	49423.63
531.029	50662.65
531.23	49687.82
531.431	49777.93
531.632	49933.57
531.833	50095.36
532.035	49765.64
532.236	50115.84
532.437	50382.08
532.638	49833.22
532.839	50287.87
533.04	50205.95
533.241	49757.45
533.442	50584.83
533.643	50435.33
533.844	50275.58
534.045	50093.32
534.246	50035.97
534.447	50590.97
534.648	50048.26
534.849	50588.92
535.05	49650.95
535.251	50423.04
535.451	50105.6
535.652	50451.71
535.853	50136.32
536.054	50251.01
536.255	50226.43
536.456	49906.95
536.657	50699.51
536.857	50162.95
537.058	50232.58
537.259	50593.02
537.46	50156.8
537.66	50416.89
537.861	50195.71
538.062	50388.22
538.263	50199.81
538.463	49884.42
538.664	50228.48
538.865	50033.92
539.065	50273.54
539.266	49517.84
539.466	50457.85
539.667	49446.16
539.868	50459.9
540.068	50238.72
540.269	50179.33
540.469	50318.59
540.67	50183.43
540.87	49794.31
541.071	49964.29
541.271	49829.13
541.472	49726.73
541.672	49679.63
541.873	49693.96
542.073	49546.51
542.274	50121.99
542.474	49237.26
542.675	49569.04
542.875	50085.12
543.075	50003.2
543.276	49270.03
543.476	50150.66
543.676	49857.8
543.877	49622.28
544.077	49577.23
544.277	49208.59
544.478	49370.38
544.678	49673.48
544.878	49249.55
545.078	49315.09
545.279	49157.39
545.479	49136.91
545.679	49720.59
545.879	49265.94
546.079	49456.4
546.28	49399.05
546.48	49128.72
546.68	49052.95
546.88	49261.84
547.08	49059.09
547.28	49155.35
547.48	48899.35
547.68	49114.39
547.88	48784.66
548.081	49290.51
548.281	48940.31
548.481	49141.01
548.681	49411.34
548.881	49374.48
549.081	48878.87
549.28	49011.99
549.48	49063.19
549.68	49380.62
549.88	49339.66
550.08	48928.02
550.28	49114.39
550.48	49034.52
550.68	49409.29
550.88	48663.83
551.08	48760.09
551.279	49081.62
551.479	48569.63
551.679	48688.41
551.879	49016.08
552.079	48846.1
552.278	48289.06
552.478	48827.67
552.678	48325.92
552.878	48487.71
553.077	48612.63
553.277	47936.8
553.477	48903.45
553.676	48010.53
553.876	48641.31
554.076	48262.43
554.275	48299.29
554.475	48149.79
554.674	48327.97
554.874	48065.83
555.074	48104.74
555.273	48217.38
555.473	48391.45
555.672	48006.44
555.872	48297.25
556.071	48117.03
556.271	48008.48
556.47	48047.39
556.67	47760.68
556.869	47961.38
557.068	47701.29
557.268	47607.08
557.467	47463.72
557.667	47777.06
557.866	47695.14
558.065	47805.73
558.265	47355.18
558.464	47134
558.663	47633.71
558.863	47301.93
559.062	47734.06
559.261	46935.35
559.461	47770.92
559.66	46689.59
559.859	47023.41
560.058	46619.96
560.258	47234.35
560.457	46538.04
560.656	47170.86
560.855	47244.59
561.054	47035.7
561.253	46548.28
561.453	47277.36
561.652	46660.92
561.851	46632.25
562.05	46304.57
562.249	46026.05
562.448	46691.64
562.647	46535.99
562.846	46236.99
563.045	46527.8
563.244	45798.73
563.443	46560.57
563.642	46001.47
563.841	45745.48
564.04	45901.12
564.239	45958.47
564.438	45389.13
564.637	45688.13
564.836	45657.42
565.035	45055.31
565.234	45346.12
565.432	45022.54
565.631	44987.73
565.83	45391.18
566.029	44862.8
566.228	44438.87
566.427	45141.33
566.625	44201.31
566.824	44211.55
567.023	45118.8
567.222	43965.79
567.42	44877.14
567.619	44750.17
567.818	44281.18
568.016	43853.15
568.215	44645.72
568.414	44295.52
568.612	44404.06
568.811	43900.26
569.01	44084.58
569.208	43345.26
569.407	43844.96
569.605	43203.95
569.804	43779.43
570.002	43283.82
570.201	43277.68
570.4	42980.72
570.598	42943.86
570.797	43025.78
570.995	42962.29
571.193	42331.51
571.392	43001.2
571.59	42710.39
571.789	42687.86
571.987	42497.4
572.186	42741.11
572.384	42210.68
572.582	42628.47
572.781	42294.65
572.979	41411.98
573.177	42233.21
573.376	41852.29
573.574	41223.56
573.772	41950.59
573.971	41684.36
574.169	42024.32
574.367	41364.87
574.565	41762.18
574.763	41166.22
574.962	41207.18
575.16	40721.81
575.358	41258.38
575.556	40986
575.754	41319.82
575.952	40678.8
576.151	41061.77
576.349	40127.9
576.547	40693.14
576.745	40578.45
576.943	40248.73
577.141	40361.37
577.339	40402.33
577.537	40248.73
577.735	39925.15
577.933	39798.18
578.131	39714.21
578.329	39822.75
578.527	39183.79
578.725	39574.95
578.923	39302.57
579.121	38987.18
579.319	39325.1
579.516	39222.7
579.714	39439.78
579.912	38763.95
580.11	38757.81
580.308	39132.59
580.506	38778.29
580.704	38348.21
580.901	38495.67
581.099	38766
581.297	38135.23
581.495	37856.7
581.692	38337.97
581.89	37834.17
582.088	38157.75
582.285	37543.36
582.483	37979.58
582.681	37690.82
582.878	37539.27
583.076	37320.13
583.274	38008.25
583.471	36898.25
583.669	37176.78
583.866	37289.42
584.064	37324.23
584.262	36459.99
584.459	37010.89
584.657	36763.09
584.854	36957.64
585.052	35984.86
585.249	36330.97
585.447	36519.38
585.644	36132.31
585.841	36029.91
586.039	36490.71
586.236	35405.28
586.434	35929.56
586.631	35372.52
586.828	35876.32
587.026	35874.27
587.223	35818.97
587.42	35253.73
587.618	35472.87
587.815	35118.57
588.012	35026.41
588.21	34764.27
588.407	35442.15
588.604	34565.62
588.801	34635.25
588.999	34647.54
589.196	34336.24
589.393	34250.23
589.59	34461.17
589.787	34049.53
589.984	34110.97
590.182	33723.9
590.379	34278.9
590.576	33652.22
590.773	33748.48
590.97	33732.09
591.167	33431.04
591.364	33347.08
591.561	33816.06
591.758	32902.67
591.955	33783.29
592.152	33201.67
592.349	32472.59
592.546	33123.85
592.743	33144.33
592.94	32321.04
593.137	32818.7
593.334	33109.51
593.531	31878.68
593.727	32296.47
593.924	31868.44
594.121	32149.01
594.318	32400.91
594.515	31663.64
594.712	32085.53
594.908	31706.65
595.105	31743.52
595.302	31127.08
595.499	31737.37
595.696	31325.73
595.892	31184.42
596.089	31313.44
596.286	31370.79
596.482	31018.53
596.679	30815.79
596.876	31161.89
597.072	30731.82
597.269	30598.7
597.466	30578.22
597.662	30277.17
597.859	30393.9
598.055	30379.57
598.252	30172.72
598.448	30168.63
598.645	29972.02
598.841	29941.3
599.038	29785.66
599.234	30082.61
599.431	29312.58
599.627	29490.75
599.824	29529.66
600.02	29351.49
600.217	29400.64
600.413	29187.65
600.609	29142.6
600.806	28866.12
601.002	29269.57
601.198	28911.17
601.395	28536.4
601.591	28581.45
601.787	28517.96
601.984	28456.53
602.18	28323.41
602.376	28304.98
602.572	28382.8
602.769	28292.69
602.965	28128.85
603.161	27835.99
603.357	28061.27
603.553	27876.95
603.75	27776.6
603.946	27385.44
604.142	27897.43
604.338	27035.24
604.534	27166.31
604.73	27121.25
604.926	27360.86
605.122	27301.47
605.318	27186.79
605.514	26697.32
605.71	26734.18
605.906	26879.59
606.102	26812.01
606.298	26666.6
606.494	26947.17
606.69	26472.04
606.886	26687.08
607.082	26259.06
607.278	26484.33
607.474	26117.75
607.67	26484.33
607.866	25958
608.062	26357.36
608.257	26058.35
608.453	25679.48
608.649	26127.99
608.845	26054.26
609.041	25646.71
609.236	25765.49
609.432	25652.86
609.628	25714.3
609.824	25468.54
610.019	25390.72
610.215	25380.48
610.411	25769.59
610.606	25335.42
610.802	25077.38
610.998	25235.07
611.193	25083.52
611.389	24977.03
611.584	25067.14
611.78	24694.41
611.976	25577.08
612.171	25235.07
612.367	24823.43
612.562	24653.45
612.758	24436.36
612.953	24381.07
613.149	24768.13
613.344	24413.84
613.539	25157.25
613.735	24862.34
613.93	24598.15
614.126	24460.94
614.321	24544.91
614.517	24348.3
614.712	24374.92
614.907	24037.01
615.103	24254.09
615.298	24284.81
615.493	24170.13
615.688	23862.93
615.884	24710.79
616.079	23762.58
616.274	24166.03
616.47	23985.81
616.665	23795.35
616.86	23766.68
617.055	23408.28
617.25	23559.83
617.445	23701.14
617.641	23221.92
617.836	23553.69
618.031	23305.88
618.226	23490.2
618.421	23045.79
618.616	23522.97
618.811	22865.57
619.006	23221.92
619.201	22697.64
619.396	22972.07
619.591	22537.9
619.786	23023.26
619.981	22259.37
620.176	22697.64
620.371	22163.12
620.566	22406.83
620.761	22281.9
620.956	22372.01
621.151	21728.95
621.346	22005.42
621.541	21569.21
621.735	21880.5
621.93	21575.35
622.125	21270.2
622.32	21184.19
622.515	21520.06
622.709	21233.34
622.904	20997.82
623.099	20782.79
623.294	20868.8
623.488	20750.02
623.683	20735.68
623.878	20534.98
624.072	20393.67
624.267	20463.3
624.462	20094.67
624.656	19961.55
624.851	19758.8
625.046	19861.2
625.24	19816.15
625.435	19746.51
625.629	19619.54
625.824	19465.94
626.018	19132.12
626.213	18781.92
626.407	19463.89
626.602	18745.06
626.796	19001.05
626.991	18740.96
627.185	18882.27
627.38	18618.08
627.574	18738.91
627.768	18611.94
627.963	18294.5
628.157	18163.43
628.352	18040.56
628.546	18095.85
628.74	17975.02
628.935	17590
629.129	17762.03
629.323	17678.07
629.517	17503.99
629.712	17452.79
629.906	17495.8
630.1	16953.09
630.294	17393.4
630.489	17145.59
630.683	17147.64
630.877	16819.97
631.071	16609.03
631.265	16619.27
631.459	16733.95
631.653	16611.07
631.848	16338.69
632.042	16430.85
632.236	16355.08
632.43	16115.47
632.624	16393.99
632.818	16021.26
633.012	15959.82
633.206	15933.2
633.4	16054.03
633.594	15636.24
633.788	15740.69
633.982	15773.46
634.176	15560.47
634.369	15449.88
634.563	15357.72
634.757	15197.98
634.951	15132.44
635.145	15308.57
635.339	15259.42
635.533	15146.78
635.726	15107.87
635.92	14595.87
636.114	14647.07
636.308	14573.35
636.501	14739.23
636.695	14507.81
636.889	14442.28
637.083	14176.04
637.276	14217
637.47	14178.09
637.664	14059.31
637.857	14251.81
638.051	14049.07
638.244	13911.85
638.438	13831.98
638.632	13692.72
638.825	13754.16
639.019	13778.73
639.212	13426.48
639.406	13518.64
639.599	13420.34
639.793	13252.41
639.986	13016.89
640.18	13043.51
640.373	13012.79
640.567	12992.31
640.76	12822.33
640.954	13023.03
641.147	12672.83
641.34	12662.59
641.534	12703.55
641.727	12474.18
641.92	12580.67
642.114	12656.45
642.307	12287.81
642.5	12279.62
642.694	12207.94
642.887	12126.02
643.08	12017.48
643.273	12031.82
643.467	11913.03
643.66	11972.43
643.853	11876.17
644.046	11628.37
644.239	11757.39
644.432	11683.66
644.626	11777.87
644.819	11411.28
645.012	11614.03
645.205	11663.18
645.398	11415.38
645.591	11368.27
645.784	11419.47
645.977	11097.94
646.17	11097.94
646.363	10938.2
646.556	11036.5
646.749	10811.23
646.942	11153.24
647.135	10852.19
647.328	10958.68
647.521	10708.83
647.714	10512.22
647.907	10686.3
648.099	10598.24
648.292	10596.19
648.485	10426.21
648.678	10360.67
648.871	10217.32
649.064	10239.84
649.256	10313.57
649.449	10280.8
649.642	9998.18
649.835	10362.72
650.027	9985.9
650.22	9994.09
650.413	9922.41
650.605	9959.27
650.798	9914.22
650.991	9791.34
651.183	9576.3
651.376	9521.01
651.568	9774.95
651.761	9629.55
651.954	9596.78
652.146	9496.43
652.339	9580.4
652.531	9502.57
652.724	9213.81
652.916	9172.85
653.109	9226.1
653.301	8998.77
653.494	9015.16
653.686	8877.94
653.879	8998.77
654.071	8951.67
654.263	8984.44
654.456	9068.41
654.648	8697.72
654.84	8900.47
655.033	8644.48
655.225	8515.45
655.417	8578.94
655.61	8501.12
655.802	8650.62
655.994	8281.99
656.186	8527.74
656.379	8320.9
656.571	8423.3
656.763	8281.99
656.955	8234.88
657.148	8136.58
657.34	8314.75
657.532	8046.47
657.724	8025.99
657.916	8114.05
658.108	8015.75
658.3	8169.35
658.492	7917.45
658.684	7950.21
658.876	7774.09
659.068	7858.06
659.26	7833.48
659.452	7876.49
659.644	7843.72
659.836	7645.07
660.028	7649.16
660.22	7602.06
660.412	7530.38
660.604	7534.48
660.796	7477.13
660.988	7497.61
661.18	7415.69
661.372	7133.08
661.563	7460.75
661.755	7255.95
661.947	7294.86
662.139	7120.79
662.331	7301.01
662.522	7053.2
662.714	7221.14
662.906	6969.24
663.097	6881.18
663.289	6872.98
663.481	6959
663.673	6971.29
663.864	7065.49
664.056	6678.43
664.247	6864.79
664.439	6596.51
664.631	6801.3
664.822	6627.23
665.014	6670.23
665.205	6653.85
665.397	6567.84
665.588	6688.67
665.78	6465.44
665.971	6518.68
666.163	6412.19
666.354	6514.59
666.546	6614.94
666.737	6250.4
666.929	6328.22
667.12	6219.68
667.311	6174.63
667.503	6244.26
667.694	6377.37
667.885	6229.92
668.077	6152.1
668.268	6057.89
668.459	6057.89
668.651	5930.92
668.842	5947.3
669.033	5916.58
669.224	5853.09
669.416	6047.65
669.607	6154.15
669.798	5910.44
669.989	5892.01
670.18	5754.79
670.371	5810.09
670.563	5828.52
670.754	5773.22
670.945	5695.4
671.136	5842.85
671.327	5619.63
671.518	5760.94
671.709	5556.14
671.9	5584.81
672.091	5642.15
672.282	5420.97
672.473	5455.79
672.664	5607.34
672.855	5523.37
673.046	5531.56
673.237	5300.14
673.428	5593
673.619	5259.18
673.809	5281.71
674	5351.34
674.191	5334.96
674.382	5177.27
674.573	5218.22
674.764	5193.65
674.954	5339.05
675.145	5097.39
675.336	5169.07
675.527	5066.67
675.717	5253.04
675.908	5189.55
676.099	5240.75
676.289	5296.05
676.48	4960.18
676.671	5085.11
676.861	5162.93
677.052	4929.46
677.243	4947.89
677.433	5074.87
677.624	4943.8
677.814	4986.8
678.005	5023.67
678.195	4857.78
678.386	5070.77
678.576	5027.76
678.767	4888.5
678.957	4814.77
679.148	4945.84
679.338	4853.69
679.529	4759.48
679.719	4782.01
679.909	4898.74
680.1	4655.03
680.29	4925.36
680.481	4669.37
680.671	4843.45
680.861	4739
681.052	4679.61
681.242	4765.62
681.432	4761.53
681.622	4628.41
681.813	4708.28
682.003	4597.69
682.193	4472.76
682.383	4620.22
682.573	4607.93
682.764	4454.33
682.954	4437.95
683.144	4628.41
683.334	4458.43
683.524	4388.8
683.714	4435.9
683.904	4464.57
684.094	4321.21
684.284	4538.3
684.474	4423.61
684.664	4528.06
684.854	4470.72
685.044	4405.18
685.234	4341.69
685.424	4272.06
685.614	4483
685.804	4224.96
685.994	4208.58
686.184	4329.41
686.374	4157.38
686.564	4222.91
686.753	4325.31
686.943	4169.66
687.133	4052.93
687.323	4163.52
687.513	4216.77
687.702	4024.26
687.892	4177.86
688.082	4054.98
688.272	4011.97
688.461	4005.83
688.651	4167.62
688.841	3979.2
689.03	3938.24
689.22	3977.16
689.41	3985.35
689.599	3946.44
689.789	3848.13
689.979	3973.06
690.168	4100.03
690.358	3856.33
690.547	3813.32
690.737	3817.41
690.926	3944.39
691.116	3645.38
691.305	3905.48
691.495	3805.13
691.684	3760.07
691.874	3792.84
692.063	3825.61
692.252	3649.48
692.442	3629
692.631	3758.02
692.82	3833.8
693.01	3770.31
693.199	3760.07
693.388	3590.09
693.578	3616.71
693.767	3432.4
693.956	3669.96
694.146	3569.61
694.335	3516.36
694.524	3534.79
694.713	3409.87
694.902	3487.69
695.092	3506.12
695.281	3499.98
695.47	3545.03
695.659	3499.98
695.848	3405.77
696.037	3461.07
696.226	3514.31
696.415	3450.83
696.604	3373
696.793	3385.29
696.982	3401.68
697.171	3403.72
697.36	3405.77
697.549	3463.12
697.738	3373
697.927	3344.33
698.116	3432.4
698.305	3401.68
698.494	3274.7
698.683	3395.53
698.872	3311.57
699.061	3483.59
699.25	3286.99
699.438	3286.99
699.627	3422.16
699.816	3284.94
700.005	3315.66
700.193	3233.74
700.382	3381.2
700.571	3207.12
700.76	3368.91
700.948	3297.23
701.137	3239.89
701.326	3213.26
701.514	3297.23
701.703	3215.31
701.892	3235.79
702.08	3309.52
702.269	3233.74
702.457	3133.39
702.646	3194.83
702.834	3346.38
703.023	3256.27
703.212	3278.8
703.4	3307.47
703.589	3055.57
703.777	3139.54
703.965	3227.6
704.154	3317.71
704.342	3205.07
704.531	3203.02
704.719	3223.5
704.907	3213.26
705.096	3192.78
705.284	3188.69
705.472	3235.79
705.661	3141.58
705.849	3219.41
706.037	3119.06
706.226	3141.58
706.414	3266.51
706.602	3133.39
706.79	3174.35
706.979	3002.32
707.167	3246.03
707.355	3164.11
707.543	3219.41
707.731	3051.47
707.919	3065.81
708.107	3086.29
708.296	3069.91
708.484	3307.47
708.672	3178.45
708.86	3108.82
709.048	3133.39
709.236	2998.23
709.424	3160.02
709.612	3190.74
709.8	3080.15
709.988	3121.1
710.176	3217.36
710.364	3143.63
710.551	3182.54
710.739	3088.34
710.927	3004.37
711.115	3178.45
711.303	3059.67
711.491	3133.39
711.679	3137.49
711.866	3151.82
712.054	2979.79
712.242	2992.08
712.43	3057.62
712.617	3024.85
712.805	2961.36
712.993	3074
713.181	2957.27
713.368	3030.99
713.556	3090.38
713.744	2963.41
713.931	3069.91
714.119	2975.7
714.306	3016.66
714.494	3047.38
714.682	3051.47
714.869	3053.52
715.057	3055.57
715.244	2965.46
715.432	2981.84
715.619	2922.45
715.807	2922.45
715.994	2944.98
716.182	2936.79
716.369	2908.12
716.556	3057.62
716.744	2916.31
716.931	3065.81
717.119	2990.03
717.306	2930.64
717.493	2928.6
717.681	3008.47
717.868	2983.89
718.055	2971.6
718.242	2959.31
718.43	2967.51
718.617	2899.92
718.804	2947.03
718.991	2863.06
719.179	3071.95
719.366	2940.88
719.553	2852.82
719.74	2824.15
719.927	2981.84
720.114	2967.51
720.301	2877.4
720.488	2899.92
720.676	2863.06
720.863	2875.35
721.05	2926.55
721.237	2932.69
721.424	2951.12
721.611	2928.6
721.798	2844.63
721.985	2842.58
722.172	2803.67
722.358	2914.26
722.545	2818.01
722.732	2795.48
722.919	2908.12
723.106	2885.59
723.293	2934.74
723.48	2883.54
723.667	2875.35
723.853	2893.78
724.04	2944.98
724.227	2844.63
724.414	2832.34
724.6	2748.37
724.787	2775
724.974	2785.24
725.161	2797.53
725.347	2750.42
725.534	2783.19
725.72	2643.93
725.907	2856.92
726.094	2813.91
726.28	2842.58
726.467	2709.46
726.653	2703.32
726.84	2740.18
727.027	2799.57
727.213	2699.22
727.4	2840.53
727.586	2736.09
727.773	2727.89
727.959	2777.05
728.145	2684.89
728.332	2744.28
728.518	2856.92
728.705	2715.61
728.891	2711.51
729.077	2756.57
729.264	2734.04
729.45	2764.76
729.636	2676.7
729.823	2719.7
730.009	2703.32
730.195	2701.27
730.382	2605.02
730.568	2613.21
730.754	2650.07
730.94	2572.25
731.126	2613.21
731.313	2783.19
731.499	2566.1
731.685	2727.89
731.871	2713.56
732.057	2609.11
732.243	2545.63
732.429	2566.1
732.615	2648.02
732.801	2697.17
732.987	2545.63
733.173	2650.07
733.359	2523.1
733.545	2621.4
733.731	2562.01
733.917	2555.86
734.103	2602.97
734.289	2643.93
734.475	2576.34
734.661	2621.4
734.847	2578.39
735.033	2574.3
735.219	2576.34
735.404	2615.26
735.59	2656.22
735.776	2572.25
735.962	2500.57
736.148	2631.64
736.333	2521.05
736.519	2529.24
736.705	2572.25
736.89	2586.58
737.076	2508.76
737.262	2519
737.447	2478.04
737.633	2510.81
737.819	2432.99
738.004	2537.43
738.19	2549.72
738.375	2363.36
738.561	2594.78
738.747	2441.18
738.932	2392.03
739.118	2547.67
739.303	2400.22
739.489	2357.21
739.674	2351.07
739.859	2410.46
740.045	2381.79
740.23	2340.83
740.416	2267.1
740.601	2402.27
740.786	2379.74
740.972	2271.2
741.157	2424.8
741.342	2213.85
741.528	2240.48
741.713	2310.11
741.898	2269.15
742.084	2252.77
742.269	2334.68
742.454	2185.18
742.639	2306.01
742.824	2236.38
743.01	2338.78
743.195	2349.02
743.38	2252.77
743.565	2209.76
743.75	2271.2
743.935	2230.24
744.12	2203.61
744.305	2179.04
744.49	2201.57
744.675	2189.28
744.86	2138.08
745.045	2166.75
745.23	2095.07
745.415	2170.85
745.6	2070.5
745.785	2086.88
745.97	2099.17
746.155	2084.83
746.34	2107.36
746.525	2004.96
746.71	2017.25
746.895	2050.02
747.079	2004.96
747.264	1943.52
747.449	2043.87
747.634	2019.3
747.819	2119.65
748.003	1920.99
748.188	1964
748.373	1902.56
748.557	1902.56
748.742	1912.8
748.927	1918.95
749.111	1839.08
749.296	1869.8
749.481	1769.44
749.665	1898.47
749.85	1751.01
750.034	1830.88
750.219	1861.6
750.404	1857.51
750.588	1812.45
750.773	1748.97
750.957	1843.17
751.141	1865.7
751.326	1751.01
751.51	1650.66
751.695	1757.16
751.879	1640.42
752.064	1820.64
752.248	1591.27
752.432	1699.81
752.617	1669.09
752.801	1716.2
752.985	1517.54
753.17	1572.84
753.354	1660.9
753.538	1650.66
753.722	1611.75
753.907	1595.37
754.091	1601.51
754.275	1621.99
754.459	1482.73
754.643	1501.16
754.828	1513.45
755.012	1615.85
755.196	1525.74
755.38	1437.67
755.564	1462.25
755.748	1478.63
755.932	1505.26
756.116	1458.15
756.3	1345.52
756.484	1290.22
756.668	1466.35
756.852	1474.54
757.036	1380.33
757.22	1402.86
757.404	1431.53
757.588	1359.85
757.772	1374.19
757.956	1355.76
758.14	1290.22
758.323	1282.03
758.507	1343.47
758.691	1353.71
758.875	1232.88
759.059	1331.18
759.242	1339.37
759.426	1253.36
759.61	1277.93
759.794	1353.71
759.977	1284.08
760.161	1265.64
760.345	1148.91
760.528	1255.4
760.712	1224.69
760.895	1181.68
761.079	1196.01
761.263	1243.12
761.446	1279.98
761.63	1196.01
761.813	1218.54
761.997	1200.11
762.18	1013.74
762.364	1124.33
762.547	1052.66
762.731	1126.38
762.914	1091.57
763.098	1110
763.281	1073.14
763.464	1103.86
763.648	1220.59
763.831	1159.15
764.015	1085.42
764.198	1193.97
764.381	1112.05
764.564	1114.1
764.748	1132.53
764.931	1083.38
765.114	1054.7
765.297	1146.86
765.481	1064.94
765.664	1077.23
765.847	1054.7
766.03	1128.43
766.213	1081.33
766.397	1009.65
766.58	1146.86
766.763	1032.18
766.946	921.59
767.129	1040.37
767.312	980.98
767.495	999.41
767.678	999.41
767.861	999.41
768.044	1120.24
768.227	983.02
768.41	1036.27
768.593	907.25
768.776	878.58
768.959	1030.13
769.142	989.17
769.324	962.55
769.507	972.79
769.69	911.35
769.873	993.26
770.056	1023.98
770.239	940.02
770.421	919.54
770.604	964.59
770.787	937.97
770.97	874.48
771.152	935.92
771.335	960.5
771.518	878.58
771.7	974.83
771.883	987.12
772.066	870.39
772.248	911.35
772.431	890.87
772.613	817.14
772.796	815.09
772.978	849.91
773.161	903.15
773.343	907.25
773.526	731.12
773.708	829.43
773.891	839.67
774.073	894.96
774.256	780.28
774.438	825.33
774.621	767.99
774.803	876.53
774.985	757.75
775.168	735.22
775.35	755.7
775.532	778.23
775.715	817.14
775.897	784.37
776.079	843.76
776.261	784.37
776.444	735.22
776.626	833.52
776.808	778.23
776.99	655.35
777.173	755.7
777.355	708.6
777.537	708.6
777.719	776.18
777.901	733.17
778.083	692.21
778.265	641.01
778.447	727.03
778.629	681.97
778.811	571.38
778.993	516.09
779.175	704.5
779.357	647.16
779.539	616.44
779.721	698.36
779.903	653.3
780.085	696.31
780.267	602.1
780.449	563.19
780.631	626.68
780.812	663.54
780.994	622.58
781.176	577.53
781.358	657.4
781.54	661.49
781.721	618.49
781.903	616.44
782.085	606.2
782.267	622.58
782.448	659.45
782.63	546.81
782.812	628.73
782.993	571.38
783.175	546.81
783.357	532.47
783.538	540.66
783.72	528.38
783.901	604.15
784.083	526.33
784.264	518.14
784.446	475.13
784.627	589.81
784.809	532.47
784.99	538.62
785.172	499.7
785.353	497.66
785.535	464.89
785.716	511.99
785.897	524.28
786.079	569.34
786.26	466.94
786.441	489.46
786.623	485.37
786.804	485.37
786.985	436.22
787.167	456.7
787.348	503.8
787.529	442.36
787.71	503.8
787.891	462.84
788.073	432.12
788.254	434.17
788.435	528.38
788.616	432.12
788.797	434.17
788.978	397.31
789.159	450.55
789.34	417.79
789.522	395.26
789.703	456.7
789.884	450.55
790.065	409.59
790.246	397.31
790.427	366.59
790.607	425.98
790.788	387.07
790.969	385.02
791.15	454.65
791.331	387.07
791.512	401.4
791.693	350.2
791.874	362.49
792.054	405.5
792.235	370.68
792.416	286.72
792.597	348.15
792.778	327.67
792.958	415.74
793.139	362.49
793.32	327.67
793.5	331.77
793.681	350.2
793.862	382.97
794.042	323.58
794.223	382.97
794.404	350.2
794.584	315.39
794.765	331.77
794.945	339.96
795.126	389.11
795.306	354.3
795.487	296.96
795.667	323.58
795.848	299
796.028	292.86
796.209	294.91
796.389	333.82
796.57	329.72
796.75	313.34
796.93	303.1
797.111	217.08
797.291	260.09
797.471	368.63
797.652	305.15
797.832	329.72
798.012	247.8
798.192	278.52
798.373	282.62
798.553	313.34
798.733	249.85
798.913	323.58
799.093	348.15
799.274	245.76
799.454	315.39
799.634	364.54
799.814	321.53
799.994	321.53
800.174	256
800.354	274.43
800.534	313.34
800.714	256
800.894	276.48
801.074	237.56
801.254	253.95
801.434	303.1
801.614	264.19
801.794	260.09
801.974	610.29
802.154	282.62
802.334	305.15
802.514	274.43
802.693	249.85
802.873	233.47
803.053	256
803.233	167.93
803.413	272.38
803.592	200.7
803.772	208.89
803.952	194.56
804.131	196.61
804.311	301.05
804.491	278.52
804.67	151.55
804.85	260.09
805.03	241.66
805.209	233.47
805.389	215.04
805.568	153.6
805.748	247.8
805.928	239.61
806.107	225.28
806.287	251.9
806.466	178.17
806.646	337.91
806.825	169.98
807.004	241.66
807.184	188.41
807.363	239.61
807.543	174.08
807.722	98.3
807.901	235.52
808.081	135.17
808.26	174.08
808.439	159.74
808.619	217.08
808.798	219.13
808.977	153.6
809.156	301.05
809.336	245.76
809.515	212.99
809.694	251.9
809.873	225.28
810.052	200.7
810.231	233.47
810.411	149.5
810.59	223.23
810.769	212.99
810.948	176.13
811.127	133.12
811.306	215.04
811.485	165.89
811.664	192.51
811.843	212.99
812.022	163.84
812.201	200.7
812.38	260.09
812.559	88.06
812.737	215.04
812.916	157.69
813.095	155.65
813.274	163.84
813.453	169.98
813.632	149.5
813.811	141.31
813.989	161.79
814.168	233.47
814.347	194.56
814.526	133.12
814.704	243.71
814.883	172.03
815.062	172.03
815.24	151.55
815.419	137.21
815.598	159.74
815.776	112.64
815.955	139.26
816.133	124.93
816.312	151.55
816.49	192.51
816.669	196.61
816.847	137.21
817.026	210.94
817.204	118.78
817.383	145.41
817.561	149.5
817.74	163.84
817.918	133.12
818.097	182.27
818.275	143.36
818.453	167.93
818.632	182.27
818.81	147.45
818.988	124.93
819.167	59.39
819.345	92.16
819.523	174.08
819.701	143.36
819.879	102.4
820.058	114.69
820.236	167.93
820.414	137.21
820.592	151.55
820.77	217.08
820.948	163.84
821.127	135.17
821.305	114.69
821.483	145.41
821.661	169.98
821.839	145.41
822.017	161.79
822.195	116.73
822.373	112.64
822.551	120.83
822.729	102.4
822.907	71.68
823.085	161.79
823.262	114.69
823.44	167.93
823.618	227.32
823.796	153.6
823.974	114.69
824.152	90.11
824.329	129.02
824.507	124.93
824.685	112.64
824.863	151.55
825.04	161.79
825.218	129.02
825.396	55.3
825.574	155.65
825.751	104.45
825.929	141.31
826.107	77.82
826.284	129.02
826.462	206.84
826.639	79.87
826.817	106.49
826.994	219.13
827.172	73.73
827.349	114.69
827.527	51.2
827.704	139.26
827.882	126.97
828.059	159.74
828.237	61.44
828.414	114.69
828.591	63.49
828.769	122.88
828.946	71.68
829.124	108.54
829.301	159.74
829.478	112.64
829.655	159.74
829.833	137.21
830.01	104.45
830.187	176.13
830.364	106.49
830.542	178.17
830.719	122.88
830.896	126.97
831.073	73.73
831.25	96.25
831.427	114.69
831.604	88.06
831.782	116.73
831.959	147.45
832.136	163.84
832.313	88.06
832.49	83.97
832.667	-6.14
832.844	47.1
833.021	81.92
833.198	112.64
833.374	124.93
833.551	120.83
833.728	102.4
833.905	96.25
834.082	40.96
834.259	40.96
834.436	126.97
834.612	59.39
834.789	83.97
834.966	55.3
835.143	57.34
835.319	22.53
835.496	63.49
835.673	20.48
835.85	98.3
836.026	116.73
836.203	157.69
836.38	139.26
836.556	122.88
836.733	22.53
836.909	182.27
837.086	86.01
837.262	81.92
837.439	-30.72
837.616	59.39
837.792	55.3
837.968	122.88
838.145	94.21
838.321	10.24
838.498	112.64
838.674	28.67
838.851	114.69
839.027	43.01
839.203	94.21
839.38	116.73
839.556	75.77
839.732	63.49
839.909	81.92
840.085	133.12
840.261	59.39
840.437	51.2
840.614	34.82
840.79	71.68
840.966	174.08
841.142	47.1
841.318	26.62
841.494	49.15
841.671	75.77
841.847	139.26
842.023	51.2
842.199	63.49
842.375	77.82
842.551	100.35
842.727	38.91
842.903	118.78
843.079	77.82
843.255	135.17
843.431	-16.38
843.607	86.01
843.783	30.72
843.959	30.72
844.134	83.97
844.31	88.06
844.486	2.05
844.662	36.86
844.838	59.39
845.013	155.65
845.189	18.43
845.365	20.48
845.541	43.01
845.716	47.1
845.892	55.3
846.068	22.53
846.244	104.45
846.419	28.67
846.595	24.58
846.77	10.24
846.946	47.1
847.122	77.82
847.297	55.3
847.473	22.53
847.648	22.53
847.824	57.34
847.999	59.39
848.175	43.01
848.35	73.73
848.526	73.73
848.701	24.58
848.876	57.34
849.052	47.1
849.227	102.4
849.403	83.97
849.578	67.58
849.753	16.38
849.929	40.96
850.104	59.39
850.279	45.06
850.454	6.14
850.63	71.68
850.805	38.91
850.98	88.06
851.155	110.59
851.33	86.01
851.505	20.48
851.681	94.21
851.856	18.43
852.031	32.77
852.206	63.49
852.381	69.63
852.556	53.25
852.731	-2.05
852.906	126.97
853.081	47.1
853.256	86.01
853.431	81.92
853.606	18.43
853.781	0
853.956	98.3
854.131	51.2
854.305	63.49
854.48	96.25
854.655	32.77
854.83	8.19
855.005	8.19
855.18	90.11
855.354	40.96
855.529	40.96
855.704	30.72
855.879	86.01
856.053	2.05
856.228	106.49
856.403	0
856.577	53.25
856.752	73.73
856.926	79.87
857.101	-26.62
857.276	6.14
857.45	20.48
857.625	49.15
857.799	71.68
857.974	61.44
858.148	43.01
858.323	32.77
858.497	129.02
858.672	40.96
858.846	47.1
859.02	75.77
859.195	47.1
859.369	-26.62
859.543	65.54
859.718	59.39
859.892	92.16
860.066	53.25
860.241	40.96
860.415	26.62
860.589	94.21
860.763	24.58
860.938	36.86
861.112	16.38
861.286	-8.19
861.46	8.19
861.634	38.91
861.808	88.06
861.982	-24.58
862.157	67.58
862.331	-28.67
862.505	24.58
862.679	57.34
862.853	77.82
863.027	65.54
863.201	38.91
863.375	57.34
863.549	8.19
863.722	55.3
863.896	75.77
864.07	-20.48
864.244	26.62
864.418	57.34
864.592	12.29
864.766	63.49
864.939	73.73
865.113	26.62
865.287	88.06
865.461	-30.72
865.634	-22.53
865.808	57.34
865.982	4.1
866.156	-16.38
866.329	96.25
866.503	-4.1
866.676	57.34
866.85	6.14
867.024	32.77
867.197	24.58
867.371	24.58
867.544	38.91
867.718	-4.1
867.891	38.91
868.065	-6.14
868.238	28.67
868.412	96.25
868.585	32.77
868.759	-28.67
868.932	0
869.105	16.38
869.279	122.88
869.452	59.39
869.625	28.67
869.799	38.91
869.972	-6.14
870.145	12.29
870.319	36.86
870.492	-40.96
870.665	55.3
870.838	38.91
871.011	-2.05
871.185	36.86
871.358	75.77
871.531	63.49
871.704	24.58
871.877	22.53
872.05	61.44
872.223	28.67
872.396	28.67
872.569	12.29
872.742	-43.01
872.915	81.92
873.088	-6.14
873.261	28.67
873.434	8.19
873.607	51.2
873.78	88.06
873.953	-100.35
874.126	61.44
874.299	6.14
874.471	49.15
874.644	2.05
874.817	36.86
874.99	65.54
875.163	65.54
875.335	32.77
875.508	79.87
875.681	77.82
875.853	-40.96
876.026	4.1
876.199	26.62
876.371	-49.15
876.544	36.86
876.717	49.15
876.889	-8.19
877.062	51.2
877.234	-55.3
877.407	-24.58
877.579	10.24
877.752	16.38
877.924	-18.43
878.097	40.96
878.269	-16.38
878.442	-32.77
878.614	45.06
878.786	-26.62
878.959	51.2
879.131	-6.14
879.303	-6.14
879.476	20.48
879.648	36.86
879.82	26.62
879.993	-12.29
880.165	-59.39
880.337	22.53
880.509	-18.43
880.681	-57.34
880.854	-18.43
881.026	26.62
881.198	126.97
881.37	67.58
881.542	4.1
881.714	-57.34
881.886	79.87
882.058	2.05
882.23	45.06
882.402	137.21
882.574	49.15
882.746	26.62
882.918	40.96
883.09	49.15
883.262	28.67
883.434	65.54
883.606	28.67
883.778	-18.43
883.95	81.92
884.122	10.24
884.293	0
884.465	6.14
884.637	49.15
884.809	45.06
884.98	51.2
885.152	51.2
885.324	-34.82
885.496	-69.63
885.667	-22.53
885.839	-22.53
886.011	81.92
886.182	59.39
886.354	20.48
886.525	10.24
886.697	20.48
886.869	59.39
887.04	69.63
887.212	75.77
887.383	-20.48
887.555	40.96
887.726	28.67
887.897	-47.1
888.069	40.96
888.24	6.14
888.412	0
888.583	-34.82
888.754	61.44
888.926	-32.77
889.097	-32.77
889.268	4.1
889.44	94.21
889.611	-26.62
889.782	26.62
889.953	-12.29
890.125	104.45
890.296	-10.24
890.467	-53.25
890.638	-2.05
890.809	32.77
890.98	59.39
891.151	43.01
891.323	43.01
891.494	20.48
891.665	96.25
891.836	49.15
892.007	-4.1
892.178	90.11
892.349	12.29
892.52	-26.62
892.691	-49.15
892.862	32.77
893.032	65.54
893.203	24.58
893.374	2.05
893.545	49.15
893.716	0
893.887	96.25
894.057	24.58
894.228	38.91
894.399	-6.14
894.57	45.06
894.74	-38.91
894.911	16.38
895.082	30.72
895.253	-90.11
895.423	28.67
895.594	32.77
895.764	55.3
895.935	57.34
896.106	8.19
896.276	4.1
896.447	30.72
896.617	-47.1
896.788	16.38
896.958	38.91
897.129	-6.14
897.299	-6.14
897.47	49.15
897.64	-8.19
897.81	-34.82
897.981	-6.14
898.151	14.34
898.322	14.34
898.492	45.06
898.662	67.58
898.832	-2.05
899.003	-14.34
899.173	4.1
899.343	-10.24
899.513	-4.1
