Data from USB4F104151__33__12-00-42-461.txt Node

Date: Fri Mar 14 12:00:42 EDT 2025
User: louis
Spectrometer: USB4F10415
Trigger mode: 4
Integration Time (sec): 2.000000E-2
Scans to average: 1
Electric dark correction enabled: true
Nonlinearity correction enabled: false
Boxcar width: 0
XAxis mode: Wavelengths
Number of Pixels in Spectrum: 3648
>>>>>Begin Spectral Data<<<<<
178.204	-106.84
178.424	-106.84
178.644	-106.84
178.864	-80.21
179.084	-20.82
179.304	-47.44
179.524	-76.12
179.744	54.95
179.964	30.38
180.184	13.99
180.404	13.99
180.624	-41.3
180.844	-14.68
181.064	-63.83
181.283	69.29
181.503	20.14
181.723	40.62
181.943	-26.96
182.163	63.15
182.383	44.71
182.602	44.71
182.822	3.75
183.042	7.85
183.262	-4.44
183.482	71.34
183.701	3.75
183.921	24.23
184.141	-18.77
184.361	153.26
184.58	61.1
184.8	102.06
185.02	50.86
185.239	7.85
185.459	1.71
185.679	22.19
185.898	81.58
186.118	-2.39
186.338	73.39
186.557	18.09
186.777	44.71
186.997	104.11
187.216	46.76
187.436	87.72
187.655	24.23
187.875	28.33
188.095	-14.68
188.314	3.75
188.534	112.3
188.753	91.82
188.973	40.62
189.192	97.96
189.412	-6.49
189.631	13.99
189.851	26.28
190.07	85.67
190.29	32.43
190.509	5.8
190.729	52.91
190.948	71.34
191.168	128.68
191.387	20.14
191.607	-22.87
191.826	93.87
192.045	-14.68
192.265	22.19
192.484	40.62
192.704	22.19
192.923	13.99
193.142	108.2
193.362	136.87
193.581	40.62
193.8	30.38
194.02	1.71
194.239	36.52
194.458	20.14
194.678	-2.39
194.897	77.48
195.116	-10.58
195.335	5.8
195.555	26.28
195.774	61.1
195.993	32.43
196.212	-0.34
196.432	20.14
196.651	-61.78
196.87	59.05
197.089	61.1
197.308	95.91
197.528	30.38
197.747	-55.64
197.966	69.29
198.185	136.87
198.404	71.34
198.623	20.14
198.842	5.8
199.062	26.28
199.281	71.34
199.5	120.49
199.719	30.38
199.938	54.95
200.157	50.86
200.376	57
200.595	20.14
200.814	40.62
201.033	-0.34
201.252	13.99
201.471	54.95
201.69	63.15
201.909	59.05
202.128	26.28
202.347	59.05
202.566	-8.53
202.785	5.8
203.004	71.34
203.223	173.74
203.442	81.58
203.661	46.76
203.879	93.87
204.098	28.33
204.317	22.19
204.536	34.47
204.755	18.09
204.974	91.82
205.193	30.38
205.411	95.91
205.63	50.86
205.849	91.82
206.068	95.91
206.287	57
206.505	34.47
206.724	24.23
206.943	46.76
207.162	32.43
207.381	-18.77
207.599	5.8
207.818	138.92
208.037	22.19
208.255	61.1
208.474	79.53
208.693	-16.73
208.911	28.33
209.13	30.38
209.349	63.15
209.567	40.62
209.786	22.19
210.005	65.19
210.223	-14.68
210.442	-20.82
210.661	63.15
210.879	38.57
211.098	71.34
211.316	112.3
211.535	30.38
211.753	83.63
211.972	54.95
212.191	50.86
212.409	100.01
212.628	3.75
212.846	-39.25
213.065	42.67
213.283	52.91
213.502	95.91
213.72	-29.01
213.938	73.39
214.157	20.14
214.375	83.63
214.594	65.19
214.812	57
215.031	24.23
215.249	-8.53
215.467	1.71
215.686	-18.77
215.904	11.95
216.122	-16.73
216.341	102.06
216.559	-8.53
216.778	65.19
216.996	24.23
217.214	69.29
217.432	59.05
217.651	44.71
217.869	44.71
218.087	38.57
218.306	71.34
218.524	1.71
218.742	3.75
218.96	54.95
219.179	65.19
219.397	24.23
219.615	57
219.833	106.15
220.051	22.19
220.27	112.3
220.488	18.09
220.706	71.34
220.924	22.19
221.142	38.57
221.36	-6.49
221.578	65.19
221.796	22.19
222.015	79.53
222.233	102.06
222.451	44.71
222.669	-0.34
222.887	116.39
223.105	5.8
223.323	7.85
223.541	-14.68
223.759	30.38
223.977	63.15
224.195	5.8
224.413	50.86
224.631	116.39
224.849	40.62
225.067	30.38
225.285	93.87
225.503	-29.01
225.721	-26.96
225.939	9.9
226.157	69.29
226.375	108.2
226.592	-16.73
226.81	32.43
227.028	59.05
227.246	145.06
227.464	75.43
227.682	116.39
227.9	54.95
228.117	85.67
228.335	63.15
228.553	26.28
228.771	89.77
228.989	63.15
229.206	59.05
229.424	11.95
229.642	-49.49
229.86	61.1
230.077	-20.82
230.295	63.15
230.513	61.1
230.731	106.15
230.948	67.24
231.166	91.82
231.384	-45.4
231.601	54.95
231.819	59.05
232.037	7.85
232.254	48.81
232.472	38.57
232.689	30.38
232.907	134.82
233.125	20.14
233.342	63.15
233.56	16.04
233.777	11.95
233.995	-26.96
234.213	34.47
234.43	-0.34
234.648	57
234.865	7.85
235.083	48.81
235.3	30.38
235.518	95.91
235.735	77.48
235.953	9.9
236.17	61.1
236.388	77.48
236.605	-24.92
236.822	120.49
237.04	34.47
237.257	79.53
237.475	13.99
237.692	13.99
237.909	36.52
238.127	52.91
238.344	38.57
238.562	-12.63
238.779	-16.73
238.996	50.86
239.214	32.43
239.431	81.58
239.648	13.99
239.865	-0.34
240.083	34.47
240.3	-22.87
240.517	67.24
240.735	50.86
240.952	54.95
241.169	77.48
241.386	5.8
241.603	54.95
241.821	34.47
242.038	110.25
242.255	85.67
242.472	18.09
242.689	-6.49
242.907	-14.68
243.124	81.58
243.341	-2.39
243.558	-43.35
243.775	-22.87
243.992	-20.82
244.209	-8.53
244.426	87.72
244.643	63.15
244.86	54.95
245.078	89.77
245.295	61.1
245.512	38.57
245.729	-22.87
245.946	108.2
246.163	-24.92
246.38	91.82
246.597	34.47
246.814	57
247.031	52.91
247.248	-47.44
247.464	24.23
247.681	61.1
247.898	54.95
248.115	7.85
248.332	7.85
248.549	57
248.766	30.38
248.983	91.82
249.2	46.76
249.417	69.29
249.633	20.14
249.85	126.63
250.067	91.82
250.284	65.19
250.501	85.67
250.717	42.67
250.934	34.47
251.151	18.09
251.368	83.63
251.585	22.19
251.801	3.75
252.018	69.29
252.235	57
252.451	61.1
252.668	42.67
252.885	13.99
253.102	28.33
253.318	44.71
253.535	50.86
253.752	5.8
253.968	24.23
254.185	-53.59
254.401	38.57
254.618	87.72
254.835	20.14
255.051	22.19
255.268	9.9
255.484	69.29
255.701	36.52
255.917	122.54
256.134	48.81
256.351	79.53
256.567	18.09
256.784	87.72
257	-39.25
257.217	-6.49
257.433	71.34
257.65	34.47
257.866	110.25
258.082	134.82
258.299	26.28
258.515	95.91
258.732	61.1
258.948	-14.68
259.165	61.1
259.381	61.1
259.597	-43.35
259.814	97.96
260.03	95.91
260.246	3.75
260.463	48.81
260.679	52.91
260.895	32.43
261.112	87.72
261.328	-14.68
261.544	71.34
261.761	91.82
261.977	-2.39
262.193	54.95
262.409	77.48
262.626	11.95
262.842	18.09
263.058	69.29
263.274	61.1
263.49	-51.54
263.707	77.48
263.923	85.67
264.139	-12.63
264.355	48.81
264.571	57
264.787	-22.87
265.004	114.34
265.22	83.63
265.436	34.47
265.652	40.62
265.868	32.43
266.084	54.95
266.3	114.34
266.516	97.96
266.732	79.53
266.948	46.76
267.164	46.76
267.38	36.52
267.596	36.52
267.812	52.91
268.028	20.14
268.244	11.95
268.46	126.63
268.676	-2.39
268.892	124.58
269.108	7.85
269.324	50.86
269.54	28.33
269.756	83.63
269.972	69.29
270.188	46.76
270.403	18.09
270.619	40.62
270.835	81.58
271.051	3.75
271.267	59.05
271.483	46.76
271.698	32.43
271.914	97.96
272.13	7.85
272.346	63.15
272.562	44.71
272.777	93.87
272.993	-29.01
273.209	61.1
273.425	7.85
273.64	42.67
273.856	40.62
274.072	67.24
274.287	-12.63
274.503	30.38
274.719	-2.39
274.934	69.29
275.15	40.62
275.366	-6.49
275.581	50.86
275.797	67.24
276.012	16.04
276.228	95.91
276.444	-6.49
276.659	59.05
276.875	5.8
277.09	91.82
277.306	-24.92
277.521	-51.54
277.737	63.15
277.952	81.58
278.168	-6.49
278.383	114.34
278.599	-26.96
278.814	30.38
279.03	32.43
279.245	57
279.461	87.72
279.676	61.1
279.892	22.19
280.107	7.85
280.322	42.67
280.538	69.29
280.753	11.95
280.969	71.34
281.184	-4.44
281.399	59.05
281.615	73.39
281.83	112.3
282.045	1.71
282.26	26.28
282.476	44.71
282.691	71.34
282.906	77.48
283.122	54.95
283.337	87.72
283.552	50.86
283.767	85.67
283.983	79.53
284.198	69.29
284.413	11.95
284.628	34.47
284.843	22.19
285.058	59.05
285.274	44.71
285.489	36.52
285.704	73.39
285.919	54.95
286.134	44.71
286.349	20.14
286.564	67.24
286.779	85.67
286.995	13.99
287.21	-37.2
287.425	83.63
287.64	9.9
287.855	13.99
288.07	-2.39
288.285	11.95
288.5	26.28
288.715	46.76
288.93	24.23
289.145	28.33
289.36	-45.4
289.575	44.71
289.79	61.1
290.004	61.1
290.219	7.85
290.434	30.38
290.649	46.76
290.864	108.2
291.079	30.38
291.294	42.67
291.509	38.57
291.724	95.91
291.938	-8.53
292.153	95.91
292.368	-6.49
292.583	65.19
292.798	32.43
293.012	108.2
293.227	28.33
293.442	73.39
293.657	83.63
293.871	91.82
294.086	54.95
294.301	93.87
294.516	7.85
294.73	28.33
294.945	-8.53
295.16	71.34
295.374	87.72
295.589	93.87
295.804	36.52
296.018	108.2
296.233	61.1
296.447	132.78
296.662	71.34
296.877	32.43
297.091	83.63
297.306	36.52
297.52	59.05
297.735	79.53
297.949	83.63
298.164	63.15
298.378	7.85
298.593	91.82
298.807	38.57
299.022	136.87
299.236	46.76
299.451	75.43
299.665	44.71
299.88	26.28
300.094	44.71
300.309	50.86
300.523	7.85
300.737	46.76
300.952	89.77
301.166	46.76
301.381	-14.68
301.595	-35.16
301.809	100.01
302.024	102.06
302.238	61.1
302.452	24.23
302.667	32.43
302.881	50.86
303.095	87.72
303.309	44.71
303.524	95.91
303.738	75.43
303.952	61.1
304.166	36.52
304.381	38.57
304.595	93.87
304.809	28.33
305.023	1.71
305.237	75.43
305.452	-12.63
305.666	114.34
305.88	46.76
306.094	136.87
306.308	52.91
306.522	52.91
306.736	-10.58
306.95	1.71
307.164	61.1
307.379	26.28
307.593	95.91
307.807	87.72
308.021	130.73
308.235	79.53
308.449	18.09
308.663	3.75
308.877	38.57
309.091	67.24
309.305	30.38
309.519	18.09
309.733	91.82
309.947	75.43
310.161	59.05
310.374	57
310.588	126.63
310.802	63.15
311.016	54.95
311.23	42.67
311.444	-45.4
311.658	57
311.872	52.91
312.085	106.15
312.299	89.77
312.513	32.43
312.727	52.91
312.941	52.91
313.154	85.67
313.368	108.2
313.582	36.52
313.796	59.05
314.009	48.81
314.223	69.29
314.437	79.53
314.651	-26.96
314.864	116.39
315.078	26.28
315.292	26.28
315.505	-4.44
315.719	34.47
315.933	16.04
316.146	91.82
316.36	42.67
316.573	-8.53
316.787	1.71
317.001	89.77
317.214	1.71
317.428	75.43
317.641	1.71
317.855	100.01
318.068	75.43
318.282	79.53
318.495	61.1
318.709	77.48
318.922	163.5
319.136	57
319.349	18.09
319.563	52.91
319.776	52.91
319.99	63.15
320.203	97.96
320.417	118.44
320.63	1.71
320.843	36.52
321.057	32.43
321.27	50.86
321.483	67.24
321.697	116.39
321.91	73.39
322.124	61.1
322.337	42.67
322.55	95.91
322.763	32.43
322.977	36.52
323.19	61.1
323.403	57
323.617	42.67
323.83	48.81
324.043	9.9
324.256	54.95
324.469	52.91
324.683	52.91
324.896	69.29
325.109	36.52
325.322	5.8
325.535	79.53
325.748	40.62
325.962	57
326.175	69.29
326.388	40.62
326.601	48.81
326.814	-4.44
327.027	69.29
327.24	104.11
327.453	26.28
327.666	102.06
327.879	126.63
328.092	-24.92
328.305	59.05
328.518	97.96
328.731	65.19
328.944	36.52
329.157	24.23
329.37	65.19
329.583	155.3
329.796	26.28
330.009	57
330.222	28.33
330.435	126.63
330.648	22.19
330.861	20.14
331.073	52.91
331.286	147.11
331.499	36.52
331.712	28.33
331.925	22.19
332.138	108.2
332.35	95.91
332.563	89.77
332.776	132.78
332.989	38.57
333.202	54.95
333.414	-26.96
333.627	38.57
333.84	13.99
334.053	73.39
334.265	30.38
334.478	40.62
334.691	52.91
334.903	93.87
335.116	28.33
335.329	48.81
335.541	85.67
335.754	81.58
335.966	77.48
336.179	36.52
336.392	57
336.604	40.62
336.817	93.87
337.029	50.86
337.242	-4.44
337.454	57
337.667	91.82
337.88	87.72
338.092	69.29
338.305	40.62
338.517	71.34
338.729	85.67
338.942	89.77
339.154	134.82
339.367	24.23
339.579	126.63
339.792	24.23
340.004	130.73
340.217	77.48
340.429	28.33
340.641	34.47
340.854	48.81
341.066	106.15
341.278	93.87
341.491	171.69
341.703	81.58
341.915	32.43
342.128	24.23
342.34	42.67
342.552	128.68
342.764	16.04
342.977	42.67
343.189	-61.78
343.401	91.82
343.613	11.95
343.826	46.76
344.038	26.28
344.25	73.39
344.462	75.43
344.674	24.23
344.886	26.28
345.099	-2.39
345.311	97.96
345.523	130.73
345.735	28.33
345.947	65.19
346.159	36.52
346.371	38.57
346.583	81.58
346.795	163.5
347.007	69.29
347.219	65.19
347.431	22.19
347.643	102.06
347.855	104.11
348.067	100.01
348.279	59.05
348.491	77.48
348.703	50.86
348.915	46.76
349.127	40.62
349.339	83.63
349.551	110.25
349.763	52.91
349.975	83.63
350.187	79.53
350.399	89.77
350.61	93.87
350.822	50.86
351.034	71.34
351.246	69.29
351.458	143.02
351.669	67.24
351.881	28.33
352.093	42.67
352.305	83.63
352.517	13.99
352.728	126.63
352.94	83.63
353.152	75.43
353.363	-20.82
353.575	52.91
353.787	50.86
353.999	102.06
354.21	48.81
354.422	69.29
354.633	65.19
354.845	-12.63
355.057	38.57
355.268	102.06
355.48	13.99
355.692	11.95
355.903	69.29
356.115	97.96
356.326	-43.35
356.538	97.96
356.749	128.68
356.961	-8.53
357.172	11.95
357.384	73.39
357.595	61.1
357.807	9.9
358.018	9.9
358.23	79.53
358.441	165.54
358.653	63.15
358.864	155.3
359.075	73.39
359.287	159.4
359.498	95.91
359.709	87.72
359.921	48.81
360.132	93.87
360.344	50.86
360.555	85.67
360.766	38.57
360.977	9.9
361.189	30.38
361.4	89.77
361.611	143.02
361.823	42.67
362.034	110.25
362.245	73.39
362.456	28.33
362.667	34.47
362.879	136.87
363.09	3.75
363.301	81.58
363.512	20.14
363.723	87.72
363.935	73.39
364.146	138.92
364.357	13.99
364.568	44.71
364.779	42.67
364.99	120.49
365.201	-8.53
365.412	106.15
365.623	-8.53
365.834	95.91
366.045	104.11
366.256	122.54
366.467	16.04
366.678	57
366.889	40.62
367.1	95.91
367.311	30.38
367.522	57
367.733	136.87
367.944	149.16
368.155	85.67
368.366	44.71
368.577	161.45
368.788	83.63
368.999	130.73
369.209	54.95
369.42	67.24
369.631	167.59
369.842	38.57
370.053	52.91
370.264	93.87
370.474	71.34
370.685	134.82
370.896	89.77
371.107	75.43
371.317	57
371.528	102.06
371.739	18.09
371.95	30.38
372.16	112.3
372.371	63.15
372.582	38.57
372.792	67.24
373.003	93.87
373.214	114.34
373.424	73.39
373.635	30.38
373.846	65.19
374.056	120.49
374.267	104.11
374.477	93.87
374.688	5.8
374.898	77.48
375.109	87.72
375.319	-6.49
375.53	114.34
375.74	34.47
375.951	16.04
376.161	59.05
376.372	122.54
376.582	104.11
376.793	42.67
377.003	30.38
377.214	44.71
377.424	132.78
377.635	48.81
377.845	126.63
378.055	50.86
378.266	79.53
378.476	57
378.686	54.95
378.897	1.71
379.107	59.05
379.317	77.48
379.528	75.43
379.738	75.43
379.948	67.24
380.158	32.43
380.369	26.28
380.579	79.53
380.789	46.76
380.999	77.48
381.21	100.01
381.42	143.02
381.63	114.34
381.84	63.15
382.05	112.3
382.261	77.48
382.471	169.64
382.681	44.71
382.891	112.3
383.101	93.87
383.311	73.39
383.521	85.67
383.731	67.24
383.941	116.39
384.151	79.53
384.361	20.14
384.571	93.87
384.781	97.96
384.991	83.63
385.201	163.5
385.411	104.11
385.621	52.91
385.831	52.91
386.041	93.87
386.251	75.43
386.461	120.49
386.671	48.81
386.881	102.06
387.091	120.49
387.301	73.39
387.511	48.81
387.72	67.24
387.93	13.99
388.14	93.87
388.35	73.39
388.56	36.52
388.769	110.25
388.979	65.19
389.189	136.87
389.399	50.86
389.609	112.3
389.818	63.15
390.028	57
390.238	122.54
390.447	79.53
390.657	81.58
390.867	91.82
391.076	48.81
391.286	91.82
391.496	147.11
391.705	79.53
391.915	100.01
392.125	63.15
392.334	104.11
392.544	85.67
392.753	93.87
392.963	-8.53
393.172	108.2
393.382	83.63
393.591	179.88
393.801	73.39
394.01	220.84
394.22	71.34
394.429	95.91
394.639	93.87
394.848	81.58
395.058	100.01
395.267	134.82
395.477	161.45
395.686	124.58
395.895	149.16
396.105	149.16
396.314	110.25
396.524	120.49
396.733	120.49
396.942	52.91
397.152	155.3
397.361	151.21
397.57	114.34
397.78	149.16
397.989	143.02
398.198	104.11
398.407	67.24
398.617	69.29
398.826	104.11
399.035	196.26
399.244	194.22
399.453	153.26
399.663	122.54
399.872	143.02
400.081	192.17
400.29	153.26
400.499	147.11
400.708	212.65
400.917	89.77
401.127	9.9
401.336	95.91
401.545	132.78
401.754	173.74
401.963	147.11
402.172	106.15
402.381	173.74
402.59	212.65
402.799	186.02
403.008	128.68
403.217	173.74
403.426	163.5
403.635	136.87
403.844	138.92
404.053	188.07
404.262	175.78
404.471	210.6
404.68	157.35
404.888	196.26
405.097	190.12
405.306	222.89
405.515	206.5
405.724	229.03
405.933	198.31
406.142	274.09
406.35	261.8
406.559	249.51
406.768	249.51
406.977	239.27
407.185	257.7
407.394	339.62
407.603	243.37
407.812	267.94
408.02	337.57
408.229	351.91
408.438	294.57
408.646	315.05
408.855	378.53
409.064	353.96
409.272	317.09
409.481	380.58
409.69	368.29
409.898	333.48
410.107	380.58
410.315	384.68
410.524	401.06
410.733	511.65
410.941	444.07
411.15	409.25
411.358	470.69
411.567	495.27
411.775	448.16
411.984	593.57
412.192	581.28
412.401	589.47
412.609	620.19
412.818	673.44
413.026	745.12
413.234	743.07
413.443	700.06
413.651	751.26
413.86	702.11
414.068	837.28
414.276	841.37
414.485	820.89
414.693	847.52
414.901	947.87
415.11	927.39
415.318	960.16
415.526	970.4
415.734	1035.93
415.943	999.07
416.151	1099.42
416.359	1107.61
416.567	1136.28
416.776	1140.38
416.984	1287.83
417.192	1443.48
417.4	1236.63
417.608	1253.02
417.817	1386.13
418.025	1453.72
418.233	1537.68
418.441	1451.67
418.649	1615.51
418.857	1615.51
419.065	1744.53
419.273	1664.66
419.481	1771.15
419.689	1922.7
419.897	1947.28
420.105	2023.05
420.313	2113.16
420.521	2279.05
420.729	2143.88
420.937	2147.98
421.145	2473.6
421.353	2365.06
421.561	2680.45
421.769	2686.59
421.977	2711.17
422.185	2784.9
422.393	2928.25
422.601	3128.95
422.809	3065.47
423.017	3030.65
423.224	3257.98
423.432	3264.12
423.64	3460.73
423.848	3589.75
424.056	3749.49
424.263	3827.31
424.471	3874.42
424.679	3974.77
424.887	4109.93
425.094	4392.55
425.302	4204.14
425.51	4476.52
425.718	4626.02
425.925	4664.93
426.133	4816.48
426.341	5277.27
426.548	5426.78
426.756	5289.56
426.964	5420.63
427.171	5623.38
427.379	5961.3
427.586	6071.89
427.794	6266.44
428.001	6426.18
428.209	6858.31
428.417	6637.13
428.624	6997.57
428.832	7011.9
429.039	7052.86
429.247	7122.49
429.454	7759.41
429.662	8146.48
429.869	7851.57
430.076	8304.17
430.284	7984.69
430.491	8238.64
430.699	8883.75
430.906	8812.07
431.114	8926.75
431.321	9401.88
431.528	9448.99
431.736	10057.23
431.943	10501.64
432.15	10302.99
432.358	10663.43
432.565	10913.28
432.772	11175.42
432.979	11392.51
433.187	11824.63
433.394	11910.64
433.601	12545.52
433.808	12639.72
434.016	12621.29
434.223	13237.73
434.43	13700.57
434.637	13635.03
434.844	14454.22
435.052	14671.31
435.259	14616.01
435.466	14964.17
435.673	14618.06
435.88	15431.1
436.087	16311.73
436.294	16383.41
436.501	16061.88
436.708	16520.62
436.915	17038.76
437.122	17554.85
437.329	17882.52
437.537	18120.09
437.743	18709.9
437.95	18216.34
438.157	19342.72
438.364	20213.11
438.571	19643.77
438.778	20186.49
438.985	21765.47
439.192	20938.09
439.399	21968.22
439.606	21316.97
439.813	22453.59
440.02	23971.13
440.227	23342.41
440.433	23276.87
440.64	23801.15
440.847	23881.02
441.054	24532.28
441.261	25953.57
441.467	25961.76
441.674	26207.51
441.881	27063.57
442.088	27077.9
442.294	26856.72
442.501	27272.46
442.708	28271.87
442.914	29150.45
443.121	30514.39
443.328	29834.47
443.534	31775.94
443.741	30864.6
443.948	30170.33
444.154	32724.15
444.361	32478.4
444.568	32580.79
444.774	32994.48
444.981	33285.29
445.187	34088.1
445.394	35474.57
445.6	34583.71
445.807	38495.33
446.013	36523.13
446.22	37039.22
446.426	39150.68
446.633	39205.97
446.839	40414.27
447.046	38392.93
447.252	40975.42
447.459	41104.44
447.665	40760.38
447.871	42253.35
448.078	44000.27
448.284	42433.57
448.491	43428.88
448.697	44899.33
448.903	45970.41
449.11	45765.62
449.316	45364.21
449.522	45849.58
449.728	47041.5
449.935	47729.62
450.141	47184.86
450.347	48067.53
450.553	47010.78
450.76	47588.31
450.966	49112
451.172	48128.97
451.378	49529.78
451.584	48698.31
451.791	49882.03
451.997	49118.14
452.203	50613.16
452.409	50213.8
452.615	49656.76
452.821	48237.51
453.027	47627.22
453.233	49886.13
453.44	48194.51
453.646	48989.12
453.852	48425.93
454.058	49591.22
454.264	47504.34
454.47	48894.91
454.676	47518.68
454.882	49370.04
455.088	45091.83
455.294	45911.02
455.5	46693.35
455.705	46531.56
455.911	44479.49
456.117	43584.53
456.323	43322.39
456.529	41202.74
456.735	42839.07
456.941	41790.51
457.147	41364.53
457.352	39666.77
457.558	39558.22
457.764	39408.72
457.97	38462.56
458.176	37692.52
458.381	37637.23
458.587	35886.22
458.793	35867.78
458.999	34065.57
459.204	36455.55
459.41	35372.17
459.616	32887.99
459.821	33285.29
460.027	32965.81
460.233	32150.72
460.438	30856.4
460.644	31102.16
460.85	29732.07
461.055	28935.41
461.261	29080.81
461.466	27213.07
461.672	26154.27
461.878	27827.46
462.083	26436.89
462.289	25546.02
462.494	25081.13
462.7	24200.51
462.905	23358.79
463.111	24372.53
463.316	24255.8
463.522	23852.35
463.727	23991.61
463.932	24071.48
464.138	23790.91
464.343	23866.69
464.549	22898
464.754	23795.01
464.959	23541.06
465.165	23674.18
465.37	22322.52
465.575	21726.56
465.781	22639.95
465.986	22990.16
466.191	22304.09
466.397	21601.63
466.602	20911.47
466.807	21577.06
467.012	21319.01
467.218	21040.49
467.423	20845.93
467.628	21343.59
467.833	22181.21
468.038	21235.05
468.244	20598.13
468.449	21550.43
468.654	20790.64
468.859	20503.92
469.064	20280.69
469.269	19692.93
469.474	20008.31
469.679	20182.39
469.885	19836.28
470.09	19836.28
470.295	19608.96
470.5	19484.03
470.705	19246.47
470.91	18908.55
471.115	18707.85
471.32	18924.94
471.525	18781.58
471.73	18447.76
471.935	18417.04
472.139	17823.13
472.344	17796.51
472.549	17876.38
472.754	17575.33
472.959	17507.74
473.164	17085.86
473.369	16629.16
473.574	17317.28
473.778	16883.11
473.983	16897.45
474.188	16848.3
474.393	16068.02
474.598	15963.58
474.802	15920.57
475.007	15769.02
475.212	15922.62
475.417	15140.29
475.621	15263.17
475.826	15502.78
476.031	14980.55
476.235	14802.38
476.44	15025.61
476.645	14577.1
476.849	14763.47
477.054	14398.93
477.259	14407.12
477.463	14357.97
477.668	13888.98
477.872	14138.83
478.077	14022.1
478.282	13489.63
478.486	13483.48
478.691	13411.81
478.895	13262.3
479.1	13131.23
479.304	13348.32
479.509	12897.77
479.713	13215.2
479.918	12977.64
480.122	12617.19
480.326	13010.4
480.531	12967.4
480.735	12551.66
480.94	12549.61
481.144	12867.05
481.348	12565.99
481.553	12606.95
481.757	12312.05
481.961	12373.49
482.166	12746.22
482.37	12320.24
482.574	12264.94
482.778	12066.29
482.983	12453.36
483.187	12258.8
483.391	12570.09
483.595	12221.94
483.8	12146.16
484.004	12422.64
484.208	12400.11
484.412	12359.15
484.616	12322.29
484.821	12426.73
485.025	12082.67
485.229	12428.78
485.433	12084.72
485.637	12121.59
485.841	12162.55
486.045	12148.21
486.249	12209.65
486.453	12213.74
486.657	12416.49
486.861	12287.47
487.065	11922.93
487.269	12371.44
487.473	12146.16
487.677	12203.5
487.881	12387.82
488.085	12166.64
488.289	12174.83
488.493	12332.53
488.697	12334.57
488.901	12146.16
489.105	12604.91
489.309	12357.1
489.512	12232.18
489.716	12383.73
489.92	12340.72
490.124	12316.14
490.328	12494.32
490.531	12451.31
490.735	12731.88
490.939	12525.04
491.143	12594.67
491.346	12592.62
491.55	12844.52
491.754	12721.64
491.958	12813.8
492.161	12727.78
492.365	12811.75
492.569	12758.5
492.772	12973.54
492.976	12889.57
493.18	13061.6
493.383	13434.33
493.587	13323.74
493.79	13327.84
493.994	13178.34
494.197	13475.29
494.401	13495.77
494.605	13512.16
494.808	13862.36
495.012	13614.55
495.215	13624.79
495.419	14079.44
495.622	13819.35
495.825	14171.6
496.029	14065.11
496.232	14661.07
496.436	14357.97
496.639	14974.41
496.843	14458.32
497.046	14982.6
497.249	15125.96
497.453	15203.78
497.656	15060.42
497.859	15300.03
498.063	15533.5
498.266	15906.23
498.469	15707.58
498.673	15953.34
498.876	16131.51
499.079	16367.02
499.282	16133.56
499.485	16498.09
499.689	16706.99
499.892	17028.52
500.095	17042.85
500.298	17409.44
500.501	17497.5
500.705	17763.74
500.908	18060.7
501.111	18183.57
501.314	18179.48
501.517	18245.01
501.72	18652.56
501.923	18767.24
502.126	19094.92
502.329	19580.29
502.532	19461.51
502.735	19604.86
502.938	20149.62
503.141	20067.7
503.344	20262.26
503.547	20327.8
503.75	20712.81
503.953	20983.15
504.156	21089.64
504.359	21681.5
504.562	21423.46
504.765	22011.23
504.968	22193.5
505.17	22261.08
505.373	22496.6
505.576	22828.37
505.779	22766.93
505.982	23139.66
506.185	23684.42
506.387	23743.81
506.59	24001.85
506.793	24120.63
506.996	24180.03
507.198	24995.12
507.401	24655.15
507.604	24714.55
507.807	25644.32
508.009	25333.03
508.212	25638.18
508.415	25806.11
508.617	26195.23
508.82	26471.7
509.022	26766.61
509.225	27104.53
509.428	27335.95
509.63	27397.38
509.833	27497.74
510.035	28353.79
510.238	28060.93
510.44	28351.74
510.643	28826.87
510.845	29213.93
511.048	28779.76
511.25	29605.09
511.453	29267.18
511.655	30653.65
511.858	30534.87
512.06	30852.31
512.262	30770.39
512.465	30878.93
512.667	31290.57
512.87	31440.07
513.072	31894.72
513.274	32267.45
513.477	32887.99
513.679	32851.13
513.881	33277.1
514.084	33328.3
514.286	33428.65
514.488	33623.21
514.69	34720.92
514.893	34720.92
515.095	34720.92
515.297	34997.4
515.499	35294.35
515.701	35767.43
515.904	35800.2
516.106	35910.79
516.308	36568.19
516.51	36887.67
516.712	36885.62
516.914	37411.95
517.116	37821.55
517.318	37698.67
517.52	38110.31
517.722	38308.96
517.925	38808.67
518.127	38904.92
518.329	39357.52
518.531	39089.24
518.733	40219.72
518.935	40297.54
519.136	40240.2
519.338	40698.94
519.54	41045.05
519.742	41198.65
519.944	41528.37
520.146	42093.61
520.348	42427.43
520.55	42394.66
520.752	42411.04
520.954	42857.5
521.155	42949.66
521.357	43357.21
521.559	43697.17
521.761	44266.5
521.963	44022.79
522.164	44092.43
522.366	44399.62
522.568	45210.62
522.77	45071.35
522.971	45702.13
523.173	45413.37
523.375	45579.25
523.576	45837.3
523.778	46308.33
523.98	46730.21
524.181	47127.52
524.383	46773.22
524.584	47459.29
524.786	47420.38
524.988	47223.77
525.189	47614.93
525.391	47915.98
525.592	48339.91
525.794	48366.54
525.995	48442.31
526.197	48356.3
526.398	48434.12
526.6	49003.45
526.801	48942.02
527.003	49210.3
527.204	49167.29
527.406	49720.24
527.607	49603.51
527.808	49830.83
528.01	49537.97
528.211	49488.82
528.412	50654.12
528.614	50424.75
528.815	50080.69
529.016	51004.32
529.218	50342.83
529.419	50658.21
529.62	50482.09
529.822	50623.4
530.023	50510.76
530.224	51178.4
530.425	50664.36
530.626	50768.8
530.828	50410.41
531.029	51407.77
531.23	50742.18
531.431	50641.83
531.632	51155.87
531.833	51123.1
532.035	51217.31
532.236	51485.59
532.437	51559.32
532.638	51155.87
532.839	51540.89
533.04	51719.06
533.241	50946.98
533.442	51809.17
533.643	51256.22
533.844	51698.58
534.045	51798.93
534.246	51084.19
534.447	51456.92
534.648	51342.24
534.849	51350.43
535.05	51295.13
535.251	52315.02
535.451	51180.45
535.652	51719.06
535.853	51207.07
536.054	51598.23
536.255	51878.8
536.456	51321.76
536.657	51850.13
536.857	51381.15
537.058	51319.71
537.259	51604.38
537.46	51807.12
537.66	50977.7
537.861	51215.26
538.062	51291.04
538.263	51516.31
538.463	51215.26
538.664	51348.38
538.865	51620.76
539.065	51891.09
539.266	50871.2
539.466	51532.7
539.667	50607.01
539.868	51614.62
540.068	50752.42
540.269	51004.32
540.469	50971.55
540.67	51168.16
540.87	50996.13
541.071	51186.59
541.271	51405.72
541.472	50736.04
541.672	50936.74
541.873	50783.14
542.073	50658.21
542.274	51477.4
542.474	50650.02
542.675	50803.62
542.875	51258.27
543.075	50895.78
543.276	50463.66
543.476	51166.11
543.676	50705.32
543.877	50817.96
544.077	50670.5
544.277	50738.08
544.478	50494.38
544.678	50447.27
544.878	50736.04
545.078	50787.24
545.279	50611.11
545.479	50523.05
545.679	50625.45
545.879	50654.12
546.079	50932.64
546.28	50400.17
546.48	50181.04
546.68	50262.96
546.88	50523.05
547.08	50244.52
547.28	50369.45
547.48	49902.51
547.68	50346.92
547.88	50019.25
548.081	50422.7
548.281	50449.32
548.481	50103.21
548.681	50463.66
548.881	50215.85
549.081	49855.41
549.28	50121.65
549.48	50422.7
549.68	50224.04
549.88	50809.76
550.08	50305.96
550.28	49957.81
550.48	49834.93
550.68	50420.65
550.88	50078.64
551.08	49888.18
551.279	50101.17
551.479	49576.89
551.679	50043.82
551.879	49460.15
552.079	50394.03
552.278	49630.13
552.478	49728.44
552.678	49505.21
552.878	50430.89
553.077	49664.95
553.277	49540.02
553.477	49886.13
553.676	49771.44
553.876	49447.86
554.076	49163.2
554.275	49324.99
554.475	49017.79
554.674	49454.01
554.874	49441.72
555.074	49396.66
555.273	49513.4
555.473	49533.88
555.672	48661.44
555.872	49128.38
556.071	49134.52
556.271	49609.65
556.47	48790.47
556.67	48585.67
556.869	48810.95
557.068	49261.5
557.268	49032.13
557.467	48800.71
557.667	48851.91
557.866	48919.49
558.065	48772.03
558.265	48585.67
558.464	48462.79
558.663	48671.68
558.863	48098.25
559.062	48829.38
559.261	48049.1
559.461	48409.54
559.66	48028.62
559.859	48305.1
560.058	47602.64
560.258	48249.8
560.457	47614.93
560.656	48622.53
560.855	48071.63
561.054	48038.86
561.253	47483.86
561.453	47725.52
561.652	47848.4
561.851	47864.78
562.05	47619.03
562.249	47358.94
562.448	47692.75
562.647	47520.73
562.846	47309.78
563.045	47092.7
563.244	46633.96
563.443	47410.14
563.642	46695.39
563.841	47236.06
564.04	47283.16
564.239	47320.02
564.438	47029.21
564.637	47412.18
564.836	46758.88
565.035	46078.96
565.234	46728.16
565.432	46154.73
565.631	46210.03
565.83	46244.84
566.029	46463.97
566.228	45669.36
566.427	46042.09
566.625	45845.49
566.824	45026.3
567.023	46205.93
567.222	45231.1
567.42	46113.77
567.619	45425.65
567.818	45581.3
568.016	45255.67
568.215	45474.8
568.414	45186.04
568.612	45837.3
568.811	45026.3
569.01	44977.15
569.208	44727.3
569.407	45081.59
569.605	44651.52
569.804	45171.71
570.002	44239.88
570.201	44796.93
570.4	44420.1
570.598	44203.02
570.797	44192.78
570.995	43947.02
571.193	43725.84
571.392	44459.01
571.59	43998.22
571.789	43535.38
571.987	43674.64
572.186	43809.81
572.384	43588.63
572.582	43564.05
572.781	43912.2
572.979	42914.84
573.177	43273.24
573.376	43518.99
573.574	42175.53
573.772	42814.49
573.971	42544.16
574.169	42703.9
574.367	42499.11
574.565	42638.37
574.763	42376.23
574.962	42413.09
575.16	41757.74
575.358	42128.42
575.556	41471.03
575.754	42214.44
575.952	41452.59
576.151	41813.04
576.349	41616.43
576.547	41448.5
576.745	41522.23
576.943	41696.3
577.141	41417.78
577.339	41352.24
577.537	41081.91
577.735	41016.38
577.933	40789.05
578.131	41038.9
578.329	40375.36
578.527	40340.55
578.725	40690.75
578.923	40606.78
579.121	40348.74
579.319	40494.14
579.516	40365.12
579.714	40404.03
579.912	39808.08
580.11	39801.93
580.308	39935.05
580.506	39507.02
580.704	39214.16
580.901	39345.23
581.099	39670.86
581.297	39271.51
581.495	39210.07
581.692	39205.97
581.89	38704.22
582.088	38861.91
582.285	38992.98
582.483	39126.1
582.681	38777.95
582.878	38796.38
583.076	38231.14
583.274	38663.26
583.471	38077.54
583.669	38020.2
583.866	38124.64
584.064	38325.35
584.262	37239.92
584.459	38173.8
584.657	37649.52
584.854	37909.61
585.052	36893.82
585.249	37641.32
585.447	37465.2
585.644	36881.53
585.841	37022.84
586.039	37465.2
586.236	36828.28
586.434	37039.22
586.631	36594.81
586.828	36656.25
587.026	36373.63
587.223	36406.4
587.42	36306.05
587.618	35966.09
587.815	35945.61
588.012	35708.04
588.21	35994.76
588.407	36162.69
588.604	35871.88
588.801	35349.65
588.999	35361.94
589.196	35243.15
589.393	35687.56
589.59	35275.92
589.787	34987.16
589.984	34993.3
590.182	34436.25
590.379	34806.94
590.576	34458.78
590.773	34161.83
590.97	34249.89
591.167	34493.6
591.364	33887.4
591.561	34589.85
591.758	34069.67
591.955	33717.42
592.152	33690.79
592.349	33705.13
592.546	34038.95
592.743	33948.84
592.94	33041.59
593.137	33942.69
593.334	33762.47
593.531	32990.39
593.727	33389.74
593.924	32939.19
594.121	32779.45
594.318	33230
594.515	32435.39
594.712	32746.68
594.908	32689.34
595.105	32541.88
595.302	32181.44
595.499	32371.9
595.696	32218.3
595.892	31861.96
596.089	32312.51
596.286	32306.37
596.482	31802.57
596.679	31726.79
596.876	32177.34
597.072	31182.03
597.269	31536.33
597.466	31309
597.662	31171.79
597.859	31392.97
598.055	31192.27
598.252	30874.84
598.448	30762.2
598.645	30782.68
598.841	30592.22
599.038	30774.49
599.234	30909.65
599.431	30235.87
599.627	30276.83
599.824	30520.54
600.02	29824.23
600.217	30045.41
600.413	29773.03
600.609	29951.2
600.806	30037.22
601.002	29641.96
601.198	29652.2
601.395	29574.38
601.591	29302
601.787	29336.81
601.984	29011.18
602.18	29418.73
602.376	28845.3
602.572	29275.37
602.769	29019.38
602.965	28337.4
603.161	28779.76
603.357	28402.94
603.553	28577.01
603.75	28845.3
603.946	28265.72
604.142	28384.51
604.338	28062.97
604.534	28175.61
604.73	27835.65
604.926	27880.71
605.122	27682.05
605.318	27510.02
605.514	27391.24
605.71	27548.93
605.906	27491.59
606.102	27366.67
606.298	27385.1
606.494	27274.51
606.69	27331.85
606.886	27712.77
607.082	26955.02
607.278	27284.75
607.474	27008.27
607.67	27102.48
607.866	26623.25
608.062	27294.99
608.257	26772.75
608.453	26727.7
608.649	26826
608.845	26535.19
609.041	26328.34
609.236	26559.77
609.432	26486.04
609.628	26496.28
609.824	26303.77
610.019	26500.37
610.215	26273.05
610.411	26301.72
610.606	25896.22
610.802	25916.7
610.998	25683.23
611.193	25732.39
611.389	25695.52
611.584	25820.45
611.78	25761.06
611.976	25672.99
612.171	25783.59
612.367	25443.62
612.562	25386.28
612.758	24888.62
612.953	25070.89
613.149	25562.4
613.344	25367.85
613.539	25367.85
613.735	25193.77
613.93	25267.5
614.126	24978.73
614.321	25224.49
614.517	24669.49
614.712	24997.17
614.907	24702.26
615.103	25134.38
615.298	25029.93
615.493	24945.97
615.688	24421.69
615.884	25062.7
616.079	24458.55
616.274	24700.21
616.47	24517.94
616.665	24753.46
616.86	24292.66
617.055	24337.72
617.25	24446.26
617.445	24296.76
617.641	24077.63
617.836	24231.22
618.031	23590.21
618.226	23989.56
618.421	23610.69
618.616	24120.63
618.811	23721.28
619.006	23833.92
619.201	23309.64
619.396	23334.21
619.591	23053.64
619.786	23389.51
619.981	22768.98
620.176	23283.02
620.371	23006.54
620.566	22883.66
620.761	22709.58
620.956	22900.05
621.151	22580.56
621.346	22457.68
621.541	22256.98
621.735	22242.65
621.93	21929.31
622.125	22095.19
622.32	21589.35
622.515	21833.05
622.709	21736.8
622.904	21577.06
623.099	21564.77
623.294	21644.64
623.488	21140.84
623.683	21515.62
623.878	21118.31
624.072	21095.78
624.267	21013.87
624.462	20899.18
624.656	20626.8
624.851	20780.4
625.046	20313.46
625.24	20116.86
625.435	20000.12
625.629	20147.58
625.824	19871.1
626.018	19799.42
626.213	19492.23
626.407	19553.66
626.602	19404.16
626.796	19690.88
626.991	19516.8
627.185	18988.42
627.38	19156.36
627.574	19035.53
627.768	18908.55
627.963	18994.57
628.157	18439.57
628.352	18726.28
628.546	18447.76
628.74	18521.49
628.935	18175.38
629.129	18300.31
629.323	18036.12
629.517	18150.81
629.712	17976.73
629.906	18111.89
630.1	17468.83
630.294	17986.97
630.489	17436.06
630.683	17735.07
630.877	17360.29
631.071	17155.49
631.265	17200.55
631.459	17266.08
631.653	16934.31
631.848	16870.83
632.042	16584.11
632.236	16950.7
632.43	16676.27
632.624	16510.38
632.818	16559.53
633.012	16190.9
633.206	16362.93
633.4	16278.96
633.594	15918.52
633.788	15990.2
633.982	16090.55
634.176	16149.94
634.369	15748.54
634.563	15607.23
634.757	15801.79
634.951	15527.36
635.145	15676.86
635.339	15658.43
635.533	15349.18
635.726	15252.93
635.92	15070.66
636.114	15168.96
636.308	14855.62
636.501	14908.87
636.695	14890.44
636.889	14685.64
637.083	14740.94
637.276	14753.23
637.47	14509.52
637.664	14476.75
637.857	14468.56
638.051	14450.13
638.244	14034.39
638.438	14171.6
638.632	14034.39
638.825	13917.65
639.019	14003.67
639.212	13764.06
639.406	13618.65
639.599	13749.72
639.793	13733.34
639.986	13241.82
640.18	13696.47
640.373	13415.9
640.567	13364.7
640.76	13227.49
640.954	13116.9
641.147	13194.72
641.34	13086.18
641.534	13034.98
641.727	12862.95
641.92	12946.92
642.114	12836.33
642.307	12742.12
642.5	12711.4
642.694	12635.63
642.887	12422.64
643.08	12451.31
643.273	12336.62
643.467	12340.72
643.66	12162.55
643.853	12140.02
644.046	12033.52
644.239	12215.79
644.432	11814.39
644.626	11746.81
644.819	11937.27
645.012	11830.77
645.205	11824.63
645.398	11910.64
645.591	11927.03
645.784	11421.18
645.977	11415.04
646.17	11439.61
646.363	11236.86
646.556	11230.72
646.749	11331.07
646.942	11349.5
647.135	11144.7
647.328	10987.01
647.521	11042.31
647.714	10868.23
647.907	10735.11
648.099	10763.78
648.292	10757.64
648.485	10892.8
648.678	10647.05
648.871	10663.43
649.064	10591.75
649.256	10599.94
649.449	10532.36
649.642	10348.04
649.835	10051.09
650.027	10339.85
650.22	10298.89
650.413	10247.69
650.605	10116.62
650.798	10157.58
650.991	10122.77
651.183	9993.75
651.376	9979.41
651.568	9940.5
651.761	9848.34
651.954	9643.54
652.146	9793.05
652.339	9633.3
652.531	9463.32
652.724	9487.9
652.916	9471.51
653.109	9588.25
653.301	9264.67
653.494	9455.13
653.686	9311.77
653.879	9295.39
654.071	9379.36
654.263	9016.87
654.456	9092.64
654.648	9172.51
654.84	9012.77
655.033	8922.66
655.225	8767.01
655.417	8988.19
655.61	8836.64
655.802	8783.4
655.994	8781.35
656.186	8599.08
656.379	8566.31
656.571	8617.51
656.763	8513.06
656.955	8381.99
657.148	8613.42
657.34	8570.41
657.532	8298.03
657.724	8287.79
657.916	8250.92
658.108	8283.69
658.3	8177.2
658.492	8134.19
658.684	8048.18
658.876	8035.89
659.068	8130.09
659.26	7960.11
659.452	7927.35
659.644	7833.14
659.836	7855.67
660.028	7900.72
660.22	7870
660.412	7859.76
660.604	7611.96
660.796	7659.06
660.988	7642.68
661.18	7505.46
661.372	7343.67
661.563	7700.02
661.755	7503.42
661.947	7401.02
662.139	7425.59
662.331	7163.45
662.522	7360.06
662.714	7249.47
662.906	7388.73
663.097	7185.98
663.289	7269.95
663.481	7134.78
663.673	7018.05
663.864	6911.55
664.056	6952.51
664.247	7001.66
664.439	6897.22
664.631	7083.58
664.822	6884.93
665.014	6790.72
665.205	6944.32
665.397	6630.98
665.588	6745.67
665.78	6760
665.971	6606.41
666.163	6805.06
666.354	6571.59
666.546	6702.66
666.737	6592.07
666.929	6391.37
667.12	6520.39
667.311	6469.19
667.503	6559.3
667.694	6387.27
667.885	6512.2
668.077	6362.7
668.268	6254.16
668.459	6213.2
668.651	6399.56
668.842	6286.92
669.033	6284.87
669.224	6082.13
669.416	6073.93
669.607	6184.52
669.798	6016.59
669.989	5914.19
670.18	6110.8
670.371	5922.38
670.563	6012.49
670.754	5920.34
670.945	5754.45
671.136	5809.75
671.327	5852.75
671.518	5906
671.709	5783.12
671.9	5785.17
672.091	5695.06
672.282	5680.72
672.473	5699.16
672.664	5684.82
672.855	5576.28
673.046	5531.22
673.237	5699.16
673.428	5600.85
673.619	5623.38
673.809	5561.94
674	5402.2
674.191	5498.45
674.382	5434.97
674.573	5373.53
674.764	5275.23
674.954	5373.53
675.145	5340.76
675.336	5244.51
675.527	5297.75
675.717	5367.38
675.908	5307.99
676.099	5191.26
676.289	5297.75
676.48	5127.77
676.671	5199.45
676.861	5191.26
677.052	5146.2
677.243	5064.29
677.433	5183.07
677.624	5097.05
677.814	5113.44
678.005	5037.66
678.195	5217.88
678.386	5154.4
678.576	5162.59
678.767	4937.31
678.957	5054.05
679.148	5058.14
679.338	5025.37
679.529	4793.95
679.719	4963.93
679.909	5127.77
680.1	4867.68
680.29	4898.4
680.481	4949.6
680.671	4865.63
680.861	4798.05
681.052	4851.3
681.242	4875.87
681.432	4886.11
681.622	4798.05
681.813	4730.47
682.003	4683.36
682.193	4699.75
682.383	4707.94
682.573	4767.33
682.764	4679.27
682.954	4497
683.144	4716.13
683.334	4558.44
683.524	4630.12
683.714	4576.87
683.904	4591.2
684.094	4660.84
684.284	4460.13
684.474	4730.47
684.664	4550.25
684.854	4462.18
685.044	4634.21
685.234	4494.95
685.424	4451.94
685.614	4486.76
685.804	4400.74
685.994	4568.68
686.184	4451.94
686.374	4417.13
686.564	4329.06
686.753	4202.09
686.943	4167.28
687.133	4259.43
687.323	4281.96
687.513	4396.65
687.702	4267.63
687.892	4269.67
688.082	4208.23
688.272	4124.27
688.461	4091.5
688.651	4236.91
688.841	4167.28
689.03	4114.03
689.22	4062.83
689.41	4208.23
689.599	4007.53
689.789	4019.82
689.979	3933.81
690.168	4001.39
690.358	3909.23
690.547	3835.5
690.737	4097.64
690.926	3898.99
691.116	3927.66
691.305	4085.36
691.495	3905.14
691.684	3755.63
691.874	3741.3
692.063	3851.89
692.252	3855.98
692.442	3821.17
692.631	3790.45
692.82	3724.91
693.01	3729.01
693.199	3831.41
693.388	3753.59
693.578	3726.96
693.767	3622.52
693.956	3751.54
694.146	3632.76
694.335	3487.35
694.524	3645.04
694.713	3591.8
694.902	3632.76
695.092	3706.48
695.281	3559.03
695.47	3597.94
695.659	3552.88
695.848	3491.45
696.037	3530.36
696.226	3460.73
696.415	3362.42
696.604	3548.79
696.793	3511.93
696.982	3493.49
697.171	3473.01
697.36	3491.45
697.549	3491.45
697.738	3374.71
697.927	3333.75
698.116	3507.83
698.305	3401.33
698.494	3403.38
698.683	3411.57
698.872	3473.01
699.061	3448.44
699.25	3368.57
699.438	3415.67
699.627	3409.53
699.816	3391.09
700.005	3368.57
700.193	3397.24
700.382	3526.26
700.571	3335.8
700.76	3327.61
700.948	3362.42
701.137	3434.1
701.326	3411.57
701.514	3294.84
701.703	3438.2
701.892	3331.7
702.08	3456.63
702.269	3407.48
702.457	3307.13
702.646	3434.1
702.834	3387
703.023	3358.33
703.212	3380.86
703.4	3358.33
703.589	3249.79
703.777	3253.88
703.965	3286.65
704.154	3311.22
704.342	3288.7
704.531	3305.08
704.719	3276.41
704.907	3253.88
705.096	3188.35
705.284	3282.55
705.472	3374.71
705.661	3243.64
705.849	3329.66
706.037	3303.03
706.226	3286.65
706.414	3243.64
706.602	3255.93
706.79	3321.46
706.979	3214.97
707.167	3206.78
707.355	3198.59
707.543	3233.4
707.731	3380.86
707.919	3255.93
708.107	3180.15
708.296	3176.06
708.484	3182.2
708.672	3237.5
708.86	3186.3
709.048	3194.49
709.236	3196.54
709.424	3266.17
709.612	3149.43
709.8	3077.76
709.988	3165.82
710.176	3196.54
710.364	3182.2
710.551	3307.13
710.739	3036.8
710.927	3241.59
711.115	3204.73
711.303	3233.4
711.491	3219.07
711.679	3139.19
711.866	3051.13
712.054	3192.44
712.242	3063.42
712.43	3217.02
712.617	3147.39
712.805	3219.07
712.993	3133.05
713.181	3278.46
713.368	3131
713.556	3237.5
713.744	3155.58
713.931	3233.4
714.119	3131
714.306	3217.02
714.494	3057.28
714.682	3092.09
714.869	3110.52
715.057	3149.43
715.244	3034.75
715.432	3120.76
715.619	3004.03
715.807	3073.66
715.994	3108.48
716.182	3106.43
716.369	3120.76
716.556	3096.19
716.744	3075.71
716.931	3141.24
717.119	3143.29
717.306	3182.2
717.493	3059.32
717.681	3079.8
717.868	3030.65
718.055	3028.6
718.242	3143.29
718.43	3083.9
718.617	2961.02
718.804	3124.86
718.991	3118.72
719.179	3040.89
719.366	2997.88
719.553	3149.43
719.74	3006.08
719.927	3042.94
720.114	3020.41
720.301	3059.32
720.488	2997.88
720.676	3030.65
720.863	3006.08
721.05	3010.17
721.237	2989.69
721.424	3020.41
721.611	3126.91
721.798	3012.22
721.985	2950.78
722.172	2932.35
722.358	2891.39
722.545	2983.55
722.732	2993.79
722.919	3083.9
723.106	2961.02
723.293	2897.53
723.48	2991.74
723.667	2991.74
723.853	2836.1
724.04	2926.21
724.227	2838.14
724.414	2897.53
724.6	2963.07
724.787	2872.96
724.974	2983.55
725.161	2963.07
725.347	2897.53
725.534	2772.61
725.72	2946.69
725.907	2887.29
726.094	2977.41
726.28	2811.52
726.467	2868.86
726.653	2786.94
726.84	2842.24
727.027	2920.06
727.213	2866.81
727.4	2862.72
727.586	2922.11
727.773	3001.98
727.959	2813.57
728.145	2832
728.332	2862.72
728.518	2870.91
728.705	2780.8
728.891	2909.82
729.077	2799.23
729.264	2875.01
729.45	2852.48
729.636	2838.14
729.823	2815.62
730.009	2817.66
730.195	2801.28
730.382	2774.66
730.568	2856.58
730.754	2942.59
730.94	2774.66
731.126	2844.29
731.313	2748.03
731.499	2805.38
731.685	2686.59
731.871	2825.86
732.057	2739.84
732.243	2764.42
732.429	2825.86
732.615	2827.9
732.801	2711.17
732.987	2686.59
733.173	2711.17
733.359	2725.51
733.545	2684.55
733.731	2682.5
733.917	2760.32
734.103	2674.31
734.289	2649.73
734.475	2709.12
734.661	2598.53
734.847	2752.13
735.033	2662.02
735.219	2674.31
735.404	2719.36
735.59	2666.11
735.776	2721.41
735.962	2727.55
736.148	2651.78
736.333	2807.42
736.519	2608.77
736.705	2805.38
736.89	2676.35
737.076	2639.49
737.262	2727.55
737.447	2655.87
737.633	2582.15
737.819	2625.15
738.004	2674.31
738.19	2621.06
738.375	2496.13
738.561	2682.5
738.747	2590.34
738.932	2557.57
739.118	2702.98
739.303	2569.86
739.489	2598.53
739.674	2485.89
739.859	2590.34
740.045	2541.19
740.23	2401.93
740.416	2336.39
740.601	2559.62
740.786	2457.22
740.972	2461.32
741.157	2451.08
741.342	2408.07
741.528	2469.51
741.713	2451.08
741.898	2487.94
742.084	2430.6
742.269	2496.13
742.454	2430.6
742.639	2422.41
742.824	2313.86
743.01	2475.65
743.195	2516.61
743.38	2315.91
743.565	2391.69
743.75	2375.3
743.935	2387.59
744.12	2338.44
744.305	2266.76
744.49	2199.18
744.675	2289.29
744.86	2219.66
745.045	2256.52
745.23	2211.46
745.415	2182.79
745.6	2205.32
745.785	2252.42
745.97	2258.57
746.155	2277
746.34	2084.49
746.525	2066.06
746.71	2180.75
746.895	2143.88
747.079	2135.69
747.264	2170.51
747.449	2086.54
747.634	2074.25
747.819	2084.49
748.003	2025.1
748.188	1975.95
748.373	1973.9
748.557	2039.44
748.742	2033.29
748.927	1992.33
749.111	1978
749.296	1906.32
749.481	1990.28
749.665	1969.8
749.85	1853.07
750.034	1900.17
750.219	1898.13
750.404	1873.55
750.588	1787.54
750.773	1865.36
750.957	1883.79
751.141	1924.75
751.326	1883.79
751.51	1937.04
751.695	1877.65
751.879	1855.12
752.064	1920.65
752.248	1787.54
752.432	1808.02
752.617	1736.34
752.801	1793.68
752.985	1656.47
753.17	1713.81
753.354	1726.1
753.538	1787.54
753.722	1646.23
753.907	1638.03
754.091	1613.46
754.275	1668.75
754.459	1646.23
754.643	1584.79
754.828	1660.56
755.012	1674.9
755.196	1672.85
755.38	1572.5
755.564	1554.07
755.748	1490.58
755.932	1494.68
756.116	1586.83
756.3	1521.3
756.484	1437.33
756.668	1410.71
756.852	1543.83
757.036	1486.48
757.22	1500.82
757.404	1472.15
757.588	1482.39
757.772	1461.91
757.956	1341.08
758.14	1449.62
758.323	1396.37
758.507	1357.46
758.691	1332.89
758.875	1468.05
759.059	1408.66
759.242	1298.07
759.426	1377.94
759.61	1293.97
759.794	1316.5
759.977	1261.21
760.161	1298.07
760.345	1283.74
760.528	1281.69
760.712	1328.79
760.895	1279.64
761.079	1220.25
761.263	1207.96
761.446	1164.95
761.63	1201.82
761.813	1230.49
761.997	1261.21
762.18	1255.06
762.364	1207.96
762.547	1199.77
762.731	1255.06
762.914	1230.49
763.098	1250.97
763.281	1158.81
763.464	1193.62
763.648	1214.1
763.831	1173.14
764.015	1142.43
764.198	1216.15
764.381	1074.84
764.564	1126.04
764.748	1111.71
764.931	1128.09
765.114	1191.58
765.297	1162.9
765.481	1068.7
765.664	1138.33
765.847	1099.42
766.03	1064.6
766.213	1101.47
766.397	1052.31
766.58	1070.75
766.763	1035.93
766.946	1050.27
767.129	1091.23
767.312	1033.88
767.495	1029.79
767.678	1005.21
767.861	1115.8
768.044	1064.6
768.227	1115.8
768.41	931.48
768.593	1048.22
768.776	1042.07
768.959	1003.16
769.142	1054.36
769.324	1046.17
769.507	1007.26
769.69	1052.31
769.873	1005.21
770.056	992.92
770.239	976.54
770.421	990.88
770.604	1027.74
770.787	972.44
770.97	1021.6
771.152	1070.75
771.335	1003.16
771.518	992.92
771.7	949.92
771.883	1013.4
772.066	962.2
772.248	982.68
772.431	947.87
772.613	849.57
772.796	886.43
772.978	997.02
773.161	945.82
773.343	880.29
773.526	913.05
773.708	937.63
773.891	820.89
774.073	898.72
774.256	853.66
774.438	853.66
774.621	775.84
774.803	984.73
774.985	855.71
775.168	890.53
775.35	855.71
775.532	859.81
775.715	712.35
775.897	751.26
776.079	839.33
776.261	827.04
776.444	788.13
776.626	726.69
776.808	802.46
776.99	745.12
777.173	763.55
777.355	779.93
777.537	687.78
777.719	792.22
777.901	741.02
778.083	781.98
778.265	693.92
778.447	747.17
778.629	712.35
778.811	687.78
778.993	734.88
779.175	757.41
779.357	661.15
779.539	718.5
779.721	722.59
779.903	687.78
780.085	706.21
780.267	767.65
780.449	708.26
780.631	614.05
780.812	704.16
780.994	720.54
781.176	702.11
781.358	548.51
781.54	558.75
781.721	603.81
781.903	648.86
782.085	579.23
782.267	714.4
782.448	523.94
782.63	589.47
782.812	698.02
782.993	579.23
783.175	589.47
783.357	587.43
783.538	614.05
783.72	571.04
783.901	591.52
784.083	630.43
784.264	534.18
784.446	644.77
784.627	519.84
784.809	575.14
784.99	542.37
785.172	474.79
785.353	616.1
785.535	614.05
785.716	525.99
785.897	544.42
786.079	515.75
786.26	503.46
786.441	427.68
786.623	495.27
786.804	597.67
786.985	466.6
787.167	429.73
787.348	530.08
787.529	521.89
787.71	564.9
787.891	495.27
788.073	454.31
788.254	472.74
788.435	407.2
788.616	433.83
788.797	386.72
788.978	431.78
789.159	386.72
789.34	462.5
789.522	503.46
789.703	456.36
789.884	376.48
790.065	433.83
790.246	499.36
790.427	456.36
790.607	439.97
790.788	366.25
790.969	366.25
791.15	468.64
791.331	376.48
791.512	358.05
791.693	296.61
791.874	415.4
792.054	503.46
792.235	409.25
792.416	485.03
792.597	358.05
792.778	480.93
792.958	407.2
793.139	417.44
793.32	437.92
793.5	378.53
793.681	401.06
793.862	433.83
794.042	384.68
794.223	394.92
794.404	409.25
794.584	353.96
794.765	343.72
794.945	376.48
795.126	396.96
795.306	374.44
795.487	345.77
795.667	337.57
795.848	339.62
796.028	306.85
796.209	417.44
796.389	333.48
796.57	304.81
796.75	288.42
796.93	333.48
797.111	298.66
797.291	345.77
797.471	360.1
797.652	269.99
797.832	315.05
798.012	323.24
798.192	358.05
798.373	194.22
798.553	313
798.733	372.39
798.913	300.71
799.093	384.68
799.274	310.95
799.454	302.76
799.634	358.05
799.814	298.66
799.994	333.48
800.174	298.66
800.354	292.52
800.534	267.94
800.714	304.81
800.894	224.94
801.074	308.9
801.254	296.61
801.434	304.81
801.614	310.95
801.794	163.5
801.974	607.91
802.154	310.95
802.334	327.33
802.514	272.04
802.693	274.09
802.873	353.96
803.053	315.05
803.233	308.9
803.413	237.22
803.592	208.55
803.772	229.03
803.952	200.36
804.131	251.56
804.311	278.18
804.491	308.9
804.67	253.61
804.85	255.65
805.03	269.99
805.209	247.46
805.389	263.85
805.568	181.93
805.748	233.13
805.928	251.56
806.107	278.18
806.287	302.76
806.466	243.37
806.646	247.46
806.825	200.36
807.004	269.99
807.184	222.89
807.363	296.61
807.543	171.69
807.722	265.89
807.901	220.84
808.081	265.89
808.26	145.06
808.439	194.22
808.619	239.27
808.798	247.46
808.977	169.64
809.156	202.41
809.336	206.5
809.515	229.03
809.694	143.02
809.873	243.37
810.052	239.27
810.231	276.13
810.411	310.95
810.59	253.61
810.769	175.78
810.948	202.41
811.127	112.3
811.306	210.6
811.485	204.46
811.664	188.07
811.843	134.82
812.022	149.16
812.201	188.07
812.38	192.17
812.559	196.26
812.737	220.84
812.916	169.64
813.095	282.28
813.274	216.74
813.453	167.59
813.632	198.31
813.811	114.34
813.989	151.21
814.168	200.36
814.347	169.64
814.526	165.54
814.704	198.31
814.883	218.79
815.062	210.6
815.24	194.22
815.419	128.68
815.598	222.89
815.776	81.58
815.955	89.77
816.133	208.55
816.312	177.83
816.49	175.78
816.669	104.11
816.847	153.26
817.026	177.83
817.204	224.94
817.383	124.58
817.561	167.59
817.74	102.06
817.918	198.31
818.097	151.21
818.275	157.35
818.453	161.45
818.632	224.94
818.81	171.69
818.988	85.67
819.167	126.63
819.345	145.06
819.523	171.69
819.701	155.3
819.879	165.54
820.058	138.92
820.236	149.16
820.414	159.4
820.592	118.44
820.77	165.54
820.948	194.22
821.127	163.5
821.305	177.83
821.483	155.3
821.661	159.4
821.839	177.83
822.017	143.02
822.195	151.21
822.373	165.54
822.551	52.91
822.729	159.4
822.907	128.68
823.085	181.93
823.262	106.15
823.44	163.5
823.618	124.58
823.796	153.26
823.974	95.91
824.152	179.88
824.329	126.63
824.507	186.02
824.685	61.1
824.863	136.87
825.04	69.29
825.218	118.44
825.396	151.21
825.574	124.58
825.751	91.82
825.929	155.3
826.107	165.54
826.284	136.87
826.462	89.77
826.639	100.01
826.817	87.72
826.994	169.64
827.172	140.97
827.349	102.06
827.527	36.52
827.704	102.06
827.882	155.3
828.059	79.53
828.237	77.48
828.414	116.39
828.591	46.76
828.769	85.67
828.946	69.29
829.124	177.83
829.301	128.68
829.478	97.96
829.655	124.58
829.833	130.73
830.01	104.11
830.187	171.69
830.364	128.68
830.542	161.45
830.719	77.48
830.896	85.67
831.073	83.63
831.25	128.68
831.427	190.12
831.604	73.39
831.782	67.24
831.959	106.15
832.136	91.82
832.313	124.58
832.49	79.53
832.667	91.82
832.844	18.09
833.021	104.11
833.198	83.63
833.374	71.34
833.551	149.16
833.728	122.54
833.905	186.02
834.082	30.38
834.259	134.82
834.436	44.71
834.612	104.11
834.789	108.2
834.966	102.06
835.143	34.47
835.319	65.19
835.496	153.26
835.673	143.02
835.85	36.52
836.026	140.97
836.203	67.24
836.38	83.63
836.556	95.91
836.733	116.39
836.909	87.72
837.086	63.15
837.262	46.76
837.439	59.05
837.616	61.1
837.792	77.48
837.968	153.26
838.145	42.67
838.321	16.04
838.498	100.01
838.674	97.96
838.851	30.38
839.027	-8.53
839.203	108.2
839.38	100.01
839.556	116.39
839.732	85.67
839.909	134.82
840.085	110.25
840.261	22.19
840.437	79.53
840.614	59.05
840.79	87.72
840.966	97.96
841.142	112.3
841.318	63.15
841.494	36.52
841.671	85.67
841.847	40.62
842.023	108.2
842.199	128.68
842.375	42.67
842.551	65.19
842.727	42.67
842.903	50.86
843.079	97.96
843.255	126.63
843.431	102.06
843.607	87.72
843.783	40.62
843.959	44.71
844.134	63.15
844.31	59.05
844.486	69.29
844.662	77.48
844.838	89.77
845.013	81.58
845.189	65.19
845.365	85.67
845.541	54.95
845.716	91.82
845.892	57
846.068	89.77
846.244	3.75
846.419	50.86
846.595	63.15
846.77	71.34
846.946	48.81
847.122	38.57
847.297	46.76
847.473	77.48
847.648	104.11
847.824	52.91
847.999	32.43
848.175	87.72
848.35	26.28
848.526	95.91
848.701	61.1
848.876	48.81
849.052	36.52
849.227	-10.58
849.403	97.96
849.578	73.39
849.753	81.58
849.929	46.76
850.104	42.67
850.279	89.77
850.454	75.43
850.63	93.87
850.805	44.71
850.98	79.53
851.155	-6.49
851.33	42.67
851.505	30.38
851.681	63.15
851.856	48.81
852.031	73.39
852.206	85.67
852.381	42.67
852.556	1.71
852.731	54.95
852.906	73.39
853.081	50.86
853.256	77.48
853.431	114.34
853.606	69.29
853.781	81.58
853.956	-24.92
854.131	65.19
854.305	28.33
854.48	73.39
854.655	104.11
854.83	34.47
855.005	57
855.18	110.25
855.354	61.1
855.529	59.05
855.704	95.91
855.879	28.33
856.053	-47.44
856.228	73.39
856.403	-0.34
856.577	54.95
856.752	106.15
856.926	52.91
857.101	93.87
857.276	134.82
857.45	44.71
857.625	75.43
857.799	24.23
857.974	46.76
858.148	48.81
858.323	71.34
858.497	-24.92
858.672	134.82
858.846	57
859.02	26.28
859.195	38.57
859.369	79.53
859.543	28.33
859.718	46.76
859.892	32.43
860.066	73.39
860.241	124.58
860.415	73.39
860.589	-26.96
860.763	54.95
860.938	63.15
861.112	59.05
861.286	54.95
861.46	-4.44
861.634	85.67
861.808	67.24
861.982	34.47
862.157	63.15
862.331	-22.87
862.505	59.05
862.679	-37.2
862.853	46.76
863.027	95.91
863.201	112.3
863.375	32.43
863.549	69.29
863.722	9.9
863.896	11.95
864.07	48.81
864.244	95.91
864.418	48.81
864.592	38.57
864.766	104.11
864.939	16.04
865.113	36.52
865.287	50.86
865.461	9.9
865.634	91.82
865.808	32.43
865.982	42.67
866.156	-6.49
866.329	24.23
866.503	13.99
866.676	7.85
866.85	24.23
867.024	-20.82
867.197	83.63
867.371	-31.06
867.544	24.23
867.718	22.19
867.891	-29.01
868.065	24.23
868.238	34.47
868.412	30.38
868.585	28.33
868.759	22.19
868.932	46.76
869.105	5.8
869.279	63.15
869.452	52.91
869.625	46.76
869.799	5.8
869.972	-4.44
870.145	-4.44
870.319	-8.53
870.492	42.67
870.665	28.33
870.838	-31.06
871.011	-6.49
871.185	102.06
871.358	-0.34
871.531	48.81
871.704	-29.01
871.877	52.91
872.05	16.04
872.223	57
872.396	42.67
872.569	22.19
872.742	-31.06
872.915	38.57
873.088	22.19
873.261	54.95
873.434	40.62
873.607	46.76
873.78	114.34
873.953	-45.4
874.126	16.04
874.299	134.82
874.471	79.53
874.644	69.29
874.817	-10.58
874.99	26.28
875.163	7.85
875.335	-4.44
875.508	34.47
875.681	44.71
875.853	3.75
876.026	52.91
876.199	11.95
876.371	83.63
876.544	93.87
876.717	38.57
876.889	48.81
877.062	36.52
877.234	-45.4
877.407	46.76
877.579	-26.96
877.752	79.53
877.924	20.14
878.097	87.72
878.269	87.72
878.442	59.05
878.614	20.14
878.786	-29.01
878.959	95.91
879.131	42.67
879.303	18.09
879.476	38.57
879.648	73.39
879.82	75.43
879.993	-35.16
880.165	18.09
880.337	-35.16
880.509	102.06
880.681	54.95
880.854	93.87
881.026	-35.16
881.198	79.53
881.37	3.75
881.542	-80.21
881.714	11.95
881.886	-49.49
882.058	5.8
882.23	52.91
882.402	61.1
882.574	-22.87
882.746	77.48
882.918	89.77
883.09	-0.34
883.262	-12.63
883.434	-8.53
883.606	26.28
883.778	20.14
883.95	57
884.122	-39.25
884.293	32.43
884.465	1.71
884.637	108.2
884.809	1.71
884.98	114.34
885.152	1.71
885.324	38.57
885.496	13.99
885.667	54.95
885.839	-8.53
886.011	44.71
886.182	-33.11
886.354	75.43
886.525	38.57
886.697	71.34
886.869	9.9
887.04	73.39
887.212	42.67
887.383	71.34
887.555	59.05
887.726	50.86
887.897	100.01
888.069	38.57
888.24	-0.34
888.412	36.52
888.583	-33.11
888.754	-18.77
888.926	-8.53
889.097	61.1
889.268	24.23
889.44	-20.82
889.611	30.38
889.782	20.14
889.953	9.9
890.125	32.43
890.296	48.81
890.467	11.95
890.638	26.28
890.809	26.28
890.98	67.24
891.151	26.28
891.323	32.43
891.494	42.67
891.665	11.95
891.836	13.99
892.007	65.19
892.178	38.57
892.349	-41.3
892.52	-22.87
892.691	-8.53
892.862	-24.92
893.032	-18.77
893.203	-12.63
893.374	38.57
893.545	44.71
893.716	30.38
893.887	65.19
894.057	26.28
894.228	34.47
894.399	71.34
894.57	1.71
894.74	63.15
894.911	69.29
895.082	-74.07
895.253	36.52
895.423	-49.49
895.594	13.99
895.764	34.47
895.935	83.63
896.106	102.06
896.276	30.38
896.447	85.67
896.617	9.9
896.788	36.52
896.958	-22.87
897.129	-29.01
897.299	-0.34
897.47	40.62
897.64	13.99
897.81	32.43
897.981	36.52
898.151	38.57
898.322	16.04
898.492	-49.49
898.662	-37.2
898.832	1.71
899.003	22.19
899.173	46.76
899.343	-18.77
899.513	9.9
