Data from USB4F104151__20__12-00-28-334.txt Node

Date: Fri Mar 14 12:00:28 EDT 2025
User: louis
Spectrometer: USB4F10415
Trigger mode: 4
Integration Time (sec): 2.000000E-2
Scans to average: 1
Electric dark correction enabled: true
Nonlinearity correction enabled: false
Boxcar width: 0
XAxis mode: Wavelengths
Number of Pixels in Spectrum: 3648
>>>>>Begin Spectral Data<<<<<
178.204	-85.16
178.424	-85.16
178.644	-85.16
178.864	-89.26
179.084	-144.55
179.304	-38.06
179.524	23.38
179.744	-15.53
179.964	93.01
180.184	-15.53
180.404	-15.53
180.624	95.06
180.844	-15.53
181.064	-40.11
181.283	7
181.503	-101.55
181.723	23.38
181.943	-50.35
182.163	103.25
182.383	54.1
182.602	58.2
182.822	11.09
183.042	9.05
183.262	9.05
183.482	35.67
183.701	0.85
183.921	2.9
184.141	-31.91
184.361	4.95
184.58	86.87
184.8	50
185.02	39.76
185.239	95.06
185.459	31.57
185.679	76.63
185.898	15.19
186.118	4.95
186.338	-40.11
186.557	4.95
186.777	-3.24
186.997	2.9
187.216	13.14
187.436	21.33
187.655	43.86
187.875	7
188.095	103.25
188.314	39.76
188.534	39.76
188.753	-11.43
188.973	47.96
189.192	76.63
189.412	74.58
189.631	15.19
189.851	-13.48
190.07	88.92
190.29	-62.63
190.509	-3.24
190.729	19.29
190.948	52.05
191.168	68.44
191.387	-11.43
191.607	9.05
191.826	-7.34
192.045	-1.19
192.265	50
192.484	-23.72
192.704	-7.34
192.923	-33.96
193.142	95.06
193.362	43.86
193.581	50
193.8	-3.24
194.02	70.48
194.239	7
194.458	17.24
194.678	-70.83
194.897	45.91
195.116	-1.19
195.335	-3.24
195.555	9.05
195.774	45.91
195.993	68.44
196.212	11.09
196.432	31.57
196.651	17.24
196.87	23.38
197.089	41.81
197.308	-1.19
197.528	23.38
197.747	4.95
197.966	19.29
198.185	70.48
198.404	37.72
198.623	-25.77
198.842	-33.96
199.062	70.48
199.281	64.34
199.5	-11.43
199.719	86.87
199.938	43.86
200.157	35.67
200.376	15.19
200.595	50
200.814	25.43
201.033	84.82
201.252	72.53
201.471	-17.58
201.69	31.57
201.909	-29.87
202.128	52.05
202.347	0.85
202.566	-11.43
202.785	43.86
203.004	-3.24
203.223	47.96
203.442	2.9
203.661	76.63
203.879	-27.82
204.098	93.01
204.317	-33.96
204.536	-17.58
204.755	27.48
204.974	31.57
205.193	2.9
205.411	72.53
205.63	15.19
205.849	-19.63
206.068	-52.39
206.287	37.72
206.505	41.81
206.724	11.09
206.943	54.1
207.162	-9.39
207.381	39.76
207.599	-33.96
207.818	78.68
208.037	58.2
208.255	0.85
208.474	29.52
208.693	70.48
208.911	7
209.13	33.62
209.349	-5.29
209.567	41.81
209.786	62.29
210.005	41.81
210.223	25.43
210.442	29.52
210.661	-17.58
210.879	66.39
211.098	-1.19
211.316	4.95
211.535	111.44
211.753	-48.3
211.972	60.24
212.191	19.29
212.409	50
212.628	-21.67
212.846	86.87
213.065	-13.48
213.283	-25.77
213.502	-11.43
213.72	50
213.938	64.34
214.157	27.48
214.375	74.58
214.594	43.86
214.812	27.48
215.031	17.24
215.249	-21.67
215.467	29.52
215.686	80.72
215.904	107.35
216.122	78.68
216.341	95.06
216.559	-29.87
216.778	29.52
216.996	95.06
217.214	66.39
217.432	23.38
217.651	-11.43
217.869	78.68
218.087	21.33
218.306	66.39
218.524	21.33
218.742	-3.24
218.96	131.92
219.179	-42.15
219.397	27.48
219.615	70.48
219.833	84.82
220.051	7
220.27	80.72
220.488	64.34
220.706	19.29
220.924	78.68
221.142	-3.24
221.36	7
221.578	45.91
221.796	21.33
222.015	11.09
222.233	80.72
222.451	43.86
222.669	25.43
222.887	21.33
223.105	4.95
223.323	62.29
223.541	52.05
223.759	35.67
223.977	78.68
224.195	25.43
224.413	31.57
224.631	-44.2
224.849	47.96
225.067	93.01
225.285	-1.19
225.503	50
225.721	7
225.939	21.33
226.157	31.57
226.375	146.26
226.592	11.09
226.81	35.67
227.028	-13.48
227.246	78.68
227.464	54.1
227.682	66.39
227.9	97.11
228.117	7
228.335	11.09
228.553	13.14
228.771	97.11
228.989	45.91
229.206	97.11
229.424	7
229.642	39.76
229.86	31.57
230.077	70.48
230.295	58.2
230.513	72.53
230.731	-25.77
230.948	15.19
231.166	72.53
231.384	21.33
231.601	13.14
231.819	17.24
232.037	-9.39
232.254	0.85
232.472	-21.67
232.689	97.11
232.907	74.58
233.125	62.29
233.342	47.96
233.56	-19.63
233.777	19.29
233.995	19.29
234.213	39.76
234.43	-11.43
234.648	4.95
234.865	31.57
235.083	60.24
235.3	-3.24
235.518	2.9
235.735	41.81
235.953	37.72
236.17	60.24
236.388	-3.24
236.605	70.48
236.822	58.2
237.04	-1.19
237.257	31.57
237.475	-11.43
237.692	-40.11
237.909	54.1
238.127	13.14
238.344	50
238.562	7
238.779	27.48
238.996	62.29
239.214	-19.63
239.431	74.58
239.648	86.87
239.865	58.2
240.083	31.57
240.3	60.24
240.517	-7.34
240.735	33.62
240.952	54.1
241.169	41.81
241.386	43.86
241.603	4.95
241.821	-5.29
242.038	29.52
242.255	27.48
242.472	64.34
242.689	50
242.907	43.86
243.124	56.15
243.341	54.1
243.558	33.62
243.775	29.52
243.992	-52.39
244.209	29.52
244.426	-25.77
244.643	45.91
244.86	54.1
245.078	29.52
245.295	-23.72
245.512	-5.29
245.729	0.85
245.946	68.44
246.163	64.34
246.38	31.57
246.597	70.48
246.814	33.62
247.031	54.1
247.248	58.2
247.464	13.14
247.681	-17.58
247.898	-31.91
248.115	52.05
248.332	7
248.549	64.34
248.766	21.33
248.983	50
249.2	58.2
249.417	17.24
249.633	7
249.85	88.92
250.067	93.01
250.284	37.72
250.501	62.29
250.717	19.29
250.934	78.68
251.151	56.15
251.368	99.16
251.585	15.19
251.801	-11.43
252.018	54.1
252.235	58.2
252.451	45.91
252.668	29.52
252.885	21.33
253.102	-27.82
253.318	4.95
253.535	-72.87
253.752	-23.72
253.968	54.1
254.185	37.72
254.401	-17.58
254.618	60.24
254.835	39.76
255.051	140.12
255.268	23.38
255.484	4.95
255.701	4.95
255.917	23.38
256.134	-3.24
256.351	15.19
256.567	-11.43
256.784	33.62
257	68.44
257.217	76.63
257.433	21.33
257.65	-19.63
257.866	45.91
258.082	31.57
258.299	29.52
258.515	-21.67
258.732	35.67
258.948	-21.67
259.165	45.91
259.381	-40.11
259.597	47.96
259.814	2.9
260.03	-50.35
260.246	23.38
260.463	-5.29
260.679	88.92
260.895	50
261.112	76.63
261.328	41.81
261.544	-27.82
261.761	56.15
261.977	78.68
262.193	62.29
262.409	19.29
262.626	-1.19
262.842	64.34
263.058	-13.48
263.274	56.15
263.49	60.24
263.707	15.19
263.923	41.81
264.139	31.57
264.355	-9.39
264.571	15.19
264.787	-38.06
265.004	66.39
265.22	-40.11
265.436	45.91
265.652	25.43
265.868	43.86
266.084	-58.54
266.3	-13.48
266.516	-25.77
266.732	-5.29
266.948	41.81
267.164	45.91
267.38	70.48
267.596	37.72
267.812	109.4
268.028	-29.87
268.244	-52.39
268.46	76.63
268.676	-46.25
268.892	82.77
269.108	21.33
269.324	-27.82
269.54	21.33
269.756	43.86
269.972	-44.2
270.188	29.52
270.403	0.85
270.619	86.87
270.835	41.81
271.051	74.58
271.267	-9.39
271.483	-36.01
271.698	-17.58
271.914	47.96
272.13	0.85
272.346	66.39
272.562	-13.48
272.777	23.38
272.993	47.96
273.209	93.01
273.425	76.63
273.64	-44.2
273.856	50
274.072	50
274.287	2.9
274.503	70.48
274.719	11.09
274.934	-36.01
275.15	-42.15
275.366	19.29
275.581	-1.19
275.797	39.76
276.012	17.24
276.228	15.19
276.444	-19.63
276.659	43.86
276.875	27.48
277.09	47.96
277.306	2.9
277.521	35.67
277.737	45.91
277.952	58.2
278.168	39.76
278.383	-19.63
278.599	43.86
278.814	72.53
279.03	2.9
279.245	0.85
279.461	11.09
279.676	50
279.892	11.09
280.107	21.33
280.322	2.9
280.538	47.96
280.753	66.39
280.969	29.52
281.184	29.52
281.399	78.68
281.615	-7.34
281.83	0.85
282.045	-36.01
282.26	39.76
282.476	-11.43
282.691	88.92
282.906	0.85
283.122	52.05
283.337	15.19
283.552	54.1
283.767	-50.35
283.983	21.33
284.198	-62.63
284.413	29.52
284.628	-21.67
284.843	52.05
285.058	29.52
285.274	29.52
285.489	31.57
285.704	11.09
285.919	31.57
286.134	54.1
286.349	-7.34
286.564	21.33
286.779	0.85
286.995	54.1
287.21	54.1
287.425	66.39
287.64	-29.87
287.855	-21.67
288.07	54.1
288.285	60.24
288.5	54.1
288.715	29.52
288.93	37.72
289.145	35.67
289.36	29.52
289.575	64.34
289.79	0.85
290.004	86.87
290.219	72.53
290.434	31.57
290.649	-11.43
290.864	4.95
291.079	-31.91
291.294	113.49
291.509	-25.77
291.724	74.58
291.938	17.24
292.153	35.67
292.368	21.33
292.583	23.38
292.798	4.95
293.012	80.72
293.227	-13.48
293.442	31.57
293.657	2.9
293.871	52.05
294.086	25.43
294.301	58.2
294.516	4.95
294.73	27.48
294.945	-38.06
295.16	15.19
295.374	31.57
295.589	54.1
295.804	131.92
296.018	62.29
296.233	-13.48
296.447	39.76
296.662	37.72
296.877	121.68
297.091	97.11
297.306	0.85
297.52	19.29
297.735	-21.67
297.949	0.85
298.164	45.91
298.378	19.29
298.593	-3.24
298.807	0.85
299.022	82.77
299.236	25.43
299.451	41.81
299.665	47.96
299.88	54.1
300.094	37.72
300.309	-11.43
300.523	-27.82
300.737	60.24
300.952	41.81
301.166	56.15
301.381	-9.39
301.595	95.06
301.809	2.9
302.024	54.1
302.238	-7.34
302.452	84.82
302.667	84.82
302.881	35.67
303.095	15.19
303.309	-25.77
303.524	0.85
303.738	70.48
303.952	31.57
304.166	-42.15
304.381	-9.39
304.595	39.76
304.809	4.95
305.023	119.64
305.237	-27.82
305.452	21.33
305.666	35.67
305.88	78.68
306.094	35.67
306.308	74.58
306.522	133.97
306.736	19.29
306.95	68.44
307.164	78.68
307.379	9.05
307.593	15.19
307.807	33.62
308.021	54.1
308.235	82.77
308.449	37.72
308.663	9.05
308.877	41.81
309.091	84.82
309.305	2.9
309.519	64.34
309.733	99.16
309.947	37.72
310.161	2.9
310.374	-7.34
310.588	86.87
310.802	11.09
311.016	4.95
311.23	-1.19
311.444	9.05
311.658	90.96
311.872	-46.25
312.085	39.76
312.299	-31.91
312.513	82.77
312.727	58.2
312.941	21.33
313.154	74.58
313.368	4.95
313.582	29.52
313.796	97.11
314.009	54.1
314.223	7
314.437	-21.67
314.651	35.67
314.864	62.29
315.078	-5.29
315.292	43.86
315.505	-19.63
315.719	47.96
315.933	93.01
316.146	41.81
316.36	-23.72
316.573	21.33
316.787	88.92
317.001	31.57
317.214	68.44
317.428	35.67
317.641	80.72
317.855	21.33
318.068	43.86
318.282	41.81
318.495	31.57
318.709	-3.24
318.922	11.09
319.136	17.24
319.349	70.48
319.563	50
319.776	50
319.99	74.58
320.203	47.96
320.417	-23.72
320.63	82.77
320.843	58.2
321.057	31.57
321.27	43.86
321.483	47.96
321.697	76.63
321.91	70.48
322.124	70.48
322.337	31.57
322.55	-15.53
322.763	64.34
322.977	99.16
323.19	-13.48
323.403	64.34
323.617	39.76
323.83	66.39
324.043	37.72
324.256	88.92
324.469	-33.96
324.683	107.35
324.896	76.63
325.109	-17.58
325.322	-3.24
325.535	41.81
325.748	56.15
325.962	21.33
326.175	70.48
326.388	4.95
326.601	68.44
326.814	72.53
327.027	60.24
327.24	101.2
327.453	35.67
327.666	25.43
327.879	47.96
328.092	19.29
328.305	88.92
328.518	27.48
328.731	74.58
328.944	64.34
329.157	90.96
329.37	52.05
329.583	-1.19
329.796	23.38
330.009	23.38
330.222	60.24
330.435	-54.44
330.648	41.81
330.861	-48.3
331.073	41.81
331.286	62.29
331.499	35.67
331.712	2.9
331.925	95.06
332.138	41.81
332.35	52.05
332.563	27.48
332.776	64.34
332.989	52.05
333.202	37.72
333.414	-7.34
333.627	76.63
333.84	25.43
334.053	-1.19
334.265	54.1
334.478	64.34
334.691	70.48
334.903	72.53
335.116	15.19
335.329	-3.24
335.541	62.29
335.754	93.01
335.966	54.1
336.179	43.86
336.392	17.24
336.604	72.53
336.817	52.05
337.029	-17.58
337.242	117.59
337.454	117.59
337.667	-44.2
337.88	136.02
338.092	88.92
338.305	113.49
338.517	31.57
338.729	66.39
338.942	88.92
339.154	68.44
339.367	-1.19
339.579	37.72
339.792	-1.19
340.004	62.29
340.217	11.09
340.429	25.43
340.641	29.52
340.854	-7.34
341.066	23.38
341.278	103.25
341.491	60.24
341.703	45.91
341.915	41.81
342.128	50
342.34	84.82
342.552	9.05
342.764	25.43
342.977	80.72
343.189	62.29
343.401	35.67
343.613	31.57
343.826	60.24
344.038	23.38
344.25	119.64
344.462	45.91
344.674	13.14
344.886	43.86
345.099	117.59
345.311	-3.24
345.523	72.53
345.735	25.43
345.947	-3.24
346.159	58.2
346.371	33.62
346.583	37.72
346.795	68.44
347.007	62.29
347.219	15.19
347.431	37.72
347.643	123.73
347.855	23.38
348.067	58.2
348.279	-15.53
348.491	52.05
348.703	-11.43
348.915	23.38
349.127	27.48
349.339	70.48
349.551	-58.54
349.763	66.39
349.975	-33.96
350.187	54.1
350.399	121.68
350.61	31.57
350.822	-42.15
351.034	17.24
351.246	4.95
351.458	50
351.669	37.72
351.881	27.48
352.093	144.21
352.305	60.24
352.517	37.72
352.728	52.05
352.94	47.96
353.152	-11.43
353.363	11.09
353.575	21.33
353.787	52.05
353.999	62.29
354.21	-27.82
354.422	15.19
354.633	-15.53
354.845	88.92
355.057	37.72
355.268	78.68
355.48	56.15
355.692	66.39
355.903	88.92
356.115	50
356.326	-17.58
356.538	117.59
356.749	31.57
356.961	52.05
357.172	72.53
357.384	9.05
357.595	93.01
357.807	47.96
358.018	35.67
358.23	35.67
358.441	52.05
358.653	-33.96
358.864	31.57
359.075	4.95
359.287	15.19
359.498	86.87
359.709	72.53
359.921	70.48
360.132	54.1
360.344	35.67
360.555	56.15
360.766	70.48
360.977	37.72
361.189	35.67
361.4	117.59
361.611	76.63
361.823	78.68
362.034	21.33
362.245	90.96
362.456	29.52
362.667	-7.34
362.879	4.95
363.09	50
363.301	39.76
363.512	60.24
363.723	7
363.935	31.57
364.146	103.25
364.357	113.49
364.568	9.05
364.779	-3.24
364.99	115.54
365.201	74.58
365.412	72.53
365.623	-87.21
365.834	-1.19
366.045	-44.2
366.256	111.44
366.467	111.44
366.678	-25.77
366.889	50
367.1	25.43
367.311	88.92
367.522	27.48
367.733	27.48
367.944	129.88
368.155	82.77
368.366	37.72
368.577	29.52
368.788	0.85
368.999	21.33
369.209	86.87
369.42	93.01
369.631	80.72
369.842	2.9
370.053	54.1
370.264	15.19
370.474	31.57
370.685	154.45
370.896	-21.67
371.107	58.2
371.317	129.88
371.528	-42.15
371.739	119.64
371.95	60.24
372.16	21.33
372.371	101.2
372.582	56.15
372.792	45.91
373.003	70.48
373.214	4.95
373.424	33.62
373.635	-9.39
373.846	9.05
374.056	13.14
374.267	37.72
374.477	60.24
374.688	4.95
374.898	15.19
375.109	19.29
375.319	19.29
375.53	76.63
375.74	9.05
375.951	90.96
376.161	-3.24
376.372	47.96
376.582	-13.48
376.793	37.72
377.003	-23.72
377.214	47.96
377.424	43.86
377.635	47.96
377.845	82.77
378.055	62.29
378.266	33.62
378.476	47.96
378.686	-9.39
378.897	101.2
379.107	54.1
379.317	33.62
379.528	45.91
379.738	105.3
379.948	70.48
380.158	127.83
380.369	54.1
380.579	56.15
380.789	68.44
380.999	93.01
381.21	74.58
381.42	78.68
381.63	56.15
381.84	88.92
382.05	35.67
382.261	70.48
382.471	78.68
382.681	17.24
382.891	82.77
383.101	95.06
383.311	2.9
383.521	-46.25
383.731	66.39
383.941	54.1
384.151	121.68
384.361	11.09
384.571	41.81
384.781	82.77
384.991	97.11
385.201	95.06
385.411	127.83
385.621	60.24
385.831	35.67
386.041	50
386.251	60.24
386.461	43.86
386.671	-9.39
386.881	101.2
387.091	95.06
387.301	115.54
387.511	109.4
387.72	121.68
387.93	11.09
388.14	-5.29
388.35	97.11
388.56	50
388.769	64.34
388.979	125.78
389.189	15.19
389.399	107.35
389.609	58.2
389.818	23.38
390.028	121.68
390.238	54.1
390.447	23.38
390.657	117.59
390.867	50
391.076	39.76
391.286	-1.19
391.496	31.57
391.705	39.76
391.915	66.39
392.125	33.62
392.334	54.1
392.544	136.02
392.753	68.44
392.963	4.95
393.172	50
393.382	37.72
393.591	123.73
393.801	21.33
394.01	29.52
394.22	166.74
394.429	9.05
394.639	88.92
394.848	52.05
395.058	66.39
395.267	109.4
395.477	148.31
395.686	95.06
395.895	86.87
396.105	68.44
396.314	119.64
396.524	103.25
396.733	33.62
396.942	80.72
397.152	58.2
397.361	150.36
397.57	154.45
397.78	84.82
397.989	136.02
398.198	158.55
398.407	37.72
398.617	103.25
398.826	105.3
399.035	119.64
399.244	117.59
399.453	95.06
399.663	125.78
399.872	72.53
400.081	146.26
400.29	150.36
400.499	-5.29
400.708	127.83
400.917	84.82
401.127	109.4
401.336	78.68
401.545	117.59
401.754	82.77
401.963	76.63
402.172	82.77
402.381	121.68
402.59	164.69
402.799	144.21
403.008	90.96
403.217	144.21
403.426	129.88
403.635	162.64
403.844	62.29
404.053	129.88
404.262	99.16
404.471	174.93
404.68	101.2
404.888	168.79
405.097	64.34
405.306	179.03
405.515	207.7
405.724	152.4
405.933	164.69
406.142	156.5
406.35	191.31
406.559	162.64
406.768	170.83
406.977	197.46
407.185	201.55
407.394	203.6
407.603	222.03
407.812	154.45
408.02	242.51
408.229	219.99
408.438	154.45
408.646	166.74
408.855	271.19
409.064	312.14
409.272	168.79
409.481	267.09
409.69	334.67
409.898	244.56
410.107	322.38
410.315	353.1
410.524	387.92
410.733	265.04
410.941	351.06
411.15	381.78
411.358	316.24
411.567	418.64
411.775	400.21
411.984	416.59
412.192	383.82
412.401	439.12
412.609	387.92
412.818	486.22
413.026	545.61
413.234	420.69
413.443	478.03
413.651	469.84
413.86	484.17
414.068	594.76
414.276	678.73
414.485	652.11
414.693	662.35
414.901	682.83
415.11	709.45
415.318	723.79
415.526	742.22
415.734	727.88
415.943	723.79
416.151	799.56
416.359	764.75
416.567	791.37
416.776	924.49
416.984	877.38
417.192	906.06
417.4	934.73
417.608	1030.98
417.817	1039.17
418.025	1088.32
418.233	1061.7
418.441	1094.47
418.649	1143.62
418.857	1205.06
419.065	1239.87
419.273	1278.79
419.481	1289.03
419.689	1356.61
419.897	1469.25
420.105	1440.58
420.313	1514.3
420.521	1520.45
420.729	1567.55
420.937	1631.04
421.145	1684.28
421.353	1872.7
421.561	1817.4
421.769	1882.94
421.977	2026.29
422.185	1956.66
422.393	2136.88
422.601	2016.05
422.809	2222.9
423.017	2263.86
423.224	2333.49
423.432	2310.96
423.64	2513.71
423.848	2607.92
424.056	2577.2
424.263	2736.94
424.471	2661.16
424.679	2751.28
424.887	2911.02
425.094	3021.61
425.302	3029.8
425.51	3220.26
425.718	3296.04
425.925	3283.75
426.133	3576.61
426.341	3541.79
426.548	3818.27
426.756	3951.39
426.964	3894.04
427.171	4102.93
427.379	4137.75
427.586	4264.72
427.794	4371.22
428.001	4633.36
428.209	4870.92
428.417	4713.23
428.624	5094.15
428.832	4971.27
429.039	4905.74
429.247	5034.76
429.454	5579.52
429.662	5839.61
429.869	5384.96
430.076	5927.67
430.284	5753.6
430.491	5999.35
430.699	6218.49
430.906	6290.17
431.114	6415.09
431.321	6593.26
431.528	6791.92
431.736	7250.66
431.943	7508.71
432.15	7246.57
432.358	7344.87
432.565	7738.08
432.772	7820
432.979	8176.34
433.187	8368.85
433.394	8418
433.601	8997.58
433.808	9067.21
434.016	8962.76
434.223	9495.24
434.43	9857.73
434.637	9704.13
434.844	10232.51
435.052	10363.58
435.259	10468.02
435.466	10562.23
435.673	10414.77
435.88	11166.38
436.087	11885.22
436.294	11907.74
436.501	11342.5
436.708	11809.44
436.915	12376.73
437.122	12475.03
437.329	12724.88
437.537	12989.07
437.743	13142.67
437.95	13081.23
438.157	13855.36
438.364	14353.02
438.571	14129.79
438.778	14277.24
438.985	15725.16
439.192	14869.11
439.399	15436.39
439.606	15374.95
439.813	16300.64
440.02	17058.39
440.227	16566.87
440.433	16370.27
440.64	17123.92
440.847	16968.27
441.054	17414.73
441.261	18483.77
441.467	18403.9
441.674	18758.2
441.881	19501.61
442.088	19270.19
442.294	19257.9
442.501	20206.11
442.708	20275.74
442.914	20994.58
443.121	21883.4
443.328	21252.63
443.534	22460.93
443.741	22030.85
443.948	21914.12
444.154	23622.12
444.361	22981.11
444.568	23654.89
444.774	23454.19
444.981	23808.49
445.187	24302.05
445.394	25366.99
445.6	25170.39
445.807	27646.38
446.013	26460.61
446.22	26982.84
446.426	28211.62
446.633	28221.86
446.839	29159.83
447.046	28051.88
447.252	29505.94
447.459	29479.32
447.665	29514.13
447.871	30808.45
448.078	32354.66
448.284	30464.39
448.491	31353.21
448.697	32534.88
448.903	32754.02
449.11	32962.91
449.316	32651.62
449.522	32932.19
449.728	33978.7
449.935	34244.94
450.141	34011.47
450.347	35244.35
450.553	34160.97
450.76	34646.34
450.966	35582.26
451.172	35125.57
451.378	35981.62
451.584	35248.44
451.791	36075.82
451.997	35858.74
452.203	36456.75
452.409	36473.13
452.615	36364.59
452.821	35111.23
453.027	34775.36
453.233	36430.12
453.44	34941.25
453.646	35410.23
453.852	35367.23
454.058	36135.21
454.264	34691.4
454.47	35969.33
454.676	34574.66
454.882	35989.81
455.088	32950.62
455.294	33270.11
455.5	33573.21
455.705	34152.78
455.911	32538.98
456.117	31711.6
456.323	31486.32
456.529	30089.61
456.735	31261.05
456.941	30448
457.147	29634.96
457.352	28914.08
457.558	28285.35
457.764	28672.42
457.97	27902.38
458.176	27271.61
458.381	27300.28
458.587	26292.68
458.793	26231.24
458.999	24650.21
459.204	26425.79
459.41	25631.18
459.616	24027.62
459.821	23988.71
460.027	24039.91
460.233	23423.47
460.438	22112.77
460.644	22602.24
460.85	21631.5
461.055	21180.95
461.261	20810.26
461.466	19495.47
461.672	18676.28
461.878	20154.91
462.083	19055.15
462.289	18555.45
462.494	18627.13
462.7	17705.54
462.905	17398.35
463.111	17658.44
463.316	17666.63
463.522	17236.56
463.727	17345.1
463.932	17312.33
464.138	17254.99
464.343	17324.62
464.549	16786.01
464.754	17384.01
464.959	17097.3
465.165	16902.74
465.37	16263.77
465.575	15778.4
465.781	16632.41
465.986	16581.21
466.191	15909.47
466.397	15747.69
466.602	15041.14
466.807	15569.51
467.012	15465.07
467.218	15415.91
467.423	15155.82
467.628	15403.63
467.833	15897.19
468.038	15385.19
468.244	14856.82
468.449	15307.37
468.654	14758.52
468.859	14885.49
469.064	14805.62
469.269	13853.31
469.474	14293.63
469.679	14697.08
469.885	14185.08
470.09	14332.54
470.295	14387.83
470.5	13693.57
470.705	14074.49
470.91	13904.51
471.115	13599.37
471.32	13746.82
471.525	13570.69
471.73	13480.58
471.935	13226.64
472.139	12847.76
472.344	12944.02
472.549	13003.41
472.754	12690.07
472.959	12284.57
473.164	12237.47
473.369	11950.75
473.574	12546.71
473.778	12331.67
473.983	12094.11
474.188	12216.99
474.393	11629.22
474.598	11612.84
474.802	11512.49
475.007	11592.36
475.212	11666.08
475.417	11166.38
475.621	11049.64
475.826	11229.87
476.031	10846.9
476.235	10719.92
476.44	11004.59
476.645	10635.96
476.849	10640.05
477.054	10597.04
477.259	10300.09
477.463	10164.92
477.668	10078.91
477.872	10265.27
478.077	9992.89
478.282	9933.5
478.486	9738.94
478.691	9839.3
478.895	9628.35
479.1	9423.56
479.304	9601.73
479.509	9333.45
479.713	9517.76
479.918	9136.84
480.122	9259.72
480.326	9196.23
480.531	9265.86
480.735	9222.86
480.94	9179.85
481.144	9501.38
481.348	8790.74
481.553	8864.46
481.757	8811.21
481.961	9165.51
482.166	9147.08
482.37	9089.74
482.574	8862.41
482.778	8850.13
482.983	9124.55
483.187	8995.53
483.391	8866.51
483.595	8819.41
483.8	8776.4
484.004	8940.24
484.208	9001.68
484.412	8739.54
484.616	9042.64
484.821	9028.3
485.025	8749.78
485.229	8942.28
485.433	8803.02
485.637	8794.83
485.841	9030.35
486.045	8794.83
486.249	8817.36
486.453	9007.82
486.657	9040.59
486.861	8862.41
487.065	8690.38
487.269	8663.76
487.473	8686.29
487.677	8778.45
487.881	8913.61
488.085	8757.97
488.289	8985.29
488.493	8940.24
488.697	9046.73
488.901	8880.85
489.105	8985.29
489.309	9073.35
489.512	9061.07
489.716	8966.86
489.92	9036.49
490.124	8870.61
490.328	9192.14
490.531	9028.3
490.735	9183.95
490.939	9218.76
491.143	9065.16
491.346	9149.13
491.55	9132.75
491.754	9042.64
491.958	9331.4
492.161	9208.52
492.365	9312.97
492.569	9229
492.772	9290.44
492.976	9378.5
493.18	9622.21
493.383	9507.52
493.587	9603.78
493.79	9671.36
493.994	9708.23
494.197	9616.07
494.401	9974.46
494.605	9824.96
494.808	10044.09
495.012	9878.21
495.215	10169.02
495.419	10031.8
495.622	10056.38
495.825	10281.66
496.029	10138.3
496.232	10463.93
496.436	10312.38
496.639	10859.18
496.843	10592.95
497.046	10721.97
497.249	10941.1
497.453	10992.3
497.656	10916.53
497.859	11102.89
498.063	11348.65
498.266	11621.03
498.469	11365.03
498.673	11539.11
498.876	11797.15
499.079	11883.17
499.282	11760.29
499.485	12153.5
499.689	12137.12
499.892	12259.99
500.095	12321.43
500.298	12651.16
500.501	12712.6
500.705	12872.34
500.908	13177.48
501.111	13197.96
501.314	13329.03
501.517	13447.82
501.72	13415.05
501.923	13597.32
502.126	13898.37
502.329	14105.21
502.532	14123.65
502.735	14176.89
502.938	14291.58
503.141	14686.84
503.344	14611.06
503.547	14791.28
503.75	14985.84
503.953	15086.19
504.156	15487.59
504.359	15319.66
504.562	15565.42
504.765	15788.64
504.968	15843.94
505.17	16155.23
505.373	16134.75
505.576	16398.94
505.779	16718.42
505.982	16706.13
506.185	17191.5
506.387	17072.72
506.59	17062.48
506.793	17510.99
506.996	17508.94
507.198	18162.24
507.401	17848.9
507.604	18156.1
507.807	18547.26
508.009	18399.8
508.212	18694.71
508.415	19065.39
508.617	18969.14
508.82	19380.78
509.022	19102.26
509.225	19280.43
509.428	19796.52
509.63	20003.36
509.833	20159.01
510.035	20527.64
510.238	20070.95
510.44	20734.49
510.643	20615.71
510.845	21234.19
511.048	20771.35
511.25	20863.51
511.453	21387.79
511.655	22082.05
511.858	21774.86
512.06	22041.09
512.262	22340.1
512.465	22204.93
512.667	22688.25
512.87	22831.61
513.072	23153.14
513.274	23302.64
513.477	23599.6
513.679	23880.17
513.881	24023.53
514.084	24564.19
514.286	24087.01
514.488	24158.69
514.69	25082.33
514.893	24912.35
515.095	25063.89
515.297	25192.92
515.499	25377.23
515.701	25895.37
515.904	26032.58
516.106	25829.84
516.308	26356.16
516.51	26661.31
516.712	26786.24
516.914	26810.81
517.116	27435.44
517.318	27290.04
517.52	27421.11
517.722	27910.57
517.925	27845.04
518.127	28168.62
518.329	28307.88
518.531	28682.66
518.733	28967.32
518.935	29362.58
519.136	29272.47
519.338	29516.18
519.54	29591.95
519.742	29759.89
519.944	30179.72
520.146	30269.83
520.348	30374.28
520.55	30824.83
520.752	30822.78
520.954	31611.25
521.155	30886.27
521.357	31488.37
521.559	31885.68
521.761	32317.8
521.963	32104.81
522.164	32391.53
522.366	32567.65
522.568	32463.21
522.77	32766.31
522.971	32926.05
523.173	32983.39
523.375	33513.81
523.576	33454.42
523.778	33642.84
523.98	33927.5
524.181	33974.61
524.383	33888.59
524.584	34349.39
524.786	34312.52
524.988	34236.75
525.189	34658.63
525.391	34707.78
525.592	35125.57
525.794	34924.86
525.995	35397.95
526.197	35227.96
526.398	35594.55
526.6	35506.49
526.801	35526.97
527.003	36036.91
527.204	35651.89
527.406	36458.79
527.607	36067.63
527.808	36755.75
528.01	35762.48
528.211	36165.93
528.412	36540.71
528.614	36751.65
528.815	36538.66
529.016	37112.1
529.218	36712.74
529.419	36870.43
529.62	37245.21
529.822	36983.07
530.023	36692.26
530.224	37269.79
530.425	36821.28
530.626	36974.88
530.828	37122.33
531.029	37611.8
531.23	37144.86
531.431	37091.62
531.632	37077.28
531.833	37617.94
532.035	37064.99
532.236	37349.66
532.437	37331.23
532.638	37564.7
532.839	37423.39
533.04	37587.22
533.241	37378.33
533.442	38195.47
533.643	37533.98
533.844	37599.51
534.045	37591.32
534.246	37122.33
534.447	37835.03
534.648	37536.02
534.849	37736.73
535.05	37374.24
535.251	37531.93
535.451	37832.98
535.652	37650.71
535.853	37605.66
536.054	37718.29
536.255	37787.92
536.456	37241.12
536.657	38181.13
536.857	37230.88
537.058	37077.28
537.259	37724.44
537.46	37902.61
537.66	37572.89
537.861	37886.23
538.062	37339.42
538.263	37411.1
538.463	37513.5
538.664	37683.48
538.865	37564.7
539.065	37507.35
539.266	37091.62
539.466	37822.74
539.667	37261.6
539.868	37802.26
540.068	37505.31
540.269	37439.77
540.469	37439.77
540.67	37128.48
540.87	37685.53
541.071	37355.8
541.271	37599.51
541.472	37292.32
541.672	37212.45
541.873	37122.33
542.073	36559.14
542.274	37699.86
542.474	37413.15
542.675	36751.65
542.875	37392.67
543.075	37237.02
543.276	36733.22
543.476	37237.02
543.676	37177.63
543.877	37218.59
544.077	37345.56
544.277	37347.61
544.478	36925.73
544.678	37298.46
544.878	37105.95
545.078	37247.26
545.279	37024.03
545.479	36690.21
545.679	37101.86
545.879	36897.06
546.079	37294.36
546.28	36774.18
546.48	36927.78
546.68	36952.35
546.88	36901.15
547.08	37257.5
547.28	37030.18
547.48	36577.58
547.68	36876.58
547.88	36542.76
548.081	37028.13
548.281	36792.61
548.481	36802.85
548.681	36839.72
548.881	36788.52
549.081	36690.21
549.28	36442.41
549.48	36690.21
549.68	37110.05
549.88	37224.73
550.08	36557.1
550.28	37021.98
550.48	36661.54
550.68	36772.13
550.88	36315.44
551.08	36763.94
551.279	36667.69
551.479	36491.56
551.679	36337.96
551.879	36892.96
552.079	36395.31
552.278	36284.72
552.478	36567.34
552.678	36469.03
552.878	36464.94
553.077	36315.44
553.277	36340.01
553.477	36585.77
553.676	36333.87
553.876	36245.8
554.076	36397.35
554.275	36274.48
554.475	35981.62
554.674	36395.31
554.874	36135.21
555.074	35825.97
555.273	36129.07
555.473	36426.03
555.672	35723.57
555.872	36210.99
556.071	35887.41
556.271	36385.07
556.47	35944.75
556.67	35961.14
556.869	35965.23
557.068	35750.2
557.268	35559.73
557.467	36335.91
557.667	35932.47
557.866	36137.26
558.065	35836.21
558.265	35494.2
558.464	35465.53
558.663	36028.72
558.863	35283.26
559.062	35948.85
559.261	35234.11
559.461	35580.21
559.66	35135.81
559.859	35660.09
560.058	35199.29
560.258	35332.41
560.457	35273.02
560.656	35252.54
560.855	34992.45
561.054	35248.44
561.253	34986.3
561.453	35062.08
561.652	35125.57
561.851	34990.4
562.05	35094.85
562.249	34730.31
562.448	35189.05
562.647	34855.23
562.846	34644.29
563.045	34881.86
563.244	34785.6
563.443	35051.84
563.642	34390.34
563.841	34412.87
564.04	34380.1
564.239	34705.73
564.438	34275.66
564.637	34392.39
564.836	34494.79
565.035	34089.29
565.234	34439.5
565.432	34308.43
565.631	34240.84
565.83	34120.01
566.029	33861.97
566.228	34310.47
566.427	33716.56
566.625	33796.43
566.824	33143.13
567.023	34044.24
567.222	33429.85
567.42	33778
567.619	33675.6
567.818	33503.57
568.016	33263.96
568.215	33806.67
568.414	33311.07
568.612	33911.12
568.811	33597.78
569.01	33341.78
569.208	32788.83
569.407	33212.76
569.605	32819.55
569.804	33018.21
570.002	32768.35
570.201	32723.3
570.4	32749.92
570.598	32303.46
570.797	32407.91
570.995	32627.04
571.193	32313.7
571.392	32590.18
571.59	32022.89
571.789	31951.21
571.987	32074.09
572.186	32004.46
572.384	31900.01
572.582	32244.07
572.781	32199.02
572.979	31574.39
573.177	31900.01
573.376	31799.66
573.574	31306.1
573.772	31154.55
573.971	31314.3
574.169	31322.49
574.367	31066.49
574.565	31359.35
574.763	31244.66
574.962	31160.7
575.16	30966.14
575.358	31373.69
575.556	30534.02
575.754	31166.84
575.952	30568.83
576.151	30962.04
576.349	30464.39
576.547	30572.93
576.745	30755.2
576.943	30585.22
577.141	30701.95
577.339	30361.99
577.537	29962.64
577.735	29974.92
577.933	29893.01
578.131	30175.62
578.329	29675.92
578.527	29628.82
578.725	29575.57
578.923	29936.01
579.121	29917.58
579.319	29637.01
579.516	29976.97
579.714	29276.57
579.912	29575.57
580.11	29268.37
580.308	29237.66
580.506	29043.1
580.704	28561.83
580.901	29462.93
581.099	29213.08
581.297	28807.58
581.495	29135.26
581.692	28762.53
581.89	28713.38
582.088	28883.36
582.285	28670.37
582.483	28696.99
582.681	28522.91
582.878	28424.61
583.076	27949.48
583.274	28322.21
583.471	27908.52
583.669	28068.27
583.866	28051.88
584.064	28434.85
584.262	27830.7
584.459	28123.56
584.657	27906.48
584.854	27838.89
585.052	27306.42
585.249	27462.07
585.447	27658.67
585.644	27306.42
585.841	27369.91
586.039	27670.96
586.236	26782.14
586.434	26896.83
586.631	26974.65
586.828	26806.72
587.026	26911.16
587.223	27048.38
587.42	26909.11
587.618	26591.68
587.815	26425.79
588.012	26339.78
588.21	26350.02
588.407	26589.63
588.604	26169.8
588.801	26212.81
588.999	26247.62
589.196	26235.33
589.393	26071.5
589.59	26204.61
589.787	25797.07
589.984	25719.24
590.182	25463.25
590.379	25858.51
590.576	25194.96
590.773	25674.19
590.97	25483.73
591.167	24977.88
591.364	25260.5
591.561	25383.38
591.758	25065.94
591.955	25235.92
592.152	25092.57
592.349	25143.77
592.546	24875.48
592.743	25039.32
592.94	24752.6
593.137	24852.95
593.334	24871.39
593.531	24576.48
593.727	24633.82
593.924	24527.33
594.121	24371.68
594.318	24721.88
594.515	23808.49
594.712	24283.62
594.908	24130.02
595.105	24107.49
595.302	23906.79
595.499	23843.31
595.696	23538.16
595.892	23661.04
596.089	23843.31
596.286	23482.86
596.482	23417.33
596.679	23534.06
596.876	23507.44
597.072	23292.4
597.269	23443.95
597.466	23017.97
597.662	22960.63
597.859	23190
598.055	23093.75
598.252	22903.29
598.448	22929.91
598.645	22938.1
598.841	22548.99
599.038	22528.51
599.234	22690.3
599.431	22450.69
599.627	22415.87
599.824	22538.75
600.02	22649.34
600.217	22084.1
600.413	22094.34
600.609	21877.26
600.806	21891.59
601.002	22194.69
601.198	21615.12
601.395	21912.07
601.591	21809.67
601.787	21678.6
601.984	21692.94
602.18	21901.83
602.376	21563.92
602.572	21307.92
602.769	21594.64
602.965	21393.93
603.161	21436.94
603.357	21285.39
603.553	20863.51
603.75	21144.08
603.946	20955.67
604.142	20902.42
604.338	20853.27
604.534	20685.34
604.73	20724.25
604.926	20357.66
605.122	20759.06
605.318	20677.15
605.514	20437.53
605.71	20439.58
605.906	20382.24
606.102	20474.4
606.298	20486.68
606.494	20441.63
606.69	20382.24
606.886	20380.19
607.082	19956.26
607.278	20484.64
607.474	19933.73
607.67	20159.01
607.866	19657.26
608.062	20247.07
608.257	19757.61
608.453	19833.38
608.649	19909.16
608.845	19634.73
609.041	19546.67
609.236	19319.34
609.432	19681.83
609.628	19917.35
609.824	19606.06
610.019	19581.48
610.215	19341.87
610.411	19501.61
610.606	19358.25
610.802	19343.92
610.998	19345.97
611.193	19182.13
611.389	19102.26
611.584	19194.42
611.78	18879.03
611.976	18707
612.171	19196.46
612.367	18960.95
612.562	18774.58
612.758	18831.93
612.953	18614.84
613.149	18944.56
613.344	18553.4
613.539	18582.07
613.735	18745.91
613.93	18698.81
614.126	18870.84
614.321	18725.43
614.517	18659.9
614.712	18383.42
614.907	18342.46
615.103	18590.27
615.298	18573.88
615.493	18575.93
615.688	18371.13
615.884	18510.39
616.079	18072.13
616.274	18268.73
616.47	18207.3
616.665	18195.01
616.86	18047.55
617.055	18315.84
617.25	17904.2
617.445	17973.83
617.641	17762.89
617.836	17986.11
618.031	17699.4
618.226	17723.97
618.421	17472.07
618.616	17705.54
618.811	17363.53
619.006	17662.54
619.201	17289.81
619.396	17459.79
619.591	17058.39
619.786	17506.89
619.981	17011.28
620.176	17095.25
620.371	16925.27
620.566	16970.32
620.761	16603.74
620.956	17021.52
621.151	16710.23
621.346	16812.63
621.541	16513.63
621.735	16781.91
621.93	16364.12
622.125	16204.38
622.32	16163.42
622.515	16255.58
622.709	16058.98
622.904	16065.12
623.099	15936.1
623.294	16136.8
623.488	15762.02
623.683	15665.77
623.878	15520.36
624.072	15532.65
624.267	15647.33
624.462	15475.31
624.656	15108.72
624.851	15331.95
625.046	15174.25
625.24	15200.88
625.435	15030.9
625.629	15108.72
625.824	14727.8
626.018	15000.18
626.213	14371.45
626.407	14383.74
626.602	14355.07
626.796	14355.07
626.991	14488.18
627.185	14033.54
627.38	13984.38
627.574	14111.36
627.768	13859.46
627.963	14326.39
628.157	13939.33
628.352	13757.06
628.546	13652.61
628.74	13765.25
628.935	13593.22
629.129	13709.96
629.323	13410.95
629.517	13214.35
629.712	13273.74
629.906	13138.57
630.1	13013.65
630.294	12968.59
630.489	13052.56
630.683	12989.07
630.877	12688.02
631.071	12890.77
631.265	12622.48
631.459	12731.03
631.653	12487.32
631.848	12466.84
632.042	12466.84
632.236	12593.81
632.43	12298.91
632.624	12405.4
632.818	12087.96
633.012	11840.16
633.206	11872.93
633.4	12030.62
633.594	11788.96
633.788	11895.46
633.982	11850.4
634.176	11952.8
634.369	11799.2
634.563	11719.33
634.757	11608.74
634.951	11661.99
635.145	11412.14
635.339	11657.89
635.533	11160.24
635.726	11213.48
635.92	11123.37
636.114	11346.6
636.308	11104.94
636.501	10863.28
636.695	11096.75
636.889	10750.64
637.083	10924.72
637.276	10736.31
637.47	10945.2
637.664	10795.7
637.857	10818.22
638.051	10615.48
638.244	10533.56
638.438	10633.91
638.632	10285.75
638.825	10566.32
639.019	10252.98
639.212	10324.66
639.406	10121.91
639.599	10150.59
639.793	10242.75
639.986	9910.97
640.18	10080.96
640.373	9958.08
640.567	9800.38
640.76	9878.21
640.954	9833.15
641.147	9591.49
641.34	9489.09
641.534	9765.57
641.727	9566.92
641.92	9867.97
642.114	9476.8
642.307	9599.68
642.5	9280.2
642.694	9155.27
642.887	9239.24
643.08	9323.21
643.273	9118.41
643.467	9267.91
643.66	8991.44
643.853	8985.29
644.046	8755.92
644.239	8841.93
644.432	8899.28
644.626	8710.86
644.819	8901.33
645.012	8856.27
645.205	8489.68
645.398	8694.48
645.591	8653.52
645.784	8448.72
645.977	8563.41
646.17	8653.52
646.363	8256.22
646.556	8323.8
646.749	8354.52
646.942	8284.89
647.135	8295.13
647.328	8178.39
647.521	8211.16
647.714	7994.08
647.907	8114.91
648.099	8100.57
648.292	8012.51
648.485	7920.35
648.678	7719.65
648.871	7805.66
649.064	7760.61
649.256	7807.71
649.449	7672.54
649.642	7785.18
649.835	7699.17
650.027	7508.71
650.22	7416.55
650.413	7551.71
650.605	7443.17
650.798	7502.56
650.991	7334.63
651.183	7334.63
651.376	7312.1
651.568	7293.67
651.761	7197.42
651.954	7230.18
652.146	7287.53
652.339	6927.08
652.531	7072.49
652.724	6959.85
652.916	6849.26
653.109	6892.27
653.301	6968.04
653.494	6945.52
653.686	6712.05
653.879	6949.61
654.071	6873.84
654.263	6775.53
654.456	6689.52
654.648	6683.38
654.84	6527.73
655.033	6691.57
655.225	6617.84
655.417	6515.44
655.61	6447.86
655.802	6685.42
655.994	6408.95
656.186	6454
656.379	6281.97
656.571	6480.63
656.763	6345.46
656.955	6257.4
657.148	6005.5
657.34	6220.53
657.532	6195.96
657.724	6099.7
657.916	6208.25
658.108	6251.25
658.3	5989.11
658.492	6050.55
658.684	5929.72
658.876	5946.11
659.068	5978.87
659.26	5858.04
659.452	5839.61
659.644	5747.45
659.836	5847.8
660.028	5790.46
660.22	5679.87
660.412	5772.03
660.604	5753.6
660.796	5675.77
660.988	5696.25
661.18	5458.69
661.372	5655.3
661.563	5489.41
661.755	5688.06
661.947	5573.38
662.139	5413.63
662.331	5311.24
662.522	5327.62
662.714	5401.35
662.906	5380.87
663.097	5298.95
663.289	5270.28
663.481	5344
663.673	5397.25
663.864	5141.25
664.056	4942.6
664.247	5108.49
664.439	5049.1
664.631	5120.78
664.822	5049.1
665.014	5024.52
665.205	4922.12
665.397	4922.12
665.588	4999.95
665.78	4963.08
665.971	4942.6
666.163	4985.61
666.354	4793.1
666.546	4827.92
666.737	4823.82
666.929	4817.68
667.12	4760.33
667.311	4856.59
667.503	4748.04
667.694	4770.57
667.885	4672.27
668.077	4776.72
668.268	4702.99
668.459	4602.64
668.651	4522.77
668.842	4711.18
669.033	4582.16
669.224	4397.84
669.416	4754.19
669.607	4526.86
669.798	4324.12
669.989	4455.19
670.18	4424.47
670.371	4399.89
670.563	4412.18
670.754	4403.99
670.945	4389.65
671.136	4514.58
671.327	4313.88
671.518	4252.44
671.709	4463.38
671.9	4340.5
672.091	4342.55
672.282	4260.63
672.473	4244.24
672.664	4219.67
672.855	4215.57
673.046	4238.1
673.237	4260.63
673.428	4244.24
673.619	4186.9
673.809	4102.93
674	4076.31
674.191	4008.73
674.382	4064.02
674.573	4143.89
674.764	4088.6
674.954	4066.07
675.145	3961.62
675.336	4078.36
675.527	3943.19
675.717	4076.31
675.908	3928.86
676.099	3980.06
676.289	3896.09
676.48	3738.4
676.671	4059.93
676.861	3861.27
677.052	3963.67
677.243	3891.99
677.433	3935
677.624	3877.66
677.814	3822.36
678.005	3957.53
678.195	3791.64
678.386	3857.18
678.576	3812.12
678.767	3896.09
678.957	3650.33
679.148	3730.2
679.338	3672.86
679.529	3781.4
679.719	3685.15
679.909	3951.39
680.1	3724.06
680.29	3883.8
680.481	3599.13
680.671	3824.41
680.861	3619.61
681.052	3736.35
681.242	3588.89
681.432	3674.91
681.622	3715.87
681.813	3769.12
682.003	3564.32
682.193	3609.37
682.383	3480.35
682.573	3494.69
682.764	3724.06
682.954	3681.05
683.144	3488.54
683.334	3566.37
683.524	3502.88
683.714	3568.41
683.904	3343.14
684.094	3615.52
684.284	3527.46
684.474	3658.53
684.664	3523.36
684.854	3599.13
685.044	3586.85
685.234	3517.22
685.424	3382.05
685.614	3545.89
685.804	3394.34
685.994	3470.11
686.184	3468.06
686.374	3539.74
686.564	3392.29
686.753	3369.76
686.943	3246.88
687.133	3367.71
687.323	3263.27
687.513	3490.59
687.702	3134.25
687.892	3388.19
688.082	3195.68
688.272	3265.32
688.461	3193.64
688.651	3285.8
688.841	3263.27
689.03	3228.45
689.22	3126.05
689.41	3167.01
689.599	3162.92
689.789	3259.17
689.979	3097.38
690.168	3046.18
690.358	3031.85
690.547	3218.21
690.737	3150.63
690.926	3019.56
691.116	3052.33
691.305	3029.8
691.495	3058.47
691.684	2982.7
691.874	3023.66
692.063	3056.42
692.252	3033.9
692.442	2994.98
692.631	2956.07
692.82	2886.44
693.01	2945.83
693.199	2808.62
693.388	2798.38
693.578	2859.82
693.767	2933.54
693.956	2761.52
694.146	2888.49
694.335	2911.02
694.524	2794.28
694.713	2839.34
694.902	2755.37
695.092	2796.33
695.281	2734.89
695.47	2734.89
695.659	2851.63
695.848	2747.18
696.037	2741.04
696.226	2896.68
696.415	2730.8
696.604	2751.28
696.793	2775.85
696.982	2761.52
697.171	2808.62
697.36	2841.39
697.549	2827.05
697.738	2808.62
697.927	2695.98
698.116	2665.26
698.305	2659.12
698.494	2757.42
698.683	2691.88
698.872	2747.18
699.061	2659.12
699.25	2708.27
699.438	2728.75
699.627	2702.12
699.816	2853.67
700.005	2632.49
700.193	2646.83
700.382	2816.81
700.571	2671.4
700.76	2632.49
700.948	2720.56
701.137	2710.32
701.326	2706.22
701.514	2665.26
701.703	2810.67
701.892	2661.16
702.08	2761.52
702.269	2698.03
702.457	2722.6
702.646	2673.45
702.834	2773.8
703.023	2681.64
703.212	2708.27
703.4	2618.16
703.589	2564.91
703.777	2515.76
703.965	2700.08
704.154	2624.3
704.342	2716.46
704.531	2700.08
704.719	2781.99
704.907	2732.84
705.096	2765.61
705.284	2603.82
705.472	2652.97
705.661	2603.82
705.849	2767.66
706.037	2700.08
706.226	2710.32
706.414	2718.51
706.602	2652.97
706.79	2534.19
706.979	2724.65
707.167	2714.41
707.355	2607.92
707.543	2675.5
707.731	2630.45
707.919	2687.79
708.107	2579.25
708.296	2716.46
708.484	2693.93
708.672	2605.87
708.86	2609.97
709.048	2657.07
709.236	2695.98
709.424	2798.38
709.612	2759.47
709.8	2837.29
709.988	2587.44
710.176	2675.5
710.364	2650.92
710.551	2753.32
710.739	2763.56
710.927	2681.64
711.115	2650.92
711.303	2659.12
711.491	2745.13
711.679	2646.83
711.866	2607.92
712.054	2724.65
712.242	2708.27
712.43	2796.33
712.617	2632.49
712.805	2618.16
712.993	2716.46
713.181	2540.33
713.368	2683.69
713.556	2704.17
713.744	2675.5
713.931	2802.47
714.119	2681.64
714.306	2695.98
714.494	2661.16
714.682	2759.47
714.869	2734.89
715.057	2747.18
715.244	2655.02
715.432	2636.59
715.619	2595.63
715.807	2814.76
715.994	2710.32
716.182	2612.01
716.369	2747.18
716.556	2655.02
716.744	2593.58
716.931	2687.79
717.119	2624.3
717.306	2685.74
717.493	2747.18
717.681	2659.12
717.868	2716.46
718.055	2618.16
718.242	2667.31
718.43	2601.77
718.617	2573.1
718.804	2745.13
718.991	2718.51
719.179	2716.46
719.366	2564.91
719.553	2720.56
719.74	2618.16
719.927	2640.69
720.114	2659.12
720.301	2591.53
720.488	2552.62
720.676	2693.93
720.863	2616.11
721.05	2695.98
721.237	2679.6
721.424	2597.68
721.611	2732.84
721.798	2536.24
721.985	2497.33
722.172	2536.24
722.358	2548.53
722.545	2683.69
722.732	2706.22
722.919	2521.9
723.106	2634.54
723.293	2634.54
723.48	2546.48
723.667	2595.63
723.853	2569.01
724.04	2749.23
724.227	2587.44
724.414	2571.05
724.6	2460.46
724.787	2536.24
724.974	2558.77
725.161	2579.25
725.347	2497.33
725.534	2560.81
725.72	2706.22
725.907	2632.49
726.094	2511.66
726.28	2581.29
726.467	2507.57
726.653	2614.06
726.84	2562.86
727.027	2624.3
727.213	2577.2
727.4	2622.25
727.586	2513.71
727.773	2595.63
727.959	2603.82
728.145	2573.1
728.332	2501.42
728.518	2423.6
728.705	2519.85
728.891	2362.16
729.077	2530.09
729.264	2634.54
729.45	2487.09
729.636	2454.32
729.823	2587.44
730.009	2571.05
730.195	2511.66
730.382	2642.73
730.568	2523.95
730.754	2558.77
730.94	2509.62
731.126	2589.49
731.313	2497.33
731.499	2526
731.685	2495.28
731.871	2536.24
732.057	2448.18
732.243	2497.33
732.429	2560.81
732.615	2628.4
732.801	2526
732.987	2497.33
733.173	2507.57
733.359	2376.5
733.545	2421.55
733.731	2317.11
733.917	2548.53
734.103	2530.09
734.289	2673.45
734.475	2390.83
734.661	2433.84
734.847	2499.38
735.033	2396.98
735.219	2423.6
735.404	2480.94
735.59	2456.37
735.776	2396.98
735.962	2523.95
736.148	2323.25
736.333	2521.9
736.519	2372.4
736.705	2464.56
736.89	2435.89
737.076	2378.55
737.262	2472.75
737.447	2517.81
737.633	2313.01
737.819	2349.87
738.004	2399.02
738.19	2335.54
738.375	2462.51
738.561	2384.69
738.747	2331.44
738.932	2288.43
739.118	2298.67
739.303	2353.97
739.489	2337.59
739.674	2130.74
739.859	2267.95
740.045	2356.02
740.23	2345.78
740.416	2222.9
740.601	2323.25
740.786	2286.39
740.972	2145.08
741.157	2214.71
741.342	2235.19
741.528	2267.95
741.713	2204.47
741.898	2126.64
742.084	2130.74
742.269	2122.55
742.454	2214.71
742.639	2167.6
742.824	2235.19
743.01	2161.46
743.195	2214.71
743.38	2216.76
743.565	2200.37
743.75	2198.32
743.935	2206.52
744.12	2169.65
744.305	2206.52
744.49	2032.44
744.675	2063.16
744.86	2130.74
745.045	2046.77
745.23	2034.49
745.415	1975.1
745.6	2071.35
745.785	2030.39
745.97	1956.66
746.155	1930.04
746.34	1921.85
746.525	1993.53
746.71	1927.99
746.895	1981.24
747.079	2112.31
747.264	2018.1
747.449	1964.86
747.634	1958.71
747.819	1866.55
748.003	1876.79
748.188	1907.51
748.373	1817.4
748.557	1907.51
748.742	1772.35
748.927	1844.03
749.111	1858.36
749.296	1844.03
749.481	1862.46
749.665	1889.08
749.85	1700.67
750.034	1794.87
750.219	1700.67
750.404	1801.02
750.588	1669.95
750.773	1696.57
750.957	1618.75
751.141	1667.9
751.326	1710.91
751.51	1700.67
751.695	1706.81
751.879	1602.36
752.064	1661.76
752.248	1651.52
752.432	1651.52
752.617	1622.84
752.801	1571.65
752.985	1581.89
753.17	1620.8
753.354	1581.89
753.538	1573.69
753.722	1504.06
753.907	1512.25
754.091	1551.17
754.275	1506.11
754.459	1467.2
754.643	1377.09
754.828	1588.03
755.012	1481.53
755.196	1475.39
755.38	1428.29
755.564	1377.09
755.748	1459.01
755.932	1432.38
756.116	1377.09
756.3	1362.75
756.484	1368.9
756.668	1327.94
756.852	1315.65
757.036	1262.4
757.22	1289.03
757.404	1397.57
757.588	1372.99
757.772	1274.69
757.956	1340.22
758.14	1348.42
758.323	1215.3
758.507	1237.83
758.691	1225.54
758.875	1200.96
759.059	1254.21
759.242	1264.45
759.426	1170.24
759.61	1307.46
759.794	1178.44
759.977	1305.41
760.161	1200.96
760.345	1086.28
760.528	1254.21
760.712	1168.2
760.895	1145.67
761.079	1293.12
761.263	1119.04
761.446	1172.29
761.63	1117
761.813	1160
761.997	1094.47
762.18	1151.81
762.364	1055.56
762.547	1143.62
762.731	1117
762.914	1194.82
763.098	973.64
763.281	1129.28
763.464	1024.84
763.648	1131.33
763.831	1008.45
764.015	1020.74
764.198	1069.89
764.381	1078.08
764.564	1200.96
764.748	1020.74
764.931	1063.75
765.114	942.92
765.297	969.54
765.481	1012.55
765.664	1112.9
765.847	983.88
766.03	1104.71
766.213	940.87
766.397	1014.6
766.58	1041.22
766.763	973.64
766.946	938.82
767.129	969.54
767.312	1000.26
767.495	1057.61
767.678	918.34
767.861	981.83
768.044	944.97
768.227	975.69
768.41	949.06
768.593	1012.55
768.776	994.12
768.959	924.49
769.142	916.3
769.324	944.97
769.507	963.4
769.69	813.9
769.873	822.09
770.056	1014.6
770.239	914.25
770.421	854.86
770.604	965.45
770.787	955.21
770.97	887.62
771.152	838.47
771.335	895.82
771.518	842.57
771.7	815.94
771.883	920.39
772.066	830.28
772.248	830.28
772.431	914.25
772.613	846.66
772.796	832.33
772.978	824.14
773.161	764.75
773.343	750.41
773.526	748.36
773.708	797.51
773.891	863.05
774.073	840.52
774.256	811.85
774.438	744.27
774.621	797.51
774.803	791.37
774.985	746.31
775.168	760.65
775.35	760.65
775.532	785.23
775.715	717.64
775.897	701.26
776.079	723.79
776.261	662.35
776.444	731.98
776.626	740.17
776.808	656.2
776.99	717.64
777.173	725.83
777.355	627.53
777.537	635.72
777.719	611.15
777.901	764.75
778.083	633.68
778.265	584.52
778.447	623.44
778.629	611.15
778.811	611.15
778.993	629.58
779.175	641.87
779.357	635.72
779.539	529.23
779.721	656.2
779.903	648.01
780.085	602.96
780.267	602.96
780.449	613.2
780.631	578.38
780.812	648.01
780.994	568.14
781.176	541.52
781.358	525.13
781.54	555.85
781.721	592.72
781.903	549.71
782.085	537.42
782.267	562
782.448	594.76
782.63	535.37
782.812	617.29
782.993	527.18
783.175	488.27
783.357	486.22
783.538	475.98
783.72	531.28
783.901	498.51
784.083	516.94
784.264	463.69
784.446	453.45
784.627	443.21
784.809	473.93
784.99	459.6
785.172	473.93
785.353	467.79
785.535	469.84
785.716	422.73
785.897	443.21
786.079	402.26
786.26	482.13
786.441	387.92
786.623	377.68
786.804	428.88
786.985	449.36
787.167	463.69
787.348	410.45
787.529	439.12
787.71	490.32
787.891	420.69
788.073	363.34
788.254	437.07
788.435	428.88
788.616	451.41
788.797	406.35
788.978	488.27
789.159	342.86
789.34	344.91
789.522	342.86
789.703	422.73
789.884	328.53
790.065	387.92
790.246	359.25
790.427	336.72
790.607	379.73
790.788	400.21
790.969	422.73
791.15	412.5
791.331	357.2
791.512	369.49
791.693	269.14
791.874	293.71
792.054	365.39
792.235	373.58
792.416	303.95
792.597	392.02
792.778	301.9
792.958	306
793.139	285.52
793.32	330.58
793.5	308.05
793.681	408.4
793.862	316.24
794.042	316.24
794.223	342.86
794.404	344.91
794.584	295.76
794.765	344.91
794.945	267.09
795.126	222.03
795.306	306
795.487	334.67
795.667	179.03
795.848	267.09
796.028	310.1
796.209	312.14
796.389	328.53
796.57	326.48
796.75	224.08
796.93	273.23
797.111	306
797.291	246.61
797.471	324.43
797.652	269.14
797.832	314.19
798.012	289.62
798.192	254.8
798.373	297.81
798.553	256.85
798.733	242.51
798.913	232.27
799.093	209.75
799.274	230.23
799.454	283.47
799.634	310.1
799.814	291.66
799.994	230.23
800.174	285.52
800.354	330.58
800.534	244.56
800.714	236.37
800.894	189.27
801.074	179.03
801.254	299.86
801.434	236.37
801.614	238.42
801.794	258.9
801.974	613.2
802.154	191.31
802.334	248.66
802.514	242.51
802.693	267.09
802.873	201.55
803.053	262.99
803.233	193.36
803.413	244.56
803.592	189.27
803.772	262.99
803.952	166.74
804.131	258.9
804.311	250.71
804.491	242.51
804.67	181.07
804.85	213.84
805.03	256.85
805.209	254.8
805.389	160.59
805.568	205.65
805.748	201.55
805.928	207.7
806.107	176.98
806.287	228.18
806.466	240.47
806.646	187.22
806.825	168.79
807.004	297.81
807.184	258.9
807.363	166.74
807.543	238.42
807.722	197.46
807.901	179.03
808.081	230.23
808.26	146.26
808.439	226.13
808.619	160.59
808.798	172.88
808.977	222.03
809.156	267.09
809.336	189.27
809.515	160.59
809.694	199.51
809.873	217.94
810.052	117.59
810.231	174.93
810.411	109.4
810.59	140.12
810.769	123.73
810.948	248.66
811.127	174.93
811.306	117.59
811.485	172.88
811.664	244.56
811.843	201.55
812.022	217.94
812.201	191.31
812.38	174.93
812.559	119.64
812.737	209.75
812.916	179.03
813.095	170.83
813.274	222.03
813.453	236.37
813.632	168.79
813.811	113.49
813.989	150.36
814.168	183.12
814.347	164.69
814.526	164.69
814.704	197.46
814.883	162.64
815.062	131.92
815.24	170.83
815.419	138.07
815.598	166.74
815.776	150.36
815.955	111.44
816.133	105.3
816.312	84.82
816.49	164.69
816.669	123.73
816.847	123.73
817.026	111.44
817.204	111.44
817.383	170.83
817.561	152.4
817.74	103.25
817.918	179.03
818.097	133.97
818.275	146.26
818.453	140.12
818.632	109.4
818.81	82.77
818.988	62.29
819.167	64.34
819.345	97.11
819.523	64.34
819.701	129.88
819.879	154.45
820.058	88.92
820.236	93.01
820.414	62.29
820.592	140.12
820.77	150.36
820.948	101.2
821.127	113.49
821.305	123.73
821.483	158.55
821.661	172.88
821.839	140.12
822.017	95.06
822.195	58.2
822.373	203.6
822.551	76.63
822.729	150.36
822.907	54.1
823.085	111.44
823.262	131.92
823.44	37.72
823.618	97.11
823.796	166.74
823.974	88.92
824.152	170.83
824.329	111.44
824.507	105.3
824.685	127.83
824.863	58.2
825.04	129.88
825.218	93.01
825.396	37.72
825.574	113.49
825.751	78.68
825.929	117.59
826.107	35.67
826.284	123.73
826.462	99.16
826.639	33.62
826.817	41.81
826.994	47.96
827.172	41.81
827.349	95.06
827.527	115.54
827.704	86.87
827.882	109.4
828.059	150.36
828.237	54.1
828.414	136.02
828.591	101.2
828.769	101.2
828.946	-3.24
829.124	56.15
829.301	93.01
829.478	21.33
829.655	99.16
829.833	127.83
830.01	-33.96
830.187	54.1
830.364	60.24
830.542	68.44
830.719	74.58
830.896	144.21
831.073	99.16
831.25	86.87
831.427	158.55
831.604	76.63
831.782	13.14
831.959	33.62
832.136	95.06
832.313	125.78
832.49	115.54
832.667	115.54
832.844	23.38
833.021	66.39
833.198	60.24
833.374	97.11
833.551	115.54
833.728	82.77
833.905	82.77
834.082	0.85
834.259	88.92
834.436	33.62
834.612	45.91
834.789	121.68
834.966	86.87
835.143	105.3
835.319	52.05
835.496	47.96
835.673	107.35
835.85	103.25
836.026	146.26
836.203	50
836.38	-11.43
836.556	95.06
836.733	127.83
836.909	68.44
837.086	23.38
837.262	90.96
837.439	90.96
837.616	62.29
837.792	84.82
837.968	54.1
838.145	25.43
838.321	109.4
838.498	7
838.674	103.25
838.851	78.68
839.027	119.64
839.203	107.35
839.38	105.3
839.556	80.72
839.732	78.68
839.909	107.35
840.085	76.63
840.261	33.62
840.437	97.11
840.614	-13.48
840.79	-5.29
840.966	95.06
841.142	101.2
841.318	-7.34
841.494	142.16
841.671	45.91
841.847	45.91
842.023	66.39
842.199	97.11
842.375	111.44
842.551	21.33
842.727	152.4
842.903	133.97
843.079	86.87
843.255	88.92
843.431	56.15
843.607	41.81
843.783	50
843.959	125.78
844.134	29.52
844.31	154.45
844.486	-1.19
844.662	39.76
844.838	64.34
845.013	68.44
845.189	47.96
845.365	68.44
845.541	88.92
845.716	25.43
845.892	29.52
846.068	146.26
846.244	60.24
846.419	70.48
846.595	19.29
846.77	50
846.946	4.95
847.122	33.62
847.297	-15.53
847.473	88.92
847.648	-38.06
847.824	64.34
847.999	95.06
848.175	35.67
848.35	84.82
848.526	64.34
848.701	2.9
848.876	76.63
849.052	43.86
849.227	-3.24
849.403	80.72
849.578	21.33
849.753	97.11
849.929	88.92
850.104	50
850.279	25.43
850.454	7
850.63	82.77
850.805	39.76
850.98	-7.34
851.155	15.19
851.33	9.05
851.505	13.14
851.681	7
851.856	-25.77
852.031	105.3
852.206	41.81
852.381	7
852.556	19.29
852.731	-62.63
852.906	19.29
853.081	78.68
853.256	62.29
853.431	56.15
853.606	-3.24
853.781	4.95
853.956	9.05
854.131	27.48
854.305	70.48
854.48	-3.24
854.655	107.35
854.83	47.96
855.005	-15.53
855.18	68.44
855.354	35.67
855.529	-31.91
855.704	-15.53
855.879	29.52
856.053	29.52
856.228	52.05
856.403	25.43
856.577	66.39
856.752	35.67
856.926	45.91
857.101	29.52
857.276	33.62
857.45	64.34
857.625	-3.24
857.799	4.95
857.974	45.91
858.148	27.48
858.323	-56.49
858.497	50
858.672	39.76
858.846	19.29
859.02	62.29
859.195	-44.2
859.369	68.44
859.543	62.29
859.718	-1.19
859.892	66.39
860.066	25.43
860.241	0.85
860.415	52.05
860.589	60.24
860.763	86.87
860.938	13.14
861.112	-9.39
861.286	80.72
861.46	37.72
861.634	84.82
861.808	64.34
861.982	23.38
862.157	33.62
862.331	17.24
862.505	21.33
862.679	-3.24
862.853	31.57
863.027	33.62
863.201	111.44
863.375	-40.11
863.549	58.2
863.722	41.81
863.896	21.33
864.07	-3.24
864.244	41.81
864.418	0.85
864.592	27.48
864.766	7
864.939	11.09
865.113	9.05
865.287	23.38
865.461	23.38
865.634	0.85
865.808	7
865.982	68.44
866.156	9.05
866.329	11.09
866.503	43.86
866.676	76.63
866.85	41.81
867.024	-33.96
867.197	23.38
867.371	4.95
867.544	25.43
867.718	7
867.891	4.95
868.065	43.86
868.238	15.19
868.412	62.29
868.585	35.67
868.759	47.96
868.932	-21.67
869.105	-7.34
869.279	11.09
869.452	7
869.625	21.33
869.799	39.76
869.972	-1.19
870.145	-33.96
870.319	9.05
870.492	25.43
870.665	-38.06
870.838	-50.35
871.011	2.9
871.185	-21.67
871.358	41.81
871.531	37.72
871.704	45.91
871.877	-7.34
872.05	4.95
872.223	-62.63
872.396	37.72
872.569	35.67
872.742	27.48
872.915	-27.82
873.088	-19.63
873.261	7
873.434	41.81
873.607	23.38
873.78	7
873.953	35.67
874.126	-36.01
874.299	-9.39
874.471	4.95
874.644	35.67
874.817	-11.43
874.99	-11.43
875.163	9.05
875.335	-33.96
875.508	25.43
875.681	99.16
875.853	50
876.026	-50.35
876.199	-87.21
876.371	-25.77
876.544	-23.72
876.717	103.25
876.889	-62.63
877.062	29.52
877.234	60.24
877.407	13.14
877.579	45.91
877.752	0.85
877.924	47.96
878.097	-3.24
878.269	19.29
878.442	0.85
878.614	11.09
878.786	29.52
878.959	-36.01
879.131	-36.01
879.303	15.19
879.476	-23.72
879.648	43.86
879.82	41.81
879.993	-56.49
880.165	56.15
880.337	-44.2
880.509	88.92
880.681	-5.29
880.854	-29.87
881.026	13.14
881.198	107.35
881.37	17.24
881.542	-25.77
881.714	-19.63
881.886	-17.58
882.058	95.06
882.23	-13.48
882.402	-13.48
882.574	70.48
882.746	7
882.918	-29.87
883.09	33.62
883.262	66.39
883.434	50
883.606	-13.48
883.778	11.09
883.95	33.62
884.122	-38.06
884.293	35.67
884.465	97.11
884.637	17.24
884.809	56.15
884.98	21.33
885.152	43.86
885.324	-5.29
885.496	-27.82
885.667	13.14
885.839	15.19
886.011	7
886.182	37.72
886.354	70.48
886.525	25.43
886.697	-5.29
886.869	-13.48
887.04	11.09
887.212	78.68
887.383	54.1
887.555	-42.15
887.726	-23.72
887.897	-23.72
888.069	-70.83
888.24	27.48
888.412	15.19
888.583	-17.58
888.754	21.33
888.926	2.9
889.097	33.62
889.268	-13.48
889.44	41.81
889.611	45.91
889.782	41.81
889.953	-9.39
890.125	39.76
890.296	-46.25
890.467	-38.06
890.638	-5.29
890.809	-3.24
890.98	-29.87
891.151	66.39
891.323	64.34
891.494	39.76
891.665	70.48
891.836	-36.01
892.007	52.05
892.178	-60.59
892.349	-5.29
892.52	-19.63
892.691	-21.67
892.862	17.24
893.032	-11.43
893.203	9.05
893.374	-7.34
893.545	35.67
893.716	29.52
893.887	31.57
894.057	90.96
894.228	-17.58
894.399	13.14
894.57	39.76
894.74	86.87
894.911	-23.72
895.082	-31.91
895.253	17.24
895.423	31.57
895.594	68.44
895.764	35.67
895.935	25.43
896.106	-9.39
896.276	-38.06
896.447	-25.77
896.617	-3.24
896.788	-36.01
896.958	-3.24
897.129	-17.58
897.299	-1.19
897.47	13.14
897.64	21.33
897.81	11.09
897.981	7
898.151	-11.43
898.322	62.29
898.492	43.86
898.662	-38.06
898.832	80.72
899.003	-5.29
899.173	31.57
899.343	52.05
899.513	-60.59
