Data from USB4F104151__78__12-02-10-986.txt Node

Date: Fri Mar 14 12:02:10 EDT 2025
User: louis
Spectrometer: USB4F10415
Trigger mode: 4
Integration Time (sec): 2.000000E-2
Scans to average: 1
Electric dark correction enabled: true
Nonlinearity correction enabled: false
Boxcar width: 0
XAxis mode: Wavelengths
Number of Pixels in Spectrum: 3648
>>>>>Begin Spectral Data<<<<<
178.204	-117.59
178.424	-117.59
178.644	-117.59
178.864	-82.77
179.084	-129.88
179.304	15.53
179.524	-0.85
179.744	-17.24
179.964	74.92
180.184	33.96
180.404	-45.91
180.624	15.53
180.844	7.34
181.064	-29.52
181.283	21.67
181.503	-35.67
181.723	-39.76
181.943	-33.62
182.163	38.06
182.383	56.49
182.602	-0.85
182.822	48.3
183.042	-2.9
183.262	5.29
183.482	29.87
183.701	44.2
183.921	50.35
184.141	-29.52
184.361	58.54
184.58	1.19
184.8	25.77
185.02	1.19
185.239	72.87
185.459	-11.09
185.679	97.45
185.898	64.68
186.118	91.31
186.338	68.78
186.557	-33.62
186.777	-35.67
186.997	40.11
187.216	25.77
187.436	38.06
187.655	62.63
187.875	-19.29
188.095	17.58
188.314	-4.95
188.534	56.49
188.753	70.83
188.973	42.15
189.192	66.73
189.412	-52.05
189.631	17.58
189.851	52.39
190.07	101.55
190.29	44.2
190.509	23.72
190.729	9.39
190.948	56.49
191.168	62.63
191.387	40.11
191.607	-11.09
191.826	21.67
192.045	-17.24
192.265	9.39
192.484	-11.09
192.704	1.19
192.923	-2.9
193.142	66.73
193.362	36.01
193.581	21.67
193.8	19.63
194.02	56.49
194.239	23.72
194.458	66.73
194.678	-19.29
194.897	-7
195.116	-2.9
195.335	66.73
195.555	9.39
195.774	11.43
195.993	68.78
196.212	23.72
196.432	-80.72
196.651	33.96
196.87	-11.09
197.089	7.34
197.308	46.25
197.528	33.96
197.747	-37.72
197.966	17.58
198.185	19.63
198.404	62.63
198.623	52.39
198.842	81.07
199.062	11.43
199.281	13.48
199.5	142.5
199.719	54.44
199.938	-7
200.157	-4.95
200.376	3.24
200.595	15.53
200.814	-9.05
201.033	-74.58
201.252	31.91
201.471	87.21
201.69	-7
201.909	101.55
202.128	91.31
202.347	54.44
202.566	-25.43
202.785	79.02
203.004	-7
203.223	128.17
203.442	68.78
203.661	-4.95
203.879	-33.62
204.098	40.11
204.317	21.67
204.536	46.25
204.755	-7
204.974	9.39
205.193	74.92
205.411	29.87
205.63	83.11
205.849	7.34
206.068	-19.29
206.287	33.96
206.505	126.12
206.724	1.19
206.943	48.3
207.162	17.58
207.381	40.11
207.599	70.83
207.818	52.39
208.037	50.35
208.255	40.11
208.474	-52.05
208.693	-4.95
208.911	-31.57
209.13	40.11
209.349	31.91
209.567	33.96
209.786	48.3
210.005	-25.43
210.223	13.48
210.442	-72.53
210.661	5.29
210.879	52.39
211.098	-0.85
211.316	-19.29
211.535	23.72
211.753	-37.72
211.972	50.35
212.191	31.91
212.409	-31.57
212.628	19.63
212.846	68.78
213.065	87.21
213.283	97.45
213.502	46.25
213.72	1.19
213.938	7.34
214.157	81.07
214.375	64.68
214.594	25.77
214.812	9.39
215.031	76.97
215.249	7.34
215.467	46.25
215.686	-31.57
215.904	-4.95
216.122	27.82
216.341	72.87
216.559	64.68
216.778	101.55
216.996	-7
217.214	13.48
217.432	13.48
217.651	85.16
217.869	29.87
218.087	-11.09
218.306	42.15
218.524	9.39
218.742	-4.95
218.96	5.29
219.179	-37.72
219.397	21.67
219.615	9.39
219.833	15.53
220.051	31.91
220.27	64.68
220.488	33.96
220.706	36.01
220.924	79.02
221.142	11.43
221.36	11.43
221.578	-13.14
221.796	27.82
222.015	54.44
222.233	-0.85
222.451	105.64
222.669	70.83
222.887	64.68
223.105	101.55
223.323	58.54
223.541	36.01
223.759	29.87
223.977	-15.19
224.195	19.63
224.413	15.53
224.631	58.54
224.849	48.3
225.067	17.58
225.285	-52.05
225.503	27.82
225.721	1.19
225.939	19.63
226.157	-35.67
226.375	29.87
226.592	58.54
226.81	-9.05
227.028	44.2
227.246	107.69
227.464	31.91
227.682	58.54
227.9	-31.57
228.117	36.01
228.335	48.3
228.553	124.07
228.771	54.44
228.989	44.2
229.206	54.44
229.424	50.35
229.642	15.53
229.86	29.87
230.077	31.91
230.295	38.06
230.513	87.21
230.731	17.58
230.948	44.2
231.166	70.83
231.384	52.39
231.601	58.54
231.819	62.63
232.037	-13.14
232.254	-25.43
232.472	42.15
232.689	70.83
232.907	79.02
233.125	46.25
233.342	21.67
233.56	19.63
233.777	46.25
233.995	44.2
234.213	27.82
234.43	48.3
234.648	7.34
234.865	62.63
235.083	9.39
235.3	-33.62
235.518	97.45
235.735	38.06
235.953	113.83
236.17	-56.15
236.388	38.06
236.605	36.01
236.822	1.19
237.04	5.29
237.257	38.06
237.475	21.67
237.692	15.53
237.909	17.58
238.127	21.67
238.344	68.78
238.562	38.06
238.779	72.87
238.996	25.77
239.214	25.77
239.431	52.39
239.648	5.29
239.865	19.63
240.083	103.59
240.3	-25.43
240.517	-54.1
240.735	13.48
240.952	-15.19
241.169	64.68
241.386	21.67
241.603	56.49
241.821	3.24
242.038	38.06
242.255	68.78
242.472	-54.1
242.689	-2.9
242.907	27.82
243.124	1.19
243.341	83.11
243.558	-41.81
243.775	60.59
243.992	-15.19
244.209	107.69
244.426	115.88
244.643	42.15
244.86	11.43
245.078	50.35
245.295	58.54
245.512	31.91
245.729	9.39
245.946	31.91
246.163	91.31
246.38	-7
246.597	13.48
246.814	-7
247.031	1.19
247.248	70.83
247.464	13.48
247.681	27.82
247.898	48.3
248.115	87.21
248.332	15.53
248.549	56.49
248.766	44.2
248.983	11.43
249.2	95.4
249.417	89.26
249.633	-23.38
249.85	105.64
250.067	42.15
250.284	50.35
250.501	19.63
250.717	101.55
250.934	9.39
251.151	48.3
251.368	42.15
251.585	52.39
251.801	1.19
252.018	13.48
252.235	-2.9
252.451	44.2
252.668	64.68
252.885	38.06
253.102	97.45
253.318	-60.24
253.535	17.58
253.752	58.54
253.968	-2.9
254.185	40.11
254.401	17.58
254.618	40.11
254.835	29.87
255.051	70.83
255.268	58.54
255.484	-31.57
255.701	122.02
255.917	9.39
256.134	11.43
256.351	46.25
256.567	38.06
256.784	103.59
257	31.91
257.217	17.58
257.433	54.44
257.65	-13.14
257.866	31.91
258.082	-19.29
258.299	-56.15
258.515	17.58
258.732	29.87
258.948	5.29
259.165	52.39
259.381	21.67
259.597	25.77
259.814	29.87
260.03	36.01
260.246	-9.05
260.463	19.63
260.679	-4.95
260.895	70.83
261.112	44.2
261.328	3.24
261.544	27.82
261.761	70.83
261.977	70.83
262.193	19.63
262.409	25.77
262.626	-7
262.842	-17.24
263.058	9.39
263.274	68.78
263.49	70.83
263.707	66.73
263.923	38.06
264.139	23.72
264.355	-45.91
264.571	70.83
264.787	25.77
265.004	27.82
265.22	7.34
265.436	40.11
265.652	60.59
265.868	19.63
266.084	31.91
266.3	36.01
266.516	21.67
266.732	27.82
266.948	-7
267.164	52.39
267.38	44.2
267.596	85.16
267.812	85.16
268.028	-19.29
268.244	-23.38
268.46	38.06
268.676	52.39
268.892	7.34
269.108	54.44
269.324	-21.33
269.54	-78.68
269.756	81.07
269.972	33.96
270.188	56.49
270.403	64.68
270.619	134.31
270.835	33.96
271.051	103.59
271.267	60.59
271.483	44.2
271.698	72.87
271.914	48.3
272.13	7.34
272.346	7.34
272.562	52.39
272.777	99.5
272.993	72.87
273.209	31.91
273.425	74.92
273.64	-35.67
273.856	33.96
274.072	1.19
274.287	44.2
274.503	72.87
274.719	-33.62
274.934	-17.24
275.15	-29.52
275.366	3.24
275.581	19.63
275.797	50.35
276.012	60.59
276.228	66.73
276.444	42.15
276.659	19.63
276.875	-19.29
277.09	124.07
277.306	42.15
277.521	-13.14
277.737	15.53
277.952	79.02
278.168	-4.95
278.383	58.54
278.599	54.44
278.814	74.92
279.03	3.24
279.245	36.01
279.461	1.19
279.676	27.82
279.892	-4.95
280.107	58.54
280.322	40.11
280.538	-47.96
280.753	109.74
280.969	42.15
281.184	-25.43
281.399	107.69
281.615	13.48
281.83	62.63
282.045	54.44
282.26	5.29
282.476	36.01
282.691	9.39
282.906	-2.9
283.122	-2.9
283.337	48.3
283.552	29.87
283.767	76.97
283.983	31.91
284.198	83.11
284.413	66.73
284.628	89.26
284.843	62.63
285.058	85.16
285.274	42.15
285.489	40.11
285.704	91.31
285.919	13.48
286.134	5.29
286.349	17.58
286.564	36.01
286.779	38.06
286.995	9.39
287.21	9.39
287.425	29.87
287.64	62.63
287.855	76.97
288.07	5.29
288.285	97.45
288.5	50.35
288.715	48.3
288.93	42.15
289.145	64.68
289.36	-7
289.575	60.59
289.79	109.74
290.004	19.63
290.219	40.11
290.434	91.31
290.649	44.2
290.864	13.48
291.079	83.11
291.294	93.35
291.509	23.72
291.724	13.48
291.938	38.06
292.153	97.45
292.368	54.44
292.583	40.11
292.798	42.15
293.012	56.49
293.227	48.3
293.442	58.54
293.657	13.48
293.871	42.15
294.086	9.39
294.301	64.68
294.516	66.73
294.73	27.82
294.945	5.29
295.16	99.5
295.374	17.58
295.589	146.6
295.804	-37.72
296.018	17.58
296.233	48.3
296.447	60.59
296.662	36.01
296.877	119.98
297.091	5.29
297.306	-19.29
297.52	81.07
297.735	58.54
297.949	42.15
298.164	46.25
298.378	-0.85
298.593	46.25
298.807	60.59
299.022	85.16
299.236	130.22
299.451	-4.95
299.665	13.48
299.88	31.91
300.094	60.59
300.309	99.5
300.523	50.35
300.737	87.21
300.952	64.68
301.166	-17.24
301.381	-52.05
301.595	25.77
301.809	33.96
302.024	36.01
302.238	11.43
302.452	56.49
302.667	42.15
302.881	81.07
303.095	23.72
303.309	11.43
303.524	62.63
303.738	-0.85
303.952	60.59
304.166	56.49
304.381	25.77
304.595	31.91
304.809	-4.95
305.023	9.39
305.237	81.07
305.452	11.43
305.666	58.54
305.88	44.2
306.094	21.67
306.308	111.78
306.522	48.3
306.736	89.26
306.95	-37.72
307.164	36.01
307.379	-39.76
307.593	150.7
307.807	68.78
308.021	48.3
308.235	-21.33
308.449	54.44
308.663	17.58
308.877	17.58
309.091	40.11
309.305	31.91
309.519	23.72
309.733	-13.14
309.947	1.19
310.161	9.39
310.374	150.7
310.588	81.07
310.802	-19.29
311.016	9.39
311.23	-2.9
311.444	33.96
311.658	-23.38
311.872	70.83
312.085	62.63
312.299	38.06
312.513	31.91
312.727	48.3
312.941	13.48
313.154	109.74
313.368	72.87
313.582	38.06
313.796	23.72
314.009	85.16
314.223	87.21
314.437	31.91
314.651	44.2
314.864	103.59
315.078	-17.24
315.292	66.73
315.505	-4.95
315.719	103.59
315.933	46.25
316.146	27.82
316.36	-9.05
316.573	50.35
316.787	93.35
317.001	111.78
317.214	5.29
317.428	-33.62
317.641	27.82
317.855	-9.05
318.068	101.55
318.282	103.59
318.495	117.93
318.709	9.39
318.922	58.54
319.136	144.55
319.349	23.72
319.563	33.96
319.776	50.35
319.99	38.06
320.203	40.11
320.417	21.67
320.63	95.4
320.843	119.98
321.057	44.2
321.27	95.4
321.483	64.68
321.697	70.83
321.91	54.44
322.124	60.59
322.337	79.02
322.55	-4.95
322.763	66.73
322.977	68.78
323.19	-25.43
323.403	23.72
323.617	105.64
323.83	-7
324.043	23.72
324.256	62.63
324.469	23.72
324.683	13.48
324.896	-19.29
325.109	-52.05
325.322	117.93
325.535	42.15
325.748	40.11
325.962	33.96
326.175	64.68
326.388	56.49
326.601	40.11
326.814	52.39
327.027	140.46
327.24	46.25
327.453	15.53
327.666	13.48
327.879	91.31
328.092	-31.57
328.305	11.43
328.518	13.48
328.731	-37.72
328.944	36.01
329.157	-4.95
329.37	-0.85
329.583	105.64
329.796	111.78
330.009	11.43
330.222	97.45
330.435	99.5
330.648	36.01
330.861	60.59
331.073	79.02
331.286	72.87
331.499	97.45
331.712	27.82
331.925	62.63
332.138	7.34
332.35	42.15
332.563	23.72
332.776	50.35
332.989	46.25
333.202	56.49
333.414	-43.86
333.627	-29.52
333.84	29.87
334.053	31.91
334.265	5.29
334.478	40.11
334.691	17.58
334.903	-7
335.116	-21.33
335.329	66.73
335.541	72.87
335.754	126.12
335.966	58.54
336.179	46.25
336.392	119.98
336.604	74.92
336.817	-11.09
337.029	72.87
337.242	64.68
337.454	27.82
337.667	40.11
337.88	74.92
338.092	54.44
338.305	33.96
338.517	72.87
338.729	1.19
338.942	58.54
339.154	3.24
339.367	-4.95
339.579	85.16
339.792	76.97
340.004	56.49
340.217	-31.57
340.429	50.35
340.641	23.72
340.854	-2.9
341.066	-21.33
341.278	54.44
341.491	87.21
341.703	62.63
341.915	-0.85
342.128	81.07
342.34	52.39
342.552	48.3
342.764	58.54
342.977	15.53
343.189	36.01
343.401	89.26
343.613	29.87
343.826	-7
344.038	1.19
344.25	31.91
344.462	62.63
344.674	76.97
344.886	19.63
345.099	81.07
345.311	-13.14
345.523	76.97
345.735	33.96
345.947	62.63
346.159	25.77
346.371	-31.57
346.583	136.36
346.795	81.07
347.007	-7
347.219	54.44
347.431	95.4
347.643	68.78
347.855	25.77
348.067	89.26
348.279	19.63
348.491	134.31
348.703	62.63
348.915	70.83
349.127	33.96
349.339	1.19
349.551	79.02
349.763	-11.09
349.975	29.87
350.187	7.34
350.399	68.78
350.61	74.92
350.822	27.82
351.034	79.02
351.246	46.25
351.458	5.29
351.669	105.64
351.881	99.5
352.093	9.39
352.305	103.59
352.517	83.11
352.728	97.45
352.94	44.2
353.152	23.72
353.363	46.25
353.575	50.35
353.787	79.02
353.999	56.49
354.21	122.02
354.422	25.77
354.633	81.07
354.845	52.39
355.057	81.07
355.268	52.39
355.48	58.54
355.692	19.63
355.903	46.25
356.115	15.53
356.326	5.29
356.538	25.77
356.749	27.82
356.961	87.21
357.172	17.58
357.384	38.06
357.595	74.92
357.807	7.34
358.018	7.34
358.23	40.11
358.441	7.34
358.653	9.39
358.864	27.82
359.075	42.15
359.287	66.73
359.498	83.11
359.709	109.74
359.921	-4.95
360.132	44.2
360.344	1.19
360.555	52.39
360.766	56.49
360.977	-7
361.189	89.26
361.4	56.49
361.611	54.44
361.823	38.06
362.034	54.44
362.245	33.96
362.456	74.92
362.667	31.91
362.879	62.63
363.09	83.11
363.301	70.83
363.512	27.82
363.723	56.49
363.935	48.3
364.146	89.26
364.357	132.26
364.568	5.29
364.779	27.82
364.99	9.39
365.201	130.22
365.412	87.21
365.623	91.31
365.834	-31.57
366.045	7.34
366.256	38.06
366.467	56.49
366.678	103.59
366.889	66.73
367.1	-0.85
367.311	52.39
367.522	-31.57
367.733	23.72
367.944	62.63
368.155	76.97
368.366	91.31
368.577	25.77
368.788	83.11
368.999	107.69
369.209	146.6
369.42	29.87
369.631	72.87
369.842	54.44
370.053	38.06
370.264	38.06
370.474	52.39
370.685	66.73
370.896	89.26
371.107	33.96
371.317	54.44
371.528	38.06
371.739	91.31
371.95	50.35
372.16	17.58
372.371	21.67
372.582	36.01
372.792	58.54
373.003	119.98
373.214	105.64
373.424	36.01
373.635	72.87
373.846	107.69
374.056	109.74
374.267	38.06
374.477	66.73
374.688	25.77
374.898	140.46
375.109	74.92
375.319	52.39
375.53	66.73
375.74	36.01
375.951	68.78
376.161	70.83
376.372	142.5
376.582	83.11
376.793	103.59
377.003	50.35
377.214	29.87
377.424	68.78
377.635	3.24
377.845	58.54
378.055	83.11
378.266	79.02
378.476	85.16
378.686	93.35
378.897	64.68
379.107	27.82
379.317	36.01
379.528	101.55
379.738	50.35
379.948	17.58
380.158	48.3
380.369	31.91
380.579	40.11
380.789	54.44
380.999	107.69
381.21	36.01
381.42	54.44
381.63	19.63
381.84	68.78
382.05	113.83
382.261	126.12
382.471	58.54
382.681	62.63
382.891	140.46
383.101	40.11
383.311	70.83
383.521	99.5
383.731	83.11
383.941	119.98
384.151	81.07
384.361	81.07
384.571	79.02
384.781	128.17
384.991	158.89
385.201	68.78
385.411	15.53
385.621	103.59
385.831	72.87
386.041	97.45
386.251	54.44
386.461	64.68
386.671	-2.9
386.881	99.5
387.091	66.73
387.301	19.63
387.511	54.44
387.72	113.83
387.93	70.83
388.14	56.49
388.35	27.82
388.56	128.17
388.769	38.06
388.979	83.11
389.189	7.34
389.399	91.31
389.609	109.74
389.818	42.15
390.028	68.78
390.238	122.02
390.447	93.35
390.657	124.07
390.867	66.73
391.076	128.17
391.286	142.5
391.496	91.31
391.705	105.64
391.915	111.78
392.125	15.53
392.334	97.45
392.544	97.45
392.753	119.98
392.963	74.92
393.172	21.67
393.382	113.83
393.591	117.93
393.801	19.63
394.01	58.54
394.22	91.31
394.429	111.78
394.639	119.98
394.848	62.63
395.058	103.59
395.267	195.75
395.477	76.97
395.686	79.02
395.895	66.73
396.105	126.12
396.314	87.21
396.524	72.87
396.733	89.26
396.942	109.74
397.152	140.46
397.361	122.02
397.57	126.12
397.78	115.88
397.989	31.91
398.198	162.98
398.407	142.5
398.617	83.11
398.826	52.39
399.035	56.49
399.244	70.83
399.453	66.73
399.663	89.26
399.872	203.94
400.081	64.68
400.29	134.31
400.499	134.31
400.708	167.08
400.917	171.18
401.127	99.5
401.336	124.07
401.545	167.08
401.754	146.6
401.963	95.4
402.172	185.51
402.381	91.31
402.59	109.74
402.799	101.55
403.008	128.17
403.217	154.79
403.426	91.31
403.635	173.22
403.844	169.13
404.053	103.59
404.262	181.42
404.471	199.85
404.68	189.61
404.888	132.26
405.097	173.22
405.306	144.55
405.515	146.6
405.724	210.09
405.933	179.37
406.142	253.09
406.35	179.37
406.559	232.62
406.768	197.8
406.977	257.19
407.185	156.84
407.394	228.52
407.603	175.27
407.812	269.48
408.02	294.05
408.229	255.14
408.438	265.38
408.646	318.63
408.855	351.4
409.064	292.01
409.272	332.97
409.481	367.78
409.69	294.05
409.898	279.72
410.107	326.82
410.315	318.63
410.524	382.12
410.733	412.84
410.941	433.32
411.15	400.55
411.358	443.56
411.567	464.04
411.775	447.65
411.984	439.46
412.192	552.1
412.401	580.77
412.609	548
412.818	685.22
413.026	568.48
413.234	701.6
413.443	685.22
413.651	631.97
413.86	666.78
414.068	771.23
414.276	765.09
414.485	744.61
414.693	795.81
414.901	900.25
415.11	892.06
415.318	861.34
415.526	816.29
415.734	928.92
415.943	1037.47
416.151	1148.06
416.359	1045.66
416.567	1035.42
416.776	1133.72
416.984	1086.62
417.192	1209.5
417.4	1225.88
417.608	1238.17
417.817	1287.32
418.025	1352.85
418.233	1438.87
418.441	1426.58
418.649	1424.53
418.857	1649.81
419.065	1526.93
419.273	1463.44
419.481	1723.54
419.689	1830.03
419.897	1885.33
420.105	1975.44
420.313	1954.96
420.521	2104.46
420.729	2026.64
420.937	2135.18
421.145	2243.72
421.353	2237.58
421.561	2346.12
421.769	2413.7
421.977	2610.31
422.185	2518.15
422.393	2790.53
422.601	2796.67
422.809	2808.96
423.017	2933.89
423.224	2972.8
423.432	3081.34
423.64	3095.68
423.848	3437.69
424.056	3359.86
424.263	3556.47
424.471	3630.2
424.679	3679.35
424.887	3791.98
425.094	3841.14
425.302	3945.58
425.51	4068.46
425.718	4197.48
425.925	4244.59
426.133	4312.17
426.341	4787.3
426.548	4996.19
426.756	5059.68
426.964	4910.18
427.171	5293.15
427.379	5338.2
427.586	5467.22
427.794	5590.1
428.001	6011.98
428.209	6061.13
428.417	6077.52
428.624	6409.29
428.832	6460.49
429.039	6356.04
429.247	6548.55
429.454	7101.5
429.662	7582.77
429.869	7183.42
430.076	7744.56
430.284	7459.9
430.491	7773.24
430.699	8094.77
430.906	8010.8
431.114	8336.43
431.321	8729.64
431.528	8617
431.736	9194.53
431.943	9667.61
432.15	9522.2
432.358	9358.36
432.565	10157.07
432.772	10275.85
432.979	10470.41
433.187	10726.41
433.394	10888.2
433.601	11559.93
433.808	11406.33
434.016	11604.99
434.223	11951.09
434.43	12602.35
434.637	12528.62
434.844	13382.62
435.052	13351.9
435.259	13280.22
435.466	13556.7
435.673	13468.64
435.88	14283.73
436.087	15131.59
436.294	15168.45
436.501	14769.1
436.708	15086.53
436.915	15688.64
437.122	16210.87
437.329	16001.97
437.537	16892.84
437.743	16978.86
437.95	16866.22
438.157	17740.7
438.364	18389.91
438.571	18471.82
438.778	18506.64
438.985	20048.76
439.192	19434.37
439.399	19991.42
439.606	19606.4
439.813	20548.47
440.02	21939.04
440.227	21597.03
440.433	21252.97
440.64	22221.66
440.847	21572.45
441.054	22547.28
441.261	23868.22
441.467	23499.59
441.674	24046.4
441.881	24789.81
442.088	24802.1
442.294	24574.77
442.501	25488.17
442.708	25885.47
442.914	26962.7
443.121	28175.1
443.328	27239.18
443.534	29276.91
443.741	28338.94
443.948	28113.66
444.154	30075.62
444.361	29897.44
444.568	30462.68
444.774	30223.07
444.981	30274.27
445.187	31390.41
445.394	32469.69
445.6	32371.39
445.807	35267.22
446.013	33954.47
446.22	34575
446.426	35830.41
446.633	36090.5
446.839	37059.19
447.046	35746.44
447.252	37933.67
447.459	37489.26
447.665	37501.55
447.871	39234.13
448.078	40964.67
448.284	39154.26
448.491	40176.2
448.697	41112.12
448.903	41900.59
449.11	42467.87
449.316	42019.37
449.522	42299.94
449.728	43846.16
449.935	43567.63
450.141	43895.31
450.347	44702.21
450.553	43366.93
450.76	43643.41
450.966	45384.18
451.172	44847.61
451.378	46103.02
451.584	45091.32
451.791	46252.52
451.997	45761.01
452.203	46567.91
452.409	46852.58
452.615	46381.54
452.821	45076.99
453.027	43952.65
453.233	46289.38
453.44	44868.09
453.646	45349.37
453.852	45486.58
454.058	46174.7
454.264	44292.61
454.47	45543.92
454.676	44524.04
454.882	46055.92
455.088	41609.78
455.294	42687.01
455.5	43108.89
455.705	43274.77
455.911	41255.48
456.117	40757.82
456.323	40190.53
456.529	38623.84
456.735	39727.69
456.941	38945.37
457.147	38531.68
457.352	37522.03
457.558	36909.69
457.764	37014.13
457.97	35904.13
458.176	35093.14
458.381	35152.53
458.587	33237.68
458.793	33677.99
458.999	32225.98
459.204	34001.57
459.41	33149.62
459.616	30857.94
459.821	30907.09
460.027	30952.15
460.233	30483.16
460.438	28623.61
460.644	29309.68
460.85	27949.82
461.055	27353.87
461.261	27052.81
461.466	24943.41
461.672	24472.37
461.878	26288.92
462.083	24548.15
462.289	23704.38
462.494	23741.25
462.7	22561.62
462.905	22258.52
463.111	23163.72
463.316	23141.19
463.522	22506.32
463.727	22567.76
463.932	22426.45
464.138	22256.47
464.343	22192.98
464.549	21920.6
464.754	22600.53
464.959	22244.18
465.165	22041.43
465.37	21103.46
465.575	20546.42
465.781	21263.21
465.986	21535.59
466.191	20820.84
466.397	20241.27
466.602	19049.35
466.807	20067.19
467.012	19991.42
467.218	19858.3
467.423	19780.48
467.628	19708.8
467.833	20401.01
468.038	19958.65
468.244	19393.41
468.449	20108.15
468.654	19377.03
468.859	19024.78
469.064	19354.5
469.269	18338.71
469.474	18355.09
469.679	19190.66
469.885	18514.83
470.09	18770.83
470.295	18588.56
470.5	17994.65
470.705	18236.31
470.91	17763.23
471.115	17460.13
471.32	17908.63
471.525	17769.37
471.73	17519.52
471.935	16913.32
472.139	16747.44
472.344	16614.32
472.549	16882.6
472.754	16604.08
472.959	16212.92
473.164	16178.1
473.369	15811.51
473.574	16440.24
473.778	16114.61
473.983	15860.66
474.188	15721.4
474.393	15324.1
474.598	15215.55
474.802	14685.13
475.007	15143.88
475.212	15000.52
475.417	14332.88
475.621	14367.7
475.826	14556.11
476.031	14097.36
476.235	13978.58
476.44	14025.68
476.645	13777.88
476.849	13775.83
477.054	13761.5
477.259	13667.29
477.463	13405.15
477.668	13071.33
477.872	13378.53
478.077	12989.41
478.282	12829.67
478.486	12786.66
478.691	12790.76
478.895	12557.29
479.1	12407.79
479.304	12772.33
479.509	12133.36
479.713	12225.52
479.918	12108.79
480.122	11840.5
480.326	12131.31
480.531	12069.87
480.735	11838.45
480.94	11901.94
481.144	11994.1
481.348	11740.15
481.553	11873.27
481.757	11424.76
481.961	11705.34
482.166	11830.26
482.37	11760.63
482.574	11471.87
482.778	11254.78
482.983	11801.59
483.187	11598.84
483.391	11869.17
483.595	11580.41
483.8	11541.5
484.004	11637.75
484.208	11740.15
484.412	11557.88
484.616	11664.38
484.821	11613.18
485.025	11125.76
485.229	11705.34
485.433	11482.11
485.637	11455.48
485.841	11340.8
486.045	11348.99
486.249	11713.53
486.453	11424.76
486.657	11557.88
486.861	11500.54
487.065	11262.97
487.269	11533.31
487.473	11381.76
487.677	11635.71
487.881	11762.68
488.085	11424.76
488.289	11555.83
488.493	11535.35
488.697	11674.62
488.901	11727.86
489.105	11598.84
489.309	11799.54
489.512	11600.89
489.716	11623.42
489.92	11566.07
490.124	11752.44
490.328	11877.37
490.531	11844.6
490.735	12020.72
490.939	11856.89
491.143	11678.71
491.346	11936.76
491.55	12030.96
491.754	12067.83
491.958	12110.83
492.161	12041.2
492.365	12119.03
492.569	11979.76
492.772	12090.35
492.976	12311.53
493.18	12096.5
493.383	12440.56
493.587	12491.76
493.79	12458.99
493.994	12405.74
494.197	12618.73
494.401	13046.76
494.605	12577.77
494.808	12831.72
495.012	13054.95
495.215	13100
495.419	13327.33
495.622	12944.36
495.825	13446.11
496.029	13300.7
496.232	13802.46
496.436	13558.75
496.639	13962.2
496.843	13718.49
497.046	14146.51
497.249	14226.39
497.453	14375.89
497.656	14359.5
497.859	14427.09
498.063	14504.91
498.266	14869.45
498.469	14922.69
498.673	15064
498.876	15328.19
499.079	15594.43
499.282	15463.36
499.485	15897.53
499.689	15797.18
499.892	16223.16
500.095	16044.98
500.298	16477.1
500.501	16430
500.705	16616.37
500.908	16993.19
501.111	17136.55
501.314	17075.11
501.517	17527.71
501.72	17812.38
501.923	17763.23
502.126	18058.14
502.329	18250.64
502.532	18199.44
502.735	18619.28
502.938	18707.34
503.141	18910.09
503.344	19266.44
503.547	19399.55
503.75	19506.05
503.953	19751.81
504.156	20063.1
504.359	20167.54
504.562	20460.4
504.765	20657.01
504.968	21087.08
505.17	21105.51
505.373	21125.99
505.576	21582.69
505.779	21697.38
505.982	21924.7
506.185	22289.24
506.387	22094.68
506.59	22543.19
506.793	23003.98
506.996	22891.34
507.198	23567.17
507.401	23182.15
507.604	23614.27
507.807	23778.11
508.009	24003.39
508.212	24578.87
508.415	24486.71
508.617	24728.37
508.82	24664.88
509.022	25062.19
509.225	25484.07
509.428	25733.92
509.63	26037.02
509.833	26239.77
510.035	26966.8
510.238	26241.82
510.44	26753.81
510.643	27357.96
510.845	27648.77
511.048	27491.08
511.25	27673.35
511.453	28050.17
511.655	28846.83
511.858	28529.4
512.06	28678.9
512.262	29037.3
512.465	29180.65
512.667	29952.74
512.87	29790.95
513.072	29954.79
513.274	30354.14
513.477	30554.84
513.679	30997.2
513.881	31138.51
514.084	31650.5
514.286	31711.94
514.488	31597.26
514.69	32758.45
514.893	32449.21
515.095	32641.72
515.297	33387.18
515.499	33286.83
515.701	33309.36
515.904	34097.83
516.106	34165.41
516.308	34020
516.51	34321.05
516.712	34687.64
516.914	35027.6
517.116	35656.33
517.318	35576.46
517.52	36090.5
517.722	35953.29
517.925	36426.37
518.127	36600.44
518.329	36969.08
518.531	36733.56
518.733	37757.55
518.935	37778.03
519.136	37614.19
519.338	38064.74
519.54	38570.59
519.742	39062.1
519.944	38558.3
520.146	39227.99
520.348	39713.36
520.55	39592.53
520.752	40020.55
520.954	40856.12
521.155	40266.31
521.357	40944.19
521.559	41062.97
521.761	41378.36
521.963	41488.95
522.164	41878.06
522.366	41927.21
522.568	42209.83
522.77	42650.14
522.971	43047.45
523.173	42615.33
523.375	42996.25
523.576	43176.47
523.778	43004.44
523.98	43573.78
524.181	43872.78
524.383	43885.07
524.584	44356.1
524.786	44528.13
524.988	44169.74
525.189	44694.02
525.391	45263.35
525.592	45062.65
525.794	45298.17
525.995	45640.18
526.197	45158.91
526.398	45580.79
526.6	45754.86
526.801	45644.27
527.003	46313.96
527.204	45887.98
527.406	46273
527.607	46576.1
527.808	46848.48
528.01	46070.25
528.211	46481.89
528.412	47677.91
528.614	47077.85
528.815	47133.15
529.016	47729.11
529.218	46811.62
529.419	47192.54
529.62	47069.66
529.822	47274.46
530.023	47682
530.224	47395.29
530.425	47426.01
530.626	47462.87
530.828	47167.96
531.029	48226.76
531.23	47862.22
531.431	47372.76
531.632	48107.98
531.833	47987.15
532.035	47864.27
532.236	47671.76
532.437	48054.73
532.638	47903.18
532.839	48488.9
533.04	48150.99
533.241	47313.37
533.442	48771.52
533.643	47862.22
533.844	48216.52
534.045	48607.68
534.246	47679.96
534.447	48239.05
534.648	47798.74
534.849	48695.75
535.05	47958.48
535.251	48116.17
535.451	47845.84
535.652	48169.42
535.853	48384.46
536.054	47892.94
536.255	48226.76
536.456	47817.17
536.657	48689.6
536.857	47915.47
537.058	47743.44
537.259	48421.32
537.46	48091.6
537.66	47907.28
537.861	48124.36
538.062	47954.38
538.263	48325.07
538.463	47931.86
538.664	48032.21
538.865	48198.09
539.065	48902.59
539.266	47262.17
539.466	48001.49
539.667	47296.98
539.868	48114.12
540.068	48021.97
540.269	48296.39
540.469	47870.42
540.67	47522.26
540.87	47866.32
541.071	47858.13
541.271	47565.27
541.472	47497.69
541.672	47518.17
541.873	47368.66
542.073	46789.09
542.274	47985.1
542.474	47475.16
542.675	47417.82
542.875	47712.72
543.075	47614.42
543.276	47045.08
543.476	47993.29
543.676	47600.08
543.877	47487.45
544.077	47585.75
544.277	47231.45
544.478	47675.86
544.678	47466.97
544.878	47393.24
545.078	47534.55
545.279	47505.88
545.479	47595.99
545.679	47405.53
545.879	47141.34
546.079	47194.59
546.28	47170.01
546.48	47032.8
546.68	47100.38
546.88	47346.14
547.08	47419.86
547.28	47559.12
547.48	46891.49
547.68	47016.41
547.88	46543.33
548.081	47159.77
548.281	46580.2
548.481	46586.34
548.681	47530.45
548.881	47213.02
549.081	47469.01
549.28	46954.97
549.48	47358.42
549.68	46899.68
549.88	47634.9
550.08	46868.96
550.28	47172.06
550.48	46871.01
550.68	47309.27
550.88	46442.98
551.08	46936.54
551.279	46674.4
551.479	46705.12
551.679	46617.06
551.879	46678.5
552.079	47098.33
552.278	46617.06
552.478	46653.92
552.678	47053.28
552.878	47413.72
553.077	46633.44
553.277	46006.76
553.477	47194.59
553.676	46655.97
553.876	46584.29
554.076	46215.66
554.275	46576.1
554.475	45824.5
554.674	46371.3
554.874	46696.93
555.074	46234.09
555.273	46834.14
555.473	46764.51
555.672	46047.72
555.872	46674.4
556.071	46529
556.271	46545.38
556.47	46285.29
556.67	46170.6
556.869	45767.15
557.068	46207.47
557.268	45812.21
557.467	46094.83
557.667	46002.67
557.866	45978.09
558.065	45861.36
558.265	45650.42
558.464	45445.62
558.663	46002.67
558.863	45306.36
559.062	46174.7
559.261	45382.13
559.461	46060.01
559.66	45396.47
559.859	45566.45
560.058	45599.22
560.258	45484.53
560.457	44962.3
560.656	45634.03
560.855	45081.08
561.054	45316.6
561.253	44728.83
561.453	45089.27
561.652	45371.89
561.851	45373.94
562.05	44677.63
562.249	44859.9
562.448	45136.38
562.647	45095.42
562.846	44694.02
563.045	44810.75
563.244	44403.21
563.443	44927.49
563.642	44626.43
563.841	44309
564.04	44130.83
564.239	44966.4
564.438	44003.85
564.637	44243.46
564.836	44765.7
565.035	43805.2
565.234	44425.73
565.432	44098.06
565.631	43813.39
565.83	44284.42
566.029	43932.17
566.228	43536.91
566.427	43729.42
566.625	43840.01
566.824	43131.42
567.023	43950.6
567.222	42838.56
567.42	43631.12
567.619	43553.3
567.818	42848.8
568.016	43506.19
568.215	43260.44
568.414	42959.39
568.612	43655.7
568.811	42639.9
569.01	43196.95
569.208	42807.84
569.407	42807.84
569.605	42447.39
569.804	43088.41
570.002	42693.15
570.201	42699.3
570.4	42637.86
570.598	42109.48
570.797	41986.6
570.995	42512.93
571.193	41843.24
571.392	42381.86
571.59	41816.62
571.789	42009.13
571.987	41685.55
572.186	41857.58
572.384	41660.97
572.582	41775.66
572.781	41214.52
572.979	41110.07
573.177	41531.95
573.376	41673.26
573.574	41038.39
573.772	41136.69
573.971	41017.91
574.169	41040.44
574.367	40743.48
574.565	40964.67
574.763	40436.29
574.962	40735.29
575.16	40419.91
575.358	40962.62
575.556	39848.52
575.754	40495.68
575.952	40600.13
576.151	40239.68
576.349	39785.04
576.547	39789.13
576.745	39660.11
576.943	39651.92
577.141	39942.73
577.339	39946.83
577.537	39645.77
577.735	39658.06
577.933	38928.98
578.131	39504.46
578.329	39252.56
578.527	38718.04
578.725	39189.08
578.923	39385.68
579.121	38697.56
579.319	38607.45
579.516	38705.76
579.714	38933.08
579.912	38390.37
580.11	38498.91
580.308	38343.27
580.506	38707.8
580.704	37886.57
580.901	37900.9
581.099	38384.22
581.297	37577.33
581.495	38113.89
581.692	38064.74
581.89	37661.29
582.088	38062.69
582.285	37362.29
582.483	37130.87
582.681	37479.02
582.878	37362.29
583.076	36895.35
583.274	37460.59
583.471	36653.69
583.669	37184.12
583.866	36909.69
584.064	37096.05
584.262	36397.7
584.459	36737.66
584.657	36553.34
584.854	36889.21
585.052	35771.02
585.249	36373.12
585.447	36100.74
585.644	35945.09
585.841	35996.29
586.039	36393.6
586.236	35656.33
586.434	35775.11
586.631	35902.09
586.828	35721.87
587.026	35713.67
587.223	35658.38
587.42	35183.25
587.618	35003.03
587.815	34755.22
588.012	34898.58
588.21	34593.43
588.407	34937.49
588.604	34611.87
588.801	34394.78
588.999	34349.73
589.196	34581.15
589.393	34210.46
589.59	34384.54
589.787	34136.74
589.984	34040.48
590.182	33878.69
590.379	34087.59
590.576	33911.46
590.773	33821.35
590.97	33743.53
591.167	33596.07
591.364	33299.12
591.561	33542.83
591.758	32838.33
591.955	33481.39
592.152	33280.69
592.349	33229.49
592.546	33149.62
592.743	33045.17
592.94	32383.68
593.137	32826.04
593.334	32613.05
593.531	32125.63
593.727	32123.58
593.924	32776.89
594.121	32486.07
594.318	32334.53
594.515	31687.37
594.712	32402.11
594.908	31601.35
595.105	31853.25
595.302	31505.1
595.499	31832.77
595.696	31337.16
595.892	31146.7
596.089	31556.3
596.286	31163.09
596.482	30857.94
596.679	30829.27
596.876	31191.76
597.072	30573.27
597.269	30733.01
597.466	30268.12
597.662	30315.23
597.859	30454.49
598.055	30333.66
598.252	30483.16
598.448	30341.85
598.645	29983.46
598.841	30227.17
599.038	29979.36
599.234	30087.9
599.431	29954.79
599.627	29674.21
599.824	30005.98
600.02	29537
600.217	29526.76
600.413	29301.48
600.609	29362.92
600.806	28982
601.002	29276.91
601.198	28910.32
601.395	28795.64
601.591	29029.1
601.787	28846.83
601.984	28351.23
602.18	28879.6
602.376	28246.78
602.572	28322.55
602.769	28349.18
602.965	27998.98
603.161	28076.8
603.357	27937.54
603.553	28009.22
603.75	28199.68
603.946	27833.09
604.142	27964.16
604.338	27544.33
604.534	27771.65
604.73	27589.38
604.926	27185.93
605.122	27613.96
605.318	27030.29
605.514	26931.98
605.71	26913.55
605.906	26843.92
606.102	27118.35
606.298	27427.59
606.494	26901.26
606.69	26780.43
606.886	27159.31
607.082	26376.98
607.278	26862.35
607.474	26417.94
607.67	26383.13
607.866	26315.55
608.062	26688.28
608.257	26272.54
608.453	26497.81
608.649	26366.74
608.845	26061.6
609.041	26043.17
609.236	26131.23
609.432	25883.42
609.628	25879.33
609.824	25723.68
610.019	26082.08
610.215	26037.02
610.411	25522.98
610.606	25531.17
610.802	25647.91
610.998	25312.04
611.193	25449.25
611.389	25418.53
611.584	25297.7
611.78	25039.66
611.976	25340.71
612.171	25137.96
612.367	25752.35
612.562	24961.84
612.758	24898.35
612.953	24740.66
613.149	25031.47
613.344	25082.67
613.539	25418.53
613.735	25008.94
613.93	24851.25
614.126	24681.27
614.321	25049.9
614.517	24863.54
614.712	24419.13
614.907	24619.83
615.103	24777.52
615.298	24453.94
615.493	24632.11
615.688	24482.61
615.884	24673.07
616.079	24122.17
616.274	24318.78
616.47	24210.23
616.665	24402.74
616.86	24265.53
617.055	23706.43
617.25	23966.52
617.445	24064.83
617.641	23415.62
617.836	24118.07
618.031	23792.45
618.226	23898.94
618.421	23343.94
618.616	24154.94
618.811	23319.37
619.006	23612.23
619.201	23233.35
619.396	23649.09
619.591	22799.18
619.786	23200.58
619.981	22592.34
620.176	22932.3
620.371	22553.43
620.566	22500.18
620.761	22903.63
620.956	22565.71
621.151	22055.77
621.346	22526.8
621.541	22123.35
621.735	22283.09
621.93	22035.29
622.125	22066.01
622.32	21599.07
622.515	21795.68
622.709	21300.07
622.904	21478.24
623.099	21373.8
623.294	21295.97
623.488	21119.85
623.683	21009.26
623.878	20829.04
624.072	20882.28
624.267	20634.48
624.462	20775.79
624.656	20786.03
624.851	20298.61
625.046	20380.53
625.24	20304.76
625.435	19938.17
625.629	20059
625.824	19993.47
626.018	19729.28
626.213	19213.19
626.407	19493.76
626.602	19280.77
626.796	19479.43
626.991	19413.89
627.185	18891.66
627.38	18772.88
627.574	19000.2
627.768	18774.92
627.963	18756.49
628.157	18484.11
628.352	18543.5
628.546	18144.15
628.74	18318.23
628.935	17990.55
629.129	18412.43
629.323	17609.63
629.517	17941.4
629.712	17513.38
629.906	17673.12
630.1	17456.03
630.294	17531.81
630.489	17292.19
630.683	17560.48
630.877	17292.19
631.071	17001.38
631.265	17241
631.459	16888.74
631.653	16765.87
631.848	16696.24
632.042	16726.96
632.236	16624.56
632.43	16303.03
632.624	16501.68
632.818	16642.99
633.012	16286.64
633.206	16356.27
633.4	16192.44
633.594	15836.09
633.788	16004.02
633.982	16120.76
634.176	15770.55
634.369	15680.44
634.563	15780.79
634.757	15539.13
634.951	15606.72
635.145	15473.6
635.339	15242.18
635.533	15313.86
635.726	15328.19
635.92	15193.03
636.114	14934.98
636.308	15066.05
636.501	14984.13
636.695	14844.87
636.889	14570.44
637.083	14463.95
637.276	14412.75
637.47	14498.77
637.664	14408.65
637.857	14447.57
638.051	14197.71
638.244	14158.8
638.438	14224.34
638.632	14117.84
638.825	13954.01
639.019	13650.91
639.212	13603.8
639.406	13810.65
639.599	13687.77
639.793	13462.49
639.986	13577.18
640.18	13308.9
640.373	13294.56
640.567	13169.63
640.76	13337.57
640.954	13143.01
641.147	13022.18
641.34	13022.18
641.534	12950.5
641.727	13140.96
641.92	12811.24
642.114	12817.38
642.307	12739.56
642.5	12522.48
642.694	12395.5
642.887	12358.64
643.08	12590.06
643.273	12311.53
643.467	12227.57
643.66	12305.39
643.853	12110.83
644.046	12043.25
644.239	11985.91
644.432	11754.49
644.626	12063.73
644.819	11723.77
645.012	11672.57
645.205	11662.33
645.398	11711.48
645.591	11545.59
645.784	11621.37
645.977	11537.4
646.17	11463.68
646.363	11310.08
646.556	11121.66
646.749	11312.13
646.942	11246.59
647.135	11049.99
647.328	10982.4
647.521	10769.41
647.714	10785.8
647.907	10755.08
648.099	10775.56
648.292	10701.83
648.485	10472.46
648.678	10603.53
648.871	10480.65
649.064	10402.83
649.256	10429.45
649.449	10474.51
649.642	10402.83
649.835	10357.77
650.027	10118.16
650.22	10314.77
650.413	10284.05
650.605	10181.65
650.798	10054.67
650.991	9876.5
651.183	9903.12
651.376	9905.17
651.568	10050.58
651.761	9776.15
651.954	9649.18
652.146	9501.72
652.339	9829.4
652.531	9733.14
652.724	9280.54
652.916	9495.58
653.109	9483.29
653.301	9356.32
653.494	9223.2
653.686	9323.55
653.879	9225.25
654.071	9229.34
654.263	8987.68
654.456	9268.25
654.648	9002.02
654.84	8776.74
655.033	8926.24
655.225	8942.63
655.417	8842.28
655.61	8770.6
655.802	8633.38
655.994	8764.45
656.186	8868.9
656.379	8901.67
656.571	8514.6
656.763	8598.57
656.955	8436.78
657.148	8107.05
657.34	8487.98
657.532	8393.77
657.724	8223.79
657.916	8457.26
658.108	8018.99
658.3	8184.88
658.492	8199.21
658.684	8080.43
658.876	8004.66
659.068	7935.03
659.26	7961.65
659.452	8041.52
659.644	7836.72
659.836	7908.4
660.028	7994.42
660.22	7695.41
660.412	7767.09
660.604	7930.93
660.796	7547.96
660.988	7507
661.18	7564.34
661.372	7550.01
661.563	7545.91
661.755	7554.1
661.947	7480.38
662.139	7420.99
662.331	7371.83
662.522	7306.3
662.714	7287.87
662.906	7099.45
663.097	7187.52
663.289	7238.72
663.481	7195.71
663.673	7052.35
663.864	7035.97
664.056	6925.38
664.247	6964.29
664.439	6853.7
664.631	6943.81
664.822	6988.86
665.014	6800.45
665.205	6771.78
665.397	6796.35
665.588	6569.03
665.78	6810.69
665.971	6708.29
666.163	6589.51
666.354	6540.36
666.546	6513.74
666.737	6657.09
666.929	6583.37
667.12	6523.98
667.311	6360.14
667.503	6431.82
667.694	6280.27
667.885	6270.03
668.077	6433.86
668.268	6290.51
668.459	6327.37
668.651	6110.29
668.842	6231.12
669.033	6057.04
669.224	6194.25
669.416	6208.59
669.607	6132.81
669.798	5887.06
669.989	6059.09
670.18	5946.45
670.371	5837.91
670.563	5860.43
670.754	5903.44
670.945	5880.91
671.136	5745.75
671.327	5786.71
671.518	5745.75
671.709	5790.8
671.9	5821.52
672.091	5737.56
672.282	5669.97
672.473	5616.72
672.664	5618.77
672.855	5766.23
673.046	5616.72
673.237	5751.89
673.428	5499.99
673.619	5620.82
673.809	5633.11
674	5391.45
674.191	5479.51
674.382	5428.31
674.573	5370.97
674.764	5362.78
674.954	5559.38
675.145	5307.48
675.336	5338.2
675.527	5327.96
675.717	5356.63
675.908	5446.74
676.099	5254.23
676.289	5256.28
676.48	5229.66
676.671	5211.23
676.861	5309.53
677.052	5129.31
677.243	5063.77
677.433	5092.44
677.624	5246.04
677.814	5125.21
678.005	5065.82
678.195	5205.08
678.386	5131.36
678.576	5004.38
678.767	5039.2
678.957	5047.39
679.148	4992.09
679.338	5004.38
679.529	4942.94
679.719	4932.7
679.909	4863.07
680.1	4865.12
680.29	4883.55
680.481	5002.33
680.671	4957.28
680.861	4695.14
681.052	4852.83
681.242	4635.75
681.432	4988
681.622	4744.29
681.813	4695.14
682.003	4887.65
682.193	4697.19
682.383	4715.62
682.573	4617.32
682.764	4766.82
682.954	4813.92
683.144	4678.76
683.334	4697.19
683.524	4633.7
683.714	4607.08
683.904	4570.21
684.094	4576.36
684.284	4580.45
684.474	4641.89
684.664	4494.44
684.854	4639.84
685.044	4482.15
685.234	4547.69
685.424	4467.81
685.614	4457.57
685.804	4299.88
685.994	4476.01
686.184	4414.57
686.374	4318.31
686.564	4310.12
686.753	4394.09
686.943	4234.35
687.133	4277.35
687.323	4090.99
687.513	4287.59
687.702	4215.91
687.892	4297.83
688.082	4131.95
688.272	4265.07
688.461	4172.91
688.651	4228.2
688.841	4041.84
689.03	4035.69
689.22	3945.58
689.41	4039.79
689.599	4000.88
689.789	4037.74
689.979	4095.08
690.168	3959.92
690.358	4041.84
690.547	4004.97
690.737	3961.97
690.926	3896.43
691.116	3808.37
691.305	3804.27
691.495	3804.27
691.684	3787.89
691.874	3859.57
692.063	3794.03
692.252	3908.72
692.442	3861.62
692.631	3718.26
692.82	3828.85
693.01	3669.11
693.199	3724.4
693.388	3652.72
693.578	3642.48
693.767	3628.15
693.956	3640.44
694.146	3658.87
694.335	3593.33
694.524	3705.97
694.713	3662.96
694.902	3611.76
695.092	3490.93
695.281	3527.8
695.47	3595.38
695.659	3579
695.848	3574.9
696.037	3478.65
696.226	3656.82
696.415	3429.49
696.604	3468.41
696.793	3468.41
696.982	3464.31
697.171	3396.73
697.36	3409.01
697.549	3406.97
697.738	3335.29
697.927	3325.05
698.116	3435.64
698.305	3361.91
698.494	3462.26
698.683	3353.72
698.872	3413.11
699.061	3363.96
699.25	3476.6
699.438	3437.69
699.627	3376.25
699.816	3357.82
700.005	3425.4
700.193	3343.48
700.382	3323
700.571	3286.14
700.76	3329.14
700.948	3196.03
701.137	3290.23
701.326	3388.53
701.514	3273.85
701.703	3286.14
701.892	3415.16
702.08	3495.03
702.269	3265.66
702.457	3157.11
702.646	3339.38
702.834	3214.46
703.023	3349.62
703.212	3171.45
703.4	3161.21
703.589	3370.1
703.777	3363.96
703.965	3183.74
704.154	3263.61
704.342	3218.55
704.531	3302.52
704.719	3239.03
704.907	3261.56
705.096	3189.88
705.284	3218.55
705.472	3255.42
705.661	3128.44
705.849	3185.79
706.037	3163.26
706.226	3175.55
706.414	3279.99
706.602	3132.54
706.79	3181.69
706.979	3161.21
707.167	3302.52
707.355	3048.57
707.543	3144.83
707.731	3279.99
707.919	3175.55
708.107	3148.92
708.296	3099.77
708.484	3036.28
708.672	3171.45
708.86	3112.06
709.048	3175.55
709.236	3003.52
709.424	3073.15
709.612	3169.4
709.8	3093.63
709.988	3155.07
710.176	3060.86
710.364	3056.76
710.551	3110.01
710.739	3171.45
710.927	2999.42
711.115	3130.49
711.303	2999.42
711.491	3052.67
711.679	3036.28
711.866	2980.99
712.054	3120.25
712.242	2987.13
712.43	3069.05
712.617	3159.16
712.805	3081.34
712.993	2899.07
713.181	2987.13
713.368	3001.47
713.556	2997.37
713.744	3058.81
713.931	3050.62
714.119	2935.93
714.306	3009.66
714.494	3058.81
714.682	2995.32
714.869	2907.26
715.057	3064.96
715.244	3140.73
715.432	2980.99
715.619	2991.23
715.807	2929.79
715.994	3050.62
716.182	3064.96
716.369	2937.98
716.556	2907.26
716.744	3013.76
716.931	2858.11
717.119	2970.75
717.306	2864.25
717.493	2917.5
717.681	2931.84
717.868	2770.05
718.055	2888.83
718.242	2874.49
718.43	2915.45
718.617	2915.45
718.804	3007.61
718.991	2968.7
719.179	2985.09
719.366	2960.51
719.553	2909.31
719.74	2833.54
719.927	2815.1
720.114	2937.98
720.301	2886.78
720.488	2919.55
720.676	2694.27
720.863	2804.86
721.05	2823.3
721.237	2811.01
721.424	2727.04
721.611	2868.35
721.798	2751.62
721.985	2765.95
722.172	2808.96
722.358	2770.05
722.545	2626.69
722.732	2780.29
722.919	2696.32
723.106	2800.77
723.293	2794.62
723.48	2763.9
723.667	2679.94
723.853	2817.15
724.04	2765.95
724.227	2860.16
724.414	2708.61
724.6	2645.12
724.787	2610.31
724.974	2647.17
725.161	2735.23
725.347	2782.34
725.534	2739.33
725.72	2792.58
725.907	2774.14
726.094	2655.36
726.28	2602.11
726.467	2749.57
726.653	2784.38
726.84	2645.12
727.027	2700.42
727.213	2565.25
727.4	2684.03
727.586	2663.55
727.773	2641.03
727.959	2735.23
728.145	2610.31
728.332	2550.92
728.518	2598.02
728.705	2727.04
728.891	2626.69
729.077	2587.78
729.264	2710.66
729.45	2643.07
729.636	2579.59
729.823	2538.63
730.009	2575.49
730.195	2634.88
730.382	2501.76
730.568	2608.26
730.754	2485.38
730.94	2700.42
731.126	2589.83
731.313	2514.05
731.499	2495.62
731.685	2548.87
731.871	2452.61
732.057	2507.91
732.243	2514.05
732.429	2456.71
732.615	2514.05
732.801	2491.52
732.987	2417.8
733.173	2501.76
733.359	2481.28
733.545	2618.5
733.731	2452.61
733.917	2471.04
734.103	2475.14
734.289	2440.33
734.475	2444.42
734.661	2460.81
734.847	2520.2
735.033	2417.8
735.219	2446.47
735.404	2315.4
735.59	2477.19
735.776	2473.09
735.962	2364.55
736.148	2481.28
736.333	2415.75
736.519	2380.93
736.705	2389.13
736.89	2407.56
737.076	2411.65
737.262	2233.48
737.447	2352.26
737.633	2339.97
737.819	2413.7
738.004	2272.39
738.19	2303.11
738.375	2270.34
738.561	2346.12
738.747	2413.7
738.932	2266.25
739.118	2370.69
739.303	2464.9
739.489	2188.43
739.674	2366.6
739.859	2278.54
740.045	2229.38
740.23	2352.26
740.416	2235.53
740.601	2311.3
740.786	2213
740.972	2333.83
741.157	2188.43
741.342	2184.33
741.528	2186.38
741.713	2133.13
741.898	2147.47
742.084	2145.42
742.269	2190.47
742.454	2233.48
742.639	2116.75
742.824	2096.27
743.01	2073.74
743.195	2081.93
743.38	2043.02
743.565	2069.64
743.75	2114.7
743.935	2159.75
744.12	2106.51
744.305	2045.07
744.49	2096.27
744.675	2051.21
744.86	2055.31
745.045	1983.63
745.23	2010.25
745.415	1967.24
745.6	1948.81
745.785	1918.09
745.97	1991.82
746.155	1973.39
746.34	1930.38
746.525	1877.13
746.71	1981.58
746.895	1897.61
747.079	1893.52
747.264	1825.93
747.449	1838.22
747.634	1842.32
747.819	1877.13
748.003	1844.37
748.188	1791.12
748.373	1819.79
748.557	1821.84
748.742	1827.98
748.927	1844.37
749.111	1715.34
749.296	1750.16
749.481	1848.46
749.665	1737.87
749.85	1760.4
750.034	1676.43
750.219	1627.28
750.404	1625.23
750.588	1701.01
750.773	1518.74
750.957	1643.67
751.141	1698.96
751.326	1631.38
751.51	1565.84
751.695	1561.75
751.879	1549.46
752.064	1574.03
752.248	1576.08
752.432	1496.21
752.617	1676.43
752.801	1574.03
752.985	1535.12
753.17	1559.7
753.354	1520.79
753.538	1551.51
753.722	1498.26
753.907	1438.87
754.091	1399.96
754.275	1408.15
754.459	1522.84
754.643	1414.29
754.828	1424.53
755.012	1346.71
755.196	1424.53
755.38	1432.72
755.564	1346.71
755.748	1299.61
755.932	1348.76
756.116	1416.34
756.3	1344.66
756.484	1262.74
756.668	1305.75
756.852	1315.99
757.036	1148.06
757.22	1344.66
757.404	1283.22
757.588	1256.6
757.772	1352.85
757.956	1270.94
758.14	1311.89
758.323	1162.39
758.507	1178.78
758.691	1152.15
758.875	1189.02
759.059	1152.15
759.242	1240.22
759.426	1115.29
759.61	1168.54
759.794	1170.58
759.977	1256.6
760.161	1199.26
760.345	1156.25
760.528	1086.62
760.712	1121.43
760.895	1127.58
761.079	1084.57
761.263	1137.82
761.446	1146.01
761.63	1049.75
761.813	1127.58
761.997	1049.75
762.18	982.17
762.364	1066.14
762.547	1070.23
762.731	1084.57
762.914	982.17
763.098	1090.71
763.281	1041.56
763.464	1078.43
763.648	1066.14
763.831	1012.89
764.015	982.17
764.198	967.84
764.381	1055.9
764.564	953.5
764.748	1070.23
764.931	943.26
765.114	949.4
765.297	924.83
765.481	924.83
765.664	928.92
765.847	1055.9
766.03	1000.6
766.213	945.31
766.397	959.64
766.58	883.87
766.763	1043.61
766.946	908.44
767.129	1029.27
767.312	869.53
767.495	994.46
767.678	982.17
767.861	1049.75
768.044	885.92
768.227	912.54
768.41	906.4
768.593	986.27
768.776	894.11
768.959	933.02
769.142	933.02
769.324	902.3
769.507	838.81
769.69	894.11
769.873	865.44
770.056	924.83
770.239	812.19
770.421	818.33
770.604	885.92
770.787	758.94
770.97	824.48
771.152	877.73
771.335	924.83
771.518	863.39
771.7	896.16
771.883	844.96
772.066	855.2
772.248	775.33
772.431	760.99
772.613	799.9
772.796	734.37
772.978	799.9
773.161	822.43
773.343	724.13
773.526	713.89
773.708	820.38
773.891	738.46
774.073	760.99
774.256	816.29
774.438	722.08
774.621	685.22
774.803	771.23
774.985	758.94
775.168	752.8
775.35	730.27
775.532	775.33
775.715	769.18
775.897	679.07
776.079	738.46
776.261	695.46
776.444	644.26
776.626	750.75
776.808	662.69
776.99	707.74
777.173	699.55
777.355	664.74
777.537	625.83
777.719	713.89
777.901	609.44
778.083	584.87
778.265	634.02
778.447	631.97
778.629	617.63
778.811	670.88
778.993	631.97
779.175	654.5
779.357	627.87
779.539	513.19
779.721	631.97
779.903	574.63
780.085	576.67
780.267	658.59
780.449	664.74
780.631	646.3
780.812	623.78
780.994	545.95
781.176	591.01
781.358	435.36
781.54	578.72
781.721	570.53
781.903	531.62
782.085	517.28
782.267	599.2
782.448	500.9
782.63	523.43
782.812	550.05
782.993	580.77
783.175	566.43
783.357	636.06
783.538	480.42
783.72	500.9
783.901	482.47
784.083	490.66
784.264	523.43
784.446	468.13
784.627	490.66
784.809	461.99
784.99	529.57
785.172	519.33
785.353	466.08
785.535	474.28
785.716	459.94
785.897	439.46
786.079	369.83
786.26	449.7
786.441	464.04
786.623	449.7
786.804	435.36
786.985	423.08
787.167	421.03
787.348	410.79
787.529	437.41
787.71	431.27
787.891	394.4
788.073	408.74
788.254	412.84
788.435	361.64
788.616	353.45
788.797	353.45
788.978	324.77
789.159	418.98
789.34	384.16
789.522	365.73
789.703	392.36
789.884	394.4
790.065	384.16
790.246	441.51
790.427	431.27
790.607	394.4
790.788	373.92
790.969	316.58
791.15	341.16
791.331	326.82
791.512	302.25
791.693	357.54
791.874	304.29
792.054	349.35
792.235	353.45
792.416	294.05
792.597	318.63
792.778	369.83
792.958	281.77
793.139	312.49
793.32	359.59
793.5	259.24
793.681	361.64
793.862	269.48
794.042	345.25
794.223	292.01
794.404	287.91
794.584	320.68
794.765	292.01
794.945	208.04
795.126	324.77
795.306	427.17
795.487	320.68
795.667	257.19
795.848	205.99
796.028	314.53
796.209	328.87
796.389	230.57
796.57	277.67
796.75	318.63
796.93	380.07
797.111	193.7
797.291	347.3
797.471	267.43
797.652	244.9
797.832	224.42
798.012	355.49
798.192	236.71
798.373	203.94
798.553	234.66
798.733	306.34
798.913	281.77
799.093	285.86
799.274	179.37
799.454	249
799.634	251.05
799.814	269.48
799.994	246.95
800.174	253.09
800.354	238.76
800.534	234.66
800.714	298.15
800.894	220.33
801.074	228.52
801.254	294.05
801.434	275.62
801.614	214.18
801.794	246.95
801.974	691.36
802.154	230.57
802.334	265.38
802.514	195.75
802.693	203.94
802.873	240.81
803.053	292.01
803.233	236.71
803.413	203.94
803.592	189.61
803.772	210.09
803.952	222.38
804.131	259.24
804.311	253.09
804.491	271.53
804.67	134.31
804.85	175.27
805.03	246.95
805.209	195.75
805.389	228.52
805.568	218.28
805.748	160.94
805.928	242.85
806.107	195.75
806.287	253.09
806.466	212.14
806.646	216.23
806.825	242.85
807.004	177.32
807.184	255.14
807.363	253.09
807.543	222.38
807.722	185.51
807.901	205.99
808.081	236.71
808.26	222.38
808.439	142.5
808.619	212.14
808.798	185.51
808.977	171.18
809.156	158.89
809.336	216.23
809.515	177.32
809.694	183.46
809.873	228.52
810.052	214.18
810.231	210.09
810.411	124.07
810.59	255.14
810.769	197.8
810.948	218.28
811.127	117.93
811.306	89.26
811.485	208.04
811.664	212.14
811.843	130.22
812.022	146.6
812.201	119.98
812.38	218.28
812.559	160.94
812.737	267.43
812.916	162.98
813.095	181.42
813.274	148.65
813.453	175.27
813.632	154.79
813.811	132.26
813.989	160.94
814.168	199.85
814.347	169.13
814.526	191.66
814.704	169.13
814.883	158.89
815.062	62.63
815.24	214.18
815.419	91.31
815.598	208.04
815.776	15.53
815.955	122.02
816.133	117.93
816.312	119.98
816.49	144.55
816.669	146.6
816.847	64.68
817.026	210.09
817.204	52.39
817.383	76.97
817.561	105.64
817.74	60.59
817.918	232.62
818.097	95.4
818.275	117.93
818.453	130.22
818.632	222.38
818.81	101.55
818.988	97.45
819.167	101.55
819.345	105.64
819.523	95.4
819.701	173.22
819.879	119.98
820.058	146.6
820.236	158.89
820.414	58.54
820.592	54.44
820.77	60.59
820.948	136.36
821.127	113.83
821.305	187.56
821.483	111.78
821.661	124.07
821.839	140.46
822.017	15.53
822.195	33.96
822.373	148.65
822.551	136.36
822.729	119.98
822.907	70.83
823.085	115.88
823.262	99.5
823.44	124.07
823.618	142.5
823.796	97.45
823.974	40.11
824.152	138.41
824.329	83.11
824.507	154.79
824.685	148.65
824.863	101.55
825.04	99.5
825.218	126.12
825.396	105.64
825.574	113.83
825.751	62.63
825.929	36.01
826.107	91.31
826.284	105.64
826.462	95.4
826.639	52.39
826.817	36.01
826.994	62.63
827.172	62.63
827.349	89.26
827.527	79.02
827.704	119.98
827.882	101.55
828.059	183.46
828.237	128.17
828.414	115.88
828.591	87.21
828.769	87.21
828.946	79.02
829.124	142.5
829.301	85.16
829.478	115.88
829.655	83.11
829.833	-2.9
830.01	95.4
830.187	128.17
830.364	50.35
830.542	101.55
830.719	40.11
830.896	122.02
831.073	111.78
831.25	52.39
831.427	97.45
831.604	128.17
831.782	54.44
831.959	54.44
832.136	103.59
832.313	93.35
832.49	109.74
832.667	33.96
832.844	66.73
833.021	74.92
833.198	101.55
833.374	25.77
833.551	60.59
833.728	99.5
833.905	89.26
834.082	-7
834.259	7.34
834.436	-17.24
834.612	15.53
834.789	58.54
834.966	93.35
835.143	60.59
835.319	115.88
835.496	46.25
835.673	154.79
835.85	156.84
836.026	15.53
836.203	58.54
836.38	29.87
836.556	48.3
836.733	-9.05
836.909	93.35
837.086	11.43
837.262	138.41
837.439	36.01
837.616	76.97
837.792	66.73
837.968	44.2
838.145	17.58
838.321	27.82
838.498	29.87
838.674	154.79
838.851	62.63
839.027	54.44
839.203	29.87
839.38	87.21
839.556	46.25
839.732	74.92
839.909	56.49
840.085	95.4
840.261	3.24
840.437	81.07
840.614	33.96
840.79	36.01
840.966	128.17
841.142	46.25
841.318	89.26
841.494	136.36
841.671	42.15
841.847	17.58
842.023	85.16
842.199	72.87
842.375	17.58
842.551	91.31
842.727	167.08
842.903	107.69
843.079	7.34
843.255	148.65
843.431	44.2
843.607	-11.09
843.783	36.01
843.959	60.59
844.134	-33.62
844.31	56.49
844.486	56.49
844.662	33.96
844.838	72.87
845.013	19.63
845.189	27.82
845.365	42.15
845.541	38.06
845.716	68.78
845.892	15.53
846.068	66.73
846.244	25.77
846.419	31.91
846.595	40.11
846.77	25.77
846.946	93.35
847.122	36.01
847.297	54.44
847.473	99.5
847.648	-31.57
847.824	83.11
847.999	9.39
848.175	66.73
848.35	89.26
848.526	113.83
848.701	93.35
848.876	52.39
849.052	42.15
849.227	76.97
849.403	17.58
849.578	81.07
849.753	17.58
849.929	87.21
850.104	-2.9
850.279	-0.85
850.454	58.54
850.63	52.39
850.805	36.01
850.98	17.58
851.155	27.82
851.33	79.02
851.505	13.48
851.681	70.83
851.856	48.3
852.031	64.68
852.206	-19.29
852.381	-4.95
852.556	19.63
852.731	33.96
852.906	107.69
853.081	72.87
853.256	40.11
853.431	33.96
853.606	38.06
853.781	48.3
853.956	15.53
854.131	58.54
854.305	27.82
854.48	-35.67
854.655	21.67
854.83	40.11
855.005	11.43
855.18	54.44
855.354	44.2
855.529	33.96
855.704	-19.29
855.879	9.39
856.053	-41.81
856.228	15.53
856.403	52.39
856.577	56.49
856.752	9.39
856.926	-19.29
857.101	-47.96
857.276	-0.85
857.45	15.53
857.625	17.58
857.799	76.97
857.974	74.92
858.148	-7
858.323	60.59
858.497	27.82
858.672	27.82
858.846	5.29
859.02	21.67
859.195	15.53
859.369	42.15
859.543	81.07
859.718	21.67
859.892	76.97
860.066	56.49
860.241	9.39
860.415	42.15
860.589	38.06
860.763	-0.85
860.938	23.72
861.112	48.3
861.286	31.91
861.46	62.63
861.634	19.63
861.808	74.92
861.982	27.82
862.157	-21.33
862.331	-60.24
862.505	21.67
862.679	9.39
862.853	1.19
863.027	11.43
863.201	52.39
863.375	23.72
863.549	-9.05
863.722	1.19
863.896	95.4
864.07	62.63
864.244	31.91
864.418	-21.33
864.592	-13.14
864.766	42.15
864.939	-31.57
865.113	9.39
865.287	76.97
865.461	-11.09
865.634	40.11
865.808	-21.33
865.982	-11.09
866.156	79.02
866.329	-2.9
866.503	68.78
866.676	79.02
866.85	72.87
867.024	76.97
867.197	33.96
867.371	19.63
867.544	29.87
867.718	-33.62
867.891	58.54
868.065	-25.43
868.238	38.06
868.412	58.54
868.585	-23.38
868.759	15.53
868.932	91.31
869.105	-19.29
869.279	38.06
869.452	-50
869.625	9.39
869.799	1.19
869.972	-82.77
870.145	93.35
870.319	-25.43
870.492	29.87
870.665	-2.9
870.838	7.34
871.011	-76.63
871.185	-4.95
871.358	-25.43
871.531	54.44
871.704	25.77
871.877	-4.95
872.05	33.96
872.223	21.67
872.396	-7
872.569	3.24
872.742	-21.33
872.915	7.34
873.088	1.19
873.261	-35.67
873.434	42.15
873.607	-11.09
873.78	36.01
873.953	-56.15
874.126	1.19
874.299	68.78
874.471	11.43
874.644	54.44
874.817	40.11
874.99	40.11
875.163	-4.95
875.335	1.19
875.508	52.39
875.681	31.91
875.853	44.2
876.026	44.2
876.199	38.06
876.371	-0.85
876.544	-35.67
876.717	72.87
876.889	-23.38
877.062	46.25
877.234	-17.24
877.407	-17.24
877.579	-25.43
877.752	5.29
877.924	25.77
878.097	11.43
878.269	-35.67
878.442	11.43
878.614	-2.9
878.786	-9.05
878.959	1.19
879.131	17.58
879.303	-25.43
879.476	25.77
879.648	-41.81
879.82	19.63
879.993	36.01
880.165	-54.1
880.337	-33.62
880.509	107.69
880.681	-21.33
880.854	-25.43
881.026	1.19
881.198	17.58
881.37	23.72
881.542	40.11
881.714	95.4
881.886	46.25
882.058	44.2
882.23	-47.96
882.402	19.63
882.574	25.77
882.746	36.01
882.918	38.06
883.09	33.96
883.262	95.4
883.434	11.43
883.606	-13.14
883.778	-13.14
883.95	105.64
884.122	111.78
884.293	21.67
884.465	33.96
884.637	72.87
884.809	-35.67
884.98	89.26
885.152	9.39
885.324	93.35
885.496	72.87
885.667	-13.14
885.839	-11.09
886.011	99.5
886.182	-27.48
886.354	-37.72
886.525	48.3
886.697	-0.85
886.869	5.29
887.04	17.58
887.212	15.53
887.383	33.96
887.555	70.83
887.726	-9.05
887.897	7.34
888.069	-25.43
888.24	-19.29
888.412	-39.76
888.583	5.29
888.754	11.43
888.926	3.24
889.097	-2.9
889.268	9.39
889.44	33.96
889.611	-9.05
889.782	-29.52
889.953	23.72
890.125	25.77
890.296	-17.24
890.467	3.24
890.638	-84.82
890.809	50.35
890.98	-31.57
891.151	-9.05
891.323	13.48
891.494	-54.1
891.665	48.3
891.836	-19.29
892.007	21.67
892.178	13.48
892.349	-74.58
892.52	13.48
892.691	9.39
892.862	70.83
893.032	-74.58
893.203	-41.81
893.374	48.3
893.545	23.72
893.716	-21.33
893.887	-13.14
894.057	-17.24
894.228	79.02
894.399	-13.14
894.57	74.92
894.74	-70.48
894.911	17.58
895.082	36.01
895.253	7.34
895.423	-9.05
895.594	27.82
895.764	17.58
895.935	17.58
896.106	62.63
896.276	-37.72
896.447	7.34
896.617	-7
896.788	-45.91
896.958	7.34
897.129	11.43
897.299	33.96
897.47	70.83
897.64	5.29
897.81	-82.77
897.981	15.53
898.151	-17.24
898.322	-0.85
898.492	97.45
898.662	42.15
898.832	-11.09
899.003	93.35
899.173	87.21
899.343	-70.48
899.513	-66.39
