Data from USB4F104151__75__12-02-06-986.txt Node

Date: Fri Mar 14 12:02:06 EDT 2025
User: louis
Spectrometer: USB4F10415
Trigger mode: 4
Integration Time (sec): 2.000000E-2
Scans to average: 1
Electric dark correction enabled: true
Nonlinearity correction enabled: false
Boxcar width: 0
XAxis mode: Wavelengths
Number of Pixels in Spectrum: 3648
>>>>>Begin Spectral Data<<<<<
178.204	-19.8
178.424	-19.8
178.644	-19.8
178.864	-62.8
179.084	-114
179.304	-36.18
179.524	-62.8
179.744	-23.89
179.964	33.45
180.184	15.02
180.404	23.21
180.624	12.97
180.844	-27.99
181.064	19.11
181.283	2.73
181.503	25.26
181.723	19.11
181.943	21.16
182.163	41.64
182.383	31.4
182.602	78.51
182.822	33.45
183.042	86.7
183.262	55.98
183.482	64.17
183.701	107.18
183.921	60.07
184.141	66.22
184.361	41.64
184.58	29.35
184.8	55.98
185.02	-7.51
185.239	37.55
185.459	105.13
185.679	66.22
185.898	51.88
186.118	94.89
186.338	33.45
186.557	23.21
186.777	12.97
186.997	49.83
187.216	47.79
187.436	80.55
187.655	17.07
187.875	35.5
188.095	4.78
188.314	45.74
188.534	19.11
188.753	45.74
188.973	-23.89
189.192	74.41
189.412	60.07
189.631	43.69
189.851	64.17
190.07	4.78
190.29	27.31
190.509	72.36
190.729	4.78
190.948	72.36
191.168	98.99
191.387	-7.51
191.607	39.59
191.826	29.35
192.045	10.92
192.265	-11.61
192.484	53.93
192.704	70.31
192.923	-13.65
193.142	98.99
193.362	49.83
193.581	129.7
193.8	-23.89
194.02	55.98
194.239	47.79
194.458	6.83
194.678	21.16
194.897	131.75
195.116	47.79
195.335	4.78
195.555	-17.75
195.774	21.16
195.993	58.03
196.212	6.83
196.432	12.97
196.651	33.45
196.87	-3.41
197.089	21.16
197.308	29.35
197.528	88.75
197.747	60.07
197.966	47.79
198.185	80.55
198.404	82.6
198.623	19.11
198.842	49.83
199.062	-1.37
199.281	47.79
199.5	8.87
199.719	72.36
199.938	60.07
200.157	68.27
200.376	31.4
200.595	74.41
200.814	58.03
201.033	2.73
201.252	94.89
201.471	62.12
201.69	47.79
201.909	119.46
202.128	-32.08
202.347	68.27
202.566	29.35
202.785	37.55
203.004	21.16
203.223	51.88
203.442	49.83
203.661	10.92
203.879	10.92
204.098	17.07
204.317	-46.42
204.536	31.4
204.755	66.22
204.974	31.4
205.193	0.68
205.411	96.94
205.63	35.5
205.849	68.27
206.068	35.5
206.287	58.03
206.505	19.11
206.724	43.69
206.943	0.68
207.162	74.41
207.381	-9.56
207.599	12.97
207.818	35.5
208.037	37.55
208.255	-17.75
208.474	43.69
208.693	86.7
208.911	-1.37
209.13	27.31
209.349	60.07
209.567	60.07
209.786	113.32
210.005	6.83
210.223	21.16
210.442	-21.85
210.661	15.02
210.879	45.74
211.098	-46.42
211.316	41.64
211.535	39.59
211.753	15.02
211.972	25.26
212.191	60.07
212.409	45.74
212.628	58.03
212.846	62.12
213.065	29.35
213.283	135.85
213.502	47.79
213.72	78.51
213.938	72.36
214.157	39.59
214.375	64.17
214.594	105.13
214.812	10.92
215.031	15.02
215.249	62.12
215.467	74.41
215.686	41.64
215.904	78.51
216.122	27.31
216.341	76.46
216.559	105.13
216.778	60.07
216.996	58.03
217.214	-9.56
217.432	58.03
217.651	31.4
217.869	-7.51
218.087	12.97
218.306	33.45
218.524	15.02
218.742	-21.85
218.96	84.65
219.179	35.5
219.397	21.16
219.615	66.22
219.833	109.22
220.051	-32.08
220.27	45.74
220.488	-1.37
220.706	62.12
220.924	-11.61
221.142	-1.37
221.36	70.31
221.578	-17.75
221.796	-21.85
222.015	78.51
222.233	39.59
222.451	70.31
222.669	58.03
222.887	55.98
223.105	45.74
223.323	43.69
223.541	23.21
223.759	43.69
223.977	33.45
224.195	55.98
224.413	10.92
224.631	37.55
224.849	-11.61
225.067	90.79
225.285	-44.37
225.503	41.64
225.721	-30.04
225.939	39.59
226.157	-1.37
226.375	70.31
226.592	25.26
226.81	35.5
227.028	27.31
227.246	51.88
227.464	86.7
227.682	66.22
227.9	21.16
228.117	66.22
228.335	55.98
228.553	15.02
228.771	12.97
228.989	2.73
229.206	123.56
229.424	-13.65
229.642	109.22
229.86	0.68
230.077	98.99
230.295	51.88
230.513	23.21
230.731	60.07
230.948	25.26
231.166	94.89
231.384	127.66
231.601	64.17
231.819	96.94
232.037	-11.61
232.254	-17.75
232.472	-68.95
232.689	72.36
232.907	51.88
233.125	49.83
233.342	37.55
233.56	-3.41
233.777	82.6
233.995	49.83
234.213	23.21
234.43	10.92
234.648	12.97
234.865	58.03
235.083	17.07
235.3	29.35
235.518	105.13
235.735	49.83
235.953	98.99
236.17	2.73
236.388	60.07
236.605	23.21
236.822	64.17
237.04	58.03
237.257	76.46
237.475	53.93
237.692	86.7
237.909	70.31
238.127	-5.46
238.344	58.03
238.562	27.31
238.779	-17.75
238.996	21.16
239.214	55.98
239.431	45.74
239.648	64.17
239.865	109.22
240.083	55.98
240.3	49.83
240.517	49.83
240.735	-3.41
240.952	66.22
241.169	74.41
241.386	45.74
241.603	4.78
241.821	-54.61
242.038	53.93
242.255	12.97
242.472	-23.89
242.689	10.92
242.907	72.36
243.124	64.17
243.341	53.93
243.558	27.31
243.775	-23.89
243.992	113.32
244.209	6.83
244.426	27.31
244.643	74.41
244.86	62.12
245.078	45.74
245.295	43.69
245.512	51.88
245.729	37.55
245.946	88.75
246.163	25.26
246.38	84.65
246.597	27.31
246.814	58.03
247.031	39.59
247.248	25.26
247.464	21.16
247.681	21.16
247.898	-48.47
248.115	76.46
248.332	82.6
248.549	62.12
248.766	-7.51
248.983	53.93
249.2	74.41
249.417	55.98
249.633	19.11
249.85	21.16
250.067	43.69
250.284	58.03
250.501	15.02
250.717	-7.51
250.934	37.55
251.151	-1.37
251.368	39.59
251.585	10.92
251.801	25.26
252.018	-1.37
252.235	74.41
252.451	37.55
252.668	55.98
252.885	37.55
253.102	-36.18
253.318	4.78
253.535	-30.04
253.752	19.11
253.968	82.6
254.185	31.4
254.401	-9.56
254.618	25.26
254.835	-3.41
255.051	84.65
255.268	53.93
255.484	60.07
255.701	-21.85
255.917	98.99
256.134	23.21
256.351	47.79
256.567	10.92
256.784	39.59
257	2.73
257.217	-9.56
257.433	98.99
257.65	-5.46
257.866	35.5
258.082	45.74
258.299	4.78
258.515	23.21
258.732	47.79
258.948	19.11
259.165	35.5
259.381	-11.61
259.597	19.11
259.814	39.59
260.03	137.9
260.246	105.13
260.463	76.46
260.679	58.03
260.895	41.64
261.112	53.93
261.328	15.02
261.544	29.35
261.761	107.18
261.977	115.37
262.193	49.83
262.409	55.98
262.626	15.02
262.842	41.64
263.058	-52.56
263.274	31.4
263.49	113.32
263.707	78.51
263.923	43.69
264.139	2.73
264.355	21.16
264.571	15.02
264.787	4.78
265.004	92.84
265.22	31.4
265.436	96.94
265.652	21.16
265.868	64.17
266.084	31.4
266.3	53.93
266.516	76.46
266.732	15.02
266.948	58.03
267.164	33.45
267.38	109.22
267.596	60.07
267.812	-9.56
268.028	78.51
268.244	-5.46
268.46	39.59
268.676	60.07
268.892	68.27
269.108	35.5
269.324	113.32
269.54	68.27
269.756	82.6
269.972	109.22
270.188	-17.75
270.403	47.79
270.619	23.21
270.835	-15.7
271.051	29.35
271.267	2.73
271.483	-15.7
271.698	55.98
271.914	19.11
272.13	4.78
272.346	80.55
272.562	27.31
272.777	90.79
272.993	12.97
273.209	55.98
273.425	45.74
273.64	31.4
273.856	103.08
274.072	76.46
274.287	10.92
274.503	88.75
274.719	19.11
274.934	-19.8
275.15	-1.37
275.366	-1.37
275.581	60.07
275.797	-9.56
276.012	15.02
276.228	80.55
276.444	17.07
276.659	92.84
276.875	74.41
277.09	-73.04
277.306	29.35
277.521	23.21
277.737	4.78
277.952	17.07
278.168	-13.65
278.383	55.98
278.599	31.4
278.814	41.64
279.03	58.03
279.245	103.08
279.461	19.11
279.676	62.12
279.892	-38.23
280.107	47.79
280.322	-25.94
280.538	47.79
280.753	-15.7
280.969	90.79
281.184	72.36
281.399	8.87
281.615	-17.75
281.83	105.13
282.045	-11.61
282.26	41.64
282.476	25.26
282.691	70.31
282.906	129.7
283.122	41.64
283.337	58.03
283.552	115.37
283.767	80.55
283.983	64.17
284.198	70.31
284.413	74.41
284.628	-44.37
284.843	47.79
285.058	68.27
285.274	31.4
285.489	-15.7
285.704	45.74
285.919	80.55
286.134	33.45
286.349	74.41
286.564	98.99
286.779	37.55
286.995	49.83
287.21	58.03
287.425	60.07
287.64	33.45
287.855	82.6
288.07	33.45
288.285	84.65
288.5	64.17
288.715	90.79
288.93	23.21
289.145	43.69
289.36	39.59
289.575	41.64
289.79	60.07
290.004	109.22
290.219	133.8
290.434	-17.75
290.649	21.16
290.864	86.7
291.079	41.64
291.294	12.97
291.509	4.78
291.724	41.64
291.938	6.83
292.153	43.69
292.368	4.78
292.583	4.78
292.798	66.22
293.012	19.11
293.227	8.87
293.442	53.93
293.657	23.21
293.871	96.94
294.086	-25.94
294.301	64.17
294.516	98.99
294.73	45.74
294.945	37.55
295.16	55.98
295.374	2.73
295.589	25.26
295.804	35.5
296.018	-83.28
296.233	111.27
296.447	27.31
296.662	66.22
296.877	90.79
297.091	86.7
297.306	41.64
297.52	92.84
297.735	121.51
297.949	21.16
298.164	76.46
298.378	82.6
298.593	-21.85
298.807	27.31
299.022	55.98
299.236	-5.46
299.451	64.17
299.665	33.45
299.88	53.93
300.094	58.03
300.309	25.26
300.523	37.55
300.737	66.22
300.952	78.51
301.166	43.69
301.381	-73.04
301.595	90.79
301.809	49.83
302.024	105.13
302.238	101.03
302.452	47.79
302.667	17.07
302.881	58.03
303.095	41.64
303.309	-3.41
303.524	55.98
303.738	84.65
303.952	78.51
304.166	58.03
304.381	-27.99
304.595	51.88
304.809	33.45
305.023	47.79
305.237	25.26
305.452	64.17
305.666	76.46
305.88	64.17
306.094	92.84
306.308	31.4
306.522	23.21
306.736	6.83
306.95	-32.08
307.164	127.66
307.379	-54.61
307.593	33.45
307.807	17.07
308.021	64.17
308.235	6.83
308.449	92.84
308.663	-15.7
308.877	185
309.091	-3.41
309.305	101.03
309.519	10.92
309.733	125.61
309.947	-30.04
310.161	2.73
310.374	19.11
310.588	119.46
310.802	109.22
311.016	74.41
311.23	-11.61
311.444	66.22
311.658	6.83
311.872	51.88
312.085	37.55
312.299	164.52
312.513	35.5
312.727	49.83
312.941	82.6
313.154	137.9
313.368	12.97
313.582	70.31
313.796	17.07
314.009	101.03
314.223	70.31
314.437	66.22
314.651	111.27
314.864	0.68
315.078	96.94
315.292	101.03
315.505	55.98
315.719	84.65
315.933	41.64
316.146	94.89
316.36	37.55
316.573	88.75
316.787	-1.37
317.001	70.31
317.214	68.27
317.428	82.6
317.641	-42.32
317.855	45.74
318.068	-5.46
318.282	17.07
318.495	117.42
318.709	45.74
318.922	19.11
319.136	131.75
319.349	35.5
319.563	-1.37
319.776	113.32
319.99	35.5
320.203	74.41
320.417	78.51
320.63	47.79
320.843	94.89
321.057	-17.75
321.27	37.55
321.483	21.16
321.697	80.55
321.91	119.46
322.124	82.6
322.337	-15.7
322.55	78.51
322.763	45.74
322.977	27.31
323.19	37.55
323.403	103.08
323.617	-15.7
323.83	8.87
324.043	23.21
324.256	105.13
324.469	-13.65
324.683	55.98
324.896	47.79
325.109	105.13
325.322	-15.7
325.535	23.21
325.748	86.7
325.962	43.69
326.175	15.02
326.388	47.79
326.601	109.22
326.814	58.03
327.027	45.74
327.24	107.18
327.453	45.74
327.666	90.79
327.879	31.4
328.092	105.13
328.305	82.6
328.518	-23.89
328.731	86.7
328.944	86.7
329.157	37.55
329.37	66.22
329.583	86.7
329.796	49.83
330.009	23.21
330.222	45.74
330.435	60.07
330.648	76.46
330.861	55.98
331.073	0.68
331.286	82.6
331.499	129.7
331.712	80.55
331.925	148.14
332.138	45.74
332.35	21.16
332.563	19.11
332.776	96.94
332.989	74.41
333.202	2.73
333.414	-38.23
333.627	47.79
333.84	82.6
334.053	60.07
334.265	76.46
334.478	33.45
334.691	51.88
334.903	33.45
335.116	12.97
335.329	96.94
335.541	43.69
335.754	31.4
335.966	45.74
336.179	84.65
336.392	33.45
336.604	0.68
336.817	29.35
337.029	94.89
337.242	53.93
337.454	53.93
337.667	66.22
337.88	90.79
338.092	10.92
338.305	33.45
338.517	74.41
338.729	43.69
338.942	21.16
339.154	-17.75
339.367	45.74
339.579	80.55
339.792	47.79
340.004	62.12
340.217	66.22
340.429	45.74
340.641	74.41
340.854	4.78
341.066	86.7
341.278	94.89
341.491	62.12
341.703	45.74
341.915	15.02
342.128	146.09
342.34	88.75
342.552	6.83
342.764	21.16
342.977	-27.99
343.189	47.79
343.401	72.36
343.613	-1.37
343.826	80.55
344.038	39.59
344.25	31.4
344.462	66.22
344.674	29.35
344.886	47.79
345.099	70.31
345.311	37.55
345.523	29.35
345.735	86.7
345.947	68.27
346.159	70.31
346.371	43.69
346.583	66.22
346.795	70.31
347.007	4.78
347.219	90.79
347.431	29.35
347.643	62.12
347.855	58.03
348.067	94.89
348.279	12.97
348.491	8.87
348.703	17.07
348.915	72.36
349.127	98.99
349.339	39.59
349.551	21.16
349.763	76.46
349.975	74.41
350.187	21.16
350.399	131.75
350.61	68.27
350.822	98.99
351.034	101.03
351.246	107.18
351.458	8.87
351.669	86.7
351.881	76.46
352.093	80.55
352.305	66.22
352.517	35.5
352.728	68.27
352.94	-11.61
353.152	68.27
353.363	10.92
353.575	101.03
353.787	41.64
353.999	49.83
354.21	109.22
354.422	2.73
354.633	4.78
354.845	-30.04
355.057	62.12
355.268	55.98
355.48	8.87
355.692	92.84
355.903	78.51
356.115	8.87
356.326	55.98
356.538	21.16
356.749	84.65
356.961	49.83
357.172	72.36
357.384	19.11
357.595	144.04
357.807	80.55
358.018	88.75
358.23	23.21
358.441	58.03
358.653	47.79
358.864	68.27
359.075	-7.51
359.287	45.74
359.498	-27.99
359.709	68.27
359.921	23.21
360.132	70.31
360.344	107.18
360.555	8.87
360.766	86.7
360.977	88.75
361.189	96.94
361.4	80.55
361.611	76.46
361.823	92.84
362.034	92.84
362.245	62.12
362.456	21.16
362.667	43.69
362.879	-21.85
363.09	82.6
363.301	92.84
363.512	88.75
363.723	29.35
363.935	-7.51
364.146	-13.65
364.357	2.73
364.568	107.18
364.779	21.16
364.99	49.83
365.201	72.36
365.412	133.8
365.623	21.16
365.834	137.9
366.045	55.98
366.256	60.07
366.467	88.75
366.678	78.51
366.889	29.35
367.1	43.69
367.311	53.93
367.522	45.74
367.733	45.74
367.944	111.27
368.155	35.5
368.366	82.6
368.577	19.11
368.788	51.88
368.999	113.32
369.209	19.11
369.42	129.7
369.631	133.8
369.842	84.65
370.053	-5.46
370.264	43.69
370.474	27.31
370.685	133.8
370.896	86.7
371.107	154.28
371.317	25.26
371.528	51.88
371.739	72.36
371.95	2.73
372.16	119.46
372.371	92.84
372.582	131.75
372.792	70.31
373.003	135.85
373.214	21.16
373.424	115.37
373.635	37.55
373.846	86.7
374.056	39.59
374.267	74.41
374.477	96.94
374.688	98.99
374.898	39.59
375.109	4.78
375.319	15.02
375.53	113.32
375.74	-15.7
375.951	117.42
376.161	33.45
376.372	94.89
376.582	66.22
376.793	88.75
377.003	23.21
377.214	62.12
377.424	90.79
377.635	88.75
377.845	33.45
378.055	125.61
378.266	43.69
378.476	8.87
378.686	60.07
378.897	55.98
379.107	55.98
379.317	47.79
379.528	35.5
379.738	72.36
379.948	74.41
380.158	78.51
380.369	19.11
380.579	66.22
380.789	23.21
380.999	103.08
381.21	45.74
381.42	88.75
381.63	41.64
381.84	82.6
382.05	82.6
382.261	86.7
382.471	64.17
382.681	119.46
382.891	45.74
383.101	113.32
383.311	12.97
383.521	23.21
383.731	-21.85
383.941	90.79
384.151	70.31
384.361	37.55
384.571	55.98
384.781	72.36
384.991	70.31
385.201	94.89
385.411	66.22
385.621	80.55
385.831	88.75
386.041	96.94
386.251	41.64
386.461	64.17
386.671	84.65
386.881	66.22
387.091	127.66
387.301	129.7
387.511	-1.37
387.72	47.79
387.93	131.75
388.14	8.87
388.35	21.16
388.56	127.66
388.769	115.37
388.979	-1.37
389.189	96.94
389.399	113.32
389.609	74.41
389.818	137.9
390.028	55.98
390.238	74.41
390.447	49.83
390.657	96.94
390.867	96.94
391.076	84.65
391.286	19.11
391.496	76.46
391.705	-13.65
391.915	68.27
392.125	58.03
392.334	51.88
392.544	119.46
392.753	76.46
392.963	53.93
393.172	86.7
393.382	74.41
393.591	70.31
393.801	156.33
394.01	80.55
394.22	115.37
394.429	37.55
394.639	29.35
394.848	111.27
395.058	82.6
395.267	84.65
395.477	68.27
395.686	189.1
395.895	68.27
396.105	135.85
396.314	39.59
396.524	84.65
396.733	137.9
396.942	41.64
397.152	197.29
397.361	111.27
397.57	80.55
397.78	96.94
397.989	115.37
398.198	133.8
398.407	135.85
398.617	103.08
398.826	72.36
399.035	98.99
399.244	66.22
399.453	150.18
399.663	123.56
399.872	103.08
400.081	66.22
400.29	144.04
400.499	92.84
400.708	55.98
400.917	111.27
401.127	170.66
401.336	135.85
401.545	146.09
401.754	127.66
401.963	78.51
402.172	84.65
402.381	146.09
402.59	121.51
402.799	68.27
403.008	139.94
403.217	111.27
403.426	158.38
403.635	86.7
403.844	58.03
404.053	240.29
404.262	133.8
404.471	139.94
404.68	160.42
404.888	105.13
405.097	146.09
405.306	101.03
405.515	139.94
405.724	189.1
405.933	170.66
406.142	170.66
406.35	238.25
406.559	207.53
406.768	228.01
406.977	242.34
407.185	189.1
407.394	211.62
407.603	207.53
407.812	211.62
408.02	293.54
408.229	187.05
408.438	193.19
408.646	223.91
408.855	260.77
409.064	289.45
409.272	205.48
409.481	221.86
409.69	232.1
409.898	293.54
410.107	326.31
410.315	307.88
410.524	275.11
410.733	318.12
410.941	297.64
411.15	340.65
411.358	422.56
411.567	252.58
411.775	352.93
411.984	361.13
412.192	391.84
412.401	400.04
412.609	438.95
412.818	510.63
413.026	504.48
413.234	563.87
413.443	488.1
413.651	545.44
413.86	613.03
414.068	565.92
414.276	586.4
414.485	535.2
414.693	602.79
414.901	737.95
415.11	719.52
415.318	641.7
415.526	772.77
415.734	733.86
415.943	688.8
416.151	748.19
416.359	764.57
416.567	815.77
416.776	826.01
416.984	907.93
417.192	967.32
417.4	981.66
417.608	901.79
417.817	936.6
418.025	948.89
418.233	1092.25
418.441	1043.1
418.649	1147.55
418.857	1176.22
419.065	1229.46
419.273	1219.22
419.481	1327.77
419.689	1274.52
419.897	1440.4
420.105	1376.92
420.313	1424.02
420.521	1559.19
420.729	1524.37
420.937	1573.52
421.145	1471.12
421.353	1757.84
421.561	1927.82
421.769	1837.71
421.977	1954.44
422.185	1780.37
422.393	1997.45
422.601	2165.39
422.809	2069.13
423.017	2253.45
423.224	2265.74
423.432	2247.3
423.64	2396.81
423.848	2394.76
424.056	2464.39
424.263	2693.76
424.471	2665.09
424.679	2673.28
424.887	2865.79
425.094	2896.51
425.302	2906.75
425.51	2992.76
425.718	3129.98
425.925	3277.43
426.133	3211.9
426.341	3541.62
426.548	3607.16
426.756	3654.26
426.964	3754.61
427.171	3875.44
427.379	3963.5
427.586	4129.39
427.794	4287.08
428.001	4364.9
428.209	4518.5
428.417	4528.74
428.624	4756.07
428.832	4825.7
429.039	4815.46
429.247	4651.62
429.454	5255.77
429.662	5700.18
429.869	5296.73
430.076	5667.41
430.284	5542.49
430.491	5548.63
430.699	6187.6
430.906	6066.77
431.114	6013.52
431.321	6246.99
431.528	6466.12
431.736	6992.45
431.943	7230.01
432.15	6920.77
432.358	6937.15
432.565	7488.06
432.772	7408.19
432.979	7735.86
433.187	7868.98
433.394	7862.83
433.601	8430.12
433.808	8481.32
434.016	8516.14
434.223	8978.98
434.43	9384.48
434.637	9036.32
434.844	9820.69
435.052	9974.29
435.259	9935.38
435.466	10041.87
435.673	9888.28
435.88	10557.96
436.087	10996.23
436.294	11319.81
436.501	10899.97
436.708	11123.2
436.915	11629.05
437.122	12110.32
437.329	11909.62
437.537	12235.25
437.743	12607.98
437.95	12433.9
438.157	13001.19
438.364	13453.79
438.571	13392.35
438.778	13666.78
438.985	14580.17
439.192	14100.95
439.399	14868.94
439.606	14379.47
439.813	15311.3
440.02	16026.04
440.227	15950.26
440.433	15671.74
440.64	15997.37
440.847	15985.08
441.054	16570.8
441.261	17480.1
441.467	17402.27
441.674	17838.49
441.881	18258.32
442.088	18377.11
442.294	18276.76
442.501	18645.39
442.708	19163.53
442.914	19743.1
443.121	20609.39
443.328	20279.67
443.534	21586.27
443.741	20980.07
443.948	20492.66
444.154	22090.07
444.361	21850.46
444.568	22075.74
444.774	22278.49
444.981	22655.31
445.187	23333.19
445.394	24289.59
445.6	23824.7
445.807	25950.49
446.013	24899.89
446.22	25434.41
446.426	26054.94
446.633	26685.72
446.839	27543.81
447.046	26417.43
447.252	27531.53
447.459	28078.33
447.665	27949.31
447.871	29055.22
448.078	30376.16
448.284	29157.61
448.491	29321.45
448.697	30767.32
448.903	31275.21
449.11	31269.07
449.316	30902.48
449.522	31461.58
449.728	32553.15
449.935	32813.24
450.141	32319.68
450.347	33562.79
450.553	32346.3
450.76	32551.1
450.966	33685.67
451.172	33329.33
451.378	34267.3
451.584	33546.41
451.791	34392.22
451.997	34125.99
452.203	34871.45
452.409	34803.86
452.615	34662.55
452.821	33444.01
453.027	33104.05
453.233	34660.51
453.44	33290.41
453.646	33960.1
453.852	33671.34
454.058	34588.83
454.264	33517.74
454.47	34441.37
454.676	33548.46
454.882	34187.42
455.088	31506.63
455.294	31883.46
455.5	32460.99
455.705	32516.28
455.911	31400.14
456.117	30804.18
456.323	30247.13
456.529	28883.19
456.735	29944.03
456.941	29276.4
457.147	28725.49
457.352	27885.83
457.558	27697.41
457.764	27607.3
457.97	27037.97
458.176	26593.56
458.381	26257.69
458.587	25137.45
458.793	25389.35
458.999	24064.32
459.204	25614.63
459.41	25229.61
459.616	23333.19
459.821	22911.31
460.027	22749.52
460.233	22624.59
460.438	21635.42
460.644	21901.66
460.85	20855.15
461.055	20558.19
461.261	20531.57
461.466	18907.53
461.672	18428.31
461.878	19538.3
462.083	18387.35
462.289	18112.92
462.494	17801.63
462.7	16886.19
462.905	16320.95
463.111	16994.73
463.316	17289.63
463.522	16763.31
463.727	17035.69
463.932	16910.76
464.138	16693.68
464.343	16781.74
464.549	16044.47
464.754	16746.92
464.959	16562.61
465.165	16458.16
465.37	15686.08
465.575	15378.88
465.781	15999.41
465.986	16257.46
466.191	15374.78
466.397	15296.96
466.602	14590.41
466.807	15100.36
467.012	15065.54
467.218	15040.97
467.423	14598.6
467.628	14934.47
467.833	15372.74
468.038	15126.98
468.244	14440.91
468.449	15124.93
468.654	14383.57
468.859	14154.19
469.064	14565.84
469.269	13752.79
469.474	13920.73
469.679	14277.07
469.885	13789.66
470.09	14121.43
470.295	13922.77
470.5	13652.44
470.705	13615.58
470.91	13281.76
471.115	13138.4
471.32	13599.2
471.525	13365.73
471.73	13105.63
471.935	12868.07
472.139	12503.53
472.344	12673.51
472.549	12464.62
472.754	12306.93
472.959	12030.45
473.164	11940.34
473.369	12077.55
473.574	12282.35
473.778	11971.06
473.983	12134.9
474.188	11919.86
474.393	11422.2
474.598	11514.36
474.802	11391.48
475.007	11231.74
475.212	11205.12
475.417	10820.1
475.621	10936.84
475.826	10854.92
476.031	10615.3
476.235	10496.52
476.44	10572.3
476.645	10517
476.849	10367.5
477.054	10295.82
477.259	10152.46
477.463	9984.53
477.668	9935.38
477.872	9896.47
478.077	9847.32
478.282	9470.49
478.486	9585.18
478.691	9673.24
478.895	9447.96
479.1	9533.98
479.304	9271.84
479.509	9200.16
479.713	9329.18
479.918	8991.27
480.122	8882.72
480.326	9003.55
480.531	9290.27
480.735	8942.11
480.94	8794.66
481.144	9165.34
481.348	8649.25
481.553	8915.49
481.757	8596.01
481.961	8772.13
482.166	8856.1
482.37	8815.14
482.574	8727.08
482.778	8641.06
482.983	8948.26
483.187	8800.8
483.391	8667.69
483.595	8757.8
483.8	8598.06
484.004	8821.28
484.208	8700.45
484.412	8690.21
484.616	8823.33
484.821	8499.75
485.025	8727.08
485.229	8538.66
485.433	8694.31
485.637	8567.34
485.841	8540.71
486.045	8512.04
486.249	8682.02
486.453	8591.91
486.657	8456.75
486.861	8661.54
487.065	8383.02
487.269	8532.52
487.473	8526.38
487.677	8716.84
487.881	8614.44
488.085	8655.4
488.289	8790.56
488.493	8759.84
488.697	8931.87
488.901	8759.84
489.105	8870.44
489.309	8860.2
489.512	8749.61
489.716	8704.55
489.92	8784.42
490.124	8632.87
490.328	9114.14
490.531	8798.76
490.735	8817.19
490.939	9005.6
491.143	8890.92
491.346	8809
491.55	8970.79
491.754	9165.34
491.958	9030.18
492.161	8923.68
492.365	8991.27
492.569	9097.76
492.772	9069.09
492.976	9151.01
493.18	9222.69
493.383	9292.32
493.587	9343.52
493.79	9478.68
493.994	9275.93
494.197	9478.68
494.401	9482.78
494.605	9542.17
494.808	9906.71
495.012	9869.84
495.215	9949.71
495.419	10062.35
495.622	9890.32
495.825	9875.99
496.029	9841.17
496.232	10195.47
496.436	10162.7
496.639	10338.83
496.843	10213.9
497.046	10701.32
497.249	10588.68
497.453	10641.93
497.656	10744.33
497.859	10727.94
498.063	10770.95
498.266	11362.81
498.469	11160.06
498.673	11186.69
498.876	11428.35
499.079	11586.04
499.282	11549.18
499.485	11911.67
499.689	11708.92
499.892	11909.62
500.095	11995.64
500.298	12429.81
500.501	12188.14
500.705	12716.52
500.908	12868.07
501.111	12831.21
501.314	12935.65
501.517	13091.3
501.72	12929.51
501.923	13226.46
502.126	13421.02
502.329	13603.29
502.532	13758.94
502.735	13865.43
502.938	13930.97
503.141	14117.33
503.344	14463.44
503.547	14295.5
503.75	14660.04
503.953	14916.04
504.156	14846.41
504.359	15450.56
504.562	15010.25
504.765	15385.02
504.968	15661.5
505.17	15681.98
505.373	15651.26
505.576	16308.66
505.779	16185.78
505.982	16112.05
506.185	16488.88
506.387	16716.2
506.59	16974.25
506.793	17097.13
506.996	17078.69
507.198	17545.63
507.401	17287.59
507.604	17582.49
507.807	18184.6
508.009	17975.7
508.212	18307.48
508.415	18373.01
508.617	18559.38
508.82	18616.72
509.022	18483.6
509.225	19001.74
509.428	18997.64
509.63	19476.87
509.833	19476.87
510.035	20171.13
510.238	19644.8
510.44	20015.48
510.643	20291.96
510.845	20509.04
511.048	20373.88
511.25	20599.15
511.453	20844.91
511.655	21367.14
511.858	21465.44
512.06	21498.21
512.262	21993.82
512.465	21569.89
512.667	21983.58
512.87	22215
513.072	22237.53
513.274	22643.03
513.477	23130.44
513.679	23054.67
513.881	23306.57
514.084	23462.21
514.286	23460.16
514.488	23624
514.69	24056.12
514.893	24465.72
515.095	24510.77
515.297	24604.98
515.499	24676.66
515.701	25239.85
515.904	25080.11
516.106	25338.15
516.308	25614.63
516.51	25776.42
516.712	25860.38
516.914	26245.4
517.116	26022.17
517.318	26745.11
517.52	26900.75
517.722	26939.66
517.925	27175.18
518.127	27640.07
518.329	27500.81
518.531	27468.04
518.733	28023.04
518.935	27988.22
519.136	28096.77
519.338	28483.83
519.54	28616.95
519.742	29190.38
519.944	28954.86
520.146	29585.64
520.348	29819.11
520.55	29456.62
520.752	30089.44
520.954	30349.53
521.155	29702.37
521.357	30562.52
521.559	30728.41
521.761	30943.44
521.963	30894.29
522.164	31230.16
522.366	31281.36
522.568	31717.57
522.77	31746.25
522.971	31983.81
523.173	31785.16
523.375	31867.08
523.576	31926.47
523.778	32100.54
523.98	32743.61
524.181	32503.99
524.383	32655.54
524.584	33067.19
524.786	32884.92
524.988	32972.98
525.189	33263.79
525.391	33415.34
525.592	33417.39
525.794	33595.56
525.995	33337.52
526.197	33685.67
526.398	33720.49
526.6	34193.57
526.801	33951.91
527.003	34386.08
527.204	34353.31
527.406	34601.11
527.607	34568.35
527.808	34801.82
528.01	34089.12
528.211	34416.8
528.412	35225.75
528.614	34988.18
528.815	34918.55
529.016	35401.87
529.218	34629.79
529.419	34998.42
529.62	34984.08
529.822	35426.45
530.023	35002.52
530.224	34691.23
530.425	35143.83
530.626	35168.4
530.828	35020.95
531.029	35860.62
531.23	35307.66
531.431	35049.62
531.632	35641.48
531.833	35786.89
532.035	35477.65
532.236	35590.28
532.437	35829.9
532.638	35371.15
532.839	35256.46
533.04	35711.11
533.241	35039.38
533.442	35799.18
533.643	35704.97
533.844	35594.38
534.045	35676.3
534.246	35268.75
534.447	35965.06
534.648	35729.55
534.849	35836.04
535.05	35438.73
535.251	35739.79
535.451	35442.83
535.652	35477.65
535.853	35840.14
536.054	36049.03
536.255	35948.68
536.456	35221.65
536.657	35782.79
536.857	35283.09
537.058	35496.08
537.259	35784.84
537.46	35465.36
537.66	35864.71
537.861	35682.44
538.062	35655.82
538.263	35831.94
538.463	35551.37
538.664	35281.04
538.865	35846.28
539.065	35928.2
539.266	35428.49
539.466	35801.22
539.667	35262.61
539.868	35424.4
540.068	35522.7
540.269	35219.6
540.469	35659.91
540.67	35389.58
540.87	35416.21
541.071	35014.8
541.271	35340.43
541.472	35356.82
541.672	35293.33
541.873	35221.65
542.073	35053.72
542.274	35737.74
542.474	35045.52
542.675	35342.48
542.875	35170.45
543.075	35276.94
543.276	34986.13
543.476	35645.58
543.676	35235.99
543.877	35324.05
544.077	35125.39
544.277	34961.56
544.478	34969.75
544.678	35313.81
544.878	35033.24
545.078	35192.98
545.279	34838.68
545.479	34707.61
545.679	34932.89
545.879	35426.45
546.079	35125.39
546.28	35348.62
546.48	34787.48
546.68	35436.69
546.88	35031.19
547.08	35233.94
547.28	34930.84
547.48	34799.77
547.68	35082.39
547.88	34893.97
548.081	35061.91
548.281	34996.37
548.481	35166.35
548.681	34842.78
548.881	34994.32
549.081	34836.63
549.28	34846.87
549.48	34769.05
549.68	34910.36
549.88	35063.96
550.08	34951.32
550.28	35207.31
550.48	34728.09
550.68	34998.42
550.88	34654.36
551.08	34889.88
551.279	34517.15
551.479	34658.46
551.679	34787.48
551.879	34597.02
552.079	34832.54
552.278	34812.06
552.478	35188.88
552.678	34549.92
552.878	34599.07
553.077	34277.54
553.277	34334.88
553.477	35258.51
553.676	34384.03
553.876	34652.31
554.076	34451.61
554.275	34820.25
554.475	34046.12
554.674	34465.95
554.874	34394.27
555.074	34805.91
555.273	34599.07
555.473	34539.68
555.672	34132.13
555.872	34367.65
556.071	34533.53
556.271	34193.57
556.47	34353.31
556.67	33978.53
556.869	34166.95
557.068	34730.14
557.268	33978.53
557.467	34244.77
557.667	34148.51
557.866	34218.14
558.065	34091.17
558.265	34121.89
558.464	33804.45
558.663	34318.49
558.863	33796.26
559.062	34515.1
559.261	33560.75
559.461	34242.72
559.66	33863.85
559.859	34142.37
560.058	33786.02
560.258	33722.54
560.457	33544.36
560.656	33927.33
560.855	33620.14
561.054	33554.6
561.253	33654.95
561.453	33736.87
561.652	33556.65
561.851	33691.82
562.05	33435.82
562.249	33302.7
562.448	33706.15
562.647	33427.63
562.846	33634.47
563.045	33611.95
563.244	33169.58
563.443	33626.28
563.642	33231.02
563.841	33257.65
564.04	32925.88
564.239	33063.09
564.438	32796.85
564.637	33521.84
564.836	32995.51
565.035	32655.54
565.234	32979.12
565.432	32932.02
565.631	33038.51
565.83	32395.45
566.029	32686.26
566.228	32823.48
566.427	32815.29
566.625	32587.96
566.824	32403.64
567.023	32716.98
567.222	32336.06
567.42	33149.1
567.619	32534.71
567.818	32387.26
568.016	32295.1
568.215	32286.91
568.414	32288.96
568.612	32596.15
568.811	32268.48
569.01	32348.35
569.208	32104.64
569.407	32207.04
569.605	31725.77
569.804	32639.16
570.002	31563.98
570.201	31934.66
570.4	31717.57
570.598	31889.6
570.797	31629.51
570.995	31785.16
571.193	31365.32
571.392	31711.43
571.59	31209.68
571.789	31357.13
571.987	31355.08
572.186	31594.7
572.384	31158.48
572.582	31346.89
572.781	31723.72
572.979	31066.32
573.177	31127.76
573.376	30945.49
573.574	31076.56
573.772	30931.15
573.971	30996.69
574.169	30640.34
574.367	30490.84
574.565	30806.23
574.763	30779.6
574.962	30808.28
575.16	30370.01
575.358	30556.38
575.556	30460.12
575.754	31101.14
575.952	30210.27
576.151	30474.46
576.349	29853.92
576.547	30206.17
576.745	30396.63
576.943	30056.67
577.141	29984.99
577.339	30517.47
577.537	29907.17
577.735	29862.11
577.933	29909.22
578.131	30060.77
578.329	29782.24
578.527	29397.23
578.725	29647.08
578.923	29573.35
579.121	29413.61
579.319	29542.63
579.516	29321.45
579.714	29176.05
579.912	29112.56
580.11	29200.62
580.308	29059.31
580.506	29055.22
580.704	28684.53
580.901	29108.46
581.099	29192.43
581.297	28643.57
581.495	28721.4
581.692	28864.75
581.89	28760.31
582.088	28831.99
582.285	28494.07
582.483	28510.46
582.681	28748.02
582.878	28420.34
583.076	27857.15
583.274	28479.74
583.471	28166.4
583.669	28014.85
583.866	27564.29
584.064	27920.64
584.262	27851.01
584.459	27898.11
584.657	27599.11
584.854	28121.34
585.052	27496.71
585.249	27621.64
585.447	27715.84
585.644	27406.6
585.841	27697.41
586.039	27713.8
586.236	26978.58
586.434	27275.53
586.631	27318.54
586.828	26867.98
587.026	27228.43
587.223	27199.76
587.42	26280.22
587.618	26691.86
587.815	26425.62
588.012	26460.44
588.21	26603.8
588.407	26722.58
588.604	26446.1
588.801	26200.35
588.999	26550.55
589.196	26155.29
589.393	26276.12
589.59	26028.32
589.787	25846.05
589.984	25899.3
590.182	25702.69
590.379	25708.83
590.576	25522.47
590.773	25954.59
590.97	25620.77
591.167	25723.17
591.364	25329.96
591.561	25659.68
591.758	25305.38
591.955	25395.5
592.152	25428.26
592.349	25114.92
592.546	24992.05
592.743	25041.2
592.94	24684.85
593.137	24666.42
593.334	24930.61
593.531	24645.94
593.727	24699.19
593.924	25000.24
594.121	24721.71
594.318	24580.4
594.515	24011.07
594.712	24660.27
594.908	24561.97
595.105	24359.22
595.302	24193.34
595.499	24238.39
595.696	24336.7
595.892	24009.02
596.089	23804.22
596.286	24211.77
596.482	23949.63
596.679	23847.23
596.876	23716.16
597.072	23316.81
597.269	23505.22
597.466	23429.45
597.662	23499.08
597.859	23308.61
598.055	23480.64
598.252	23212.36
598.448	23302.47
598.645	23281.99
598.841	23255.37
599.038	23054.67
599.234	22995.28
599.431	22667.6
599.627	22815.05
599.824	22722.9
600.02	22378.84
600.217	22724.94
600.413	22626.64
600.609	22206.81
600.806	22223.19
601.002	22378.84
601.198	22344.02
601.395	22036.83
601.591	21969.24
601.787	22270.29
601.984	22149.46
602.18	22141.27
602.376	22004.06
602.572	21899.61
602.769	22061.4
602.965	21606.75
603.161	21696.86
603.357	21481.83
603.553	21502.31
603.75	21743.97
603.946	21512.55
604.142	21635.42
604.338	21434.72
604.534	21143.91
604.73	21123.43
604.926	21043.56
605.122	21041.51
605.318	21141.86
605.514	20988.27
605.71	20793.71
605.906	20689.26
606.102	20625.78
606.298	20758.89
606.494	20758.89
606.69	20681.07
606.886	20615.54
607.082	20418.93
607.278	20568.43
607.474	20156.79
607.67	20687.22
607.866	20291.96
608.062	20304.24
608.257	19992.95
608.453	20160.89
608.649	20050.3
608.845	19997.05
609.041	20001.15
609.236	20175.22
609.432	19769.72
609.628	20011.39
609.824	19622.27
610.019	20099.45
610.215	19689.85
610.411	19800.44
610.606	19542.4
610.802	19833.21
610.998	19657.09
611.193	19775.87
611.389	19476.87
611.584	19751.29
611.78	19249.54
611.976	19188.1
612.171	19505.54
612.367	19216.77
612.562	19317.12
612.758	18952.59
612.953	18964.87
613.149	19392.9
613.344	18962.83
613.539	19444.1
613.735	19106.18
613.93	19263.88
614.126	19050.89
614.321	19272.07
614.517	19323.27
614.712	19341.7
614.907	19104.14
615.103	19050.89
615.298	18743.69
615.493	19212.68
615.688	18502.03
615.884	19149.19
616.079	18579.86
616.274	18651.53
616.47	18366.87
616.665	18760.08
616.86	18577.81
617.055	18411.92
617.25	18424.21
617.445	18588.05
617.641	18260.37
617.836	18399.63
618.031	17912.22
618.226	18211.22
618.421	18076.05
618.616	18346.39
618.811	18141.59
619.006	18004.38
619.201	17844.63
619.396	17734.04
619.591	17551.77
619.786	17938.84
619.981	17672.6
620.176	17641.89
620.371	17488.29
620.566	17705.37
620.761	17367.46
620.956	17590.69
621.151	17158.56
621.346	17125.8
621.541	17064.36
621.735	17377.7
621.93	16691.63
622.125	16900.52
622.32	16660.91
622.515	16808.36
622.709	16716.2
622.904	16880.04
623.099	16556.46
623.294	16732.59
623.488	16138.68
623.683	16392.62
623.878	15987.13
624.072	16079.29
624.267	16236.98
624.462	16189.88
624.656	15690.17
624.851	15604.16
625.046	15538.62
625.24	15731.13
625.435	15352.26
625.629	15679.93
625.824	15344.06
626.018	15249.86
626.213	14729.67
626.407	15057.35
626.602	15022.53
626.796	15096.26
626.991	15016.39
627.185	14838.22
627.38	14705.1
627.574	14563.79
627.768	14447.05
627.963	14342.61
628.157	14199.25
628.352	14463.44
628.546	13847
628.74	14250.45
628.935	14250.45
629.129	14137.81
629.323	14072.28
629.517	13976.02
629.712	13652.44
629.906	13881.81
630.1	13605.34
630.294	13746.65
630.489	13365.73
630.683	13451.74
630.877	13367.77
631.071	13156.83
631.265	13337.06
631.459	13050.34
631.653	13017.57
631.848	12990.95
632.042	13048.29
632.236	13130.21
632.43	12693.99
632.624	12820.97
632.818	12689.9
633.012	12538.35
633.206	12550.64
633.4	12620.27
633.594	12499.44
633.788	12464.62
633.982	12581.35
634.176	12298.74
634.369	12220.91
634.563	12165.62
634.757	11928.05
634.951	12124.66
635.145	12009.97
635.339	11909.62
635.533	11678.2
635.726	11567.61
635.92	11436.54
636.114	11764.22
636.308	11651.58
636.501	11469.31
636.695	11428.35
636.889	11479.55
637.083	11481.6
637.276	11059.71
637.47	10983.94
637.664	11221.5
637.857	11231.74
638.051	11153.92
638.244	11121.15
638.438	10910.21
638.632	10961.41
638.825	10899.97
639.019	10844.68
639.212	10590.73
639.406	10404.36
639.599	10658.31
639.793	10570.25
639.986	10430.99
640.18	10398.22
640.373	10437.13
640.567	10211.85
640.76	10222.09
640.954	10129.94
641.147	10154.51
641.34	9962
641.534	10207.76
641.727	10027.54
641.92	9902.61
642.114	9798.17
642.307	9671.19
642.5	9611.8
642.694	9568.79
642.887	9589.27
643.08	9740.82
643.273	9548.31
643.467	9468.44
643.66	9493.02
643.853	9536.03
644.046	9329.18
644.239	9374.24
644.432	9148.96
644.626	9245.21
644.819	8972.83
645.012	9075.23
645.205	9124.38
645.398	9116.19
645.591	8874.53
645.784	8964.64
645.977	8835.62
646.17	8786.47
646.363	8675.88
646.556	8731.17
646.749	8462.89
646.942	8718.89
647.135	8600.1
647.328	8741.41
647.521	8483.37
647.714	8282.67
647.907	8524.33
648.099	8301.1
648.292	8161.84
648.485	8215.09
648.678	8280.62
648.871	8288.81
649.064	8071.73
649.256	8239.66
649.449	8096.3
649.642	7948.85
649.835	7879.22
650.027	7940.66
650.22	7864.88
650.413	7625.27
650.605	7731.76
650.798	7760.44
650.991	7666.23
651.183	7854.64
651.376	7705.14
651.568	7531.06
651.761	7457.34
651.954	7461.43
652.146	7418.43
652.339	7307.84
652.531	7500.34
652.724	7381.56
652.916	7234.11
653.109	7375.42
653.301	7399.99
653.494	7316.03
653.686	7072.32
653.879	6994.5
654.071	7150.14
654.263	7107.13
654.456	7168.57
654.648	6992.45
654.84	7047.74
655.033	6908.48
655.225	6744.64
655.417	6818.37
655.61	6701.64
655.802	6728.26
655.994	6685.25
656.186	6687.3
656.379	6634.05
656.571	6660.68
656.763	6476.36
656.955	6480.46
657.148	6468.17
657.34	6412.87
657.532	6414.92
657.724	6433.35
657.916	6419.02
658.108	6249.04
658.3	6435.4
658.492	6400.58
658.684	6124.11
658.876	6289.99
659.068	6025.81
659.26	6113.87
659.452	6183.5
659.644	6163.02
659.836	6203.98
660.028	5990.99
660.22	6083.15
660.412	5956.18
660.604	5831.25
660.796	5847.63
660.988	5990.99
661.18	5900.88
661.372	5984.85
661.563	5825.11
661.755	5567.06
661.947	5818.96
662.139	5730.9
662.331	5665.36
662.522	5542.49
662.714	5626.45
662.906	5579.35
663.097	5634.64
663.289	5509.72
663.481	5440.09
663.673	5612.12
663.864	5505.62
664.056	5479
664.247	5374.55
664.439	5302.87
664.631	5294.68
664.822	5327.45
665.014	5257.82
665.205	5249.63
665.397	5188.19
665.588	5225.05
665.78	5151.32
665.971	5173.85
666.163	5118.56
666.354	5073.5
666.546	5087.84
666.737	5012.06
666.929	4880.99
667.12	5046.88
667.311	5077.6
667.503	4903.52
667.694	5032.54
667.885	4903.52
668.077	4821.6
668.268	4825.7
668.459	4725.35
668.651	4725.35
668.842	4754.02
669.033	4668
669.224	4715.11
669.416	4833.89
669.607	4571.75
669.798	4618.85
669.989	4684.39
670.18	4602.47
670.371	4538.98
670.563	4604.52
670.754	4588.13
670.945	4581.99
671.136	4588.13
671.327	4409.96
671.518	4385.38
671.709	4647.52
671.9	4530.79
672.091	4444.77
672.282	4448.87
672.473	4467.3
672.664	4325.99
672.855	4338.28
673.046	4340.33
673.237	4465.25
673.428	4364.9
673.619	4356.71
673.809	4268.65
674	4291.18
674.191	4264.55
674.382	4235.88
674.573	4272.75
674.764	4192.87
674.954	4321.9
675.145	4262.51
675.336	4231.79
675.527	4287.08
675.717	4166.25
675.908	4070
676.099	4086.38
676.289	4115.05
676.48	3998.32
676.671	3926.64
676.861	4061.8
677.052	4020.85
677.243	3959.41
677.433	3906.16
677.624	3967.6
677.814	3895.92
678.005	3977.84
678.195	3955.31
678.386	3871.34
678.576	3859.06
678.767	4010.61
678.957	3857.01
679.148	3918.45
679.338	3998.32
679.529	3897.97
679.719	3803.76
679.909	3852.91
680.1	3773.04
680.29	3869.3
680.481	3709.55
680.671	3836.53
680.861	3701.36
681.052	3791.47
681.242	3756.66
681.432	3658.35
681.622	3727.99
681.813	3717.75
682.003	3885.68
682.193	3709.55
682.383	3734.13
682.573	3682.93
682.764	3783.28
682.954	3637.88
683.144	3684.98
683.334	3625.59
683.524	3512.95
683.714	3664.5
683.904	3617.4
684.094	3494.52
684.284	3613.3
684.474	3727.99
684.664	3486.33
684.854	3500.66
685.044	3605.11
685.234	3416.69
685.424	3527.28
685.614	3580.53
685.804	3502.71
685.994	3570.29
686.184	3447.41
686.374	3500.66
686.564	3521.14
686.753	3394.17
686.943	3388.02
687.133	3422.84
687.323	3447.41
687.513	3441.27
687.702	3267.19
687.892	3293.82
688.082	3439.22
688.272	3345.02
688.461	3228.28
688.651	3328.63
688.841	3236.47
689.03	3220.09
689.22	3177.08
689.41	3248.76
689.599	3152.51
689.789	3115.64
689.979	3091.07
690.168	3201.66
690.358	3101.31
690.547	3146.36
690.737	3140.22
690.926	3146.36
691.116	3041.92
691.305	3062.4
691.495	2955.9
691.684	2964.09
691.874	3023.48
692.063	3050.11
692.252	2982.53
692.442	3064.44
692.631	3068.54
692.82	2986.62
693.01	2957.95
693.199	2849.41
693.388	2828.93
693.578	2890.37
693.767	2947.71
693.956	2835.07
694.146	2986.62
694.335	2853.5
694.524	2902.65
694.713	2861.69
694.902	2929.28
695.092	2964.09
695.281	2783.87
695.47	2871.93
695.659	2800.26
695.848	2841.22
696.037	2933.37
696.226	2894.46
696.415	2652.8
696.604	2933.37
696.793	2720.39
696.982	2757.25
697.171	2681.47
697.36	2781.82
697.549	2714.24
697.738	2658.95
697.927	2710.15
698.116	2845.31
698.305	2753.15
698.494	2775.68
698.683	2691.71
698.872	2767.49
699.061	2726.53
699.25	2591.36
699.438	2605.7
699.627	2755.2
699.816	2701.95
700.005	2660.99
700.193	2718.34
700.382	2583.17
700.571	2517.64
700.76	2607.75
700.948	2644.61
701.137	2695.81
701.326	2712.19
701.514	2644.61
701.703	2603.65
701.892	2634.37
702.08	2675.33
702.269	2658.95
702.457	2566.79
702.646	2646.66
702.834	2617.99
703.023	2726.53
703.212	2652.8
703.4	2816.64
703.589	2663.04
703.777	2663.04
703.965	2566.79
704.154	2673.28
704.342	2558.6
704.531	2585.22
704.719	2589.32
704.907	2708.1
705.096	2519.68
705.284	2687.62
705.472	2701.95
705.661	2622.08
705.849	2726.53
706.037	2642.56
706.226	2648.71
706.414	2654.85
706.602	2577.03
706.79	2697.86
706.979	2611.84
707.167	2577.03
707.355	2574.98
707.543	2568.84
707.731	2646.66
707.919	2478.72
708.107	2585.22
708.296	2540.16
708.484	2554.5
708.672	2486.92
708.86	2601.6
709.048	2546.31
709.236	2701.95
709.424	2583.17
709.612	2685.57
709.8	2593.41
709.988	2534.02
710.176	2511.49
710.364	2472.58
710.551	2554.5
710.739	2620.03
710.927	2476.68
711.115	2507.4
711.303	2648.71
711.491	2579.08
711.679	2603.65
711.866	2605.7
712.054	2611.84
712.242	2570.88
712.43	2491.01
712.617	2531.97
712.805	2538.12
712.993	2529.92
713.181	2531.97
713.368	2540.16
713.556	2546.31
713.744	2456.2
713.931	2529.92
714.119	2650.75
714.306	2484.87
714.494	2499.2
714.682	2509.44
714.869	2507.4
715.057	2570.88
715.244	2456.2
715.432	2628.23
715.619	2495.11
715.807	2564.74
715.994	2527.88
716.182	2386.57
716.369	2560.64
716.556	2525.83
716.744	2523.78
716.931	2462.34
717.119	2597.51
717.306	2454.15
717.493	2468.48
717.681	2538.12
717.868	2433.67
718.055	2615.94
718.242	2486.92
718.43	2519.68
718.617	2536.07
718.804	2499.2
718.991	2548.36
719.179	2482.82
719.366	2466.44
719.553	2437.77
719.74	2419.33
719.927	2568.84
720.114	2466.44
720.301	2439.81
720.488	2378.37
720.676	2482.82
720.863	2349.7
721.05	2519.68
721.237	2445.96
721.424	2427.53
721.611	2558.6
721.798	2558.6
721.985	2390.66
722.172	2419.33
722.358	2452.1
722.545	2548.36
722.732	2386.57
722.919	2499.2
723.106	2335.37
723.293	2337.41
723.48	2423.43
723.667	2411.14
723.853	2396.81
724.04	2368.13
724.227	2347.65
724.414	2372.23
724.6	2310.79
724.787	2396.81
724.974	2355.85
725.161	2329.22
725.347	2321.03
725.534	2341.51
725.72	2392.71
725.907	2382.47
726.094	2339.46
726.28	2249.35
726.467	2329.22
726.653	2316.94
726.84	2323.08
727.027	2343.56
727.213	2282.12
727.4	2306.7
727.586	2388.61
727.773	2298.5
727.959	2380.42
728.145	2368.13
728.332	2284.17
728.518	2247.3
728.705	2323.08
728.891	2298.5
729.077	2316.94
729.264	2255.5
729.45	2308.74
729.636	2337.41
729.823	2425.48
730.009	2304.65
730.195	2237.06
730.382	2214.54
730.568	2189.96
730.754	2347.65
730.94	2232.97
731.126	2222.73
731.313	2318.98
731.499	2294.41
731.685	2187.91
731.871	2200.2
732.057	2323.08
732.243	2214.54
732.429	2271.88
732.615	2243.21
732.801	2306.7
732.987	2292.36
733.173	2200.2
733.359	2247.3
733.545	2208.39
733.731	2245.26
733.917	2208.39
734.103	2212.49
734.289	2130.57
734.475	2134.67
734.661	2226.82
734.847	2222.73
735.033	2138.76
735.219	2163.34
735.404	2140.81
735.59	2058.89
735.776	2196.11
735.962	2032.27
736.148	2120.33
736.333	2138.76
736.519	2114.19
736.705	2177.67
736.89	2089.61
737.076	2216.58
737.262	2101.9
737.447	2130.57
737.633	2050.7
737.819	2091.66
738.004	2097.8
738.19	2136.71
738.375	2116.23
738.561	2081.42
738.747	2019.98
738.932	1981.07
739.118	2011.79
739.303	1966.73
739.489	2042.51
739.674	2032.27
739.859	1972.88
740.045	1952.4
740.23	1993.36
740.416	1950.35
740.601	1966.73
740.786	1950.35
740.972	1956.49
741.157	2044.56
741.342	1852.05
741.528	1942.16
741.713	1933.97
741.898	1903.25
742.084	1884.81
742.269	1899.15
742.454	1831.57
742.639	2003.6
742.824	1802.9
743.01	1862.29
743.195	1956.49
743.38	1884.81
743.565	1950.35
743.75	1817.23
743.935	1847.95
744.12	1870.48
744.305	1745.55
744.49	1741.46
744.675	1702.54
744.86	1804.94
745.045	1745.55
745.23	1761.94
745.415	1733.26
745.6	1798.8
745.785	1761.94
745.97	1794.7
746.155	1649.3
746.34	1735.31
746.525	1682.06
746.71	1723.02
746.895	1696.4
747.079	1718.93
747.264	1692.3
747.449	1714.83
747.634	1669.78
747.819	1612.43
748.003	1444.5
748.188	1575.57
748.373	1667.73
748.557	1661.59
748.742	1544.85
748.927	1477.27
749.111	1585.81
749.296	1507.99
749.481	1563.28
749.665	1548.95
749.85	1481.36
750.034	1501.84
750.219	1446.55
750.404	1493.65
750.588	1456.79
750.773	1454.74
750.957	1512.08
751.141	1409.69
751.326	1477.27
751.51	1485.46
751.695	1403.54
751.879	1444.5
752.064	1444.5
752.248	1350.29
752.432	1403.54
752.617	1401.49
752.801	1282.71
752.985	1383.06
753.17	1424.02
753.354	1356.44
753.538	1333.91
753.722	1333.91
753.907	1274.52
754.091	1309.33
754.275	1331.86
754.459	1206.94
754.643	1249.94
754.828	1319.57
755.012	1247.9
755.196	1196.7
755.38	1208.98
755.564	1227.42
755.748	1346.2
755.932	1247.9
756.116	1147.55
756.3	1163.93
756.484	1157.78
756.668	1313.43
756.852	1133.21
757.036	1194.65
757.22	1114.78
757.404	1141.4
757.588	1127.07
757.772	1163.93
757.956	1049.24
758.14	1135.26
758.323	1159.83
758.507	1049.24
758.691	1079.96
758.875	1139.35
759.059	1069.72
759.242	1061.53
759.426	1129.11
759.61	1137.31
759.794	987.8
759.977	1049.24
760.161	1071.77
760.345	991.9
760.528	1061.53
760.712	985.76
760.895	967.32
761.079	1018.52
761.263	991.9
761.446	936.6
761.63	971.42
761.813	1010.33
761.997	916.12
762.18	912.03
762.364	981.66
762.547	881.31
762.731	1055.39
762.914	1000.09
763.098	916.12
763.281	916.12
763.464	932.51
763.648	942.75
763.831	889.5
764.015	1028.76
764.198	877.21
764.381	907.93
764.564	965.28
764.748	862.88
764.931	942.75
765.114	903.84
765.297	926.36
765.481	987.8
765.664	776.86
765.847	852.64
766.03	778.91
766.213	901.79
766.397	819.87
766.58	840.35
766.763	926.36
766.946	869.02
767.129	905.88
767.312	832.16
767.495	823.97
767.678	760.48
767.861	791.2
768.044	942.75
768.227	893.6
768.41	813.73
768.593	758.43
768.776	770.72
768.959	789.15
769.142	801.44
769.324	815.77
769.507	850.59
769.69	813.73
769.873	860.83
770.056	838.3
770.239	817.82
770.421	748.19
770.604	758.43
770.787	785.05
770.97	819.87
771.152	705.18
771.335	817.82
771.518	688.8
771.7	807.58
771.883	772.77
772.066	715.42
772.248	735.9
772.431	783.01
772.613	627.36
772.796	651.94
772.978	813.73
773.161	846.49
773.343	754.34
773.526	705.18
773.708	680.61
773.891	684.7
774.073	690.85
774.256	656.03
774.438	721.57
774.621	647.84
774.803	701.09
774.985	604.83
775.168	643.74
775.35	658.08
775.532	660.13
775.715	670.37
775.897	670.37
776.079	574.11
776.261	572.07
776.444	645.79
776.626	596.64
776.808	621.22
776.99	641.7
777.173	627.36
777.355	623.27
777.537	615.07
777.719	629.41
777.901	557.73
778.083	653.98
778.265	590.5
778.447	641.7
778.629	561.83
778.811	445.09
778.993	572.07
779.175	549.54
779.357	520.87
779.539	535.2
779.721	567.97
779.903	588.45
780.085	615.07
780.267	522.91
780.449	508.58
780.631	520.87
780.812	453.28
780.994	541.35
781.176	584.35
781.358	529.06
781.54	496.29
781.721	492.2
781.903	539.3
782.085	514.72
782.267	500.39
782.448	508.58
782.63	447.14
782.812	541.35
782.993	486.05
783.175	547.49
783.357	490.15
783.538	490.15
783.72	455.33
783.901	445.09
784.083	537.25
784.264	387.75
784.446	436.9
784.627	475.81
784.809	467.62
784.99	441
785.172	438.95
785.353	416.42
785.535	408.23
785.716	377.51
785.897	381.6
786.079	320.17
786.26	447.14
786.441	369.32
786.623	397.99
786.804	422.56
786.985	377.51
787.167	363.17
787.348	350.89
787.529	404.13
787.71	350.89
787.891	391.84
788.073	365.22
788.254	369.32
788.435	383.65
788.616	369.32
788.797	295.59
788.978	359.08
789.159	352.93
789.34	391.84
789.522	340.65
789.703	348.84
789.884	430.76
790.065	365.22
790.246	369.32
790.427	361.13
790.607	387.75
790.788	318.12
790.969	309.93
791.15	373.41
791.331	346.79
791.512	309.93
791.693	305.83
791.874	301.73
792.054	414.37
792.235	311.97
792.416	281.25
792.597	301.73
792.778	348.84
792.958	273.06
793.139	268.97
793.32	344.74
793.5	283.3
793.681	367.27
793.862	283.3
794.042	311.97
794.223	189.1
794.404	348.84
794.584	277.16
794.765	254.63
794.945	275.11
795.126	309.93
795.306	367.27
795.487	299.69
795.667	244.39
795.848	299.69
796.028	324.26
796.209	273.06
796.389	187.05
796.57	314.02
796.75	246.44
796.93	268.97
797.111	252.58
797.291	324.26
797.471	287.4
797.652	279.21
797.832	256.68
798.012	357.03
798.192	228.01
798.373	209.58
798.553	250.53
798.733	266.92
798.913	213.67
799.093	228.01
799.274	281.25
799.454	209.58
799.634	209.58
799.814	240.29
799.994	195.24
800.174	223.91
800.354	248.49
800.534	205.48
800.714	223.91
800.894	211.62
801.074	185
801.254	271.01
801.434	234.15
801.614	223.91
801.794	232.1
801.974	574.11
802.154	176.81
802.334	240.29
802.514	189.1
802.693	256.68
802.873	191.14
803.053	185
803.233	234.15
803.413	223.91
803.592	174.76
803.772	271.01
803.952	211.62
804.131	217.77
804.311	203.43
804.491	250.53
804.67	215.72
804.85	193.19
805.03	209.58
805.209	266.92
805.389	166.57
805.568	185
805.748	162.47
805.928	217.77
806.107	148.14
806.287	230.06
806.466	191.14
806.646	199.34
806.825	213.67
807.004	148.14
807.184	207.53
807.363	180.9
807.543	162.47
807.722	182.95
807.901	219.82
808.081	225.96
808.26	211.62
808.439	131.75
808.619	185
808.798	111.27
808.977	152.23
809.156	178.86
809.336	144.04
809.515	88.75
809.694	170.66
809.873	180.9
810.052	168.62
810.231	146.09
810.411	191.14
810.59	158.38
810.769	172.71
810.948	160.42
811.127	189.1
811.306	158.38
811.485	107.18
811.664	193.19
811.843	182.95
812.022	156.33
812.201	180.9
812.38	96.94
812.559	133.8
812.737	209.58
812.916	103.08
813.095	258.73
813.274	144.04
813.453	103.08
813.632	80.55
813.811	211.62
813.989	146.09
814.168	105.13
814.347	139.94
814.526	176.81
814.704	55.98
814.883	160.42
815.062	103.08
815.24	168.62
815.419	135.85
815.598	180.9
815.776	144.04
815.955	107.18
816.133	74.41
816.312	78.51
816.49	121.51
816.669	174.76
816.847	172.71
817.026	49.83
817.204	195.24
817.383	123.56
817.561	98.99
817.74	125.61
817.918	201.38
818.097	84.65
818.275	121.51
818.453	144.04
818.632	137.9
818.81	150.18
818.988	121.51
819.167	111.27
819.345	41.64
819.523	113.32
819.701	55.98
819.879	195.24
820.058	160.42
820.236	121.51
820.414	94.89
820.592	111.27
820.77	78.51
820.948	123.56
821.127	117.42
821.305	74.41
821.483	152.23
821.661	117.42
821.839	146.09
822.017	47.79
822.195	113.32
822.373	168.62
822.551	88.75
822.729	70.31
822.907	121.51
823.085	113.32
823.262	98.99
823.44	55.98
823.618	103.08
823.796	98.99
823.974	101.03
824.152	107.18
824.329	88.75
824.507	185
824.685	170.66
824.863	113.32
825.04	76.46
825.218	166.57
825.396	78.51
825.574	123.56
825.751	107.18
825.929	105.13
826.107	43.69
826.284	84.65
826.462	101.03
826.639	109.22
826.817	125.61
826.994	66.22
827.172	84.65
827.349	150.18
827.527	191.14
827.704	135.85
827.882	33.45
828.059	88.75
828.237	94.89
828.414	78.51
828.591	86.7
828.769	131.75
828.946	70.31
829.124	111.27
829.301	68.27
829.478	113.32
829.655	49.83
829.833	109.22
830.01	119.46
830.187	137.9
830.364	62.12
830.542	170.66
830.719	113.32
830.896	72.36
831.073	98.99
831.25	105.13
831.427	80.55
831.604	117.42
831.782	121.51
831.959	27.31
832.136	78.51
832.313	82.6
832.49	88.75
832.667	96.94
832.844	82.6
833.021	74.41
833.198	117.42
833.374	96.94
833.551	45.74
833.728	119.46
833.905	137.9
834.082	119.46
834.259	29.35
834.436	219.82
834.612	21.16
834.789	60.07
834.966	103.08
835.143	82.6
835.319	29.35
835.496	109.22
835.673	82.6
835.85	58.03
836.026	109.22
836.203	62.12
836.38	96.94
836.556	103.08
836.733	10.92
836.909	111.27
837.086	23.21
837.262	80.55
837.439	45.74
837.616	144.04
837.792	62.12
837.968	150.18
838.145	84.65
838.321	43.69
838.498	76.46
838.674	117.42
838.851	70.31
839.027	115.37
839.203	25.26
839.38	117.42
839.556	21.16
839.732	176.81
839.909	55.98
840.085	21.16
840.261	0.68
840.437	82.6
840.614	66.22
840.79	49.83
840.966	162.47
841.142	113.32
841.318	41.64
841.494	45.74
841.671	74.41
841.847	64.17
842.023	53.93
842.199	121.51
842.375	82.6
842.551	53.93
842.727	19.11
842.903	119.46
843.079	17.07
843.255	131.75
843.431	111.27
843.607	29.35
843.783	92.84
843.959	68.27
844.134	-27.99
844.31	121.51
844.486	49.83
844.662	27.31
844.838	117.42
845.013	98.99
845.189	60.07
845.365	92.84
845.541	45.74
845.716	94.89
845.892	107.18
846.068	64.17
846.244	49.83
846.419	49.83
846.595	92.84
846.77	31.4
846.946	49.83
847.122	47.79
847.297	74.41
847.473	21.16
847.648	45.74
847.824	37.55
847.999	72.36
848.175	76.46
848.35	15.02
848.526	53.93
848.701	115.37
848.876	37.55
849.052	53.93
849.227	47.79
849.403	182.95
849.578	74.41
849.753	68.27
849.929	21.16
850.104	62.12
850.279	72.36
850.454	109.22
850.63	86.7
850.805	51.88
850.98	2.73
851.155	23.21
851.33	76.46
851.505	4.78
851.681	31.4
851.856	68.27
852.031	-9.56
852.206	17.07
852.381	131.75
852.556	-23.89
852.731	31.4
852.906	47.79
853.081	41.64
853.256	62.12
853.431	39.59
853.606	78.51
853.781	70.31
853.956	0.68
854.131	105.13
854.305	-9.56
854.48	76.46
854.655	-13.65
854.83	2.73
855.005	4.78
855.18	58.03
855.354	78.51
855.529	8.87
855.704	25.26
855.879	74.41
856.053	35.5
856.228	66.22
856.403	60.07
856.577	94.89
856.752	-9.56
856.926	8.87
857.101	47.79
857.276	58.03
857.45	23.21
857.625	111.27
857.799	-5.46
857.974	70.31
858.148	47.79
858.323	12.97
858.497	4.78
858.672	31.4
858.846	82.6
859.02	103.08
859.195	0.68
859.369	10.92
859.543	105.13
859.718	51.88
859.892	-11.61
860.066	66.22
860.241	74.41
860.415	90.79
860.589	47.79
860.763	94.89
860.938	-34.13
861.112	4.78
861.286	12.97
861.46	31.4
861.634	-9.56
861.808	39.59
861.982	0.68
862.157	109.22
862.331	10.92
862.505	-30.04
862.679	15.02
862.853	94.89
863.027	47.79
863.201	92.84
863.375	-32.08
863.549	-17.75
863.722	-30.04
863.896	70.31
864.07	-15.7
864.244	58.03
864.418	64.17
864.592	49.83
864.766	-9.56
864.939	115.37
865.113	-13.65
865.287	39.59
865.461	-1.37
865.634	68.27
865.808	23.21
865.982	-25.94
866.156	2.73
866.329	33.45
866.503	119.46
866.676	6.83
866.85	17.07
867.024	-25.94
867.197	62.12
867.371	27.31
867.544	49.83
867.718	27.31
867.891	27.31
868.065	-58.71
868.238	-27.99
868.412	103.08
868.585	33.45
868.759	19.11
868.932	47.79
869.105	-3.41
869.279	84.65
869.452	-1.37
869.625	19.11
869.799	-1.37
869.972	8.87
870.145	17.07
870.319	80.55
870.492	-7.51
870.665	-25.94
870.838	43.69
871.011	39.59
871.185	-13.65
871.358	-13.65
871.531	47.79
871.704	8.87
871.877	35.5
872.05	62.12
872.223	-36.18
872.396	76.46
872.569	10.92
872.742	8.87
872.915	70.31
873.088	27.31
873.261	90.79
873.434	117.42
873.607	-11.61
873.78	70.31
873.953	76.46
874.126	66.22
874.299	105.13
874.471	-81.24
874.644	21.16
874.817	2.73
874.99	33.45
875.163	-42.32
875.335	78.51
875.508	33.45
875.681	55.98
875.853	-32.08
876.026	70.31
876.199	53.93
876.371	113.32
876.544	-25.94
876.717	23.21
876.889	-56.66
877.062	-7.51
877.234	58.03
877.407	43.69
877.579	27.31
877.752	-1.37
877.924	27.31
878.097	41.64
878.269	131.75
878.442	90.79
878.614	105.13
878.786	-13.65
878.959	17.07
879.131	33.45
879.303	0.68
879.476	27.31
879.648	17.07
879.82	-44.37
879.993	17.07
880.165	29.35
880.337	60.07
880.509	-15.7
880.681	39.59
880.854	41.64
881.026	66.22
881.198	131.75
881.37	31.4
881.542	29.35
881.714	78.51
881.886	-30.04
882.058	51.88
882.23	-9.56
882.402	-60.76
882.574	74.41
882.746	58.03
882.918	35.5
883.09	4.78
883.262	-9.56
883.434	31.4
883.606	4.78
883.778	66.22
883.95	49.83
884.122	-32.08
884.293	37.55
884.465	0.68
884.637	27.31
884.809	4.78
884.98	76.46
885.152	125.61
885.324	86.7
885.496	0.68
885.667	-27.99
885.839	-11.61
886.011	35.5
886.182	29.35
886.354	90.79
886.525	6.83
886.697	31.4
886.869	12.97
887.04	-1.37
887.212	62.12
887.383	47.79
887.555	8.87
887.726	-32.08
887.897	39.59
888.069	47.79
888.24	2.73
888.412	27.31
888.583	-34.13
888.754	60.07
888.926	-30.04
889.097	19.11
889.268	0.68
889.44	33.45
889.611	12.97
889.782	-9.56
889.953	-25.94
890.125	41.64
890.296	-17.75
890.467	-62.8
890.638	19.11
890.809	39.59
890.98	45.74
891.151	105.13
891.323	64.17
891.494	33.45
891.665	49.83
891.836	8.87
892.007	-1.37
892.178	41.64
892.349	25.26
892.52	105.13
892.691	-48.47
892.862	-19.8
893.032	-66.9
893.203	39.59
893.374	-56.66
893.545	12.97
893.716	-30.04
893.887	47.79
894.057	66.22
894.228	39.59
894.399	62.12
894.57	35.5
894.74	23.21
894.911	-1.37
895.082	-17.75
895.253	25.26
895.423	-11.61
895.594	39.59
895.764	2.73
895.935	-30.04
896.106	21.16
896.276	-19.8
896.447	0.68
896.617	35.5
896.788	66.22
896.958	51.88
897.129	-3.41
897.299	-11.61
897.47	47.79
897.64	10.92
897.81	-3.41
897.981	-52.56
898.151	-68.95
898.322	-13.65
898.492	39.59
898.662	-25.94
898.832	92.84
899.003	-7.51
899.173	15.02
899.343	53.93
899.513	62.12
