Data from USB4F104151__91__12-02-35-423.txt Node

Date: Fri Mar 14 12:02:35 EDT 2025
User: louis
Spectrometer: USB4F10415
Trigger mode: 4
Integration Time (sec): 2.000000E-2
Scans to average: 1
Electric dark correction enabled: true
Nonlinearity correction enabled: false
Boxcar width: 0
XAxis mode: Wavelengths
Number of Pixels in Spectrum: 3648
>>>>>Begin Spectral Data<<<<<
178.204	-112.64
178.424	-112.64
178.644	-112.64
178.864	-79.87
179.084	-59.39
179.304	6.14
179.524	-34.82
179.744	-49.15
179.964	20.48
180.184	22.53
180.404	18.43
180.624	43.01
180.844	34.82
181.064	40.96
181.283	-75.77
181.503	18.43
181.723	-45.06
181.943	32.77
182.163	-6.14
182.383	53.25
182.602	-12.29
182.822	-8.19
183.042	43.01
183.262	-43.01
183.482	83.97
183.701	47.1
183.921	38.91
184.141	-28.67
184.361	45.06
184.58	-28.67
184.8	71.68
185.02	2.05
185.239	-2.05
185.459	-8.19
185.679	28.67
185.898	-36.86
186.118	36.86
186.338	-10.24
186.557	49.15
186.777	47.1
186.997	14.34
187.216	79.87
187.436	-26.62
187.655	-18.43
187.875	61.44
188.095	-14.34
188.314	65.54
188.534	63.49
188.753	20.48
188.973	110.59
189.192	86.01
189.412	53.25
189.631	32.77
189.851	16.38
190.07	40.96
190.29	69.63
190.509	22.53
190.729	12.29
190.948	49.15
191.168	55.3
191.387	71.68
191.607	-32.77
191.826	65.54
192.045	67.58
192.265	26.62
192.484	-53.25
192.704	-10.24
192.923	-4.1
193.142	6.14
193.362	16.38
193.581	36.86
193.8	83.97
194.02	-26.62
194.239	108.54
194.458	55.3
194.678	36.86
194.897	-18.43
195.116	-57.34
195.335	43.01
195.555	69.63
195.774	4.1
195.993	20.48
196.212	36.86
196.432	83.97
196.651	49.15
196.87	-18.43
197.089	57.34
197.308	10.24
197.528	24.58
197.747	-8.19
197.966	0
198.185	32.77
198.404	30.72
198.623	-20.48
198.842	26.62
199.062	-8.19
199.281	26.62
199.5	16.38
199.719	2.05
199.938	75.77
200.157	24.58
200.376	45.06
200.595	96.25
200.814	8.19
201.033	18.43
201.252	100.35
201.471	45.06
201.69	8.19
201.909	75.77
202.128	4.1
202.347	-12.29
202.566	28.67
202.785	26.62
203.004	6.14
203.223	22.53
203.442	-40.96
203.661	20.48
203.879	34.82
204.098	24.58
204.317	-2.05
204.536	61.44
204.755	75.77
204.974	51.2
205.193	61.44
205.411	30.72
205.63	20.48
205.849	47.1
206.068	16.38
206.287	20.48
206.505	22.53
206.724	8.19
206.943	0
207.162	49.15
207.381	0
207.599	55.3
207.818	-20.48
208.037	40.96
208.255	18.43
208.474	24.58
208.693	-16.38
208.911	-16.38
209.13	-34.82
209.349	40.96
209.567	10.24
209.786	10.24
210.005	40.96
210.223	32.77
210.442	-28.67
210.661	26.62
210.879	38.91
211.098	18.43
211.316	20.48
211.535	18.43
211.753	-20.48
211.972	18.43
212.191	-6.14
212.409	-32.77
212.628	38.91
212.846	-6.14
213.065	16.38
213.283	73.73
213.502	22.53
213.72	57.34
213.938	20.48
214.157	-18.43
214.375	26.62
214.594	51.2
214.812	45.06
215.031	51.2
215.249	12.29
215.467	6.14
215.686	88.06
215.904	-18.43
216.122	-28.67
216.341	61.44
216.559	98.3
216.778	18.43
216.996	45.06
217.214	30.72
217.432	-14.34
217.651	14.34
217.869	30.72
218.087	88.06
218.306	-20.48
218.524	36.86
218.742	-57.34
218.96	61.44
219.179	51.2
219.397	65.54
219.615	24.58
219.833	-28.67
220.051	-16.38
220.27	51.2
220.488	4.1
220.706	0
220.924	14.34
221.142	2.05
221.36	2.05
221.578	45.06
221.796	-30.72
222.015	-16.38
222.233	4.1
222.451	65.54
222.669	-10.24
222.887	30.72
223.105	16.38
223.323	57.34
223.541	-8.19
223.759	110.59
223.977	36.86
224.195	73.73
224.413	-32.77
224.631	10.24
224.849	30.72
225.067	28.67
225.285	59.39
225.503	57.34
225.721	-53.25
225.939	40.96
226.157	-2.05
226.375	92.16
226.592	-4.1
226.81	-18.43
227.028	-20.48
227.246	32.77
227.464	-8.19
227.682	92.16
227.9	71.68
228.117	-16.38
228.335	30.72
228.553	-55.3
228.771	2.05
228.989	40.96
229.206	16.38
229.424	32.77
229.642	81.92
229.86	69.63
230.077	61.44
230.295	-28.67
230.513	-40.96
230.731	8.19
230.948	12.29
231.166	38.91
231.384	-22.53
231.601	2.05
231.819	57.34
232.037	18.43
232.254	-4.1
232.472	59.39
232.689	-20.48
232.907	26.62
233.125	69.63
233.342	-22.53
233.56	-14.34
233.777	-24.58
233.995	8.19
234.213	26.62
234.43	26.62
234.648	6.14
234.865	-4.1
235.083	-36.86
235.3	45.06
235.518	57.34
235.735	26.62
235.953	45.06
236.17	-28.67
236.388	-16.38
236.605	30.72
236.822	6.14
237.04	18.43
237.257	49.15
237.475	-20.48
237.692	36.86
237.909	-22.53
238.127	10.24
238.344	18.43
238.562	79.87
238.779	6.14
238.996	28.67
239.214	-10.24
239.431	-14.34
239.648	-32.77
239.865	26.62
240.083	18.43
240.3	67.58
240.517	-53.25
240.735	36.86
240.952	67.58
241.169	8.19
241.386	0
241.603	75.77
241.821	47.1
242.038	18.43
242.255	47.1
242.472	-24.58
242.689	75.77
242.907	18.43
243.124	8.19
243.341	104.45
243.558	59.39
243.775	-20.48
243.992	16.38
244.209	22.53
244.426	18.43
244.643	6.14
244.86	-45.06
245.078	-38.91
245.295	26.62
245.512	2.05
245.729	-16.38
245.946	14.34
246.163	57.34
246.38	22.53
246.597	38.91
246.814	100.35
247.031	2.05
247.248	8.19
247.464	-49.15
247.681	38.91
247.898	61.44
248.115	43.01
248.332	4.1
248.549	49.15
248.766	8.19
248.983	6.14
249.2	36.86
249.417	26.62
249.633	-14.34
249.85	92.16
250.067	-12.29
250.284	14.34
250.501	6.14
250.717	86.01
250.934	-4.1
251.151	83.97
251.368	-43.01
251.585	-2.05
251.801	-4.1
252.018	2.05
252.235	-26.62
252.451	20.48
252.668	-40.96
252.885	8.19
253.102	28.67
253.318	118.78
253.535	-8.19
253.752	34.82
253.968	24.58
254.185	6.14
254.401	2.05
254.618	40.96
254.835	0
255.051	38.91
255.268	45.06
255.484	86.01
255.701	-12.29
255.917	69.63
256.134	40.96
256.351	75.77
256.567	2.05
256.784	-4.1
257	-10.24
257.217	47.1
257.433	0
257.65	40.96
257.866	67.58
258.082	-40.96
258.299	-6.14
258.515	94.21
258.732	-4.1
258.948	-24.58
259.165	-18.43
259.381	-8.19
259.597	2.05
259.814	28.67
260.03	36.86
260.246	-6.14
260.463	-40.96
260.679	59.39
260.895	30.72
261.112	79.87
261.328	73.73
261.544	-18.43
261.761	65.54
261.977	4.1
262.193	-14.34
262.409	55.3
262.626	12.29
262.842	67.58
263.058	-14.34
263.274	40.96
263.49	-4.1
263.707	47.1
263.923	0
264.139	45.06
264.355	55.3
264.571	40.96
264.787	20.48
265.004	14.34
265.22	-20.48
265.436	51.2
265.652	49.15
265.868	-20.48
266.084	12.29
266.3	-8.19
266.516	12.29
266.732	81.92
266.948	34.82
267.164	-2.05
267.38	24.58
267.596	-24.58
267.812	63.49
268.028	-45.06
268.244	12.29
268.46	63.49
268.676	12.29
268.892	83.97
269.108	28.67
269.324	-6.14
269.54	-12.29
269.756	49.15
269.972	-8.19
270.188	47.1
270.403	-38.91
270.619	49.15
270.835	67.58
271.051	10.24
271.267	-22.53
271.483	4.1
271.698	26.62
271.914	-36.86
272.13	20.48
272.346	122.88
272.562	20.48
272.777	69.63
272.993	77.82
273.209	34.82
273.425	40.96
273.64	24.58
273.856	86.01
274.072	45.06
274.287	0
274.503	75.77
274.719	14.34
274.934	20.48
275.15	53.25
275.366	0
275.581	-2.05
275.797	43.01
276.012	59.39
276.228	24.58
276.444	-14.34
276.659	45.06
276.875	55.3
277.09	-4.1
277.306	47.1
277.521	51.2
277.737	0
277.952	69.63
278.168	43.01
278.383	59.39
278.599	28.67
278.814	38.91
279.03	51.2
279.245	88.06
279.461	-16.38
279.676	61.44
279.892	40.96
280.107	38.91
280.322	38.91
280.538	18.43
280.753	-30.72
280.969	36.86
281.184	63.49
281.399	45.06
281.615	14.34
281.83	10.24
282.045	-16.38
282.26	-22.53
282.476	53.25
282.691	51.2
282.906	-10.24
283.122	51.2
283.337	-51.2
283.552	90.11
283.767	0
283.983	20.48
284.198	6.14
284.413	6.14
284.628	49.15
284.843	153.6
285.058	53.25
285.274	65.54
285.489	28.67
285.704	51.2
285.919	81.92
286.134	43.01
286.349	2.05
286.564	69.63
286.779	10.24
286.995	75.77
287.21	-30.72
287.425	8.19
287.64	90.11
287.855	-45.06
288.07	104.45
288.285	45.06
288.5	26.62
288.715	38.91
288.93	-2.05
289.145	55.3
289.36	20.48
289.575	14.34
289.79	38.91
290.004	8.19
290.219	30.72
290.434	-20.48
290.649	-2.05
290.864	86.01
291.079	6.14
291.294	45.06
291.509	36.86
291.724	-71.68
291.938	61.44
292.153	10.24
292.368	73.73
292.583	73.73
292.798	43.01
293.012	43.01
293.227	24.58
293.442	4.1
293.657	2.05
293.871	104.45
294.086	47.1
294.301	88.06
294.516	-6.14
294.73	47.1
294.945	65.54
295.16	-18.43
295.374	86.01
295.589	45.06
295.804	71.68
296.018	32.77
296.233	-38.91
296.447	18.43
296.662	-28.67
296.877	36.86
297.091	16.38
297.306	16.38
297.52	24.58
297.735	-4.1
297.949	0
298.164	12.29
298.378	18.43
298.593	61.44
298.807	-32.77
299.022	43.01
299.236	83.97
299.451	12.29
299.665	12.29
299.88	57.34
300.094	10.24
300.309	79.87
300.523	20.48
300.737	18.43
300.952	88.06
301.166	79.87
301.381	-30.72
301.595	36.86
301.809	14.34
302.024	36.86
302.238	-63.49
302.452	-12.29
302.667	38.91
302.881	149.5
303.095	38.91
303.309	18.43
303.524	22.53
303.738	14.34
303.952	-12.29
304.166	32.77
304.381	24.58
304.595	92.16
304.809	26.62
305.023	-36.86
305.237	24.58
305.452	22.53
305.666	-2.05
305.88	69.63
306.094	77.82
306.308	24.58
306.522	53.25
306.736	106.49
306.95	61.44
307.164	0
307.379	38.91
307.593	45.06
307.807	8.19
308.021	51.2
308.235	59.39
308.449	-20.48
308.663	-26.62
308.877	126.97
309.091	8.19
309.305	77.82
309.519	2.05
309.733	18.43
309.947	0
310.161	133.12
310.374	34.82
310.588	88.06
310.802	4.1
311.016	86.01
311.23	30.72
311.444	20.48
311.658	22.53
311.872	88.06
312.085	34.82
312.299	24.58
312.513	20.48
312.727	47.1
312.941	-6.14
313.154	18.43
313.368	14.34
313.582	8.19
313.796	47.1
314.009	36.86
314.223	34.82
314.437	94.21
314.651	-4.1
314.864	20.48
315.078	2.05
315.292	40.96
315.505	88.06
315.719	-14.34
315.933	59.39
316.146	-26.62
316.36	-2.05
316.573	-20.48
316.787	120.83
317.001	79.87
317.214	38.91
317.428	-30.72
317.641	6.14
317.855	65.54
318.068	-22.53
318.282	45.06
318.495	14.34
318.709	81.92
318.922	-24.58
319.136	63.49
319.349	20.48
319.563	43.01
319.776	36.86
319.99	-12.29
320.203	30.72
320.417	55.3
320.63	-12.29
320.843	10.24
321.057	32.77
321.27	8.19
321.483	47.1
321.697	75.77
321.91	-8.19
322.124	69.63
322.337	-14.34
322.55	24.58
322.763	79.87
322.977	30.72
323.19	-8.19
323.403	34.82
323.617	-40.96
323.83	32.77
324.043	49.15
324.256	65.54
324.469	24.58
324.683	40.96
324.896	4.1
325.109	61.44
325.322	16.38
325.535	47.1
325.748	59.39
325.962	32.77
326.175	16.38
326.388	34.82
326.601	79.87
326.814	86.01
327.027	38.91
327.24	81.92
327.453	2.05
327.666	18.43
327.879	-32.77
328.092	77.82
328.305	43.01
328.518	45.06
328.731	57.34
328.944	75.77
329.157	20.48
329.37	-16.38
329.583	114.69
329.796	36.86
330.009	-6.14
330.222	26.62
330.435	43.01
330.648	20.48
330.861	43.01
331.073	16.38
331.286	-8.19
331.499	73.73
331.712	108.54
331.925	10.24
332.138	53.25
332.35	14.34
332.563	63.49
332.776	57.34
332.989	-53.25
333.202	77.82
333.414	12.29
333.627	77.82
333.84	-4.1
334.053	71.68
334.265	10.24
334.478	57.34
334.691	43.01
334.903	38.91
335.116	-55.3
335.329	102.4
335.541	-10.24
335.754	43.01
335.966	-4.1
336.179	-55.3
336.392	75.77
336.604	-63.49
336.817	-28.67
337.029	16.38
337.242	6.14
337.454	83.97
337.667	14.34
337.88	83.97
338.092	61.44
338.305	12.29
338.517	2.05
338.729	14.34
338.942	36.86
339.154	18.43
339.367	0
339.579	98.3
339.792	20.48
340.004	118.78
340.217	59.39
340.429	51.2
340.641	-45.06
340.854	18.43
341.066	34.82
341.278	2.05
341.491	90.11
341.703	6.14
341.915	16.38
342.128	118.78
342.34	34.82
342.552	-30.72
342.764	-69.63
342.977	34.82
343.189	55.3
343.401	67.58
343.613	43.01
343.826	83.97
344.038	-18.43
344.25	28.67
344.462	18.43
344.674	59.39
344.886	61.44
345.099	75.77
345.311	43.01
345.523	-32.77
345.735	28.67
345.947	40.96
346.159	-28.67
346.371	40.96
346.583	73.73
346.795	104.45
347.007	-4.1
347.219	57.34
347.431	-6.14
347.643	6.14
347.855	30.72
348.067	75.77
348.279	-26.62
348.491	6.14
348.703	2.05
348.915	34.82
349.127	14.34
349.339	75.77
349.551	30.72
349.763	32.77
349.975	18.43
350.187	28.67
350.399	88.06
350.61	36.86
350.822	51.2
351.034	12.29
351.246	16.38
351.458	8.19
351.669	36.86
351.881	67.58
352.093	38.91
352.305	0
352.517	98.3
352.728	131.07
352.94	36.86
353.152	38.91
353.363	16.38
353.575	69.63
353.787	6.14
353.999	30.72
354.21	83.97
354.422	47.1
354.633	49.15
354.845	38.91
355.057	59.39
355.268	-14.34
355.48	36.86
355.692	16.38
355.903	88.06
356.115	-6.14
356.326	-2.05
356.538	49.15
356.749	86.01
356.961	49.15
357.172	98.3
357.384	-28.67
357.595	65.54
357.807	110.59
358.018	-40.96
358.23	102.4
358.441	34.82
358.653	28.67
358.864	22.53
359.075	-12.29
359.287	22.53
359.498	90.11
359.709	51.2
359.921	36.86
360.132	45.06
360.344	43.01
360.555	61.44
360.766	32.77
360.977	-12.29
361.189	45.06
361.4	22.53
361.611	53.25
361.823	51.2
362.034	28.67
362.245	24.58
362.456	45.06
362.667	75.77
362.879	153.6
363.09	49.15
363.301	81.92
363.512	61.44
363.723	59.39
363.935	47.1
364.146	129.02
364.357	59.39
364.568	120.83
364.779	96.25
364.99	65.54
365.201	69.63
365.412	71.68
365.623	-20.48
365.834	18.43
366.045	88.06
366.256	43.01
366.467	98.3
366.678	36.86
366.889	167.93
367.1	2.05
367.311	75.77
367.522	75.77
367.733	2.05
367.944	43.01
368.155	22.53
368.366	69.63
368.577	-10.24
368.788	45.06
368.999	-12.29
369.209	-8.19
369.42	8.19
369.631	73.73
369.842	36.86
370.053	47.1
370.264	-24.58
370.474	45.06
370.685	63.49
370.896	43.01
371.107	40.96
371.317	38.91
371.528	36.86
371.739	43.01
371.95	-24.58
372.16	65.54
372.371	71.68
372.582	-2.05
372.792	71.68
373.003	2.05
373.214	53.25
373.424	40.96
373.635	-2.05
373.846	75.77
374.056	40.96
374.267	53.25
374.477	43.01
374.688	24.58
374.898	8.19
375.109	-14.34
375.319	38.91
375.53	73.73
375.74	24.58
375.951	-14.34
376.161	114.69
376.372	-38.91
376.582	38.91
376.793	75.77
377.003	63.49
377.214	69.63
377.424	28.67
377.635	81.92
377.845	18.43
378.055	124.93
378.266	-8.19
378.476	-32.77
378.686	53.25
378.897	38.91
379.107	51.2
379.317	104.45
379.528	-30.72
379.738	26.62
379.948	102.4
380.158	83.97
380.369	92.16
380.579	63.49
380.789	63.49
380.999	69.63
381.21	131.07
381.42	28.67
381.63	26.62
381.84	-6.14
382.05	36.86
382.261	126.97
382.471	47.1
382.681	40.96
382.891	40.96
383.101	59.39
383.311	38.91
383.521	118.78
383.731	86.01
383.941	79.87
384.151	83.97
384.361	69.63
384.571	65.54
384.781	81.92
384.991	71.68
385.201	59.39
385.411	-14.34
385.621	65.54
385.831	79.87
386.041	71.68
386.251	30.72
386.461	98.3
386.671	63.49
386.881	145.41
387.091	75.77
387.301	49.15
387.511	28.67
387.72	-14.34
387.93	83.97
388.14	47.1
388.35	45.06
388.56	102.4
388.769	57.34
388.979	81.92
389.189	30.72
389.399	36.86
389.609	92.16
389.818	4.1
390.028	6.14
390.238	45.06
390.447	30.72
390.657	26.62
390.867	57.34
391.076	53.25
391.286	92.16
391.496	45.06
391.705	126.97
391.915	116.73
392.125	73.73
392.334	75.77
392.544	100.35
392.753	71.68
392.963	38.91
393.172	67.58
393.382	57.34
393.591	30.72
393.801	53.25
394.01	106.49
394.22	61.44
394.429	86.01
394.639	59.39
394.848	178.17
395.058	32.77
395.267	-43.01
395.477	112.64
395.686	88.06
395.895	86.01
396.105	192.51
396.314	100.35
396.524	131.07
396.733	124.93
396.942	98.3
397.152	86.01
397.361	122.88
397.57	102.4
397.78	118.78
397.989	131.07
398.198	83.97
398.407	151.55
398.617	114.69
398.826	96.25
399.035	61.44
399.244	65.54
399.453	100.35
399.663	120.83
399.872	16.38
400.081	110.59
400.29	69.63
400.499	26.62
400.708	98.3
400.917	112.64
401.127	73.73
401.336	118.78
401.545	139.26
401.754	96.25
401.963	159.74
402.172	90.11
402.381	114.69
402.59	137.21
402.799	151.55
403.008	141.31
403.217	163.84
403.426	81.92
403.635	59.39
403.844	118.78
404.053	122.88
404.262	75.77
404.471	124.93
404.68	145.41
404.888	212.99
405.097	120.83
405.306	157.69
405.515	139.26
405.724	77.82
405.933	219.13
406.142	217.08
406.35	231.42
406.559	204.8
406.768	176.13
406.977	227.32
407.185	212.99
407.394	225.28
407.603	108.54
407.812	196.61
408.02	247.8
408.229	192.51
408.438	264.19
408.646	262.14
408.855	231.42
409.064	270.33
409.272	321.53
409.481	321.53
409.69	288.76
409.898	327.68
410.107	325.63
410.315	411.64
410.524	307.2
410.733	452.6
410.941	385.02
411.15	397.31
411.358	430.07
411.567	391.16
411.775	376.83
411.984	430.07
412.192	479.22
412.401	479.22
412.609	544.76
412.818	577.53
413.026	534.52
413.234	520.18
413.443	528.38
413.651	604.15
413.86	524.28
414.068	675.83
414.276	669.69
414.485	610.29
414.693	667.64
414.901	811
415.11	720.88
415.318	806.9
415.526	911.35
415.734	765.94
415.943	929.78
416.151	929.78
416.359	808.95
416.567	931.83
416.776	913.39
416.984	958.45
417.192	1103.86
417.4	1066.99
417.608	1054.7
417.817	1099.76
418.025	1144.81
418.233	1261.55
418.441	1224.69
418.649	1185.77
418.857	1417.19
419.065	1386.47
419.273	1435.63
419.481	1322.99
419.689	1564.65
419.897	1591.27
420.105	1638.38
420.313	1718.25
420.521	1683.43
420.729	1906.66
420.937	1845.22
421.145	1888.23
421.353	2033.63
421.561	1996.77
421.769	2058.21
421.977	2131.94
422.185	2174.94
422.393	2412.51
422.601	2461.66
422.809	2396.12
423.017	2637.78
423.224	2406.36
423.432	2633.69
423.64	2652.12
423.848	2975.7
424.056	2910.16
424.263	3100.62
424.471	3100.62
424.679	3125.2
424.887	3379.15
425.094	3440.59
425.302	3444.68
425.51	3536.84
425.718	3637.19
425.925	3731.4
426.133	3833.8
426.341	4054.98
426.548	4151.23
426.756	4200.38
426.964	4304.83
427.171	4491.2
427.379	4675.51
427.586	4659.13
427.794	5031.86
428.001	5081.01
428.209	5449.64
428.417	5193.65
428.624	5676.97
428.832	5496.75
429.039	5636.01
429.247	5597.1
429.454	6205.35
429.662	6453.15
429.869	6018.98
430.076	6387.61
430.284	6453.15
430.491	6494.11
430.699	7049.11
430.906	6991.77
431.114	7069.59
431.321	7497.61
431.528	7509.9
431.736	7952.26
431.943	8411.01
432.15	8073.09
432.358	8206.21
432.565	8601.47
432.772	8611.71
432.979	9254.77
433.187	9138.04
433.394	9127.8
433.601	9844.59
433.808	10086.25
434.016	9914.22
434.223	10321.76
434.43	10925.91
434.637	10592.09
434.844	11243.35
435.052	11536.21
435.259	11493.2
435.466	11562.83
435.673	11366.23
435.88	12298.05
436.087	12715.84
436.294	12703.55
436.501	12564.29
436.708	12871.48
436.915	13309.75
437.122	13774.64
437.329	13723.44
437.537	14184.23
437.743	14536.48
437.95	14315.3
438.157	15175.45
438.364	15574.8
438.571	15628.05
438.778	15712.02
438.985	17053.44
439.192	16512.77
439.399	17118.97
439.606	16705.28
439.813	17972.97
440.02	18695.91
440.227	18421.48
440.433	17956.59
440.64	18630.37
440.847	18620.13
441.054	19271.39
441.261	20375.24
441.467	20049.61
441.674	20391.62
441.881	21159.61
442.088	21171.9
442.294	20674.24
442.501	21687.99
442.708	21894.83
442.914	22638.25
443.121	23858.84
443.328	22935.2
443.534	24675.98
443.741	23936.66
443.948	23885.46
444.154	25603.71
444.361	25501.31
444.568	25429.63
444.774	25388.67
444.981	25718.39
445.187	26457.71
445.394	27571.8
445.6	27479.64
445.807	29902.39
446.013	28530.25
446.22	28986.95
446.426	30371.38
446.633	30539.31
446.839	31333.92
447.046	30010.93
447.252	31925.78
447.459	31624.73
447.665	31716.89
447.871	33199.62
448.078	35163.62
448.284	33015.3
448.491	33680.89
448.697	34719.21
448.903	35657.18
449.11	36007.39
449.316	35235.3
449.522	36005.34
449.728	36441.56
449.935	36920.78
450.141	36824.53
450.347	37512.64
450.553	36806.09
450.76	37246.41
450.966	38270.39
451.172	37918.14
451.378	38841.78
451.584	37774.78
451.791	38989.23
451.997	39019.95
452.203	39398.82
452.409	39531.94
452.615	39077.29
452.821	37854.65
453.027	37092.81
453.233	38913.45
453.44	37498.31
453.646	38063.55
453.852	38389.17
454.058	38845.87
454.264	37494.21
454.47	38380.98
454.676	37387.72
454.882	38733.23
455.088	35259.88
455.294	35984.86
455.5	36220.38
455.705	36974.03
455.911	35227.11
456.117	34366.96
456.323	33871.36
456.529	32212.5
456.735	33558.02
456.941	32763.4
457.147	32314.9
457.352	31190.56
457.558	30475.82
457.764	30799.4
457.97	30344.75
458.176	29503.04
458.381	29812.28
458.587	28128.85
458.793	28339.79
458.999	26762.86
459.204	28814.92
459.41	27629.15
459.616	26232.43
459.821	26058.35
460.027	25773.69
460.233	25323.13
460.438	24215.18
460.644	24174.22
460.85	23199.39
461.055	22791.84
461.261	22816.42
461.466	20958.91
461.672	20502.22
461.878	21790.39
462.083	20377.29
462.289	19920.59
462.494	19621.59
462.7	18960.09
462.905	18374.38
463.111	19154.65
463.316	19259.1
463.522	18702.05
463.727	18726.63
463.932	18601.7
464.138	18654.95
464.343	18554.6
464.549	17946.35
464.754	18648.8
464.959	18376.42
465.165	18474.73
465.37	17639.15
465.575	17067.77
465.781	17499.89
465.986	17972.97
466.191	17317.62
466.397	16774.91
466.602	16336.65
466.807	16566.02
467.012	16447.24
467.218	16541.44
467.423	16383.75
467.628	16416.52
467.833	17014.52
468.038	16609.03
468.244	16099.08
468.449	16643.84
468.654	16297.74
468.859	16056.07
469.064	16035.6
469.269	15410.96
469.474	15419.16
469.679	15898.38
469.885	15423.25
470.09	15626
470.295	15118.11
470.5	14956.32
470.705	15318.81
470.91	14819.1
471.115	14593.83
471.32	14980.89
471.525	14917.4
471.73	14343.97
471.935	14249.77
472.139	13770.54
472.344	14014.25
472.549	13653.81
472.754	13985.58
472.959	13573.94
473.164	13125.43
473.369	12906.3
473.574	13457.2
473.778	13401.91
473.983	13260.6
474.188	13150.01
474.393	12480.32
474.598	12566.34
474.802	12619.58
475.007	12365.64
475.212	12046.15
475.417	12046.15
475.621	11986.76
475.826	12023.62
476.031	11730.76
476.235	11392.85
476.44	11691.85
476.645	11339.6
476.849	11376.47
477.054	11315.03
477.259	11153.24
477.463	11202.39
477.668	10731.36
477.872	11167.57
478.077	10796.89
478.282	10628.96
478.486	10620.77
478.691	10534.75
478.895	10350.43
479.1	10547.04
479.304	10358.63
479.509	10084.2
479.713	10108.77
479.918	10123.11
480.122	9811.82
480.326	10080.1
480.531	10155.88
480.735	9926.5
480.94	9746.28
481.144	9918.31
481.348	9674.6
481.553	9611.12
481.757	9385.84
481.961	9656.17
482.166	9867.11
482.37	9631.6
482.574	9396.08
482.778	9457.52
482.983	9660.27
483.187	9428.85
483.391	9561.97
483.595	9637.74
483.8	9461.62
484.004	9586.54
484.208	9762.67
484.412	9611.12
484.616	9619.31
484.821	9625.45
485.025	9293.68
485.229	9539.44
485.433	9361.27
485.637	9592.69
485.841	9441.14
486.045	9420.66
486.249	9404.27
486.453	9213.81
486.657	9416.56
486.861	9727.85
487.065	9430.9
487.269	9527.15
487.473	9131.89
487.677	9547.63
487.881	9588.59
488.085	9326.45
488.289	9590.64
488.493	9287.54
488.697	9598.83
488.901	9525.1
489.105	9473.9
489.309	9643.88
489.512	9600.88
489.716	9584.49
489.92	9512.81
490.124	9523.05
490.328	9838.44
490.531	9674.6
490.735	9748.33
490.939	9901.93
491.143	9760.62
491.346	9799.53
491.55	9930.6
491.754	10090.34
491.958	10051.43
492.161	10071.91
492.365	10301.28
492.569	10168.16
492.772	9910.12
492.976	10225.51
493.18	9901.93
493.383	10276.71
493.587	10309.47
493.79	10274.66
493.994	10256.23
494.197	10411.87
494.401	10493.79
494.605	10424.16
494.808	10764.12
495.012	10616.67
495.215	10887
495.419	11038.55
495.622	10805.08
495.825	11026.26
496.029	11001.69
496.232	11364.18
496.436	11181.91
496.639	11454.29
496.843	11540.3
497.046	11644.75
497.249	11745.1
497.453	11708.24
497.656	11761.48
497.859	11984.71
498.063	12171.08
498.266	12377.92
498.469	12240.71
498.673	12369.73
498.876	12631.87
499.079	12949.31
499.282	12592.96
499.485	13205.3
499.689	13221.69
499.892	13375.28
500.095	13287.22
500.298	13498.16
500.501	13367.09
500.705	13909.8
500.908	14204.71
501.111	13922.09
501.314	14436.13
501.517	14401.32
501.72	14542.63
501.923	14268.2
502.126	14743.33
502.329	15044.38
502.532	15273.75
502.735	15314.71
502.938	15441.68
503.141	15687.44
503.344	15984.4
503.547	15808.27
503.75	16031.5
503.953	16389.89
504.156	16359.17
504.359	16439.05
504.562	16805.63
504.765	17178.36
504.968	17149.69
505.17	17317.62
505.373	17180.41
505.576	17645.3
505.779	17743.6
505.982	17866.48
506.185	18398.95
506.387	18161.39
506.59	18468.58
506.793	18591.46
506.996	18806.5
507.198	19123.93
507.401	19193.56
507.604	19470.04
507.807	19795.67
508.009	19857.1
508.212	20041.42
508.415	20201.16
508.617	20336.33
508.82	20610.76
509.022	20522.69
509.225	21235.39
509.428	21153.47
509.63	21370.55
509.833	21266.11
510.035	21743.28
510.238	21960.37
510.44	22148.78
510.643	22339.24
510.845	22685.35
511.048	22271.66
511.25	22752.93
511.453	22847.14
511.655	23813.78
511.858	23572.12
512.06	23641.75
512.262	24057.49
512.465	23891.6
512.667	24352.4
512.87	24626.82
513.072	24700.55
513.274	25073.28
513.477	25273.98
513.679	25206.4
513.881	25544.31
514.084	25800.31
514.286	25812.6
514.488	26076.79
514.69	26539.63
514.893	26998.37
515.095	27039.33
515.297	27215.46
515.499	26965.6
515.701	27780.7
515.904	27770.46
516.106	28071.51
516.308	28347.98
516.51	28794.44
516.712	28495.44
516.914	29161.03
517.116	29488.7
517.318	29267.52
517.52	29795.9
517.722	29814.33
517.925	29904.44
518.127	30416.43
518.329	30649.9
518.531	30453.3
518.733	31211.04
518.935	31202.85
519.136	31335.97
519.338	31938.07
519.54	31696.41
519.742	32110.1
519.944	32302.61
520.146	32704.01
520.348	32781.84
520.55	32747.02
520.752	33160.71
520.954	33572.35
521.155	33422.85
521.357	34020.86
521.559	34022.9
521.761	34618.86
521.963	34444.79
522.164	34641.39
522.366	34532.85
522.568	35243.49
522.77	35093.99
522.971	35710.43
523.173	35655.14
523.375	35780.06
523.576	36093.4
523.778	36111.83
523.98	36283.86
524.181	36595.15
524.383	36345.3
524.584	36816.33
524.786	36986.32
524.988	36330.97
525.189	37103.05
525.391	37135.82
525.592	37696.96
525.794	37914.05
525.995	37582.27
526.197	37549.51
526.398	37533.12
526.6	38188.47
526.801	38344.12
527.003	38407.61
527.204	38221.24
527.406	39015.85
527.607	38757.81
527.808	38972.85
528.01	38153.66
528.211	39013.8
528.412	39464.36
528.614	38987.18
528.815	39093.68
529.016	39386.54
529.218	38811.06
529.419	39316.9
529.62	39441.83
529.822	39103.92
530.023	39603.62
530.224	39921.05
530.425	39804.32
530.626	39216.55
530.828	39230.89
531.029	40377.75
531.23	39667.11
531.431	39609.76
531.632	39812.51
531.833	39982.49
532.035	39591.33
532.236	39986.59
532.437	40424.86
532.638	39867.81
532.839	39728.55
533.04	40150.43
533.241	39609.76
533.442	40357.27
533.643	39888.29
533.844	39982.49
534.045	40109.47
534.246	39949.73
534.447	40097.18
534.648	39923.1
534.849	40166.81
535.05	39929.25
535.251	39882.14
535.451	40123.8
535.652	40021.41
535.853	39884.19
536.054	39779.75
536.255	39957.92
536.456	39908.77
536.657	40453.53
536.857	39613.86
537.058	39876
537.259	40027.55
537.46	39830.94
537.66	40101.28
537.861	40127.9
538.062	39882.14
538.263	40050.08
538.463	39544.23
538.664	39798.18
538.865	39964.06
539.065	40220.06
539.266	39650.72
539.466	39947.68
539.667	40041.89
539.868	40002.97
540.068	39400.87
540.269	39493.03
540.469	39765.41
540.67	39656.87
540.87	39953.82
541.071	39605.67
541.271	39765.41
541.472	39765.41
541.672	39538.08
541.873	39435.69
542.073	39273.9
542.274	39955.87
542.474	39609.76
542.675	39577
542.875	39513.51
543.075	39507.37
543.276	38839.73
543.476	39626.15
543.676	39032.24
543.877	39462.31
544.077	39591.33
544.277	39163.31
544.478	38892.97
544.678	39587.24
544.878	39183.79
545.078	39521.7
545.279	39028.14
545.479	38548.92
545.679	39087.53
545.879	39077.29
546.079	38788.53
546.28	39134.63
546.48	38790.58
546.68	38911.41
546.88	39062.96
547.08	39085.48
547.28	38804.91
547.48	38663.6
547.68	38741.42
547.88	38761.9
548.081	39239.08
548.281	39146.92
548.481	38847.92
548.681	38639.03
548.881	38864.3
549.081	38839.73
549.28	38593.97
549.48	39085.48
549.68	38749.62
549.88	39259.56
550.08	38483.38
550.28	38935.98
550.48	38725.04
550.68	38753.71
550.88	38405.56
551.08	38520.24
551.279	38622.64
551.479	38127.03
551.679	38569.4
551.879	38462.9
552.079	38696.37
552.278	38278.58
552.478	38419.89
552.678	38577.59
552.878	38383.03
553.077	38469.04
553.277	38075.83
553.477	38677.94
553.676	38114.75
553.876	38180.28
554.076	38133.18
554.275	38368.69
554.475	37760.45
554.674	38233.53
554.874	38202.81
555.074	38147.51
555.273	38124.99
555.473	38053.31
555.672	37860.8
555.872	38370.74
556.071	37645.76
556.271	38208.95
556.47	37453.25
556.67	37871.04
556.869	37789.12
557.068	37916.09
557.268	37787.07
557.467	37825.98
557.667	37520.84
557.866	37707.2
558.065	37676.48
558.265	37135.82
558.464	37240.26
558.663	37733.82
558.863	37406.15
559.062	37832.13
559.261	36959.69
559.461	37711.3
559.66	36820.43
559.859	37019.08
560.058	37189.06
560.258	37402.05
560.457	37094.86
560.656	37135.82
560.855	37080.52
561.054	37012.94
561.253	36713.94
561.453	36961.74
561.652	37002.7
561.851	36918.73
562.05	36525.52
562.249	36308.44
562.448	36957.64
562.647	36689.36
562.846	36437.46
563.045	36812.24
563.244	36050.39
563.443	36851.15
563.642	35991
563.841	36222.42
564.04	35792.35
564.239	36365.78
564.438	35861.98
564.637	36034.01
564.836	35941.85
565.035	35605.98
565.234	35808.73
565.432	35771.87
565.631	35671.52
565.83	35718.62
566.029	35735.01
566.228	35266.02
566.427	35646.94
566.625	35407.33
566.824	35126.76
567.023	35378.66
567.222	34768.37
567.42	35407.33
567.619	34958.83
567.818	34868.72
568.016	34489.84
568.215	35229.16
568.414	35114.47
568.612	34868.72
568.811	34704.88
569.01	34676.21
569.208	34217.46
569.407	34825.71
569.605	33932.79
569.804	34655.73
570.002	34330.1
570.201	34262.52
570.4	33777.15
570.598	34162.17
570.797	33684.99
570.995	33904.12
571.193	33447.43
571.392	33934.84
571.59	33721.85
571.789	33510.91
571.987	33373.7
572.186	33351.17
572.384	33472
572.582	33771
572.781	33433.09
572.979	33117.7
573.177	33654.27
573.376	33416.71
573.574	33003.02
573.772	33388.03
573.971	32740.88
574.169	32775.69
574.367	32402.96
574.565	32738.83
574.763	32740.88
574.962	32710.16
575.16	32163.35
575.358	32368.15
575.556	31839.77
575.754	32407.06
575.952	32173.59
576.151	32335.38
576.349	31606.3
576.547	31860.25
576.745	31909.4
576.943	31839.77
577.141	31872.54
577.339	31972.89
577.537	31749.66
577.735	32009.75
577.933	31372.83
578.131	31505.95
578.329	31614.49
578.527	31184.42
578.725	31217.19
578.923	31469.09
579.121	31063.59
579.319	30688.81
579.516	30977.58
579.714	31247.91
579.912	30860.84
580.11	31039.01
580.308	30785.07
580.506	30576.17
580.704	30520.88
580.901	30410.29
581.099	30531.12
581.297	30252.59
581.495	30279.22
581.692	30221.87
581.89	30029.37
582.088	30279.22
582.285	30205.49
582.483	30457.39
582.681	30103.09
582.878	29972.02
583.076	29658.68
583.274	30023.22
583.471	29402.69
583.669	29486.65
583.866	29271.62
584.064	29316.67
584.262	29056.58
584.459	29421.12
584.657	28980.81
584.854	29206.08
585.052	28694.09
585.249	29410.88
585.447	28986.95
585.644	28640.84
585.841	28726.86
586.039	28530.25
586.236	28524.11
586.434	28341.84
586.631	28186.19
586.828	28489.29
587.026	28110.42
587.223	28436.05
587.42	27764.31
587.618	28055.12
587.815	27797.08
588.012	27803.22
588.21	27727.45
588.407	27786.84
588.604	27752.02
588.801	27522.65
588.999	27659.87
589.196	27448.93
589.393	27563.61
589.59	27264.61
589.787	27090.53
589.984	26914.41
590.182	27332.19
590.379	27010.66
590.576	26760.81
590.773	26836.58
590.97	26734.18
591.167	26932.84
591.364	26445.42
591.561	26682.98
591.758	26642.03
591.955	26250.86
592.152	26230.38
592.349	26349.17
592.546	26177.14
592.743	26259.06
592.94	25575.03
593.137	26183.28
593.334	26158.7
593.531	25656.95
593.727	25773.69
593.924	25699.96
594.121	25394.81
594.318	25613.95
594.515	25450.11
594.712	25400.96
594.908	25390.72
595.105	25597.56
595.302	24686.22
595.499	25263.74
595.696	25190.02
595.892	24809.09
596.089	24860.29
596.286	24907.4
596.482	24893.06
596.679	24753.8
596.876	24696.46
597.072	24503.95
597.269	24702.6
597.466	24276.62
597.662	24301.2
597.859	24481.42
598.055	24280.72
598.252	24118.93
598.448	24096.4
598.645	24120.98
598.841	23867.03
599.038	24051.34
599.234	24080.02
599.431	23596.7
599.627	23572.12
599.824	24088.21
600.02	23488.15
600.217	23373.47
600.413	23467.67
600.609	23090.85
600.806	23230.11
601.002	23295.64
601.198	22998.69
601.395	23285.4
601.591	22965.92
601.787	23037.6
601.984	22910.63
602.18	23119.52
602.376	22836.9
602.572	22560.42
602.769	22875.81
602.965	22681.25
603.161	22318.76
603.357	22234.8
603.553	22341.29
603.75	22531.75
603.946	21997.23
604.142	22369.96
604.338	21544.63
604.534	22128.3
604.73	22058.67
604.926	21751.48
605.122	22083.25
605.318	21954.22
605.514	21706.42
605.71	21518.01
605.906	21452.47
606.102	21616.31
606.298	21606.07
606.494	21819.06
606.69	21675.7
606.886	21495.48
607.082	21071.55
607.278	20989.63
607.474	20997.82
607.67	21112.51
607.866	21022.4
608.062	21309.11
608.257	21003.97
608.453	20999.87
608.649	21038.78
608.845	20563.65
609.041	21032.64
609.236	20670.15
609.432	21057.21
609.628	20903.62
609.824	20498.12
610.019	20713.16
610.215	20389.58
610.411	20809.41
610.606	20481.74
610.802	20709.06
610.998	20432.58
611.193	20596.42
611.389	20291.27
611.584	20285.13
611.78	20156.11
611.976	20008.65
612.171	20389.58
612.367	20219.6
612.562	20211.4
612.758	19947.22
612.953	19990.22
613.149	20268.75
613.344	19801.81
613.539	20332.23
613.735	19914.45
613.93	19832.53
614.126	19789.52
614.321	19730.13
614.517	19916.5
614.712	19644.12
614.907	19525.33
615.103	20156.11
615.298	19513.05
615.493	19732.18
615.688	19207.9
615.884	19971.79
616.079	19193.56
616.274	19351.26
616.47	19300.06
616.665	19332.82
616.86	19199.71
617.055	19197.66
617.25	19089.12
617.445	19228.38
617.641	18808.54
617.836	19091.16
618.031	19025.63
618.226	18923.23
618.421	18665.19
618.616	19052.25
618.811	18366.18
619.006	18863.84
619.201	18235.11
619.396	18450.15
619.591	18020.08
619.786	18601.7
619.981	18241.26
620.176	18534.12
620.371	17919.73
620.566	18065.13
620.761	18124.52
620.956	18181.87
621.151	17630.96
621.346	18052.84
621.541	17809.14
621.735	17774.32
621.93	17420.02
622.125	17395.45
622.32	17157.88
622.515	17172.22
622.709	17413.88
622.904	17217.27
623.099	17000.19
623.294	17035
623.488	16824.06
623.683	16977.66
623.878	16410.37
624.072	16484.1
624.267	16527.11
624.462	16185.1
624.656	16088.84
624.851	16312.07
625.046	16393.99
625.24	16072.46
625.435	15961.87
625.629	15943.44
625.824	15984.4
626.018	15460.12
626.213	15609.62
626.407	15660.82
626.602	15159.06
626.796	15232.79
626.991	15533.84
627.185	15374.1
627.38	15042.33
627.574	15130.39
627.768	15148.82
627.963	14868.25
628.157	14632.74
628.352	14759.71
628.546	14516
628.74	14532.39
628.935	14786.33
629.129	14573.35
629.323	14653.22
629.517	14333.73
629.712	14188.33
629.906	14032.68
630.1	13872.94
630.294	14065.45
630.489	14108.46
630.683	13801.26
630.877	13616.94
631.071	13623.09
631.265	13575.98
631.459	13494.07
631.653	13301.56
631.848	13473.59
632.042	13299.51
632.236	13225.78
632.43	13164.34
632.624	13203.25
632.818	13221.69
633.012	12891.96
633.206	12994.36
633.4	12990.27
633.594	12834.62
633.788	12848.96
633.982	12969.79
634.176	12756.8
634.369	12795.71
634.563	12465.99
634.757	12414.79
634.951	12547.9
635.145	12449.6
635.339	12480.32
635.533	12175.17
635.726	12070.73
635.92	11790.16
636.114	12009.29
636.308	12085.06
636.501	12023.62
636.695	11851.6
636.889	11702.09
637.083	11870.03
637.276	11646.8
637.47	11548.5
637.664	11521.87
637.857	11636.56
638.051	11349.84
638.244	11286.36
638.438	11179.86
638.632	11145.05
638.825	11046.74
639.019	11079.51
639.212	10973.02
639.406	11005.78
639.599	10997.59
639.793	10891.1
639.986	10643.29
640.18	10764.12
640.373	10626.91
640.567	10477.41
640.76	10563.42
640.954	10323.81
641.147	10346.34
641.34	10415.97
641.534	10282.85
641.727	10282.85
641.92	10219.36
642.114	10096.49
642.307	9928.55
642.5	10033
642.694	9817.96
642.887	9779.05
643.08	10092.39
643.273	9635.69
643.467	10014.57
643.66	9602.93
643.853	9414.51
644.046	9432.94
644.239	9555.82
644.432	9465.71
644.626	9244.53
644.819	9260.91
645.012	9490.29
645.205	9250.67
645.398	9277.3
645.591	9197.43
645.784	8976.25
645.977	9043.83
646.17	9209.72
646.363	9097.08
646.556	8888.18
646.749	8855.42
646.942	8789.88
647.135	8808.31
647.328	8640.38
647.521	8816.51
647.714	8628.09
647.907	8648.57
648.099	8292.23
648.292	8552.32
648.485	8626.04
648.678	8449.92
648.871	8501.12
649.064	8421.25
649.256	8378.24
649.449	8322.94
649.642	8167.3
649.835	8069
650.027	8124.29
650.22	8093.57
650.413	7911.3
650.605	8021.89
650.798	7954.31
650.991	7858.06
651.183	7888.78
651.376	7681.93
651.568	7806.86
651.761	7477.13
651.954	7712.65
652.146	7528.33
652.339	7643.02
652.531	7643.02
652.724	7595.92
652.916	7438.22
653.109	7337.87
653.301	7382.93
653.494	7487.37
653.686	7251.86
653.879	7378.83
654.071	7126.93
654.263	7126.93
654.456	7245.71
654.648	7288.72
654.84	6965.14
655.033	7088.02
655.225	7055.25
655.417	7075.73
655.61	7045.01
655.802	6772.63
655.994	6879.13
656.186	6989.72
656.379	6922.13
656.571	6852.5
656.763	6649.75
656.955	6610.84
657.148	6756.25
657.34	6598.56
657.532	6602.65
657.724	6539.16
657.916	6561.69
658.108	6539.16
658.3	6438.81
658.492	6399.9
658.684	6408.09
658.876	6379.42
659.068	6143.91
659.26	6268.83
659.452	6119.33
659.644	6186.91
659.836	6148
660.028	6174.63
660.22	6141.86
660.412	6084.52
660.604	6008.74
660.796	6086.56
660.988	6135.71
661.18	5961.64
661.372	5892.01
661.563	5900.2
661.755	5812.14
661.947	5789.61
662.139	5961.64
662.331	5840.81
662.522	5777.32
662.714	5750.7
662.906	5664.68
663.097	5685.16
663.289	5519.28
663.481	5482.41
663.673	5613.48
663.864	5310.38
664.056	5556.14
664.247	5369.77
664.439	5363.63
664.631	5478.32
664.822	5496.75
665.014	5404.59
665.205	5226.42
665.397	5328.81
665.588	5230.51
665.78	5074.87
665.971	5289.9
666.163	5164.98
666.354	5302.19
666.546	5177.27
666.737	5201.84
666.929	5294
667.12	5207.98
667.311	5054.39
667.503	5001.14
667.694	5062.58
667.885	5052.34
668.077	5009.33
668.268	4855.73
668.459	4900.79
668.651	4933.56
668.842	4947.89
669.033	4894.65
669.224	4757.43
669.416	4732.86
669.607	4825.01
669.798	4859.83
669.989	4708.28
670.18	4700.09
670.371	4640.7
670.563	4550.59
670.754	4640.7
670.945	4620.22
671.136	4605.88
671.327	4601.79
671.518	4573.11
671.709	4569.02
671.9	4511.68
672.091	4526.01
672.282	4538.3
672.473	4417.47
672.664	4530.11
672.855	4358.08
673.046	4380.61
673.237	4386.75
673.428	4356.03
673.619	4411.32
673.809	4302.78
674	4456.38
674.191	4331.45
674.382	4177.86
674.573	4216.77
674.764	4313.02
674.954	4202.43
675.145	4210.62
675.336	4321.21
675.527	4339.65
675.717	4208.58
675.908	4134.85
676.099	4145.09
676.289	4237.25
676.48	4184
676.671	4190.14
676.861	4186.05
677.052	4251.58
677.243	4052.93
677.433	4147.14
677.624	4222.91
677.814	4073.41
678.005	4059.07
678.195	4036.55
678.386	3962.82
678.576	4048.83
678.767	4120.51
678.957	3940.29
679.148	4040.64
679.338	3864.52
679.529	3946.44
679.719	3827.65
679.909	4038.59
680.1	3911.62
680.29	3948.48
680.481	3919.81
680.671	3811.27
680.861	3925.96
681.052	3880.9
681.242	3950.53
681.432	3839.94
681.622	3821.51
681.813	3846.09
682.003	3860.42
682.193	3794.89
682.383	3921.86
682.573	3725.26
682.764	3796.93
682.954	3825.61
683.144	3704.78
683.334	3680.2
683.524	3637.19
683.714	3751.88
683.904	3581.9
684.094	3755.97
684.284	3624.9
684.474	3571.66
684.664	3692.49
684.854	3532.75
685.044	3571.66
685.234	3518.41
685.424	3524.55
685.614	3514.31
685.804	3692.49
685.994	3549.13
686.184	3508.17
686.374	3397.58
686.564	3450.83
686.753	3518.41
686.943	3473.36
687.133	3469.26
687.323	3465.16
687.513	3401.68
687.702	3399.63
687.892	3315.66
688.082	3342.28
688.272	3305.42
688.461	3420.11
688.651	3409.87
688.841	3303.37
689.03	3239.89
689.22	3227.6
689.41	3190.74
689.599	3286.99
689.789	3184.59
689.979	3172.3
690.168	3215.31
690.358	3129.3
690.547	3037.14
690.737	3280.85
690.926	3215.31
691.116	3151.82
691.305	3205.07
691.495	2924.5
691.684	3157.97
691.874	3076.05
692.063	2990.03
692.252	3002.32
692.442	3063.76
692.631	3119.06
692.82	3033.04
693.01	2897.88
693.199	2951.12
693.388	2893.78
693.578	3018.71
693.767	2940.88
693.956	3074
694.146	2748.37
694.335	2883.54
694.524	2963.41
694.713	2895.83
694.902	2944.98
695.092	2963.41
695.281	2795.48
695.47	2738.13
695.659	2908.12
695.848	2867.16
696.037	2912.21
696.226	2914.26
696.415	2811.86
696.604	2891.73
696.793	2871.25
696.982	2805.72
697.171	2918.36
697.36	2725.85
697.549	2901.97
697.738	2797.53
697.927	2953.17
698.116	2885.59
698.305	2779.09
698.494	2801.62
698.683	2783.19
698.872	2822.1
699.061	2805.72
699.25	2815.96
699.438	2785.24
699.627	2815.96
699.816	2842.58
700.005	2742.23
700.193	2875.35
700.382	2809.81
700.571	2910.16
700.76	2768.85
700.948	2871.25
701.137	2869.2
701.326	2842.58
701.514	2805.72
701.703	2777.05
701.892	2838.48
702.08	2777.05
702.269	2703.32
702.457	2803.67
702.646	2777.05
702.834	2772.95
703.023	2762.71
703.212	2684.89
703.4	2785.24
703.589	2914.26
703.777	2928.6
703.965	2852.82
704.154	2762.71
704.342	2781.14
704.531	2850.77
704.719	2846.68
704.907	2820.05
705.096	2795.48
705.284	2775
705.472	2789.33
705.661	2736.09
705.849	2688.98
706.037	2764.76
706.226	2813.91
706.414	2901.97
706.602	2838.48
706.79	2805.72
706.979	2717.65
707.167	2799.57
707.355	2820.05
707.543	2731.99
707.731	2830.29
707.919	2766.81
708.107	2869.2
708.296	2842.58
708.484	2754.52
708.672	2768.85
708.86	2762.71
709.048	2893.78
709.236	2711.51
709.424	2756.57
709.612	2854.87
709.8	2711.51
709.988	2678.74
710.176	2760.66
710.364	2803.67
710.551	2709.46
710.739	2785.24
710.927	2875.35
711.115	2727.89
711.303	2686.94
711.491	2801.62
711.679	2809.81
711.866	2793.43
712.054	2781.14
712.242	2639.83
712.43	2777.05
712.617	2803.67
712.805	2746.33
712.993	2668.5
713.181	2805.72
713.368	2820.05
713.556	2824.15
713.744	2705.37
713.931	2686.94
714.119	2707.41
714.306	2717.65
714.494	2740.18
714.682	2559.96
714.869	2717.65
715.057	2684.89
715.244	2680.79
715.432	2750.42
715.619	2582.49
715.807	2760.66
715.994	2746.33
716.182	2801.62
716.369	2742.23
716.556	2709.46
716.744	2686.94
716.931	2699.22
717.119	2691.03
717.306	2693.08
717.493	2562.01
717.681	2703.32
717.868	2688.98
718.055	2582.49
718.242	2635.74
718.43	2758.61
718.617	2643.93
718.804	2727.89
718.991	2746.33
719.179	2617.3
719.366	2611.16
719.553	2639.83
719.74	2613.21
719.927	2588.63
720.114	2498.52
720.301	2650.07
720.488	2701.27
720.676	2613.21
720.863	2611.16
721.05	2619.35
721.237	2625.5
721.424	2619.35
721.611	2609.11
721.798	2572.25
721.985	2643.93
722.172	2557.91
722.358	2658.26
722.545	2680.79
722.732	2500.57
722.919	2707.41
723.106	2525.15
723.293	2467.8
723.48	2523.1
723.667	2539.48
723.853	2559.96
724.04	2600.92
724.227	2582.49
724.414	2527.19
724.6	2494.43
724.787	2504.67
724.974	2478.04
725.161	2584.54
725.347	2521.05
725.534	2514.91
725.72	2598.87
725.907	2512.86
726.094	2602.97
726.28	2377.69
726.467	2455.51
726.653	2385.88
726.84	2439.13
727.027	2486.23
727.213	2453.47
727.4	2471.9
727.586	2441.18
727.773	2506.71
727.959	2547.67
728.145	2521.05
728.332	2490.33
728.518	2373.6
728.705	2510.81
728.891	2555.86
729.077	2570.2
729.264	2447.32
729.45	2410.46
729.636	2437.08
729.823	2428.89
730.009	2447.32
730.195	2351.07
730.382	2400.22
730.568	2359.26
730.754	2467.8
730.94	2387.93
731.126	2342.88
731.313	2314.2
731.499	2318.3
731.685	2363.36
731.871	2430.94
732.057	2369.5
732.243	2408.41
732.429	2410.46
732.615	2435.03
732.801	2330.59
732.987	2201.57
733.173	2367.45
733.359	2353.12
733.545	2373.6
733.731	2320.35
733.917	2316.25
734.103	2435.03
734.289	2375.64
734.475	2375.64
734.661	2475.99
734.847	2308.06
735.033	2220
735.219	2299.87
735.404	2285.53
735.59	2281.44
735.776	2258.91
735.962	2238.43
736.148	2361.31
736.333	2320.35
736.519	2220
736.705	2154.46
736.89	2326.49
737.076	2265.05
737.262	2281.44
737.447	2328.54
737.633	2240.48
737.819	2133.98
738.004	2238.43
738.19	2217.95
738.375	2279.39
738.561	2308.06
738.747	2179.04
738.932	2154.46
739.118	2179.04
739.303	2248.67
739.489	2291.68
739.674	2146.27
739.859	2197.47
740.045	2138.08
740.23	2099.17
740.416	2197.47
740.601	2222.05
740.786	2160.61
740.972	2203.61
741.157	2119.65
741.342	2064.35
741.528	1984.48
741.713	2162.65
741.898	2023.39
742.084	1972.19
742.269	2056.16
742.454	2037.73
742.639	2043.87
742.824	1943.52
743.01	2043.87
743.195	2033.63
743.38	2052.06
743.565	1996.77
743.75	2113.5
743.935	1964
744.12	1849.32
744.305	2015.2
744.49	1974.24
744.675	2015.2
744.86	1880.04
745.045	1925.09
745.23	1808.36
745.415	1775.59
745.6	1880.04
745.785	1761.25
745.97	1880.04
746.155	1968.1
746.34	1863.65
746.525	1816.55
746.71	1890.28
746.895	1763.3
747.079	1951.71
747.264	1763.3
747.449	1908.71
747.634	1718.25
747.819	1826.79
748.003	1796.07
748.188	1875.94
748.373	1621.99
748.557	1730.53
748.742	1740.77
748.927	1703.91
749.111	1632.23
749.296	1630.18
749.481	1730.53
749.665	1636.33
749.85	1617.9
750.034	1654.76
750.219	1511.4
750.404	1656.81
750.588	1591.27
750.773	1581.03
750.957	1589.22
751.141	1552.36
751.326	1478.63
751.51	1519.59
751.695	1368.04
751.879	1589.22
752.064	1583.08
752.248	1523.69
752.432	1558.5
752.617	1566.7
752.801	1591.27
752.985	1435.63
753.17	1478.63
753.354	1445.87
753.538	1472.49
753.722	1341.42
753.907	1363.95
754.091	1421.29
754.275	1394.67
754.459	1374.19
754.643	1333.23
754.828	1341.42
755.012	1294.32
755.196	1216.49
755.38	1314.8
755.564	1337.32
755.748	1294.32
755.932	1314.8
756.116	1251.31
756.3	1308.65
756.484	1335.28
756.668	1206.25
756.852	1232.88
757.036	1183.73
757.22	1271.79
757.404	1224.69
757.588	1279.98
757.772	1267.69
757.956	1247.21
758.14	1255.4
758.323	1196.01
758.507	1191.92
758.691	1155.05
758.875	1144.81
759.059	1277.93
759.242	1087.47
759.426	1126.38
759.61	1161.2
759.794	1042.42
759.977	1150.96
760.161	1060.85
760.345	1142.77
760.528	1095.66
760.712	1056.75
760.895	1157.1
761.079	1099.76
761.263	1026.03
761.446	1009.65
761.63	1118.19
761.813	1062.9
761.997	1048.56
762.18	1019.89
762.364	995.31
762.547	991.22
762.731	1163.25
762.914	1038.32
763.098	978.93
763.281	1032.18
763.464	991.22
763.648	927.73
763.831	985.07
764.015	989.17
764.198	985.07
764.381	962.55
764.564	948.21
764.748	993.26
764.931	1021.94
765.114	987.12
765.297	991.22
765.481	927.73
765.664	958.45
765.847	903.15
766.03	1015.79
766.213	884.72
766.397	897.01
766.58	874.48
766.763	892.91
766.946	864.24
767.129	972.79
767.312	921.59
767.495	952.31
767.678	827.38
767.861	911.35
768.044	849.91
768.227	886.77
768.41	835.57
768.593	903.15
768.776	847.86
768.959	835.57
769.142	948.21
769.324	808.95
769.507	897.01
769.69	817.14
769.873	804.85
770.056	847.86
770.239	868.34
770.421	770.04
770.604	827.38
770.787	825.33
770.97	825.33
771.152	780.28
771.335	806.9
771.518	661.49
771.7	776.18
771.883	888.82
772.066	765.94
772.248	823.28
772.431	790.52
772.613	770.04
772.796	784.37
772.978	770.04
773.161	684.02
773.343	774.13
773.526	716.79
773.708	641.01
773.891	770.04
774.073	747.51
774.256	770.04
774.438	733.17
774.621	684.02
774.803	708.6
774.985	671.73
775.168	763.89
775.35	673.78
775.532	641.01
775.715	741.36
775.897	694.26
776.079	618.49
776.261	731.12
776.444	679.93
776.626	655.35
776.808	583.67
776.99	632.82
777.173	598.01
777.355	620.53
777.537	573.43
777.719	606.2
777.901	618.49
778.083	534.52
778.265	571.38
778.447	632.82
778.629	614.39
778.811	593.91
778.993	544.76
779.175	622.58
779.357	561.14
779.539	591.86
779.721	630.77
779.903	577.53
780.085	522.23
780.267	532.47
780.449	507.9
780.631	567.29
780.812	618.49
780.994	542.71
781.176	514.04
781.358	589.82
781.54	468.98
781.721	458.75
781.903	571.38
782.085	438.27
782.267	509.94
782.448	509.94
782.63	487.42
782.812	511.99
782.993	430.07
783.175	473.08
783.357	509.94
783.538	487.42
783.72	423.93
783.901	446.46
784.083	419.83
784.264	436.22
784.446	458.75
784.627	514.04
784.809	468.98
784.99	458.75
785.172	417.79
785.353	438.27
785.535	501.75
785.716	354.3
785.897	339.96
786.079	376.83
786.26	477.18
786.441	370.68
786.623	327.68
786.804	397.31
786.985	387.07
787.167	366.59
787.348	391.16
787.529	468.98
787.71	344.06
787.891	471.03
788.073	442.36
788.254	393.21
788.435	372.73
788.616	335.87
788.797	405.5
788.978	385.02
789.159	411.64
789.34	374.78
789.522	368.63
789.703	444.41
789.884	366.59
790.065	239.61
790.246	372.73
790.427	374.78
790.607	364.54
790.788	380.92
790.969	251.9
791.15	323.58
791.331	303.1
791.512	382.97
791.693	329.72
791.874	311.29
792.054	333.82
792.235	354.3
792.416	290.81
792.597	260.09
792.778	323.58
792.958	323.58
793.139	348.15
793.32	315.39
793.5	282.62
793.681	292.86
793.862	288.76
794.042	321.53
794.223	266.24
794.404	251.9
794.584	217.08
794.765	239.61
794.945	260.09
795.126	303.1
795.306	270.33
795.487	296.96
795.667	290.81
795.848	247.8
796.028	307.2
796.209	305.15
796.389	290.81
796.57	356.35
796.75	225.28
796.93	290.81
797.111	186.37
797.291	217.08
797.471	251.9
797.652	180.22
797.832	251.9
798.012	311.29
798.192	260.09
798.373	274.43
798.553	251.9
798.733	186.37
798.913	231.42
799.093	296.96
799.274	241.66
799.454	282.62
799.634	262.14
799.814	184.32
799.994	258.04
800.174	321.53
800.354	260.09
800.534	186.37
800.714	256
800.894	174.08
801.074	161.79
801.254	247.8
801.434	266.24
801.614	219.13
801.794	167.93
801.974	638.97
802.154	253.95
802.334	264.19
802.514	212.99
802.693	174.08
802.873	194.56
803.053	227.32
803.233	192.51
803.413	262.14
803.592	143.36
803.772	223.23
803.952	196.61
804.131	174.08
804.311	155.65
804.491	172.03
804.67	249.85
804.85	231.42
805.03	186.37
805.209	194.56
805.389	110.59
805.568	284.67
805.748	149.5
805.928	131.07
806.107	190.46
806.287	237.56
806.466	212.99
806.646	159.74
806.825	215.04
807.004	174.08
807.184	114.69
807.363	135.17
807.543	188.41
807.722	102.4
807.901	210.94
808.081	206.84
808.26	114.69
808.439	169.98
808.619	202.75
808.798	178.17
808.977	165.89
809.156	180.22
809.336	145.41
809.515	227.32
809.694	135.17
809.873	141.31
810.052	108.54
810.231	247.8
810.411	153.6
810.59	131.07
810.769	145.41
810.948	233.47
811.127	172.03
811.306	198.65
811.485	180.22
811.664	215.04
811.843	139.26
812.022	145.41
812.201	155.65
812.38	241.66
812.559	59.39
812.737	149.5
812.916	135.17
813.095	133.12
813.274	143.36
813.453	147.45
813.632	141.31
813.811	141.31
813.989	112.64
814.168	126.97
814.347	149.5
814.526	65.54
814.704	98.3
814.883	131.07
815.062	163.84
815.24	163.84
815.419	114.69
815.598	131.07
815.776	112.64
815.955	110.59
816.133	88.06
816.312	155.65
816.49	126.97
816.669	49.15
816.847	161.79
817.026	192.51
817.204	96.25
817.383	147.45
817.561	75.77
817.74	155.65
817.918	110.59
818.097	100.35
818.275	59.39
818.453	159.74
818.632	161.79
818.81	92.16
818.988	116.73
819.167	124.93
819.345	141.31
819.523	65.54
819.701	88.06
819.879	122.88
820.058	98.3
820.236	126.97
820.414	98.3
820.592	96.25
820.77	131.07
820.948	20.48
821.127	100.35
821.305	65.54
821.483	98.3
821.661	133.12
821.839	155.65
822.017	57.34
822.195	43.01
822.373	172.03
822.551	45.06
822.729	51.2
822.907	71.68
823.085	118.78
823.262	86.01
823.44	88.06
823.618	81.92
823.796	18.43
823.974	122.88
824.152	18.43
824.329	75.77
824.507	98.3
824.685	110.59
824.863	122.88
825.04	71.68
825.218	149.5
825.396	63.49
825.574	12.29
825.751	96.25
825.929	73.73
826.107	77.82
826.284	108.54
826.462	92.16
826.639	169.98
826.817	120.83
826.994	139.26
827.172	49.15
827.349	149.5
827.527	114.69
827.704	118.78
827.882	86.01
828.059	102.4
828.237	45.06
828.414	145.41
828.591	51.2
828.769	108.54
828.946	81.92
829.124	98.3
829.301	32.77
829.478	100.35
829.655	92.16
829.833	124.93
830.01	47.1
830.187	100.35
830.364	14.34
830.542	122.88
830.719	38.91
830.896	71.68
831.073	83.97
831.25	63.49
831.427	141.31
831.604	34.82
831.782	86.01
831.959	108.54
832.136	20.48
832.313	40.96
832.49	137.21
832.667	94.21
832.844	49.15
833.021	49.15
833.198	73.73
833.374	61.44
833.551	108.54
833.728	88.06
833.905	110.59
834.082	98.3
834.259	149.5
834.436	73.73
834.612	145.41
834.789	51.2
834.966	81.92
835.143	-2.05
835.319	38.91
835.496	106.49
835.673	118.78
835.85	94.21
836.026	73.73
836.203	38.91
836.38	116.73
836.556	38.91
836.733	12.29
836.909	83.97
837.086	34.82
837.262	65.54
837.439	65.54
837.616	94.21
837.792	67.58
837.968	116.73
838.145	36.86
838.321	26.62
838.498	94.21
838.674	55.3
838.851	6.14
839.027	36.86
839.203	14.34
839.38	86.01
839.556	0
839.732	51.2
839.909	16.38
840.085	106.49
840.261	-38.91
840.437	55.3
840.614	24.58
840.79	90.11
840.966	98.3
841.142	20.48
841.318	71.68
841.494	26.62
841.671	34.82
841.847	-32.77
842.023	4.1
842.199	53.25
842.375	133.12
842.551	-18.43
842.727	16.38
842.903	94.21
843.079	16.38
843.255	157.69
843.431	14.34
843.607	24.58
843.783	6.14
843.959	86.01
844.134	28.67
844.31	45.06
844.486	75.77
844.662	77.82
844.838	100.35
845.013	71.68
845.189	12.29
845.365	32.77
845.541	38.91
845.716	61.44
845.892	79.87
846.068	30.72
846.244	47.1
846.419	59.39
846.595	71.68
846.77	4.1
846.946	61.44
847.122	77.82
847.297	-14.34
847.473	90.11
847.648	-24.58
847.824	20.48
847.999	0
848.175	22.53
848.35	28.67
848.526	49.15
848.701	131.07
848.876	67.58
849.052	14.34
849.227	77.82
849.403	67.58
849.578	26.62
849.753	75.77
849.929	51.2
850.104	-10.24
850.279	36.86
850.454	20.48
850.63	-2.05
850.805	34.82
850.98	55.3
851.155	8.19
851.33	59.39
851.505	-51.2
851.681	92.16
851.856	-4.1
852.031	100.35
852.206	22.53
852.381	63.49
852.556	-2.05
852.731	47.1
852.906	90.11
853.081	45.06
853.256	75.77
853.431	-20.48
853.606	-28.67
853.781	-14.34
853.956	73.73
854.131	-12.29
854.305	38.91
854.48	55.3
854.655	-57.34
854.83	102.4
855.005	30.72
855.18	12.29
855.354	24.58
855.529	-20.48
855.704	-26.62
855.879	77.82
856.053	-65.53
856.228	30.72
856.403	-30.72
856.577	22.53
856.752	40.96
856.926	24.58
857.101	32.77
857.276	20.48
857.45	71.68
857.625	92.16
857.799	-30.72
857.974	24.58
858.148	-2.05
858.323	51.2
858.497	65.54
858.672	-20.48
858.846	-43.01
859.02	51.2
859.195	-94.21
859.369	-10.24
859.543	-30.72
859.718	-18.43
859.892	36.86
860.066	12.29
860.241	61.44
860.415	40.96
860.589	-10.24
860.763	24.58
860.938	-4.1
861.112	43.01
861.286	-20.48
861.46	-10.24
861.634	38.91
861.808	-18.43
861.982	36.86
862.157	28.67
862.331	12.29
862.505	79.87
862.679	-24.58
862.853	-51.2
863.027	30.72
863.201	77.82
863.375	65.54
863.549	14.34
863.722	-6.14
863.896	49.15
864.07	36.86
864.244	36.86
864.418	43.01
864.592	16.38
864.766	-24.58
864.939	-8.19
865.113	18.43
865.287	77.82
865.461	53.25
865.634	18.43
865.808	51.2
865.982	-2.05
866.156	-20.48
866.329	6.14
866.503	8.19
866.676	-47.1
866.85	30.72
867.024	26.62
867.197	10.24
867.371	53.25
867.544	-28.67
867.718	-4.1
867.891	30.72
868.065	-10.24
868.238	16.38
868.412	55.3
868.585	26.62
868.759	-10.24
868.932	-16.38
869.105	14.34
869.279	-20.48
869.452	20.48
869.625	-2.05
869.799	-14.34
869.972	12.29
870.145	-40.96
870.319	-12.29
870.492	71.68
870.665	-26.62
870.838	77.82
871.011	24.58
871.185	79.87
871.358	4.1
871.531	57.34
871.704	24.58
871.877	51.2
872.05	6.14
872.223	-43.01
872.396	28.67
872.569	63.49
872.742	24.58
872.915	38.91
873.088	-77.82
873.261	79.87
873.434	-6.14
873.607	8.19
873.78	-6.14
873.953	-14.34
874.126	36.86
874.299	-8.19
874.471	-26.62
874.644	75.77
874.817	-4.1
874.99	67.58
875.163	8.19
875.335	69.63
875.508	10.24
875.681	-2.05
875.853	-47.1
876.026	-18.43
876.199	77.82
876.371	-8.19
876.544	24.58
876.717	28.67
876.889	12.29
877.062	36.86
877.234	-40.96
877.407	36.86
877.579	32.77
877.752	24.58
877.924	-6.14
878.097	30.72
878.269	-22.53
878.442	61.44
878.614	-73.73
878.786	79.87
878.959	-32.77
879.131	32.77
879.303	-20.48
879.476	-10.24
879.648	-2.05
879.82	114.69
879.993	-6.14
880.165	-10.24
880.337	20.48
880.509	-2.05
880.681	26.62
880.854	26.62
881.026	36.86
881.198	118.78
881.37	8.19
881.542	-12.29
881.714	-24.58
881.886	-30.72
882.058	-22.53
882.23	14.34
882.402	12.29
882.574	-20.48
882.746	-51.2
882.918	45.06
883.09	92.16
883.262	-40.96
883.434	57.34
883.606	-51.2
883.778	-69.63
883.95	67.58
884.122	20.48
884.293	-8.19
884.465	-75.77
884.637	-16.38
884.809	40.96
884.98	12.29
885.152	-36.86
885.324	18.43
885.496	0
885.667	40.96
885.839	4.1
886.011	-4.1
886.182	20.48
886.354	22.53
886.525	-38.91
886.697	28.67
886.869	18.43
887.04	22.53
887.212	6.14
887.383	49.15
887.555	-16.38
887.726	79.87
887.897	14.34
888.069	-30.72
888.24	102.4
888.412	36.86
888.583	51.2
888.754	-57.34
888.926	-90.11
889.097	16.38
889.268	20.48
889.44	26.62
889.611	10.24
889.782	18.43
889.953	2.05
890.125	57.34
890.296	-51.2
890.467	73.73
890.638	-36.86
890.809	43.01
890.98	34.82
891.151	8.19
891.323	36.86
891.494	10.24
891.665	6.14
891.836	16.38
892.007	-36.86
892.178	14.34
892.349	-2.05
892.52	-30.72
892.691	-43.01
892.862	86.01
893.032	22.53
893.203	2.05
893.374	14.34
893.545	67.58
893.716	-16.38
893.887	26.62
894.057	-28.67
894.228	-10.24
894.399	-18.43
894.57	-32.77
894.74	-16.38
894.911	-14.34
895.082	83.97
895.253	22.53
895.423	-16.38
895.594	26.62
895.764	-16.38
895.935	-40.96
896.106	2.05
896.276	75.77
896.447	2.05
896.617	53.25
896.788	-18.43
896.958	24.58
897.129	-20.48
897.299	-45.06
897.47	75.77
897.64	-30.72
897.81	-4.1
897.981	45.06
898.151	-14.34
898.322	-32.77
898.492	-14.34
898.662	36.86
898.832	12.29
899.003	-22.53
899.173	-20.48
899.343	2.05
899.513	-36.86
