Data from USB4F104151__29__12-00-38-593.txt Node

Date: Fri Mar 14 12:00:38 EDT 2025
User: louis
Spectrometer: USB4F10415
Trigger mode: 4
Integration Time (sec): 2.000000E-2
Scans to average: 1
Electric dark correction enabled: true
Nonlinearity correction enabled: false
Boxcar width: 0
XAxis mode: Wavelengths
Number of Pixels in Spectrum: 3648
>>>>>Begin Spectral Data<<<<<
178.204	-113.32
178.424	-113.32
178.644	-113.32
178.864	-152.23
179.084	-43.69
179.304	21.85
179.524	1.37
179.744	-2.73
179.964	-15.02
180.184	40.28
180.404	-35.5
180.624	30.04
180.844	13.65
181.064	-62.12
181.283	-8.87
181.503	-10.92
181.723	27.99
181.943	-2.73
182.163	85.33
182.383	48.47
182.602	21.85
182.822	52.56
183.042	54.61
183.262	-51.88
183.482	85.33
183.701	34.13
183.921	11.61
184.141	-37.55
184.361	40.28
184.58	30.04
184.8	42.32
185.02	21.85
185.239	79.19
185.459	-2.73
185.679	13.65
185.898	27.99
186.118	81.24
186.338	50.52
186.557	27.99
186.777	42.32
186.997	5.46
187.216	25.94
187.436	34.13
187.655	1.37
187.875	105.81
188.095	52.56
188.314	44.37
188.534	87.38
188.753	25.94
188.973	52.56
189.192	48.47
189.412	32.08
189.631	-27.31
189.851	52.56
190.07	58.71
190.29	-64.17
190.509	9.56
190.729	-25.26
190.948	56.66
191.168	71
191.387	19.8
191.607	87.38
191.826	23.89
192.045	23.89
192.265	62.8
192.484	23.89
192.704	-23.21
192.923	13.65
193.142	52.56
193.362	40.28
193.581	140.63
193.8	42.32
194.02	34.13
194.239	46.42
194.458	-23.21
194.678	25.94
194.897	85.33
195.116	30.04
195.335	54.61
195.555	40.28
195.774	-31.4
195.993	81.24
196.212	-15.02
196.432	42.32
196.651	42.32
196.87	54.61
197.089	11.61
197.308	64.85
197.528	66.9
197.747	-41.64
197.966	62.8
198.185	136.53
198.404	122.2
198.623	27.99
198.842	13.65
199.062	9.56
199.281	60.76
199.5	30.04
199.719	60.76
199.938	27.99
200.157	95.57
200.376	83.28
200.595	46.42
200.814	-8.87
201.033	-23.21
201.252	46.42
201.471	9.56
201.69	66.9
201.909	75.09
202.128	23.89
202.347	30.04
202.566	21.85
202.785	23.89
203.004	17.75
203.223	116.05
203.442	46.42
203.661	114
203.879	40.28
204.098	103.76
204.317	9.56
204.536	30.04
204.755	48.47
204.974	56.66
205.193	48.47
205.411	116.05
205.63	44.37
205.849	73.04
206.068	3.41
206.287	-12.97
206.505	66.9
206.724	44.37
206.943	99.67
207.162	77.14
207.381	21.85
207.599	52.56
207.818	19.8
208.037	48.47
208.255	34.13
208.474	48.47
208.693	44.37
208.911	9.56
209.13	21.85
209.349	11.61
209.567	25.94
209.786	17.75
210.005	32.08
210.223	23.89
210.442	7.51
210.661	32.08
210.879	97.62
211.098	77.14
211.316	-12.97
211.535	15.7
211.753	77.14
211.972	99.67
212.191	116.05
212.409	40.28
212.628	132.44
212.846	13.65
213.065	85.33
213.283	7.51
213.502	62.8
213.72	-33.45
213.938	44.37
214.157	-6.83
214.375	60.76
214.594	146.77
214.812	-0.68
215.031	38.23
215.249	48.47
215.467	107.86
215.686	77.14
215.904	93.52
216.122	23.89
216.341	73.04
216.559	81.24
216.778	9.56
216.996	30.04
217.214	64.85
217.432	120.15
217.651	25.94
217.869	42.32
218.087	11.61
218.306	52.56
218.524	42.32
218.742	77.14
218.96	34.13
219.179	62.8
219.397	50.52
219.615	27.99
219.833	3.41
220.051	15.7
220.27	46.42
220.488	79.19
220.706	-0.68
220.924	83.28
221.142	42.32
221.36	75.09
221.578	30.04
221.796	-19.11
222.015	40.28
222.233	48.47
222.451	79.19
222.669	42.32
222.887	101.72
223.105	44.37
223.323	40.28
223.541	13.65
223.759	105.81
223.977	64.85
224.195	116.05
224.413	99.67
224.631	68.95
224.849	1.37
225.067	138.58
225.285	-29.35
225.503	64.85
225.721	-4.78
225.939	60.76
226.157	42.32
226.375	1.37
226.592	25.94
226.81	54.61
227.028	-0.68
227.246	91.48
227.464	19.8
227.682	7.51
227.9	25.94
228.117	93.52
228.335	68.95
228.553	-25.26
228.771	93.52
228.989	13.65
229.206	-2.73
229.424	-37.55
229.642	-6.83
229.86	1.37
230.077	40.28
230.295	140.63
230.513	38.23
230.731	15.7
230.948	111.96
231.166	85.33
231.384	44.37
231.601	34.13
231.819	46.42
232.037	46.42
232.254	54.61
232.472	-19.11
232.689	-27.31
232.907	93.52
233.125	87.38
233.342	48.47
233.56	-33.45
233.777	25.94
233.995	32.08
234.213	32.08
234.43	85.33
234.648	13.65
234.865	77.14
235.083	79.19
235.3	25.94
235.518	66.9
235.735	91.48
235.953	23.89
236.17	-47.79
236.388	-8.87
236.605	-8.87
236.822	54.61
237.04	9.56
237.257	56.66
237.475	25.94
237.692	5.46
237.909	-10.92
238.127	68.95
238.344	19.8
238.562	54.61
238.779	5.46
238.996	1.37
239.214	-45.74
239.431	38.23
239.648	34.13
239.865	105.81
240.083	42.32
240.3	23.89
240.517	36.18
240.735	83.28
240.952	68.95
241.169	91.48
241.386	56.66
241.603	97.62
241.821	9.56
242.038	68.95
242.255	34.13
242.472	23.89
242.689	27.99
242.907	132.44
243.124	38.23
243.341	17.75
243.558	44.37
243.775	75.09
243.992	9.56
244.209	-43.69
244.426	107.86
244.643	105.81
244.86	73.04
245.078	87.38
245.295	79.19
245.512	52.56
245.729	38.23
245.946	124.24
246.163	30.04
246.38	40.28
246.597	83.28
246.814	46.42
247.031	52.56
247.248	9.56
247.464	-2.73
247.681	54.61
247.898	93.52
248.115	3.41
248.332	30.04
248.549	124.24
248.766	85.33
248.983	38.23
249.2	46.42
249.417	-4.78
249.633	13.65
249.85	64.85
250.067	66.9
250.284	66.9
250.501	64.85
250.717	56.66
250.934	62.8
251.151	71
251.368	79.19
251.585	9.56
251.801	107.86
252.018	7.51
252.235	83.28
252.451	13.65
252.668	103.76
252.885	56.66
253.102	66.9
253.318	25.94
253.535	9.56
253.752	46.42
253.968	91.48
254.185	50.52
254.401	89.43
254.618	42.32
254.835	81.24
255.051	128.34
255.268	126.29
255.484	111.96
255.701	101.72
255.917	42.32
256.134	120.15
256.351	34.13
256.567	9.56
256.784	116.05
257	42.32
257.217	93.52
257.433	25.94
257.65	77.14
257.866	111.96
258.082	52.56
258.299	3.41
258.515	58.71
258.732	17.75
258.948	42.32
259.165	97.62
259.381	120.15
259.597	17.75
259.814	3.41
260.03	7.51
260.246	85.33
260.463	30.04
260.679	118.1
260.895	21.85
261.112	101.72
261.328	46.42
261.544	27.99
261.761	91.48
261.977	1.37
262.193	44.37
262.409	7.51
262.626	89.43
262.842	42.32
263.058	19.8
263.274	97.62
263.49	46.42
263.707	150.87
263.923	42.32
264.139	13.65
264.355	58.71
264.571	52.56
264.787	85.33
265.004	109.91
265.22	95.57
265.436	64.85
265.652	50.52
265.868	25.94
266.084	-15.02
266.3	73.04
266.516	-23.21
266.732	34.13
266.948	34.13
267.164	48.47
267.38	56.66
267.596	58.71
267.812	157.01
268.028	73.04
268.244	23.89
268.46	21.85
268.676	34.13
268.892	50.52
269.108	15.7
269.324	81.24
269.54	1.37
269.756	17.75
269.972	-4.78
270.188	68.95
270.403	73.04
270.619	85.33
270.835	21.85
271.051	44.37
271.267	27.99
271.483	64.85
271.698	-4.78
271.914	87.38
272.13	95.57
272.346	15.7
272.562	85.33
272.777	17.75
272.993	21.85
273.209	-4.78
273.425	87.38
273.64	32.08
273.856	91.48
274.072	-0.68
274.287	19.8
274.503	-29.35
274.719	154.96
274.934	-27.31
275.15	62.8
275.366	-4.78
275.581	30.04
275.797	27.99
276.012	-19.11
276.228	101.72
276.444	-8.87
276.659	148.82
276.875	89.43
277.09	11.61
277.306	25.94
277.521	50.52
277.737	-17.07
277.952	71
278.168	46.42
278.383	42.32
278.599	103.76
278.814	19.8
279.03	73.04
279.245	120.15
279.461	87.38
279.676	58.71
279.892	77.14
280.107	-4.78
280.322	48.47
280.538	66.9
280.753	17.75
280.969	-6.83
281.184	62.8
281.399	7.51
281.615	66.9
281.83	1.37
282.045	73.04
282.26	32.08
282.476	46.42
282.691	89.43
282.906	42.32
283.122	56.66
283.337	32.08
283.552	75.09
283.767	-10.92
283.983	48.47
284.198	122.2
284.413	60.76
284.628	54.61
284.843	73.04
285.058	64.85
285.274	50.52
285.489	48.47
285.704	56.66
285.919	-17.07
286.134	50.52
286.349	44.37
286.564	38.23
286.779	5.46
286.995	27.99
287.21	75.09
287.425	97.62
287.64	23.89
287.855	58.71
288.07	-10.92
288.285	105.81
288.5	46.42
288.715	46.42
288.93	58.71
289.145	107.86
289.36	68.95
289.575	77.14
289.79	97.62
290.004	36.18
290.219	66.9
290.434	71
290.649	-2.73
290.864	73.04
291.079	46.42
291.294	66.9
291.509	-0.68
291.724	52.56
291.938	21.85
292.153	21.85
292.368	30.04
292.583	36.18
292.798	30.04
293.012	105.81
293.227	79.19
293.442	-8.87
293.657	21.85
293.871	48.47
294.086	77.14
294.301	83.28
294.516	52.56
294.73	38.23
294.945	-27.31
295.16	56.66
295.374	64.85
295.589	142.68
295.804	36.18
296.018	48.47
296.233	93.52
296.447	-6.83
296.662	-6.83
296.877	77.14
297.091	173.39
297.306	62.8
297.52	-8.87
297.735	15.7
297.949	40.28
298.164	27.99
298.378	64.85
298.593	34.13
298.807	46.42
299.022	71
299.236	30.04
299.451	32.08
299.665	3.41
299.88	58.71
300.094	118.1
300.309	34.13
300.523	71
300.737	-15.02
300.952	64.85
301.166	62.8
301.381	83.28
301.595	36.18
301.809	-23.21
302.024	122.2
302.238	95.57
302.452	64.85
302.667	5.46
302.881	81.24
303.095	109.91
303.309	25.94
303.524	42.32
303.738	56.66
303.952	13.65
304.166	38.23
304.381	7.51
304.595	103.76
304.809	19.8
305.023	42.32
305.237	7.51
305.452	97.62
305.666	68.95
305.88	40.28
306.094	-0.68
306.308	79.19
306.522	-0.68
306.736	30.04
306.95	25.94
307.164	11.61
307.379	32.08
307.593	36.18
307.807	66.9
308.021	105.81
308.235	56.66
308.449	-6.83
308.663	5.46
308.877	118.1
309.091	-6.83
309.305	56.66
309.519	-15.02
309.733	122.2
309.947	101.72
310.161	75.09
310.374	54.61
310.588	32.08
310.802	56.66
311.016	1.37
311.23	87.38
311.444	9.56
311.658	111.96
311.872	36.18
312.085	27.99
312.299	40.28
312.513	167.25
312.727	68.95
312.941	30.04
313.154	50.52
313.368	17.75
313.582	124.24
313.796	32.08
314.009	81.24
314.223	54.61
314.437	64.85
314.651	36.18
314.864	77.14
315.078	-10.92
315.292	38.23
315.505	25.94
315.719	7.51
315.933	52.56
316.146	-4.78
316.36	-29.35
316.573	85.33
316.787	83.28
317.001	64.85
317.214	5.46
317.428	48.47
317.641	-12.97
317.855	81.24
318.068	109.91
318.282	-33.45
318.495	136.53
318.709	46.42
318.922	81.24
319.136	50.52
319.349	23.89
319.563	124.24
319.776	17.75
319.99	64.85
320.203	56.66
320.417	99.67
320.63	36.18
320.843	105.81
321.057	42.32
321.27	105.81
321.483	68.95
321.697	66.9
321.91	36.18
322.124	62.8
322.337	13.65
322.55	9.56
322.763	101.72
322.977	27.99
323.19	38.23
323.403	34.13
323.617	107.86
323.83	46.42
324.043	42.32
324.256	81.24
324.469	62.8
324.683	93.52
324.896	1.37
325.109	23.89
325.322	68.95
325.535	79.19
325.748	83.28
325.962	89.43
326.175	32.08
326.388	89.43
326.601	64.85
326.814	17.75
327.027	103.76
327.24	71
327.453	71
327.666	85.33
327.879	87.38
328.092	68.95
328.305	30.04
328.518	75.09
328.731	77.14
328.944	73.04
329.157	68.95
329.37	44.37
329.583	111.96
329.796	75.09
330.009	-0.68
330.222	85.33
330.435	89.43
330.648	101.72
330.861	13.65
331.073	44.37
331.286	50.52
331.499	46.42
331.712	58.71
331.925	114
332.138	42.32
332.35	103.76
332.563	25.94
332.776	101.72
332.989	-47.79
333.202	58.71
333.414	152.91
333.627	-8.87
333.84	1.37
334.053	89.43
334.265	58.71
334.478	109.91
334.691	27.99
334.903	60.76
335.116	48.47
335.329	101.72
335.541	111.96
335.754	40.28
335.966	13.65
336.179	99.67
336.392	66.9
336.604	79.19
336.817	124.24
337.029	30.04
337.242	95.57
337.454	130.39
337.667	60.76
337.88	118.1
338.092	89.43
338.305	60.76
338.517	71
338.729	87.38
338.942	75.09
339.154	32.08
339.367	83.28
339.579	97.62
339.792	66.9
340.004	89.43
340.217	17.75
340.429	23.89
340.641	60.76
340.854	77.14
341.066	50.52
341.278	95.57
341.491	-12.97
341.703	79.19
341.915	42.32
342.128	-8.87
342.34	56.66
342.552	75.09
342.764	122.2
342.977	89.43
343.189	89.43
343.401	66.9
343.613	68.95
343.826	144.72
344.038	27.99
344.25	30.04
344.462	25.94
344.674	99.67
344.886	118.1
345.099	118.1
345.311	32.08
345.523	46.42
345.735	79.19
345.947	99.67
346.159	79.19
346.371	111.96
346.583	34.13
346.795	122.2
347.007	54.61
347.219	60.76
347.431	44.37
347.643	75.09
347.855	11.61
348.067	140.63
348.279	77.14
348.491	-6.83
348.703	15.7
348.915	46.42
349.127	32.08
349.339	101.72
349.551	79.19
349.763	87.38
349.975	50.52
350.187	105.81
350.399	79.19
350.61	38.23
350.822	-17.07
351.034	68.95
351.246	30.04
351.458	-8.87
351.669	38.23
351.881	85.33
352.093	91.48
352.305	114
352.517	85.33
352.728	50.52
352.94	83.28
353.152	71
353.363	79.19
353.575	56.66
353.787	130.39
353.999	111.96
354.21	5.46
354.422	50.52
354.633	71
354.845	66.9
355.057	66.9
355.268	116.05
355.48	109.91
355.692	89.43
355.903	93.52
356.115	52.56
356.326	32.08
356.538	105.81
356.749	52.56
356.961	34.13
357.172	71
357.384	50.52
357.595	75.09
357.807	66.9
358.018	71
358.23	64.85
358.441	109.91
358.653	77.14
358.864	107.86
359.075	93.52
359.287	81.24
359.498	27.99
359.709	109.91
359.921	-0.68
360.132	15.7
360.344	138.58
360.555	124.24
360.766	30.04
360.977	50.52
361.189	101.72
361.4	50.52
361.611	75.09
361.823	79.19
362.034	58.71
362.245	87.38
362.456	-29.35
362.667	58.71
362.879	116.05
363.09	107.86
363.301	11.61
363.512	93.52
363.723	101.72
363.935	15.7
364.146	52.56
364.357	44.37
364.568	23.89
364.779	30.04
364.99	122.2
365.201	142.68
365.412	81.24
365.623	52.56
365.834	111.96
366.045	120.15
366.256	62.8
366.467	56.66
366.678	1.37
366.889	85.33
367.1	93.52
367.311	83.28
367.522	130.39
367.733	64.85
367.944	64.85
368.155	25.94
368.366	83.28
368.577	95.57
368.788	122.2
368.999	50.52
369.209	32.08
369.42	83.28
369.631	181.59
369.842	73.04
370.053	91.48
370.264	62.8
370.474	50.52
370.685	71
370.896	122.2
371.107	120.15
371.317	114
371.528	19.8
371.739	163.15
371.95	101.72
372.16	34.13
372.371	5.46
372.582	58.71
372.792	38.23
373.003	91.48
373.214	25.94
373.424	171.35
373.635	5.46
373.846	46.42
374.056	107.86
374.267	95.57
374.477	101.72
374.688	40.28
374.898	114
375.109	44.37
375.319	71
375.53	91.48
375.74	126.29
375.951	27.99
376.161	34.13
376.372	60.76
376.582	144.72
376.793	64.85
377.003	42.32
377.214	60.76
377.424	19.8
377.635	56.66
377.845	23.89
378.055	75.09
378.266	56.66
378.476	75.09
378.686	50.52
378.897	-8.87
379.107	64.85
379.317	116.05
379.528	44.37
379.738	116.05
379.948	101.72
380.158	107.86
380.369	140.63
380.579	66.9
380.789	83.28
380.999	120.15
381.21	21.85
381.42	120.15
381.63	89.43
381.84	87.38
382.05	46.42
382.261	66.9
382.471	173.39
382.681	136.53
382.891	107.86
383.101	89.43
383.311	81.24
383.521	54.61
383.731	83.28
383.941	42.32
384.151	130.39
384.361	68.95
384.571	48.47
384.781	105.81
384.991	54.61
385.201	54.61
385.411	77.14
385.621	109.91
385.831	58.71
386.041	58.71
386.251	122.2
386.461	95.57
386.671	93.52
386.881	64.85
387.091	105.81
387.301	58.71
387.511	34.13
387.72	58.71
387.93	87.38
388.14	25.94
388.35	34.13
388.56	99.67
388.769	111.96
388.979	150.87
389.189	85.33
389.399	81.24
389.609	77.14
389.818	85.33
390.028	56.66
390.238	120.15
390.447	111.96
390.657	161.11
390.867	126.29
391.076	15.7
391.286	75.09
391.496	46.42
391.705	71
391.915	71
392.125	136.53
392.334	101.72
392.544	107.86
392.753	23.89
392.963	79.19
393.172	95.57
393.382	85.33
393.591	109.91
393.801	118.1
394.01	148.82
394.22	120.15
394.429	97.62
394.639	79.19
394.848	107.86
395.058	83.28
395.267	150.87
395.477	165.2
395.686	54.61
395.895	183.63
396.105	214.35
396.314	230.74
396.524	83.28
396.733	124.24
396.942	144.72
397.152	132.44
397.361	150.87
397.57	103.76
397.78	206.16
397.989	87.38
398.198	144.72
398.407	95.57
398.617	212.31
398.826	161.11
399.035	130.39
399.244	122.2
399.453	124.24
399.663	161.11
399.872	183.63
400.081	152.91
400.29	249.17
400.499	89.43
400.708	185.68
400.917	150.87
401.127	134.48
401.336	177.49
401.545	195.92
401.754	261.46
401.963	189.78
402.172	120.15
402.381	120.15
402.59	140.63
402.799	208.21
403.008	206.16
403.217	148.82
403.426	130.39
403.635	109.91
403.844	157.01
404.053	171.35
404.262	152.91
404.471	234.83
404.68	191.83
404.888	249.17
405.097	202.07
405.306	173.39
405.515	210.26
405.724	204.11
405.933	255.31
406.142	226.64
406.35	218.45
406.559	165.2
406.768	208.21
406.977	263.51
407.185	216.4
407.394	310.61
407.603	261.46
407.812	288.08
408.02	267.6
408.229	320.85
408.438	234.83
408.646	251.22
408.855	314.7
409.064	316.75
409.272	306.51
409.481	265.55
409.69	417.1
409.898	347.47
410.107	402.77
410.315	410.96
410.524	392.53
410.733	476.49
410.941	417.1
411.15	478.54
411.358	533.84
411.567	486.73
411.775	531.79
411.984	558.41
412.192	650.57
412.401	605.52
412.609	548.17
412.818	630.09
413.026	658.76
413.234	585.04
413.443	707.91
413.651	814.41
413.86	582.99
414.068	804.17
414.276	812.36
414.485	769.35
414.693	804.17
414.901	920.9
415.11	894.28
415.318	841.03
415.526	959.81
415.734	1051.97
415.943	1045.83
416.151	1103.17
416.359	1043.78
416.567	1109.32
416.776	1142.08
416.984	1197.38
417.192	1226.05
417.4	1271.11
417.608	1279.3
417.817	1275.2
418.025	1455.42
418.233	1504.57
418.441	1477.95
418.649	1617.21
418.857	1680.7
419.065	1676.6
419.273	1649.98
419.481	1752.38
419.689	1897.78
419.897	1852.73
420.105	1948.98
420.313	2090.29
420.521	2118.97
420.729	2084.15
420.937	2231.6
421.145	2356.53
421.353	2352.43
421.561	2604.33
421.769	2585.9
421.977	2702.64
422.185	2612.53
422.393	2807.08
422.601	3079.46
422.809	3106.09
423.017	2889
423.224	3175.72
423.432	3214.63
423.64	3355.94
423.848	3685.66
424.056	3421.47
424.263	3622.17
424.471	3753.24
424.679	3874.07
424.887	3972.38
425.094	4074.78
425.302	4273.43
425.51	4336.92
425.718	4529.42
425.925	4668.69
426.133	4635.92
426.341	4902.15
426.548	5264.64
426.756	5162.25
426.964	5215.49
427.171	5569.79
427.379	5735.68
427.586	5840.12
427.794	6059.26
428.001	6286.58
428.209	6481.14
428.417	6415.6
428.624	6884.59
428.832	6851.82
429.039	6798.57
429.247	6808.81
429.454	7617.76
429.662	8068.31
429.869	7478.5
430.076	8029.4
430.284	7881.95
430.491	8148.18
430.699	8565.97
430.906	8817.87
431.114	8795.34
431.321	9108.68
431.528	9501.89
431.736	9841.86
431.943	10118.33
432.15	10063.04
432.358	10065.08
432.565	10640.56
432.772	10525.88
432.979	11261.1
433.187	11472.04
433.394	11412.65
433.601	12260.51
433.808	12393.62
434.016	12098.72
434.223	12768.4
434.43	13632.65
434.637	13216.91
434.844	14255.23
435.052	14457.98
435.259	14171.26
435.466	14359.67
435.673	14267.52
435.88	15174.77
436.087	16178.27
436.294	15832.16
436.501	15436.91
436.708	15891.55
436.915	16458.84
437.122	17165.39
437.329	17106
437.537	17751.11
437.743	18211.9
437.95	17585.22
438.157	18633.78
438.364	19444.78
438.571	19551.27
438.778	19575.85
438.985	21443.6
439.192	20540.44
439.399	20974.61
439.606	20474.91
439.813	21734.41
440.02	23237.62
440.227	22926.33
440.433	22518.78
440.64	23061.49
440.847	23211
441.054	23645.16
441.261	25553.87
441.467	24861.66
441.674	25652.17
441.881	26305.48
442.088	26178.5
442.294	26164.17
442.501	26792.89
442.708	27395
442.914	28515.23
443.121	29676.43
443.328	28627.87
443.534	31132.54
443.741	30135.18
443.948	29645.71
444.154	31849.33
444.361	31323
444.568	31853.42
444.774	31679.35
444.981	32455.53
445.187	32893.79
445.394	34501.45
445.6	34415.43
445.807	37319.45
446.013	36092.72
446.22	36428.59
446.426	37542.68
446.633	38200.08
446.839	39281.41
447.046	37638.93
447.252	39650.04
447.459	39756.53
447.665	39725.82
447.871	41235.17
448.078	43119.3
448.284	41079.52
448.491	42037.97
448.697	43643.58
448.903	44520.11
449.11	44468.91
449.316	44022.45
449.522	44694.19
449.728	45738.65
449.935	46017.18
450.141	46678.67
450.347	47323.78
450.553	45800.09
450.76	45894.3
450.966	47792.76
451.172	46604.94
451.378	48077.43
451.584	47559.3
451.791	48077.43
451.997	47821.44
452.203	48826.99
452.409	49357.41
452.615	48636.53
452.821	46672.53
453.027	46287.51
453.233	48745.07
453.44	46965.38
453.646	47227.52
453.852	47082.12
454.058	48147.06
454.264	46353.04
454.47	47972.99
454.676	46545.55
454.882	47602.3
455.088	43748.03
455.294	44454.57
455.5	44892.84
455.705	45662.88
455.911	43918.01
456.117	42586.83
456.323	42074.84
456.529	39992.05
456.735	42300.11
456.941	40737.51
457.147	40264.43
457.352	38869.76
457.558	38335.24
457.764	38255.37
457.97	37737.24
458.176	36447.02
458.381	36860.71
458.587	34974.53
458.793	34720.58
458.999	33413.98
459.204	35625.78
459.41	34267.98
459.616	32136.04
459.821	32287.59
460.027	31912.81
460.233	31697.78
460.438	29946.76
460.644	30161.8
460.85	28650.4
461.055	28201.9
461.261	28304.29
461.466	26282.95
461.672	25050.07
461.878	26950.59
462.083	25394.13
462.289	25086.93
462.494	24359.91
462.7	23211
462.905	22916.09
463.111	24036.33
463.316	23948.26
463.522	23264.24
463.727	23272.43
463.932	23186.42
464.138	22967.29
464.343	22957.05
464.549	22246.4
464.754	23278.58
464.959	22948.86
465.165	22789.11
465.37	21980.17
465.575	20970.52
465.781	22303.74
465.986	22238.21
466.191	21439.5
466.397	20970.52
466.602	20186.15
466.807	20913.17
467.012	20663.32
467.218	20841.5
467.423	20282.4
467.628	20585.5
467.833	21400.59
468.038	20794.39
468.244	20067.36
468.449	20829.21
468.654	20151.33
468.859	19952.68
469.064	19848.23
469.269	19127.35
469.474	19033.14
469.679	19651.63
469.885	19070
470.09	19221.55
470.295	19035.19
470.5	18693.18
470.705	18926.64
470.91	18553.91
471.115	18043.97
471.32	18410.56
471.525	18365.5
471.73	18017.35
471.935	17800.26
472.139	17142.86
472.344	17644.62
472.549	17220.69
472.754	16768.09
472.959	16671.83
473.164	16319.58
473.369	16262.24
473.574	16800.85
473.778	16573.53
473.983	16391.26
474.188	16262.24
474.393	15416.43
474.598	15799.4
474.802	15559.78
475.007	15320.17
475.212	15715.43
475.417	14793.84
475.621	14791.8
475.826	15117.42
476.031	14687.35
476.235	14400.63
476.44	14419.07
476.645	14079.1
476.849	14353.53
477.054	14148.73
477.259	13894.79
477.463	13913.22
477.668	13560.97
477.872	13679.75
478.077	13405.32
478.282	13024.4
478.486	13022.35
478.691	12876.94
478.895	12864.66
479.1	12866.7
479.304	12936.34
479.509	12555.41
479.713	13010.06
479.918	12491.93
480.122	12246.17
480.326	12340.38
480.531	12264.6
480.735	12166.3
480.94	11928.74
481.144	12426.39
481.348	11984.03
481.553	12113.05
481.757	11701.41
481.961	11992.22
482.166	12133.53
482.37	12242.07
482.574	11785.38
482.778	12174.49
482.983	12158.11
483.187	12039.33
483.391	11977.89
483.595	11807.91
483.8	11855.01
484.004	11891.87
484.208	11840.67
484.412	11822.24
484.616	11844.77
484.821	12037.28
485.025	11719.84
485.229	12123.29
485.433	11852.96
485.637	11904.16
485.841	11732.13
486.045	11855.01
486.249	12084.38
486.453	11588.77
486.657	11840.67
486.861	11738.27
487.065	11365.54
487.269	11957.41
487.473	11611.3
487.677	11902.11
487.881	11941.02
488.085	11887.78
488.289	11787.43
488.493	11893.92
488.697	11861.15
488.901	11990.17
489.105	11846.82
489.309	11932.83
489.512	11961.5
489.716	12074.14
489.92	11889.82
490.124	11963.55
490.328	12373.14
490.531	12096.67
490.735	12004.51
490.939	12072.09
491.143	12147.87
491.346	12049.57
491.55	12457.11
491.754	12217.5
491.958	12485.78
492.161	12315.8
492.365	12670.1
492.569	12369.05
492.772	12432.54
492.976	12674.2
493.18	12668.05
493.383	12795.03
493.587	12934.29
493.79	13026.45
493.994	12729.49
494.197	13008.01
494.401	13042.83
494.605	13010.06
494.808	13425.8
495.012	13446.28
495.215	13479.05
495.419	13700.23
495.622	13513.86
495.825	13677.7
496.029	13653.12
496.232	14070.91
496.436	14044.29
496.639	14320.76
496.843	14283.9
497.046	14412.92
497.249	14783.6
497.453	14599.29
497.656	14908.53
497.859	14994.54
498.063	15029.36
498.266	15436.91
498.469	15273.07
498.673	15481.96
498.876	15496.3
499.079	15813.73
499.282	15766.63
499.485	16313.44
499.689	16299.1
499.892	16487.51
500.095	16516.19
500.298	16907.35
500.501	16841.81
500.705	17345.61
500.908	17630.28
501.111	17714.25
501.314	17597.51
501.517	17724.49
501.72	18115.65
501.923	18140.22
502.126	18445.37
502.329	18922.55
502.532	18981.94
502.735	18945.08
502.938	19444.78
503.141	19309.61
503.344	19979.3
503.547	19776.55
503.75	20124.71
503.953	20436
504.156	20519.96
504.359	20741.14
504.562	21025.81
504.765	21546
504.968	21386.26
505.17	21593.1
505.373	21658.63
505.576	21920.77
505.779	22623.23
505.982	22393.86
506.185	22819.83
506.387	22713.34
506.59	22881.27
506.793	23667.69
506.996	23272.43
507.198	24208.36
507.401	23763.95
507.604	24378.34
507.807	24699.87
508.009	24822.75
508.212	25074.65
508.415	25340.88
508.617	25562.06
508.82	25955.27
509.022	25455.57
509.225	26516.42
509.428	26778.56
509.63	26651.58
509.833	26868.67
510.035	27638.7
510.238	27431.86
510.44	27581.36
510.643	27952.04
510.845	28218.28
511.048	28111.78
511.25	28785.57
511.453	29084.57
511.655	29801.36
511.858	29471.64
512.06	29559.7
512.262	30088.07
512.465	30260.1
512.667	30778.24
512.87	31189.88
513.072	31028.09
513.274	31894.38
513.477	31703.92
513.679	31894.38
513.881	32050.03
514.084	32678.75
514.286	32353.13
514.488	32711.52
514.69	33657.68
514.893	33612.63
515.095	33456.98
515.297	33901.39
515.499	33848.14
515.701	34446.15
515.904	35136.32
516.106	35269.44
516.308	35652.41
516.51	35478.33
516.712	35631.93
516.914	36113.2
517.116	36776.74
517.318	36746.02
517.52	37305.12
517.722	37477.15
517.925	37675.8
518.127	38746.89
518.329	37882.64
518.531	38241.04
518.733	38601.48
518.935	39344.89
519.136	39377.66
519.338	39828.21
519.54	39754.49
519.742	39901.94
519.944	40463.08
520.146	41196.26
520.348	41284.32
520.55	41304.8
520.752	41482.97
520.954	42210
521.155	41589.47
521.357	42515.15
521.559	42535.63
521.761	43041.48
521.963	43416.25
522.164	43528.89
522.366	43758.27
522.568	43780.79
522.77	43885.24
522.971	44794.54
523.173	44489.39
523.375	44409.52
523.576	45169.32
523.778	44548.78
523.98	45423.26
524.181	45478.56
524.383	45462.18
524.584	46543.5
524.786	46324.37
524.988	46156.44
525.189	46983.82
525.391	46889.61
525.592	46664.33
525.794	46815.88
525.995	47135.37
526.197	47407.75
526.398	47454.85
526.6	47696.51
526.801	47872.63
527.003	48349.81
527.204	47897.21
527.406	48378.48
527.607	48198.26
527.808	48769.65
528.01	48263.8
528.211	48800.36
528.412	49527.39
528.614	49044.07
528.815	49314.4
529.016	49810.01
529.218	49289.83
529.419	49295.97
529.62	49691.23
529.822	49463.91
530.023	49365.6
530.224	49697.37
530.425	49922.65
530.626	48960.11
530.828	49304.16
531.029	50637.39
531.23	49721.95
531.431	49410.66
531.632	50211.42
531.833	50373.2
532.035	50352.72
532.236	50004.57
532.437	50381.4
532.638	49662.56
532.839	50330.2
533.04	50594.39
533.241	49910.36
533.442	50856.53
533.643	50203.22
533.844	50547.28
534.045	50154.07
534.246	50068.06
534.447	50395.73
534.648	49928.8
534.849	50467.41
535.05	49908.32
535.251	50420.31
535.451	50100.82
535.652	50608.72
535.853	50350.68
536.054	50448.98
536.255	50510.42
536.456	49648.22
536.657	50846.29
536.857	49928.8
537.058	49801.82
537.259	50358.87
537.46	50481.75
537.66	50053.72
537.861	50131.54
538.062	49912.41
538.263	50330.2
538.463	50184.79
538.664	49724
538.865	50279
539.065	50510.42
539.266	50059.87
539.466	50199.13
539.667	49080.94
539.868	50707.02
540.068	49885.79
540.269	49519.2
540.469	49789.53
540.67	50109.02
540.87	49861.21
541.071	49846.88
541.271	50125.4
541.472	50412.12
541.672	49943.13
541.873	49676.9
542.073	49361.51
542.274	50170.46
542.474	49734.24
542.675	49525.35
542.875	49588.83
543.075	49437.28
543.276	49035.88
543.476	50082.39
543.676	49521.25
543.877	50219.61
544.077	49627.74
544.277	49916.51
544.478	49418.85
544.678	49719.9
544.878	49511.01
545.078	49672.8
545.279	49164.9
545.479	49128.04
545.679	49584.74
545.879	49187.43
546.079	49592.93
546.28	49625.7
546.48	48945.77
546.68	49300.07
546.88	49541.73
547.08	49431.14
547.28	49179.24
547.48	48667.25
547.68	49623.65
547.88	49056.36
548.081	49048.17
548.281	49230.44
548.481	48853.61
548.681	48867.95
548.881	49355.36
549.081	48974.44
549.28	48900.72
549.48	49169
549.68	48863.85
549.88	49154.66
550.08	49099.37
550.28	49252.97
550.48	48579.18
550.68	49146.47
550.88	48456.31
551.08	48521.84
551.279	48609.9
551.479	48392.82
551.679	48734.83
551.879	48478.83
552.079	49066.6
552.278	48501.36
552.478	48839.28
552.678	48470.64
552.878	49146.47
553.077	48843.37
553.277	47991.42
553.477	49101.42
553.676	48716.4
553.876	48241.27
554.076	48513.65
554.275	48241.27
554.475	47798.91
554.674	48237.17
554.874	48372.34
555.074	47950.46
555.273	48493.17
555.473	48333.43
555.672	48175.73
555.872	48077.43
556.071	47667.84
556.271	48448.11
556.47	47721.09
556.67	47522.43
556.869	47897.21
557.068	48304.76
557.268	47776.38
557.467	47659.65
557.667	48120.44
557.866	47755.9
558.065	47639.17
558.265	47364.74
558.464	46951.05
558.663	47719.04
558.863	46989.96
559.062	47790.72
559.261	46799.5
559.461	47788.67
559.66	46801.55
559.859	47143.56
560.058	46901.9
560.258	47032.97
560.457	46570.13
560.656	46574.22
560.855	46602.89
561.054	47104.65
561.253	46553.74
561.453	46721.68
561.652	46836.36
561.851	47008.39
562.05	46213.78
562.249	46049.94
562.448	46387.86
562.647	46437.01
562.846	46152.34
563.045	46244.5
563.244	46228.12
563.443	46480.02
563.642	45611.68
563.841	45732.51
564.04	45865.63
564.239	46123.67
564.438	45701.79
564.637	45580.96
564.836	46086.81
565.035	45310.63
565.234	45453.98
565.432	45433.5
565.631	45075.11
565.83	45218.47
566.029	45087.4
566.228	45122.21
566.427	45193.89
566.625	45071.01
566.824	44362.42
567.023	45005.48
567.222	44063.41
567.42	44645.04
567.619	44507.82
567.818	44339.89
568.016	44305.07
568.215	44233.39
568.414	44432.05
568.612	44581.55
568.811	43741.88
569.01	43838.14
569.208	43276.99
569.407	43911.86
569.605	43451.07
569.804	43729.59
570.002	43043.52
570.201	43750.07
570.4	43133.64
570.598	43190.98
570.797	43254.47
570.995	43156.16
571.193	42873.54
571.392	42760.9
571.59	42476.24
571.789	42668.75
571.987	42394.32
572.186	42523.34
572.384	42255.06
572.582	42592.97
572.781	42625.74
572.979	41781.98
573.177	42119.89
573.376	42531.53
573.574	41675.48
573.772	41925.33
573.971	41851.61
574.169	41519.84
574.367	41407.2
574.565	41786.07
574.763	41476.83
574.962	40985.32
575.16	40891.11
575.358	40807.14
575.556	40444.65
575.754	41276.13
575.952	40801
576.151	41011.94
576.349	40545
576.547	40262.38
576.745	40450.8
576.943	40657.64
577.141	40266.48
577.339	40096.5
577.537	39445.24
577.735	39955.19
577.933	39549.69
578.131	39953.14
578.329	39731.96
578.527	39623.42
578.725	39222.01
578.923	39740.15
579.121	39219.97
579.319	39185.15
579.516	38904.58
579.714	39107.33
579.912	38701.83
580.11	38570.76
580.308	39084.8
580.506	38603.53
580.704	38021.91
580.901	38865.67
581.099	38517.51
581.297	38480.65
581.495	37976.85
581.692	38187.79
581.89	37923.6
582.088	38429.45
582.285	37645.08
582.483	38480.65
582.681	37309.21
582.878	37362.46
583.076	37348.12
583.274	37645.08
583.471	36692.77
583.669	37260.06
583.866	37141.28
584.064	37276.44
584.262	36844.32
584.459	36803.36
584.657	36412.2
584.854	37155.61
585.052	36227.88
585.249	36479.78
585.447	36363.05
585.644	35717.94
585.841	36088.62
586.039	36535.08
586.236	35601.21
586.434	35799.86
586.631	35375.93
586.828	35793.72
587.026	35533.62
587.223	35527.48
587.42	35330.87
587.618	35220.28
587.815	34818.88
588.012	34904.9
588.21	34931.52
588.407	35257.15
588.604	34806.59
588.801	34495.3
588.999	34706.24
589.196	34605.89
589.393	34308.94
589.59	34429.77
589.787	33971.02
589.984	34237.26
590.182	33766.23
590.379	33954.64
590.576	33952.59
590.773	33499.99
590.97	33162.08
591.167	33821.52
591.364	32914.27
591.561	33602.39
591.758	32928.61
591.955	32848.74
592.152	33446.74
592.349	32979.81
592.546	33338.2
592.743	32680.8
592.94	32578.4
593.137	32709.47
593.334	32435.05
593.531	32146.28
593.727	32543.59
593.924	32373.61
594.121	31832.94
594.318	32195.43
594.515	31763.31
594.712	32009.07
594.908	31656.82
595.105	32271.21
595.302	31800.18
595.499	31775.6
595.696	31378.29
595.892	31024
596.089	31118.2
596.286	31568.76
596.482	30927.74
596.679	30946.17
596.876	31095.67
597.072	30811.01
597.269	30913.41
597.466	30311.3
597.662	30450.56
597.859	30710.66
598.055	30370.69
598.252	30126.99
598.448	30155.66
598.645	30192.52
598.841	29658
599.038	29852.56
599.234	30045.07
599.431	29442.96
599.627	29569.94
599.824	29578.13
600.02	29160.34
600.217	29348.76
600.413	29631.38
600.609	29125.53
600.806	29041.56
601.002	29059.99
601.198	28957.6
601.395	28937.12
601.591	28500.9
601.787	28640.16
601.984	28720.03
602.18	28697.5
602.376	28228.52
602.572	28371.88
602.769	28365.73
602.965	28205.99
603.161	28191.66
603.357	28169.13
603.553	28083.11
603.75	28081.06
603.946	27386.8
604.142	27607.98
604.338	27534.26
604.534	28060.59
604.73	27284.4
604.926	27366.32
605.122	27411.38
605.318	27155.38
605.514	26985.4
605.71	27243.45
605.906	26964.92
606.102	26624.96
606.298	26741.69
606.494	26368.96
606.69	26491.84
606.886	26708.93
607.082	26235.84
607.278	26520.51
607.474	26057.67
607.67	26268.61
607.866	26006.47
608.062	26252.23
608.257	25680.85
608.453	26031.05
608.649	26233.8
608.845	25658.32
609.041	25912.27
609.236	25777.1
609.432	25633.74
609.628	25803.72
609.824	25340.88
610.019	25426.9
610.215	25707.47
610.411	25625.55
610.606	25238.48
610.802	25293.78
610.998	25404.37
611.193	25248.72
611.389	25146.33
611.584	25023.45
611.78	24794.08
611.976	25025.5
612.171	25031.64
612.367	24919
612.562	24650.72
612.758	24656.86
612.953	24626.14
613.149	25121.75
613.344	24968.15
613.539	25056.22
613.735	24359.91
613.93	24667.1
614.126	24458.21
614.321	24828.89
614.517	24378.34
614.712	24335.33
614.907	23989.22
615.103	24351.71
615.298	24165.35
615.493	24552.41
615.688	24019.94
615.884	24167.4
616.079	23751.66
616.274	24069.09
616.47	23806.95
616.665	23876.58
616.86	23544.81
617.055	23563.25
617.25	23452.66
617.445	24001.51
617.641	23247.86
617.836	23669.74
618.031	23073.78
618.226	23473.14
618.421	23057.4
618.616	23286.77
618.811	22971.38
619.006	23448.56
619.201	22584.32
619.396	22952.95
619.591	22668.28
619.786	23124.98
619.981	22334.46
620.176	22701.05
620.371	22379.52
620.566	22416.38
620.761	22187.01
620.956	22283.27
621.151	21730.31
621.346	21957.64
621.541	21629.96
621.735	22031.37
621.93	21457.93
622.125	21453.84
622.32	21208.08
622.515	21294.1
622.709	21201.94
622.904	21179.41
623.099	21017.62
623.294	21126.16
623.488	20782.1
623.683	20775.96
623.878	20263.97
624.072	20511.77
624.267	20313.12
624.462	20083.75
624.656	20151.33
624.851	19899.43
625.046	20266.02
625.24	19788.84
625.435	19545.13
625.629	19788.84
625.824	19565.61
626.018	19569.71
626.213	19180.59
626.407	19354.67
626.602	18867.25
626.796	19006.52
626.991	18852.92
627.185	18693.18
627.38	18472
627.574	18420.8
627.768	18474.04
627.963	18392.12
628.157	18259.01
628.352	18371.65
628.546	18060.35
628.74	18207.81
628.935	17704.01
629.129	17718.34
629.323	17376.33
629.517	17609.8
629.712	17314.89
629.906	17474.63
630.1	17077.33
630.294	17136.72
630.489	16987.22
630.683	17101.9
630.877	16768.09
631.071	16516.19
631.265	16942.16
631.459	16643.16
631.653	16598.1
631.848	16442.46
632.042	16323.68
632.236	16553.05
632.43	16139.36
632.624	16333.92
632.818	16039.01
633.012	15893.6
633.206	15811.68
633.4	15873.12
633.594	15588.46
633.788	15625.32
633.982	15602.79
634.176	15567.98
634.369	15527.02
634.563	15377.51
634.757	15369.32
634.951	15248.49
635.145	15002.74
635.339	15242.35
635.533	14943.35
635.726	14818.42
635.92	14654.58
636.114	14666.87
636.308	14746.74
636.501	14447.74
636.695	14773.36
636.889	14503.03
637.083	14414.97
637.276	14083.2
637.47	14152.83
637.664	14038.14
637.857	14072.96
638.051	13868.16
638.244	13931.65
638.438	13794.43
638.632	13747.33
638.825	13579.4
639.019	13644.93
639.212	13466.76
639.406	13520.01
639.599	13311.11
639.793	13481.1
639.986	13046.93
640.18	13071.5
640.373	13284.49
640.567	12917.9
640.76	13022.35
640.954	12940.43
641.147	12522.65
641.34	12694.68
641.534	12862.61
641.727	12612.76
641.92	12526.74
642.114	12500.12
642.307	12356.76
642.5	12410.01
642.694	12367
642.887	12319.9
643.08	12063.9
643.273	12172.44
643.467	12053.66
643.66	11873.44
643.853	11834.53
644.046	11717.79
644.239	11969.69
644.432	11566.24
644.626	11740.32
644.819	11738.27
645.012	11527.33
645.205	11269.29
645.398	11420.84
645.591	11250.86
645.784	11424.93
645.977	11109.55
646.17	10955.95
646.363	11080.88
646.556	10933.42
646.749	11158.7
646.942	11082.92
647.135	10878.13
647.328	10935.47
647.521	10876.08
647.714	10542.26
647.907	10603.7
648.099	10677.43
648.292	10742.96
648.485	10634.42
648.678	10364.09
648.871	10470.58
649.064	10116.28
649.256	10337.46
649.449	10253.5
649.642	10095.8
649.835	10028.22
650.027	10095.8
650.22	9962.69
650.413	9997.5
650.605	9909.44
650.798	9780.42
650.991	9696.45
651.183	9612.48
651.376	9483.46
651.568	9606.34
651.761	9604.29
651.954	9473.22
652.146	9475.27
652.339	9442.5
652.531	9446.6
652.724	9424.07
652.916	9112.78
653.109	9147.59
653.301	9137.35
653.494	9178.31
653.686	9120.97
653.879	9133.26
654.071	8864.97
654.263	8756.43
654.456	8971.47
654.648	8924.37
654.84	8711.38
655.033	8774.86
655.225	8678.61
655.417	8672.47
655.61	8543.44
655.802	8561.87
655.994	8662.23
656.186	8598.74
656.379	8316.12
656.571	8414.42
656.763	8500.44
656.955	8160.47
657.148	8154.33
657.34	8359.13
657.532	8154.33
657.724	8017.11
657.916	8070.36
658.108	7992.54
658.3	8060.12
658.492	7974.11
658.684	7967.96
658.876	7734.5
659.068	7826.65
659.26	7773.41
659.452	7769.31
659.644	7638.24
659.836	7701.73
660.028	7804.13
660.22	7527.65
660.412	7611.62
660.604	7398.63
660.796	7574.75
660.988	7529.7
661.18	7314.66
661.372	7412.96
661.563	7449.83
661.755	7099.62
661.947	7369.96
662.139	7322.85
662.331	7242.98
662.522	7253.22
662.714	7091.43
662.906	6870.25
663.097	6986.99
663.289	6868.2
663.481	6896.88
663.673	6864.11
663.864	6753.52
664.056	6669.55
664.247	6753.52
664.439	6679.79
664.631	6819.05
664.822	6862.06
665.014	6696.18
665.205	6624.5
665.397	6550.77
665.588	6405.36
665.78	6481.14
665.971	6661.36
666.163	6552.82
666.354	6597.87
666.546	6409.46
666.737	6444.27
666.929	6325.49
667.12	6329.59
667.311	6452.47
667.503	6243.57
667.694	6200.57
667.885	6278.39
668.077	6075.64
668.268	6159.61
668.459	6114.55
668.651	6192.37
668.842	6094.07
669.033	5919.99
669.224	5833.98
669.416	6036.73
669.607	6120.7
669.798	5848.32
669.989	5903.61
670.18	5885.18
670.371	5770.49
670.563	5868.8
670.754	5692.67
670.945	5659.9
671.136	5694.72
671.327	5635.33
671.518	5735.68
671.709	5811.45
671.9	5731.58
672.091	5600.51
672.282	5637.38
672.473	5618.94
672.664	5571.84
672.855	5487.87
673.046	5387.52
673.237	5592.32
673.428	5393.67
673.619	5371.14
673.809	5301.51
674	5217.54
674.191	5436.67
674.382	5186.82
674.573	5186.82
674.764	5229.83
674.954	5281.03
675.145	5209.35
675.336	5242.12
675.527	5106.95
675.717	5156.1
675.908	5100.81
676.099	5141.77
676.289	5164.29
676.48	5096.71
676.671	5016.84
676.861	5025.03
677.052	5149.96
677.243	5053.7
677.433	4969.74
677.624	4906.25
677.814	4986.12
678.005	4898.06
678.195	4959.5
678.386	4975.88
678.576	4855.05
678.767	5031.18
678.957	4902.15
679.148	4742.41
679.338	4910.35
679.529	4896.01
679.719	4779.28
679.909	4830.48
680.1	4781.32
680.29	4836.62
680.481	4787.47
680.671	4750.6
680.861	4621.58
681.052	4797.71
681.242	4766.99
681.432	4662.54
681.622	4515.09
681.813	4599.06
682.003	4736.27
682.193	4470.03
682.383	4683.02
682.573	4658.45
682.764	4633.87
682.954	4631.82
683.144	4576.53
683.334	4506.9
683.524	4570.38
683.714	4480.27
683.904	4390.16
684.094	4551.95
684.284	4390.16
684.474	4394.26
684.664	4375.83
684.854	4384.02
685.044	4351.25
685.234	4265.24
685.424	4275.48
685.614	4398.35
685.804	4320.53
685.994	4373.78
686.184	4224.28
686.374	4211.99
686.564	4216.08
686.753	4316.44
686.943	4103.45
687.133	4078.87
687.323	4207.89
687.513	4113.69
687.702	4177.17
687.892	4216.08
688.082	4164.89
688.272	4068.63
688.461	4166.93
688.651	3966.23
688.841	3923.23
689.03	3972.38
689.22	3986.71
689.41	3915.03
689.599	3929.37
689.789	3986.71
689.979	3900.7
690.168	3943.71
690.358	3900.7
690.547	3906.84
690.737	3906.84
690.926	3812.64
691.116	3747.1
691.305	3796.25
691.495	3829.02
691.684	3761.44
691.874	3822.87
692.063	3802.4
692.252	3654.94
692.442	3704.09
692.631	3669.28
692.82	3738.91
693.01	3507.49
693.199	3683.61
693.388	3640.61
693.578	3562.78
693.767	3685.66
693.956	3530.02
694.146	3468.58
694.335	3589.41
694.524	3419.43
694.713	3466.53
694.902	3382.56
695.092	3562.78
695.281	3515.68
695.47	3448.1
695.659	3417.38
695.848	3542.3
696.037	3530.02
696.226	3503.39
696.415	3507.49
696.604	3542.3
696.793	3460.38
696.982	3450.14
697.171	3333.41
697.36	3444
697.549	3409.19
697.738	3392.8
697.927	3337.51
698.116	3323.17
698.305	3460.38
698.494	3290.4
698.683	3335.46
698.872	3444
699.061	3247.4
699.25	3226.92
699.438	3351.84
699.627	3321.12
699.816	3376.42
700.005	3255.59
700.193	3329.31
700.382	3335.46
700.571	3386.66
700.76	3364.13
700.948	3255.59
701.137	3288.36
701.326	3333.41
701.514	3292.45
701.703	3300.64
701.892	3208.48
702.08	3284.26
702.269	3216.68
702.457	3138.85
702.646	3347.75
702.834	3179.81
703.023	3308.83
703.212	3317.03
703.4	3181.86
703.589	3224.87
703.777	3192.1
703.965	3126.57
704.154	3239.2
704.342	3171.62
704.531	3208.48
704.719	3147.05
704.907	3269.92
705.096	3153.19
705.284	3233.06
705.472	3241.25
705.661	3132.71
705.849	3185.96
706.037	3177.76
706.226	3147.05
706.414	3190.05
706.602	3167.52
706.79	3169.57
706.979	3145
707.167	3261.73
707.355	3124.52
707.543	3190.05
707.731	3190.05
707.919	3114.28
708.107	3161.38
708.296	3013.93
708.484	2952.49
708.672	3091.75
708.86	3216.68
709.048	3071.27
709.236	3220.77
709.424	3261.73
709.612	3106.09
709.8	3011.88
709.988	3056.93
710.176	3095.85
710.364	3044.65
710.551	3188
710.739	3149.09
710.927	3087.65
711.115	3157.29
711.303	3110.18
711.491	3157.29
711.679	3040.55
711.866	3036.45
712.054	3005.74
712.242	3007.78
712.43	3128.61
712.617	3157.29
712.805	3087.65
712.993	3177.76
713.181	3089.7
713.368	3050.79
713.556	2991.4
713.744	3020.07
713.931	2946.34
714.119	3015.98
714.306	2987.3
714.494	3005.74
714.682	3005.74
714.869	3048.74
715.057	2985.26
715.244	2864.43
715.432	2993.45
715.619	3067.17
715.807	2919.72
715.994	2884.91
716.182	3044.65
716.369	3061.03
716.556	2983.21
716.744	2977.06
716.931	2899.24
717.119	3118.37
717.306	2886.95
717.493	2975.02
717.681	2923.82
717.868	2934.06
718.055	2942.25
718.242	2895.15
718.43	2880.81
718.617	2975.02
718.804	2927.91
718.991	2905.38
719.179	2946.34
719.366	2989.35
719.553	2952.49
719.74	3003.69
719.927	3001.64
720.114	2999.59
720.301	2880.81
720.488	2811.18
720.676	2901.29
720.863	2886.95
721.05	2886.95
721.237	2823.47
721.424	2923.82
721.611	2907.43
721.798	2938.15
721.985	2862.38
722.172	2864.43
722.358	2745.64
722.545	2802.99
722.732	2870.57
722.919	2927.91
723.106	2770.22
723.293	2866.47
723.48	2676.01
723.667	2909.48
723.853	2788.65
724.04	2872.62
724.227	2880.81
724.414	2749.74
724.6	2772.27
724.787	2764.08
724.974	2759.98
725.161	2807.08
725.347	2792.75
725.534	2794.79
725.72	2780.46
725.907	2663.72
726.094	2796.84
726.28	2794.79
726.467	2708.78
726.653	2792.75
726.84	2839.85
727.027	2751.79
727.213	2608.43
727.4	2721.07
727.586	2716.97
727.773	2733.36
727.959	2737.45
728.145	2678.06
728.332	2741.55
728.518	2678.06
728.705	2739.5
728.891	2645.29
729.077	2719.02
729.264	2653.48
729.45	2759.98
729.636	2639.15
729.823	2665.77
730.009	2669.87
730.195	2835.75
730.382	2848.04
730.568	2751.79
730.754	2745.64
730.94	2686.25
731.126	2831.66
731.313	2657.58
731.499	2639.15
731.685	2628.91
731.871	2600.24
732.057	2622.77
732.243	2585.9
732.429	2733.36
732.615	2743.6
732.801	2557.23
732.987	2710.83
733.173	2721.07
733.359	2581.81
733.545	2559.28
733.731	2549.04
733.917	2514.22
734.103	2571.57
734.289	2688.3
734.475	2661.68
734.661	2688.3
734.847	2577.71
735.033	2624.81
735.219	2542.89
735.404	2702.64
735.59	2657.58
735.776	2479.41
735.962	2639.15
736.148	2514.22
736.333	2440.5
736.519	2422.06
736.705	2581.81
736.89	2645.29
737.076	2573.61
737.262	2456.88
737.447	2555.18
737.633	2526.51
737.819	2602.29
738.004	2475.31
738.19	2526.51
738.375	2282.8
738.561	2448.69
738.747	2479.41
738.932	2499.89
739.118	2409.78
739.303	2499.89
739.489	2475.31
739.674	2420.02
739.859	2413.87
740.045	2409.78
740.23	2295.09
740.416	2344.24
740.601	2364.72
740.786	2338.1
740.972	2352.43
741.157	2368.82
741.342	2264.37
741.528	2366.77
741.713	2360.63
741.898	2297.14
742.084	2397.49
742.269	2315.57
742.454	2329.91
742.639	2448.69
742.824	2293.04
743.01	2381.1
743.195	2452.78
743.38	2151.73
743.565	2448.69
743.75	2336.05
743.935	2151.73
744.12	2188.6
744.305	2186.55
744.49	2258.23
744.675	2084.15
744.86	2131.25
745.045	2241.84
745.23	2135.35
745.415	2221.36
745.6	2131.25
745.785	2125.11
745.97	2161.97
746.155	2071.86
746.34	2153.78
746.525	1989.94
746.71	2143.54
746.895	2024.76
747.079	2098.49
747.264	1979.7
747.449	2045.24
747.634	2073.91
747.819	2069.81
748.003	1942.84
748.188	2037.05
748.373	2004.28
748.557	1895.74
748.742	1936.7
748.927	1869.11
749.111	1842.49
749.296	1897.78
749.481	1963.32
749.665	1908.02
749.85	1893.69
750.034	1834.3
750.219	1887.54
750.404	1801.53
750.588	1717.56
750.773	1791.29
750.957	1664.32
751.141	1740.09
751.326	1752.38
751.51	1762.62
751.695	1688.89
751.879	1738.04
752.064	1799.48
752.248	1594.68
752.432	1783.1
752.617	1596.73
752.801	1713.47
752.985	1690.94
753.17	1557.82
753.354	1604.92
753.538	1566.01
753.722	1475.9
753.907	1586.49
754.091	1606.97
754.275	1629.5
754.459	1547.58
754.643	1621.31
754.828	1553.73
755.012	1471.81
755.196	1502.53
755.38	1463.62
755.564	1508.67
755.748	1459.52
755.932	1465.66
756.116	1420.61
756.3	1420.61
756.484	1377.6
756.668	1326.4
756.852	1400.13
757.036	1363.26
757.22	1420.61
757.404	1338.69
757.588	1357.12
757.772	1348.93
757.956	1303.87
758.14	1310.02
758.323	1391.94
758.507	1393.98
758.691	1267.01
758.875	1365.31
759.059	1299.78
759.242	1250.63
759.426	1307.97
759.61	1328.45
759.794	1258.82
759.977	1217.86
760.161	1338.69
760.345	1320.26
760.528	1254.72
760.712	1199.43
760.895	1230.15
761.079	1144.13
761.263	1209.67
761.446	1256.77
761.63	1125.7
761.813	1221.95
761.997	1156.42
762.18	1119.56
762.364	1162.56
762.547	1164.61
762.731	1205.57
762.914	1127.75
763.098	1074.5
763.281	1152.32
763.464	1105.22
763.648	1164.61
763.831	1070.4
764.015	1125.7
764.198	1097.03
764.381	1154.37
764.564	1152.32
764.748	1119.56
764.931	1099.08
765.114	1086.79
765.297	1103.17
765.481	1076.55
765.664	1078.6
765.847	978.25
766.03	1066.31
766.213	1092.93
766.397	1027.4
766.58	1086.79
766.763	1029.45
766.946	970.05
767.129	1021.25
767.312	1025.35
767.495	1080.64
767.678	1031.49
767.861	1035.59
768.044	986.44
768.227	959.81
768.41	994.63
768.593	998.73
768.776	996.68
768.959	980.29
769.142	1058.12
769.324	978.25
769.507	951.62
769.69	925
769.873	912.71
770.056	929.1
770.239	949.57
770.421	910.66
770.604	986.44
770.787	896.33
770.97	886.09
771.152	845.13
771.335	953.67
771.518	947.53
771.7	869.7
771.883	869.7
772.066	863.56
772.248	916.81
772.431	892.23
772.613	871.75
772.796	920.9
772.978	853.32
773.161	957.77
773.343	845.13
773.526	838.98
773.708	875.85
773.891	853.32
774.073	789.83
774.256	808.27
774.438	816.46
774.621	793.93
774.803	836.94
774.985	763.21
775.168	779.59
775.35	775.5
775.532	765.26
775.715	793.93
775.897	785.74
776.079	816.46
776.261	793.93
776.444	695.63
776.626	726.35
776.808	697.67
776.99	664.91
777.173	744.78
777.355	826.7
777.537	662.86
777.719	724.3
777.901	681.29
778.083	652.62
778.265	601.42
778.447	673.1
778.629	740.68
778.811	642.38
778.993	691.53
779.175	726.35
779.357	652.62
779.539	623.95
779.721	646.48
779.903	673.1
780.085	648.52
780.267	709.96
780.449	685.39
780.631	582.99
780.812	673.1
780.994	634.19
781.176	646.48
781.358	615.76
781.54	613.71
781.721	619.85
781.903	626
782.085	656.72
782.267	607.56
782.448	558.41
782.63	492.88
782.812	568.65
782.993	585.04
783.175	537.93
783.357	582.99
783.538	527.69
783.72	556.36
783.901	537.93
784.083	523.6
784.264	544.08
784.446	439.63
784.627	564.56
784.809	544.08
784.99	472.4
785.172	548.17
785.353	535.89
785.535	468.3
785.716	466.25
785.897	496.97
786.079	597.32
786.26	531.79
786.441	447.82
786.623	460.11
786.804	462.16
786.985	509.26
787.167	470.35
787.348	513.36
787.529	474.45
787.71	439.63
787.891	458.06
788.073	462.16
788.254	523.6
788.435	484.69
788.616	437.58
788.797	408.91
788.978	443.73
789.159	484.69
789.34	386.38
789.522	458.06
789.703	408.91
789.884	374.1
790.065	443.73
790.246	437.58
790.427	441.68
790.607	449.87
790.788	427.34
790.969	435.53
791.15	470.35
791.331	431.44
791.512	318.8
791.693	361.81
791.874	404.82
792.054	433.49
792.235	357.71
792.416	326.99
792.597	322.9
792.778	353.62
792.958	372.05
793.139	384.34
793.32	367.95
793.5	339.28
793.681	331.09
793.862	318.8
794.042	279.89
794.223	294.22
794.404	392.53
794.584	318.8
794.765	294.22
794.945	345.42
795.126	394.58
795.306	396.62
795.487	314.7
795.667	269.65
795.848	359.76
796.028	421.2
796.209	306.51
796.389	353.62
796.57	292.18
796.75	331.09
796.93	343.38
797.111	255.31
797.291	306.51
797.471	286.03
797.652	296.27
797.832	265.55
798.012	277.84
798.192	267.6
798.373	286.03
798.553	261.46
798.733	212.31
798.913	251.22
799.093	249.17
799.274	331.09
799.454	294.22
799.634	329.04
799.814	216.4
799.994	329.04
800.174	292.18
800.354	294.22
800.534	230.74
800.714	263.51
800.894	283.98
801.074	288.08
801.254	245.07
801.434	294.22
801.614	322.9
801.794	224.59
801.974	589.13
802.154	169.3
802.334	314.7
802.514	296.27
802.693	249.17
802.873	255.31
803.053	249.17
803.233	275.79
803.413	240.98
803.592	263.51
803.772	228.69
803.952	263.51
804.131	267.6
804.311	320.85
804.491	292.18
804.67	249.17
804.85	224.59
805.03	218.45
805.209	296.27
805.389	232.79
805.568	220.5
805.748	238.93
805.928	247.12
806.107	277.84
806.287	224.59
806.466	245.07
806.646	175.44
806.825	210.26
807.004	136.53
807.184	269.65
807.363	185.68
807.543	236.88
807.722	114
807.901	210.26
808.081	195.92
808.26	175.44
808.439	197.97
808.619	202.07
808.798	245.07
808.977	185.68
809.156	253.27
809.336	247.12
809.515	148.82
809.694	142.68
809.873	200.02
810.052	218.45
810.231	200.02
810.411	212.31
810.59	218.45
810.769	148.82
810.948	193.87
811.127	193.87
811.306	206.16
811.485	175.44
811.664	195.92
811.843	193.87
812.022	165.2
812.201	165.2
812.38	226.64
812.559	232.79
812.737	220.5
812.916	165.2
813.095	138.58
813.274	167.25
813.453	259.41
813.632	185.68
813.811	238.93
813.989	122.2
814.168	165.2
814.347	193.87
814.526	161.11
814.704	187.73
814.883	163.15
815.062	154.96
815.24	218.45
815.419	136.53
815.598	191.83
815.776	175.44
815.955	91.48
816.133	175.44
816.312	220.5
816.49	140.63
816.669	163.15
816.847	140.63
817.026	122.2
817.204	159.06
817.383	177.49
817.561	132.44
817.74	97.62
817.918	175.44
818.097	128.34
818.275	130.39
818.453	175.44
818.632	222.55
818.81	144.72
818.988	91.48
819.167	126.29
819.345	193.87
819.523	130.39
819.701	175.44
819.879	179.54
820.058	152.91
820.236	71
820.414	183.63
820.592	189.78
820.77	126.29
820.948	105.81
821.127	111.96
821.305	114
821.483	116.05
821.661	202.07
821.839	144.72
822.017	85.33
822.195	99.67
822.373	148.82
822.551	150.87
822.729	152.91
822.907	171.35
823.085	128.34
823.262	128.34
823.44	122.2
823.618	148.82
823.796	136.53
823.974	175.44
824.152	85.33
824.329	87.38
824.507	120.15
824.685	136.53
824.863	146.77
825.04	93.52
825.218	159.06
825.396	148.82
825.574	77.14
825.751	85.33
825.929	122.2
826.107	122.2
826.284	152.91
826.462	105.81
826.639	136.53
826.817	62.8
826.994	122.2
827.172	144.72
827.349	138.58
827.527	105.81
827.704	75.09
827.882	124.24
828.059	62.8
828.237	167.25
828.414	251.22
828.591	66.9
828.769	114
828.946	68.95
829.124	122.2
829.301	177.49
829.478	95.57
829.655	83.28
829.833	73.04
830.01	62.8
830.187	73.04
830.364	154.96
830.542	124.24
830.719	118.1
830.896	165.2
831.073	85.33
831.25	109.91
831.427	89.43
831.604	140.63
831.782	97.62
831.959	56.66
832.136	68.95
832.313	154.96
832.49	83.28
832.667	118.1
832.844	93.52
833.021	173.39
833.198	103.76
833.374	27.99
833.551	124.24
833.728	30.04
833.905	114
834.082	77.14
834.259	132.44
834.436	167.25
834.612	56.66
834.789	77.14
834.966	95.57
835.143	77.14
835.319	13.65
835.496	111.96
835.673	95.57
835.85	107.86
836.026	54.61
836.203	7.51
836.38	62.8
836.556	124.24
836.733	36.18
836.909	140.63
837.086	126.29
837.262	40.28
837.439	48.47
837.616	36.18
837.792	167.25
837.968	32.08
838.145	5.46
838.321	81.24
838.498	107.86
838.674	66.9
838.851	77.14
839.027	73.04
839.203	144.72
839.38	97.62
839.556	62.8
839.732	105.81
839.909	87.38
840.085	17.75
840.261	-8.87
840.437	93.52
840.614	7.51
840.79	134.48
840.966	142.68
841.142	73.04
841.318	62.8
841.494	95.57
841.671	52.56
841.847	34.13
842.023	-6.83
842.199	138.58
842.375	97.62
842.551	79.19
842.727	124.24
842.903	111.96
843.079	101.72
843.255	79.19
843.431	42.32
843.607	97.62
843.783	101.72
843.959	130.39
844.134	52.56
844.31	161.11
844.486	44.37
844.662	66.9
844.838	81.24
845.013	81.24
845.189	42.32
845.365	68.95
845.541	54.61
845.716	7.51
845.892	48.47
846.068	81.24
846.244	87.38
846.419	40.28
846.595	42.32
846.77	73.04
846.946	34.13
847.122	34.13
847.297	21.85
847.473	77.14
847.648	44.37
847.824	40.28
847.999	46.42
848.175	48.47
848.35	75.09
848.526	60.76
848.701	81.24
848.876	79.19
849.052	58.71
849.227	17.75
849.403	83.28
849.578	111.96
849.753	17.75
849.929	27.99
850.104	50.52
850.279	40.28
850.454	83.28
850.63	95.57
850.805	54.61
850.98	120.15
851.155	87.38
851.33	83.28
851.505	91.48
851.681	48.47
851.856	101.72
852.031	109.91
852.206	-2.73
852.381	75.09
852.556	48.47
852.731	27.99
852.906	38.23
853.081	97.62
853.256	64.85
853.431	21.85
853.606	79.19
853.781	54.61
853.956	66.9
854.131	87.38
854.305	-23.21
854.48	40.28
854.655	21.85
854.83	83.28
855.005	13.65
855.18	91.48
855.354	1.37
855.529	11.61
855.704	-2.73
855.879	95.57
856.053	52.56
856.228	-4.78
856.403	128.34
856.577	91.48
856.752	71
856.926	77.14
857.101	-43.69
857.276	52.56
857.45	75.09
857.625	32.08
857.799	118.1
857.974	103.76
858.148	-27.31
858.323	66.9
858.497	17.75
858.672	-64.17
858.846	5.46
859.02	27.99
859.195	38.23
859.369	71
859.543	75.09
859.718	17.75
859.892	-15.02
860.066	60.76
860.241	13.65
860.415	52.56
860.589	15.7
860.763	71
860.938	-23.21
861.112	89.43
861.286	38.23
861.46	81.24
861.634	44.37
861.808	54.61
861.982	93.52
862.157	13.65
862.331	7.51
862.505	79.19
862.679	-10.92
862.853	50.52
863.027	54.61
863.201	66.9
863.375	62.8
863.549	130.39
863.722	107.86
863.896	118.1
864.07	5.46
864.244	50.52
864.418	-6.83
864.592	93.52
864.766	99.67
864.939	81.24
865.113	-72.36
865.287	-0.68
865.461	93.52
865.634	32.08
865.808	-37.55
865.982	9.56
866.156	-12.97
866.329	19.8
866.503	34.13
866.676	30.04
866.85	-41.64
867.024	9.56
867.197	56.66
867.371	46.42
867.544	17.75
867.718	44.37
867.891	5.46
868.065	-31.4
868.238	64.85
868.412	93.52
868.585	-21.16
868.759	15.7
868.932	-19.11
869.105	-51.88
869.279	56.66
869.452	-4.78
869.625	13.65
869.799	79.19
869.972	-29.35
870.145	42.32
870.319	62.8
870.492	46.42
870.665	13.65
870.838	-27.31
871.011	-27.31
871.185	46.42
871.358	5.46
871.531	107.86
871.704	73.04
871.877	75.09
872.05	36.18
872.223	-0.68
872.396	87.38
872.569	101.72
872.742	27.99
872.915	97.62
873.088	62.8
873.261	46.42
873.434	109.91
873.607	48.47
873.78	-21.16
873.953	-39.59
874.126	50.52
874.299	32.08
874.471	9.56
874.644	-27.31
874.817	89.43
874.99	68.95
875.163	27.99
875.335	9.56
875.508	73.04
875.681	58.71
875.853	-2.73
876.026	46.42
876.199	62.8
876.371	83.28
876.544	48.47
876.717	136.53
876.889	-47.79
877.062	64.85
877.234	46.42
877.407	-27.31
877.579	91.48
877.752	46.42
877.924	79.19
878.097	52.56
878.269	75.09
878.442	34.13
878.614	89.43
878.786	50.52
878.959	30.04
879.131	73.04
879.303	-25.26
879.476	-21.16
879.648	66.9
879.82	93.52
879.993	5.46
880.165	-8.87
880.337	27.99
880.509	-55.98
880.681	40.28
880.854	60.76
881.026	-31.4
881.198	25.94
881.37	42.32
881.542	97.62
881.714	42.32
881.886	9.56
882.058	23.89
882.23	17.75
882.402	42.32
882.574	13.65
882.746	38.23
882.918	81.24
883.09	17.75
883.262	19.8
883.434	-35.5
883.606	9.56
883.778	52.56
883.95	5.46
884.122	-19.11
884.293	-17.07
884.465	5.46
884.637	23.89
884.809	46.42
884.98	-33.45
885.152	-12.97
885.324	73.04
885.496	1.37
885.667	17.75
885.839	7.51
886.011	-6.83
886.182	9.56
886.354	11.61
886.525	23.89
886.697	-0.68
886.869	27.99
887.04	15.7
887.212	32.08
887.383	71
887.555	116.05
887.726	13.65
887.897	19.8
888.069	-12.97
888.24	50.52
888.412	60.76
888.583	23.89
888.754	23.89
888.926	15.7
889.097	42.32
889.268	-35.5
889.44	52.56
889.611	-88.75
889.782	-64.17
889.953	-17.07
890.125	25.94
890.296	1.37
890.467	-17.07
890.638	1.37
890.809	9.56
890.98	1.37
891.151	75.09
891.323	52.56
891.494	46.42
891.665	38.23
891.836	105.81
892.007	36.18
892.178	54.61
892.349	13.65
892.52	-17.07
892.691	5.46
892.862	13.65
893.032	36.18
893.203	48.47
893.374	34.13
893.545	111.96
893.716	44.37
893.887	34.13
894.057	34.13
894.228	79.19
894.399	1.37
894.57	32.08
894.74	30.04
894.911	11.61
895.082	-21.16
895.253	9.56
895.423	-15.02
895.594	109.91
895.764	-0.68
895.935	42.32
896.106	-27.31
896.276	48.47
896.447	46.42
896.617	7.51
896.788	7.51
896.958	30.04
897.129	50.52
897.299	40.28
897.47	89.43
897.64	124.24
897.81	-10.92
897.981	36.18
898.151	46.42
898.322	23.89
898.492	-21.16
898.662	71
898.832	38.23
899.003	5.46
899.173	-45.74
899.343	7.51
899.513	-23.21
