Data from USB4F104151__97__12-02-40-463.txt Node

Date: Fri Mar 14 12:02:40 EDT 2025
User: louis
Spectrometer: USB4F10415
Trigger mode: 4
Integration Time (sec): 2.000000E-2
Scans to average: 1
Electric dark correction enabled: true
Nonlinearity correction enabled: false
Boxcar width: 0
XAxis mode: Wavelengths
Number of Pixels in Spectrum: 3648
>>>>>Begin Spectral Data<<<<<
178.204	-59.73
178.424	-59.73
178.644	-59.73
178.864	-53.59
179.084	-100.69
179.304	9.9
179.524	1.71
179.744	28.33
179.964	5.8
180.184	20.14
180.404	-37.2
180.624	20.14
180.844	-39.25
181.064	-22.87
181.283	40.62
181.503	-0.34
181.723	-26.96
181.943	-37.2
182.163	24.23
182.383	-16.73
182.602	114.34
182.822	71.34
183.042	24.23
183.262	11.95
183.482	20.14
183.701	-33.11
183.921	-2.39
184.141	-57.68
184.361	69.29
184.58	24.23
184.8	-43.35
185.02	-29.01
185.239	91.82
185.459	-6.49
185.679	-0.34
185.898	87.72
186.118	102.06
186.338	5.8
186.557	34.47
186.777	-6.49
186.997	3.75
187.216	-43.35
187.436	50.86
187.655	108.2
187.875	-4.44
188.095	-4.44
188.314	30.38
188.534	24.23
188.753	-26.96
188.973	-35.16
189.192	-2.39
189.412	81.58
189.631	38.57
189.851	40.62
190.07	75.43
190.29	34.47
190.509	7.85
190.729	36.52
190.948	61.1
191.168	22.19
191.387	71.34
191.607	11.95
191.826	85.67
192.045	-18.77
192.265	18.09
192.484	38.57
192.704	44.71
192.923	26.28
193.142	85.67
193.362	67.24
193.581	79.53
193.8	-14.68
194.02	79.53
194.239	24.23
194.458	42.67
194.678	20.14
194.897	57
195.116	-2.39
195.335	42.67
195.555	44.71
195.774	-31.06
195.993	30.38
196.212	67.24
196.432	26.28
196.651	73.39
196.87	-0.34
197.089	93.87
197.308	71.34
197.528	42.67
197.747	-10.58
197.966	11.95
198.185	108.2
198.404	73.39
198.623	-16.73
198.842	44.71
199.062	1.71
199.281	30.38
199.5	-18.77
199.719	32.43
199.938	20.14
200.157	38.57
200.376	26.28
200.595	71.34
200.814	-6.49
201.033	61.1
201.252	-8.53
201.471	11.95
201.69	-8.53
201.909	30.38
202.128	44.71
202.347	-37.2
202.566	52.91
202.785	16.04
203.004	30.38
203.223	79.53
203.442	9.9
203.661	34.47
203.879	18.09
204.098	40.62
204.317	-29.01
204.536	11.95
204.755	24.23
204.974	16.04
205.193	30.38
205.411	-31.06
205.63	-10.58
205.849	-29.01
206.068	-59.73
206.287	-22.87
206.505	40.62
206.724	1.71
206.943	-22.87
207.162	-14.68
207.381	3.75
207.599	22.19
207.818	-2.39
208.037	26.28
208.255	-61.78
208.474	34.47
208.693	11.95
208.911	48.81
209.13	18.09
209.349	52.91
209.567	18.09
209.786	-31.06
210.005	42.67
210.223	24.23
210.442	-45.4
210.661	54.95
210.879	-6.49
211.098	-0.34
211.316	48.81
211.535	13.99
211.753	57
211.972	5.8
212.191	11.95
212.409	24.23
212.628	-20.82
212.846	46.76
213.065	20.14
213.283	91.82
213.502	-2.39
213.72	48.81
213.938	20.14
214.157	18.09
214.375	-4.44
214.594	26.28
214.812	63.15
215.031	22.19
215.249	7.85
215.467	-14.68
215.686	3.75
215.904	95.91
216.122	42.67
216.341	54.95
216.559	95.91
216.778	61.1
216.996	24.23
217.214	63.15
217.432	-0.34
217.651	-24.92
217.869	-6.49
218.087	-45.4
218.306	-82.26
218.524	81.58
218.742	65.19
218.96	-14.68
219.179	11.95
219.397	48.81
219.615	-0.34
219.833	65.19
220.051	-51.54
220.27	5.8
220.488	20.14
220.706	46.76
220.924	30.38
221.142	38.57
221.36	-43.35
221.578	71.34
221.796	-6.49
222.015	81.58
222.233	-24.92
222.451	69.29
222.669	-20.82
222.887	22.19
223.105	-51.54
223.323	30.38
223.541	32.43
223.759	63.15
223.977	3.75
224.195	13.99
224.413	57
224.631	44.71
224.849	1.71
225.067	89.77
225.285	32.43
225.503	100.01
225.721	-65.88
225.939	1.71
226.157	9.9
226.375	124.58
226.592	-33.11
226.81	13.99
227.028	93.87
227.246	30.38
227.464	71.34
227.682	34.47
227.9	22.19
228.117	20.14
228.335	-4.44
228.553	-8.53
228.771	24.23
228.989	61.1
229.206	11.95
229.424	-22.87
229.642	46.76
229.86	11.95
230.077	67.24
230.295	20.14
230.513	34.47
230.731	50.86
230.948	3.75
231.166	54.95
231.384	-16.73
231.601	26.28
231.819	79.53
232.037	-22.87
232.254	24.23
232.472	32.43
232.689	28.33
232.907	69.29
233.125	-14.68
233.342	40.62
233.56	24.23
233.777	54.95
233.995	24.23
234.213	11.95
234.43	100.01
234.648	-31.06
234.865	57
235.083	59.05
235.3	83.63
235.518	9.9
235.735	34.47
235.953	5.8
236.17	7.85
236.388	-22.87
236.605	18.09
236.822	61.1
237.04	-47.44
237.257	-72.02
237.475	-33.11
237.692	38.57
237.909	-2.39
238.127	5.8
238.344	16.04
238.562	-31.06
238.779	32.43
238.996	18.09
239.214	-43.35
239.431	97.96
239.648	-10.58
239.865	46.76
240.083	54.95
240.3	54.95
240.517	-31.06
240.735	-6.49
240.952	18.09
241.169	57
241.386	38.57
241.603	34.47
241.821	36.52
242.038	40.62
242.255	34.47
242.472	34.47
242.689	65.19
242.907	118.44
243.124	-6.49
243.341	-14.68
243.558	-37.2
243.775	81.58
243.992	40.62
244.209	85.67
244.426	52.91
244.643	-26.96
244.86	32.43
245.078	50.86
245.295	1.71
245.512	-57.68
245.729	-26.96
245.946	-8.53
246.163	-18.77
246.38	36.52
246.597	-18.77
246.814	28.33
247.031	100.01
247.248	48.81
247.464	59.05
247.681	59.05
247.898	38.57
248.115	63.15
248.332	-14.68
248.549	114.34
248.766	93.87
248.983	85.67
249.2	-2.39
249.417	100.01
249.633	-31.06
249.85	-8.53
250.067	-8.53
250.284	11.95
250.501	73.39
250.717	100.01
250.934	22.19
251.151	81.58
251.368	24.23
251.585	-31.06
251.801	40.62
252.018	40.62
252.235	61.1
252.451	3.75
252.668	-4.44
252.885	71.34
253.102	26.28
253.318	24.23
253.535	-0.34
253.752	87.72
253.968	16.04
254.185	5.8
254.401	50.86
254.618	-33.11
254.835	9.9
255.051	69.29
255.268	57
255.484	28.33
255.701	26.28
255.917	59.05
256.134	93.87
256.351	26.28
256.567	-4.44
256.784	93.87
257	67.24
257.217	28.33
257.433	65.19
257.65	5.8
257.866	16.04
258.082	5.8
258.299	30.38
258.515	-2.39
258.732	54.95
258.948	-4.44
259.165	57
259.381	-2.39
259.597	-37.2
259.814	11.95
260.03	-4.44
260.246	-2.39
260.463	-8.53
260.679	77.48
260.895	24.23
261.112	50.86
261.328	5.8
261.544	16.04
261.761	63.15
261.977	-29.01
262.193	-0.34
262.409	52.91
262.626	114.34
262.842	44.71
263.058	-31.06
263.274	61.1
263.49	-12.63
263.707	81.58
263.923	38.57
264.139	69.29
264.355	81.58
264.571	63.15
264.787	79.53
265.004	-4.44
265.22	-43.35
265.436	9.9
265.652	59.05
265.868	9.9
266.084	54.95
266.3	24.23
266.516	16.04
266.732	9.9
266.948	42.67
267.164	38.57
267.38	42.67
267.596	50.86
267.812	77.48
268.028	11.95
268.244	-20.82
268.46	36.52
268.676	5.8
268.892	28.33
269.108	13.99
269.324	-12.63
269.54	61.1
269.756	46.76
269.972	38.57
270.188	9.9
270.403	36.52
270.619	95.91
270.835	-16.73
271.051	18.09
271.267	63.15
271.483	40.62
271.698	-12.63
271.914	63.15
272.13	-22.87
272.346	79.53
272.562	-39.25
272.777	65.19
272.993	63.15
273.209	18.09
273.425	38.57
273.64	42.67
273.856	40.62
274.072	-22.87
274.287	1.71
274.503	30.38
274.719	54.95
274.934	-6.49
275.15	-51.54
275.366	59.05
275.581	59.05
275.797	-8.53
276.012	46.76
276.228	-24.92
276.444	93.87
276.659	36.52
276.875	59.05
277.09	5.8
277.306	59.05
277.521	16.04
277.737	30.38
277.952	110.25
278.168	-10.58
278.383	22.19
278.599	7.85
278.814	46.76
279.03	65.19
279.245	18.09
279.461	87.72
279.676	67.24
279.892	11.95
280.107	9.9
280.322	85.67
280.538	63.15
280.753	48.81
280.969	13.99
281.184	-8.53
281.399	42.67
281.615	59.05
281.83	87.72
282.045	22.19
282.26	81.58
282.476	5.8
282.691	50.86
282.906	79.53
283.122	57
283.337	-22.87
283.552	57
283.767	20.14
283.983	106.15
284.198	32.43
284.413	118.44
284.628	16.04
284.843	71.34
285.058	91.82
285.274	5.8
285.489	22.19
285.704	108.2
285.919	34.47
286.134	140.97
286.349	91.82
286.564	-37.2
286.779	54.95
286.995	7.85
287.21	63.15
287.425	-37.2
287.64	-4.44
287.855	36.52
288.07	-26.96
288.285	28.33
288.5	46.76
288.715	95.91
288.93	71.34
289.145	36.52
289.36	42.67
289.575	-4.44
289.79	85.67
290.004	3.75
290.219	-12.63
290.434	3.75
290.649	3.75
290.864	97.96
291.079	57
291.294	30.38
291.509	-4.44
291.724	18.09
291.938	38.57
292.153	100.01
292.368	-8.53
292.583	26.28
292.798	20.14
293.012	52.91
293.227	-18.77
293.442	1.71
293.657	1.71
293.871	48.81
294.086	-4.44
294.301	28.33
294.516	67.24
294.73	3.75
294.945	-74.07
295.16	3.75
295.374	100.01
295.589	69.29
295.804	79.53
296.018	44.71
296.233	69.29
296.447	97.96
296.662	22.19
296.877	46.76
297.091	-24.92
297.306	-2.39
297.52	75.43
297.735	11.95
297.949	67.24
298.164	3.75
298.378	34.47
298.593	30.38
298.807	20.14
299.022	54.95
299.236	65.19
299.451	20.14
299.665	7.85
299.88	24.23
300.094	59.05
300.309	83.63
300.523	61.1
300.737	9.9
300.952	40.62
301.166	91.82
301.381	30.38
301.595	65.19
301.809	93.87
302.024	-18.77
302.238	18.09
302.452	85.67
302.667	-14.68
302.881	104.11
303.095	-4.44
303.309	-12.63
303.524	-18.77
303.738	38.57
303.952	83.63
304.166	79.53
304.381	36.52
304.595	36.52
304.809	-16.73
305.023	9.9
305.237	28.33
305.452	57
305.666	3.75
305.88	38.57
306.094	-16.73
306.308	77.48
306.522	130.73
306.736	1.71
306.95	44.71
307.164	-18.77
307.379	69.29
307.593	3.75
307.807	102.06
308.021	-18.77
308.235	-26.96
308.449	52.91
308.663	-6.49
308.877	22.19
309.091	30.38
309.305	77.48
309.519	-18.77
309.733	20.14
309.947	-76.12
310.161	57
310.374	52.91
310.588	83.63
310.802	11.95
311.016	22.19
311.23	77.48
311.444	-12.63
311.658	20.14
311.872	65.19
312.085	52.91
312.299	44.71
312.513	42.67
312.727	38.57
312.941	38.57
313.154	57
313.368	95.91
313.582	28.33
313.796	52.91
314.009	28.33
314.223	9.9
314.437	108.2
314.651	-18.77
314.864	65.19
315.078	28.33
315.292	18.09
315.505	65.19
315.719	-10.58
315.933	59.05
316.146	5.8
316.36	-35.16
316.573	102.06
316.787	85.67
317.001	102.06
317.214	40.62
317.428	85.67
317.641	30.38
317.855	18.09
318.068	13.99
318.282	-69.97
318.495	57
318.709	69.29
318.922	5.8
319.136	95.91
319.349	100.01
319.563	34.47
319.776	91.82
319.99	-29.01
320.203	16.04
320.417	73.39
320.63	28.33
320.843	100.01
321.057	30.38
321.27	30.38
321.483	-0.34
321.697	18.09
321.91	-29.01
322.124	81.58
322.337	67.24
322.55	11.95
322.763	52.91
322.977	52.91
323.19	-18.77
323.403	-10.58
323.617	46.76
323.83	13.99
324.043	65.19
324.256	38.57
324.469	11.95
324.683	30.38
324.896	18.09
325.109	48.81
325.322	-41.3
325.535	-8.53
325.748	59.05
325.962	-41.3
326.175	46.76
326.388	67.24
326.601	-2.39
326.814	89.77
327.027	3.75
327.24	95.91
327.453	-4.44
327.666	85.67
327.879	57
328.092	28.33
328.305	36.52
328.518	106.15
328.731	18.09
328.944	44.71
329.157	20.14
329.37	32.43
329.583	87.72
329.796	69.29
330.009	-6.49
330.222	77.48
330.435	52.91
330.648	87.72
330.861	36.52
331.073	28.33
331.286	30.38
331.499	36.52
331.712	30.38
331.925	87.72
332.138	18.09
332.35	34.47
332.563	61.1
332.776	5.8
332.989	13.99
333.202	71.34
333.414	24.23
333.627	-2.39
333.84	79.53
334.053	44.71
334.265	30.38
334.478	-18.77
334.691	-29.01
334.903	16.04
335.116	9.9
335.329	-35.16
335.541	36.52
335.754	124.58
335.966	69.29
336.179	69.29
336.392	-20.82
336.604	95.91
336.817	9.9
337.029	3.75
337.242	67.24
337.454	11.95
337.667	122.54
337.88	59.05
338.092	165.54
338.305	57
338.517	63.15
338.729	63.15
338.942	110.25
339.154	30.38
339.367	-24.92
339.579	73.39
339.792	-51.54
340.004	63.15
340.217	5.8
340.429	-12.63
340.641	-26.96
340.854	22.19
341.066	-14.68
341.278	69.29
341.491	118.44
341.703	75.43
341.915	89.77
342.128	46.76
342.34	54.95
342.552	108.2
342.764	65.19
342.977	63.15
343.189	79.53
343.401	69.29
343.613	38.57
343.826	112.3
344.038	65.19
344.25	71.34
344.462	-43.35
344.674	32.43
344.886	34.47
345.099	77.48
345.311	24.23
345.523	30.38
345.735	52.91
345.947	-20.82
346.159	57
346.371	81.58
346.583	34.47
346.795	93.87
347.007	3.75
347.219	9.9
347.431	40.62
347.643	44.71
347.855	50.86
348.067	52.91
348.279	11.95
348.491	54.95
348.703	32.43
348.915	-8.53
349.127	-20.82
349.339	65.19
349.551	1.71
349.763	63.15
349.975	38.57
350.187	34.47
350.399	89.77
350.61	-14.68
350.822	30.38
351.034	40.62
351.246	91.82
351.458	61.1
351.669	5.8
351.881	85.67
352.093	65.19
352.305	46.76
352.517	67.24
352.728	140.97
352.94	36.52
353.152	44.71
353.363	73.39
353.575	85.67
353.787	65.19
353.999	26.28
354.21	42.67
354.422	-10.58
354.633	16.04
354.845	38.57
355.057	-16.73
355.268	22.19
355.48	32.43
355.692	-41.3
355.903	40.62
356.115	38.57
356.326	-43.35
356.538	18.09
356.749	20.14
356.961	73.39
357.172	28.33
357.384	52.91
357.595	102.06
357.807	32.43
358.018	18.09
358.23	40.62
358.441	32.43
358.653	48.81
358.864	-18.77
359.075	136.87
359.287	11.95
359.498	118.44
359.709	24.23
359.921	71.34
360.132	52.91
360.344	3.75
360.555	24.23
360.766	3.75
360.977	18.09
361.189	65.19
361.4	16.04
361.611	140.97
361.823	145.06
362.034	52.91
362.245	32.43
362.456	34.47
362.667	67.24
362.879	57
363.09	22.19
363.301	50.86
363.512	149.16
363.723	7.85
363.935	91.82
364.146	36.52
364.357	71.34
364.568	136.87
364.779	50.86
364.99	116.39
365.201	18.09
365.412	91.82
365.623	18.09
365.834	-0.34
366.045	11.95
366.256	100.01
366.467	11.95
366.678	30.38
366.889	44.71
367.1	-24.92
367.311	87.72
367.522	28.33
367.733	11.95
367.944	110.25
368.155	67.24
368.366	38.57
368.577	130.73
368.788	116.39
368.999	75.43
369.209	50.86
369.42	38.57
369.631	93.87
369.842	38.57
370.053	63.15
370.264	71.34
370.474	-47.44
370.685	30.38
370.896	95.91
371.107	32.43
371.317	34.47
371.528	59.05
371.739	40.62
371.95	116.39
372.16	7.85
372.371	11.95
372.582	44.71
372.792	57
373.003	85.67
373.214	71.34
373.424	110.25
373.635	11.95
373.846	67.24
374.056	-22.87
374.267	97.96
374.477	79.53
374.688	48.81
374.898	73.39
375.109	11.95
375.319	102.06
375.53	42.67
375.74	34.47
375.951	9.9
376.161	-12.63
376.372	11.95
376.582	130.73
376.793	71.34
377.003	40.62
377.214	5.8
377.424	69.29
377.635	9.9
377.845	106.15
378.055	100.01
378.266	97.96
378.476	24.23
378.686	73.39
378.897	108.2
379.107	97.96
379.317	104.11
379.528	-14.68
379.738	54.95
379.948	36.52
380.158	38.57
380.369	79.53
380.579	28.33
380.789	3.75
380.999	77.48
381.21	30.38
381.42	106.15
381.63	38.57
381.84	30.38
382.05	36.52
382.261	87.72
382.471	87.72
382.681	3.75
382.891	-8.53
383.101	81.58
383.311	16.04
383.521	3.75
383.731	100.01
383.941	75.43
384.151	48.81
384.361	38.57
384.571	-16.73
384.781	18.09
384.991	130.73
385.201	95.91
385.411	89.77
385.621	50.86
385.831	54.95
386.041	22.19
386.251	75.43
386.461	93.87
386.671	122.54
386.881	77.48
387.091	44.71
387.301	-8.53
387.511	-53.59
387.72	54.95
387.93	22.19
388.14	16.04
388.35	52.91
388.56	108.2
388.769	89.77
388.979	77.48
389.189	-22.87
389.399	91.82
389.609	46.76
389.818	42.67
390.028	40.62
390.238	24.23
390.447	59.05
390.657	138.92
390.867	-2.39
391.076	20.14
391.286	93.87
391.496	61.1
391.705	38.57
391.915	71.34
392.125	118.44
392.334	130.73
392.544	124.58
392.753	63.15
392.963	59.05
393.172	36.52
393.382	22.19
393.591	165.54
393.801	54.95
394.01	79.53
394.22	79.53
394.429	63.15
394.639	69.29
394.848	71.34
395.058	71.34
395.267	59.05
395.477	93.87
395.686	32.43
395.895	149.16
396.105	116.39
396.314	57
396.524	124.58
396.733	61.1
396.942	128.68
397.152	132.78
397.361	163.5
397.57	50.86
397.78	91.82
397.989	108.2
398.198	128.68
398.407	22.19
398.617	136.87
398.826	126.63
399.035	102.06
399.244	136.87
399.453	61.1
399.663	128.68
399.872	95.91
400.081	97.96
400.29	91.82
400.499	114.34
400.708	93.87
400.917	112.3
401.127	59.05
401.336	77.48
401.545	169.64
401.754	196.26
401.963	83.63
402.172	102.06
402.381	1.71
402.59	91.82
402.799	91.82
403.008	128.68
403.217	161.45
403.426	165.54
403.635	79.53
403.844	95.91
404.053	179.88
404.262	124.58
404.471	229.03
404.68	61.1
404.888	71.34
405.097	91.82
405.306	169.64
405.515	159.4
405.724	140.97
405.933	233.13
406.142	157.35
406.35	200.36
406.559	204.46
406.768	138.92
406.977	247.46
407.185	163.5
407.394	159.4
407.603	243.37
407.812	204.46
408.02	179.88
408.229	222.89
408.438	226.98
408.646	188.07
408.855	257.7
409.064	251.56
409.272	257.7
409.481	151.21
409.69	257.7
409.898	235.18
410.107	247.46
410.315	356.01
410.524	253.61
410.733	341.67
410.941	392.87
411.15	319.14
411.358	339.62
411.567	388.77
411.775	392.87
411.984	378.53
412.192	431.78
412.401	415.4
412.609	439.97
412.818	482.98
413.026	489.12
413.234	407.2
413.443	568.99
413.651	562.85
413.86	497.32
414.068	587.43
414.276	607.91
414.485	571.04
414.693	556.71
414.901	659.1
415.11	667.3
415.318	593.57
415.526	716.45
415.734	714.4
415.943	724.64
416.151	765.6
416.359	788.13
416.567	751.26
416.776	863.9
416.984	827.04
417.192	888.48
417.4	968.35
417.608	800.41
417.817	935.58
418.025	1062.55
418.233	1070.75
418.441	1070.75
418.649	1128.09
418.857	1160.86
419.065	1205.91
419.273	1160.86
419.481	1253.02
419.689	1265.3
419.897	1345.17
420.105	1365.65
420.313	1386.13
420.521	1533.59
420.729	1455.76
420.937	1613.46
421.145	1611.41
421.353	1631.89
421.561	1789.58
421.769	1922.7
421.977	1875.6
422.185	1908.37
422.393	1947.28
422.601	2158.22
422.809	2178.7
423.017	2162.31
423.224	2350.73
423.432	2324.1
423.64	2324.1
423.848	2625.15
424.056	2473.6
424.263	2616.96
424.471	2641.54
424.679	2680.45
424.887	2827.9
425.094	2918.01
425.302	2963.07
425.51	3118.72
425.718	3139.19
425.925	3255.93
426.133	3331.7
426.341	3378.81
426.548	3673.71
426.756	3659.38
426.964	3620.47
427.171	3962.48
427.379	4064.88
427.586	4058.73
427.794	4130.41
428.001	4306.54
428.209	4597.35
428.417	4464.23
428.624	4871.78
428.832	4812.39
429.039	4767.33
429.247	4800.1
429.454	5199.45
429.662	5766.74
429.869	5379.67
430.076	5578.33
430.284	5498.45
430.491	5789.27
430.699	6121.04
430.906	5951.06
431.114	6067.79
431.321	6219.34
431.528	6352.46
431.736	6880.83
431.943	7138.88
432.15	6923.84
432.358	7040.58
432.565	7601.72
432.772	7480.89
432.979	7755.32
433.187	7917.11
433.394	8027.7
433.601	8306.22
433.808	8406.57
434.016	8343.08
434.223	8822.31
434.43	9340.44
434.637	9201.18
434.844	9834
435.052	9909.78
435.259	9870.87
435.466	9997.84
435.673	9641.5
435.88	10610.18
436.087	10905.09
436.294	10821.13
436.501	10868.23
436.708	11101.7
436.915	11365.89
437.122	11988.47
437.329	11783.67
437.537	12258.8
437.743	12520.94
437.95	12572.14
438.157	12862.95
438.364	13460.96
438.571	13460.96
438.778	13393.37
438.985	14679.5
439.192	14161.36
439.399	14630.35
439.606	14339.54
439.813	14894.54
440.02	15855.03
440.227	15656.38
440.433	15482.3
440.64	16123.32
440.847	16096.69
441.054	16399.79
441.261	17386.91
441.467	17132.97
441.674	17692.06
441.881	18027.93
442.088	17909.15
442.294	17997.21
442.501	18378.13
442.708	18802.06
442.914	19473.79
443.121	20528.5
443.328	19879.29
443.534	21179.75
443.741	20698.48
443.948	20432.24
444.154	21818.72
444.361	21994.84
444.568	21923.16
444.774	21953.88
444.981	22072.67
445.187	22861.13
445.394	23471.43
445.6	23512.39
445.807	25693.47
446.013	24495.41
446.22	25054.51
446.426	26162.46
446.633	26219.8
446.839	26967.31
447.046	25824.54
447.252	27518.21
447.459	27421.96
447.665	27323.66
447.871	28626.17
448.078	29828.32
448.284	28499.19
448.491	29267.18
448.697	30319.84
448.903	31048.91
449.11	31036.63
449.316	30129.37
449.522	30868.69
449.728	31999.17
449.935	32261.31
450.141	31573.19
450.347	32918.71
450.553	31745.22
450.76	32070.85
450.966	33324.21
451.172	32629.94
451.378	33238.19
451.584	33246.38
451.791	33758.38
451.997	33909.93
452.203	34198.69
452.409	34368.67
452.615	34073.76
452.821	32298.17
453.027	32310.46
453.233	33782.95
453.44	32515.26
453.646	33103.03
453.852	33365.17
454.058	33369.26
454.264	32386.24
454.47	33252.53
454.676	32412.86
454.882	33582.25
455.088	30612.7
455.294	31360.2
455.5	31579.34
455.705	31970.5
455.911	30592.22
456.117	29961.44
456.323	29832.42
456.529	27835.65
456.735	29187.31
456.941	28529.91
457.147	27684.1
457.352	26903.82
457.558	26983.69
457.764	26535.19
457.97	26084.64
458.176	25842.98
458.381	25687.33
458.587	24458.55
458.793	24274.23
458.999	23348.55
459.204	24999.21
459.41	24067.39
459.616	22801.74
459.821	22777.17
460.027	22418.77
460.233	22123.87
460.438	21024.11
460.644	21325.16
460.85	20186.49
461.055	19793.28
461.261	19643.77
461.466	18625.93
461.672	17835.42
461.878	19129.73
462.083	17925.53
462.289	17628.57
462.494	17239.46
462.7	16584.11
462.905	16385.46
463.111	16872.87
463.316	16772.52
463.522	16217.52
463.727	16450.99
463.932	16330.16
464.138	16072.12
464.343	16008.63
464.549	15668.67
464.754	16125.36
464.959	16031.16
465.165	15957.43
465.37	15406.53
465.575	15044.04
465.781	15549.89
465.986	15582.65
466.191	15177.16
466.397	14761.42
466.602	14061.01
466.807	14636.49
467.012	14724.55
467.218	14331.34
467.423	14319.06
467.628	14595.53
467.833	14788.04
468.038	14319.06
468.244	14202.32
468.449	14595.53
468.654	14114.26
468.859	14067.16
469.064	13784.54
469.269	13243.87
469.474	13667.8
469.679	13825.5
469.885	13534.68
470.09	13606.36
470.295	13516.25
470.5	13116.9
470.705	13190.63
470.91	13106.66
471.115	12934.63
471.32	13180.39
471.525	12709.35
471.73	12484.08
471.935	12703.21
472.139	12168.69
472.344	12254.7
472.549	12266.99
472.754	12023.28
472.959	11898.36
473.164	11519.48
473.369	11568.63
473.574	11867.64
473.778	11707.9
473.983	11654.65
474.188	11304.45
474.393	11208.19
474.598	11177.47
474.802	10931.72
475.007	10878.47
475.212	10804.74
475.417	10364.43
475.621	10378.76
475.826	10542.6
476.031	10153.49
476.235	10143.25
476.44	10432.01
476.645	10030.61
476.849	10214.93
477.054	9791
477.259	9598.49
477.463	9870.87
477.668	9371.16
477.872	9739.8
478.077	9481.75
478.282	9379.36
478.486	9293.34
478.691	9266.72
478.895	9158.17
479.1	9031.2
479.304	9051.68
479.509	8746.53
479.713	9092.64
479.918	8783.4
480.122	8619.56
480.326	8750.63
480.531	8666.66
480.735	8666.66
480.94	8662.57
481.144	9025.06
481.348	8324.65
481.553	8611.37
481.757	8351.28
481.961	8547.88
482.166	8623.66
482.37	8646.18
482.574	8375.85
482.778	8363.56
482.983	8574.5
483.187	8357.42
483.391	8564.26
483.595	8328.75
483.8	8461.87
484.004	8386.09
484.208	8336.94
484.412	8427.05
484.616	8543.78
484.821	8445.48
485.025	8394.28
485.229	8443.43
485.433	8361.52
485.637	8418.86
485.841	8361.52
486.045	8222.25
486.249	8470.06
486.453	8361.52
486.657	8377.9
486.861	8517.16
487.065	8169.01
487.269	8570.41
487.473	8252.97
487.677	8445.48
487.881	8588.84
488.085	8586.79
488.289	8539.69
488.493	8480.3
488.697	8607.27
488.901	8312.36
489.105	8531.5
489.309	8623.66
489.512	8578.6
489.716	8515.11
489.92	8523.3
490.124	8484.39
490.328	8513.06
490.531	8668.71
490.735	8697.38
490.939	8633.89
491.143	8580.65
491.346	8670.76
491.55	8803.88
491.754	8791.59
491.958	8928.8
492.161	8861.22
492.365	8844.84
492.569	8980
492.772	8865.32
492.976	8822.31
493.18	9000.48
493.383	9219.61
493.587	9178.65
493.79	9326.11
493.994	8959.52
494.197	9358.88
494.401	9254.43
494.605	9309.72
494.808	9455.13
495.012	9555.48
495.215	9600.54
495.419	9600.54
495.622	9479.71
495.825	9780.76
496.029	9819.67
496.232	9797.14
496.436	9969.17
496.639	10315.28
496.843	10069.52
497.046	10272.27
497.249	10348.04
497.453	10565.13
497.656	10669.58
497.859	10622.47
498.063	10632.71
498.266	10860.04
498.469	11001.35
498.673	11032.07
498.876	11310.59
499.079	11419.13
499.282	11322.88
499.485	11529.72
499.689	11724.28
499.892	11769.34
500.095	11812.34
500.298	12129.78
500.501	12035.57
500.705	12359.15
500.908	12422.64
501.111	12410.35
501.314	12609
501.517	12699.11
501.72	13151.71
501.923	12979.68
502.126	13100.51
502.329	13444.57
502.532	13481.44
502.735	13346.27
502.938	13755.86
503.141	13811.16
503.344	14093.78
503.547	14181.84
503.75	14310.86
503.953	14624.2
504.156	14910.92
504.359	14708.17
504.562	14585.29
504.765	14984.65
504.968	15085
505.17	15363.52
505.373	15455.68
505.576	15850.94
505.779	15850.94
505.982	15883.7
506.185	16317.87
506.387	16520.62
506.59	16432.56
506.793	16709.04
506.996	16831.91
507.198	17079.72
507.401	16793
507.604	17372.58
507.807	17565.09
508.009	17888.67
508.212	17956.25
508.415	18148.76
508.617	18181.53
508.82	18191.77
509.022	18347.41
509.225	18730.38
509.428	19013
509.63	18879.88
509.833	19113.35
510.035	19494.27
510.238	19352.96
510.44	19785.08
510.643	19858.81
510.845	20133.24
511.048	20192.63
511.25	20180.34
511.453	20352.37
511.655	21093.74
511.858	21011.82
512.06	21255.53
512.262	21355.88
512.465	21468.52
512.667	21542.24
512.87	21937.5
513.072	22160.73
513.274	22408.53
513.477	22785.36
513.679	22732.11
513.881	23205.19
514.084	23201.1
514.286	23117.13
514.488	23354.69
514.69	23919.93
514.893	24212.79
515.095	24134.97
515.297	24495.41
515.499	24472.89
515.701	24364.34
515.904	24790.32
516.106	24812.85
516.308	25247.02
516.51	25818.4
516.712	25685.28
516.914	25765.15
517.116	26350.87
517.318	26223.9
517.52	26600.72
517.722	26877.2
517.925	27280.65
518.127	27325.71
518.329	27485.45
518.531	27364.62
518.733	28108.03
518.935	27923.71
519.136	28103.93
519.338	28609.78
519.54	28634.36
519.742	29007.09
519.944	28804.34
520.146	29189.36
520.348	29142.25
520.55	29488.36
520.752	29279.47
520.954	30147.81
521.155	30084.32
521.357	30483.67
521.559	30692.57
521.761	30807.25
521.963	30764.25
522.164	30831.83
522.366	31188.17
522.568	31440.07
522.77	31810.76
522.971	31884.48
523.173	31935.68
523.375	32107.71
523.576	32222.4
523.778	32222.4
523.98	32744.63
524.181	32844.98
524.383	32722.1
524.584	32963.76
524.786	33250.48
524.988	32607.42
525.189	33412.27
525.391	33633.45
525.592	33293.49
525.794	33666.22
525.995	34098.34
526.197	33959.08
526.398	33885.35
526.6	34313.38
526.801	34415.77
527.003	34507.93
527.204	34335.9
527.406	35243.15
527.607	34798.74
527.808	34835.61
528.01	34610.33
528.211	34659.48
528.412	35636.36
528.614	35376.27
528.815	35095.7
529.016	35732.62
529.218	35284.11
529.419	35177.62
529.62	35450
529.822	35642.51
530.023	35515.53
530.224	35556.49
530.425	35773.58
530.626	35556.49
530.828	35517.58
531.029	36279.43
531.23	35470.48
531.431	35617.93
531.632	36136.07
531.833	35816.58
532.035	35808.39
532.236	35914.89
532.437	36107.4
532.638	36097.16
532.839	36105.35
533.04	36549.76
533.241	36127.88
533.442	36611.2
533.643	36007.05
533.844	36197.51
534.045	36422.78
534.246	36166.79
534.447	36365.44
534.648	36129.92
534.849	36293.76
535.05	35927.17
535.251	36410.5
535.451	36312.19
535.652	35880.07
535.853	36097.16
536.054	36273.28
536.255	36502.65
536.456	35832.97
536.657	36756.6
536.857	36500.61
537.058	36043.91
537.259	36195.46
537.46	36459.65
537.66	36023.43
537.861	36373.63
538.062	35927.17
538.263	36463.74
538.463	36095.11
538.664	35961.99
538.865	35964.04
539.065	36236.42
539.266	35540.11
539.466	36418.69
539.667	35605.64
539.868	36424.83
540.068	36041.86
540.269	35921.03
540.469	36301.95
540.67	35961.99
540.87	35982.47
541.071	35800.2
541.271	35542.16
541.472	36070.53
541.672	35581.07
541.873	35746.95
542.073	35239.06
542.274	35863.69
542.474	35806.34
542.675	35564.68
542.875	35927.17
543.075	35802.25
543.276	35218.58
543.476	35980.42
543.676	35443.85
543.877	35689.61
544.077	35669.13
544.277	35875.98
544.478	35478.67
544.678	35667.08
544.878	35341.46
545.078	35540.11
545.279	35396.75
545.479	35378.32
545.679	35691.66
545.879	35619.98
546.079	36023.43
546.28	35464.33
546.48	35433.61
546.68	35497.1
546.88	35687.56
547.08	35818.63
547.28	35175.57
547.48	35150.99
547.68	35290.26
547.88	35056.79
548.081	35542.16
548.281	35327.12
548.481	35138.71
548.681	35263.63
548.881	35390.61
549.081	35052.69
549.28	35048.6
549.48	35464.33
549.68	35265.68
549.88	35851.4
550.08	35146.9
550.28	35431.57
550.48	35499.15
550.68	35591.31
550.88	35140.75
551.08	35071.12
551.279	35435.66
551.479	34942.1
551.679	35054.74
551.879	34794.65
552.079	34962.58
552.278	34995.35
552.478	35161.23
552.678	35048.6
552.878	34974.87
553.077	35130.51
553.277	34788.5
553.477	34985.11
553.676	34759.83
553.876	34895
554.076	34886.81
554.275	34673.82
554.475	34524.32
554.674	34901.14
554.874	34661.53
555.074	34653.34
555.273	34509.98
555.473	34507.93
555.672	34280.61
555.872	34716.82
556.071	34534.56
556.271	34739.35
556.47	34243.74
556.67	34292.9
556.869	34288.8
557.068	34319.52
557.268	34223.26
557.467	34350.24
557.667	34233.5
557.866	34237.6
558.065	34086.05
558.265	34272.42
558.464	34090.15
558.663	34137.25
558.863	33879.21
559.062	34366.62
559.261	33590.44
559.461	34135.2
559.66	33838.25
559.859	33846.44
560.058	33713.32
560.258	34135.2
560.457	33610.92
560.656	33840.29
560.855	33551.53
561.054	33848.49
561.253	33514.67
561.453	33711.27
561.652	33836.2
561.851	33664.17
562.05	33516.72
562.249	33053.87
562.448	33567.91
562.647	33152.18
562.846	33455.28
563.045	33113.27
563.244	32847.03
563.443	32982.2
563.642	32976.05
563.841	32894.13
564.04	33158.32
564.239	33172.66
564.438	32195.78
564.637	33193.14
564.836	32740.54
565.035	32476.35
565.234	32619.7
565.432	32593.08
565.631	32013.51
565.83	32640.18
566.029	32179.39
566.228	32300.22
566.427	32197.82
566.625	31999.17
566.824	31829.19
567.023	32281.79
567.222	31642.82
567.42	32382.14
567.619	32083.14
567.818	31677.64
568.016	32017.6
568.215	32056.51
568.414	31362.25
568.612	31806.66
568.811	31378.64
569.01	31743.17
569.208	31345.87
569.407	31403.21
569.605	31204.56
569.804	31374.54
570.002	31100.11
570.201	31526.09
570.4	31048.91
570.598	30905.56
570.797	30995.67
570.995	30905.56
571.193	30280.92
571.392	30874.84
571.59	30291.16
571.789	30448.86
571.987	30729.43
572.186	30180.57
572.384	30457.05
572.582	30784.72
572.781	30350.56
572.979	30029.02
573.177	30418.14
573.376	30045.41
573.574	29773.03
573.772	30229.73
573.971	29795.56
574.169	29834.47
574.367	29611.24
574.565	29734.12
574.763	29736.16
574.962	29848.8
575.16	29320.43
575.358	29621.48
575.556	29105.39
575.754	29398.25
575.952	29314.28
576.151	29474.02
576.349	28972.27
576.547	29297.9
576.745	29099.25
576.943	28828.91
577.141	28853.49
577.339	28806.39
577.537	28669.17
577.735	28724.47
577.933	28439.8
578.131	28566.77
578.329	28243.2
578.527	28273.92
578.725	28374.27
578.923	28544.25
579.121	28093.69
579.319	27991.3
579.516	28163.32
579.714	28013.82
579.912	27852.03
580.11	27749.64
580.308	27811.07
580.506	27651.33
580.704	27548.93
580.901	27503.88
581.099	27462.92
581.297	27428.1
581.495	27546.89
581.692	27749.64
581.89	26975.5
582.088	27225.36
582.285	27084.05
582.483	27219.21
582.681	26864.91
582.878	26979.6
583.076	26500.37
583.274	26969.36
583.471	26711.32
583.669	26535.19
583.866	26592.53
584.064	26559.77
584.262	26492.18
584.459	26875.15
584.657	26166.56
584.854	26627.35
585.052	26031.39
585.249	26369.3
585.447	26064.16
585.644	26078.49
585.841	26064.16
586.039	26225.95
586.236	26015.01
586.434	25939.23
586.631	25650.47
586.828	25744.67
587.026	25683.23
587.223	25529.64
587.42	25384.23
587.618	25318.7
587.815	24970.54
588.012	25417
588.21	25242.92
588.407	25394.47
588.604	25062.7
588.801	25140.52
588.999	25025.84
589.196	24982.83
589.393	24696.11
589.59	24601.91
589.787	24563
589.984	24454.45
590.182	24380.73
590.379	24558.9
590.576	24356.15
590.773	24626.48
590.97	24278.33
591.167	24159.55
591.364	23950.65
591.561	24509.75
591.758	24118.59
591.955	23897.41
592.152	23899.45
592.349	23799.1
592.546	23860.54
592.743	23627.07
592.94	23240.01
593.137	23461.19
593.334	23475.52
593.531	23272.78
593.727	23627.07
593.924	23637.31
594.121	23043.4
594.318	23432.52
594.515	22762.83
594.712	23381.32
594.908	23022.92
595.105	22906.19
595.302	22533.46
595.499	22846.8
595.696	22492.5
595.892	22750.54
596.089	22568.27
596.286	22644.05
596.482	22721.87
596.679	22433.11
596.876	22449.49
597.072	22304.09
597.269	22568.27
597.466	22150.49
597.662	21845.34
597.859	22291.8
598.055	22039.9
598.252	21845.34
598.448	21749.09
598.645	21929.31
598.841	21601.63
599.038	21820.77
599.234	21658.98
599.431	21456.23
599.627	21419.36
599.824	21362.02
600.02	21185.9
600.217	21480.8
600.413	21282.15
600.609	21351.78
600.806	20974.95
601.002	21058.92
601.198	21097.83
601.395	20837.74
601.591	20673.9
601.787	20850.03
601.984	20790.64
602.18	20790.64
602.376	20581.74
602.572	20489.59
602.769	20436.34
602.965	20344.18
603.161	20204.92
603.357	20247.93
603.553	20368.76
603.75	20512.11
603.946	20014.46
604.142	20303.22
604.338	19983.74
604.534	19817.85
604.73	19746.17
604.926	19942.78
605.122	19856.76
605.318	19783.04
605.514	19686.78
605.71	19731.84
605.906	19420.55
606.102	19348.87
606.298	19707.26
606.494	19537.28
606.69	19320.2
606.886	19500.42
607.082	19129.73
607.278	19377.54
607.474	18906.51
607.67	19189.13
607.866	18888.07
608.062	19285.38
608.257	19045.77
608.453	18972.04
608.649	19056.01
608.845	18728.33
609.041	18679.18
609.236	18988.42
609.432	18935.18
609.628	18789.77
609.824	18615.69
610.019	18871.69
610.215	18441.62
610.411	18711.95
610.606	18394.51
610.802	18599.31
610.998	18664.85
611.193	18605.45
611.389	18290.07
611.584	18283.92
611.78	18181.53
611.976	18347.41
612.171	18314.64
612.367	18472.34
612.562	18156.95
612.758	18070.93
612.953	18118.04
613.149	18437.52
613.344	17847.71
613.539	18169.24
613.735	18142.61
613.93	18095.51
614.126	17782.17
614.321	17995.16
614.517	18009.5
614.712	17894.81
614.907	17853.85
615.103	18011.54
615.298	17862.04
615.493	18118.04
615.688	17536.42
615.884	17841.56
616.079	17622.43
616.274	17665.44
616.47	17495.46
616.665	17405.35
616.86	17438.11
617.055	17704.35
617.25	17503.65
617.445	17544.61
617.641	17348
617.836	17288.61
618.031	17302.95
618.226	17304.99
618.421	17214.88
618.616	17282.47
618.811	16797.1
619.006	17225.12
619.201	17020.33
619.396	17098.15
619.591	16444.85
619.786	17030.57
619.981	16526.77
620.176	16893.35
620.371	16324.02
620.566	16508.33
620.761	16414.13
620.956	16227.76
621.151	16321.97
621.346	16350.64
621.541	16106.93
621.735	16317.87
621.93	15857.08
622.125	15766.97
622.32	15556.03
622.515	15789.5
622.709	15660.48
622.904	15584.7
623.099	15492.54
623.294	15701.44
623.488	15191.49
623.683	15379.9
623.878	14921.16
624.072	15181.25
624.267	15142.34
624.462	15218.11
624.656	14822.86
624.851	14785.99
625.046	14781.9
625.24	14609.87
625.435	14499.28
625.629	14491.09
625.824	14337.49
626.018	14454.22
626.213	14073.3
626.407	14163.41
626.602	14034.39
626.796	14089.68
626.991	13968.85
627.185	14144.98
627.38	13893.08
627.574	13694.43
627.768	13794.78
627.963	13745.62
628.157	13565.4
628.352	13393.37
628.546	13426.14
628.74	13233.63
628.935	13540.83
629.129	13147.62
629.323	13034.98
629.517	13264.35
629.712	12926.44
629.906	13102.56
630.1	12701.16
630.294	12852.71
630.489	12762.6
630.683	12674.54
630.877	12615.15
631.071	12420.59
631.265	12707.3
631.459	12236.27
631.653	12350.96
631.848	12146.16
632.042	12258.8
632.236	12019.19
632.43	11853.3
632.624	12090.87
632.818	11992.56
633.012	11943.41
633.206	11818.49
633.4	11787.77
633.594	11798.01
633.788	11634.17
633.982	11453.95
634.176	11623.93
634.369	11417.08
634.563	11449.85
634.757	11187.71
634.951	11406.84
635.145	11073.03
635.339	11249.15
635.533	10980.87
635.726	11132.42
635.92	10987.01
636.114	11044.35
636.308	10802.69
636.501	10829.32
636.695	10733.06
636.889	10917.38
637.083	10618.38
637.276	10632.71
637.47	10538.51
637.664	10323.47
637.857	10366.48
638.051	10427.92
638.244	10389
638.438	10350.09
638.632	10190.35
638.825	10262.03
639.019	10016.27
639.212	10053.14
639.406	10149.39
639.599	9932.31
639.793	9909.78
639.986	9901.59
640.18	9881.11
640.373	9877.01
640.567	9578.01
640.76	9580.06
640.954	9578.01
641.147	9430.55
641.34	9496.09
641.534	9338.4
641.727	9475.61
641.92	9395.74
642.114	9256.48
642.307	9348.64
642.5	9270.81
642.694	8980
642.887	9039.39
643.08	9326.11
643.273	9010.72
643.467	8945.19
643.66	8824.36
643.853	8832.55
644.046	8734.25
644.239	8793.64
644.432	8818.21
644.626	8666.66
644.819	8564.26
645.012	8597.03
645.205	8504.87
645.398	8533.54
645.591	8361.52
645.784	8490.54
645.977	8451.63
646.17	8461.87
646.363	8205.87
646.556	8179.25
646.749	8027.7
646.942	8121.9
647.135	8082.99
647.328	8123.95
647.521	7986.74
647.714	7765.56
647.907	8212.01
648.099	8013.36
648.292	7919.15
648.485	7839.28
648.678	7667.25
648.871	7646.77
649.064	7749.17
649.256	7702.07
649.449	7646.77
649.642	7614.01
649.835	7409.21
650.027	7331.39
650.22	7423.55
650.413	7398.97
650.605	7319.1
650.798	7288.38
650.991	7296.57
651.183	7315
651.376	7165.5
651.568	7032.38
651.761	6993.47
651.954	7061.05
652.146	7210.56
652.339	6983.23
652.531	6970.94
652.724	6903.36
652.916	6956.61
653.109	6841.92
653.301	6811.2
653.494	6827.59
653.686	6495.82
653.879	6800.96
654.071	6723.14
654.263	6751.81
654.456	6571.59
654.648	6671.94
654.84	6463.05
655.033	6467.14
655.225	6401.61
655.417	6374.99
655.61	6397.51
655.802	6266.44
655.994	6399.56
656.186	6348.36
656.379	6368.84
656.571	6278.73
656.763	6133.33
656.955	6170.19
657.148	6149.71
657.34	6114.89
657.532	5998.16
657.724	5908.05
657.916	6065.74
658.108	5996.11
658.3	5819.99
658.492	6229.58
658.684	5975.63
658.876	5795.41
659.068	5643.86
659.26	5895.76
659.452	5893.71
659.644	5695.06
659.836	5764.69
660.028	5717.59
660.22	5602.9
660.412	5768.79
660.604	5639.76
660.796	5504.6
660.988	5555.8
661.18	5445.21
661.372	5539.41
661.563	5568.09
661.755	5252.7
661.947	5391.96
662.139	5285.47
662.331	5394.01
662.522	5215.84
662.714	5271.13
662.906	5330.52
663.097	5252.7
663.289	5211.74
663.481	5068.38
663.673	5170.78
663.864	5086.81
664.056	5181.02
664.247	5176.92
664.439	5115.48
664.631	5224.03
664.822	5150.3
665.014	5127.77
665.205	4943.46
665.397	5002.85
665.588	4888.16
665.78	4925.02
665.971	4902.5
666.163	4791.91
666.354	4814.43
666.546	4630.12
666.737	4742.75
666.929	4744.8
667.12	4687.46
667.311	4752.99
667.503	4644.45
667.694	4691.56
667.885	4623.97
668.077	4546.15
668.268	4537.96
668.459	4548.2
668.651	4439.65
668.842	4482.66
669.033	4533.86
669.224	4550.25
669.416	4566.63
669.607	4499.05
669.798	4365.93
669.989	4443.75
670.18	4503.14
670.371	4279.91
670.563	4261.48
670.754	4329.06
670.945	4316.78
671.136	4417.13
671.327	4361.83
671.518	4275.82
671.709	4181.61
671.9	4232.81
672.091	4234.86
672.282	4267.63
672.473	4202.09
672.664	4046.44
672.855	4173.42
673.046	4148.84
673.237	4191.85
673.428	4171.37
673.619	4132.46
673.809	4040.3
674	3985.01
674.191	4122.22
674.382	4058.73
674.573	3960.43
674.764	4138.6
674.954	3985.01
675.145	3925.61
675.336	3935.85
675.527	3946.09
675.717	3923.57
675.908	3890.8
676.099	3970.67
676.289	3864.18
676.48	3911.28
676.671	3804.78
676.861	3884.66
677.052	3786.35
677.243	3851.89
677.433	3890.8
677.624	3974.77
677.814	3720.82
678.005	3765.87
678.195	3858.03
678.386	3772.02
678.576	3792.5
678.767	3778.16
678.957	3798.64
679.148	3829.36
679.338	3745.39
679.529	3491.45
679.719	3714.67
679.909	3661.43
680.1	3688.05
680.29	3614.32
680.481	3733.11
680.671	3679.86
680.861	3528.31
681.052	3702.39
681.242	3651.19
681.432	3638.9
681.622	3522.16
681.813	3614.32
682.003	3655.28
682.193	3499.64
682.383	3552.88
682.573	3610.23
682.764	3581.56
682.954	3536.5
683.144	3485.3
683.334	3575.41
683.524	3552.88
683.714	3513.97
683.904	3427.96
684.094	3395.19
684.284	3534.45
684.474	3393.14
684.664	3493.49
684.854	3483.25
685.044	3440.25
685.234	3378.81
685.424	3409.53
685.614	3522.16
685.804	3468.92
685.994	3411.57
686.184	3350.14
686.374	3333.75
686.564	3294.84
686.753	3389.05
686.943	3126.91
687.133	3249.79
687.323	3327.61
687.513	3198.59
687.702	3196.54
687.892	3210.87
688.082	3206.78
688.272	3137.15
688.461	3169.91
688.651	3135.1
688.841	3161.72
689.03	3145.34
689.22	3067.52
689.41	3057.28
689.599	3169.91
689.789	3014.27
689.979	3051.13
690.168	3176.06
690.358	2985.6
690.547	2981.5
690.737	2946.69
690.926	2995.84
691.116	3061.37
691.305	3024.51
691.495	2948.73
691.684	2930.3
691.874	2909.82
692.063	2887.29
692.252	2807.42
692.442	2887.29
692.631	2944.64
692.82	2930.3
693.01	2922.11
693.199	2770.56
693.388	2807.42
693.578	2920.06
693.767	2850.43
693.956	2743.94
694.146	2686.59
694.335	2682.5
694.524	2811.52
694.713	2825.86
694.902	2782.85
695.092	2766.46
695.281	2838.14
695.47	2860.67
695.659	2829.95
695.848	2756.22
696.037	2811.52
696.226	2696.83
696.415	2778.75
696.604	2608.77
696.793	2659.97
696.982	2717.31
697.171	2862.72
697.36	2682.5
697.549	2655.87
697.738	2705.03
697.927	2580.1
698.116	2682.5
698.305	2649.73
698.494	2627.2
698.683	2752.13
698.872	2705.03
699.061	2707.07
699.25	2668.16
699.438	2668.16
699.627	2610.82
699.816	2682.5
700.005	2612.87
700.193	2608.77
700.382	2705.03
700.571	2807.42
700.76	2782.85
700.948	2621.06
701.137	2662.02
701.326	2705.03
701.514	2717.31
701.703	2684.55
701.892	2600.58
702.08	2596.48
702.269	2528.9
702.457	2682.5
702.646	2612.87
702.834	2567.81
703.023	2715.27
703.212	2784.9
703.4	2705.03
703.589	2645.63
703.777	2623.11
703.965	2557.57
704.154	2657.92
704.342	2651.78
704.531	2682.5
704.719	2549.38
704.907	2594.44
705.096	2621.06
705.284	2553.48
705.472	2625.15
705.661	2606.72
705.849	2672.26
706.037	2565.76
706.226	2528.9
706.414	2610.82
706.602	2573.96
706.79	2547.33
706.979	2631.3
707.167	2719.36
707.355	2668.16
707.543	2719.36
707.731	2764.42
707.919	2559.62
708.107	2627.2
708.296	2637.44
708.484	2528.9
708.672	2735.74
708.86	2662.02
709.048	2649.73
709.236	2598.53
709.424	2643.59
709.612	2680.45
709.8	2647.68
709.988	2616.96
710.176	2711.17
710.364	2717.31
710.551	2637.44
710.739	2635.39
710.927	2629.25
711.115	2584.2
711.303	2608.77
711.491	2705.03
711.679	2553.48
711.866	2608.77
712.054	2612.87
712.242	2604.67
712.43	2705.03
712.617	2592.39
712.805	2629.25
712.993	2625.15
713.181	2616.96
713.368	2598.53
713.556	2590.34
713.744	2559.62
713.931	2743.94
714.119	2711.17
714.306	2705.03
714.494	2637.44
714.682	2680.45
714.869	2600.58
715.057	2641.54
715.244	2561.67
715.432	2750.08
715.619	2600.58
715.807	2659.97
715.994	2586.24
716.182	2580.1
716.369	2616.96
716.556	2639.49
716.744	2598.53
716.931	2610.82
717.119	2694.79
717.306	2596.48
717.493	2619.01
717.681	2535.04
717.868	2604.67
718.055	2774.66
718.242	2537.09
718.43	2619.01
718.617	2649.73
718.804	2610.82
718.991	2633.35
719.179	2598.53
719.366	2485.89
719.553	2637.44
719.74	2545.28
719.927	2522.76
720.114	2563.72
720.301	2571.91
720.488	2623.11
720.676	2633.35
720.863	2623.11
721.05	2680.45
721.237	2639.49
721.424	2616.96
721.611	2594.44
721.798	2592.39
721.985	2459.27
722.172	2379.4
722.358	2494.08
722.545	2535.04
722.732	2522.76
722.919	2547.33
723.106	2559.62
723.293	2561.67
723.48	2606.72
723.667	2717.31
723.853	2625.15
724.04	2539.14
724.227	2557.57
724.414	2553.48
724.6	2533
724.787	2449.03
724.974	2584.2
725.161	2543.24
725.347	2401.93
725.534	2512.52
725.72	2489.99
725.907	2545.28
726.094	2410.12
726.28	2440.84
726.467	2514.56
726.653	2401.93
726.84	2569.86
727.027	2594.44
727.213	2440.84
727.4	2508.42
727.586	2528.9
727.773	2514.56
727.959	2395.78
728.145	2500.23
728.332	2473.6
728.518	2367.11
728.705	2471.56
728.891	2473.6
729.077	2436.74
729.264	2457.22
729.45	2465.41
729.636	2545.28
729.823	2397.83
730.009	2459.27
730.195	2506.37
730.382	2383.49
730.568	2518.66
730.754	2406.02
730.94	2455.17
731.126	2455.17
731.313	2426.5
731.499	2377.35
731.685	2547.33
731.871	2291.34
732.057	2393.73
732.243	2416.26
732.429	2383.49
732.615	2383.49
732.801	2367.11
732.987	2432.65
733.173	2406.02
733.359	2328.2
733.545	2377.35
733.731	2436.74
733.917	2350.73
734.103	2356.87
734.289	2260.62
734.475	2174.6
734.661	2309.77
734.847	2315.91
735.033	2266.76
735.219	2344.58
735.404	2379.4
735.59	2311.82
735.776	2393.73
735.962	2242.18
736.148	2387.59
736.333	2305.67
736.519	2309.77
736.705	2213.51
736.89	2260.62
737.076	2307.72
737.262	2279.05
737.447	2291.34
737.633	2195.08
737.819	2291.34
738.004	2092.68
738.19	2252.42
738.375	2207.37
738.561	2217.61
738.747	2147.98
738.932	2186.89
739.118	2123.4
739.303	2193.03
739.489	2211.46
739.674	2129.55
739.859	2156.17
740.045	2012.81
740.23	2115.21
740.416	2088.59
740.601	2178.7
740.786	2262.66
740.972	2152.07
741.157	2102.92
741.342	2088.59
741.528	2182.79
741.713	2147.98
741.898	2156.17
742.084	2084.49
742.269	2043.53
742.454	2147.98
742.639	2199.18
742.824	2104.97
743.01	2127.5
743.195	2141.83
743.38	2004.62
743.565	1967.76
743.75	2098.83
743.935	1973.9
744.12	2064.01
744.305	1949.32
744.49	1998.48
744.675	2043.53
744.86	1879.69
745.045	1894.03
745.23	2035.34
745.415	1863.31
745.6	2006.67
745.785	1820.3
745.97	1848.97
746.155	1830.54
746.34	1853.07
746.525	1877.65
746.71	1932.94
746.895	1670.8
747.079	1779.34
747.264	1810.06
747.449	1783.44
747.634	1785.49
747.819	1828.49
748.003	1697.42
748.188	1836.69
748.373	1814.16
748.557	1912.46
748.742	1709.71
748.927	1676.95
749.111	1662.61
749.296	1595.03
749.481	1746.58
749.665	1638.03
749.85	1635.99
750.034	1681.04
750.219	1578.64
750.404	1617.55
750.588	1597.07
750.773	1517.2
750.957	1595.03
751.141	1611.41
751.326	1650.32
751.51	1595.03
751.695	1552.02
751.879	1545.88
752.064	1543.83
752.248	1492.63
752.432	1601.17
752.617	1461.91
752.801	1494.68
752.985	1447.57
753.17	1459.86
753.354	1486.48
753.538	1472.15
753.722	1423
753.907	1406.61
754.091	1382.04
754.275	1412.76
754.459	1388.18
754.643	1435.28
754.828	1377.94
755.012	1404.57
755.196	1279.64
755.38	1355.41
755.564	1214.1
755.748	1298.07
755.932	1279.64
756.116	1355.41
756.3	1167
756.484	1310.36
756.668	1343.13
756.852	1228.44
757.036	1263.26
757.22	1345.17
757.404	1152.67
757.588	1148.57
757.772	1279.64
757.956	1255.06
758.14	1197.72
758.323	1269.4
758.507	1218.2
758.691	1193.62
758.875	1175.19
759.059	1177.24
759.242	1193.62
759.426	1218.2
759.61	1052.31
759.794	1203.86
759.977	1150.62
760.161	1126.04
760.345	1201.82
760.528	1052.31
760.712	1099.42
760.895	1037.98
761.079	1101.47
761.263	999.07
761.446	1089.18
761.63	1056.41
761.813	1099.42
761.997	1031.83
762.18	994.97
762.364	1046.17
762.547	1070.75
762.731	1058.46
762.914	954.01
763.098	1123.99
763.281	1015.45
763.464	943.77
763.648	978.59
763.831	1015.45
764.015	1126.04
764.198	931.48
764.381	1025.69
764.564	992.92
764.748	994.97
764.931	1027.74
765.114	992.92
765.297	988.83
765.481	943.77
765.664	970.4
765.847	935.58
766.03	992.92
766.213	911
766.397	974.49
766.58	1009.31
766.763	976.54
766.946	988.83
767.129	822.94
767.312	911
767.495	954.01
767.678	921.24
767.861	933.53
768.044	894.62
768.227	818.85
768.41	904.86
768.593	892.57
768.776	878.24
768.959	857.76
769.142	970.4
769.324	931.48
769.507	837.28
769.69	763.55
769.873	888.48
770.056	870.05
770.239	943.77
770.421	874.14
770.604	859.81
770.787	822.94
770.97	855.71
771.152	808.61
771.335	757.41
771.518	824.99
771.7	835.23
771.883	853.66
772.066	779.93
772.248	757.41
772.431	736.93
772.613	794.27
772.796	827.04
772.978	779.93
773.161	775.84
773.343	786.08
773.526	732.83
773.708	726.69
773.891	702.11
774.073	820.89
774.256	687.78
774.438	759.46
774.621	810.65
774.803	822.94
774.985	669.34
775.168	712.35
775.35	722.59
775.532	718.5
775.715	628.39
775.897	784.03
776.079	695.97
776.261	650.91
776.444	646.82
776.626	767.65
776.808	650.91
776.99	638.62
777.173	698.02
777.355	599.71
777.537	650.91
777.719	730.78
777.901	661.15
778.083	612
778.265	622.24
778.447	564.9
778.629	507.55
778.811	655.01
778.993	597.67
779.175	573.09
779.357	626.34
779.539	546.47
779.721	620.19
779.903	636.58
780.085	468.64
780.267	544.42
780.449	632.48
780.631	562.85
780.812	648.86
780.994	603.81
781.176	503.46
781.358	548.51
781.54	487.08
781.721	577.19
781.903	591.52
782.085	568.99
782.267	591.52
782.448	511.65
782.63	550.56
782.812	478.88
782.993	513.7
783.175	482.98
783.357	501.41
783.538	413.35
783.72	509.6
783.901	505.51
784.083	495.27
784.264	505.51
784.446	462.5
784.627	456.36
784.809	444.07
784.99	407.2
785.172	464.55
785.353	491.17
785.535	521.89
785.716	399.01
785.897	407.2
786.079	509.6
786.26	437.92
786.441	431.78
786.623	421.54
786.804	419.49
786.985	366.25
787.167	399.01
787.348	321.19
787.529	341.67
787.71	368.29
787.891	380.58
788.073	405.16
788.254	341.67
788.435	366.25
788.616	431.78
788.797	356.01
788.978	433.83
789.159	390.82
789.34	333.48
789.522	388.77
789.703	323.24
789.884	413.35
790.065	431.78
790.246	401.06
790.427	364.2
790.607	370.34
790.788	345.77
790.969	360.1
791.15	413.35
791.331	372.39
791.512	341.67
791.693	300.71
791.874	286.37
792.054	353.96
792.235	329.38
792.416	327.33
792.597	300.71
792.778	372.39
792.958	310.95
793.139	327.33
793.32	306.85
793.5	290.47
793.681	298.66
793.862	370.34
794.042	325.29
794.223	245.41
794.404	229.03
794.584	317.09
794.765	280.23
794.945	272.04
795.126	286.37
795.306	278.18
795.487	286.37
795.667	276.13
795.848	257.7
796.028	265.89
796.209	347.81
796.389	286.37
796.57	292.52
796.75	263.85
796.93	267.94
797.111	218.79
797.291	202.41
797.471	233.13
797.652	325.29
797.832	263.85
798.012	218.79
798.192	276.13
798.373	274.09
798.553	249.51
798.733	255.65
798.913	222.89
799.093	210.6
799.274	161.45
799.454	290.47
799.634	204.46
799.814	267.94
799.994	319.14
800.174	235.18
800.354	243.37
800.534	231.08
800.714	245.41
800.894	267.94
801.074	263.85
801.254	233.13
801.434	253.61
801.614	229.03
801.794	210.6
801.974	642.72
802.154	245.41
802.334	265.89
802.514	165.54
802.693	255.65
802.873	210.6
803.053	138.92
803.233	110.25
803.413	251.56
803.592	216.74
803.772	153.26
803.952	253.61
804.131	149.16
804.311	202.41
804.491	226.98
804.67	190.12
804.85	214.7
805.03	206.5
805.209	190.12
805.389	206.5
805.568	229.03
805.748	169.64
805.928	202.41
806.107	196.26
806.287	179.88
806.466	83.63
806.646	169.64
806.825	239.27
807.004	212.65
807.184	241.32
807.363	196.26
807.543	134.82
807.722	216.74
807.901	276.13
808.081	222.89
808.26	181.93
808.439	169.64
808.619	183.98
808.798	192.17
808.977	222.89
809.156	257.7
809.336	134.82
809.515	196.26
809.694	151.21
809.873	122.54
810.052	282.28
810.231	145.06
810.411	153.26
810.59	239.27
810.769	169.64
810.948	194.22
811.127	126.63
811.306	151.21
811.485	118.44
811.664	233.13
811.843	140.97
812.022	81.58
812.201	177.83
812.38	226.98
812.559	194.22
812.737	147.11
812.916	132.78
813.095	165.54
813.274	198.31
813.453	151.21
813.632	138.92
813.811	149.16
813.989	151.21
814.168	224.94
814.347	155.3
814.526	169.64
814.704	159.4
814.883	183.98
815.062	44.71
815.24	145.06
815.419	169.64
815.598	118.44
815.776	159.4
815.955	116.39
816.133	67.24
816.312	153.26
816.49	110.25
816.669	171.69
816.847	75.43
817.026	204.46
817.204	165.54
817.383	122.54
817.561	71.34
817.74	167.59
817.918	163.5
818.097	24.23
818.275	130.73
818.453	159.4
818.632	91.82
818.81	118.44
818.988	169.64
819.167	110.25
819.345	192.17
819.523	110.25
819.701	192.17
819.879	155.3
820.058	155.3
820.236	106.15
820.414	48.81
820.592	118.44
820.77	130.73
820.948	106.15
821.127	132.78
821.305	149.16
821.483	91.82
821.661	87.72
821.839	59.05
822.017	65.19
822.195	83.63
822.373	130.73
822.551	136.87
822.729	110.25
822.907	81.58
823.085	136.87
823.262	124.58
823.44	89.77
823.618	147.11
823.796	167.59
823.974	140.97
824.152	138.92
824.329	59.05
824.507	124.58
824.685	97.96
824.863	126.63
825.04	118.44
825.218	108.2
825.396	97.96
825.574	59.05
825.751	52.91
825.929	77.48
826.107	136.87
826.284	71.34
826.462	87.72
826.639	104.11
826.817	32.43
826.994	134.82
827.172	124.58
827.349	132.78
827.527	38.57
827.704	40.62
827.882	100.01
828.059	122.54
828.237	57
828.414	73.39
828.591	89.77
828.769	77.48
828.946	95.91
829.124	79.53
829.301	134.82
829.478	130.73
829.655	106.15
829.833	54.95
830.01	57
830.187	165.54
830.364	118.44
830.542	52.91
830.719	145.06
830.896	108.2
831.073	147.11
831.25	11.95
831.427	54.95
831.604	83.63
831.782	97.96
831.959	63.15
832.136	65.19
832.313	104.11
832.49	46.76
832.667	40.62
832.844	102.06
833.021	85.67
833.198	102.06
833.374	87.72
833.551	9.9
833.728	110.25
833.905	65.19
834.082	69.29
834.259	59.05
834.436	85.67
834.612	85.67
834.789	167.59
834.966	46.76
835.143	61.1
835.319	122.54
835.496	-10.58
835.673	106.15
835.85	97.96
836.026	79.53
836.203	87.72
836.38	106.15
836.556	87.72
836.733	59.05
836.909	108.2
837.086	-18.77
837.262	122.54
837.439	52.91
837.616	95.91
837.792	40.62
837.968	69.29
838.145	36.52
838.321	-10.58
838.498	34.47
838.674	50.86
838.851	63.15
839.027	36.52
839.203	34.47
839.38	30.38
839.556	97.96
839.732	71.34
839.909	85.67
840.085	95.91
840.261	48.81
840.437	48.81
840.614	-10.58
840.79	3.75
840.966	87.72
841.142	63.15
841.318	20.14
841.494	63.15
841.671	54.95
841.847	91.82
842.023	-20.82
842.199	52.91
842.375	42.67
842.551	97.96
842.727	-0.34
842.903	106.15
843.079	11.95
843.255	61.1
843.431	102.06
843.607	65.19
843.783	54.95
843.959	153.26
844.134	9.9
844.31	57
844.486	138.92
844.662	50.86
844.838	11.95
845.013	26.28
845.189	126.63
845.365	69.29
845.541	44.71
845.716	44.71
845.892	114.34
846.068	65.19
846.244	26.28
846.419	48.81
846.595	57
846.77	28.33
846.946	71.34
847.122	22.19
847.297	7.85
847.473	83.63
847.648	30.38
847.824	36.52
847.999	-43.35
848.175	61.1
848.35	-43.35
848.526	42.67
848.701	50.86
848.876	50.86
849.052	75.43
849.227	54.95
849.403	69.29
849.578	54.95
849.753	22.19
849.929	59.05
850.104	71.34
850.279	67.24
850.454	13.99
850.63	26.28
850.805	40.62
850.98	91.82
851.155	7.85
851.33	32.43
851.505	-4.44
851.681	104.11
851.856	-4.44
852.031	85.67
852.206	71.34
852.381	28.33
852.556	79.53
852.731	28.33
852.906	95.91
853.081	67.24
853.256	124.58
853.431	69.29
853.606	-47.44
853.781	-10.58
853.956	1.71
854.131	67.24
854.305	3.75
854.48	75.43
854.655	52.91
854.83	-6.49
855.005	67.24
855.18	16.04
855.354	20.14
855.529	73.39
855.704	61.1
855.879	9.9
856.053	-35.16
856.228	-20.82
856.403	9.9
856.577	-10.58
856.752	-12.63
856.926	130.73
857.101	26.28
857.276	38.57
857.45	1.71
857.625	65.19
857.799	50.86
857.974	-24.92
858.148	-16.73
858.323	44.71
858.497	26.28
858.672	-16.73
858.846	-2.39
859.02	75.43
859.195	79.53
859.369	50.86
859.543	-10.58
859.718	5.8
859.892	18.09
860.066	65.19
860.241	-14.68
860.415	-49.49
860.589	-8.53
860.763	-22.87
860.938	-39.25
861.112	44.71
861.286	-8.53
861.46	40.62
861.634	79.53
861.808	93.87
861.982	3.75
862.157	7.85
862.331	26.28
862.505	26.28
862.679	16.04
862.853	50.86
863.027	52.91
863.201	85.67
863.375	38.57
863.549	22.19
863.722	100.01
863.896	-41.3
864.07	71.34
864.244	46.76
864.418	22.19
864.592	20.14
864.766	-14.68
864.939	13.99
865.113	22.19
865.287	-53.59
865.461	1.71
865.634	28.33
865.808	63.15
865.982	-45.4
866.156	36.52
866.329	-35.16
866.503	-33.11
866.676	11.95
866.85	11.95
867.024	1.71
867.197	44.71
867.371	-39.25
867.544	-51.54
867.718	13.99
867.891	-2.39
868.065	16.04
868.238	-8.53
868.412	50.86
868.585	42.67
868.759	9.9
868.932	-37.2
869.105	-49.49
869.279	40.62
869.452	1.71
869.625	18.09
869.799	112.3
869.972	20.14
870.145	46.76
870.319	-49.49
870.492	50.86
870.665	1.71
870.838	44.71
871.011	-0.34
871.185	59.05
871.358	9.9
871.531	28.33
871.704	28.33
871.877	-35.16
872.05	-41.3
872.223	69.29
872.396	44.71
872.569	32.43
872.742	13.99
872.915	32.43
873.088	65.19
873.261	-43.35
873.434	13.99
873.607	18.09
873.78	-6.49
873.953	-20.82
874.126	1.71
874.299	59.05
874.471	-49.49
874.644	-10.58
874.817	-22.87
874.99	54.95
875.163	7.85
875.335	26.28
875.508	-45.4
875.681	95.91
875.853	36.52
876.026	-18.77
876.199	13.99
876.371	81.58
876.544	114.34
876.717	40.62
876.889	-49.49
877.062	59.05
877.234	-49.49
877.407	-24.92
877.579	102.06
877.752	20.14
877.924	18.09
878.097	24.23
878.269	32.43
878.442	-18.77
878.614	-2.39
878.786	-4.44
878.959	-12.63
879.131	83.63
879.303	24.23
879.476	20.14
879.648	67.24
879.82	-39.25
879.993	-12.63
880.165	34.47
880.337	-59.73
880.509	-45.4
880.681	7.85
880.854	-0.34
881.026	16.04
881.198	91.82
881.37	36.52
881.542	44.71
881.714	-24.92
881.886	52.91
882.058	77.48
882.23	89.77
882.402	-16.73
882.574	1.71
882.746	-10.58
882.918	73.39
883.09	-26.96
883.262	38.57
883.434	1.71
883.606	7.85
883.778	1.71
883.95	79.53
884.122	32.43
884.293	42.67
884.465	-6.49
884.637	-35.16
884.809	-12.63
884.98	5.8
885.152	-0.34
885.324	124.58
885.496	-35.16
885.667	61.1
885.839	-16.73
886.011	9.9
886.182	40.62
886.354	5.8
886.525	81.58
886.697	30.38
886.869	38.57
887.04	-76.12
887.212	18.09
887.383	128.68
887.555	3.75
887.726	85.67
887.897	40.62
888.069	-63.83
888.24	20.14
888.412	-8.53
888.583	40.62
888.754	-8.53
888.926	-53.59
889.097	22.19
889.268	-20.82
889.44	61.1
889.611	1.71
889.782	52.91
889.953	-14.68
890.125	36.52
890.296	42.67
890.467	36.52
890.638	-18.77
890.809	18.09
890.98	-8.53
891.151	13.99
891.323	79.53
891.494	-12.63
891.665	11.95
891.836	34.47
892.007	1.71
892.178	42.67
892.349	-22.87
892.52	-43.35
892.691	-29.01
892.862	44.71
893.032	40.62
893.203	73.39
893.374	-16.73
893.545	57
893.716	32.43
893.887	100.01
894.057	-14.68
894.228	54.95
894.399	50.86
894.57	-35.16
894.74	16.04
894.911	50.86
895.082	-33.11
895.253	54.95
895.423	-65.88
895.594	143.02
895.764	30.38
895.935	-18.77
896.106	44.71
896.276	-55.64
896.447	-6.49
896.617	42.67
896.788	-4.44
896.958	30.38
897.129	38.57
897.299	42.67
897.47	9.9
897.64	5.8
897.81	20.14
897.981	-41.3
898.151	-2.39
898.322	26.28
898.492	-20.82
898.662	-24.92
898.832	-35.16
899.003	-18.77
899.173	-4.44
899.343	-65.88
899.513	36.52
