Data from USB4F104151__48__12-01-32-490.txt Node

Date: Fri Mar 14 12:01:32 EDT 2025
User: louis
Spectrometer: USB4F10415
Trigger mode: 4
Integration Time (sec): 2.000000E-2
Scans to average: 1
Electric dark correction enabled: true
Nonlinearity correction enabled: false
Boxcar width: 0
XAxis mode: Wavelengths
Number of Pixels in Spectrum: 3648
>>>>>Begin Spectral Data<<<<<
178.204	-104.79
178.424	-104.79
178.644	-104.79
178.864	-94.55
179.084	-78.16
179.304	1.71
179.524	-37.2
179.744	-16.73
179.964	87.72
180.184	-20.82
180.404	50.86
180.624	-8.53
180.844	26.28
181.064	-76.12
181.283	18.09
181.503	-22.87
181.723	-2.39
181.943	-18.77
182.163	-10.58
182.383	34.47
182.602	18.09
182.822	30.38
183.042	13.99
183.262	32.43
183.482	-0.34
183.701	48.81
183.921	-35.16
184.141	-6.49
184.361	-18.77
184.58	-4.44
184.8	38.57
185.02	1.71
185.239	28.33
185.459	-10.58
185.679	30.38
185.898	-41.3
186.118	42.67
186.338	30.38
186.557	52.91
186.777	36.52
186.997	112.3
187.216	-2.39
187.436	44.71
187.655	-53.59
187.875	38.57
188.095	-16.73
188.314	42.67
188.534	36.52
188.753	9.9
188.973	40.62
189.192	46.76
189.412	46.76
189.631	-22.87
189.851	1.71
190.07	71.34
190.29	-4.44
190.509	40.62
190.729	-33.11
190.948	-10.58
191.168	122.54
191.387	48.81
191.607	-2.39
191.826	16.04
192.045	18.09
192.265	28.33
192.484	-22.87
192.704	22.19
192.923	57
193.142	59.05
193.362	57
193.581	-12.63
193.8	-59.73
194.02	83.63
194.239	24.23
194.458	48.81
194.678	13.99
194.897	32.43
195.116	-53.59
195.335	26.28
195.555	-6.49
195.774	38.57
195.993	54.95
196.212	61.1
196.432	3.75
196.651	59.05
196.87	26.28
197.089	97.96
197.308	50.86
197.528	20.14
197.747	-6.49
197.966	-10.58
198.185	59.05
198.404	11.95
198.623	38.57
198.842	-0.34
199.062	5.8
199.281	73.39
199.5	1.71
199.719	30.38
199.938	-18.77
200.157	40.62
200.376	73.39
200.595	9.9
200.814	48.81
201.033	67.24
201.252	89.77
201.471	-67.92
201.69	44.71
201.909	22.19
202.128	-18.77
202.347	61.1
202.566	87.72
202.785	-41.3
203.004	-61.78
203.223	69.29
203.442	9.9
203.661	-0.34
203.879	32.43
204.098	-8.53
204.317	7.85
204.536	69.29
204.755	36.52
204.974	-41.3
205.193	22.19
205.411	22.19
205.63	95.91
205.849	-12.63
206.068	13.99
206.287	-14.68
206.505	89.77
206.724	-10.58
206.943	30.38
207.162	1.71
207.381	18.09
207.599	42.67
207.818	16.04
208.037	-37.2
208.255	-45.4
208.474	11.95
208.693	7.85
208.911	18.09
209.13	30.38
209.349	-24.92
209.567	-10.58
209.786	40.62
210.005	-0.34
210.223	36.52
210.442	26.28
210.661	7.85
210.879	1.71
211.098	1.71
211.316	5.8
211.535	5.8
211.753	3.75
211.972	28.33
212.191	36.52
212.409	48.81
212.628	5.8
212.846	1.71
213.065	18.09
213.283	-22.87
213.502	30.38
213.72	11.95
213.938	46.76
214.157	-6.49
214.375	-59.73
214.594	22.19
214.812	24.23
215.031	48.81
215.249	69.29
215.467	38.57
215.686	-24.92
215.904	110.25
216.122	83.63
216.341	-12.63
216.559	26.28
216.778	67.24
216.996	-10.58
217.214	-33.11
217.432	16.04
217.651	36.52
217.869	11.95
218.087	-24.92
218.306	-26.96
218.524	30.38
218.742	-74.07
218.96	-2.39
219.179	-14.68
219.397	20.14
219.615	-6.49
219.833	54.95
220.051	65.19
220.27	20.14
220.488	44.71
220.706	-8.53
220.924	38.57
221.142	89.77
221.36	61.1
221.578	-6.49
221.796	11.95
222.015	-57.68
222.233	42.67
222.451	71.34
222.669	24.23
222.887	1.71
223.105	46.76
223.323	-20.82
223.541	1.71
223.759	71.34
223.977	3.75
224.195	-53.59
224.413	-8.53
224.631	87.72
224.849	20.14
225.067	32.43
225.285	1.71
225.503	63.15
225.721	-80.21
225.939	-43.35
226.157	-31.06
226.375	38.57
226.592	34.47
226.81	65.19
227.028	-63.83
227.246	61.1
227.464	18.09
227.682	48.81
227.9	50.86
228.117	65.19
228.335	-2.39
228.553	77.48
228.771	91.82
228.989	20.14
229.206	-2.39
229.424	11.95
229.642	30.38
229.86	54.95
230.077	81.58
230.295	24.23
230.513	102.06
230.731	34.47
230.948	9.9
231.166	42.67
231.384	-8.53
231.601	48.81
231.819	63.15
232.037	83.63
232.254	30.38
232.472	13.99
232.689	54.95
232.907	-0.34
233.125	42.67
233.342	-39.25
233.56	71.34
233.777	-20.82
233.995	11.95
234.213	63.15
234.43	26.28
234.648	44.71
234.865	16.04
235.083	71.34
235.3	-41.3
235.518	-37.2
235.735	63.15
235.953	48.81
236.17	-8.53
236.388	-22.87
236.605	-8.53
236.822	22.19
237.04	5.8
237.257	61.1
237.475	20.14
237.692	11.95
237.909	5.8
238.127	7.85
238.344	50.86
238.562	48.81
238.779	-29.01
238.996	38.57
239.214	-12.63
239.431	77.48
239.648	-22.87
239.865	-59.73
240.083	48.81
240.3	28.33
240.517	40.62
240.735	18.09
240.952	-10.58
241.169	79.53
241.386	3.75
241.603	-84.31
241.821	36.52
242.038	106.15
242.255	24.23
242.472	-33.11
242.689	42.67
242.907	44.71
243.124	28.33
243.341	40.62
243.558	38.57
243.775	83.63
243.992	32.43
244.209	65.19
244.426	28.33
244.643	11.95
244.86	73.39
245.078	30.38
245.295	61.1
245.512	69.29
245.729	-4.44
245.946	13.99
246.163	-10.58
246.38	-4.44
246.597	-18.77
246.814	18.09
247.031	-16.73
247.248	22.19
247.464	-47.44
247.681	20.14
247.898	-20.82
248.115	87.72
248.332	30.38
248.549	38.57
248.766	65.19
248.983	87.72
249.2	81.58
249.417	40.62
249.633	26.28
249.85	81.58
250.067	-31.06
250.284	13.99
250.501	18.09
250.717	89.77
250.934	-29.01
251.151	-37.2
251.368	-2.39
251.585	100.01
251.801	61.1
252.018	-20.82
252.235	28.33
252.451	16.04
252.668	9.9
252.885	118.44
253.102	-45.4
253.318	1.71
253.535	24.23
253.752	63.15
253.968	69.29
254.185	5.8
254.401	57
254.618	48.81
254.835	-0.34
255.051	81.58
255.268	9.9
255.484	30.38
255.701	57
255.917	22.19
256.134	-37.2
256.351	-16.73
256.567	-10.58
256.784	16.04
257	-33.11
257.217	22.19
257.433	26.28
257.65	59.05
257.866	50.86
258.082	-8.53
258.299	7.85
258.515	42.67
258.732	-12.63
258.948	16.04
259.165	100.01
259.381	40.62
259.597	32.43
259.814	42.67
260.03	77.48
260.246	13.99
260.463	46.76
260.679	44.71
260.895	-45.4
261.112	89.77
261.328	44.71
261.544	77.48
261.761	42.67
261.977	13.99
262.193	38.57
262.409	36.52
262.626	-22.87
262.842	50.86
263.058	-10.58
263.274	22.19
263.49	42.67
263.707	-0.34
263.923	59.05
264.139	-74.07
264.355	57
264.571	40.62
264.787	18.09
265.004	-16.73
265.22	26.28
265.436	13.99
265.652	-39.25
265.868	34.47
266.084	20.14
266.3	44.71
266.516	1.71
266.732	67.24
266.948	38.57
267.164	59.05
267.38	22.19
267.596	26.28
267.812	54.95
268.028	52.91
268.244	46.76
268.46	16.04
268.676	46.76
268.892	108.2
269.108	-16.73
269.324	52.91
269.54	28.33
269.756	46.76
269.972	26.28
270.188	13.99
270.403	-31.06
270.619	91.82
270.835	-4.44
271.051	69.29
271.267	11.95
271.483	97.96
271.698	46.76
271.914	32.43
272.13	50.86
272.346	-8.53
272.562	16.04
272.777	32.43
272.993	-8.53
273.209	-0.34
273.425	-65.88
273.64	24.23
273.856	61.1
274.072	-2.39
274.287	-49.49
274.503	7.85
274.719	83.63
274.934	11.95
275.15	-16.73
275.366	52.91
275.581	34.47
275.797	34.47
276.012	13.99
276.228	-35.16
276.444	-24.92
276.659	57
276.875	38.57
277.09	61.1
277.306	7.85
277.521	-24.92
277.737	-8.53
277.952	57
278.168	102.06
278.383	-69.97
278.599	-24.92
278.814	69.29
279.03	73.39
279.245	40.62
279.461	1.71
279.676	42.67
279.892	30.38
280.107	46.76
280.322	-20.82
280.538	89.77
280.753	-10.58
280.969	22.19
281.184	32.43
281.399	77.48
281.615	-8.53
281.83	102.06
282.045	-26.96
282.26	89.77
282.476	38.57
282.691	34.47
282.906	-8.53
283.122	13.99
283.337	65.19
283.552	102.06
283.767	81.58
283.983	11.95
284.198	63.15
284.413	18.09
284.628	71.34
284.843	54.95
285.058	20.14
285.274	-24.92
285.489	-0.34
285.704	13.99
285.919	-12.63
286.134	87.72
286.349	77.48
286.564	13.99
286.779	13.99
286.995	-65.88
287.21	3.75
287.425	93.87
287.64	-4.44
287.855	-10.58
288.07	34.47
288.285	32.43
288.5	151.21
288.715	108.2
288.93	42.67
289.145	13.99
289.36	77.48
289.575	97.96
289.79	71.34
290.004	24.23
290.219	83.63
290.434	13.99
290.649	32.43
290.864	16.04
291.079	81.58
291.294	-41.3
291.509	61.1
291.724	24.23
291.938	-12.63
292.153	22.19
292.368	-14.68
292.583	18.09
292.798	48.81
293.012	89.77
293.227	-4.44
293.442	26.28
293.657	38.57
293.871	38.57
294.086	89.77
294.301	89.77
294.516	114.34
294.73	32.43
294.945	-8.53
295.16	-8.53
295.374	104.11
295.589	-16.73
295.804	5.8
296.018	81.58
296.233	-0.34
296.447	93.87
296.662	20.14
296.877	73.39
297.091	61.1
297.306	85.67
297.52	87.72
297.735	73.39
297.949	-22.87
298.164	16.04
298.378	54.95
298.593	30.38
298.807	38.57
299.022	73.39
299.236	3.75
299.451	48.81
299.665	65.19
299.88	118.44
300.094	48.81
300.309	67.24
300.523	-12.63
300.737	34.47
300.952	-18.77
301.166	20.14
301.381	-22.87
301.595	52.91
301.809	50.86
302.024	22.19
302.238	13.99
302.452	143.02
302.667	3.75
302.881	128.68
303.095	67.24
303.309	93.87
303.524	54.95
303.738	48.81
303.952	-22.87
304.166	30.38
304.381	-14.68
304.595	34.47
304.809	38.57
305.023	50.86
305.237	-2.39
305.452	48.81
305.666	26.28
305.88	48.81
306.094	13.99
306.308	-22.87
306.522	59.05
306.736	-14.68
306.95	36.52
307.164	16.04
307.379	83.63
307.593	46.76
307.807	24.23
308.021	5.8
308.235	-41.3
308.449	-0.34
308.663	38.57
308.877	100.01
309.091	-6.49
309.305	75.43
309.519	22.19
309.733	87.72
309.947	18.09
310.161	28.33
310.374	73.39
310.588	57
310.802	30.38
311.016	32.43
311.23	83.63
311.444	26.28
311.658	46.76
311.872	93.87
312.085	97.96
312.299	122.54
312.513	13.99
312.727	59.05
312.941	97.96
313.154	5.8
313.368	-18.77
313.582	120.49
313.796	57
314.009	44.71
314.223	-12.63
314.437	-4.44
314.651	32.43
314.864	24.23
315.078	36.52
315.292	-74.07
315.505	114.34
315.719	77.48
315.933	-0.34
316.146	46.76
316.36	-10.58
316.573	-47.44
316.787	-0.34
317.001	65.19
317.214	9.9
317.428	36.52
317.641	20.14
317.855	40.62
318.068	11.95
318.282	32.43
318.495	63.15
318.709	5.8
318.922	38.57
319.136	54.95
319.349	36.52
319.563	22.19
319.776	42.67
319.99	61.1
320.203	24.23
320.417	-2.39
320.63	24.23
320.843	77.48
321.057	-20.82
321.27	13.99
321.483	81.58
321.697	-12.63
321.91	28.33
322.124	79.53
322.337	-22.87
322.55	7.85
322.763	-12.63
322.977	7.85
323.19	13.99
323.403	20.14
323.617	-20.82
323.83	22.19
324.043	73.39
324.256	18.09
324.469	85.67
324.683	11.95
324.896	24.23
325.109	22.19
325.322	-59.73
325.535	79.53
325.748	36.52
325.962	28.33
326.175	16.04
326.388	36.52
326.601	89.77
326.814	63.15
327.027	114.34
327.24	112.3
327.453	48.81
327.666	102.06
327.879	11.95
328.092	36.52
328.305	85.67
328.518	48.81
328.731	5.8
328.944	57
329.157	-24.92
329.37	42.67
329.583	18.09
329.796	93.87
330.009	32.43
330.222	50.86
330.435	24.23
330.648	-31.06
330.861	22.19
331.073	50.86
331.286	87.72
331.499	91.82
331.712	63.15
331.925	1.71
332.138	40.62
332.35	1.71
332.563	18.09
332.776	36.52
332.989	75.43
333.202	59.05
333.414	30.38
333.627	-22.87
333.84	-8.53
334.053	46.76
334.265	24.23
334.478	149.16
334.691	57
334.903	26.28
335.116	46.76
335.329	36.52
335.541	93.87
335.754	24.23
335.966	110.25
336.179	32.43
336.392	69.29
336.604	11.95
336.817	50.86
337.029	52.91
337.242	-39.25
337.454	108.2
337.667	7.85
337.88	67.24
338.092	63.15
338.305	30.38
338.517	89.77
338.729	42.67
338.942	73.39
339.154	42.67
339.367	28.33
339.579	87.72
339.792	26.28
340.004	9.9
340.217	65.19
340.429	32.43
340.641	24.23
340.854	11.95
341.066	28.33
341.278	87.72
341.491	50.86
341.703	30.38
341.915	69.29
342.128	-2.39
342.34	34.47
342.552	28.33
342.764	54.95
342.977	87.72
343.189	36.52
343.401	13.99
343.613	11.95
343.826	48.81
344.038	100.01
344.25	132.78
344.462	38.57
344.674	-12.63
344.886	42.67
345.099	71.34
345.311	44.71
345.523	65.19
345.735	46.76
345.947	69.29
346.159	36.52
346.371	42.67
346.583	85.67
346.795	81.58
347.007	46.76
347.219	85.67
347.431	61.1
347.643	52.91
347.855	73.39
348.067	22.19
348.279	24.23
348.491	65.19
348.703	120.49
348.915	11.95
349.127	48.81
349.339	65.19
349.551	81.58
349.763	83.63
349.975	5.8
350.187	89.77
350.399	104.11
350.61	79.53
350.822	-24.92
351.034	149.16
351.246	-33.11
351.458	44.71
351.669	54.95
351.881	44.71
352.093	52.91
352.305	44.71
352.517	52.91
352.728	71.34
352.94	24.23
353.152	36.52
353.363	20.14
353.575	100.01
353.787	87.72
353.999	9.9
354.21	46.76
354.422	79.53
354.633	79.53
354.845	79.53
355.057	5.8
355.268	77.48
355.48	69.29
355.692	20.14
355.903	155.3
356.115	11.95
356.326	9.9
356.538	71.34
356.749	24.23
356.961	102.06
357.172	44.71
357.384	40.62
357.595	91.82
357.807	-12.63
358.018	34.47
358.23	48.81
358.441	85.67
358.653	71.34
358.864	-16.73
359.075	18.09
359.287	5.8
359.498	1.71
359.709	22.19
359.921	75.43
360.132	11.95
360.344	87.72
360.555	61.1
360.766	-2.39
360.977	9.9
361.189	118.44
361.4	48.81
361.611	85.67
361.823	28.33
362.034	20.14
362.245	26.28
362.456	124.58
362.667	95.91
362.879	11.95
363.09	-43.35
363.301	65.19
363.512	13.99
363.723	57
363.935	54.95
364.146	24.23
364.357	81.58
364.568	42.67
364.779	18.09
364.99	71.34
365.201	46.76
365.412	22.19
365.623	1.71
365.834	63.15
366.045	48.81
366.256	48.81
366.467	65.19
366.678	46.76
366.889	57
367.1	22.19
367.311	-16.73
367.522	-8.53
367.733	24.23
367.944	42.67
368.155	69.29
368.366	151.21
368.577	63.15
368.788	100.01
368.999	-49.49
369.209	59.05
369.42	79.53
369.631	28.33
369.842	102.06
370.053	59.05
370.264	-2.39
370.474	-18.77
370.685	38.57
370.896	59.05
371.107	124.58
371.317	87.72
371.528	22.19
371.739	143.02
371.95	28.33
372.16	54.95
372.371	-37.2
372.582	38.57
372.792	40.62
373.003	18.09
373.214	32.43
373.424	22.19
373.635	1.71
373.846	69.29
374.056	38.57
374.267	-57.68
374.477	1.71
374.688	38.57
374.898	16.04
375.109	112.3
375.319	69.29
375.53	138.92
375.74	126.63
375.951	71.34
376.161	61.1
376.372	34.47
376.582	42.67
376.793	73.39
377.003	71.34
377.214	30.38
377.424	-12.63
377.635	36.52
377.845	48.81
378.055	5.8
378.266	42.67
378.476	67.24
378.686	52.91
378.897	7.85
379.107	71.34
379.317	42.67
379.528	30.38
379.738	67.24
379.948	5.8
380.158	104.11
380.369	130.73
380.579	20.14
380.789	-24.92
380.999	54.95
381.21	87.72
381.42	136.87
381.63	28.33
381.84	120.49
382.05	50.86
382.261	132.78
382.471	102.06
382.681	50.86
382.891	104.11
383.101	132.78
383.311	59.05
383.521	69.29
383.731	102.06
383.941	83.63
384.151	42.67
384.361	100.01
384.571	63.15
384.781	67.24
384.991	71.34
385.201	112.3
385.411	36.52
385.621	106.15
385.831	-10.58
386.041	38.57
386.251	32.43
386.461	81.58
386.671	81.58
386.881	79.53
387.091	-14.68
387.301	28.33
387.511	40.62
387.72	32.43
387.93	57
388.14	52.91
388.35	38.57
388.56	11.95
388.769	18.09
388.979	145.06
389.189	-4.44
389.399	11.95
389.609	108.2
389.818	34.47
390.028	79.53
390.238	42.67
390.447	79.53
390.657	85.67
390.867	26.28
391.076	93.87
391.286	114.34
391.496	91.82
391.705	46.76
391.915	73.39
392.125	61.1
392.334	110.25
392.544	112.3
392.753	73.39
392.963	108.2
393.172	79.53
393.382	32.43
393.591	114.34
393.801	140.97
394.01	112.3
394.22	46.76
394.429	79.53
394.639	93.87
394.848	40.62
395.058	91.82
395.267	87.72
395.477	28.33
395.686	57
395.895	149.16
396.105	77.48
396.314	122.54
396.524	159.4
396.733	134.82
396.942	120.49
397.152	120.49
397.361	163.5
397.57	114.34
397.78	151.21
397.989	67.24
398.198	122.54
398.407	30.38
398.617	124.58
398.826	153.26
399.035	93.87
399.244	134.82
399.453	212.65
399.663	149.16
399.872	194.22
400.081	46.76
400.29	143.02
400.499	157.35
400.708	157.35
400.917	151.21
401.127	196.26
401.336	91.82
401.545	183.98
401.754	183.98
401.963	165.54
402.172	124.58
402.381	153.26
402.59	153.26
402.799	206.5
403.008	163.5
403.217	153.26
403.426	93.87
403.635	192.17
403.844	212.65
404.053	165.54
404.262	132.78
404.471	190.12
404.68	208.55
404.888	124.58
405.097	153.26
405.306	208.55
405.515	188.07
405.724	308.9
405.933	200.36
406.142	196.26
406.35	188.07
406.559	220.84
406.768	200.36
406.977	290.47
407.185	206.5
407.394	269.99
407.603	251.56
407.812	222.89
408.02	269.99
408.229	249.51
408.438	356.01
408.646	253.61
408.855	202.41
409.064	337.57
409.272	280.23
409.481	386.72
409.69	325.29
409.898	366.25
410.107	390.82
410.315	386.72
410.524	460.45
410.733	353.96
410.941	423.59
411.15	485.03
411.358	540.32
411.567	540.32
411.775	550.56
411.984	495.27
412.192	599.71
412.401	679.58
412.609	601.76
412.818	640.67
413.026	609.95
413.234	714.4
413.443	716.45
413.651	683.68
413.86	693.92
414.068	808.61
414.276	876.19
414.485	831.13
414.693	818.85
414.901	882.33
415.11	919.2
415.318	941.72
415.526	1015.45
415.734	1003.16
415.943	1027.74
416.151	1017.5
416.359	1054.36
416.567	1083.03
416.776	1095.32
416.984	1332.89
417.192	1283.74
417.4	1384.09
417.608	1314.45
417.817	1423
418.025	1412.76
418.233	1558.16
418.441	1423
418.649	1617.55
418.857	1644.18
419.065	1793.68
419.273	1820.3
419.481	1818.25
419.689	1875.6
419.897	2010.76
420.105	2000.52
420.313	2035.34
420.521	2182.79
420.729	2150.03
420.937	2311.82
421.145	2459.27
421.353	2395.78
421.561	2592.39
421.769	2489.99
421.977	2723.46
422.185	2692.74
422.393	2848.38
422.601	3102.33
422.809	2967.17
423.017	3229.31
423.224	3147.39
423.432	3257.98
423.64	3393.14
423.848	3593.84
424.056	3632.76
424.263	3747.44
424.471	3901.04
424.679	4021.87
424.887	4243.05
425.094	4333.16
425.302	4261.48
425.51	4550.25
425.718	4580.96
425.925	4609.64
426.133	4877.92
426.341	5099.1
426.548	5355.1
426.756	5178.97
426.964	5426.78
427.171	5850.71
427.379	5787.22
427.586	6092.37
427.794	6174.28
428.001	6495.82
428.209	6780.48
428.417	6512.2
428.624	7108.16
428.832	7007.81
429.039	7085.63
429.247	7028.29
429.454	7859.76
429.662	8267.31
429.869	7679.54
430.076	8310.32
430.284	8123.95
430.491	8572.46
430.699	9002.53
430.906	8810.02
431.114	9025.06
431.321	9477.66
431.528	9489.95
431.736	10270.22
431.943	10442.25
432.15	10229.26
432.358	10380.81
432.565	10999.3
432.772	11030.02
432.979	11408.89
433.187	11646.46
433.394	11709.94
433.601	12418.54
433.808	12473.84
434.016	12424.69
434.223	12953.06
434.43	13817.3
434.637	13624.79
434.844	14573
435.052	14667.21
435.259	14882.25
435.466	14800.33
435.673	14482.89
435.88	15324.61
436.087	16250.29
436.294	16424.37
436.501	16151.99
436.708	16317.87
436.915	17038.76
437.122	17667.49
437.329	17601.95
437.537	18285.97
437.743	18599.31
437.95	18349.46
438.157	19174.79
438.364	19811.71
438.571	19987.83
438.778	19826.04
438.985	21867.87
439.192	20784.49
439.399	21687.65
439.606	21302.63
439.813	22605.14
440.02	23872.83
440.227	23385.41
440.433	23061.83
440.64	23885.12
440.847	23702.85
441.054	24331.58
441.261	25961.76
441.467	25642.28
441.674	26148.12
441.881	27036.94
442.088	27018.51
442.294	26705.17
442.501	27544.84
442.708	27895.04
442.914	29412.59
443.121	30422.23
443.328	29723.88
443.534	31626.44
443.741	30581.98
443.948	30209.25
444.154	32654.52
444.361	32150.72
444.568	32517.31
444.774	32941.24
444.981	33252.53
445.187	33811.62
445.394	35327.12
445.6	34860.18
445.807	38001.77
446.013	36813.94
446.22	37307.51
446.426	38935.64
446.633	39218.26
446.839	40408.13
447.046	38597.73
447.252	40942.65
447.459	40758.33
447.665	40535.1
447.871	42378.28
448.078	44037.13
448.284	41800.75
448.491	42990.62
448.697	44860.41
448.903	45528.05
449.11	45736.94
449.316	44854.27
449.522	45843.44
449.728	46947.29
449.935	47041.5
450.141	47428.57
450.347	48262.09
450.553	46916.57
450.76	47616.98
450.966	48812.99
451.172	48153.55
451.378	49650.61
451.584	48225.23
451.791	49611.7
451.997	49054.65
452.203	50097.07
452.409	50570.15
452.615	49740.72
452.821	47789.01
453.027	47326.17
453.233	49787.83
453.44	48010.19
453.646	48178.12
453.852	48876.48
454.058	49367.99
454.264	48245.71
454.47	49025.98
454.676	47580.12
454.882	49236.92
455.088	44893.18
455.294	45376.5
455.5	46187.5
455.705	46797.79
455.911	44762.11
456.117	43813.9
456.323	43146.26
456.529	41165.88
456.735	42871.84
456.941	41704.49
457.147	40600.64
457.352	39752.78
457.558	39332.95
457.764	39728.2
457.97	38487.14
458.176	37971.05
458.381	37626.99
458.587	35708.04
458.793	36025.48
458.999	33967.27
459.204	36129.92
459.41	35284.11
459.616	33098.93
459.821	33408.17
460.027	32541.88
460.233	32453.82
460.438	30682.33
460.644	31014.1
460.85	29672.68
461.055	28859.63
461.261	29089.01
461.466	26692.88
461.672	25857.31
461.878	27561.22
462.083	25750.82
462.289	25732.39
462.494	25345.32
462.7	24044.86
462.905	23608.64
463.111	24384.82
463.316	24356.15
463.522	24110.39
463.727	24018.24
463.932	23885.12
464.138	23864.64
464.343	23768.38
464.549	23201.1
464.754	23602.5
464.959	23403.85
465.165	23369.03
465.37	22441.3
465.575	22052.19
465.781	22725.97
465.986	22664.53
466.191	22261.08
466.397	21775.71
466.602	20333.94
466.807	21515.62
467.012	21611.87
467.218	21218.66
467.423	21181.8
467.628	21165.42
467.833	21943.64
468.038	21065.07
468.244	20530.55
468.449	21364.07
468.654	20510.07
468.859	20323.7
469.064	20544.88
469.269	19586.43
469.474	19694.97
469.679	19989.88
469.885	19664.25
470.09	20112.76
470.295	19647.87
470.5	19309.96
470.705	19266.95
470.91	18902.41
471.115	18955.66
471.32	18953.61
471.525	18720.14
471.73	18386.32
471.935	18120.09
472.139	17876.38
472.344	17780.12
472.549	17655.2
472.754	17640.86
472.959	17167.78
473.164	16813.48
473.369	16407.98
473.574	17042.85
473.778	17071.53
473.983	16684.46
474.188	16612.78
474.393	15932.86
474.598	16117.17
474.802	15771.07
475.007	15775.16
475.212	15719.87
475.417	15193.54
475.621	15048.13
475.826	15203.78
476.031	14962.12
476.235	14790.09
476.44	15082.95
476.645	14599.63
476.849	14917.06
477.054	14456.27
477.259	14061.01
477.463	14208.47
477.668	13940.18
477.872	13989.33
478.077	13888.98
478.282	13538.78
478.486	13417.95
478.691	13174.24
478.895	13340.13
479.1	13243.87
479.304	13229.54
479.509	12756.46
479.713	12871.14
479.918	12729.83
480.122	12621.29
480.326	12551.66
480.531	12670.44
480.735	12314.09
480.94	12430.83
481.144	12881.38
481.348	12291.57
481.553	12301.81
481.757	12242.42
481.961	12236.27
482.166	12461.55
482.37	12381.68
482.574	12486.12
482.778	12221.94
482.983	12226.03
483.187	12189.17
483.391	12285.42
483.595	12135.92
483.8	12037.62
484.004	12107.25
484.208	12047.86
484.412	12066.29
484.616	12232.18
484.821	12047.86
485.025	12094.96
485.229	12238.32
485.433	11959.8
485.637	12312.05
485.841	11894.26
486.045	11927.03
486.249	12103.15
486.453	11972.08
486.657	11947.51
486.861	12205.55
487.065	11800.05
487.269	11922.93
487.473	11830.77
487.677	12238.32
487.881	12133.87
488.085	12060.15
488.289	12332.53
488.493	11970.04
488.697	12195.31
488.901	12328.43
489.105	12006.9
489.309	11871.73
489.512	12164.59
489.716	12193.26
489.92	12033.52
490.124	12080.63
490.328	12408.3
490.531	12381.68
490.735	12240.37
490.939	12373.49
491.143	12353.01
491.346	12058.1
491.55	12772.84
491.754	12639.72
491.958	12475.88
492.161	12666.35
492.365	12572.14
492.569	12506.6
492.772	12656.11
492.976	12699.11
493.18	12821.99
493.383	13000.16
493.587	13192.67
493.79	13299.17
493.994	12977.64
494.197	12801.51
494.401	13460.96
494.605	13092.32
494.808	13424.09
495.012	13561.31
495.215	13536.73
495.419	13573.6
495.622	13577.69
495.825	13915.61
496.029	13944.28
496.232	14181.84
496.436	14192.08
496.639	14656.97
496.843	14327.25
497.046	14499.28
497.249	14794.18
497.453	14841.29
497.656	15191.49
497.859	15029.7
498.063	15164.87
498.266	15365.57
498.469	15596.99
498.673	15752.63
498.876	16012.73
499.079	15959.48
499.282	16133.56
499.485	16600.49
499.689	16494
499.892	16770.47
500.095	16930.22
500.298	17231.27
500.501	16903.59
500.705	17106.34
500.908	17464.74
501.111	17587.61
501.314	17915.29
501.517	18165.14
501.72	18376.08
501.923	18183.57
502.126	18720.14
502.329	19078.54
502.532	19277.19
502.735	19162.5
502.938	19348.87
503.141	19303.81
503.344	19815.8
503.547	19971.45
503.75	20188.53
503.953	20649.33
504.156	20878.7
504.359	20766.06
504.562	20839.79
504.765	21488.99
504.968	21536.1
505.17	21816.67
505.373	21990.75
505.576	22138.2
505.779	22244.7
505.982	22424.92
506.185	22869.33
506.387	22951.24
506.59	23260.49
506.793	23778.62
506.996	23508.29
507.198	24077.63
507.401	23797.06
507.604	24257.85
507.807	25189.67
508.009	24884.53
508.212	24954.16
508.415	25695.52
508.617	25763.11
508.82	25748.77
509.022	25738.53
509.225	26594.58
509.428	26434.84
509.63	26506.52
509.833	26746.13
510.035	27548.93
510.238	27184.4
510.44	27540.74
510.643	27927.81
510.845	28253.44
511.048	28163.32
511.25	28615.93
511.453	28693.75
511.655	29498.6
511.858	29252.84
512.06	29611.24
512.262	29891.81
512.465	30069.98
512.667	30508.25
512.87	30751.96
513.072	30944.47
513.274	31053.01
513.477	31390.92
513.679	31773.89
513.881	32292.03
514.084	32478.4
514.286	32277.69
514.488	32658.62
514.69	33586.35
514.893	33381.55
515.095	33625.26
515.297	33590.44
515.499	34380.96
515.701	34436.25
515.904	35085.46
516.106	35024.02
516.308	35345.55
516.51	35675.27
516.712	36082.82
516.914	36177.03
517.116	36881.53
517.318	36596.86
517.52	37252.21
517.722	37065.85
517.925	37262.45
518.127	37772.39
518.329	37827.69
518.531	38007.91
518.733	38804.57
518.935	39085.14
519.136	38872.15
519.338	39527.5
519.54	39558.22
519.742	40217.67
519.944	40244.29
520.146	40897.59
520.348	41169.97
520.55	40924.22
520.752	41346.1
520.954	41632.82
521.155	41315.38
521.357	42128.42
521.559	42333.22
521.761	42949.66
521.963	42636.32
522.164	43228.18
522.366	43281.43
522.568	43451.41
522.77	43641.87
522.971	44180.49
523.173	43635.73
523.375	44524.55
523.576	44538.88
523.778	44510.21
523.98	44952.57
524.181	44897.28
524.383	45179.9
524.584	46093.29
524.786	45790.19
524.988	45650.93
525.189	46504.93
525.391	46408.68
525.592	46887.9
525.794	46588.9
525.995	46851.04
526.197	46969.82
526.398	47217.63
526.6	47510.49
526.801	47608.79
527.003	47868.88
527.204	47819.73
527.406	47846.35
527.607	47832.02
527.808	48497.61
528.01	47563.73
528.211	48128.97
528.412	49038.27
528.614	48616.39
528.815	48923.58
529.016	48931.78
529.218	48219.08
529.419	49116.09
529.62	48993.22
529.822	48563.14
530.023	49169.34
530.224	49071.04
530.425	49564.6
530.626	48985.02
530.828	48645.06
531.029	50015.15
531.23	49228.73
531.431	49320.89
531.632	49167.29
531.833	49533.88
532.035	49951.66
532.236	49806.26
532.437	50056.11
532.638	49501.11
532.839	49611.7
533.04	49863.6
533.241	49249.21
533.442	50353.07
533.643	49720.24
533.844	49656.76
534.045	49898.42
534.246	49021.89
534.447	50228.14
534.648	49822.64
534.849	49562.55
535.05	49400.76
535.251	50117.55
535.451	49337.27
535.652	49818.55
535.853	49689.52
536.054	49648.57
536.255	49857.46
536.456	49005.5
536.657	50574.25
536.857	49591.22
537.058	49339.32
537.259	49865.65
537.46	50031.54
537.66	49755.06
537.861	49697.72
538.062	49783.73
538.263	49947.57
538.463	49808.31
538.664	49421.24
538.865	49562.55
539.065	49974.19
539.266	49427.38
539.466	49910.71
539.667	49402.81
539.868	49697.72
540.068	49785.78
540.269	49292.22
540.469	49636.28
540.67	49697.72
540.87	49224.64
541.071	49103.81
541.271	49533.88
541.472	49546.17
541.672	49302.46
541.873	48950.21
542.073	48702.4
542.274	49636.28
542.474	48935.87
542.675	48987.07
542.875	49445.82
543.075	48927.68
543.276	48870.34
543.476	49681.33
543.676	49181.63
543.877	49189.82
544.077	49007.55
544.277	49007.55
544.478	49073.09
544.678	49284.03
544.878	48939.97
545.078	48710.6
545.279	48735.17
545.479	49007.55
545.679	48776.13
545.879	48665.54
546.079	48686.02
546.28	48552.9
546.48	48444.36
546.68	48751.55
546.88	49056.7
547.08	48772.03
547.28	48421.83
547.48	48749.51
547.68	48704.45
547.88	48540.61
548.081	48315.34
548.281	48468.94
548.481	48776.13
548.681	48858.05
548.881	48544.71
549.081	48866.24
549.28	48268.23
549.48	48792.51
549.68	48698.31
549.88	49636.28
550.08	48317.39
550.28	49144.76
550.48	48321.48
550.68	48866.24
550.88	48337.87
551.08	48489.41
551.279	48815.04
551.479	48522.18
551.679	48497.61
551.879	48628.68
552.079	48724.93
552.278	48436.17
552.478	48501.7
552.678	48403.4
552.878	48350.15
553.077	48501.7
553.277	47752.15
553.477	48477.13
553.676	48233.42
553.876	48174.03
554.076	48145.36
554.275	48167.88
554.475	47827.92
554.674	47950.8
554.874	48296.91
555.074	47655.89
555.273	47903.7
555.473	48165.84
555.672	47762.39
555.872	47723.47
556.071	48204.75
556.271	47987.66
556.47	47336.41
556.67	47623.12
556.869	47948.75
557.068	47881.17
557.268	47234.01
557.467	47391.7
557.667	47358.94
557.866	47516.63
558.065	47211.48
558.265	47252.44
558.464	46957.53
558.663	47825.87
558.863	47135.71
559.062	47842.26
559.261	46969.82
559.461	47129.56
559.66	46375.91
559.859	47342.55
560.058	46586.85
560.258	46928.86
560.457	46586.85
560.656	46990.3
560.855	46646.24
561.054	46552.04
561.253	46631.91
561.453	46529.51
561.652	46629.86
561.851	46838.75
562.05	46496.74
562.249	46027.76
562.448	46570.47
562.647	46298.09
562.846	46136.3
563.045	46105.58
563.244	45689.84
563.443	46461.93
563.642	45706.23
563.841	46150.63
564.04	45564.92
564.239	46085.1
564.438	45708.27
564.637	45861.87
564.836	45915.12
565.035	45497.33
565.234	45569.01
565.432	45345.78
565.631	44966.91
565.83	45671.41
566.029	45112.31
566.228	45214.71
566.427	45030.4
566.625	44897.28
566.824	44323.85
567.023	44977.15
567.222	44090.38
567.42	45153.27
567.619	44329.99
567.818	44467.2
568.016	44362.76
568.215	44616.71
568.414	44082.19
568.612	44516.36
568.811	44112.91
569.01	44139.53
569.208	43557.91
569.407	44080.14
569.605	43385.88
569.804	44071.95
570.002	43312.15
570.201	43791.37
570.4	43349.01
570.598	43398.16
570.797	42941.47
570.995	43525.14
571.193	43084.83
571.392	43074.59
571.59	42746.91
571.789	42777.63
571.987	42585.12
572.186	42693.66
572.384	42327.08
572.582	42734.62
572.781	42456.1
572.979	42601.5
573.177	42449.95
573.376	42341.41
573.574	41972.78
573.772	42091.56
573.971	42355.75
574.169	41645.1
574.367	41522.23
574.565	41962.54
574.763	41770.03
574.962	41651.25
575.16	40793.15
575.358	41442.35
575.556	41024.57
575.754	41559.09
575.952	40903.74
576.151	41118.78
576.349	40791.1
576.547	40832.06
576.745	40985.66
576.943	41192.5
577.141	40758.33
577.339	40301.64
577.537	40412.23
577.735	40006.73
577.933	39846.99
578.131	40027.21
578.329	40031.3
578.527	39894.09
578.725	40113.22
578.923	39978.06
579.121	39769.16
579.319	39601.23
579.516	39941.19
579.714	39490.64
579.912	39457.87
580.11	39011.42
580.308	39337.04
580.506	38962.26
580.704	38573.15
580.901	39079
581.099	39277.65
581.297	38646.88
581.495	38462.56
581.692	38534.24
581.89	38116.45
582.088	38446.18
582.285	38325.35
582.483	38206.56
582.681	38366.31
582.878	38077.54
583.076	37801.07
583.274	37981.29
583.471	37334.13
583.669	37872.74
583.866	37479.53
584.064	37708.91
584.262	37340.27
584.459	37475.44
584.657	37033.08
584.854	37252.21
585.052	36527.23
585.249	37071.99
585.447	36893.82
585.644	36230.27
585.841	36811.9
586.039	36793.47
586.236	35980.42
586.434	36312.19
586.631	36138.12
586.828	36240.51
587.026	36052.1
587.223	35964.04
587.42	35970.18
587.618	35613.84
587.815	35705.99
588.012	35271.82
588.21	35423.37
588.407	35701.9
588.604	35493.01
588.801	34985.11
588.999	34874.52
589.196	34999.44
589.393	34929.81
589.59	34698.39
589.787	34591.9
589.984	34313.38
590.182	33957.03
590.379	34557.08
590.576	34518.17
590.773	34378.91
590.97	34000.04
591.167	33973.41
591.364	33780.9
591.561	34012.32
591.758	33492.14
591.955	33572.01
592.152	33825.96
592.349	33676.46
592.546	33555.63
592.743	33457.32
592.94	32967.86
593.137	33107.12
593.334	33254.58
593.531	32437.44
593.727	32976.05
593.924	32744.63
594.121	32644.28
594.318	32773.3
594.515	32107.71
594.712	32292.03
594.908	32257.21
595.105	32064.71
595.302	32074.95
595.499	32091.33
595.696	32068.8
595.892	31433.93
596.089	31698.12
596.286	31632.58
596.482	31571.14
596.679	31157.46
596.876	31608.01
597.072	31288.53
597.269	31263.95
597.466	30772.44
597.662	30903.51
597.859	31010
598.055	31122.64
598.252	30438.62
598.448	30835.92
598.645	30567.64
598.841	30020.83
599.038	30201.05
599.234	30156
599.431	29885.67
599.627	29850.85
599.824	29959.39
600.02	29803.75
600.217	29861.09
600.413	29762.79
600.609	29365.48
600.806	29347.05
601.002	29287.66
601.198	29275.37
601.395	29089.01
601.591	29418.73
601.787	28935.41
601.984	28597.49
602.18	29207.79
602.376	28577.01
602.572	28486.9
602.769	28685.56
602.965	27913.47
603.161	28343.55
603.357	28282.11
603.553	28200.19
603.75	28310.78
603.946	27876.61
604.142	28189.95
604.338	27550.98
604.534	27956.48
604.73	27583.75
604.926	27245.83
605.122	27354.38
605.318	27415.82
605.514	27409.67
605.71	27297.03
605.906	27424.01
606.102	26899.73
606.298	27274.51
606.494	27223.31
606.69	26866.96
606.886	27028.75
607.082	26572.05
607.278	26821.91
607.474	26529.05
607.67	26715.41
607.866	26191.13
608.062	26785.04
608.257	26299.67
608.453	26633.49
608.649	26408.22
608.845	26107.16
609.041	26187.04
609.236	26551.57
609.432	26086.68
609.628	26279.19
609.824	25724.19
610.019	25722.15
610.215	25986.33
610.411	25689.38
610.606	25429.29
610.802	26008.86
610.998	25515.3
611.193	25597.22
611.389	25500.97
611.584	25312.55
611.78	25201.96
611.976	25300.26
612.171	24976.69
612.367	25429.29
612.562	25068.84
612.758	24984.88
612.953	24640.82
613.149	24984.88
613.344	24716.59
613.539	25208.11
613.735	24624.43
613.93	24980.78
614.126	24706.35
614.321	25118
614.517	24786.22
614.712	24671.54
614.907	24278.33
615.103	24452.41
615.298	24214.84
615.493	24532.28
615.688	24120.63
615.884	24304.95
616.079	23991.61
616.274	24450.36
616.47	24141.11
616.665	24104.25
616.86	24245.56
617.055	24010.04
617.25	23901.5
617.445	24300.86
617.641	23491.91
617.836	23878.97
618.031	23356.74
618.226	23870.78
618.421	23610.69
618.616	23414.09
618.811	23199.05
619.006	23498.05
619.201	22828.37
619.396	23072.07
619.591	22562.13
619.786	23008.59
619.981	22609.23
620.176	23082.31
620.371	22500.69
620.566	22715.73
620.761	22469.97
620.956	22365.53
621.151	22242.65
621.346	22136.15
621.541	22087
621.735	21996.89
621.93	21618.02
622.125	21603.68
622.32	21521.76
622.515	21775.71
622.709	21249.38
622.904	21179.75
623.099	21208.42
623.294	21392.74
623.488	20987.24
623.683	20876.65
623.878	20833.64
624.072	20690.29
624.267	20544.88
624.462	20180.34
624.656	19967.35
624.851	20309.36
625.046	20120.95
625.24	19817.85
625.435	19811.71
625.629	19731.84
625.824	19690.88
626.018	19684.73
626.213	19307.91
626.407	19197.32
626.602	19006.86
626.796	19385.73
626.991	18822.54
627.185	18871.69
627.38	18728.33
627.574	18558.35
627.768	18537.87
627.963	18492.82
628.157	18204.05
628.352	18480.53
628.546	18044.31
628.74	18335.12
628.935	18040.22
629.129	18054.55
629.323	17745.31
629.517	17663.39
629.712	17620.38
629.906	17446.3
630.1	17145.25
630.294	17372.58
630.489	17200.55
630.683	16901.54
630.877	16653.74
631.071	16602.54
631.265	16862.63
631.459	16522.67
631.653	16809.39
631.848	16795.05
632.042	16301.49
632.236	16549.29
632.43	16002.49
632.624	16180.66
632.818	16022.97
633.012	15799.74
633.206	15926.71
633.4	15867.32
633.594	15560.13
633.788	15615.42
633.982	15656.38
634.176	15668.67
634.369	15209.92
634.563	15386.05
634.757	15300.03
634.951	15302.08
635.145	15050.18
635.339	15019.46
635.533	15007.17
635.726	14994.89
635.92	14509.52
636.114	14740.94
636.308	14697.93
636.501	14777.8
636.695	14669.26
636.889	14556.62
637.083	14165.46
637.276	14171.6
637.47	13991.38
637.664	14187.99
637.857	14114.26
638.051	14142.93
638.244	13655.51
638.438	13692.38
638.632	13618.65
638.825	13282.78
639.019	13538.78
639.212	13495.77
639.406	13661.66
639.599	13372.89
639.793	13385.18
639.986	13270.5
640.18	13264.35
640.373	13114.85
640.567	12676.59
640.76	12932.58
640.954	12885.48
641.147	12559.85
641.34	12643.82
641.534	12631.53
641.727	12625.39
641.92	12353.01
642.114	12568.04
642.307	12365.29
642.5	12101.11
642.694	12156.4
642.887	12035.57
643.08	12180.98
643.273	12152.31
643.467	12221.94
643.66	11775.48
643.853	11963.89
644.046	11601.4
644.239	11711.99
644.432	11732.47
644.626	11564.54
644.819	11544.06
645.012	11509.24
645.205	11333.12
645.398	11525.63
645.591	11230.72
645.784	11085.31
645.977	11161.09
646.17	11126.27
646.363	11136.51
646.556	10962.44
646.749	10999.3
646.942	10894.85
647.135	10753.54
647.328	10712.58
647.521	10661.38
647.714	10532.36
647.907	10642.95
648.099	10495.5
648.292	10581.51
648.485	10270.22
648.678	10288.65
648.871	10186.26
649.064	10053.14
649.256	10313.23
649.449	10223.12
649.642	9940.5
649.835	10010.13
650.027	10063.38
650.22	10006.03
650.413	9616.92
650.605	9743.89
650.798	9623.06
650.991	9639.45
651.183	9788.95
651.376	9537.05
651.568	9754.13
651.761	9432.6
651.954	9246.24
652.146	9539.1
652.339	9139.74
652.531	9190.94
652.724	9387.55
652.916	9293.34
653.109	9106.98
653.301	9076.26
653.494	9154.08
653.686	8744.49
653.879	9149.98
654.071	8885.8
654.263	8826.4
654.456	8719.91
654.648	8941.09
654.84	8480.3
655.033	8631.85
655.225	8609.32
655.417	8371.75
655.61	8508.97
655.802	8527.4
655.994	8398.38
656.186	8584.74
656.379	8193.58
656.571	8429.1
656.763	8113.71
656.955	8189.49
657.148	8078.9
657.34	8212.01
657.532	7962.16
657.724	7951.92
657.916	8085.04
658.108	7943.73
658.3	7853.62
658.492	7906.87
658.684	7740.98
658.876	7816.76
659.068	7818.8
659.26	7753.27
659.452	7669.3
659.644	7439.93
659.836	7573.05
660.028	7487.03
660.22	7513.66
660.412	7452.22
660.604	7372.35
660.796	7349.82
660.988	7358.01
661.18	7290.43
661.372	7071.29
661.563	7159.36
661.755	7130.69
661.947	7323.19
662.139	7112.25
662.331	7161.41
662.522	7132.73
662.714	6946.37
662.906	7030.34
663.097	6815.3
663.289	6860.35
663.481	6915.65
663.673	6874.69
663.864	6753.86
664.056	6696.52
664.247	6534.73
664.439	6653.51
664.631	6786.63
664.822	6825.54
665.014	6622.79
665.205	6471.24
665.397	6407.75
665.588	6299.21
665.78	6520.39
665.971	6379.08
666.163	6444.62
666.354	6448.71
666.546	6282.83
666.737	6110.8
666.929	6323.79
667.12	6180.43
667.311	6053.45
667.503	6037.07
667.694	6143.56
667.885	6022.73
668.077	6196.81
668.268	5895.76
668.459	6114.89
668.651	5967.44
668.842	6010.45
669.033	5834.32
669.224	5746.26
669.416	5897.81
669.607	5842.51
669.798	5752.4
669.989	5862.99
670.18	5887.57
670.371	5688.92
670.563	5680.72
670.754	5701.2
670.945	5715.54
671.136	5647.96
671.327	5535.32
671.518	5514.84
671.709	5586.52
671.9	5506.65
672.091	5465.69
672.282	5488.21
672.473	5475.93
672.664	5324.38
672.855	5344.86
673.046	5398.1
673.237	5303.9
673.428	5322.33
673.619	5336.67
673.809	5199.45
674	5142.11
674.191	5232.22
674.382	5209.69
674.573	5226.07
674.764	5113.44
674.954	5062.24
675.145	5099.1
675.336	5115.48
675.527	5160.54
675.717	5058.14
675.908	5170.78
676.099	5095
676.289	4992.61
676.48	4802.15
676.671	4957.79
676.861	5056.09
677.052	4904.54
677.243	4879.97
677.433	4877.92
677.624	4877.92
677.814	4785.76
678.005	4810.34
678.195	4763.23
678.386	4796
678.576	4752.99
678.767	4865.63
678.957	4802.15
679.148	4755.04
679.338	4757.09
679.529	4765.28
679.719	4669.03
679.909	4746.85
680.1	4847.2
680.29	4607.59
680.481	4718.18
680.671	4740.71
680.861	4574.82
681.052	4580.96
681.242	4523.62
681.432	4609.64
681.622	4417.13
681.813	4353.64
682.003	4386.41
682.193	4482.66
682.383	4431.46
682.573	4509.29
682.764	4337.26
682.954	4398.7
683.144	4441.7
683.334	4425.32
683.524	4570.72
683.714	4449.89
683.904	4288.11
684.094	4484.71
684.284	4218.47
684.474	4376.17
684.664	4316.78
684.854	4312.68
685.044	4275.82
685.234	4218.47
685.424	4253.29
685.614	4011.63
685.804	4167.28
685.994	4154.99
686.184	4306.54
686.374	4148.84
686.564	4054.64
686.753	4181.61
686.943	4085.36
687.133	4177.51
687.323	4179.56
687.513	3995.25
687.702	4017.77
687.892	4136.56
688.082	4054.64
688.272	4114.03
688.461	3825.26
688.651	3810.93
688.841	3821.17
689.03	3954.29
689.22	3892.85
689.41	3790.45
689.599	3925.61
689.789	3991.15
689.979	3917.42
690.168	3780.21
690.358	3745.39
690.547	3696.24
690.737	3886.7
690.926	3763.83
691.116	3673.71
691.305	3798.64
691.495	3622.52
691.684	3673.71
691.874	3655.28
692.063	3567.22
692.252	3573.36
692.442	3530.36
692.631	3595.89
692.82	3468.92
693.01	3554.93
693.199	3497.59
693.388	3358.33
693.578	3511.93
693.767	3556.98
693.956	3454.58
694.146	3475.06
694.335	3387
694.524	3473.01
694.713	3585.65
694.902	3358.33
695.092	3346.04
695.281	3372.66
695.47	3360.38
695.659	3286.65
695.848	3387
696.037	3346.04
696.226	3319.42
696.415	3450.49
696.604	3401.33
696.793	3192.44
696.982	3272.31
697.171	3135.1
697.36	3253.88
697.549	3300.98
697.738	3321.46
697.927	3272.31
698.116	3231.35
698.305	3339.9
698.494	3276.41
698.683	3276.41
698.872	3290.74
699.061	3184.25
699.25	3221.11
699.438	3264.12
699.627	3321.46
699.816	3251.83
700.005	3245.69
700.193	3155.58
700.382	3092.09
700.571	3055.23
700.76	3135.1
700.948	3159.67
701.137	3122.81
701.326	3151.48
701.514	3032.7
701.703	3159.67
701.892	3143.29
702.08	3083.9
702.269	3077.76
702.457	3083.9
702.646	3004.03
702.834	3069.56
703.023	3075.71
703.212	3169.91
703.4	3151.48
703.589	3028.6
703.777	3112.57
703.965	3106.43
704.154	3067.52
704.342	3188.35
704.531	3079.8
704.719	3092.09
704.907	3047.04
705.096	3036.8
705.284	3038.84
705.472	3149.43
705.661	2913.92
705.849	2940.54
706.037	2995.84
706.226	3010.17
706.414	3108.48
706.602	2963.07
706.79	3024.51
706.979	2995.84
707.167	3001.98
707.355	2993.79
707.543	2963.07
707.731	3026.56
707.919	3100.28
708.107	2989.69
708.296	2868.86
708.484	2926.21
708.672	2975.36
708.86	3028.6
709.048	2918.01
709.236	2985.6
709.424	2936.45
709.612	2899.58
709.8	2920.06
709.988	2899.58
710.176	3036.8
710.364	2922.11
710.551	2891.39
710.739	2975.36
710.927	2928.25
711.115	2922.11
711.303	2983.55
711.491	3032.7
711.679	2932.35
711.866	3059.32
712.054	2981.5
712.242	2999.93
712.43	2965.12
712.617	2934.4
712.805	2893.44
712.993	2848.38
713.181	2850.43
713.368	2922.11
713.556	2911.87
713.744	2743.94
713.931	2954.88
714.119	2922.11
714.306	2981.5
714.494	2961.02
714.682	2844.29
714.869	2768.51
715.057	2913.92
715.244	2911.87
715.432	2881.15
715.619	2969.21
715.807	2780.8
715.994	2811.52
716.182	2889.34
716.369	2987.65
716.556	2811.52
716.744	2905.73
716.931	2754.18
717.119	2889.34
717.306	2940.54
717.493	2838.14
717.681	2954.88
717.868	2829.95
718.055	2834.05
718.242	2793.09
718.43	2879.1
718.617	2911.87
718.804	2760.32
718.991	2836.1
719.179	2840.19
719.366	2852.48
719.553	2799.23
719.74	2797.18
719.927	2766.46
720.114	2813.57
720.301	2803.33
720.488	2745.98
720.676	2754.18
720.863	2813.57
721.05	2811.52
721.237	2768.51
721.424	2864.77
721.611	2909.82
721.798	2643.59
721.985	2813.57
722.172	2733.7
722.358	2696.83
722.545	2649.73
722.732	2686.59
722.919	2817.66
723.106	2705.03
723.293	2795.14
723.48	2717.31
723.667	2629.25
723.853	2645.63
724.04	2694.79
724.227	2748.03
724.414	2772.61
724.6	2739.84
724.787	2608.77
724.974	2770.56
725.161	2662.02
725.347	2723.46
725.534	2733.7
725.72	2702.98
725.907	2745.98
726.094	2737.79
726.28	2651.78
726.467	2670.21
726.653	2721.41
726.84	2711.17
727.027	2748.03
727.213	2561.67
727.4	2692.74
727.586	2641.54
727.773	2670.21
727.959	2594.44
728.145	2735.74
728.332	2551.43
728.518	2672.26
728.705	2702.98
728.891	2543.24
729.077	2567.81
729.264	2543.24
729.45	2555.52
729.636	2610.82
729.823	2629.25
730.009	2520.71
730.195	2621.06
730.382	2520.71
730.568	2608.77
730.754	2545.28
730.94	2481.8
731.126	2616.96
731.313	2475.65
731.499	2492.04
731.685	2526.85
731.871	2625.15
732.057	2612.87
732.243	2526.85
732.429	2514.56
732.615	2504.32
732.801	2500.23
732.987	2547.33
733.173	2426.5
733.359	2555.52
733.545	2446.98
733.731	2475.65
733.917	2500.23
734.103	2469.51
734.289	2432.65
734.475	2471.56
734.661	2516.61
734.847	2494.08
735.033	2465.41
735.219	2444.93
735.404	2467.46
735.59	2463.37
735.776	2416.26
735.962	2461.32
736.148	2428.55
736.333	2358.92
736.519	2434.69
736.705	2416.26
736.89	2496.13
737.076	2487.94
737.262	2426.5
737.447	2320.01
737.633	2414.21
737.819	2377.35
738.004	2352.77
738.19	2330.25
738.375	2356.87
738.561	2360.97
738.747	2397.83
738.932	2330.25
739.118	2348.68
739.303	2326.15
739.489	2389.64
739.674	2289.29
739.859	2434.69
740.045	2406.02
740.23	2346.63
740.416	2252.42
740.601	2279.05
740.786	2223.75
740.972	2203.27
741.157	2178.7
741.342	2229.9
741.528	2229.9
741.713	2205.32
741.898	2223.75
742.084	2287.24
742.269	2354.82
742.454	2102.92
742.639	2307.72
742.824	2182.79
743.01	2133.64
743.195	2174.6
743.38	2150.03
743.565	2158.22
743.75	2152.07
743.935	2109.07
744.12	2176.65
744.305	2012.81
744.49	2068.11
744.675	2047.63
744.86	1975.95
745.045	2002.57
745.23	2076.3
745.415	2025.1
745.6	2111.11
745.785	1996.43
745.97	2006.67
746.155	1963.66
746.34	2031.24
746.525	1930.89
746.71	2070.16
746.895	1924.75
747.079	2002.57
747.264	1916.56
747.449	1934.99
747.634	1967.76
747.819	1906.32
748.003	1756.82
748.188	1795.73
748.373	1826.45
748.557	1973.9
748.742	1816.21
748.927	1775.25
749.111	1863.31
749.296	1822.35
749.481	1814.16
749.665	1783.44
749.85	1824.4
750.034	1799.82
750.219	1797.78
750.404	1732.24
750.588	1703.57
750.773	1855.12
750.957	1668.75
751.141	1683.09
751.326	1707.66
751.51	1660.56
751.695	1597.07
751.879	1646.23
752.064	1640.08
752.248	1513.11
752.432	1728.14
752.617	1607.31
752.801	1572.5
752.985	1650.32
753.17	1586.83
753.354	1592.98
753.538	1517.2
753.722	1488.53
753.907	1470.1
754.091	1484.44
754.275	1529.49
754.459	1359.51
754.643	1453.72
754.828	1400.47
755.012	1513.11
755.196	1384.09
755.38	1494.68
755.564	1519.25
755.748	1332.89
755.932	1457.81
756.116	1365.65
756.3	1339.03
756.484	1455.76
756.668	1435.28
756.852	1257.11
757.036	1316.5
757.22	1248.92
757.404	1302.17
757.588	1304.21
757.772	1365.65
757.956	1259.16
758.14	1412.76
758.323	1289.88
758.507	1257.11
758.691	1224.34
758.875	1185.43
759.059	1232.54
759.242	1210.01
759.426	1246.87
759.61	1271.45
759.794	1263.26
759.977	1255.06
760.161	1248.92
760.345	1207.96
760.528	1193.62
760.712	1255.06
760.895	1109.66
761.079	1234.58
761.263	1119.9
761.446	1212.06
761.63	1103.51
761.813	1132.19
761.997	1183.38
762.18	1085.08
762.364	1105.56
762.547	1078.94
762.731	1128.09
762.914	1138.33
763.098	1078.94
763.281	1089.18
763.464	1029.79
763.648	1126.04
763.831	1050.27
764.015	1103.51
764.198	1062.55
764.381	1050.27
764.564	1085.08
764.748	992.92
764.931	1001.12
765.114	1007.26
765.297	956.06
765.481	1048.22
765.664	980.64
765.847	954.01
766.03	1035.93
766.213	1109.66
766.397	966.3
766.58	994.97
766.763	1017.5
766.946	990.88
767.129	1035.93
767.312	978.59
767.495	1044.12
767.678	1019.55
767.861	962.2
768.044	954.01
768.227	935.58
768.41	970.4
768.593	1029.79
768.776	1072.79
768.959	933.53
769.142	954.01
769.324	917.15
769.507	908.96
769.69	945.82
769.873	911
770.056	960.16
770.239	947.87
770.421	919.2
770.604	902.81
770.787	894.62
770.97	855.71
771.152	892.57
771.335	878.24
771.518	902.81
771.7	906.91
771.883	962.2
772.066	794.27
772.248	827.04
772.431	890.53
772.613	863.9
772.796	808.61
772.978	804.51
773.161	855.71
773.343	810.65
773.526	781.98
773.708	808.61
773.891	773.79
774.073	771.74
774.256	827.04
774.438	831.13
774.621	771.74
774.803	753.31
774.985	716.45
775.168	769.69
775.35	757.41
775.532	720.54
775.715	741.02
775.897	732.83
776.079	663.2
776.261	779.93
776.444	755.36
776.626	759.46
776.808	685.73
776.99	689.82
777.173	788.13
777.355	716.45
777.537	681.63
777.719	720.54
777.901	685.73
778.083	689.82
778.265	685.73
778.447	655.01
778.629	646.82
778.811	661.15
778.993	593.57
779.175	659.1
779.357	624.29
779.539	605.86
779.721	605.86
779.903	673.44
780.085	642.72
780.267	726.69
780.449	646.82
780.631	585.38
780.812	624.29
780.994	550.56
781.176	605.86
781.358	562.85
781.54	573.09
781.721	609.95
781.903	560.8
782.085	566.95
782.267	573.09
782.448	442.02
782.63	530.08
782.812	530.08
782.993	591.52
783.175	513.7
783.357	439.97
783.538	566.95
783.72	546.47
783.901	530.08
784.083	513.7
784.264	448.16
784.446	474.79
784.627	460.45
784.809	407.2
784.99	384.68
785.172	513.7
785.353	411.3
785.535	456.36
785.716	489.12
785.897	482.98
786.079	382.63
786.26	427.68
786.441	464.55
786.623	437.92
786.804	390.82
786.985	491.17
787.167	403.11
787.348	413.35
787.529	417.44
787.71	482.98
787.891	386.72
788.073	401.06
788.254	390.82
788.435	437.92
788.616	425.64
788.797	482.98
788.978	474.79
789.159	442.02
789.34	403.11
789.522	415.4
789.703	437.92
789.884	450.21
790.065	329.38
790.246	399.01
790.427	409.25
790.607	360.1
790.788	349.86
790.969	302.76
791.15	407.2
791.331	331.43
791.512	399.01
791.693	306.85
791.874	327.33
792.054	423.59
792.235	353.96
792.416	255.65
792.597	276.13
792.778	298.66
792.958	321.19
793.139	327.33
793.32	351.91
793.5	382.63
793.681	306.85
793.862	390.82
794.042	302.76
794.223	294.57
794.404	300.71
794.584	257.7
794.765	298.66
794.945	329.38
795.126	290.47
795.306	329.38
795.487	366.25
795.667	337.57
795.848	249.51
796.028	358.05
796.209	286.37
796.389	323.24
796.57	233.13
796.75	313
796.93	294.57
797.111	304.81
797.291	276.13
797.471	329.38
797.652	257.7
797.832	284.33
798.012	267.94
798.192	263.85
798.373	308.9
798.553	235.18
798.733	224.94
798.913	306.85
799.093	269.99
799.274	212.65
799.454	241.32
799.634	239.27
799.814	304.81
799.994	267.94
800.174	335.53
800.354	251.56
800.534	220.84
800.714	204.46
800.894	298.66
801.074	204.46
801.254	251.56
801.434	304.81
801.614	253.61
801.794	212.65
801.974	560.8
802.154	177.83
802.334	210.6
802.514	274.09
802.693	239.27
802.873	208.55
803.053	308.9
803.233	222.89
803.413	218.79
803.592	216.74
803.772	216.74
803.952	188.07
804.131	200.36
804.311	196.26
804.491	235.18
804.67	200.36
804.85	218.79
805.03	206.5
805.209	231.08
805.389	235.18
805.568	237.22
805.748	153.26
805.928	241.32
806.107	192.17
806.287	245.41
806.466	196.26
806.646	224.94
806.825	192.17
807.004	132.78
807.184	222.89
807.363	165.54
807.543	179.88
807.722	173.74
807.901	274.09
808.081	216.74
808.26	175.78
808.439	118.44
808.619	183.98
808.798	140.97
808.977	200.36
809.156	231.08
809.336	204.46
809.515	222.89
809.694	224.94
809.873	136.87
810.052	218.79
810.231	196.26
810.411	179.88
810.59	216.74
810.769	206.5
810.948	261.8
811.127	200.36
811.306	194.22
811.485	95.91
811.664	194.22
811.843	255.65
812.022	169.64
812.201	136.87
812.38	126.63
812.559	132.78
812.737	200.36
812.916	136.87
813.095	206.5
813.274	181.93
813.453	143.02
813.632	159.4
813.811	138.92
813.989	114.34
814.168	155.3
814.347	108.2
814.526	183.98
814.704	198.31
814.883	200.36
815.062	122.54
815.24	130.73
815.419	149.16
815.598	167.59
815.776	143.02
815.955	151.21
816.133	145.06
816.312	210.6
816.49	106.15
816.669	134.82
816.847	134.82
817.026	120.49
817.204	169.64
817.383	190.12
817.561	120.49
817.74	95.91
817.918	112.3
818.097	81.58
818.275	161.45
818.453	69.29
818.632	173.74
818.81	110.25
818.988	145.06
819.167	132.78
819.345	54.95
819.523	155.3
819.701	122.54
819.879	161.45
820.058	118.44
820.236	130.73
820.414	63.15
820.592	67.24
820.77	75.43
820.948	93.87
821.127	126.63
821.305	126.63
821.483	59.05
821.661	171.69
821.839	63.15
822.017	79.53
822.195	54.95
822.373	102.06
822.551	42.67
822.729	153.26
822.907	122.54
823.085	149.16
823.262	65.19
823.44	97.96
823.618	124.58
823.796	83.63
823.974	83.63
824.152	77.48
824.329	24.23
824.507	151.21
824.685	145.06
824.863	81.58
825.04	50.86
825.218	100.01
825.396	65.19
825.574	61.1
825.751	36.52
825.929	100.01
826.107	104.11
826.284	34.47
826.462	85.67
826.639	71.34
826.817	93.87
826.994	114.34
827.172	67.24
827.349	126.63
827.527	67.24
827.704	132.78
827.882	138.92
828.059	138.92
828.237	100.01
828.414	140.97
828.591	87.72
828.769	177.83
828.946	91.82
829.124	138.92
829.301	140.97
829.478	130.73
829.655	22.19
829.833	36.52
830.01	24.23
830.187	108.2
830.364	91.82
830.542	112.3
830.719	163.5
830.896	3.75
831.073	122.54
831.25	95.91
831.427	85.67
831.604	100.01
831.782	61.1
831.959	65.19
832.136	24.23
832.313	87.72
832.49	124.58
832.667	26.28
832.844	54.95
833.021	95.91
833.198	3.75
833.374	71.34
833.551	69.29
833.728	97.96
833.905	79.53
834.082	106.15
834.259	122.54
834.436	-0.34
834.612	75.43
834.789	3.75
834.966	32.43
835.143	91.82
835.319	65.19
835.496	112.3
835.673	85.67
835.85	77.48
836.026	95.91
836.203	69.29
836.38	89.77
836.556	24.23
836.733	9.9
836.909	5.8
837.086	63.15
837.262	24.23
837.439	67.24
837.616	75.43
837.792	32.43
837.968	61.1
838.145	13.99
838.321	97.96
838.498	65.19
838.674	97.96
838.851	22.19
839.027	54.95
839.203	75.43
839.38	69.29
839.556	63.15
839.732	1.71
839.909	32.43
840.085	122.54
840.261	-45.4
840.437	73.39
840.614	42.67
840.79	91.82
840.966	42.67
841.142	54.95
841.318	24.23
841.494	52.91
841.671	83.63
841.847	126.63
842.023	-0.34
842.199	63.15
842.375	97.96
842.551	9.9
842.727	79.53
842.903	40.62
843.079	77.48
843.255	38.57
843.431	63.15
843.607	104.11
843.783	16.04
843.959	38.57
844.134	-0.34
844.31	116.39
844.486	13.99
844.662	-12.63
844.838	65.19
845.013	26.28
845.189	75.43
845.365	69.29
845.541	38.57
845.716	38.57
845.892	102.06
846.068	46.76
846.244	34.47
846.419	104.11
846.595	-35.16
846.77	3.75
846.946	40.62
847.122	69.29
847.297	34.47
847.473	85.67
847.648	52.91
847.824	108.2
847.999	59.05
848.175	38.57
848.35	110.25
848.526	-4.44
848.701	-29.01
848.876	63.15
849.052	65.19
849.227	24.23
849.403	42.67
849.578	69.29
849.753	48.81
849.929	50.86
850.104	73.39
850.279	67.24
850.454	54.95
850.63	61.1
850.805	61.1
850.98	67.24
851.155	26.28
851.33	65.19
851.505	81.58
851.681	1.71
851.856	16.04
852.031	63.15
852.206	13.99
852.381	28.33
852.556	20.14
852.731	116.39
852.906	104.11
853.081	71.34
853.256	97.96
853.431	100.01
853.606	-12.63
853.781	44.71
853.956	61.1
854.131	73.39
854.305	30.38
854.48	-18.77
854.655	28.33
854.83	54.95
855.005	22.19
855.18	-4.44
855.354	59.05
855.529	1.71
855.704	28.33
855.879	93.87
856.053	79.53
856.228	20.14
856.403	-24.92
856.577	42.67
856.752	-35.16
856.926	75.43
857.101	24.23
857.276	54.95
857.45	48.81
857.625	-18.77
857.799	7.85
857.974	-16.73
858.148	1.71
858.323	20.14
858.497	-2.39
858.672	67.24
858.846	44.71
859.02	-35.16
859.195	-22.87
859.369	48.81
859.543	-10.58
859.718	54.95
859.892	67.24
860.066	52.91
860.241	-12.63
860.415	-41.3
860.589	-4.44
860.763	22.19
860.938	-2.39
861.112	40.62
861.286	-2.39
861.46	20.14
861.634	-41.3
861.808	-43.35
861.982	3.75
862.157	-6.49
862.331	11.95
862.505	44.71
862.679	-10.58
862.853	-45.4
863.027	26.28
863.201	38.57
863.375	44.71
863.549	34.47
863.722	9.9
863.896	40.62
864.07	-6.49
864.244	95.91
864.418	24.23
864.592	-0.34
864.766	18.09
864.939	-51.54
865.113	-37.2
865.287	40.62
865.461	-49.49
865.634	-12.63
865.808	24.23
865.982	44.71
866.156	-20.82
866.329	-4.44
866.503	59.05
866.676	20.14
866.85	46.76
867.024	-0.34
867.197	-45.4
867.371	-8.53
867.544	26.28
867.718	-12.63
867.891	-33.11
868.065	26.28
868.238	11.95
868.412	44.71
868.585	-2.39
868.759	-4.44
868.932	54.95
869.105	9.9
869.279	-6.49
869.452	38.57
869.625	9.9
869.799	-22.87
869.972	32.43
870.145	-14.68
870.319	-2.39
870.492	30.38
870.665	9.9
870.838	-45.4
871.011	-53.59
871.185	-45.4
871.358	5.8
871.531	71.34
871.704	61.1
871.877	69.29
872.05	-0.34
872.223	38.57
872.396	100.01
872.569	63.15
872.742	-43.35
872.915	69.29
873.088	-29.01
873.261	3.75
873.434	-12.63
873.607	91.82
873.78	-26.96
873.953	-53.59
874.126	-33.11
874.299	7.85
874.471	16.04
874.644	85.67
874.817	-2.39
874.99	36.52
875.163	-29.01
875.335	-2.39
875.508	50.86
875.681	3.75
875.853	18.09
876.026	22.19
876.199	9.9
876.371	13.99
876.544	63.15
876.717	91.82
876.889	24.23
877.062	20.14
877.234	20.14
877.407	-57.68
877.579	26.28
877.752	83.63
877.924	73.39
878.097	-14.68
878.269	1.71
878.442	7.85
878.614	20.14
878.786	9.9
878.959	3.75
879.131	36.52
879.303	1.71
879.476	18.09
879.648	22.19
879.82	30.38
879.993	24.23
880.165	73.39
880.337	26.28
880.509	-4.44
880.681	-14.68
880.854	-29.01
881.026	44.71
881.198	34.47
881.37	54.95
881.542	-12.63
881.714	-20.82
881.886	5.8
882.058	79.53
882.23	73.39
882.402	-14.68
882.574	54.95
882.746	1.71
882.918	13.99
883.09	20.14
883.262	44.71
883.434	20.14
883.606	-2.39
883.778	-6.49
883.95	44.71
884.122	7.85
884.293	22.19
884.465	-53.59
884.637	-6.49
884.809	-41.3
884.98	-8.53
885.152	9.9
885.324	22.19
885.496	13.99
885.667	-41.3
885.839	46.76
886.011	22.19
886.182	22.19
886.354	22.19
886.525	-35.16
886.697	32.43
886.869	7.85
887.04	-35.16
887.212	36.52
887.383	34.47
887.555	69.29
887.726	1.71
887.897	-43.35
888.069	-63.83
888.24	-2.39
888.412	-8.53
888.583	-8.53
888.754	-29.01
888.926	7.85
889.097	22.19
889.268	-0.34
889.44	9.9
889.611	-55.64
889.782	38.57
889.953	-2.39
890.125	11.95
890.296	-41.3
890.467	-94.55
890.638	77.48
890.809	30.38
890.98	-8.53
891.151	73.39
891.323	42.67
891.494	7.85
891.665	-26.96
891.836	20.14
892.007	-20.82
892.178	28.33
892.349	-8.53
892.52	-16.73
892.691	-16.73
892.862	44.71
893.032	-2.39
893.203	-31.06
893.374	-10.58
893.545	50.86
893.716	-2.39
893.887	-0.34
894.057	32.43
894.228	5.8
894.399	1.71
894.57	73.39
894.74	20.14
894.911	-12.63
895.082	-55.64
895.253	16.04
895.423	-24.92
895.594	32.43
895.764	18.09
895.935	11.95
896.106	-33.11
896.276	57
896.447	-22.87
896.617	16.04
896.788	-57.68
896.958	-6.49
897.129	20.14
897.299	-47.44
897.47	30.38
897.64	48.81
897.81	38.57
897.981	18.09
898.151	-12.63
898.322	34.47
898.492	-78.16
898.662	-49.49
898.832	16.04
899.003	-29.01
899.173	-12.63
899.343	-33.11
899.513	13.99
