Data from USB4F104151__2__12-00-17-834.txt Node

Date: Fri Mar 14 12:00:17 EDT 2025
User: louis
Spectrometer: USB4F10415
Trigger mode: 4
Integration Time (sec): 2.000000E-2
Scans to average: 1
Electric dark correction enabled: true
Nonlinearity correction enabled: false
Boxcar width: 0
XAxis mode: Wavelengths
Number of Pixels in Spectrum: 3648
>>>>>Begin Spectral Data<<<<<
178.204	-91.82
178.424	-91.82
178.644	-91.82
178.864	-159.4
179.084	-16.04
179.304	-5.8
179.524	-13.99
179.744	-48.81
179.964	10.58
180.184	-30.38
180.404	45.4
180.624	47.44
180.844	-24.23
181.064	6.49
181.283	14.68
181.503	-54.95
181.723	53.59
181.943	-24.23
182.163	69.97
182.383	80.21
182.602	18.77
182.822	0.34
183.042	47.44
183.262	26.96
183.482	90.45
183.701	39.25
183.921	10.58
184.141	24.92
184.361	35.16
184.58	14.68
184.8	51.54
185.02	65.88
185.239	80.21
185.459	-20.14
185.679	20.82
185.898	0.34
186.118	-13.99
186.338	53.59
186.557	47.44
186.777	10.58
186.997	-7.85
187.216	4.44
187.436	41.3
187.655	26.96
187.875	-26.28
188.095	-13.99
188.314	102.74
188.534	110.93
188.753	-26.28
188.973	18.77
189.192	10.58
189.412	35.16
189.631	47.44
189.851	45.4
190.07	131.41
190.29	-28.33
190.509	8.53
190.729	78.16
190.948	88.4
191.168	102.74
191.387	108.88
191.607	4.44
191.826	39.25
192.045	-9.9
192.265	49.49
192.484	12.63
192.704	-11.95
192.923	-24.23
193.142	108.88
193.362	65.88
193.581	84.31
193.8	0.34
194.02	49.49
194.239	41.3
194.458	-22.19
194.678	41.3
194.897	123.22
195.116	-32.43
195.335	74.07
195.555	72.02
195.774	24.92
195.993	47.44
196.212	45.4
196.432	18.77
196.651	41.3
196.87	39.25
197.089	63.83
197.308	35.16
197.528	108.88
197.747	-3.75
197.966	31.06
198.185	112.98
198.404	37.2
198.623	67.92
198.842	57.68
199.062	96.6
199.281	49.49
199.5	-7.85
199.719	37.2
199.938	92.5
200.157	84.31
200.376	-46.76
200.595	-3.75
200.814	82.26
201.033	82.26
201.252	69.97
201.471	47.44
201.69	80.21
201.909	92.5
202.128	-5.8
202.347	26.96
202.566	72.02
202.785	33.11
203.004	22.87
203.223	49.49
203.442	63.83
203.661	26.96
203.879	39.25
204.098	49.49
204.317	-36.52
204.536	74.07
204.755	131.41
204.974	53.59
205.193	-22.19
205.411	94.55
205.63	31.06
205.849	-73.39
206.068	45.4
206.287	86.36
206.505	4.44
206.724	65.88
206.943	29.01
207.162	-28.33
207.381	6.49
207.599	100.69
207.818	45.4
208.037	86.36
208.255	31.06
208.474	67.92
208.693	26.96
208.911	65.88
209.13	16.73
209.349	-34.47
209.567	108.88
209.786	63.83
210.005	43.35
210.223	47.44
210.442	2.39
210.661	39.25
210.879	-3.75
211.098	31.06
211.316	110.93
211.535	84.31
211.753	6.49
211.972	-16.04
212.191	31.06
212.409	39.25
212.628	37.2
212.846	43.35
213.065	26.96
213.283	129.36
213.502	47.44
213.72	49.49
213.938	12.63
214.157	8.53
214.375	61.78
214.594	-11.95
214.812	-9.9
215.031	67.92
215.249	41.3
215.467	47.44
215.686	20.82
215.904	59.73
216.122	14.68
216.341	94.55
216.559	6.49
216.778	53.59
216.996	-34.47
217.214	51.54
217.432	39.25
217.651	20.82
217.869	18.77
218.087	63.83
218.306	14.68
218.524	26.96
218.742	88.4
218.96	39.25
219.179	10.58
219.397	8.53
219.615	92.5
219.833	8.53
220.051	-13.99
220.27	35.16
220.488	-46.76
220.706	2.39
220.924	49.49
221.142	80.21
221.36	82.26
221.578	112.98
221.796	6.49
222.015	-3.75
222.233	2.39
222.451	0.34
222.669	-16.04
222.887	2.39
223.105	90.45
223.323	74.07
223.541	2.39
223.759	-20.14
223.977	22.87
224.195	80.21
224.413	-20.14
224.631	24.92
224.849	92.5
225.067	104.79
225.285	-1.71
225.503	72.02
225.721	-18.09
225.939	-9.9
226.157	43.35
226.375	76.12
226.592	35.16
226.81	84.31
227.028	45.4
227.246	24.92
227.464	-11.95
227.682	67.92
227.9	10.58
228.117	-9.9
228.335	86.36
228.553	26.96
228.771	-30.38
228.989	51.54
229.206	63.83
229.424	51.54
229.642	31.06
229.86	-42.67
230.077	41.3
230.295	4.44
230.513	14.68
230.731	41.3
230.948	-9.9
231.166	108.88
231.384	24.92
231.601	-36.52
231.819	82.26
232.037	76.12
232.254	33.11
232.472	22.87
232.689	18.77
232.907	41.3
233.125	14.68
233.342	55.64
233.56	20.82
233.777	29.01
233.995	39.25
234.213	92.5
234.43	18.77
234.648	57.68
234.865	45.4
235.083	49.49
235.3	37.2
235.518	41.3
235.735	115.03
235.953	14.68
236.17	12.63
236.388	2.39
236.605	26.96
236.822	41.3
237.04	24.92
237.257	26.96
237.475	-57
237.692	45.4
237.909	90.45
238.127	29.01
238.344	39.25
238.562	67.92
238.779	20.82
238.996	-5.8
239.214	31.06
239.431	86.36
239.648	8.53
239.865	100.69
240.083	115.03
240.3	39.25
240.517	31.06
240.735	37.2
240.952	29.01
241.169	37.2
241.386	12.63
241.603	55.64
241.821	29.01
242.038	92.5
242.255	16.73
242.472	-13.99
242.689	6.49
242.907	82.26
243.124	-34.47
243.341	57.68
243.558	-5.8
243.775	26.96
243.992	41.3
244.209	61.78
244.426	82.26
244.643	53.59
244.86	-20.14
245.078	-26.28
245.295	-28.33
245.512	18.77
245.729	8.53
245.946	16.73
246.163	12.63
246.38	37.2
246.597	37.2
246.814	33.11
247.031	129.36
247.248	24.92
247.464	51.54
247.681	51.54
247.898	39.25
248.115	33.11
248.332	18.77
248.549	18.77
248.766	82.26
248.983	16.73
249.2	72.02
249.417	14.68
249.633	0.34
249.85	29.01
250.067	59.73
250.284	-34.47
250.501	43.35
250.717	6.49
250.934	74.07
251.151	33.11
251.368	0.34
251.585	26.96
251.801	22.87
252.018	18.77
252.235	4.44
252.451	67.92
252.668	57.68
252.885	51.54
253.102	67.92
253.318	10.58
253.535	-16.04
253.752	2.39
253.968	74.07
254.185	16.73
254.401	-83.63
254.618	123.22
254.835	43.35
255.051	88.4
255.268	-3.75
255.484	2.39
255.701	45.4
255.917	63.83
256.134	10.58
256.351	112.98
256.567	-42.67
256.784	-3.75
257	10.58
257.217	55.64
257.433	10.58
257.65	16.73
257.866	35.16
258.082	41.3
258.299	10.58
258.515	22.87
258.732	69.97
258.948	14.68
259.165	84.31
259.381	14.68
259.597	123.22
259.814	98.64
260.03	61.78
260.246	67.92
260.463	67.92
260.679	57.68
260.895	12.63
261.112	84.31
261.328	53.59
261.544	-11.95
261.761	31.06
261.977	78.16
262.193	10.58
262.409	43.35
262.626	92.5
262.842	82.26
263.058	-36.52
263.274	61.78
263.49	22.87
263.707	33.11
263.923	-9.9
264.139	67.92
264.355	20.82
264.571	67.92
264.787	102.74
265.004	65.88
265.22	47.44
265.436	14.68
265.652	-22.19
265.868	69.97
266.084	24.92
266.3	-7.85
266.516	-20.14
266.732	22.87
266.948	-16.04
267.164	49.49
267.38	22.87
267.596	137.56
267.812	90.45
268.028	51.54
268.244	18.77
268.46	41.3
268.676	61.78
268.892	6.49
269.108	-1.71
269.324	12.63
269.54	29.01
269.756	74.07
269.972	35.16
270.188	74.07
270.403	-7.85
270.619	76.12
270.835	18.77
271.051	82.26
271.267	39.25
271.483	10.58
271.698	37.2
271.914	-24.23
272.13	35.16
272.346	12.63
272.562	-40.62
272.777	112.98
272.993	59.73
273.209	29.01
273.425	14.68
273.64	-5.8
273.856	43.35
274.072	37.2
274.287	-40.62
274.503	45.4
274.719	57.68
274.934	90.45
275.15	-18.09
275.366	10.58
275.581	45.4
275.797	65.88
276.012	-11.95
276.228	-16.04
276.444	18.77
276.659	29.01
276.875	63.83
277.09	-11.95
277.306	-3.75
277.521	35.16
277.737	22.87
277.952	59.73
278.168	45.4
278.383	92.5
278.599	37.2
278.814	63.83
279.03	115.03
279.245	-13.99
279.461	20.82
279.676	65.88
279.892	12.63
280.107	59.73
280.322	12.63
280.538	-7.85
280.753	12.63
280.969	12.63
281.184	31.06
281.399	18.77
281.615	84.31
281.83	45.4
282.045	45.4
282.26	63.83
282.476	16.73
282.691	92.5
282.906	14.68
283.122	12.63
283.337	20.82
283.552	61.78
283.767	49.49
283.983	74.07
284.198	57.68
284.413	-5.8
284.628	-18.09
284.843	72.02
285.058	43.35
285.274	53.59
285.489	14.68
285.704	98.64
285.919	45.4
286.134	14.68
286.349	59.73
286.564	-28.33
286.779	57.68
286.995	88.4
287.21	24.92
287.425	49.49
287.64	0.34
287.855	29.01
288.07	12.63
288.285	-3.75
288.5	24.92
288.715	29.01
288.93	2.39
289.145	-26.28
289.36	22.87
289.575	76.12
289.79	4.44
290.004	-11.95
290.219	22.87
290.434	31.06
290.649	35.16
290.864	43.35
291.079	45.4
291.294	57.68
291.509	67.92
291.724	20.82
291.938	55.64
292.153	80.21
292.368	-3.75
292.583	49.49
292.798	63.83
293.012	94.55
293.227	39.25
293.442	-11.95
293.657	108.88
293.871	88.4
294.086	49.49
294.301	41.3
294.516	98.64
294.73	-20.14
294.945	-46.76
295.16	82.26
295.374	0.34
295.589	37.2
295.804	53.59
296.018	29.01
296.233	80.21
296.447	2.39
296.662	26.96
296.877	82.26
297.091	2.39
297.306	74.07
297.52	-7.85
297.735	35.16
297.949	59.73
298.164	22.87
298.378	35.16
298.593	94.55
298.807	39.25
299.022	78.16
299.236	41.3
299.451	106.84
299.665	57.68
299.88	61.78
300.094	55.64
300.309	102.74
300.523	57.68
300.737	-16.04
300.952	-16.04
301.166	51.54
301.381	16.73
301.595	74.07
301.809	90.45
302.024	10.58
302.238	-13.99
302.452	61.78
302.667	47.44
302.881	61.78
303.095	55.64
303.309	-22.19
303.524	45.4
303.738	29.01
303.952	-44.71
304.166	22.87
304.381	-44.71
304.595	90.45
304.809	26.96
305.023	106.84
305.237	-1.71
305.452	16.73
305.666	63.83
305.88	96.6
306.094	35.16
306.308	82.26
306.522	51.54
306.736	110.93
306.95	18.77
307.164	20.82
307.379	53.59
307.593	14.68
307.807	53.59
308.021	86.36
308.235	24.92
308.449	18.77
308.663	24.92
308.877	33.11
309.091	74.07
309.305	2.39
309.519	29.01
309.733	49.49
309.947	-1.71
310.161	37.2
310.374	39.25
310.588	117.08
310.802	4.44
311.016	65.88
311.23	12.63
311.444	-30.38
311.658	-71.34
311.872	65.88
312.085	47.44
312.299	22.87
312.513	63.83
312.727	4.44
312.941	47.44
313.154	67.92
313.368	59.73
313.582	20.82
313.796	16.73
314.009	31.06
314.223	35.16
314.437	76.12
314.651	4.44
314.864	2.39
315.078	26.96
315.292	39.25
315.505	-5.8
315.719	-44.71
315.933	53.59
316.146	92.5
316.36	37.2
316.573	18.77
316.787	33.11
317.001	8.53
317.214	72.02
317.428	-22.19
317.641	49.49
317.855	14.68
318.068	61.78
318.282	26.96
318.495	102.74
318.709	61.78
318.922	-3.75
319.136	72.02
319.349	47.44
319.563	117.08
319.776	63.83
319.99	16.73
320.203	104.79
320.417	16.73
320.63	39.25
320.843	127.32
321.057	-1.71
321.27	78.16
321.483	49.49
321.697	96.6
321.91	18.77
322.124	51.54
322.337	98.64
322.55	33.11
322.763	26.96
322.977	47.44
323.19	-5.8
323.403	-65.19
323.617	98.64
323.83	119.12
324.043	39.25
324.256	45.4
324.469	-9.9
324.683	96.6
324.896	-7.85
325.109	78.16
325.322	20.82
325.535	59.73
325.748	-26.28
325.962	8.53
326.175	-18.09
326.388	45.4
326.601	76.12
326.814	88.4
327.027	18.77
327.24	33.11
327.453	-5.8
327.666	100.69
327.879	24.92
328.092	115.03
328.305	33.11
328.518	-20.14
328.731	20.82
328.944	-30.38
329.157	84.31
329.37	57.68
329.583	59.73
329.796	47.44
330.009	12.63
330.222	55.64
330.435	96.6
330.648	84.31
330.861	-20.14
331.073	18.77
331.286	31.06
331.499	29.01
331.712	65.88
331.925	-9.9
332.138	14.68
332.35	106.84
332.563	18.77
332.776	129.36
332.989	-3.75
333.202	26.96
333.414	-11.95
333.627	33.11
333.84	22.87
334.053	-18.09
334.265	29.01
334.478	47.44
334.691	45.4
334.903	88.4
335.116	33.11
335.329	72.02
335.541	67.92
335.754	49.49
335.966	47.44
336.179	0.34
336.392	-7.85
336.604	-20.14
336.817	88.4
337.029	24.92
337.242	-22.19
337.454	76.12
337.667	29.01
337.88	33.11
338.092	49.49
338.305	39.25
338.517	-16.04
338.729	61.78
338.942	63.83
339.154	-1.71
339.367	47.44
339.579	43.35
339.792	4.44
340.004	43.35
340.217	57.68
340.429	49.49
340.641	20.82
340.854	-1.71
341.066	-36.52
341.278	45.4
341.491	108.88
341.703	53.59
341.915	29.01
342.128	98.64
342.34	31.06
342.552	39.25
342.764	72.02
342.977	51.54
343.189	96.6
343.401	49.49
343.613	2.39
343.826	24.92
344.038	-44.71
344.25	100.69
344.462	78.16
344.674	69.97
344.886	72.02
345.099	123.22
345.311	55.64
345.523	88.4
345.735	16.73
345.947	125.27
346.159	16.73
346.371	31.06
346.583	92.5
346.795	63.83
347.007	-20.14
347.219	10.58
347.431	-38.57
347.643	80.21
347.855	88.4
348.067	47.44
348.279	49.49
348.491	49.49
348.703	31.06
348.915	2.39
349.127	35.16
349.339	74.07
349.551	-26.28
349.763	110.93
349.975	74.07
350.187	-13.99
350.399	22.87
350.61	92.5
350.822	4.44
351.034	65.88
351.246	-5.8
351.458	86.36
351.669	78.16
351.881	35.16
352.093	72.02
352.305	24.92
352.517	94.55
352.728	22.87
352.94	94.55
353.152	33.11
353.363	22.87
353.575	51.54
353.787	-18.09
353.999	110.93
354.21	131.41
354.422	86.36
354.633	47.44
354.845	14.68
355.057	43.35
355.268	6.49
355.48	18.77
355.692	26.96
355.903	100.69
356.115	10.58
356.326	35.16
356.538	172.37
356.749	41.3
356.961	51.54
357.172	59.73
357.384	31.06
357.595	22.87
357.807	49.49
358.018	-11.95
358.23	26.96
358.441	49.49
358.653	51.54
358.864	35.16
359.075	57.68
359.287	22.87
359.498	74.07
359.709	-20.14
359.921	49.49
360.132	72.02
360.344	53.59
360.555	29.01
360.766	96.6
360.977	-28.33
361.189	35.16
361.4	63.83
361.611	76.12
361.823	43.35
362.034	74.07
362.245	33.11
362.456	8.53
362.667	22.87
362.879	-48.81
363.09	16.73
363.301	53.59
363.512	76.12
363.723	55.64
363.935	45.4
364.146	16.73
364.357	35.16
364.568	37.2
364.779	69.97
364.99	67.92
365.201	-32.43
365.412	45.4
365.623	26.96
365.834	24.92
366.045	47.44
366.256	37.2
366.467	39.25
366.678	100.69
366.889	117.08
367.1	51.54
367.311	31.06
367.522	-36.52
367.733	24.92
367.944	65.88
368.155	41.3
368.366	67.92
368.577	76.12
368.788	-13.99
368.999	-1.71
369.209	65.88
369.42	72.02
369.631	57.68
369.842	55.64
370.053	-7.85
370.264	84.31
370.474	-20.14
370.685	-1.71
370.896	14.68
371.107	18.77
371.317	86.36
371.528	47.44
371.739	115.03
371.95	12.63
372.16	65.88
372.371	10.58
372.582	67.92
372.792	-5.8
373.003	61.78
373.214	117.08
373.424	37.2
373.635	41.3
373.846	90.45
374.056	12.63
374.267	51.54
374.477	69.97
374.688	41.3
374.898	-7.85
375.109	65.88
375.319	10.58
375.53	20.82
375.74	6.49
375.951	76.12
376.161	4.44
376.372	78.16
376.582	57.68
376.793	72.02
377.003	22.87
377.214	86.36
377.424	22.87
377.635	-30.38
377.845	72.02
378.055	90.45
378.266	10.58
378.476	10.58
378.686	-40.62
378.897	59.73
379.107	61.78
379.317	33.11
379.528	31.06
379.738	41.3
379.948	41.3
380.158	84.31
380.369	29.01
380.579	145.75
380.789	39.25
380.999	33.11
381.21	57.68
381.42	-3.75
381.63	47.44
381.84	110.93
382.05	10.58
382.261	84.31
382.471	22.87
382.681	61.78
382.891	86.36
383.101	6.49
383.311	51.54
383.521	41.3
383.731	24.92
383.941	84.31
384.151	90.45
384.361	41.3
384.571	35.16
384.781	106.84
384.991	49.49
385.201	108.88
385.411	82.26
385.621	10.58
385.831	59.73
386.041	104.79
386.251	18.77
386.461	117.08
386.671	26.96
386.881	155.99
387.091	4.44
387.301	147.8
387.511	16.73
387.72	47.44
387.93	82.26
388.14	80.21
388.35	0.34
388.56	121.17
388.769	63.83
388.979	10.58
389.189	22.87
389.399	74.07
389.609	49.49
389.818	67.92
390.028	20.82
390.238	49.49
390.447	123.22
390.657	57.68
390.867	4.44
391.076	22.87
391.286	63.83
391.496	22.87
391.705	18.77
391.915	-32.43
392.125	69.97
392.334	0.34
392.544	59.73
392.753	80.21
392.963	-59.05
393.172	72.02
393.382	39.25
393.591	162.13
393.801	57.68
394.01	74.07
394.22	106.84
394.429	104.79
394.639	121.17
394.848	102.74
395.058	108.88
395.267	63.83
395.477	80.21
395.686	43.35
395.895	104.79
396.105	121.17
396.314	61.78
396.524	94.55
396.733	16.73
396.942	100.69
397.152	63.83
397.361	63.83
397.57	35.16
397.78	55.64
397.989	112.98
398.198	184.66
398.407	-24.23
398.617	78.16
398.826	65.88
399.035	102.74
399.244	37.2
399.453	98.64
399.663	61.78
399.872	94.55
400.081	69.97
400.29	131.41
400.499	53.59
400.708	110.93
400.917	74.07
401.127	88.4
401.336	43.35
401.545	53.59
401.754	139.6
401.963	147.8
402.172	72.02
402.381	76.12
402.59	0.34
402.799	72.02
403.008	80.21
403.217	55.64
403.426	158.03
403.635	41.3
403.844	47.44
404.053	100.69
404.262	102.74
404.471	137.56
404.68	72.02
404.888	115.03
405.097	78.16
405.306	217.43
405.515	119.12
405.724	123.22
405.933	92.5
406.142	139.6
406.35	153.94
406.559	153.94
406.768	164.18
406.977	168.27
407.185	174.42
407.394	82.26
407.603	47.44
407.812	158.03
408.02	211.28
408.229	153.94
408.438	63.83
408.646	219.47
408.855	117.08
409.064	100.69
409.272	172.37
409.481	225.62
409.69	108.88
409.898	225.62
410.107	254.29
410.315	246.1
410.524	178.51
410.733	227.67
410.941	155.99
411.15	325.97
411.358	242
411.567	266.58
411.775	223.57
411.984	172.37
412.192	266.58
412.401	280.91
412.609	299.34
412.818	321.87
413.026	352.59
413.234	344.4
413.443	344.4
413.651	268.63
413.86	360.78
414.068	377.17
414.276	362.83
414.485	399.7
414.693	436.56
414.901	424.27
415.11	520.53
415.318	379.22
415.526	524.62
415.734	434.51
415.943	442.7
416.151	487.76
416.359	411.98
416.567	493.9
416.776	520.53
416.984	635.21
417.192	557.39
417.4	579.92
417.608	586.06
417.817	651.6
418.025	690.51
418.233	768.33
418.441	639.31
418.649	651.6
418.857	766.28
419.065	805.19
419.273	727.37
419.481	774.47
419.689	872.78
419.897	840.01
420.105	913.74
420.313	948.55
420.521	962.89
420.729	981.32
420.937	989.51
421.145	1118.53
421.353	999.75
421.561	1173.83
421.769	1239.36
421.977	1204.55
422.185	1235.27
422.393	1325.38
422.601	1255.75
422.809	1550.65
423.017	1370.43
423.224	1405.25
423.432	1376.58
423.64	1519.93
423.848	1622.33
424.056	1648.96
424.263	1704.25
424.471	1845.56
424.679	1804.6
424.887	1921.34
425.094	1892.66
425.302	1950.01
425.51	2101.56
425.718	2107.7
425.925	2091.32
426.133	2146.61
426.341	2316.59
426.548	2449.71
426.756	2392.37
426.964	2507.06
427.171	2494.77
427.379	2707.76
427.586	2660.65
427.794	2812.2
428.001	2879.79
428.209	2781.48
428.417	2980.14
428.624	3168.55
428.832	3115.3
429.039	3078.44
429.247	3217.7
429.454	3393.83
429.662	3617.05
429.869	3471.65
430.076	3748.12
430.284	3498.27
430.491	3641.63
430.699	3852.57
430.906	4032.79
431.114	4016.41
431.321	4241.68
431.528	4213.01
431.736	4440.34
431.943	4598.03
432.15	4516.11
432.358	4516.11
432.565	4800.78
432.772	4897.03
432.979	4972.81
433.187	5185.8
433.394	5132.55
433.601	5613.82
433.808	5613.82
434.016	5640.45
434.223	5796.09
434.43	6064.38
434.637	5984.51
434.844	6383.86
435.052	6660.34
435.259	6480.11
435.466	6496.5
435.673	6469.87
435.88	7016.68
436.087	7323.88
436.294	7178.47
436.501	7133.42
436.708	7276.77
436.915	7506.15
437.122	7940.32
437.329	7620.83
437.537	8052.95
437.743	8136.92
437.95	8063.19
438.157	8610
438.364	8888.53
438.571	8655.06
438.778	8804.56
438.985	9652.42
439.192	9277.64
439.399	9539.78
439.606	9418.95
439.813	9998.52
440.02	10584.24
440.227	10330.3
440.433	10356.92
440.64	10655.92
440.847	10614.96
441.054	10983.6
441.261	11522.21
441.467	11438.25
441.674	11749.54
441.881	12185.76
442.088	11931.81
442.294	11772.07
442.501	12435.61
442.708	12454.04
442.914	13093.01
443.121	13699.2
443.328	13453.45
443.534	14317.69
443.741	13967.49
443.948	13711.49
444.154	14653.56
444.361	14499.96
444.568	14614.65
444.774	14463.1
444.981	14692.47
445.187	15368.3
445.394	15863.91
445.6	15433.83
445.807	17182.8
446.013	16412.76
446.22	16736.34
446.426	17459.27
446.633	17518.67
446.839	18006.08
447.046	17236.05
447.252	18505.79
447.459	18561.08
447.665	18147.39
447.871	19122.23
448.078	19947.56
448.284	18901.04
448.491	19550.25
448.697	20561.95
448.903	20733.98
449.11	20789.27
449.316	20209.7
449.522	20543.52
449.728	21153.81
449.935	21585.93
450.141	21602.32
450.347	21778.44
450.553	21198.87
450.76	21231.63
450.966	22159.36
451.172	21717
451.378	22388.74
451.584	21925.89
451.791	22462.46
451.997	22644.73
452.203	22839.29
452.409	22685.69
452.615	22460.41
452.821	21569.55
453.027	21528.59
453.233	22675.45
453.44	21764.11
453.646	22241.28
453.852	21948.42
454.058	22417.41
454.264	21811.21
454.47	22169.6
454.676	21475.34
454.882	22253.57
455.088	20529.18
455.294	20502.56
455.5	20985.88
455.705	21096.47
455.911	20344.86
456.117	20060.2
456.323	19759.14
456.529	18643
456.735	19159.09
456.941	18855.99
457.147	18630.71
457.352	17879.11
457.558	17791.05
457.764	17854.53
457.97	17494.09
458.176	17104.98
458.381	17092.69
458.587	16179.29
458.793	16001.12
458.999	15362.15
459.204	16273.5
459.41	15683.69
459.616	14745.72
459.821	14829.68
460.027	14854.26
460.233	14571.64
460.438	13863.04
460.644	14112.89
460.85	13234.32
461.055	12912.78
461.261	12931.22
461.466	11950.24
461.672	11716.77
461.878	12763.28
462.083	11677.86
462.289	11589.8
462.494	11372.71
462.7	10911.92
462.905	10567.86
463.111	10774.7
463.316	11028.65
463.522	10688.69
463.727	10580.15
463.932	10592.44
464.138	10680.5
464.343	10762.42
464.549	10205.37
464.754	10860.72
464.959	10619.06
465.165	10475.7
465.37	9992.38
465.575	9838.78
465.781	10424.5
465.986	10373.3
466.191	9824.45
466.397	9779.39
466.602	9232.58
466.807	9859.26
467.012	9650.37
467.218	9552.07
467.423	9519.3
467.628	9625.79
467.833	10045.63
468.038	9672.9
468.244	9240.78
468.449	9582.79
468.654	9423.05
468.859	9189.58
469.064	9156.81
469.269	8896.72
469.474	9214.15
469.679	9142.47
469.885	8933.58
470.09	8906.96
470.295	8816.85
470.5	8728.78
470.705	8593.62
470.91	8546.51
471.115	8419.54
471.32	8681.68
471.525	8603.86
471.73	8206.55
471.935	8110.3
472.139	7735.52
472.344	8069.34
472.549	8020.19
472.754	7975.13
472.959	7684.32
473.164	7631.07
473.369	7489.76
473.574	7827.68
473.778	7446.76
473.983	7751.9
474.188	7594.21
474.393	7244.01
474.598	7270.63
474.802	7100.65
475.007	7149.8
475.212	7018.73
475.417	6930.67
475.621	6758.64
475.826	6975.72
476.031	6637.81
476.235	6736.11
476.44	6746.35
476.645	6588.66
476.849	6664.43
477.054	6410.48
477.259	6412.53
477.463	6529.27
477.668	6490.35
477.872	6387.96
478.077	6101.24
478.282	5996.79
478.486	6250.74
478.691	6103.29
478.895	5912.83
479.1	5859.58
479.304	5882.11
479.509	5785.85
479.713	5902.59
479.918	5595.39
480.122	5730.56
480.326	5902.59
480.531	5853.44
480.735	5632.26
480.94	5560.58
481.144	5779.71
481.348	5615.87
481.553	5736.7
481.757	5622.02
481.961	5603.58
482.166	5597.44
482.37	5662.97
482.574	5425.41
482.778	5474.56
482.983	5593.34
483.187	5595.39
483.391	5642.5
483.595	5505.28
483.8	5400.83
484.004	5538.05
484.208	5462.27
484.412	5433.6
484.616	5665.02
484.821	5624.06
485.025	5466.37
485.229	5574.91
485.433	5445.89
485.637	5560.58
485.841	5482.75
486.045	5589.25
486.249	5423.36
486.453	5562.62
486.657	5720.32
486.861	5581.06
487.065	5492.99
487.269	5464.32
487.473	5323.01
487.677	5568.77
487.881	5533.95
488.085	5380.36
488.289	5556.48
488.493	5419.27
488.697	5673.21
488.901	5572.86
489.105	5507.33
489.309	5605.63
489.512	5667.07
489.716	5665.02
489.92	5570.82
490.124	5599.49
490.328	5654.78
490.531	5521.67
490.735	5695.74
490.939	5830.91
491.143	5654.78
491.346	5624.06
491.55	5658.88
491.754	5738.75
491.958	5802.24
492.161	5779.71
492.365	5882.11
492.569	5775.61
492.772	5740.8
492.976	6007.03
493.18	5806.33
493.383	6023.42
493.587	6027.51
493.79	6103.29
493.994	5933.31
494.197	5949.69
494.401	6207.73
494.605	6068.47
494.808	6164.73
495.012	6248.69
495.215	6103.29
495.419	6390
495.622	6373.62
495.825	6336.76
496.029	6465.78
496.232	6502.64
496.436	6461.68
496.639	6785.26
496.843	6545.65
497.046	6658.29
497.249	6623.47
497.453	6801.65
497.656	6850.8
497.859	6850.8
498.063	6977.77
498.266	7241.96
498.469	7100.65
498.673	7145.7
498.876	7194.86
499.079	7256.29
499.282	7420.13
499.485	7735.52
499.689	7524.58
499.892	7504.1
500.095	7676.13
500.298	7878.88
500.501	7758.05
500.705	7991.52
500.908	8276.18
501.111	8106.2
501.314	8282.33
501.517	8433.88
501.72	8546.51
501.923	8358.1
502.126	8311
502.329	8859.85
502.532	8913.1
502.735	8751.31
502.938	8984.78
503.141	8962.25
503.344	9031.88
503.547	9113.8
503.75	9177.29
503.953	9676.99
504.156	9550.02
504.359	9515.2
504.562	9672.9
504.765	9957.57
504.968	9773.25
505.17	10010.81
505.373	10008.76
505.576	10143.93
505.779	10162.36
505.982	10401.97
506.185	10703.03
506.387	10666.16
506.59	10526.9
506.793	10940.59
506.996	10846.38
507.198	11120.81
507.401	11026.61
507.604	11223.21
507.807	11378.86
508.009	11520.17
508.212	11468.97
508.415	11573.41
508.617	11669.67
508.82	11997.34
509.022	11968.67
509.225	11993.25
509.428	12333.21
509.63	12400.79
509.833	12187.8
510.035	12712.08
510.238	12658.84
510.44	12859.54
510.643	12615.83
510.845	12974.22
511.048	12812.43
511.25	13340.81
511.453	13279.37
511.655	13514.89
511.858	13605
512.06	13803.65
512.262	13981.82
512.465	13924.48
512.667	14127.23
512.87	13998.21
513.072	14133.37
513.274	14661.75
513.477	14633.08
513.679	14774.39
513.881	15151.21
514.084	14944.37
514.286	15067.25
514.488	15034.48
514.69	15448.17
514.893	15548.52
515.095	15478.89
515.297	15585.38
515.499	15665.25
515.701	16095.33
515.904	16158.81
516.106	16367.71
516.308	16357.47
516.51	16466.01
516.712	16558.17
516.914	16463.96
517.116	17197.13
517.318	17084.5
517.52	17307.73
517.722	17051.73
517.925	17430.6
518.127	17635.4
518.329	17627.21
518.531	17467.47
518.733	17842.25
518.935	17989.7
519.136	18122.82
519.338	18329.66
519.54	18352.19
519.742	18663.48
519.944	18632.76
520.146	18618.43
520.348	18937.91
520.55	18915.38
520.752	19191.86
520.954	19505.2
521.155	19220.53
521.357	19429.42
521.559	19646.51
521.761	19990.56
521.963	19523.63
522.164	20271.14
522.366	19992.61
522.568	20234.27
522.77	20363.29
522.971	20613.15
523.173	20402.21
523.375	20467.74
523.576	20367.39
523.778	20271.14
523.98	20815.9
524.181	20846.62
524.383	20854.81
524.584	21131.28
524.786	20903.96
524.988	21049.36
525.189	21231.63
525.391	21305.36
525.592	21473.29
525.794	21727.24
525.995	22001.67
526.197	21659.66
526.398	21440.53
526.6	21817.35
526.801	21753.87
527.003	22339.58
527.204	21917.7
527.406	22079.49
527.607	22024.2
527.808	22024.2
528.01	22003.72
528.211	22091.78
528.412	22249.47
528.614	22464.51
528.815	22300.67
529.016	22783.99
529.218	22491.13
529.419	22620.16
529.62	22478.85
529.822	22419.46
530.023	22585.34
530.224	22534.14
530.425	22675.45
530.626	22562.81
530.828	22722.55
531.029	22769.66
531.23	22908.92
531.431	22396.93
531.632	22706.17
531.833	22827
532.035	22888.44
532.236	22951.93
532.437	23101.43
532.638	23007.22
532.839	22751.23
533.04	22900.73
533.241	22798.33
533.442	23062.52
533.643	22927.35
533.844	22888.44
534.045	22972.41
534.246	22620.16
534.447	23080.95
534.648	22820.86
534.849	23070.71
535.05	22880.25
535.251	23066.61
535.451	22974.45
535.652	22831.1
535.853	22888.44
536.054	22988.79
536.255	23011.32
536.456	22728.7
536.657	23009.27
536.857	23169.01
537.058	22816.76
537.259	23035.89
537.46	23195.64
537.66	22908.92
537.861	23001.08
538.062	23021.56
538.263	22919.16
538.463	22736.89
538.664	22759.42
538.865	23097.33
539.065	23052.28
539.266	22935.54
539.466	23115.76
539.667	22568.96
539.868	23060.47
540.068	22777.85
540.269	22673.4
540.469	22689.79
540.67	22939.64
540.87	22788.09
541.071	22865.91
541.271	22812.67
541.472	22700.03
541.672	22661.12
541.873	22448.13
542.073	22495.23
542.274	22759.42
542.474	22439.93
542.675	22675.45
542.875	22896.63
543.075	22683.64
543.276	22562.81
543.476	22790.14
543.676	22382.59
543.877	22560.77
544.077	22683.64
544.277	22546.43
544.478	22700.03
544.678	22812.67
544.878	22577.15
545.078	22462.46
545.279	22386.69
545.479	22388.74
545.679	22589.44
545.879	22472.7
546.079	22571
546.28	22540.29
546.48	22437.89
546.68	22728.7
546.88	22534.14
547.08	22429.7
547.28	22364.16
547.48	22337.54
547.68	22517.76
547.88	22470.65
548.081	22300.67
548.281	22284.29
548.481	22341.63
548.681	22390.78
548.881	22343.68
549.081	22368.26
549.28	22376.45
549.48	22724.6
549.68	22106.12
549.88	22380.54
550.08	22140.93
550.28	22554.62
550.48	22257.67
550.68	22503.42
550.88	22460.41
551.08	22265.86
551.279	22208.51
551.479	22126.6
551.679	22171.65
551.879	22224.9
552.079	22392.83
552.278	22161.41
552.478	22149.12
552.678	22112.26
552.878	22317.06
553.077	22181.89
553.277	21868.55
553.477	22380.54
553.676	22173.7
553.876	22267.91
554.076	21903.37
554.275	22140.93
554.475	21809.16
554.674	22202.37
554.874	22175.75
555.074	22011.91
555.273	22177.79
555.473	21929.99
555.672	22185.99
555.872	21934.09
556.071	22200.32
556.271	21643.28
556.47	22185.99
556.67	21651.47
556.869	22044.68
557.068	21882.89
557.268	22011.91
557.467	21798.92
557.667	21827.59
557.866	21907.46
558.065	21577.74
558.265	21938.18
558.464	21571.6
558.663	21899.27
558.863	21651.47
559.062	21975.05
559.261	21618.7
559.461	21798.92
559.66	21362.7
559.859	21637.13
560.058	21413.9
560.258	21475.34
560.457	21524.49
560.656	21585.93
560.855	21405.71
561.054	21399.57
561.253	21248.02
561.453	21461.01
561.652	21444.62
561.851	21725.19
562.05	21323.79
562.249	21370.9
562.448	21131.28
562.647	21461.01
562.846	21123.09
563.045	21205.01
563.244	21080.08
563.443	21411.85
563.642	21016.6
563.841	21227.54
564.04	20883.48
564.239	21297.17
564.438	21100.56
564.637	20854.81
564.836	21215.25
565.035	20758.55
565.234	21000.21
565.432	20834.33
565.631	21039.12
565.83	20754.46
566.029	20912.15
566.228	20789.27
566.427	20566.04
566.625	20584.48
566.824	20789.27
567.023	20877.33
567.222	20228.13
567.42	20805.66
567.619	20402.21
567.818	20342.81
568.016	20254.75
568.215	20447.26
568.414	20398.11
568.612	20516.89
568.811	20133.92
569.01	20416.54
569.208	20068.39
569.407	20502.56
569.605	20015.14
569.804	20400.16
570.002	19972.13
570.201	20183.07
570.4	19707.94
570.598	19781.67
570.797	19767.34
570.995	20082.72
571.193	19857.45
571.392	19916.84
571.59	19720.23
571.789	19658.79
571.987	19869.73
572.186	19636.27
572.384	19531.82
572.582	19591.21
572.781	19529.77
572.979	19279.92
573.177	19773.48
573.376	19744.81
573.574	19286.06
573.772	19435.56
573.971	19290.16
574.169	19361.84
574.367	19292.21
574.565	19341.36
574.763	19263.54
574.962	19226.67
575.16	19068.98
575.358	19118.13
575.556	19152.95
575.754	19335.21
575.952	18833.46
576.151	18925.62
576.349	18657.34
576.547	19079.22
576.745	18552.89
576.943	18655.29
577.141	18677.82
577.339	18860.09
577.537	18513.98
577.735	18483.26
577.933	18427.96
578.131	18612.28
578.329	18659.38
578.527	18556.99
578.725	18485.31
578.923	18473.02
579.121	18477.12
579.319	18446.4
579.516	18239.55
579.714	18309.18
579.912	18133.06
580.11	17893.44
580.308	18495.55
580.506	18079.81
580.704	17870.92
580.901	18085.95
581.099	18120.77
581.297	17823.81
581.495	17819.72
581.692	17918.02
581.89	17821.77
582.088	17594.44
582.285	17635.4
582.483	17639.5
582.681	17825.86
582.878	17698.89
583.076	17578.06
583.274	17547.34
583.471	17496.14
583.669	17498.19
583.866	17424.46
584.064	17533
584.262	17494.09
584.459	17451.08
584.657	17197.13
584.854	17176.66
585.052	16914.52
585.249	17432.65
585.447	17168.46
585.644	17055.83
585.841	17096.78
586.039	17256.53
586.236	16816.21
586.434	16814.16
586.631	16957.52
586.828	16836.69
587.026	16531.55
587.223	16826.45
587.42	16746.58
587.618	16832.6
587.815	16586.84
588.012	16605.27
588.21	16449.63
588.407	16554.07
588.604	16205.92
588.801	16484.44
588.999	16250.97
589.196	16394.33
589.393	16468.06
589.59	16326.75
589.787	16097.38
589.984	16177.25
590.182	16089.18
590.379	16353.37
590.576	16089.18
590.773	16306.27
590.97	16031.84
591.167	15966.31
591.364	15896.67
591.561	15747.17
591.758	15646.82
591.955	15689.83
592.152	15599.72
592.349	15595.62
592.546	15726.69
592.743	15579.24
592.94	15431.79
593.137	15595.62
593.334	15433.83
593.531	15239.28
593.727	15308.91
593.924	15405.16
594.121	15265.9
594.318	15132.78
594.515	15177.84
594.712	15204.46
594.908	14921.84
595.105	15104.11
595.302	14884.98
595.499	15048.82
595.696	14950.51
595.892	14794.87
596.089	15057.01
596.286	15036.53
596.482	14729.33
596.679	14669.94
596.876	14940.27
597.072	14557.3
597.269	14708.85
597.466	14309.5
597.662	14596.21
597.859	14391.42
598.055	14557.3
598.252	14377.08
598.448	14489.72
598.645	14237.82
598.841	14256.25
599.038	14229.63
599.234	14080.13
599.431	14059.65
599.627	14135.42
599.824	14264.44
600.02	13801.6
600.217	14157.95
600.413	13813.89
600.609	13807.75
600.806	13944.96
601.002	13887.62
601.198	13791.36
601.395	13516.94
601.591	13797.51
601.787	13582.47
601.984	13478.02
602.18	13654.15
602.376	13609.09
602.572	13633.67
602.769	13396.1
602.965	13545.61
603.161	13373.58
603.357	13295.75
603.553	13072.53
603.75	13394.06
603.946	13271.18
604.142	13150.35
604.338	13357.19
604.534	13250.7
604.73	13248.65
604.926	12925.07
605.122	13168.78
605.318	12937.36
605.514	13056.14
605.71	13011.09
605.906	12959.89
606.102	12816.53
606.298	12707.99
606.494	12796.05
606.69	12867.73
606.886	12732.56
607.082	12511.38
607.278	12767.38
607.474	12544.15
607.67	12697.75
607.866	12370.07
608.062	12746.9
608.257	12335.26
608.453	12294.3
608.649	12337.31
608.845	12402.84
609.041	12365.98
609.236	12347.54
609.432	12474.52
609.628	12359.83
609.824	12361.88
610.019	12048.54
610.215	12296.35
610.411	12468.38
610.606	12226.71
610.802	12161.18
610.998	12103.84
611.193	12177.56
611.389	12134.56
611.584	12206.24
611.78	12087.45
611.976	11874.46
612.171	11960.48
612.367	11993.25
612.562	12005.53
612.758	12001.44
612.953	11729.06
613.149	11933.86
613.344	11688.1
613.539	12105.88
613.735	11868.32
613.93	11933.86
614.126	11770.02
614.321	11935.9
614.517	11940
614.712	11677.86
614.907	11794.59
615.103	11837.6
615.298	11479.21
615.493	11767.97
615.688	11641
615.884	11847.84
616.079	11471.01
616.274	11708.58
616.47	11520.17
616.665	11487.4
616.86	11479.21
617.055	11219.11
617.25	11321.51
617.445	11509.93
617.641	11272.36
617.836	11341.99
618.031	11215.02
618.226	11284.65
618.421	11030.7
618.616	11341.99
618.811	11079.85
619.006	11456.68
619.201	11014.32
619.396	11147.44
619.591	11042.99
619.786	11186.35
619.981	10881.2
620.176	10993.84
620.371	10774.7
620.566	10686.64
620.761	10819.76
620.956	10881.2
621.151	10733.75
621.346	10735.79
621.541	10502.33
621.735	10459.32
621.93	10416.31
622.125	10457.27
622.32	10406.07
622.515	10516.66
622.709	10252.47
622.904	10303.67
623.099	10160.31
623.294	10225.85
623.488	9990.33
623.683	10168.51
623.878	9920.7
624.072	10102.97
624.267	10019
624.462	9814.21
624.656	9791.68
624.851	9810.11
625.046	9521.35
625.24	9519.3
625.435	9494.72
625.629	9558.21
625.824	9418.95
626.018	9488.58
626.213	9400.52
626.407	9275.59
626.602	9144.52
626.796	9326.79
626.991	9308.36
627.185	9183.43
627.38	9107.66
627.574	9040.08
627.768	9021.64
627.963	8992.97
628.157	8863.95
628.352	8921.29
628.546	8788.18
628.74	8806.61
628.935	8599.76
629.129	8761.55
629.323	8607.95
629.517	8499.41
629.712	8603.86
629.906	8581.33
630.1	8335.57
630.294	8579.28
630.489	8392.92
630.683	8249.56
630.877	8141.02
631.071	8208.6
631.265	8282.33
631.459	8108.25
631.653	8163.54
631.848	8034.52
632.042	8077.53
632.236	8007.9
632.43	7938.27
632.624	8016.09
632.818	7911.64
633.012	7846.11
633.206	7629.02
633.4	7827.68
633.594	7704.8
633.788	7749.86
633.982	7704.8
634.176	7569.63
634.369	7463.14
634.563	7538.91
634.757	7538.91
634.951	7409.89
635.145	7315.69
635.339	7590.11
635.533	7321.83
635.726	7358.69
635.92	6912.24
636.114	7041.26
636.308	7268.58
636.501	7231.72
636.695	7188.71
636.889	7069.93
637.083	7057.64
637.276	7088.36
637.47	6875.37
637.664	6926.57
637.857	6826.22
638.051	6779.12
638.244	6758.64
638.438	6768.88
638.632	6750.45
638.825	6545.65
639.019	6535.41
639.212	6539.51
639.406	6613.23
639.599	6514.93
639.793	6531.31
639.986	6347
640.18	6674.67
640.373	6355.19
640.567	6385.91
640.76	6373.62
640.954	6322.42
641.147	6312.18
641.34	6320.37
641.534	6381.81
641.727	6338.8
641.92	6248.69
642.114	6158.58
642.307	6117.62
642.5	5957.88
642.694	5902.59
642.887	5964.03
643.08	5875.96
643.273	5996.79
643.467	5894.4
643.66	5830.91
643.853	5755.13
644.046	5781.76
644.239	5695.74
644.432	5835
644.626	5611.78
644.819	5513.47
645.012	5710.08
645.205	5650.69
645.398	5642.5
645.591	5400.83
645.784	5548.29
645.977	5552.38
646.17	5585.15
646.363	5482.75
646.556	5413.12
646.749	5472.51
646.942	5507.33
647.135	5181.7
647.328	5394.69
647.521	5361.92
647.714	5308.68
647.907	5361.92
648.099	5193.99
648.292	5327.11
648.485	5220.61
648.678	5062.92
648.871	5173.51
649.064	5007.62
649.256	5054.73
649.449	5091.59
649.642	4851.98
649.835	5128.46
650.027	4831.5
650.22	4796.68
650.413	4956.43
650.605	4944.14
650.798	4882.7
650.991	4886.79
651.183	4872.46
651.376	4819.21
651.568	4749.58
651.761	4821.26
651.954	4735.25
652.146	4628.75
652.339	4725.01
652.531	4573.46
652.724	4665.61
652.916	4382.99
653.109	4636.94
653.301	4546.83
653.494	4485.39
653.686	4489.49
653.879	4477.2
654.071	4460.82
654.263	4552.98
654.456	4434.19
654.648	4354.32
654.84	4247.83
655.033	4241.68
655.225	4333.84
655.417	4258.07
655.61	4294.93
655.802	4131.09
655.994	4092.18
656.186	4258.07
656.379	4178.2
656.571	4206.87
656.763	4079.9
656.955	4077.85
657.148	4153.62
657.34	4038.94
657.532	3916.06
657.724	3946.78
657.916	3959.06
658.108	3948.83
658.3	3848.47
658.492	3952.92
658.684	3850.52
658.876	3850.52
659.068	3864.86
659.26	3848.47
659.452	3737.88
659.644	3703.07
659.836	3737.88
660.028	3852.57
660.22	3754.27
660.412	3787.04
660.604	3713.31
660.796	3827.99
660.988	3680.54
661.18	3752.22
661.372	3754.27
661.563	3635.49
661.755	3553.57
661.947	3508.51
662.139	3459.36
662.331	3514.66
662.522	3612.96
662.714	3555.62
662.906	3461.41
663.097	3422.5
663.289	3313.95
663.481	3371.3
663.673	3404.07
663.864	3369.25
664.056	3340.58
664.247	3408.16
664.439	3416.35
664.631	3307.81
664.822	3356.96
665.014	3313.95
665.205	3334.43
665.397	3180.84
665.588	3369.25
665.78	3193.12
665.971	3213.6
666.163	3252.52
666.354	3346.72
666.546	3176.74
666.737	3172.64
666.929	3213.6
667.12	3180.84
667.311	3053.86
667.503	3115.3
667.694	3084.58
667.885	3129.64
668.077	2969.9
668.268	3072.29
668.459	2982.18
668.651	3076.39
668.842	3000.62
669.033	2887.98
669.224	2973.99
669.416	2926.89
669.607	2971.94
669.798	2890.03
669.989	2943.27
670.18	2859.31
670.371	2881.83
670.563	2853.16
670.754	2951.46
670.945	2840.87
671.136	2844.97
671.327	2767.15
671.518	2840.87
671.709	2902.31
671.9	2863.4
672.091	2834.73
672.282	2863.4
672.473	2828.59
672.664	2718
672.855	2947.37
673.046	2660.65
673.237	2758.96
673.428	2892.07
673.619	2857.26
673.809	2742.57
674	2713.9
674.191	2857.26
674.382	2707.76
674.573	2799.91
674.764	2605.36
674.954	2693.42
675.145	2617.65
675.336	2658.6
675.527	2490.67
675.717	2681.13
675.908	2621.74
676.099	2662.7
676.289	2586.93
676.48	2554.16
676.671	2502.96
676.861	2607.41
677.052	2476.34
677.243	2543.92
677.433	2490.67
677.624	2619.69
677.814	2627.89
678.005	2677.04
678.195	2568.49
678.386	2586.93
678.576	2447.66
678.767	2462
678.957	2541.87
679.148	2568.49
679.338	2525.49
679.529	2529.58
679.719	2486.58
679.909	2525.49
680.1	2388.27
680.29	2490.67
680.481	2515.25
680.671	2320.69
680.861	2457.9
681.052	2511.15
681.242	2457.9
681.432	2488.62
681.622	2396.46
681.813	2496.82
682.003	2406.7
682.193	2390.32
682.383	2359.6
682.573	2386.22
682.764	2396.46
682.954	2326.83
683.144	2341.17
683.334	2355.51
683.524	2382.13
683.714	2437.42
683.904	2289.97
684.094	2457.9
684.284	2318.64
684.474	2498.86
684.664	2359.6
684.854	2414.9
685.044	2244.92
685.234	2226.48
685.424	2294.07
685.614	2347.31
685.804	2195.76
685.994	2302.26
686.184	2359.6
686.374	2251.06
686.564	2238.77
686.753	2253.11
686.943	2212.15
687.133	2349.36
687.323	2230.58
687.513	2203.96
687.702	2206
687.892	2175.28
688.082	2171.19
688.272	2107.7
688.461	2079.03
688.651	2218.29
688.841	1993.01
689.03	2068.79
689.22	2079.03
689.41	2050.36
689.599	2111.8
689.789	2048.31
689.979	2060.6
690.168	2144.56
690.358	2025.78
690.547	2009.4
690.737	1982.78
690.926	2007.35
691.116	2013.49
691.305	2023.73
691.495	1970.49
691.684	1958.2
691.874	1968.44
692.063	2017.59
692.252	1954.1
692.442	1925.43
692.631	1882.42
692.82	1937.72
693.01	2011.45
693.199	1935.67
693.388	1902.9
693.578	2003.25
693.767	1917.24
693.956	1825.08
694.146	1919.29
694.335	1925.43
694.524	1956.15
694.713	1882.42
694.902	1882.42
695.092	1835.32
695.281	1814.84
695.47	1747.26
695.659	1861.94
695.848	1802.55
696.037	1849.66
696.226	1820.99
696.415	1798.46
696.604	1884.47
696.793	1757.5
696.982	1839.42
697.171	1823.03
697.36	1759.55
697.549	1806.65
697.738	1718.59
697.927	1829.18
698.116	1800.51
698.305	1855.8
698.494	1749.31
698.683	1806.65
698.872	1827.13
699.061	1874.23
699.25	1843.51
699.438	1753.4
699.627	1687.87
699.816	1782.07
700.005	1837.37
700.193	1777.98
700.382	1796.41
700.571	1786.17
700.76	1810.75
700.948	1780.03
701.137	1771.83
701.326	1728.83
701.514	1820.99
701.703	1677.63
701.892	1857.85
702.08	1749.31
702.269	1749.31
702.457	1745.21
702.646	1896.76
702.834	1839.42
703.023	1759.55
703.212	1792.31
703.4	1780.03
703.589	1714.49
703.777	1796.41
703.965	1812.79
704.154	1708.35
704.342	1728.83
704.531	1800.51
704.719	1757.5
704.907	1859.9
705.096	1749.31
705.284	1747.26
705.472	1841.47
705.661	1718.59
705.849	1857.85
706.037	1767.74
706.226	1790.27
706.414	1802.55
706.602	1696.06
706.79	1669.44
706.979	1728.83
707.167	1765.69
707.355	1802.55
707.543	1689.92
707.731	1857.85
707.919	1794.36
708.107	1788.22
708.296	1786.17
708.484	1771.83
708.672	1763.64
708.86	1765.69
709.048	1857.85
709.236	1814.84
709.424	1841.47
709.612	1855.8
709.8	1698.11
709.988	1753.4
710.176	1837.37
710.364	1796.41
710.551	1816.89
710.739	1876.28
710.927	1790.27
711.115	1759.55
711.303	1833.27
711.491	1773.88
711.679	1722.68
711.866	1853.75
712.054	1820.99
712.242	1782.07
712.43	1753.4
712.617	1859.9
712.805	1802.55
712.993	1718.59
713.181	1732.92
713.368	1812.79
713.556	1792.31
713.744	1863.99
713.931	1825.08
714.119	1743.16
714.306	1814.84
714.494	1900.86
714.682	1716.54
714.869	1745.21
715.057	1845.56
715.244	1683.77
715.432	1812.79
715.619	1947.96
715.807	1790.27
715.994	1765.69
716.182	1833.27
716.369	1870.14
716.556	1777.98
716.744	1753.4
716.931	1941.82
717.119	1777.98
717.306	1847.61
717.493	1816.89
717.681	1878.33
717.868	1827.13
718.055	1802.55
718.242	1896.76
718.43	1845.56
718.617	1866.04
718.804	1831.23
718.991	1925.43
719.179	1845.56
719.366	1751.35
719.553	1863.99
719.74	1853.75
719.927	1847.61
720.114	1855.8
720.301	1749.31
720.488	1810.75
720.676	1851.71
720.863	1792.31
721.05	1816.89
721.237	1777.98
721.424	1843.51
721.611	1890.62
721.798	1796.41
721.985	1820.99
722.172	1820.99
722.358	1782.07
722.545	1866.04
722.732	1800.51
722.919	1882.42
723.106	1804.6
723.293	1775.93
723.48	1816.89
723.667	1749.31
723.853	1753.4
724.04	1857.85
724.227	1820.99
724.414	1786.17
724.6	1765.69
724.787	1726.78
724.974	1761.59
725.161	1747.26
725.347	1741.11
725.534	1880.38
725.72	1814.84
725.907	1882.42
726.094	1765.69
726.28	1839.42
726.467	1694.01
726.653	1734.97
726.84	1845.56
727.027	1833.27
727.213	1868.09
727.4	1956.15
727.586	1812.79
727.773	1786.17
727.959	1734.97
728.145	1726.78
728.332	1782.07
728.518	1755.45
728.705	1861.94
728.891	1810.75
729.077	1677.63
729.264	1739.07
729.45	1698.11
729.636	1802.55
729.823	1712.44
730.009	1839.42
730.195	1808.7
730.382	1796.41
730.568	1618.24
730.754	1800.51
730.94	1804.6
731.126	1814.84
731.313	1818.94
731.499	1749.31
731.685	1790.27
731.871	1853.75
732.057	1724.73
732.243	1737.02
732.429	1732.92
732.615	1853.75
732.801	1728.83
732.987	1673.53
733.173	1771.83
733.359	1790.27
733.545	1659.2
733.731	1775.93
733.917	1812.79
734.103	1808.7
734.289	1814.84
734.475	1755.45
734.661	1818.94
734.847	1747.26
735.033	1759.55
735.219	1677.63
735.404	1767.74
735.59	1724.73
735.776	1747.26
735.962	1726.78
736.148	1708.35
736.333	1775.93
736.519	1642.81
736.705	1716.54
736.89	1714.49
737.076	1689.92
737.262	1673.53
737.447	1677.63
737.633	1710.4
737.819	1583.42
738.004	1751.35
738.19	1663.29
738.375	1732.92
738.561	1757.5
738.747	1628.48
738.932	1702.2
739.118	1663.29
739.303	1687.87
739.489	1648.96
739.674	1610.04
739.859	1665.34
740.045	1564.99
740.23	1636.67
740.416	1608
740.601	1540.41
740.786	1567.04
740.972	1710.4
741.157	1534.27
741.342	1550.65
741.528	1546.56
741.713	1564.99
741.898	1526.08
742.084	1583.42
742.269	1442.11
742.454	1521.98
742.639	1673.53
742.824	1485.12
743.01	1515.84
743.195	1495.36
743.38	1509.69
743.565	1505.6
743.75	1569.09
743.935	1503.55
744.12	1573.18
744.305	1493.31
744.49	1478.97
744.675	1528.13
744.86	1417.54
745.045	1423.68
745.23	1497.41
745.415	1497.41
745.6	1474.88
745.785	1468.73
745.97	1388.86
746.155	1483.07
746.34	1429.82
746.525	1431.87
746.71	1505.6
746.895	1454.4
747.079	1280.32
747.264	1405.25
747.449	1511.74
747.634	1417.54
747.819	1333.57
748.003	1423.68
748.188	1257.79
748.373	1386.82
748.557	1304.9
748.742	1231.17
748.927	1360.19
749.111	1237.31
749.296	1218.88
749.481	1247.55
749.665	1241.41
749.85	1323.33
750.034	1184.07
750.219	1229.12
750.404	1296.71
750.588	1225.03
750.773	1263.94
750.957	1196.36
751.141	1270.08
751.326	1208.64
751.51	1153.35
751.695	1253.7
751.879	1222.98
752.064	1216.83
752.248	1186.12
752.432	1145.16
752.617	1149.25
752.801	1194.31
752.985	1190.21
753.17	1143.11
753.354	1102.15
753.538	1057.09
753.722	1089.86
753.907	1089.86
754.091	1130.82
754.275	1085.76
754.459	1073.48
754.643	1106.24
754.828	1139.01
755.012	921.93
755.196	1042.76
755.38	981.32
755.564	995.65
755.748	1024.33
755.932	966.98
756.116	1057.09
756.3	989.51
756.484	1032.52
756.668	1020.23
756.852	946.5
757.036	899.4
757.22	934.22
757.404	981.32
757.588	889.16
757.772	971.08
757.956	889.16
758.14	950.6
758.323	897.35
758.507	936.26
758.691	833.86
758.875	825.67
759.059	956.74
759.242	991.56
759.426	938.31
759.61	934.22
759.794	909.64
759.977	854.34
760.161	907.59
760.345	870.73
760.528	917.83
760.712	880.97
760.895	852.3
761.079	858.44
761.263	846.15
761.446	833.86
761.63	823.62
761.813	819.53
761.997	870.73
762.18	776.52
762.364	846.15
762.547	776.52
762.731	776.52
762.914	758.09
763.098	817.48
763.281	747.85
763.464	837.96
763.648	743.75
763.831	835.91
764.015	708.94
764.198	766.28
764.381	751.95
764.564	753.99
764.748	747.85
764.931	715.08
765.114	686.41
765.297	678.22
765.481	680.27
765.664	776.52
765.847	741.71
766.03	780.62
766.213	780.62
766.397	702.79
766.58	747.85
766.763	758.09
766.946	676.17
767.129	801.1
767.312	639.31
767.495	776.52
767.678	659.79
767.861	745.8
768.044	749.9
768.227	729.42
768.41	655.69
768.593	696.65
768.776	651.6
768.959	710.99
769.142	647.5
769.324	659.79
769.507	674.12
769.69	604.49
769.873	643.4
770.056	751.95
770.239	792.91
770.421	674.12
770.604	622.92
770.787	641.36
770.97	606.54
771.152	629.07
771.335	667.98
771.518	645.45
771.7	684.36
771.883	665.93
772.066	665.93
772.248	563.53
772.431	674.12
772.613	649.55
772.796	672.08
772.978	631.12
773.161	555.34
773.343	504.14
773.526	520.53
773.708	631.12
773.891	698.7
774.073	612.68
774.256	584.01
774.438	637.26
774.621	567.63
774.803	588.11
774.985	598.35
775.168	596.3
775.35	457.04
775.532	493.9
775.715	502.09
775.897	543.05
776.079	581.96
776.261	571.72
776.444	545.1
776.626	530.77
776.808	588.11
776.99	506.19
777.173	534.86
777.355	481.61
777.537	518.48
777.719	465.23
777.901	495.95
778.083	512.33
778.265	416.08
778.447	504.14
778.629	463.18
778.811	475.47
778.993	530.77
779.175	514.38
779.357	491.85
779.539	436.56
779.721	440.65
779.903	438.61
780.085	487.76
780.267	442.7
780.449	452.94
780.631	418.13
780.812	489.81
780.994	495.95
781.176	481.61
781.358	522.57
781.54	471.37
781.721	432.46
781.903	387.41
782.085	444.75
782.267	379.22
782.448	342.35
782.63	381.26
782.812	375.12
782.993	407.89
783.175	301.39
783.357	426.32
783.538	434.51
783.72	368.98
783.901	391.5
784.083	424.27
784.264	405.84
784.446	307.54
784.627	352.59
784.809	358.74
784.99	342.35
785.172	426.32
785.353	407.89
785.535	346.45
785.716	397.65
785.897	364.88
786.079	356.69
786.26	340.3
786.441	321.87
786.623	354.64
786.804	407.89
786.985	371.02
787.167	407.89
787.348	334.16
787.529	289.1
787.71	270.67
787.891	332.11
788.073	379.22
788.254	278.87
788.435	233.81
788.616	291.15
788.797	344.4
788.978	328.02
789.159	311.63
789.34	350.54
789.522	274.77
789.703	336.21
789.884	305.49
790.065	313.68
790.246	366.93
790.427	297.3
790.607	276.82
790.788	289.1
790.969	295.25
791.15	235.86
791.331	256.34
791.512	176.47
791.693	315.73
791.874	258.39
792.054	237.91
792.235	264.53
792.416	248.15
792.597	203.09
792.778	219.47
792.958	235.86
793.139	209.23
793.32	207.19
793.5	225.62
793.681	231.76
793.862	205.14
794.042	215.38
794.223	248.15
794.404	237.91
794.584	242
794.765	219.47
794.945	168.27
795.126	276.82
795.306	248.15
795.487	188.75
795.667	180.56
795.848	252.24
796.028	258.39
796.209	168.27
796.389	231.76
796.57	246.1
796.75	170.32
796.93	293.2
797.111	270.67
797.291	223.57
797.471	203.09
797.652	242
797.832	110.93
798.012	174.42
798.192	170.32
798.373	180.56
798.553	178.51
798.733	256.34
798.913	162.13
799.093	158.03
799.274	229.71
799.454	178.51
799.634	244.05
799.814	162.13
799.994	184.66
800.174	209.23
800.354	223.57
800.534	174.42
800.714	145.75
800.894	209.23
801.074	172.37
801.254	166.23
801.434	184.66
801.614	215.38
801.794	119.12
801.974	491.85
802.154	219.47
802.334	192.85
802.514	162.13
802.693	194.9
802.873	162.13
803.053	176.47
803.233	162.13
803.413	145.75
803.592	129.36
803.772	123.22
803.952	172.37
804.131	196.95
804.311	227.67
804.491	182.61
804.67	176.47
804.85	92.5
805.03	184.66
805.209	205.14
805.389	119.12
805.568	112.98
805.748	139.6
805.928	139.6
806.107	205.14
806.287	184.66
806.466	192.85
806.646	184.66
806.825	123.22
807.004	112.98
807.184	160.08
807.363	258.39
807.543	168.27
807.722	149.84
807.901	137.56
808.081	182.61
808.26	160.08
808.439	182.61
808.619	223.57
808.798	158.03
808.977	151.89
809.156	133.46
809.336	176.47
809.515	162.13
809.694	186.71
809.873	176.47
810.052	147.8
810.231	211.28
810.411	131.41
810.59	123.22
810.769	162.13
810.948	121.17
811.127	119.12
811.306	223.57
811.485	100.69
811.664	110.93
811.843	162.13
812.022	76.12
812.201	108.88
812.38	100.69
812.559	137.56
812.737	184.66
812.916	43.35
813.095	153.94
813.274	106.84
813.453	145.75
813.632	168.27
813.811	96.6
813.989	72.02
814.168	121.17
814.347	49.49
814.526	149.84
814.704	166.23
814.883	100.69
815.062	117.08
815.24	98.64
815.419	147.8
815.598	123.22
815.776	100.69
815.955	227.67
816.133	72.02
816.312	86.36
816.49	121.17
816.669	145.75
816.847	155.99
817.026	145.75
817.204	188.75
817.383	139.6
817.561	78.16
817.74	125.27
817.918	110.93
818.097	33.11
818.275	49.49
818.453	123.22
818.632	92.5
818.81	147.8
818.988	80.21
819.167	176.47
819.345	14.68
819.523	67.92
819.701	98.64
819.879	166.23
820.058	117.08
820.236	69.97
820.414	72.02
820.592	86.36
820.77	78.16
820.948	182.61
821.127	98.64
821.305	108.88
821.483	96.6
821.661	121.17
821.839	133.46
822.017	125.27
822.195	92.5
822.373	131.41
822.551	125.27
822.729	100.69
822.907	112.98
823.085	110.93
823.262	125.27
823.44	59.73
823.618	102.74
823.796	131.41
823.974	108.88
824.152	100.69
824.329	106.84
824.507	115.03
824.685	123.22
824.863	67.92
825.04	74.07
825.218	125.27
825.396	31.06
825.574	37.2
825.751	57.68
825.929	131.41
826.107	63.83
826.284	84.31
826.462	160.08
826.639	72.02
826.817	141.65
826.994	84.31
827.172	74.07
827.349	127.32
827.527	98.64
827.704	119.12
827.882	121.17
828.059	33.11
828.237	57.68
828.414	115.03
828.591	37.2
828.769	76.12
828.946	-9.9
829.124	110.93
829.301	158.03
829.478	80.21
829.655	72.02
829.833	45.4
830.01	106.84
830.187	78.16
830.364	100.69
830.542	39.25
830.719	57.68
830.896	10.58
831.073	39.25
831.25	20.82
831.427	61.78
831.604	86.36
831.782	80.21
831.959	69.97
832.136	92.5
832.313	90.45
832.49	16.73
832.667	110.93
832.844	39.25
833.021	2.39
833.198	92.5
833.374	133.46
833.551	65.88
833.728	76.12
833.905	135.51
834.082	63.83
834.259	88.4
834.436	104.79
834.612	69.97
834.789	223.57
834.966	76.12
835.143	41.3
835.319	67.92
835.496	24.92
835.673	55.64
835.85	106.84
836.026	47.44
836.203	86.36
836.38	51.54
836.556	6.49
836.733	112.98
836.909	41.3
837.086	-16.04
837.262	100.69
837.439	35.16
837.616	137.56
837.792	76.12
837.968	59.73
838.145	-30.38
838.321	72.02
838.498	14.68
838.674	82.26
838.851	90.45
839.027	59.73
839.203	76.12
839.38	76.12
839.556	-13.99
839.732	61.78
839.909	92.5
840.085	31.06
840.261	2.39
840.437	24.92
840.614	2.39
840.79	47.44
840.966	112.98
841.142	115.03
841.318	-40.62
841.494	151.89
841.671	112.98
841.847	-63.15
842.023	41.3
842.199	57.68
842.375	119.12
842.551	59.73
842.727	33.11
842.903	49.49
843.079	10.58
843.255	39.25
843.431	123.22
843.607	88.4
843.783	2.39
843.959	82.26
844.134	119.12
844.31	55.64
844.486	12.63
844.662	59.73
844.838	51.54
845.013	117.08
845.189	80.21
845.365	98.64
845.541	33.11
845.716	123.22
845.892	22.87
846.068	96.6
846.244	6.49
846.419	22.87
846.595	41.3
846.77	82.26
846.946	-13.99
847.122	78.16
847.297	20.82
847.473	98.64
847.648	14.68
847.824	10.58
847.999	-50.86
848.175	-32.43
848.35	63.83
848.526	45.4
848.701	80.21
848.876	84.31
849.052	31.06
849.227	90.45
849.403	22.87
849.578	47.44
849.753	-34.47
849.929	78.16
850.104	8.53
850.279	92.5
850.454	10.58
850.63	65.88
850.805	16.73
850.98	74.07
851.155	129.36
851.33	41.3
851.505	51.54
851.681	102.74
851.856	53.59
852.031	49.49
852.206	108.88
852.381	72.02
852.556	22.87
852.731	35.16
852.906	35.16
853.081	100.69
853.256	26.96
853.431	45.4
853.606	-3.75
853.781	4.44
853.956	0.34
854.131	14.68
854.305	8.53
854.48	55.64
854.655	84.31
854.83	-30.38
855.005	65.88
855.18	29.01
855.354	47.44
855.529	86.36
855.704	31.06
855.879	55.64
856.053	65.88
856.228	104.79
856.403	-30.38
856.577	86.36
856.752	4.44
856.926	-44.71
857.101	69.97
857.276	61.78
857.45	6.49
857.625	43.35
857.799	-30.38
857.974	-22.19
858.148	0.34
858.323	-1.71
858.497	39.25
858.672	31.06
858.846	-5.8
859.02	24.92
859.195	2.39
859.369	82.26
859.543	45.4
859.718	14.68
859.892	59.73
860.066	39.25
860.241	43.35
860.415	29.01
860.589	57.68
860.763	8.53
860.938	0.34
861.112	106.84
861.286	69.97
861.46	-50.86
861.634	35.16
861.808	80.21
861.982	41.3
862.157	10.58
862.331	53.59
862.505	-63.15
862.679	-5.8
862.853	-3.75
863.027	0.34
863.201	63.83
863.375	6.49
863.549	53.59
863.722	-7.85
863.896	47.44
864.07	61.78
864.244	51.54
864.418	33.11
864.592	47.44
864.766	47.44
864.939	-3.75
865.113	-50.86
865.287	51.54
865.461	-20.14
865.634	-16.04
865.808	4.44
865.982	35.16
866.156	47.44
866.329	26.96
866.503	20.82
866.676	63.83
866.85	4.44
867.024	43.35
867.197	41.3
867.371	43.35
867.544	45.4
867.718	-11.95
867.891	39.25
868.065	65.88
868.238	78.16
868.412	106.84
868.585	-24.23
868.759	8.53
868.932	-40.62
869.105	39.25
869.279	-16.04
869.452	-1.71
869.625	-24.23
869.799	59.73
869.972	-28.33
870.145	49.49
870.319	33.11
870.492	43.35
870.665	-50.86
870.838	49.49
871.011	26.96
871.185	8.53
871.358	29.01
871.531	127.32
871.704	24.92
871.877	43.35
872.05	-46.76
872.223	84.31
872.396	78.16
872.569	41.3
872.742	-11.95
872.915	59.73
873.088	6.49
873.261	20.82
873.434	37.2
873.607	2.39
873.78	24.92
873.953	-28.33
874.126	0.34
874.299	63.83
874.471	-1.71
874.644	2.39
874.817	74.07
874.99	51.54
875.163	51.54
875.335	63.83
875.508	-1.71
875.681	20.82
875.853	-40.62
876.026	-3.75
876.199	43.35
876.371	82.26
876.544	45.4
876.717	-42.67
876.889	8.53
877.062	-20.14
877.234	-3.75
877.407	-3.75
877.579	24.92
877.752	6.49
877.924	8.53
878.097	69.97
878.269	35.16
878.442	-50.86
878.614	55.64
878.786	-3.75
878.959	26.96
879.131	35.16
879.303	14.68
879.476	80.21
879.648	49.49
879.82	88.4
879.993	78.16
880.165	76.12
880.337	8.53
880.509	37.2
880.681	0.34
880.854	-50.86
881.026	10.58
881.198	55.64
881.37	51.54
881.542	55.64
881.714	53.59
881.886	-11.95
882.058	-30.38
882.23	59.73
882.402	-20.14
882.574	22.87
882.746	55.64
882.918	90.45
883.09	-30.38
883.262	37.2
883.434	-26.28
883.606	-67.24
883.778	10.58
883.95	178.51
884.122	-7.85
884.293	6.49
884.465	-16.04
884.637	131.41
884.809	14.68
884.98	-44.71
885.152	-13.99
885.324	82.26
885.496	53.59
885.667	41.3
885.839	8.53
886.011	37.2
886.182	96.6
886.354	-5.8
886.525	-30.38
886.697	6.49
886.869	-18.09
887.04	14.68
887.212	88.4
887.383	33.11
887.555	24.92
887.726	33.11
887.897	-18.09
888.069	-11.95
888.24	18.77
888.412	24.92
888.583	16.73
888.754	20.82
888.926	84.31
889.097	-61.1
889.268	-59.05
889.44	39.25
889.611	88.4
889.782	12.63
889.953	-18.09
890.125	37.2
890.296	-44.71
890.467	4.44
890.638	65.88
890.809	67.92
890.98	20.82
891.151	35.16
891.323	22.87
891.494	14.68
891.665	14.68
891.836	12.63
892.007	-13.99
892.178	-13.99
892.349	90.45
892.52	-42.67
892.691	18.77
892.862	-28.33
893.032	31.06
893.203	88.4
893.374	14.68
893.545	51.54
893.716	-22.19
893.887	53.59
894.057	61.78
894.228	22.87
894.399	53.59
894.57	57.68
894.74	55.64
894.911	24.92
895.082	26.96
895.253	49.49
895.423	6.49
895.594	20.82
895.764	14.68
895.935	-5.8
896.106	39.25
896.276	-87.72
896.447	2.39
896.617	-34.47
896.788	2.39
896.958	-34.47
897.129	-11.95
897.299	-18.09
897.47	47.44
897.64	16.73
897.81	-50.86
897.981	8.53
898.151	-32.43
898.322	33.11
898.492	74.07
898.662	18.77
898.832	-20.14
899.003	20.82
899.173	16.73
899.343	35.16
899.513	53.59
