Data from USB4F104151__8__12-00-21-515.txt Node

Date: Fri Mar 14 12:00:21 EDT 2025
User: louis
Spectrometer: USB4F10415
Trigger mode: 4
Integration Time (sec): 2.000000E-2
Scans to average: 1
Electric dark correction enabled: true
Nonlinearity correction enabled: false
Boxcar width: 0
XAxis mode: Wavelengths
Number of Pixels in Spectrum: 3648
>>>>>Begin Spectral Data<<<<<
178.204	-98.64
178.424	-98.64
178.644	-98.64
178.864	-67.92
179.084	-110.93
179.304	28.33
179.524	11.95
179.744	-14.68
179.964	93.87
180.184	13.99
180.404	11.95
180.624	5.8
180.844	-12.63
181.064	-29.01
181.283	-61.78
181.503	-43.35
181.723	-4.44
181.943	-2.39
182.163	57
182.383	1.71
182.602	24.23
182.822	77.48
183.042	73.39
183.262	-12.63
183.482	-8.53
183.701	36.52
183.921	-14.68
184.141	-22.87
184.361	38.57
184.58	-24.92
184.8	3.75
185.02	-33.11
185.239	91.82
185.459	-98.64
185.679	36.52
185.898	-47.44
186.118	-0.34
186.338	-8.53
186.557	-53.59
186.777	-29.01
186.997	-55.64
187.216	69.29
187.436	97.96
187.655	48.81
187.875	-24.92
188.095	-55.64
188.314	13.99
188.534	36.52
188.753	32.43
188.973	38.57
189.192	9.9
189.412	42.67
189.631	42.67
189.851	20.14
190.07	-6.49
190.29	-20.82
190.509	-2.39
190.729	-6.49
190.948	97.96
191.168	59.05
191.387	79.53
191.607	-26.96
191.826	28.33
192.045	18.09
192.265	11.95
192.484	-24.92
192.704	9.9
192.923	54.95
193.142	83.63
193.362	46.76
193.581	9.9
193.8	20.14
194.02	67.24
194.239	-6.49
194.458	-8.53
194.678	13.99
194.897	1.71
195.116	42.67
195.335	61.1
195.555	63.15
195.774	44.71
195.993	-20.82
196.212	-10.58
196.432	-39.25
196.651	-16.73
196.87	73.39
197.089	24.23
197.308	83.63
197.528	20.14
197.747	-37.2
197.966	-24.92
198.185	48.81
198.404	7.85
198.623	16.04
198.842	5.8
199.062	28.33
199.281	40.62
199.5	32.43
199.719	24.23
199.938	-14.68
200.157	-45.4
200.376	-20.82
200.595	65.19
200.814	44.71
201.033	46.76
201.252	-49.49
201.471	48.81
201.69	97.96
201.909	-69.97
202.128	54.95
202.347	18.09
202.566	48.81
202.785	-37.2
203.004	-20.82
203.223	30.38
203.442	7.85
203.661	36.52
203.879	-55.64
204.098	18.09
204.317	-33.11
204.536	22.19
204.755	-12.63
204.974	95.91
205.193	77.48
205.411	85.67
205.63	-18.77
205.849	-0.34
206.068	20.14
206.287	46.76
206.505	11.95
206.724	9.9
206.943	18.09
207.162	-29.01
207.381	7.85
207.599	5.8
207.818	-26.96
208.037	7.85
208.255	11.95
208.474	32.43
208.693	3.75
208.911	85.67
209.13	40.62
209.349	42.67
209.567	48.81
209.786	24.23
210.005	36.52
210.223	3.75
210.442	1.71
210.661	61.1
210.879	-49.49
211.098	63.15
211.316	-8.53
211.535	-37.2
211.753	-108.88
211.972	16.04
212.191	-14.68
212.409	54.95
212.628	44.71
212.846	1.71
213.065	-37.2
213.283	57
213.502	93.87
213.72	9.9
213.938	7.85
214.157	-8.53
214.375	34.47
214.594	-18.77
214.812	-26.96
215.031	-0.34
215.249	22.19
215.467	28.33
215.686	5.8
215.904	32.43
216.122	-6.49
216.341	-26.96
216.559	11.95
216.778	69.29
216.996	63.15
217.214	46.76
217.432	-39.25
217.651	13.99
217.869	-0.34
218.087	48.81
218.306	-2.39
218.524	-12.63
218.742	24.23
218.96	-10.58
219.179	-29.01
219.397	-20.82
219.615	124.58
219.833	65.19
220.051	-10.58
220.27	-2.39
220.488	30.38
220.706	-4.44
220.924	11.95
221.142	1.71
221.36	-24.92
221.578	-12.63
221.796	9.9
222.015	71.34
222.233	-8.53
222.451	22.19
222.669	-53.59
222.887	57
223.105	52.91
223.323	18.09
223.541	-24.92
223.759	89.77
223.977	-6.49
224.195	77.48
224.413	-39.25
224.631	-47.44
224.849	28.33
225.067	-18.77
225.285	87.72
225.503	20.14
225.721	-49.49
225.939	-4.44
226.157	-43.35
226.375	24.23
226.592	24.23
226.81	30.38
227.028	34.47
227.246	59.05
227.464	24.23
227.682	83.63
227.9	38.57
228.117	26.28
228.335	18.09
228.553	7.85
228.771	46.76
228.989	16.04
229.206	-0.34
229.424	-41.3
229.642	-53.59
229.86	-24.92
230.077	-2.39
230.295	42.67
230.513	59.05
230.731	69.29
230.948	20.14
231.166	-16.73
231.384	26.28
231.601	-0.34
231.819	-2.39
232.037	50.86
232.254	26.28
232.472	20.14
232.689	28.33
232.907	28.33
233.125	11.95
233.342	-37.2
233.56	-14.68
233.777	57
233.995	52.91
234.213	3.75
234.43	30.38
234.648	1.71
234.865	-10.58
235.083	7.85
235.3	-20.82
235.518	-22.87
235.735	-8.53
235.953	40.62
236.17	-4.44
236.388	-2.39
236.605	28.33
236.822	46.76
237.04	-78.16
237.257	20.14
237.475	20.14
237.692	-20.82
237.909	-8.53
238.127	-4.44
238.344	-47.44
238.562	-14.68
238.779	-29.01
238.996	3.75
239.214	36.52
239.431	9.9
239.648	-10.58
239.865	11.95
240.083	-12.63
240.3	-12.63
240.517	-41.3
240.735	3.75
240.952	42.67
241.169	24.23
241.386	-22.87
241.603	-78.16
241.821	7.85
242.038	-8.53
242.255	-4.44
242.472	16.04
242.689	50.86
242.907	87.72
243.124	24.23
243.341	-18.77
243.558	-14.68
243.775	-31.06
243.992	-43.35
244.209	28.33
244.426	22.19
244.643	46.76
244.86	-16.73
245.078	30.38
245.295	-26.96
245.512	-41.3
245.729	-8.53
245.946	-29.01
246.163	42.67
246.38	11.95
246.597	-14.68
246.814	1.71
247.031	22.19
247.248	22.19
247.464	42.67
247.681	40.62
247.898	7.85
248.115	52.91
248.332	11.95
248.549	63.15
248.766	40.62
248.983	48.81
249.2	24.23
249.417	89.77
249.633	1.71
249.85	-14.68
250.067	50.86
250.284	57
250.501	11.95
250.717	9.9
250.934	-41.3
251.151	40.62
251.368	67.24
251.585	36.52
251.801	-31.06
252.018	32.43
252.235	11.95
252.451	46.76
252.668	-18.77
252.885	36.52
253.102	20.14
253.318	3.75
253.535	18.09
253.752	38.57
253.968	-47.44
254.185	-45.4
254.401	-8.53
254.618	-4.44
254.835	75.43
255.051	34.47
255.268	22.19
255.484	87.72
255.701	-61.78
255.917	67.24
256.134	-4.44
256.351	28.33
256.567	-47.44
256.784	32.43
257	-41.3
257.217	28.33
257.433	-2.39
257.65	3.75
257.866	52.91
258.082	16.04
258.299	-65.88
258.515	-69.97
258.732	44.71
258.948	11.95
259.165	1.71
259.381	-8.53
259.597	3.75
259.814	57
260.03	57
260.246	26.28
260.463	-72.02
260.679	48.81
260.895	18.09
261.112	18.09
261.328	-39.25
261.544	-18.77
261.761	-8.53
261.977	-0.34
262.193	26.28
262.409	-20.82
262.626	9.9
262.842	-12.63
263.058	-20.82
263.274	40.62
263.49	3.75
263.707	-20.82
263.923	-35.16
264.139	57
264.355	30.38
264.571	46.76
264.787	-45.4
265.004	-33.11
265.22	67.24
265.436	5.8
265.652	52.91
265.868	1.71
266.084	3.75
266.3	-45.4
266.516	-16.73
266.732	87.72
266.948	-26.96
267.164	-12.63
267.38	22.19
267.596	91.82
267.812	24.23
268.028	79.53
268.244	50.86
268.46	26.28
268.676	-20.82
268.892	1.71
269.108	-65.88
269.324	-8.53
269.54	42.67
269.756	22.19
269.972	-29.01
270.188	20.14
270.403	9.9
270.619	46.76
270.835	-12.63
271.051	11.95
271.267	-8.53
271.483	77.48
271.698	32.43
271.914	67.24
272.13	-41.3
272.346	5.8
272.562	5.8
272.777	7.85
272.993	24.23
273.209	-0.34
273.425	-26.96
273.64	-6.49
273.856	16.04
274.072	-18.77
274.287	-69.97
274.503	7.85
274.719	34.47
274.934	26.28
275.15	-35.16
275.366	-8.53
275.581	36.52
275.797	-22.87
276.012	-0.34
276.228	-16.73
276.444	26.28
276.659	-35.16
276.875	18.09
277.09	-20.82
277.306	5.8
277.521	5.8
277.737	-53.59
277.952	1.71
278.168	-14.68
278.383	36.52
278.599	22.19
278.814	1.71
279.03	-0.34
279.245	-4.44
279.461	77.48
279.676	-22.87
279.892	-14.68
280.107	13.99
280.322	-33.11
280.538	9.9
280.753	-12.63
280.969	-0.34
281.184	-86.36
281.399	38.57
281.615	79.53
281.83	-6.49
282.045	38.57
282.26	32.43
282.476	40.62
282.691	61.1
282.906	-55.64
283.122	5.8
283.337	-33.11
283.552	38.57
283.767	44.71
283.983	50.86
284.198	-16.73
284.413	24.23
284.628	-61.78
284.843	5.8
285.058	13.99
285.274	38.57
285.489	3.75
285.704	7.85
285.919	30.38
286.134	11.95
286.349	-2.39
286.564	40.62
286.779	22.19
286.995	36.52
287.21	-29.01
287.425	-74.07
287.64	-2.39
287.855	-20.82
288.07	22.19
288.285	110.25
288.5	46.76
288.715	52.91
288.93	-24.92
289.145	16.04
289.36	79.53
289.575	-49.49
289.79	67.24
290.004	73.39
290.219	-2.39
290.434	-6.49
290.649	-41.3
290.864	-8.53
291.079	-2.39
291.294	-14.68
291.509	16.04
291.724	7.85
291.938	-26.96
292.153	18.09
292.368	42.67
292.583	83.63
292.798	32.43
293.012	34.47
293.227	3.75
293.442	34.47
293.657	-0.34
293.871	79.53
294.086	-0.34
294.301	91.82
294.516	143.02
294.73	32.43
294.945	5.8
295.16	9.9
295.374	30.38
295.589	52.91
295.804	20.14
296.018	-0.34
296.233	20.14
296.447	-37.2
296.662	52.91
296.877	95.91
297.091	65.19
297.306	3.75
297.52	-0.34
297.735	-35.16
297.949	-39.25
298.164	34.47
298.378	9.9
298.593	5.8
298.807	-29.01
299.022	20.14
299.236	11.95
299.451	32.43
299.665	52.91
299.88	65.19
300.094	-8.53
300.309	38.57
300.523	-14.68
300.737	59.05
300.952	61.1
301.166	52.91
301.381	40.62
301.595	13.99
301.809	9.9
302.024	-0.34
302.238	28.33
302.452	28.33
302.667	-39.25
302.881	114.34
303.095	91.82
303.309	61.1
303.524	40.62
303.738	5.8
303.952	-37.2
304.166	48.81
304.381	-76.12
304.595	95.91
304.809	-2.39
305.023	-26.96
305.237	59.05
305.452	-4.44
305.666	44.71
305.88	24.23
306.094	28.33
306.308	-49.49
306.522	-0.34
306.736	-26.96
306.95	-8.53
307.164	48.81
307.379	16.04
307.593	89.77
307.807	36.52
308.021	71.34
308.235	7.85
308.449	-8.53
308.663	44.71
308.877	40.62
309.091	63.15
309.305	11.95
309.519	-80.21
309.733	61.1
309.947	7.85
310.161	34.47
310.374	48.81
310.588	89.77
310.802	16.04
311.016	34.47
311.23	-51.54
311.444	7.85
311.658	13.99
311.872	7.85
312.085	34.47
312.299	44.71
312.513	5.8
312.727	-10.58
312.941	-8.53
313.154	67.24
313.368	5.8
313.582	-16.73
313.796	44.71
314.009	7.85
314.223	46.76
314.437	71.34
314.651	26.28
314.864	-39.25
315.078	22.19
315.292	-6.49
315.505	9.9
315.719	24.23
315.933	122.54
316.146	-104.79
316.36	22.19
316.573	61.1
316.787	-12.63
317.001	54.95
317.214	50.86
317.428	140.97
317.641	-6.49
317.855	65.19
318.068	75.43
318.282	57
318.495	65.19
318.709	-0.34
318.922	50.86
319.136	1.71
319.349	-2.39
319.563	26.28
319.776	-37.2
319.99	-20.82
320.203	67.24
320.417	28.33
320.63	-6.49
320.843	110.25
321.057	42.67
321.27	-31.06
321.483	1.71
321.697	26.28
321.91	-20.82
322.124	34.47
322.337	100.01
322.55	-10.58
322.763	59.05
322.977	7.85
323.19	36.52
323.403	93.87
323.617	61.1
323.83	59.05
324.043	-22.87
324.256	-2.39
324.469	73.39
324.683	38.57
324.896	-8.53
325.109	3.75
325.322	-2.39
325.535	-16.73
325.748	52.91
325.962	20.14
326.175	9.9
326.388	13.99
326.601	13.99
326.814	38.57
327.027	50.86
327.24	44.71
327.453	42.67
327.666	9.9
327.879	59.05
328.092	75.43
328.305	9.9
328.518	52.91
328.731	24.23
328.944	-69.97
329.157	-20.82
329.37	1.71
329.583	24.23
329.796	44.71
330.009	-22.87
330.222	106.15
330.435	50.86
330.648	-24.92
330.861	-14.68
331.073	63.15
331.286	7.85
331.499	11.95
331.712	18.09
331.925	28.33
332.138	48.81
332.35	-31.06
332.563	-22.87
332.776	69.29
332.989	-4.44
333.202	-14.68
333.414	30.38
333.627	77.48
333.84	-26.96
334.053	24.23
334.265	-67.92
334.478	-0.34
334.691	38.57
334.903	16.04
335.116	-6.49
335.329	18.09
335.541	71.34
335.754	26.28
335.966	1.71
336.179	20.14
336.392	-6.49
336.604	91.82
336.817	30.38
337.029	-20.82
337.242	52.91
337.454	42.67
337.667	20.14
337.88	46.76
338.092	11.95
338.305	-22.87
338.517	67.24
338.729	3.75
338.942	50.86
339.154	93.87
339.367	69.29
339.579	32.43
339.792	-57.68
340.004	57
340.217	71.34
340.429	-16.73
340.641	9.9
340.854	-6.49
341.066	3.75
341.278	32.43
341.491	-6.49
341.703	5.8
341.915	-39.25
342.128	30.38
342.34	30.38
342.552	-45.4
342.764	24.23
342.977	16.04
343.189	34.47
343.401	7.85
343.613	20.14
343.826	57
344.038	-12.63
344.25	18.09
344.462	-6.49
344.674	54.95
344.886	24.23
345.099	3.75
345.311	-0.34
345.523	36.52
345.735	-51.54
345.947	36.52
346.159	-61.78
346.371	-33.11
346.583	-14.68
346.795	22.19
347.007	5.8
347.219	30.38
347.431	42.67
347.643	67.24
347.855	50.86
348.067	50.86
348.279	-8.53
348.491	85.67
348.703	32.43
348.915	81.58
349.127	-92.5
349.339	42.67
349.551	-6.49
349.763	-8.53
349.975	-12.63
350.187	-0.34
350.399	38.57
350.61	59.05
350.822	54.95
351.034	1.71
351.246	32.43
351.458	30.38
351.669	26.28
351.881	61.1
352.093	61.1
352.305	77.48
352.517	20.14
352.728	75.43
352.94	28.33
353.152	11.95
353.363	-20.82
353.575	59.05
353.787	1.71
353.999	-4.44
354.21	46.76
354.422	18.09
354.633	3.75
354.845	3.75
355.057	-10.58
355.268	42.67
355.48	67.24
355.692	13.99
355.903	-78.16
356.115	-0.34
356.326	-39.25
356.538	30.38
356.749	-14.68
356.961	52.91
357.172	-24.92
357.384	22.19
357.595	57
357.807	-24.92
358.018	46.76
358.23	-26.96
358.441	44.71
358.653	73.39
358.864	-59.73
359.075	59.05
359.287	3.75
359.498	81.58
359.709	65.19
359.921	59.05
360.132	87.72
360.344	40.62
360.555	81.58
360.766	54.95
360.977	3.75
361.189	50.86
361.4	3.75
361.611	71.34
361.823	46.76
362.034	77.48
362.245	32.43
362.456	9.9
362.667	-18.77
362.879	65.19
363.09	1.71
363.301	-0.34
363.512	44.71
363.723	50.86
363.935	-8.53
364.146	59.05
364.357	65.19
364.568	13.99
364.779	61.1
364.99	85.67
365.201	-10.58
365.412	59.05
365.623	79.53
365.834	3.75
366.045	52.91
366.256	61.1
366.467	22.19
366.678	89.77
366.889	34.47
367.1	79.53
367.311	24.23
367.522	36.52
367.733	1.71
367.944	42.67
368.155	18.09
368.366	9.9
368.577	9.9
368.788	91.82
368.999	24.23
369.209	13.99
369.42	73.39
369.631	128.68
369.842	-31.06
370.053	26.28
370.264	9.9
370.474	-16.73
370.685	-2.39
370.896	40.62
371.107	11.95
371.317	63.15
371.528	50.86
371.739	65.19
371.95	52.91
372.16	-22.87
372.371	30.38
372.582	40.62
372.792	-33.11
373.003	-8.53
373.214	65.19
373.424	100.01
373.635	-18.77
373.846	59.05
374.056	36.52
374.267	50.86
374.477	-33.11
374.688	-2.39
374.898	20.14
375.109	7.85
375.319	30.38
375.53	65.19
375.74	54.95
375.951	-26.96
376.161	79.53
376.372	-6.49
376.582	-4.44
376.793	-10.58
377.003	24.23
377.214	-24.92
377.424	28.33
377.635	59.05
377.845	69.29
378.055	120.49
378.266	59.05
378.476	16.04
378.686	-2.39
378.897	30.38
379.107	44.71
379.317	3.75
379.528	32.43
379.738	-2.39
379.948	40.62
380.158	44.71
380.369	40.62
380.579	5.8
380.789	16.04
380.999	89.77
381.21	59.05
381.42	54.95
381.63	-18.77
381.84	20.14
382.05	13.99
382.261	85.67
382.471	28.33
382.681	36.52
382.891	59.05
383.101	1.71
383.311	91.82
383.521	30.38
383.731	22.19
383.941	38.57
384.151	9.9
384.361	-35.16
384.571	-10.58
384.781	40.62
384.991	16.04
385.201	38.57
385.411	11.95
385.621	89.77
385.831	3.75
386.041	36.52
386.251	36.52
386.461	81.58
386.671	38.57
386.881	46.76
387.091	24.23
387.301	16.04
387.511	22.19
387.72	48.81
387.93	50.86
388.14	26.28
388.35	46.76
388.56	26.28
388.769	67.24
388.979	-35.16
389.189	13.99
389.399	61.1
389.609	32.43
389.818	85.67
390.028	44.71
390.238	1.71
390.447	30.38
390.657	44.71
390.867	3.75
391.076	9.9
391.286	36.52
391.496	89.77
391.705	-16.73
391.915	122.54
392.125	73.39
392.334	65.19
392.544	11.95
392.753	71.34
392.963	50.86
393.172	44.71
393.382	69.29
393.591	3.75
393.801	-14.68
394.01	97.96
394.22	134.82
394.429	-8.53
394.639	26.28
394.848	81.58
395.058	13.99
395.267	128.68
395.477	24.23
395.686	16.04
395.895	83.63
396.105	69.29
396.314	95.91
396.524	69.29
396.733	-2.39
396.942	63.15
397.152	114.34
397.361	57
397.57	48.81
397.78	50.86
397.989	30.38
398.198	50.86
398.407	42.67
398.617	138.92
398.826	118.44
399.035	100.01
399.244	93.87
399.453	-14.68
399.663	102.06
399.872	93.87
400.081	54.95
400.29	59.05
400.499	40.62
400.708	138.92
400.917	87.72
401.127	91.82
401.336	85.67
401.545	136.87
401.754	83.63
401.963	177.83
402.172	79.53
402.381	71.34
402.59	22.19
402.799	145.06
403.008	147.11
403.217	91.82
403.426	73.39
403.635	67.24
403.844	24.23
404.053	136.87
404.262	59.05
404.471	153.26
404.68	93.87
404.888	114.34
405.097	140.97
405.306	106.15
405.515	128.68
405.724	110.25
405.933	130.73
406.142	147.11
406.35	97.96
406.559	145.06
406.768	147.11
406.977	212.65
407.185	134.82
407.394	188.07
407.603	134.82
407.812	132.78
408.02	235.18
408.229	200.36
408.438	138.92
408.646	153.26
408.855	167.59
409.064	229.03
409.272	251.56
409.481	278.18
409.69	294.57
409.898	323.24
410.107	224.94
410.315	265.89
410.524	214.7
410.733	226.98
410.941	282.28
411.15	356.01
411.358	313
411.567	329.38
411.775	380.58
411.984	353.96
412.192	331.43
412.401	370.34
412.609	372.39
412.818	421.54
413.026	407.2
413.234	448.16
413.443	394.92
413.651	468.64
413.86	489.12
414.068	456.36
414.276	552.61
414.485	525.99
414.693	536.23
414.901	544.42
415.11	581.28
415.318	683.68
415.526	646.82
415.734	597.67
415.943	605.86
416.151	673.44
416.359	614.05
416.567	738.98
416.776	732.83
416.984	786.08
417.192	796.32
417.4	757.41
417.608	796.32
417.817	847.52
418.025	964.25
418.233	913.05
418.441	851.61
418.649	990.88
418.857	1117.85
419.065	1080.99
419.273	1117.85
419.481	1113.75
419.689	1193.62
419.897	1265.3
420.105	1271.45
420.313	1255.06
420.521	1357.46
420.729	1318.55
420.937	1449.62
421.145	1457.81
421.353	1558.16
421.561	1590.93
421.769	1681.04
421.977	1750.67
422.185	1633.94
422.393	1859.21
422.601	1844.88
422.809	1910.41
423.017	2008.72
423.224	1998.48
423.432	2207.37
423.64	2184.84
423.848	2246.28
424.056	2264.71
424.263	2322.06
424.471	2461.32
424.679	2438.79
424.887	2557.57
425.094	2567.81
425.302	2686.59
425.51	2764.42
425.718	2860.67
425.925	2909.82
426.133	2948.73
426.341	3333.75
426.548	3112.57
426.756	3317.37
426.964	3362.42
427.171	3624.56
427.379	3733.11
427.586	3653.23
427.794	3864.18
428.001	3958.38
428.209	4167.28
428.417	4040.3
428.624	4462.18
428.832	4320.87
429.039	4300.39
429.247	4400.74
429.454	4720.23
429.662	5142.11
429.869	4728.42
430.076	5092.96
430.284	4900.45
430.491	5095
430.699	5451.35
430.906	5498.45
431.114	5549.65
431.321	5883.47
431.528	5858.9
431.736	6170.19
431.943	6469.19
432.15	6291.02
432.358	6377.03
432.565	6764.1
432.772	6633.03
432.979	7177.79
433.187	7079.49
433.394	7261.76
433.601	7671.35
433.808	7820.85
434.016	7761.46
434.223	8029.74
434.43	8633.89
434.637	8427.05
434.844	8932.9
435.052	9133.6
435.259	9010.72
435.466	9178.65
435.673	9000.48
435.88	9645.59
436.087	10010.13
436.294	10313.23
436.501	9911.83
436.708	10202.64
436.915	10370.57
437.122	10812.93
437.329	10851.85
437.537	11156.99
437.743	11539.96
437.95	11286.01
438.157	11800.05
438.364	12500.46
438.571	12178.93
438.778	12522.99
438.985	13542.88
439.192	13049.32
439.399	13317.6
439.606	13080.04
439.813	13872.6
440.02	14757.32
440.227	14327.25
440.433	14286.29
440.64	14974.41
440.847	14710.22
441.054	14886.34
441.261	15959.48
441.467	15881.66
441.674	16295.35
441.881	16690.6
442.088	16577.97
442.294	16563.63
442.501	17288.61
442.708	17092.01
442.914	17984.92
443.121	19127.69
443.328	18369.94
443.534	19715.45
443.741	19162.5
443.948	18771.34
444.154	20204.92
444.361	20223.35
444.568	20321.65
444.774	20131.19
444.981	20329.84
445.187	21024.11
445.394	21675.36
445.6	21679.46
445.807	23762.24
446.013	23037.26
446.22	23156.04
446.426	23776.58
446.633	24296.76
446.839	25226.54
447.046	23938.37
447.252	25294.12
447.459	25179.43
447.665	25257.26
447.871	26430.74
448.078	27534.6
448.284	26131.74
448.491	27041.04
448.697	28495.1
448.903	28376.31
449.11	28593.4
449.316	27847.94
449.522	28851.44
449.728	29412.59
449.935	29508.84
450.141	29433.07
450.347	30004.45
450.553	29455.59
450.76	29451.5
450.966	30567.64
451.172	30289.12
451.378	30719.19
451.584	30319.84
451.791	30989.52
451.997	30594.26
452.203	31292.62
452.409	31675.59
452.615	30913.75
452.821	30082.27
453.027	29709.54
453.233	31311.05
453.44	30004.45
453.646	30172.38
453.852	30440.67
454.058	30772.44
454.264	29971.68
454.47	30391.51
454.676	29922.53
454.882	30627.03
455.088	28024.06
455.294	28427.51
455.5	28710.13
455.705	28943.6
455.911	27794.69
456.117	27096.33
456.323	26621.2
456.529	25759.01
456.735	26508.57
456.941	25601.32
457.147	25627.94
457.352	24692.02
457.558	24425.78
457.764	24415.54
457.97	24063.29
458.176	23344.45
458.381	23242.06
458.587	22299.99
458.793	22072.67
458.999	21194.09
459.204	22502.74
459.41	21785.95
459.616	20401.52
459.821	20540.79
460.027	20323.7
460.233	19867
460.438	18914.7
460.644	19139.97
460.85	18296.21
461.055	17835.42
461.261	17747.36
461.466	16262.58
461.672	15971.77
461.878	17288.61
462.083	15959.48
462.289	15820.22
462.494	15506.88
462.7	14937.54
462.905	14523.85
463.111	14923.21
463.316	15144.39
463.522	14824.9
463.727	14763.47
463.932	14742.99
464.138	14710.22
464.343	14691.79
464.549	14380.5
464.754	14679.5
464.959	14706.12
465.165	14347.73
465.37	13852.12
465.575	13405.66
465.781	13938.13
465.986	14239.19
466.191	13436.38
466.397	13444.57
466.602	12672.49
466.807	13075.94
467.012	12959.2
467.218	13168.1
467.423	12924.39
467.628	12996.07
467.833	13481.44
468.038	13141.47
468.244	12590.57
468.449	13301.22
468.654	12989.92
468.859	12744.17
469.064	12570.09
469.269	12004.85
469.474	12242.42
469.679	12449.26
469.885	12164.59
470.09	12377.58
470.295	12189.17
470.5	11945.46
470.705	12072.43
470.91	11832.82
471.115	11619.83
471.32	11521.53
471.525	11673.08
471.73	11525.63
471.935	11353.6
472.139	11050.5
472.344	11204.1
472.549	10997.25
472.754	10776.07
472.959	10677.77
473.164	10417.68
473.369	10382.86
473.574	10776.07
473.778	10419.72
473.983	10159.63
474.188	10552.84
474.393	9801.24
474.598	9938.45
474.802	9866.77
475.007	9737.75
475.212	9631.26
475.417	9422.36
475.621	9569.82
475.826	9385.5
476.031	9322.01
476.235	9092.64
476.44	9190.94
476.645	9057.82
476.849	9016.87
477.054	8865.32
477.259	8926.75
477.463	8820.26
477.668	8605.22
477.872	8670.76
478.077	8681
478.282	8183.34
478.486	8298.03
478.691	8154.67
478.895	8060.46
479.1	8115.76
479.304	8074.8
479.509	7829.04
479.713	8121.9
479.918	7931.44
480.122	7722.55
480.326	7810.61
480.531	7783.99
480.735	7908.91
480.94	7581.24
481.144	7949.87
481.348	7743.03
481.553	7562.81
481.757	7591.48
481.961	7544.38
482.166	7763.51
482.37	7734.84
482.574	7603.77
482.778	7665.21
482.983	7704.12
483.187	7624.25
483.391	7685.69
483.595	7560.76
483.8	7439.93
484.004	7542.33
484.208	7534.14
484.412	7648.82
484.616	7513.66
484.821	7581.24
485.025	7509.56
485.229	7568.95
485.433	7628.34
485.637	7517.75
485.841	7530.04
486.045	7603.77
486.249	7616.05
486.453	7374.39
486.657	7409.21
486.861	7384.63
487.065	7441.98
487.269	7673.4
487.473	7417.4
487.677	7466.55
487.881	7491.13
488.085	7489.08
488.289	7587.38
488.493	7630.39
488.697	7700.02
488.901	7519.8
489.105	7552.57
489.309	7542.33
489.512	7708.21
489.716	7669.3
489.92	7804.47
490.124	7683.64
490.328	7652.92
490.531	7749.17
490.735	7695.93
490.939	7728.69
491.143	7654.97
491.346	7777.84
491.55	7792.18
491.754	7671.35
491.958	7792.18
492.161	7816.76
492.365	7849.52
492.569	7814.71
492.772	7931.44
492.976	8082.99
493.18	8193.58
493.383	8089.14
493.587	8283.69
493.79	8105.52
493.994	8185.39
494.197	8019.5
494.401	8334.89
494.605	8314.41
494.808	8623.66
495.012	8398.38
495.215	8468.01
495.419	8556.07
495.622	8717.86
495.825	8777.25
496.029	8724.01
496.232	9063.97
496.436	8818.21
496.639	9225.76
496.843	9066.02
497.046	9109.02
497.249	9309.72
497.453	9291.29
497.656	9561.62
497.859	9516.57
498.063	9444.89
498.266	9711.13
498.469	9840.15
498.673	9782.81
498.876	9999.89
499.079	10104.34
499.282	10159.63
499.485	10124.82
499.689	10278.41
499.892	10520.07
500.095	10440.2
500.298	10728.97
500.501	10839.56
500.705	10968.58
500.908	11025.92
501.111	11243.01
501.314	11341.31
501.517	11306.49
501.72	11595.26
501.923	11576.83
502.126	11867.64
502.329	11841.01
502.532	11959.8
502.735	12021.24
502.938	12195.31
503.141	12312.05
503.344	12606.95
503.547	12551.66
503.75	12819.94
503.953	12985.83
504.156	13094.37
504.359	13114.85
504.562	13331.94
504.765	13755.86
504.968	13350.37
505.17	13866.46
505.373	13749.72
505.576	14159.31
505.779	14196.18
505.982	14380.5
506.185	14470.61
506.387	14521.81
506.59	14699.98
506.793	15087.04
506.996	14876.1
507.198	15271.36
507.401	15173.06
507.604	15357.38
507.807	15539.65
508.009	15824.31
508.212	15957.43
508.415	16262.58
508.617	16379.31
508.82	16461.23
509.022	16442.8
509.225	16700.84
509.428	16809.39
509.63	16942.5
509.833	16829.87
510.035	17460.64
510.238	17560.99
510.44	17577.37
510.643	17913.24
510.845	17966.49
511.048	17833.37
511.25	18179.48
511.453	18060.7
511.655	18730.38
511.858	19041.67
512.06	18619.79
512.262	19125.64
512.465	18904.46
512.667	19289.48
512.87	19400.07
513.072	19387.78
513.274	19819.9
513.477	20061.56
513.679	20180.34
513.881	20295.03
514.084	20745.58
514.286	20604.27
514.488	20645.23
514.69	21337.45
514.893	21212.52
515.095	21308.77
515.297	21486.95
515.499	21587.3
515.701	22029.66
515.904	22175.06
516.106	22054.23
516.308	22349.14
516.51	22906.19
516.712	22695.25
516.914	22605.14
517.116	23221.58
517.318	23143.75
517.52	23520.58
517.722	23555.4
517.925	23821.63
518.127	24065.34
518.329	24325.43
518.531	24274.23
518.733	24220.99
518.935	24997.17
519.136	24644.91
519.338	25050.41
519.54	25077.04
519.742	24997.17
519.944	25470.25
520.146	25503.01
520.348	26037.53
520.55	26027.29
520.752	26213.66
520.954	26557.72
521.155	26504.47
521.357	26862.86
521.559	27065.61
521.761	27448.58
521.963	27317.51
522.164	27542.79
522.366	27559.17
522.568	27426.06
522.77	28200.19
522.971	28200.19
523.173	28128.51
523.375	28302.59
523.576	28495.1
523.778	28415.23
523.98	28957.94
524.181	28800.24
524.383	29115.63
524.584	29097.2
524.786	29252.84
524.988	29164.78
525.189	29336.81
525.391	29492.46
525.592	29586.66
525.794	29748.45
525.995	30084.32
526.197	30049.5
526.398	30176.48
526.6	30162.14
526.801	30321.88
527.003	30330.08
527.204	30618.84
527.406	30674.13
527.607	30602.46
527.808	30899.41
528.01	30334.17
528.211	30973.14
528.412	31296.72
528.614	31026.39
528.815	30721.24
529.016	31687.88
529.218	30823.64
529.419	31134.93
529.62	31061.2
529.822	31419.6
530.023	31487.18
530.224	31276.24
530.425	31534.28
530.626	31222.99
530.828	31149.26
531.029	32115.9
531.23	31550.67
531.431	31462.6
531.632	31624.39
531.833	32027.84
532.035	31669.45
532.236	31866.05
532.437	32001.22
532.638	31718.6
532.839	32009.41
533.04	31982.79
533.241	31648.97
533.442	32320.7
533.643	31886.53
533.844	31747.27
534.045	31841.48
534.246	31624.39
534.447	32306.37
534.648	31892.68
534.849	32181.44
535.05	32009.41
535.251	31800.52
535.451	31849.67
535.652	31902.92
535.853	32011.46
536.054	31931.59
536.255	31913.16
536.456	31614.15
536.657	32367.8
536.857	31761.61
537.058	31929.54
537.259	31988.93
537.46	31712.45
537.66	31980.74
537.861	31743.17
538.062	31683.78
538.263	31702.21
538.463	31947.97
538.664	31487.18
538.865	31716.55
539.065	31681.74
539.266	31595.72
539.466	32040.13
539.667	31548.62
539.868	32111.81
540.068	31757.51
540.269	31343.82
540.469	31947.97
540.67	31825.09
540.87	31675.59
541.071	31571.14
541.271	31659.21
541.472	31565
541.672	31612.1
541.873	31378.64
542.073	31372.49
542.274	31710.41
542.474	31270.09
542.675	31335.63
542.875	31878.34
543.075	31521.99
543.276	31046.86
543.476	31925.44
543.676	31370.44
543.877	31821
544.077	31409.36
544.277	31532.23
544.478	31329.48
544.678	31538.38
544.878	31356.11
545.078	31550.67
545.279	31165.65
545.479	31024.34
545.679	31306.96
545.879	31202.51
546.079	31139.02
546.28	31290.57
546.48	31306.96
546.68	31460.55
546.88	31669.45
547.08	31143.12
547.28	31401.16
547.48	30923.99
547.68	31573.19
547.88	31196.37
548.081	31126.74
548.281	31210.7
548.481	30962.9
548.681	31091.92
548.881	31122.64
549.081	31132.88
549.28	31065.3
549.48	31165.65
549.68	31042.77
549.88	31343.82
550.08	30887.12
550.28	31325.39
550.48	31179.98
550.68	31386.83
550.88	30825.68
551.08	31036.63
551.279	31237.33
551.479	30635.22
551.679	30981.33
551.879	30723.29
552.079	30803.16
552.278	30657.75
552.478	30913.75
552.678	31190.22
552.878	31093.97
553.077	30700.76
553.277	30811.35
553.477	31212.75
553.676	30713.05
553.876	30833.88
554.076	30344.41
554.275	30708.95
554.475	30215.39
554.674	30661.85
554.874	30969.04
555.074	30762.2
555.273	30856.4
555.473	30768.34
555.672	30285.02
555.872	30418.14
556.071	30835.92
556.271	30538.97
556.47	30491.87
556.67	30125.28
556.869	30287.07
557.068	30637.27
557.268	30276.83
557.467	30571.74
557.667	30608.6
557.866	30352.6
558.065	30287.07
558.265	30215.39
558.464	29824.23
558.663	30495.96
558.863	29832.42
559.062	30274.78
559.261	29828.32
559.461	30434.52
559.66	29721.83
559.859	30131.42
560.058	29762.79
560.258	30000.35
560.457	29719.78
560.656	30096.61
560.855	29533.42
561.054	30004.45
561.253	29598.95
561.453	29607.14
561.652	29560.04
561.851	29926.63
562.05	29379.82
562.249	29076.72
562.448	29730.02
562.647	29379.82
562.846	29326.57
563.045	29297.9
563.244	29076.72
563.443	29435.11
563.642	28855.54
563.841	29246.7
564.04	29048.05
564.239	29517.03
564.438	28978.42
564.637	28945.65
564.836	28945.65
565.035	28611.83
565.234	28980.46
565.432	28656.89
565.631	28544.25
565.83	28812.53
566.029	28304.63
566.228	28521.72
566.427	28519.67
566.625	28595.45
566.824	28216.57
567.023	28759.28
567.222	28007.68
567.42	28333.31
567.619	28067.07
567.818	28294.39
568.016	27917.57
568.215	28232.96
568.414	27897.09
568.612	28192
568.811	27741.44
569.01	28204.28
569.208	27626.76
569.407	27862.27
569.605	27448.58
569.804	27802.88
570.002	27491.59
570.201	27598.09
570.4	27446.54
570.598	27663.62
570.797	27096.33
570.995	27573.51
571.193	27258.12
571.392	27774.21
571.59	27438.34
571.789	26819.86
571.987	27186.44
572.186	27323.66
572.384	26811.67
572.582	26856.72
572.781	26944.78
572.979	26631.44
573.177	26854.67
573.376	26813.71
573.574	26338.58
573.772	26707.22
573.971	26334.49
574.169	26359.06
574.367	26160.41
574.565	26567.96
574.763	26572.05
574.962	26223.9
575.16	25918.75
575.358	26027.29
575.556	25984.29
575.754	26047.77
575.952	26070.3
576.151	26027.29
576.349	25730.34
576.547	25775.39
576.745	25840.93
576.943	25894.18
577.141	25746.72
577.339	25730.34
577.537	25505.06
577.735	25347.37
577.933	25031.98
578.131	25531.69
578.329	24923.44
578.527	25068.84
578.725	24902.96
578.923	25277.74
579.121	25019.69
579.319	24950.06
579.516	24907.05
579.714	25091.37
579.912	24759.6
580.11	24663.35
580.308	24700.21
580.506	24669.49
580.704	24237.37
580.901	24622.39
581.099	24606
581.297	24218.94
581.495	24362.29
581.692	24423.73
581.89	24120.63
582.088	24460.6
582.285	24087.87
582.483	24427.83
582.681	23629.12
582.878	23950.65
583.076	23534.92
583.274	24018.24
583.471	23651.65
583.669	23907.65
583.866	23606.59
584.064	23788.86
584.262	23264.58
584.459	23694.66
584.657	23113.03
584.854	23414.09
585.052	22863.18
585.249	23223.62
585.447	23338.31
585.644	22898
585.841	23233.86
586.039	23258.44
586.236	22969.68
586.434	22713.68
586.631	22928.72
586.828	22912.33
587.026	22588.75
587.223	22746.45
587.42	22515.03
587.618	22666.58
587.815	22467.92
588.012	22269.27
588.21	22375.77
588.407	22381.91
588.604	22199.64
588.801	22297.94
588.999	22017.37
589.196	22099.29
589.393	21833.05
589.59	21947.74
589.787	21765.47
589.984	21669.22
590.182	21599.59
590.379	21917.02
590.576	21310.82
590.773	21484.9
590.97	21345.64
591.167	21523.81
591.364	21153.13
591.561	21413.22
591.758	21243.24
591.955	21134.7
592.152	21427.56
592.349	20921.71
592.546	20899.18
592.743	21189.99
592.94	20749.68
593.137	20761.97
593.334	20880.75
593.531	20469.11
593.727	20710.77
593.924	20739.44
594.121	20346.23
594.318	20530.55
594.515	20286.84
594.712	20659.57
594.908	20393.33
595.105	20428.15
595.302	19983.74
595.499	20194.68
595.696	20071.8
595.892	19916.15
596.089	19760.51
596.286	19807.61
596.482	20034.94
596.679	19793.28
596.876	19883.39
597.072	19821.95
597.269	19758.46
597.466	19481.99
597.662	19531.14
597.859	19359.11
598.055	19522.94
598.252	19242.37
598.448	19182.98
598.645	19318.15
598.841	19395.97
599.038	19273.09
599.234	19309.96
599.431	18822.54
599.627	19099.02
599.824	19269
600.02	18937.23
600.217	18750.86
600.413	18795.92
600.609	18513.3
600.806	18607.5
601.002	18838.92
601.198	18371.99
601.395	18337.17
601.591	18253.2
601.787	18345.36
601.984	18202
602.18	18609.55
602.376	18245.01
602.572	18081.17
602.769	18087.32
602.965	17837.47
603.161	17966.49
603.357	17939.86
603.553	17624.48
603.75	17604
603.946	17816.99
604.142	17823.13
604.338	17266.08
604.534	17636.77
604.73	17290.66
604.926	17503.65
605.122	17302.95
605.318	17175.97
605.514	17225.12
605.71	17098.15
605.906	17038.76
606.102	17108.39
606.298	16934.31
606.494	16977.32
606.69	17323.43
606.886	17237.41
607.082	16799.15
607.278	16989.61
607.474	16739.76
607.67	16924.07
607.866	16870.83
608.062	16897.45
608.257	16790.95
608.453	16442.8
608.649	16715.18
608.845	16647.6
609.041	16713.13
609.236	16436.66
609.432	16453.04
609.628	16457.14
609.824	16375.22
610.019	16412.08
610.215	16254.39
610.411	16526.77
610.606	16422.32
610.802	16285.11
610.998	16338.35
611.193	16274.87
611.389	16061.88
611.584	16242.1
611.78	16092.6
611.976	16131.51
612.171	16188.85
612.367	15924.66
612.562	15883.7
612.758	16035.25
612.953	15685.05
613.149	16096.69
613.344	15617.47
613.539	16016.82
613.735	15789.5
613.93	15932.86
614.126	15683
614.321	15992.25
614.517	15623.61
614.712	15490.49
614.907	15611.32
615.103	15656.38
615.298	15519.17
615.493	15642.04
615.688	15279.55
615.884	15648.19
616.079	14982.6
616.274	15435.2
616.47	15285.7
616.665	15281.6
616.86	15246.79
617.055	15234.5
617.25	15248.83
617.445	15486.4
617.641	14976.45
617.836	15052.23
618.031	14849.48
618.226	15033.8
618.421	14949.83
618.616	15093.19
618.811	14835.14
619.006	15085
619.201	14726.6
619.396	14996.93
619.591	14421.45
619.786	14603.72
619.981	14462.41
620.176	14452.17
620.371	14327.25
620.566	14462.41
620.761	14282.19
620.956	14374.35
621.151	14175.7
621.346	14282.19
621.541	13997.53
621.735	14190.03
621.93	13688.28
622.125	13948.37
622.32	13868.5
622.515	13968.85
622.709	13680.09
622.904	13692.38
623.099	13438.43
623.294	13704.67
623.488	13411.81
623.683	13157.86
623.878	13170.15
624.072	13370.85
624.267	13063.65
624.462	13008.36
624.656	12971.49
624.851	12852.71
625.046	12903.91
625.24	12879.33
625.435	12584.43
625.629	12819.94
625.824	12353.01
626.018	12568.04
626.213	12336.62
626.407	12314.09
626.602	12238.32
626.796	12316.14
626.991	12086.77
627.185	12152.31
627.38	11990.52
627.574	11984.37
627.768	11867.64
627.963	11888.12
628.157	11585.02
628.352	11730.42
628.546	11587.07
628.74	11650.55
628.935	11445.76
629.129	11492.86
629.323	11302.4
629.517	11267.58
629.712	11300.35
629.906	11314.69
630.1	11025.92
630.294	11087.36
630.489	10974.72
630.683	10958.34
630.877	10970.63
631.071	10919.43
631.265	10907.14
631.459	10890.76
631.653	10587.66
631.848	10788.36
632.042	10436.11
632.236	10501.64
632.43	10464.78
632.624	10487.31
632.818	10554.89
633.012	10110.48
633.206	10118.67
633.4	10159.63
633.594	10114.58
633.788	10231.31
633.982	10036.75
634.176	10147.34
634.369	9879.06
634.563	9874.96
634.757	9797.14
634.951	9940.5
635.145	9928.21
635.339	9594.39
635.533	9625.11
635.726	9694.74
635.92	9502.23
636.114	9494.04
636.308	9342.49
636.501	9508.38
636.695	9471.51
636.889	9340.44
637.083	9246.24
637.276	9078.3
637.47	8932.9
637.664	9213.47
637.857	9135.65
638.051	8957.47
638.244	8969.76
638.438	8914.47
638.632	8973.86
638.825	8896.03
639.019	8783.4
639.212	8697.38
639.406	8787.49
639.599	8556.07
639.793	8689.19
639.986	8433.19
640.18	8513.06
640.373	8439.34
640.567	8293.93
640.76	8461.87
640.954	8318.51
641.147	8355.37
641.34	8191.53
641.534	8242.73
641.727	8201.77
641.92	8115.76
642.114	8107.57
642.307	7972.4
642.5	8031.79
642.694	8037.94
642.887	7761.46
643.08	7822.9
643.273	7812.66
643.467	7745.08
643.66	7745.08
643.853	7626.29
644.046	7620.15
644.239	7497.27
644.432	7642.68
644.626	7611.96
644.819	7456.31
645.012	7437.88
645.205	7423.55
645.398	7413.31
645.591	7284.28
645.784	7171.65
645.977	7046.72
646.17	7102.01
646.363	6966.85
646.556	6911.55
646.749	7296.57
646.942	7200.32
647.135	7032.38
647.328	6962.75
647.521	6919.75
647.714	6917.7
647.907	6946.37
648.099	6870.59
648.292	6846.02
648.485	6784.58
648.678	6704.71
648.871	6538.82
649.064	6499.91
649.256	6651.46
649.449	6553.16
649.642	6489.67
649.835	6473.29
650.027	6413.9
650.22	6411.85
650.413	6450.76
650.605	6303.31
650.798	6440.52
650.991	6272.59
651.183	6258.25
651.376	6276.68
651.568	6219.34
651.761	6340.17
651.954	6155.85
652.146	6180.43
652.339	6164.04
652.531	6170.19
652.724	6016.59
652.916	5951.06
653.109	5932.62
653.301	5963.34
653.494	6002.26
653.686	5836.37
653.879	5920.34
654.071	5785.17
654.263	5670.48
654.456	5695.06
654.648	5766.74
654.84	5652.05
655.033	5570.13
655.225	5744.21
655.417	5475.93
655.61	5563.99
655.802	5611.09
655.994	5424.73
656.186	5430.87
656.379	5533.27
656.571	5394.01
656.763	5256.79
656.955	5307.99
657.148	5318.23
657.34	5340.76
657.532	5328.47
657.724	5152.35
657.916	5256.79
658.108	5193.31
658.3	5090.91
658.492	5258.84
658.684	5054.05
658.876	5035.61
659.068	5092.96
659.26	5052
659.452	5025.37
659.644	5088.86
659.836	4990.56
660.028	5002.85
660.22	4863.58
660.412	4937.31
660.604	4828.77
660.796	4894.3
660.988	4709.99
661.18	4720.23
661.372	4689.51
661.563	4875.87
661.755	4583.01
661.947	4619.88
662.139	4525.67
662.331	4660.84
662.522	4652.64
662.714	4402.79
662.906	4626.02
663.097	4609.64
663.289	4427.37
663.481	4439.65
663.673	4433.51
663.864	4351.59
664.056	4525.67
664.247	4298.35
664.439	4284.01
664.631	4238.95
664.822	4392.55
665.014	4359.78
665.205	4365.93
665.397	4120.17
665.588	4367.98
665.78	4138.6
665.971	4177.51
666.163	4202.09
666.354	4101.74
666.546	4138.6
666.737	4007.53
666.929	4261.48
667.12	4134.51
667.311	4114.03
667.503	4044.4
667.694	3948.14
667.885	4064.88
668.077	3939.95
668.268	3825.26
668.459	4093.55
668.651	3939.95
668.842	3966.57
669.033	3989.1
669.224	3815.02
669.416	3882.61
669.607	4046.44
669.798	3946.09
669.989	3704.43
670.18	3872.37
670.371	3776.11
670.563	3724.91
670.754	3673.71
670.945	3665.52
671.136	3757.68
671.327	3686
671.518	3729.01
671.709	3626.61
671.9	3739.25
672.091	3599.99
672.282	3595.89
672.473	3526.26
672.664	3823.22
672.855	3632.76
673.046	3602.04
673.237	3593.84
673.428	3419.77
673.619	3538.55
673.809	3550.84
674	3495.54
674.191	3643
674.382	3470.97
674.573	3481.21
674.764	3511.93
674.954	3462.77
675.145	3419.77
675.336	3313.27
675.527	3358.33
675.717	3313.27
675.908	3409.53
676.099	3413.62
676.289	3401.33
676.48	3245.69
676.671	3270.26
676.861	3268.22
677.052	3268.22
677.243	3292.79
677.433	3210.87
677.624	3325.56
677.814	3143.29
678.005	3198.59
678.195	3147.39
678.386	3184.25
678.576	3174.01
678.767	3174.01
678.957	3161.72
679.148	3262.07
679.338	3139.19
679.529	3274.36
679.719	3167.87
679.909	3188.35
680.1	3184.25
680.29	3255.93
680.481	3135.1
680.671	3155.58
680.861	3006.08
681.052	3004.03
681.242	3085.95
681.432	3079.8
681.622	3038.84
681.813	2963.07
682.003	3032.7
682.193	2952.83
682.383	3081.85
682.573	3059.32
682.764	3016.32
682.954	2926.21
683.144	3073.66
683.334	2985.6
683.524	3063.42
683.714	2887.29
683.904	3022.46
684.094	2817.66
684.284	2946.69
684.474	3067.52
684.664	2907.77
684.854	2971.26
685.044	2893.44
685.234	2848.38
685.424	2827.9
685.614	2793.09
685.804	2883.2
685.994	2924.16
686.184	2909.82
686.374	2766.46
686.564	2836.1
686.753	2924.16
686.943	2692.74
687.133	2760.32
687.323	2760.32
687.513	2793.09
687.702	2784.9
687.892	2770.56
688.082	2655.87
688.272	2807.42
688.461	2842.24
688.651	2721.41
688.841	2684.55
689.03	2705.03
689.22	2690.69
689.41	2739.84
689.599	2600.58
689.789	2639.49
689.979	2543.24
690.168	2571.91
690.358	2512.52
690.547	2627.2
690.737	2580.1
690.926	2641.54
691.116	2354.82
691.305	2586.24
691.495	2465.41
691.684	2389.64
691.874	2428.55
692.063	2481.8
692.252	2561.67
692.442	2457.22
692.631	2289.29
692.82	2465.41
693.01	2424.45
693.199	2375.3
693.388	2311.82
693.578	2363.01
693.767	2420.36
693.956	2309.77
694.146	2367.11
694.335	2367.11
694.524	2291.34
694.713	2287.24
694.902	2332.3
695.092	2408.07
695.281	2281.1
695.47	2307.72
695.659	2285.19
695.848	2322.06
696.037	2311.82
696.226	2291.34
696.415	2397.83
696.604	2311.82
696.793	2254.47
696.982	2176.65
697.171	2375.3
697.36	2201.23
697.549	2262.66
697.738	2209.42
697.927	2258.57
698.116	2164.36
698.305	2225.8
698.494	2217.61
698.683	2215.56
698.872	2268.81
699.061	2190.99
699.25	2262.66
699.438	2260.62
699.627	2277
699.816	2188.94
700.005	2254.47
700.193	2119.31
700.382	2135.69
700.571	2299.53
700.76	2123.4
700.948	2184.84
701.137	2207.37
701.326	2315.91
701.514	2199.18
701.703	2190.99
701.892	2328.2
702.08	2311.82
702.269	2262.66
702.457	2199.18
702.646	2225.8
702.834	2109.07
703.023	2203.27
703.212	2199.18
703.4	2168.46
703.589	2231.94
703.777	2162.31
703.965	2270.86
704.154	2158.22
704.342	2236.04
704.531	2270.86
704.719	2209.42
704.907	2262.66
705.096	2213.51
705.284	2231.94
705.472	2199.18
705.661	2195.08
705.849	2219.66
706.037	2088.59
706.226	2186.89
706.414	2248.33
706.602	2322.06
706.79	2279.05
706.979	2152.07
707.167	2209.42
707.355	2156.17
707.543	2229.9
707.731	2147.98
707.919	2264.71
708.107	2156.17
708.296	2152.07
708.484	2293.38
708.672	2258.57
708.86	2379.4
709.048	2266.76
709.236	2170.51
709.424	2207.37
709.612	2145.93
709.8	2270.86
709.988	2236.04
710.176	2227.85
710.364	2201.23
710.551	2233.99
710.739	2244.23
710.927	2252.42
711.115	2225.8
711.303	2182.79
711.491	2174.6
711.679	2213.51
711.866	2369.16
712.054	2274.95
712.242	2209.42
712.43	2221.7
712.617	2164.36
712.805	2190.99
712.993	2201.23
713.181	2152.07
713.368	2147.98
713.556	2360.97
713.744	2246.28
713.931	2250.38
714.119	2213.51
714.306	2236.04
714.494	2227.85
714.682	2188.94
714.869	2133.64
715.057	2246.28
715.244	2217.61
715.432	2250.38
715.619	2274.95
715.807	2258.57
715.994	2127.5
716.182	2123.4
716.369	2399.88
716.556	2326.15
716.744	2279.05
716.931	2297.48
717.119	2229.9
717.306	2260.62
717.493	2256.52
717.681	2217.61
717.868	2289.29
718.055	2297.48
718.242	2150.03
718.43	2272.9
718.617	2268.81
718.804	2209.42
718.991	2215.56
719.179	2205.32
719.366	2211.46
719.553	2154.12
719.74	2195.08
719.927	2274.95
720.114	2293.38
720.301	2242.18
720.488	2205.32
720.676	2158.22
720.863	2147.98
721.05	2190.99
721.237	2172.55
721.424	2264.71
721.611	2150.03
721.798	2158.22
721.985	2229.9
722.172	2233.99
722.358	2184.84
722.545	2174.6
722.732	2219.66
722.919	2326.15
723.106	2242.18
723.293	2352.77
723.48	2100.87
723.667	2186.89
723.853	2104.97
724.04	2086.54
724.227	2086.54
724.414	2334.34
724.6	2061.96
724.787	2213.51
724.974	2109.07
725.161	2238.09
725.347	2211.46
725.534	2072.2
725.72	2139.79
725.907	2211.46
726.094	2141.83
726.28	2084.49
726.467	2213.51
726.653	2274.95
726.84	2231.94
727.027	2190.99
727.213	2037.39
727.4	2223.75
727.586	2180.75
727.773	2152.07
727.959	2193.03
728.145	2199.18
728.332	2166.41
728.518	2125.45
728.705	2223.75
728.891	2215.56
729.077	2168.46
729.264	2168.46
729.45	2158.22
729.636	2256.52
729.823	2145.93
730.009	2119.31
730.195	2145.93
730.382	2170.51
730.568	2190.99
730.754	2141.83
730.94	2066.06
731.126	2287.24
731.313	2229.9
731.499	2092.68
731.685	2088.59
731.871	2049.68
732.057	2104.97
732.243	2186.89
732.429	2160.27
732.615	2092.68
732.801	2139.79
732.987	2043.53
733.173	2102.92
733.359	2006.67
733.545	2098.83
733.731	2164.36
733.917	2014.86
734.103	2184.84
734.289	2113.16
734.475	2012.81
734.661	2059.92
734.847	2031.24
735.033	2147.98
735.219	2100.87
735.404	2078.35
735.59	2018.96
735.776	2115.21
735.962	2006.67
736.148	2092.68
736.333	2043.53
736.519	1988.24
736.705	1978
736.89	2092.68
737.076	2004.62
737.262	2125.45
737.447	2078.35
737.633	1978
737.819	1939.09
738.004	1988.24
738.19	2098.83
738.375	2008.72
738.561	2082.44
738.747	1910.41
738.932	2078.35
739.118	2023.05
739.303	1959.56
739.489	2018.96
739.674	2004.62
739.859	1918.61
740.045	1894.03
740.23	1939.09
740.416	1867.41
740.601	2035.34
740.786	1889.93
740.972	1865.36
741.157	1865.36
741.342	1828.49
741.528	1986.19
741.713	1896.08
741.898	1808.02
742.084	1973.9
742.269	1873.55
742.454	1734.29
742.639	1963.66
742.824	1797.78
743.01	1900.17
743.195	1859.21
743.38	1805.97
743.565	1765.01
743.75	1754.77
743.935	1793.68
744.12	1771.15
744.305	1773.2
744.49	1810.06
744.675	1775.25
744.86	1765.01
745.045	1842.83
745.23	1752.72
745.415	1834.64
745.6	1732.24
745.785	1685.14
745.97	1717.9
746.155	1652.37
746.34	1724.05
746.525	1740.43
746.71	1642.13
746.895	1699.47
747.079	1611.41
747.264	1623.7
747.449	1658.51
747.634	1664.66
747.819	1558.16
748.003	1650.32
748.188	1543.83
748.373	1652.37
748.557	1613.46
748.742	1578.64
748.927	1478.29
749.111	1533.59
749.296	1457.81
749.481	1547.92
749.665	1513.11
749.85	1523.35
750.034	1543.83
750.219	1521.3
750.404	1496.72
750.588	1478.29
750.773	1445.52
750.957	1437.33
751.141	1511.06
751.326	1377.94
751.51	1382.04
751.695	1451.67
751.879	1351.32
752.064	1457.81
752.248	1355.41
752.432	1386.13
752.617	1400.47
752.801	1390.23
752.985	1328.79
753.17	1373.85
753.354	1416.85
753.538	1386.13
753.722	1205.91
753.907	1316.5
754.091	1234.58
754.275	1277.59
754.459	1326.74
754.643	1279.64
754.828	1218.2
755.012	1232.54
755.196	1148.57
755.38	1232.54
755.564	1191.58
755.748	1152.67
755.932	1240.73
756.116	1158.81
756.3	1136.28
756.484	1232.54
756.668	1146.52
756.852	1099.42
757.036	1154.71
757.22	1185.43
757.404	1148.57
757.588	1050.27
757.772	1156.76
757.956	1191.58
758.14	1072.79
758.323	1052.31
758.507	1164.95
758.691	1097.37
758.875	1136.28
759.059	1130.14
759.242	1025.69
759.426	1035.93
759.61	1019.55
759.794	1060.51
759.977	1019.55
760.161	1062.55
760.345	1060.51
760.528	1001.12
760.712	978.59
760.895	992.92
761.079	945.82
761.263	980.64
761.446	929.44
761.63	1058.46
761.813	984.73
761.997	962.2
762.18	962.2
762.364	968.35
762.547	1023.64
762.731	929.44
762.914	915.1
763.098	927.39
763.281	906.91
763.464	829.09
763.648	931.48
763.831	978.59
764.015	898.72
764.198	947.87
764.381	990.88
764.564	984.73
764.748	898.72
764.931	904.86
765.114	863.9
765.297	876.19
765.481	808.61
765.664	904.86
765.847	829.09
766.03	841.37
766.213	876.19
766.397	861.85
766.58	863.9
766.763	917.15
766.946	820.89
767.129	851.61
767.312	818.85
767.495	954.01
767.678	820.89
767.861	851.61
768.044	788.13
768.227	908.96
768.41	720.54
768.593	880.29
768.776	755.36
768.959	738.98
769.142	814.75
769.324	835.23
769.507	759.46
769.69	745.12
769.873	847.52
770.056	804.51
770.239	769.69
770.421	794.27
770.604	704.16
770.787	808.61
770.97	767.65
771.152	773.79
771.335	712.35
771.518	747.17
771.7	771.74
771.883	763.55
772.066	792.22
772.248	710.3
772.431	732.83
772.613	765.6
772.796	675.49
772.978	726.69
773.161	814.75
773.343	706.21
773.526	765.6
773.708	685.73
773.891	661.15
774.073	624.29
774.256	650.91
774.438	702.11
774.621	601.76
774.803	663.2
774.985	683.68
775.168	638.62
775.35	706.21
775.532	591.52
775.715	640.67
775.897	609.95
776.079	571.04
776.261	689.82
776.444	661.15
776.626	618.15
776.808	618.15
776.99	544.42
777.173	655.01
777.355	579.23
777.537	597.67
777.719	671.39
777.901	577.19
778.083	571.04
778.265	525.99
778.447	558.75
778.629	558.75
778.811	534.18
778.993	562.85
779.175	454.31
779.357	552.61
779.539	583.33
779.721	532.13
779.903	540.32
780.085	603.81
780.267	501.41
780.449	589.47
780.631	577.19
780.812	595.62
780.994	499.36
781.176	501.41
781.358	511.65
781.54	466.6
781.721	478.88
781.903	480.93
782.085	454.31
782.267	493.22
782.448	452.26
782.63	423.59
782.812	433.83
782.993	415.4
783.175	556.71
783.357	403.11
783.538	423.59
783.72	384.68
783.901	429.73
784.083	358.05
784.264	542.37
784.446	349.86
784.627	380.58
784.809	339.62
784.99	378.53
785.172	405.16
785.353	321.19
785.535	405.16
785.716	370.34
785.897	366.25
786.079	319.14
786.26	356.01
786.441	394.92
786.623	394.92
786.804	335.53
786.985	382.63
787.167	372.39
787.348	380.58
787.529	405.16
787.71	386.72
787.891	388.77
788.073	315.05
788.254	368.29
788.435	382.63
788.616	413.35
788.797	386.72
788.978	284.33
789.159	370.34
789.34	278.18
789.522	376.48
789.703	306.85
789.884	339.62
790.065	374.44
790.246	310.95
790.427	335.53
790.607	368.29
790.788	321.19
790.969	278.18
791.15	267.94
791.331	276.13
791.512	339.62
791.693	310.95
791.874	304.81
792.054	296.61
792.235	288.42
792.416	267.94
792.597	386.72
792.778	265.89
792.958	300.71
793.139	333.48
793.32	331.43
793.5	237.22
793.681	310.95
793.862	235.18
794.042	306.85
794.223	290.47
794.404	224.94
794.584	202.41
794.765	194.22
794.945	247.46
795.126	308.9
795.306	204.46
795.487	261.8
795.667	241.32
795.848	286.37
796.028	202.41
796.209	286.37
796.389	272.04
796.57	284.33
796.75	231.08
796.93	206.5
797.111	300.71
797.291	196.26
797.471	218.79
797.652	210.6
797.832	224.94
798.012	163.5
798.192	245.41
798.373	145.06
798.553	220.84
798.733	198.31
798.913	153.26
799.093	175.78
799.274	173.74
799.454	245.41
799.634	208.55
799.814	214.7
799.994	196.26
800.174	247.46
800.354	216.74
800.534	153.26
800.714	173.74
800.894	186.02
801.074	114.34
801.254	198.31
801.434	161.45
801.614	192.17
801.794	134.82
801.974	489.12
802.154	136.87
802.334	243.37
802.514	151.21
802.693	237.22
802.873	120.49
803.053	138.92
803.233	188.07
803.413	181.93
803.592	171.69
803.772	190.12
803.952	220.84
804.131	206.5
804.311	155.3
804.491	204.46
804.67	128.68
804.85	196.26
805.03	286.37
805.209	145.06
805.389	192.17
805.568	118.44
805.748	95.91
805.928	106.15
806.107	112.3
806.287	183.98
806.466	97.96
806.646	126.63
806.825	112.3
807.004	155.3
807.184	245.41
807.363	159.4
807.543	100.01
807.722	124.58
807.901	153.26
808.081	143.02
808.26	155.3
808.439	93.87
808.619	97.96
808.798	214.7
808.977	147.11
809.156	147.11
809.336	134.82
809.515	145.06
809.694	100.01
809.873	181.93
810.052	97.96
810.231	196.26
810.411	169.64
810.59	200.36
810.769	183.98
810.948	116.39
811.127	106.15
811.306	145.06
811.485	136.87
811.664	239.27
811.843	116.39
812.022	124.58
812.201	161.45
812.38	93.87
812.559	120.49
812.737	190.12
812.916	128.68
813.095	161.45
813.274	126.63
813.453	106.15
813.632	122.54
813.811	151.21
813.989	175.78
814.168	126.63
814.347	83.63
814.526	85.67
814.704	65.19
814.883	138.92
815.062	126.63
815.24	83.63
815.419	50.86
815.598	161.45
815.776	165.54
815.955	145.06
816.133	71.34
816.312	118.44
816.49	65.19
816.669	202.41
816.847	54.95
817.026	145.06
817.204	67.24
817.383	175.78
817.561	100.01
817.74	134.82
817.918	114.34
818.097	63.15
818.275	93.87
818.453	116.39
818.632	124.58
818.81	93.87
818.988	79.53
819.167	93.87
819.345	181.93
819.523	157.35
819.701	136.87
819.879	124.58
820.058	54.95
820.236	73.39
820.414	93.87
820.592	85.67
820.77	114.34
820.948	61.1
821.127	9.9
821.305	100.01
821.483	69.29
821.661	110.25
821.839	134.82
822.017	83.63
822.195	106.15
822.373	85.67
822.551	100.01
822.729	108.2
822.907	102.06
823.085	30.38
823.262	59.05
823.44	106.15
823.618	132.78
823.796	104.11
823.974	100.01
824.152	97.96
824.329	85.67
824.507	106.15
824.685	165.54
824.863	65.19
825.04	59.05
825.218	128.68
825.396	28.33
825.574	44.71
825.751	104.11
825.929	69.29
826.107	83.63
826.284	79.53
826.462	38.57
826.639	54.95
826.817	97.96
826.994	69.29
827.172	122.54
827.349	192.17
827.527	69.29
827.704	26.28
827.882	91.82
828.059	95.91
828.237	44.71
828.414	89.77
828.591	87.72
828.769	38.57
828.946	183.98
829.124	61.1
829.301	104.11
829.478	48.81
829.655	89.77
829.833	83.63
830.01	13.99
830.187	83.63
830.364	16.04
830.542	118.44
830.719	114.34
830.896	91.82
831.073	63.15
831.25	97.96
831.427	57
831.604	57
831.782	63.15
831.959	63.15
832.136	32.43
832.313	89.77
832.49	48.81
832.667	134.82
832.844	102.06
833.021	116.39
833.198	102.06
833.374	44.71
833.551	48.81
833.728	57
833.905	65.19
834.082	-14.68
834.259	91.82
834.436	5.8
834.612	100.01
834.789	38.57
834.966	-2.39
835.143	69.29
835.319	97.96
835.496	93.87
835.673	28.33
835.85	-26.96
836.026	-6.49
836.203	104.11
836.38	9.9
836.556	57
836.733	13.99
836.909	77.48
837.086	59.05
837.262	-16.73
837.439	16.04
837.616	-2.39
837.792	140.97
837.968	81.58
838.145	42.67
838.321	48.81
838.498	26.28
838.674	44.71
838.851	24.23
839.027	40.62
839.203	46.76
839.38	81.58
839.556	46.76
839.732	83.63
839.909	40.62
840.085	79.53
840.261	102.06
840.437	71.34
840.614	38.57
840.79	34.47
840.966	7.85
841.142	71.34
841.318	59.05
841.494	18.09
841.671	57
841.847	34.47
842.023	46.76
842.199	118.44
842.375	65.19
842.551	-2.39
842.727	-49.49
842.903	63.15
843.079	-6.49
843.255	59.05
843.431	54.95
843.607	91.82
843.783	22.19
843.959	13.99
844.134	-8.53
844.31	77.48
844.486	28.33
844.662	-14.68
844.838	71.34
845.013	-29.01
845.189	20.14
845.365	-20.82
845.541	46.76
845.716	-4.44
845.892	-20.82
846.068	28.33
846.244	-8.53
846.419	34.47
846.595	42.67
846.77	40.62
846.946	22.19
847.122	-76.12
847.297	-33.11
847.473	69.29
847.648	-41.3
847.824	26.28
847.999	28.33
848.175	-31.06
848.35	28.33
848.526	-0.34
848.701	112.3
848.876	48.81
849.052	-4.44
849.227	42.67
849.403	9.9
849.578	24.23
849.753	69.29
849.929	83.63
850.104	44.71
850.279	54.95
850.454	93.87
850.63	93.87
850.805	28.33
850.98	52.91
851.155	18.09
851.33	36.52
851.505	16.04
851.681	77.48
851.856	-29.01
852.031	30.38
852.206	79.53
852.381	13.99
852.556	-49.49
852.731	110.25
852.906	22.19
853.081	38.57
853.256	3.75
853.431	-20.82
853.606	24.23
853.781	18.09
853.956	-14.68
854.131	16.04
854.305	20.14
854.48	-69.97
854.655	48.81
854.83	48.81
855.005	28.33
855.18	85.67
855.354	50.86
855.529	38.57
855.704	34.47
855.879	118.44
856.053	65.19
856.228	50.86
856.403	-63.83
856.577	83.63
856.752	-31.06
856.926	11.95
857.101	-2.39
857.276	1.71
857.45	93.87
857.625	-10.58
857.799	-20.82
857.974	34.47
858.148	-20.82
858.323	-8.53
858.497	40.62
858.672	26.28
858.846	-16.73
859.02	79.53
859.195	-10.58
859.369	-55.64
859.543	-41.3
859.718	34.47
859.892	79.53
860.066	54.95
860.241	26.28
860.415	-0.34
860.589	11.95
860.763	-39.25
860.938	7.85
861.112	-22.87
861.286	5.8
861.46	46.76
861.634	-2.39
861.808	1.71
861.982	40.62
862.157	24.23
862.331	-10.58
862.505	-6.49
862.679	-0.34
862.853	61.1
863.027	-16.73
863.201	87.72
863.375	-47.44
863.549	59.05
863.722	-20.82
863.896	28.33
864.07	-29.01
864.244	-41.3
864.418	46.76
864.592	7.85
864.766	-35.16
864.939	7.85
865.113	-20.82
865.287	106.15
865.461	5.8
865.634	13.99
865.808	65.19
865.982	40.62
866.156	-14.68
866.329	22.19
866.503	16.04
866.676	5.8
866.85	-2.39
867.024	54.95
867.197	-51.54
867.371	42.67
867.544	83.63
867.718	-20.82
867.891	-16.73
868.065	28.33
868.238	-45.4
868.412	36.52
868.585	-31.06
868.759	7.85
868.932	20.14
869.105	7.85
869.279	-37.2
869.452	22.19
869.625	30.38
869.799	18.09
869.972	-12.63
870.145	1.71
870.319	81.58
870.492	-24.92
870.665	18.09
870.838	16.04
871.011	24.23
871.185	-0.34
871.358	26.28
871.531	3.75
871.704	-10.58
871.877	-49.49
872.05	57
872.223	5.8
872.396	30.38
872.569	20.14
872.742	-31.06
872.915	18.09
873.088	-12.63
873.261	9.9
873.434	32.43
873.607	50.86
873.78	38.57
873.953	-49.49
874.126	-8.53
874.299	54.95
874.471	54.95
874.644	28.33
874.817	18.09
874.99	7.85
875.163	-6.49
875.335	46.76
875.508	1.71
875.681	-8.53
875.853	-10.58
876.026	-41.3
876.199	-22.87
876.371	28.33
876.544	26.28
876.717	-33.11
876.889	-51.54
877.062	11.95
877.234	-39.25
877.407	32.43
877.579	-33.11
877.752	-22.87
877.924	18.09
878.097	9.9
878.269	-41.3
878.442	-24.92
878.614	16.04
878.786	-57.68
878.959	-14.68
879.131	65.19
879.303	-43.35
879.476	79.53
879.648	38.57
879.82	57
879.993	-82.26
880.165	34.47
880.337	3.75
880.509	18.09
880.681	-59.73
880.854	9.9
881.026	-4.44
881.198	3.75
881.37	-4.44
881.542	5.8
881.714	-29.01
881.886	-20.82
882.058	-31.06
882.23	42.67
882.402	-37.2
882.574	-92.5
882.746	44.71
882.918	38.57
883.09	30.38
883.262	-18.77
883.434	42.67
883.606	-4.44
883.778	-69.97
883.95	18.09
884.122	-41.3
884.293	44.71
884.465	30.38
884.637	20.14
884.809	-39.25
884.98	-26.96
885.152	24.23
885.324	-35.16
885.496	13.99
885.667	-4.44
885.839	-12.63
886.011	30.38
886.182	-8.53
886.354	11.95
886.525	50.86
886.697	-22.87
886.869	-12.63
887.04	-14.68
887.212	5.8
887.383	97.96
887.555	-29.01
887.726	26.28
887.897	-2.39
888.069	-49.49
888.24	-37.2
888.412	-45.4
888.583	-69.97
888.754	85.67
888.926	-106.84
889.097	3.75
889.268	-88.4
889.44	-53.59
889.611	-24.92
889.782	32.43
889.953	-12.63
890.125	65.19
890.296	-88.4
890.467	73.39
890.638	-47.44
890.809	-10.58
890.98	-20.82
891.151	-115.03
891.323	-8.53
891.494	-96.6
891.665	-37.2
891.836	-59.73
892.007	-14.68
892.178	-22.87
892.349	-16.73
892.52	-16.73
892.691	-53.59
892.862	75.43
893.032	34.47
893.203	-8.53
893.374	-31.06
893.545	7.85
893.716	46.76
893.887	-24.92
894.057	-53.59
894.228	11.95
894.399	9.9
894.57	-33.11
894.74	9.9
894.911	-14.68
895.082	-47.44
895.253	34.47
895.423	-51.54
895.594	28.33
895.764	26.28
895.935	-47.44
896.106	46.76
896.276	24.23
896.447	-22.87
896.617	-57.68
896.788	18.09
896.958	44.71
897.129	46.76
897.299	-24.92
897.47	63.15
897.64	-6.49
897.81	11.95
897.981	9.9
898.151	-18.77
898.322	-10.58
898.492	-16.73
898.662	-49.49
898.832	30.38
899.003	-63.83
899.173	-6.49
899.343	16.04
899.513	-0.34
