Data from USB4F104151__0__12-00-15-709.txt Node

Date: Fri Mar 14 12:00:15 EDT 2025
User: louis
Spectrometer: USB4F10415
Trigger mode: 4
Integration Time (sec): 2.000000E-2
Scans to average: 1
Electric dark correction enabled: true
Nonlinearity correction enabled: false
Boxcar width: 0
XAxis mode: Wavelengths
Number of Pixels in Spectrum: 3648
>>>>>Begin Spectral Data<<<<<
178.204	-74.41
178.424	-74.41
178.644	-74.41
178.864	-94.89
179.084	-66.22
179.304	5.46
179.524	-0.68
179.744	36.18
179.964	36.18
180.184	17.75
180.404	38.23
180.624	-12.97
180.844	-51.88
181.064	-37.55
181.283	25.94
181.503	-31.4
181.723	-25.26
181.943	15.7
182.163	21.85
182.383	7.51
182.602	68.95
182.822	7.51
183.042	19.8
183.262	44.37
183.482	3.41
183.701	1.37
183.921	46.42
184.141	25.94
184.361	85.33
184.58	-15.02
184.8	-25.26
185.02	32.08
185.239	50.52
185.459	60.76
185.679	21.85
185.898	30.04
186.118	50.52
186.338	-23.21
186.557	1.37
186.777	-25.26
186.997	25.94
187.216	-2.73
187.436	21.85
187.655	-0.68
187.875	32.08
188.095	-19.11
188.314	7.51
188.534	32.08
188.753	36.18
188.973	5.46
189.192	50.52
189.412	58.71
189.631	46.42
189.851	64.85
190.07	5.46
190.29	-33.45
190.509	25.94
190.729	-2.73
190.948	38.23
191.168	75.09
191.387	36.18
191.607	1.37
191.826	-41.64
192.045	13.65
192.265	30.04
192.484	50.52
192.704	-31.4
192.923	-74.41
193.142	27.99
193.362	97.62
193.581	-21.16
193.8	50.52
194.02	-25.26
194.239	114
194.458	50.52
194.678	-21.16
194.897	-15.02
195.116	30.04
195.335	19.8
195.555	-23.21
195.774	7.51
195.993	30.04
196.212	-19.11
196.432	-88.75
196.651	7.51
196.87	85.33
197.089	27.99
197.308	-23.21
197.528	5.46
197.747	5.46
197.966	32.08
198.185	64.85
198.404	36.18
198.623	-37.55
198.842	9.56
199.062	34.13
199.281	114
199.5	21.85
199.719	-98.99
199.938	23.89
200.157	56.66
200.376	42.32
200.595	-19.11
200.814	-23.21
201.033	17.75
201.252	-53.93
201.471	-6.83
201.69	-6.83
201.909	21.85
202.128	-33.45
202.347	19.8
202.566	-12.97
202.785	36.18
203.004	52.56
203.223	91.48
203.442	87.38
203.661	21.85
203.879	-19.11
204.098	71
204.317	19.8
204.536	13.65
204.755	89.43
204.974	-41.64
205.193	68.95
205.411	27.99
205.63	105.81
205.849	44.37
206.068	32.08
206.287	-27.31
206.505	-4.78
206.724	-51.88
206.943	-15.02
207.162	38.23
207.381	-0.68
207.599	30.04
207.818	-6.83
208.037	25.94
208.255	40.28
208.474	-10.92
208.693	11.61
208.911	-19.11
209.13	-4.78
209.349	17.75
209.567	73.04
209.786	-17.07
210.005	-17.07
210.223	11.61
210.442	-119.46
210.661	62.8
210.879	-15.02
211.098	-8.87
211.316	87.38
211.535	56.66
211.753	-39.59
211.972	25.94
212.191	-29.35
212.409	7.51
212.628	36.18
212.846	-27.31
213.065	75.09
213.283	50.52
213.502	25.94
213.72	-41.64
213.938	34.13
214.157	36.18
214.375	9.56
214.594	-15.02
214.812	34.13
215.031	60.76
215.249	34.13
215.467	13.65
215.686	32.08
215.904	25.94
216.122	-21.16
216.341	19.8
216.559	73.04
216.778	3.41
216.996	-55.98
217.214	73.04
217.432	7.51
217.651	34.13
217.869	11.61
218.087	62.8
218.306	-2.73
218.524	-15.02
218.742	-35.5
218.96	7.51
219.179	48.47
219.397	25.94
219.615	64.85
219.833	-6.83
220.051	-53.93
220.27	32.08
220.488	50.52
220.706	62.8
220.924	-15.02
221.142	-15.02
221.36	54.61
221.578	23.89
221.796	19.8
222.015	-37.55
222.233	27.99
222.451	-19.11
222.669	21.85
222.887	36.18
223.105	-41.64
223.323	17.75
223.541	-19.11
223.759	11.61
223.977	-4.78
224.195	83.28
224.413	-8.87
224.631	34.13
224.849	23.89
225.067	52.56
225.285	-15.02
225.503	42.32
225.721	1.37
225.939	13.65
226.157	-21.16
226.375	-41.64
226.592	-62.12
226.81	-6.83
227.028	83.28
227.246	-19.11
227.464	-6.83
227.682	60.76
227.9	52.56
228.117	-103.08
228.335	42.32
228.553	38.23
228.771	-19.11
228.989	-15.02
229.206	13.65
229.424	60.76
229.642	32.08
229.86	-60.07
230.077	15.7
230.295	-35.5
230.513	-27.31
230.731	91.48
230.948	71
231.166	66.9
231.384	-45.74
231.601	5.46
231.819	21.85
232.037	-29.35
232.254	-45.74
232.472	46.42
232.689	-37.55
232.907	48.47
233.125	1.37
233.342	-15.02
233.56	3.41
233.777	11.61
233.995	44.37
234.213	9.56
234.43	-15.02
234.648	3.41
234.865	-27.31
235.083	42.32
235.3	-21.16
235.518	19.8
235.735	73.04
235.953	7.51
236.17	-6.83
236.388	3.41
236.605	54.61
236.822	-43.69
237.04	-17.07
237.257	-51.88
237.475	19.8
237.692	13.65
237.909	34.13
238.127	71
238.344	-19.11
238.562	38.23
238.779	-27.31
238.996	25.94
239.214	15.7
239.431	116.05
239.648	38.23
239.865	81.24
240.083	81.24
240.3	62.8
240.517	-0.68
240.735	-17.07
240.952	50.52
241.169	52.56
241.386	-86.7
241.603	30.04
241.821	36.18
242.038	46.42
242.255	21.85
242.472	-33.45
242.689	21.85
242.907	64.85
243.124	-37.55
243.341	-2.73
243.558	-41.64
243.775	-2.73
243.992	1.37
244.209	42.32
244.426	32.08
244.643	17.75
244.86	40.28
245.078	9.56
245.295	71
245.512	7.51
245.729	15.7
245.946	-10.92
246.163	3.41
246.38	-35.5
246.597	30.04
246.814	9.56
247.031	30.04
247.248	1.37
247.464	15.7
247.681	17.75
247.898	25.94
248.115	-8.87
248.332	-0.68
248.549	-19.11
248.766	79.19
248.983	-21.16
249.2	62.8
249.417	62.8
249.633	23.89
249.85	-27.31
250.067	-12.97
250.284	15.7
250.501	15.7
250.717	17.75
250.934	-51.88
251.151	56.66
251.368	-47.79
251.585	9.56
251.801	-35.5
252.018	11.61
252.235	62.8
252.451	15.7
252.668	25.94
252.885	-8.87
253.102	-23.21
253.318	-51.88
253.535	46.42
253.752	-51.88
253.968	40.28
254.185	-2.73
254.401	-94.89
254.618	-12.97
254.835	5.46
255.051	-8.87
255.268	56.66
255.484	46.42
255.701	30.04
255.917	-2.73
256.134	21.85
256.351	25.94
256.567	-60.07
256.784	-2.73
257	50.52
257.217	-8.87
257.433	-0.68
257.65	15.7
257.866	-51.88
258.082	-2.73
258.299	-15.02
258.515	95.57
258.732	19.8
258.948	9.56
259.165	46.42
259.381	60.76
259.597	34.13
259.814	-43.69
260.03	50.52
260.246	-35.5
260.463	3.41
260.679	64.85
260.895	48.47
261.112	42.32
261.328	7.51
261.544	-2.73
261.761	-31.4
261.977	-33.45
262.193	-55.98
262.409	1.37
262.626	23.89
262.842	21.85
263.058	15.7
263.274	-51.88
263.49	81.24
263.707	118.1
263.923	25.94
264.139	-51.88
264.355	27.99
264.571	-33.45
264.787	9.56
265.004	9.56
265.22	30.04
265.436	34.13
265.652	5.46
265.868	23.89
266.084	-21.16
266.3	11.61
266.516	30.04
266.732	36.18
266.948	64.85
267.164	1.37
267.38	-21.16
267.596	15.7
267.812	105.81
268.028	42.32
268.244	-2.73
268.46	9.56
268.676	-33.45
268.892	25.94
269.108	-15.02
269.324	-10.92
269.54	15.7
269.756	38.23
269.972	-10.92
270.188	44.37
270.403	27.99
270.619	-37.55
270.835	-8.87
271.051	17.75
271.267	-12.97
271.483	64.85
271.698	42.32
271.914	17.75
272.13	-17.07
272.346	-6.83
272.562	7.51
272.777	101.72
272.993	-6.83
273.209	13.65
273.425	27.99
273.64	15.7
273.856	-41.64
274.072	21.85
274.287	-21.16
274.503	17.75
274.719	66.9
274.934	-8.87
275.15	-27.31
275.366	64.85
275.581	-45.74
275.797	68.95
276.012	83.28
276.228	-29.35
276.444	-45.74
276.659	-6.83
276.875	48.47
277.09	11.61
277.306	7.51
277.521	-10.92
277.737	-12.97
277.952	95.57
278.168	54.61
278.383	27.99
278.599	5.46
278.814	32.08
279.03	21.85
279.245	75.09
279.461	-15.02
279.676	79.19
279.892	32.08
280.107	-39.59
280.322	-37.55
280.538	30.04
280.753	83.28
280.969	-12.97
281.184	52.56
281.399	27.99
281.615	-15.02
281.83	5.46
282.045	-41.64
282.26	3.41
282.476	30.04
282.691	111.96
282.906	50.52
283.122	19.8
283.337	-12.97
283.552	-8.87
283.767	-64.17
283.983	73.04
284.198	-10.92
284.413	7.51
284.628	9.56
284.843	-8.87
285.058	60.76
285.274	38.23
285.489	-2.73
285.704	66.9
285.919	13.65
286.134	40.28
286.349	3.41
286.564	-10.92
286.779	3.41
286.995	-41.64
287.21	-31.4
287.425	3.41
287.64	36.18
287.855	105.81
288.07	-39.59
288.285	52.56
288.5	38.23
288.715	77.14
288.93	-6.83
289.145	5.46
289.36	5.46
289.575	75.09
289.79	48.47
290.004	1.37
290.219	23.89
290.434	-2.73
290.649	36.18
290.864	-4.78
291.079	-2.73
291.294	32.08
291.509	87.38
291.724	7.51
291.938	36.18
292.153	-29.35
292.368	79.19
292.583	58.71
292.798	30.04
293.012	52.56
293.227	23.89
293.442	-25.26
293.657	19.8
293.871	44.37
294.086	-4.78
294.301	13.65
294.516	-6.83
294.73	21.85
294.945	-33.45
295.16	3.41
295.374	-41.64
295.589	23.89
295.804	-12.97
296.018	-10.92
296.233	36.18
296.447	-43.69
296.662	-10.92
296.877	1.37
297.091	58.71
297.306	-25.26
297.52	5.46
297.735	21.85
297.949	15.7
298.164	7.51
298.378	7.51
298.593	32.08
298.807	25.94
299.022	50.52
299.236	-15.02
299.451	62.8
299.665	-10.92
299.88	-62.12
300.094	97.62
300.309	42.32
300.523	50.52
300.737	97.62
300.952	11.61
301.166	-41.64
301.381	-4.78
301.595	3.41
301.809	25.94
302.024	11.61
302.238	13.65
302.452	105.81
302.667	48.47
302.881	85.33
303.095	40.28
303.309	27.99
303.524	25.94
303.738	109.91
303.952	-25.26
304.166	13.65
304.381	-19.11
304.595	44.37
304.809	15.7
305.023	56.66
305.237	17.75
305.452	5.46
305.666	-2.73
305.88	15.7
306.094	-4.78
306.308	42.32
306.522	36.18
306.736	-35.5
306.95	11.61
307.164	-4.78
307.379	-21.16
307.593	52.56
307.807	68.95
308.021	89.43
308.235	-12.97
308.449	-19.11
308.663	-10.92
308.877	32.08
309.091	46.42
309.305	48.47
309.519	-27.31
309.733	71
309.947	36.18
310.161	21.85
310.374	-47.79
310.588	15.7
310.802	-21.16
311.016	9.56
311.23	-64.17
311.444	-23.21
311.658	126.29
311.872	-0.68
312.085	-41.64
312.299	17.75
312.513	-17.07
312.727	30.04
312.941	-21.16
313.154	-33.45
313.368	17.75
313.582	3.41
313.796	46.42
314.009	19.8
314.223	56.66
314.437	60.76
314.651	-12.97
314.864	3.41
315.078	-35.5
315.292	-4.78
315.505	25.94
315.719	-35.5
315.933	-0.68
316.146	66.9
316.36	3.41
316.573	-35.5
316.787	23.89
317.001	46.42
317.214	21.85
317.428	30.04
317.641	-12.97
317.855	-49.83
318.068	-21.16
318.282	23.89
318.495	7.51
318.709	1.37
318.922	40.28
319.136	17.75
319.349	34.13
319.563	3.41
319.776	50.52
319.99	-15.02
320.203	83.28
320.417	5.46
320.63	62.8
320.843	27.99
321.057	71
321.27	36.18
321.483	-27.31
321.697	-19.11
321.91	-6.83
322.124	-6.83
322.337	75.09
322.55	-60.07
322.763	1.37
322.977	-0.68
323.19	3.41
323.403	-41.64
323.617	-2.73
323.83	30.04
324.043	-29.35
324.256	-4.78
324.469	-15.02
324.683	73.04
324.896	9.56
325.109	-4.78
325.322	-39.59
325.535	44.37
325.748	32.08
325.962	25.94
326.175	-60.07
326.388	99.67
326.601	25.94
326.814	1.37
327.027	38.23
327.24	27.99
327.453	21.85
327.666	-0.68
327.879	85.33
328.092	91.48
328.305	13.65
328.518	44.37
328.731	-39.59
328.944	-6.83
329.157	19.8
329.37	60.76
329.583	40.28
329.796	56.66
330.009	30.04
330.222	1.37
330.435	42.32
330.648	46.42
330.861	23.89
331.073	-0.68
331.286	30.04
331.499	-21.16
331.712	-10.92
331.925	91.48
332.138	46.42
332.35	19.8
332.563	38.23
332.776	64.85
332.989	40.28
333.202	40.28
333.414	38.23
333.627	44.37
333.84	111.96
334.053	19.8
334.265	-35.5
334.478	56.66
334.691	46.42
334.903	36.18
335.116	-4.78
335.329	58.71
335.541	-49.83
335.754	11.61
335.966	38.23
336.179	13.65
336.392	-21.16
336.604	-25.26
336.817	42.32
337.029	44.37
337.242	3.41
337.454	11.61
337.667	-37.55
337.88	27.99
338.092	-35.5
338.305	77.14
338.517	-41.64
338.729	77.14
338.942	68.95
339.154	44.37
339.367	-8.87
339.579	-4.78
339.792	46.42
340.004	111.96
340.217	-12.97
340.429	-2.73
340.641	9.56
340.854	48.47
341.066	38.23
341.278	11.61
341.491	42.32
341.703	-70.31
341.915	-21.16
342.128	68.95
342.34	42.32
342.552	23.89
342.764	-19.11
342.977	73.04
343.189	-29.35
343.401	34.13
343.613	9.56
343.826	7.51
344.038	-33.45
344.25	-43.69
344.462	52.56
344.674	95.57
344.886	-2.73
345.099	66.9
345.311	89.43
345.523	19.8
345.735	-33.45
345.947	-4.78
346.159	9.56
346.371	56.66
346.583	5.46
346.795	77.14
347.007	15.7
347.219	-31.4
347.431	-31.4
347.643	27.99
347.855	-31.4
348.067	11.61
348.279	17.75
348.491	-39.59
348.703	-19.11
348.915	7.51
349.127	-15.02
349.339	13.65
349.551	40.28
349.763	40.28
349.975	23.89
350.187	138.58
350.399	-37.55
350.61	-0.68
350.822	-45.74
351.034	50.52
351.246	114
351.458	-8.87
351.669	-19.11
351.881	66.9
352.093	40.28
352.305	40.28
352.517	-0.68
352.728	52.56
352.94	-2.73
353.152	66.9
353.363	17.75
353.575	-0.68
353.787	3.41
353.999	30.04
354.21	62.8
354.422	19.8
354.633	-37.55
354.845	124.24
355.057	25.94
355.268	-62.12
355.48	21.85
355.692	7.51
355.903	58.71
356.115	-33.45
356.326	-21.16
356.538	83.28
356.749	25.94
356.961	-15.02
357.172	-0.68
357.384	-0.68
357.595	30.04
357.807	54.61
358.018	54.61
358.23	48.47
358.441	40.28
358.653	54.61
358.864	46.42
359.075	-10.92
359.287	-41.64
359.498	-23.21
359.709	-8.87
359.921	85.33
360.132	5.46
360.344	38.23
360.555	-2.73
360.766	23.89
360.977	13.65
361.189	7.51
361.4	44.37
361.611	52.56
361.823	17.75
362.034	52.56
362.245	7.51
362.456	68.95
362.667	-23.21
362.879	-51.88
363.09	-25.26
363.301	40.28
363.512	27.99
363.723	38.23
363.935	-55.98
364.146	19.8
364.357	48.47
364.568	25.94
364.779	-45.74
364.99	19.8
365.201	79.19
365.412	21.85
365.623	-21.16
365.834	21.85
366.045	-19.11
366.256	42.32
366.467	13.65
366.678	21.85
366.889	34.13
367.1	38.23
367.311	73.04
367.522	126.29
367.733	79.19
367.944	27.99
368.155	3.41
368.366	54.61
368.577	30.04
368.788	15.7
368.999	7.51
369.209	-21.16
369.42	5.46
369.631	62.8
369.842	68.95
370.053	52.56
370.264	77.14
370.474	21.85
370.685	62.8
370.896	21.85
371.107	21.85
371.317	23.89
371.528	36.18
371.739	11.61
371.95	40.28
372.16	48.47
372.371	-53.93
372.582	15.7
372.792	19.8
373.003	38.23
373.214	-25.26
373.424	1.37
373.635	15.7
373.846	36.18
374.056	-27.31
374.267	11.61
374.477	23.89
374.688	-51.88
374.898	5.46
375.109	50.52
375.319	1.37
375.53	95.57
375.74	48.47
375.951	50.52
376.161	-29.35
376.372	25.94
376.582	60.76
376.793	120.15
377.003	23.89
377.214	23.89
377.424	-19.11
377.635	-10.92
377.845	42.32
378.055	19.8
378.266	-12.97
378.476	1.37
378.686	-4.78
378.897	36.18
379.107	11.61
379.317	50.52
379.528	21.85
379.738	21.85
379.948	9.56
380.158	30.04
380.369	-4.78
380.579	38.23
380.789	64.85
380.999	21.85
381.21	40.28
381.42	97.62
381.63	-49.83
381.84	46.42
382.05	11.61
382.261	75.09
382.471	56.66
382.681	-19.11
382.891	-10.92
383.101	3.41
383.311	13.65
383.521	46.42
383.731	60.76
383.941	46.42
384.151	38.23
384.361	46.42
384.571	11.61
384.781	132.44
384.991	34.13
385.201	32.08
385.411	34.13
385.621	85.33
385.831	-31.4
386.041	19.8
386.251	-27.31
386.461	27.99
386.671	13.65
386.881	-4.78
387.091	9.56
387.301	66.9
387.511	-0.68
387.72	23.89
387.93	46.42
388.14	11.61
388.35	-15.02
388.56	36.18
388.769	13.65
388.979	40.28
389.189	-25.26
389.399	7.51
389.609	-58.03
389.818	1.37
390.028	48.47
390.238	7.51
390.447	13.65
390.657	-47.79
390.867	-2.73
391.076	-17.07
391.286	15.7
391.496	36.18
391.705	3.41
391.915	95.57
392.125	60.76
392.334	40.28
392.544	64.85
392.753	38.23
392.963	-33.45
393.172	40.28
393.382	11.61
393.591	52.56
393.801	27.99
394.01	109.91
394.22	62.8
394.429	5.46
394.639	-0.68
394.848	77.14
395.058	66.9
395.267	56.66
395.477	46.42
395.686	34.13
395.895	50.52
396.105	81.24
396.314	79.19
396.524	42.32
396.733	64.85
396.942	54.61
397.152	27.99
397.361	38.23
397.57	48.47
397.78	-6.83
397.989	52.56
398.198	118.1
398.407	126.29
398.617	66.9
398.826	54.61
399.035	15.7
399.244	23.89
399.453	34.13
399.663	71
399.872	60.76
400.081	13.65
400.29	109.91
400.499	56.66
400.708	40.28
400.917	25.94
401.127	93.52
401.336	11.61
401.545	58.71
401.754	97.62
401.963	81.24
402.172	44.37
402.381	50.52
402.59	75.09
402.799	177.49
403.008	103.76
403.217	32.08
403.426	71
403.635	83.28
403.844	79.19
404.053	99.67
404.262	56.66
404.471	185.68
404.68	91.48
404.888	173.39
405.097	40.28
405.306	66.9
405.515	48.47
405.724	83.28
405.933	93.52
406.142	50.52
406.35	118.1
406.559	99.67
406.768	79.19
406.977	122.2
407.185	91.48
407.394	97.62
407.603	111.96
407.812	142.68
408.02	183.63
408.229	124.24
408.438	140.63
408.646	87.38
408.855	95.57
409.064	161.11
409.272	111.96
409.481	159.06
409.69	128.34
409.898	101.72
410.107	218.45
410.315	214.35
410.524	202.07
410.733	214.35
410.941	187.73
411.15	238.93
411.358	236.88
411.567	269.65
411.775	230.74
411.984	269.65
412.192	296.27
412.401	304.46
412.609	380.24
412.818	275.79
413.026	316.75
413.234	372.05
413.443	357.71
413.651	320.85
413.86	361.81
414.068	378.19
414.276	425.29
414.485	308.56
414.693	492.88
414.901	396.62
415.11	419.15
415.318	357.71
415.526	447.82
415.734	439.63
415.943	419.15
416.151	482.64
416.359	535.89
416.567	535.89
416.776	484.69
416.984	558.41
417.192	615.76
417.4	611.66
417.608	582.99
417.817	589.13
418.025	582.99
418.233	728.39
418.441	628.04
418.649	759.11
418.857	685.39
419.065	822.6
419.273	789.83
419.481	761.16
419.689	906.57
419.897	871.75
420.105	925
420.313	978.25
420.521	1033.54
420.729	998.73
420.937	959.81
421.145	1033.54
421.353	1101.12
421.561	1199.43
421.769	1133.89
421.977	1281.35
422.185	1207.62
422.393	1320.26
422.601	1469.76
422.809	1396.03
423.017	1377.6
423.224	1387.84
423.432	1447.23
423.64	1525.05
423.848	1639.74
424.056	1566.01
424.263	1772.86
424.471	1776.95
424.679	1738.04
424.887	1805.63
425.094	1926.46
425.302	1955.13
425.51	2088.25
425.718	2051.38
425.925	2096.44
426.133	2231.6
426.341	2278.71
426.548	2391.34
426.756	2370.87
426.964	2463.02
427.171	2452.78
427.379	2602.29
427.586	2663.72
427.794	2762.03
428.001	2917.67
428.209	3073.32
428.417	3030.31
428.624	3138.85
428.832	3259.68
429.039	3124.52
429.247	3130.66
429.454	3454.24
429.662	3640.61
429.869	3417.38
430.076	3781.92
430.284	3628.32
430.491	3853.59
430.699	3984.66
430.906	3935.51
431.114	3955.99
431.321	4220.18
431.528	4238.61
431.736	4566.29
431.943	4771.08
432.15	4554
432.358	4633.87
432.565	4795.66
432.772	4943.11
432.979	5113.1
433.187	5270.79
433.394	5256.45
433.601	5643.52
433.808	5625.09
434.016	5643.52
434.223	5606.66
434.43	6255.86
434.637	5983.48
434.844	6374.64
435.052	6620.4
435.259	6540.53
435.466	6479.09
435.673	6589.68
435.88	6868.2
436.087	7271.65
436.294	7421.16
436.501	7179.5
436.708	7314.66
436.915	7711.97
437.122	8082.65
437.329	7705.82
437.537	7914.72
437.743	8226.01
437.95	8205.53
438.157	8684.75
438.364	8850.64
438.571	8795.34
438.778	9020.62
438.985	9741.5
439.192	9430.21
439.399	9643.2
439.606	9553.09
439.813	10245.3
440.02	10499.25
440.227	10441.91
440.433	10464.44
440.64	10763.44
440.847	10767.54
441.054	11015.34
441.261	11635.88
441.467	11431.08
441.674	11773.09
441.881	12225.69
442.088	12010.65
442.294	11904.16
442.501	12414.1
442.708	12702.87
442.914	13114.51
443.121	13585.54
443.328	13448.33
443.534	14271.61
443.741	13898.88
443.948	13624.45
444.154	14890.1
444.361	14548.09
444.568	14910.58
444.774	14994.54
444.981	14998.64
445.187	15592.55
445.394	16149.6
445.6	15844.45
445.807	17298.51
446.013	16305.24
446.22	16831.57
446.426	17720.39
446.633	17695.82
446.839	18175.04
447.046	17431.63
447.252	18525.24
447.459	18738.23
447.665	18676.79
447.871	19313.71
448.078	20397.09
448.284	19037.23
448.491	19672.11
448.697	20558.88
448.903	21031.96
449.11	20982.81
449.316	20560.92
449.522	20874.26
449.728	21548.04
449.935	21603.34
450.141	21824.52
450.347	22012.93
450.553	21531.66
450.76	21767.18
450.966	22590.46
451.172	22219.78
451.378	22688.76
451.584	22211.59
451.791	22762.49
451.997	22572.03
452.203	22830.07
452.409	23075.83
452.615	22981.62
452.821	21951.49
453.027	21707.79
453.233	22856.7
453.44	22162.44
453.646	22096.9
453.852	22379.52
454.058	22598.65
454.264	21783.56
454.47	22531.07
454.676	22010.89
454.882	22529.02
455.088	20345.89
455.294	20786.2
455.5	21240.85
455.705	21380.11
455.911	20618.27
456.117	19756.07
456.323	19813.42
456.529	18488.38
456.735	19633.19
456.941	18986.04
457.147	18990.13
457.352	17996.87
457.558	17722.44
457.764	18054.21
457.97	17597.51
458.176	17124.43
458.381	17106
458.587	16612.44
458.793	16479.32
458.999	15344.75
459.204	16393.31
459.41	16000.1
459.616	14998.64
459.821	15160.43
460.027	14931.06
460.233	14689.4
460.438	14083.2
460.644	14206.08
460.85	13511.82
461.055	13233.29
461.261	13094.03
461.466	12178.59
461.672	11748.51
461.878	12532.89
462.083	11859.1
462.289	11834.53
462.494	11584.68
462.7	11125.93
462.905	10515.64
463.111	11218.09
463.316	10990.77
463.522	10900.65
463.727	10693.81
463.932	10851.5
464.138	10755.25
464.343	10892.46
464.549	10441.91
464.754	10857.65
464.959	10767.54
465.165	10736.82
465.37	10194.11
465.575	9917.63
465.781	10327.22
465.986	10435.77
466.191	10034.36
466.397	9815.23
466.602	9321.67
466.807	9692.35
467.012	9747.65
467.218	9643.2
467.423	9428.17
467.628	9567.43
467.833	10073.28
468.038	9708.74
468.244	9608.39
468.449	9821.38
468.654	9217.22
468.859	9434.31
469.064	9460.93
469.269	8932.56
469.474	9129.16
469.679	9256.14
469.885	9092.3
470.09	9002.19
470.295	8901.84
470.5	8668.37
470.705	8920.27
470.91	8623.31
471.115	8647.89
471.32	8778.96
471.525	8733.9
471.73	8527.06
471.935	8393.94
472.139	8105.18
472.344	8197.34
472.549	8033.5
472.754	7955.68
472.959	7900.38
473.164	7562.47
473.369	7511.27
473.574	7836.89
473.778	7662.82
473.983	7611.62
474.188	7654.62
474.393	7257.32
474.598	7419.11
474.802	7208.17
475.007	7222.5
475.212	7146.73
475.417	6827.25
475.621	6913.26
475.826	6946.03
476.031	6868.2
476.235	6657.26
476.44	6681.84
476.645	6599.92
476.849	6505.71
477.054	6544.63
477.259	6434.04
477.463	6675.7
477.668	6259.96
477.872	6370.55
478.077	6376.69
478.282	6118.65
478.486	6034.68
478.691	6114.55
478.895	6141.18
479.1	5915.9
479.304	5850.36
479.509	5901.56
479.713	5940.47
479.918	5885.18
480.122	5823.74
480.326	5768.45
480.531	5795.07
480.735	5713.15
480.94	5725.44
481.144	5790.97
481.348	5580.03
481.553	5690.62
481.757	5510.4
481.961	5723.39
482.166	5666.05
482.37	5795.07
482.574	5432.58
482.778	5598.46
482.983	5653.76
483.187	5506.31
483.391	5565.7
483.595	5438.72
483.8	5451.01
484.004	5471.49
484.208	5666.05
484.412	5592.32
484.616	5471.49
484.821	5735.68
485.025	5451.01
485.229	5534.98
485.433	5580.03
485.637	5506.31
485.841	5565.7
486.045	5549.31
486.249	5727.49
486.453	5444.87
486.657	5569.79
486.861	5692.67
487.065	5428.48
487.269	5479.68
487.473	5381.38
487.677	5573.89
487.881	5672.19
488.085	5514.5
488.289	5471.49
488.493	5508.35
488.697	5657.86
488.901	5676.29
489.105	5635.33
489.309	5516.55
489.512	5422.34
489.716	5528.83
489.92	5610.75
490.124	5670.14
490.328	5782.78
490.531	5762.3
490.735	5739.77
490.939	5727.49
491.143	5655.81
491.346	5752.06
491.55	5745.92
491.754	5891.32
491.958	5797.12
492.161	5842.17
492.365	5764.35
492.569	5809.4
492.772	5852.41
492.976	6053.11
493.18	5911.8
493.383	5928.19
493.587	6059.26
493.79	6069.5
493.994	5870.84
494.197	5928.19
494.401	6130.94
494.605	6026.49
494.808	6313.2
495.012	6204.66
495.215	6319.35
495.419	6341.88
495.622	6335.73
495.825	6520.05
496.029	6350.07
496.232	6665.46
496.436	6714.61
496.639	6831.34
496.843	6608.11
497.046	6808.81
497.249	6829.29
497.453	6892.78
497.656	6960.36
497.859	7087.34
498.063	7148.78
498.266	7216.36
498.469	7109.86
498.673	7152.87
498.876	7384.29
499.079	7533.79
499.282	7466.21
499.485	7611.62
499.689	7593.19
499.892	7916.76
500.095	7695.58
500.298	7910.62
500.501	7974.11
500.705	8172.76
500.908	8170.71
501.111	8072.41
501.314	8395.99
501.517	8500.44
501.72	8563.92
501.923	8432.85
502.126	8778.96
502.329	8725.71
502.532	8797.39
502.735	8877.26
502.938	9045.2
503.141	9108.68
503.344	9368.77
503.547	9362.63
503.75	9546.95
503.953	9639.11
504.156	9700.55
504.359	9839.81
504.562	9675.97
504.765	10075.32
504.968	10011.84
505.17	10075.32
505.373	10183.87
505.576	10198.2
505.779	10347.7
505.982	10353.85
506.185	10638.51
506.387	10724.53
506.59	10816.69
506.793	11001.01
506.996	11095.21
507.198	11351.21
507.401	11367.59
507.604	11334.82
507.807	11799.71
508.009	11705.51
508.212	11687.07
508.415	11932.83
508.617	11826.34
508.82	11979.93
509.022	12106.91
509.225	12231.83
509.428	12342.42
509.63	12541.08
509.833	12399.77
510.035	12790.93
510.238	12833.94
510.44	12981.39
510.643	13034.64
510.845	13327.5
511.048	13534.34
511.25	13448.33
511.453	13601.93
511.655	13894.79
511.858	13667.46
512.06	13917.31
512.262	14107.77
512.465	13886.59
512.667	14425.21
512.87	14390.39
513.072	14240.89
513.274	14830.71
513.477	14830.71
513.679	14730.36
513.881	15182.96
514.084	15180.91
514.286	15121.52
514.488	15387.75
514.69	15580.26
514.893	15625.32
515.095	15789.16
515.297	16147.55
515.499	15811.68
515.701	16153.69
515.904	16233.57
516.106	16469.08
516.308	16714.84
516.51	16686.17
516.712	16886.87
516.914	16946.26
517.116	17196.11
517.318	17327.18
517.52	17007.7
517.722	17480.78
517.925	17421.39
518.127	18031.68
518.329	17933.38
518.531	17884.23
518.733	17888.32
518.935	18250.81
519.136	18095.17
519.338	18289.73
519.54	18658.36
519.742	18613.31
519.944	19135.54
520.146	19000.37
520.348	18900.02
520.55	19344.43
520.752	19035.19
520.954	19360.81
521.155	19424.3
521.357	19723.3
521.559	19897.38
521.761	20141.09
521.963	19891.24
522.164	20323.36
522.366	20169.76
522.568	20519.96
522.77	20313.12
522.971	20657.18
523.173	20814.87
523.375	20816.92
523.576	20628.51
523.778	20763.67
523.98	20831.26
524.181	20771.86
524.383	21355.54
524.584	21197.84
524.786	21572.62
524.988	20997.14
525.189	21380.11
525.391	21613.58
525.592	21791.75
525.794	21910.53
525.995	22014.98
526.197	21974.02
526.398	21992.45
526.6	22402.05
526.801	22445.05
527.003	22230.02
527.204	22318.08
527.406	22459.39
527.607	22391.81
527.808	22633.47
528.01	22205.44
528.211	22682.62
528.412	23051.25
528.614	22899.7
528.815	22776.83
529.016	23116.79
529.218	22774.78
529.419	22959.1
529.62	22838.26
529.822	22940.66
530.023	22834.17
530.224	23165.94
530.425	22873.08
530.626	22760.44
530.828	22711.29
531.029	23428.08
531.23	23098.36
531.431	23047.16
531.632	22961.14
531.833	23294.96
532.035	23348.21
532.236	23002.1
532.437	23362.54
532.638	23208.95
532.839	23172.08
533.04	23514.09
533.241	23176.18
533.442	23550.96
533.643	23186.42
533.844	23049.21
534.045	23301.11
534.246	22985.72
534.447	23362.54
534.648	23129.08
534.849	23196.66
535.05	22995.96
535.251	23251.95
535.451	23223.28
535.652	23284.72
535.853	23102.45
536.054	23313.39
536.255	23755.75
536.456	22793.21
536.657	23163.89
536.857	22934.52
537.058	23157.75
537.259	23380.98
537.46	23141.36
537.66	23497.71
537.861	23004.15
538.062	23200.76
538.263	23092.21
538.463	23139.32
538.664	23313.39
538.865	23364.59
539.065	23512.05
539.266	22871.03
539.466	23266.29
539.667	23073.78
539.868	23489.52
540.068	23116.79
540.269	23372.78
540.469	22991.86
540.67	22963.19
540.87	23088.12
541.071	23049.21
541.271	23084.02
541.472	23258.1
541.672	23200.76
541.873	22905.85
542.073	22641.66
542.274	23258.1
542.474	22742.01
542.675	22897.66
542.875	23254
543.075	23051.25
543.276	22678.52
543.476	23276.53
543.676	22723.58
543.877	22981.62
544.077	22854.65
544.277	22924.28
544.478	22803.45
544.678	23118.84
544.878	23014.39
545.078	22860.79
545.279	22688.76
545.479	22678.52
545.679	22877.18
545.879	22586.36
546.079	22789.11
546.28	22676.48
546.48	22553.6
546.68	23081.97
546.88	22903.8
547.08	22660.09
547.28	22807.55
547.48	22524.93
547.68	22989.81
547.88	22883.32
548.081	22641.66
548.281	22434.81
548.481	22768.63
548.681	22797.31
548.881	22658.04
549.081	22453.25
549.28	22533.12
549.48	22873.08
549.68	22408.19
549.88	22750.2
550.08	22553.6
550.28	22543.36
550.48	22551.55
550.68	22760.44
550.88	22531.07
551.08	22494.21
551.279	22621.18
551.479	22244.35
551.679	22453.25
551.879	22451.2
552.079	22463.49
552.278	22508.54
552.478	22709.24
552.678	22596.6
552.878	22756.35
553.077	22608.89
553.277	22225.92
553.477	22438.91
553.676	22359.04
553.876	22234.11
554.076	22662.14
554.275	22285.31
554.475	22146.05
554.674	22289.41
554.874	22311.94
555.074	22215.68
555.273	22176.77
555.473	22428.67
555.672	22021.13
555.872	22305.79
556.071	22291.46
556.271	22211.59
556.47	22082.56
556.67	22031.37
556.869	22004.74
557.068	21920.77
557.268	21949.45
557.467	22055.94
557.667	22291.46
557.866	21879.82
558.065	21916.68
558.265	21922.82
558.464	21705.74
558.663	22275.07
558.863	22000.65
559.062	22133.76
559.261	21697.55
559.461	22301.7
559.66	21834.76
559.859	21988.36
560.058	21736.46
560.258	21914.63
560.457	21584.91
560.656	21695.5
560.855	21335.06
561.054	21531.66
561.253	21629.96
561.453	21607.44
561.652	21625.87
561.851	21812.23
562.05	21601.29
562.249	21519.37
562.448	21732.36
562.647	21806.09
562.846	21437.45
563.045	21447.69
563.244	21292.05
563.443	21621.77
563.642	20978.71
563.841	21050.39
564.04	21269.52
564.239	21386.26
564.438	21150.74
564.637	21216.27
564.836	21195.79
565.035	20931.61
565.234	20880.41
565.432	21029.91
565.631	20872.21
565.83	21310.48
566.029	20952.09
566.228	20943.89
566.427	21046.29
566.625	20765.72
566.824	20765.72
567.023	20966.42
567.222	20345.89
567.42	20831.26
567.619	20763.67
567.818	20618.27
568.016	20538.4
568.215	20468.76
568.414	20644.89
568.612	20909.08
568.811	20505.63
569.01	20530.2
569.208	20390.94
569.407	20374.56
569.605	20220.96
569.804	20153.38
570.002	20200.48
570.201	20315.17
570.4	20220.96
570.598	20149.28
570.797	19846.18
570.995	20141.09
571.193	20050.98
571.392	20259.87
571.59	19833.89
571.789	19809.32
571.987	19837.99
572.186	20040.74
572.384	19860.52
572.582	20091.94
572.781	19952.68
572.979	19971.11
573.177	19852.33
573.376	20012.07
573.574	19680.3
573.772	20083.75
573.971	19457.07
574.169	19465.26
574.367	19469.36
574.565	19776.55
574.763	19440.68
574.962	19452.97
575.16	19270.7
575.358	19522.6
575.556	19188.78
575.754	19334.19
575.952	19225.65
576.151	19369.01
576.349	18916.4
576.547	18928.69
576.745	19110.96
576.943	19147.83
577.141	19067.95
577.339	19301.42
577.537	18918.45
577.735	18955.32
577.933	18684.98
578.131	19010.61
578.329	18992.18
578.527	18551.87
578.725	18394.17
578.923	18691.13
579.121	18674.74
579.319	18367.55
579.516	18551.87
579.714	18478.14
579.912	18115.65
580.11	18199.62
580.308	18324.54
580.506	18310.21
580.704	17781.83
580.901	18412.6
581.099	18287.68
581.297	18383.93
581.495	18035.78
581.692	18037.83
581.89	17939.52
582.088	18070.59
582.285	17841.22
582.483	18068.55
582.681	17923.14
582.878	17763.4
583.076	17749.06
583.274	17937.48
583.471	17704.01
583.669	17673.29
583.866	17654.86
584.064	17880.13
584.262	17013.84
584.459	17695.82
584.657	17187.92
584.854	17513.55
585.052	17583.18
585.249	17312.85
585.447	17237.07
585.644	17058.9
585.841	17218.64
586.039	17386.57
586.236	17247.31
586.434	16964.69
586.631	16804.95
586.828	16985.17
587.026	17095.76
587.223	16907.35
587.42	16604.25
587.618	16860.24
587.815	16770.13
588.012	16548.95
588.21	16692.31
588.407	16694.36
588.604	16657.5
588.801	16501.85
588.999	16497.75
589.196	16446.55
589.393	16540.76
589.59	16264.29
589.787	16237.66
589.984	16104.54
590.182	15959.14
590.379	16331.87
590.576	16034.91
590.773	15987.81
590.97	16135.26
591.167	16098.4
591.364	15996
591.561	15993.95
591.758	15862.88
591.955	15940.71
592.152	15952.99
592.349	15658.09
592.546	15969.38
592.743	15668.33
592.94	15426.67
593.137	15719.53
593.334	15985.76
593.531	15414.38
593.727	15703.14
593.924	15391.85
594.121	15119.47
594.318	15281.26
594.515	15043.7
594.712	15666.28
594.908	15137.9
595.105	15197.29
595.302	14994.54
595.499	15170.67
595.696	15162.48
595.892	14967.92
596.089	15123.57
596.286	14969.97
596.482	14988.4
596.679	14906.48
596.876	14912.63
597.072	14707.83
597.269	14687.35
597.466	14646.39
597.662	14505.08
597.859	14507.13
598.055	14513.27
598.252	14509.18
598.448	14371.96
598.645	14519.42
598.841	14539.9
599.038	14537.85
599.234	14345.34
599.431	14376.06
599.627	14251.13
599.824	14306.43
600.02	13882.5
600.217	14199.93
600.413	13982.85
600.609	13970.56
600.806	13988.99
601.002	14103.68
601.198	13837.44
601.395	13896.83
601.591	14050.43
601.787	13792.39
601.984	13575.3
602.18	13808.77
602.376	13773.96
602.572	13597.83
602.769	13810.82
602.965	13395.08
603.161	13448.33
603.357	13542.53
603.553	13433.99
603.75	13374.6
603.946	13431.94
604.142	13216.91
604.338	12950.67
604.534	13419.66
604.73	13130.89
604.926	13001.87
605.122	13196.43
605.318	13169.8
605.514	13155.47
605.71	13065.36
605.906	12989.58
606.102	13008.01
606.298	12856.47
606.494	12854.42
606.69	12817.55
606.886	12909.71
607.082	12647.57
607.278	12778.64
607.474	12584.09
607.67	12709.01
607.866	12559.51
608.062	12878.99
608.257	12647.57
608.453	12629.14
608.649	12549.27
608.845	12459.16
609.041	12506.26
609.236	12463.26
609.432	12520.6
609.628	12608.66
609.824	12344.47
610.019	12049.57
610.215	12373.14
610.411	12502.17
610.606	12231.83
610.802	12258.46
610.998	12432.54
611.193	12313.75
611.389	12149.92
611.584	12256.41
611.78	12209.31
611.976	12184.73
612.171	12088.48
612.367	12221.59
612.562	12113.05
612.758	12018.85
612.953	12070.05
613.149	12024.99
613.344	11971.74
613.539	12278.94
613.735	11906.21
613.93	11918.5
614.126	11902.11
614.321	11916.45
614.517	11758.75
614.712	11795.62
614.907	11582.63
615.103	11742.37
615.298	11717.79
615.493	11674.79
615.688	11584.68
615.884	11908.26
616.079	11682.98
616.274	11850.91
616.47	11459.75
616.665	11771.04
616.86	11498.66
617.055	11420.84
617.25	11451.56
617.445	11527.33
617.641	11390.12
617.836	11623.59
618.031	11289.77
618.226	11455.65
618.421	11259.05
618.616	11637.92
618.811	11236.52
619.006	11193.51
619.201	11281.58
619.396	11226.28
619.591	10857.65
619.786	11003.05
619.981	10853.55
620.176	11066.54
620.371	10960.05
620.566	10990.77
620.761	10734.77
620.956	10863.79
621.151	10722.48
621.346	10745.01
621.541	10511.54
621.735	10755.25
621.93	10646.71
622.125	10601.65
622.32	10286.26
622.515	10413.24
622.709	10183.87
622.904	10292.41
623.099	10048.7
623.294	10257.59
623.488	10020.03
623.683	10147
623.878	9940.16
624.072	10210.49
624.267	10017.98
624.462	9815.23
624.656	9911.49
624.851	9714.88
625.046	9923.77
625.24	9743.55
625.435	9645.25
625.629	9753.79
625.824	9549
626.018	9534.66
626.213	9569.48
626.407	9419.97
626.602	9233.61
626.796	9348.29
626.991	9229.51
627.185	9311.43
627.38	9147.59
627.574	8994
627.768	9057.48
627.963	8961.23
628.157	8864.97
628.352	9114.83
628.546	8826.06
628.74	8981.71
628.935	8707.28
629.129	8844.49
629.323	8621.27
629.517	8592.59
629.712	8633.55
629.906	8496.34
630.1	8516.82
630.294	8537.3
630.489	8463.57
630.683	8334.55
630.877	8316.12
631.071	8373.46
631.265	8217.82
631.459	8158.42
631.653	8203.48
631.848	8111.32
632.042	8105.18
632.236	7937.24
632.43	7914.72
632.624	8146.14
632.818	7902.43
633.012	7750.88
633.206	7728.35
633.4	7673.06
633.594	7720.16
633.788	7593.19
633.982	7814.37
634.176	7648.48
634.369	7591.14
634.563	7648.48
634.757	7374.05
634.951	7537.89
635.145	7425.25
635.339	7611.62
635.533	7347.43
635.726	7285.99
635.92	7212.26
636.114	7255.27
636.308	7234.79
636.501	7122.15
636.695	7163.11
636.889	7068.91
637.083	6989.03
637.276	7111.91
637.47	7009.51
637.664	6999.27
637.857	6907.12
638.051	6853.87
638.244	6831.34
638.438	6835.44
638.632	6782.19
638.825	6528.24
639.019	6714.61
639.212	6753.52
639.406	6501.62
639.599	6542.58
639.793	6704.37
639.986	6550.77
640.18	6460.66
640.373	6425.84
640.567	6366.45
640.76	6321.4
640.954	6470.9
641.147	6374.64
641.34	6135.03
641.534	6350.07
641.727	6255.86
641.92	6302.97
642.114	6223.09
642.307	6034.68
642.5	6145.27
642.694	5983.48
642.887	6024.44
643.08	6112.5
643.273	5983.48
643.467	6055.16
643.66	5909.76
643.853	5698.81
644.046	5768.45
644.239	5739.77
644.432	5608.7
644.626	5737.73
644.819	5653.76
645.012	5674.24
645.205	5707.01
645.398	5664
645.591	5723.39
645.784	5612.8
645.977	5467.39
646.17	5557.5
646.363	5440.77
646.556	5465.35
646.749	5461.25
646.942	5580.03
647.135	5281.03
647.328	5428.48
647.521	5418.24
647.714	5225.73
647.907	5295.36
648.099	5027.08
648.292	5377.28
648.485	5154.05
648.678	5098.76
648.871	5045.51
649.064	5020.94
649.256	5061.9
649.449	5268.74
649.642	5053.7
649.835	5109
650.027	4971.79
650.22	5008.65
650.413	4865.29
650.605	4971.79
650.798	4803.85
650.991	4939.02
651.183	4816.14
651.376	4654.35
651.568	4726.03
651.761	4732.17
651.954	4812.04
652.146	4709.65
652.339	4715.79
652.531	4676.88
652.724	4576.53
652.916	4621.58
653.109	4412.69
653.301	4533.52
653.494	4476.18
653.686	4439.31
653.879	4457.75
654.071	4478.23
654.263	4392.21
654.456	4433.17
654.648	4576.53
654.84	4345.11
655.033	4400.4
655.225	4386.07
655.417	4363.54
655.61	4312.34
655.802	4275.48
655.994	4150.55
656.186	4166.93
656.379	4160.79
656.571	4044.06
656.763	4050.2
656.955	4082.97
657.148	4164.89
657.34	3974.42
657.532	3960.09
657.724	3953.95
657.916	4113.69
658.108	3960.09
658.3	4171.03
658.492	3984.66
658.684	3861.79
658.876	3970.33
659.068	3908.89
659.26	3861.79
659.452	3892.51
659.644	3908.89
659.836	3767.58
660.028	3818.78
660.22	3669.28
660.412	3796.25
660.604	3693.85
660.796	3786.01
660.988	3765.53
661.18	3560.74
661.372	3691.81
661.563	3714.33
661.755	3656.99
661.947	3624.22
662.139	3630.37
662.331	3540.26
662.522	3544.35
662.714	3493.15
662.906	3540.26
663.097	3546.4
663.289	3560.74
663.481	3489.06
663.673	3525.92
663.864	3452.19
664.056	3413.28
664.247	3405.09
664.439	3394.85
664.631	3310.88
664.822	3370.27
665.014	3351.84
665.205	3464.48
665.397	3194.15
665.588	3337.51
665.78	3134.76
665.971	3349.79
666.163	3292.45
666.354	3134.76
666.546	3175.72
666.737	3136.81
666.929	3185.96
667.12	3083.56
667.311	3134.76
667.503	3110.18
667.694	3190.05
667.885	3091.75
668.077	3038.5
668.268	3058.98
668.459	3089.7
668.651	2975.02
668.842	2940.2
669.033	2934.06
669.224	2954.54
669.416	2905.39
669.607	2995.5
669.798	2944.3
669.989	2993.45
670.18	2886.95
670.371	2929.96
670.563	2954.54
670.754	2940.2
670.945	2905.39
671.136	2921.77
671.327	2897.19
671.518	2876.71
671.709	2743.6
671.9	2850.09
672.091	2882.86
672.282	2827.56
672.473	2843.95
672.664	2876.71
672.855	2770.22
673.046	2858.28
673.237	2688.3
673.428	2817.32
673.619	2678.06
673.809	2735.4
674	2721.07
674.191	2829.61
674.382	2684.2
674.573	2753.84
674.764	2706.73
674.954	2805.03
675.145	2626.86
675.336	2630.96
675.527	2606.38
675.717	2610.48
675.908	2567.47
676.099	2698.54
676.289	2594.09
676.48	2645.29
676.671	2567.47
676.861	2587.95
677.052	2420.02
677.243	2499.89
677.433	2508.08
677.624	2643.24
677.814	2479.41
678.005	2587.95
678.195	2544.94
678.386	2399.54
678.576	2540.85
678.767	2450.74
678.957	2473.26
679.148	2493.74
679.338	2463.02
679.529	2426.16
679.719	2491.7
679.909	2579.76
680.1	2522.41
680.29	2538.8
680.481	2450.74
680.671	2540.85
680.861	2422.06
681.052	2436.4
681.242	2327.86
681.432	2399.54
681.622	2385.2
681.813	2477.36
682.003	2282.8
682.193	2467.12
682.383	2501.94
682.573	2481.46
682.764	2356.53
682.954	2426.16
683.144	2405.68
683.334	2360.63
683.524	2348.34
683.714	2440.5
683.904	2227.51
684.094	2549.04
684.284	2272.56
684.474	2331.95
684.664	2350.39
684.854	2368.82
685.044	2331.95
685.234	2356.53
685.424	2299.19
685.614	2139.44
685.804	2235.7
685.994	2266.42
686.184	2227.51
686.374	2233.65
686.564	2288.95
686.753	2192.69
686.943	2184.5
687.133	2196.79
687.323	2303.28
687.513	2166.07
687.702	2229.56
687.892	2043.19
688.082	2211.12
688.272	2229.56
688.461	2155.83
688.651	2164.02
688.841	2049.33
689.03	2135.35
689.22	2092.34
689.41	2184.5
689.599	2053.43
689.789	2155.83
689.979	2178.36
690.168	2114.87
690.358	2118.97
690.547	2010.42
690.737	2067.77
690.926	2086.2
691.116	2104.63
691.305	1989.94
691.495	2018.61
691.684	1912.12
691.874	1922.36
692.063	1930.55
692.252	2037.05
692.442	1899.83
692.631	1926.46
692.82	1891.64
693.01	1936.7
693.199	1879.35
693.388	1850.68
693.578	1944.89
693.767	1905.98
693.956	1867.06
694.146	1897.78
694.335	1940.79
694.524	1922.36
694.713	1897.78
694.902	1856.83
695.092	1791.29
695.281	1774.91
695.47	1871.16
695.659	1844.54
695.848	1787.19
696.037	1803.58
696.226	1781.05
696.415	1834.3
696.604	1834.3
696.793	1850.68
696.982	1897.78
697.171	1733.95
697.36	1817.91
697.549	1703.23
697.738	1756.47
697.927	1803.58
698.116	1822.01
698.305	1715.52
698.494	1801.53
698.683	1791.29
698.872	1690.94
699.061	1877.3
699.25	1740.09
699.438	1832.25
699.627	1817.91
699.816	1877.3
700.005	1742.14
700.193	1713.47
700.382	1727.8
700.571	1791.29
700.76	1797.43
700.948	1801.53
701.137	1815.87
701.326	1932.6
701.514	1715.52
701.703	1848.63
701.892	1865.02
702.08	1875.26
702.269	1766.71
702.457	1750.33
702.646	1713.47
702.834	1674.56
703.023	1791.29
703.212	1762.62
703.4	1793.34
703.589	1705.28
703.777	1817.91
703.965	1793.34
704.154	1789.24
704.342	1799.48
704.531	1686.84
704.719	1742.14
704.907	1723.71
705.096	1738.04
705.284	1752.38
705.472	1760.57
705.661	1824.06
705.849	1860.92
706.037	1740.09
706.226	1797.43
706.414	1768.76
706.602	1797.43
706.79	1887.54
706.979	1713.47
707.167	1854.78
707.355	1787.19
707.543	1713.47
707.731	1801.53
707.919	1766.71
708.107	1793.34
708.296	1754.43
708.484	1742.14
708.672	1830.2
708.86	1865.02
709.048	1729.85
709.236	1727.8
709.424	1774.91
709.612	1740.09
709.8	1727.8
709.988	1840.44
710.176	1901.88
710.364	1838.39
710.551	1840.44
710.739	1748.28
710.927	1879.35
711.115	1740.09
711.303	1797.43
711.491	1807.67
711.679	1723.71
711.866	1885.5
712.054	1787.19
712.242	1895.74
712.43	1865.02
712.617	1723.71
712.805	1748.28
712.993	1854.78
713.181	1740.09
713.368	1840.44
713.556	1893.69
713.744	1797.43
713.931	1867.06
714.119	1815.87
714.306	1881.4
714.494	1801.53
714.682	1852.73
714.869	1807.67
715.057	1875.26
715.244	1846.59
715.432	1813.82
715.619	1801.53
715.807	1834.3
715.994	1750.33
716.182	1760.57
716.369	1860.92
716.556	1758.52
716.744	1809.72
716.931	1854.78
717.119	1891.64
717.306	1828.15
717.493	1828.15
717.681	1776.95
717.868	1873.21
718.055	1807.67
718.242	1797.43
718.43	1895.74
718.617	1842.49
718.804	1838.39
718.991	1807.67
719.179	1879.35
719.366	1795.39
719.553	1758.52
719.74	1731.9
719.927	1793.34
720.114	1819.96
720.301	1848.63
720.488	1721.66
720.676	1809.72
720.863	1817.91
721.05	1754.43
721.237	1905.98
721.424	1819.96
721.611	1934.65
721.798	1750.33
721.985	1756.47
722.172	1779
722.358	1725.76
722.545	1768.76
722.732	1781.05
722.919	1928.5
723.106	1887.54
723.293	1883.45
723.48	1779
723.667	1873.21
723.853	1832.25
724.04	1838.39
724.227	1779
724.414	1643.84
724.6	1803.58
724.787	1779
724.974	1758.52
725.161	1910.07
725.347	1735.99
725.534	1774.91
725.72	1832.25
725.907	1709.37
726.094	1797.43
726.28	1807.67
726.467	1832.25
726.653	1735.99
726.84	1869.11
727.027	1916.22
727.213	1672.51
727.4	1828.15
727.586	1756.47
727.773	1850.68
727.959	1735.99
728.145	1830.2
728.332	1869.11
728.518	1854.78
728.705	1711.42
728.891	1725.76
729.077	1795.39
729.264	1768.76
729.45	1760.57
729.636	1838.39
729.823	1807.67
730.009	1670.46
730.195	1701.18
730.382	1836.35
730.568	1686.84
730.754	1779
730.94	1746.23
731.126	1826.11
731.313	1727.8
731.499	1654.08
731.685	1815.87
731.871	1647.93
732.057	1746.23
732.243	1703.23
732.429	1813.82
732.615	1629.5
732.801	1766.71
732.987	1813.82
733.173	1848.63
733.359	1744.19
733.545	1746.23
733.731	1891.64
733.917	1860.92
734.103	1803.58
734.289	1754.43
734.475	1719.61
734.661	1772.86
734.847	1705.28
735.033	1758.52
735.219	1770.81
735.404	1649.98
735.59	1824.06
735.776	1779
735.962	1805.63
736.148	1676.6
736.333	1617.21
736.519	1723.71
736.705	1723.71
736.89	1684.8
737.076	1772.86
737.262	1662.27
737.447	1606.97
737.633	1735.99
737.819	1754.43
738.004	1684.8
738.19	1627.45
738.375	1740.09
738.561	1701.18
738.747	1666.36
738.932	1600.83
739.118	1748.28
739.303	1600.83
739.489	1621.31
739.674	1656.12
739.859	1625.4
740.045	1652.03
740.23	1664.32
740.416	1578.3
740.601	1529.15
740.786	1604.92
740.972	1590.59
741.157	1555.77
741.342	1633.6
741.528	1576.25
741.713	1566.01
741.898	1594.69
742.084	1568.06
742.269	1637.69
742.454	1572.16
742.639	1637.69
742.824	1504.57
743.01	1475.9
743.195	1541.44
743.38	1531.2
743.565	1512.77
743.75	1539.39
743.935	1578.3
744.12	1512.77
744.305	1477.95
744.49	1430.85
744.675	1486.14
744.86	1502.53
745.045	1570.11
745.23	1453.38
745.415	1447.23
745.6	1365.31
745.785	1504.57
745.97	1432.9
746.155	1434.94
746.34	1396.03
746.525	1328.45
746.71	1436.99
746.895	1348.93
747.079	1393.98
747.264	1436.99
747.449	1375.55
747.634	1434.94
747.819	1393.98
748.003	1338.69
748.188	1307.97
748.373	1361.22
748.557	1273.15
748.742	1426.75
748.927	1240.39
749.111	1322.31
749.296	1303.87
749.481	1297.73
749.665	1219.91
749.85	1320.26
750.034	1314.11
750.219	1137.99
750.404	1262.91
750.588	1242.43
750.773	1148.23
750.957	1275.2
751.141	1121.6
751.326	1101.12
751.51	1203.52
751.695	1105.22
751.879	1144.13
752.064	1160.52
752.248	1209.67
752.432	1238.34
752.617	1207.62
752.801	1133.89
752.985	1074.5
753.17	1117.51
753.354	1043.78
753.538	1166.66
753.722	1127.75
753.907	1088.84
754.091	1088.84
754.275	1082.69
754.459	1051.97
754.643	1033.54
754.828	1094.98
755.012	1015.11
755.196	1021.25
755.38	1058.12
755.564	988.49
755.748	947.53
755.932	1015.11
756.116	1019.21
756.3	935.24
756.484	943.43
756.668	974.15
756.852	994.63
757.036	998.73
757.22	957.77
757.404	888.14
757.588	916.81
757.772	881.99
757.956	961.86
758.14	963.91
758.323	793.93
758.507	851.27
758.691	918.86
758.875	974.15
759.059	875.85
759.242	896.33
759.426	953.67
759.61	853.32
759.794	908.62
759.977	886.09
760.161	914.76
760.345	830.79
760.528	857.42
760.712	810.31
760.895	845.13
761.079	836.94
761.263	746.83
761.446	732.49
761.63	853.32
761.813	830.79
761.997	814.41
762.18	832.84
762.364	798.03
762.547	761.16
762.731	742.73
762.914	750.92
763.098	773.45
763.281	789.83
763.464	742.73
763.648	709.96
763.831	785.74
764.015	767.31
764.198	732.49
764.381	763.21
764.564	724.3
764.748	765.26
764.931	697.67
765.114	714.06
765.297	787.79
765.481	664.91
765.664	738.63
765.847	664.91
766.03	742.73
766.213	804.17
766.397	675.15
766.58	630.09
766.763	793.93
766.946	712.01
767.129	742.73
767.312	742.73
767.495	718.15
767.678	687.43
767.861	755.02
768.044	654.67
768.227	701.77
768.41	595.28
768.593	709.96
768.776	654.67
768.959	671.05
769.142	687.43
769.324	632.14
769.507	630.09
769.69	601.42
769.873	628.04
770.056	697.67
770.239	685.39
770.421	662.86
770.604	662.86
770.787	572.75
770.97	675.15
771.152	582.99
771.335	636.24
771.518	650.57
771.7	605.52
771.883	648.52
772.066	570.7
772.248	566.6
772.431	601.42
772.613	638.28
772.796	548.17
772.978	605.52
773.161	585.04
773.343	566.6
773.526	521.55
773.708	585.04
773.891	580.94
774.073	542.03
774.256	607.56
774.438	529.74
774.621	570.7
774.803	552.27
774.985	533.84
775.168	560.46
775.35	474.45
775.532	562.51
775.715	503.12
775.897	503.12
776.079	513.36
776.261	566.6
776.444	585.04
776.626	587.08
776.808	492.88
776.99	511.31
777.173	437.58
777.355	462.16
777.537	523.6
777.719	429.39
777.901	531.79
778.083	429.39
778.265	470.35
778.447	410.96
778.629	415.06
778.811	507.21
778.993	453.97
779.175	509.26
779.357	484.69
779.539	453.97
779.721	353.62
779.903	460.11
780.085	484.69
780.267	404.82
780.449	501.07
780.631	478.54
780.812	456.01
780.994	408.91
781.176	355.66
781.358	339.28
781.54	382.29
781.721	415.06
781.903	415.06
782.085	388.43
782.267	378.19
782.448	318.8
782.63	408.91
782.812	390.48
782.993	410.96
783.175	404.82
783.357	374.1
783.538	435.53
783.72	316.75
783.901	314.7
784.083	329.04
784.264	464.21
784.446	326.99
784.627	298.32
784.809	357.71
784.99	339.28
785.172	372.05
785.353	361.81
785.535	453.97
785.716	273.75
785.897	302.42
786.079	279.89
786.26	308.56
786.441	320.85
786.623	281.94
786.804	286.03
786.985	353.62
787.167	302.42
787.348	324.94
787.529	189.78
787.71	370
787.891	267.6
788.073	259.41
788.254	255.31
788.435	232.79
788.616	281.94
788.797	271.7
788.978	247.12
789.159	243.03
789.34	361.81
789.522	322.9
789.703	152.92
789.884	263.51
790.065	312.66
790.246	290.13
790.427	265.55
790.607	232.79
790.788	277.84
790.969	171.35
791.15	261.46
791.331	173.39
791.512	243.03
791.693	220.5
791.874	298.32
792.054	347.47
792.235	269.65
792.416	202.07
792.597	224.59
792.778	234.83
792.958	220.5
793.139	232.79
793.32	324.94
793.5	187.73
793.681	314.7
793.862	232.79
794.042	193.87
794.223	212.31
794.404	167.25
794.584	157.01
794.765	167.25
794.945	206.16
795.126	271.7
795.306	294.22
795.487	240.98
795.667	161.11
795.848	236.88
796.028	214.35
796.209	167.25
796.389	273.75
796.57	120.15
796.75	193.87
796.93	152.92
797.111	148.82
797.291	173.39
797.471	189.78
797.652	177.49
797.832	226.64
798.012	175.44
798.192	183.63
798.373	187.73
798.553	206.16
798.733	134.48
798.913	132.44
799.093	161.11
799.274	167.25
799.454	136.53
799.634	144.72
799.814	167.25
799.994	202.07
800.174	152.92
800.354	189.78
800.534	212.31
800.714	122.2
800.894	146.77
801.074	157.01
801.254	175.44
801.434	118.1
801.614	146.77
801.794	114
801.974	499.02
802.154	105.81
802.334	214.35
802.514	159.06
802.693	169.3
802.873	150.87
803.053	230.74
803.233	163.15
803.413	87.38
803.592	189.78
803.772	114
803.952	165.2
804.131	103.76
804.311	243.03
804.491	111.96
804.67	109.91
804.85	126.29
805.03	161.11
805.209	111.96
805.389	152.92
805.568	89.43
805.748	218.45
805.928	105.81
806.107	62.8
806.287	75.09
806.466	126.29
806.646	75.09
806.825	163.15
807.004	183.63
807.184	179.54
807.363	114
807.543	114
807.722	167.25
807.901	103.76
808.081	126.29
808.26	109.91
808.439	87.38
808.619	111.96
808.798	163.15
808.977	99.67
809.156	140.63
809.336	146.77
809.515	138.58
809.694	148.82
809.873	126.29
810.052	124.24
810.231	157.01
810.411	103.76
810.59	177.49
810.769	75.09
810.948	120.15
811.127	15.7
811.306	46.42
811.485	107.86
811.664	150.87
811.843	73.04
812.022	120.15
812.201	148.82
812.38	111.96
812.559	124.24
812.737	138.58
812.916	132.44
813.095	134.48
813.274	111.96
813.453	142.68
813.632	81.24
813.811	142.68
813.989	64.85
814.168	42.32
814.347	109.91
814.526	114
814.704	111.96
814.883	134.48
815.062	140.63
815.24	66.9
815.419	103.76
815.598	118.1
815.776	103.76
815.955	95.57
816.133	56.66
816.312	32.08
816.49	152.92
816.669	140.63
816.847	85.33
817.026	165.2
817.204	97.62
817.383	89.43
817.561	134.48
817.74	83.28
817.918	148.82
818.097	91.48
818.275	120.15
818.453	56.66
818.632	91.48
818.81	111.96
818.988	48.47
819.167	52.56
819.345	101.72
819.523	40.28
819.701	116.05
819.879	77.14
820.058	81.24
820.236	126.29
820.414	-2.73
820.592	130.39
820.77	23.89
820.948	34.13
821.127	64.85
821.305	138.58
821.483	30.04
821.661	212.31
821.839	30.04
822.017	30.04
822.195	91.48
822.373	93.52
822.551	75.09
822.729	73.04
822.907	32.08
823.085	107.86
823.262	142.68
823.44	87.38
823.618	101.72
823.796	25.94
823.974	46.42
824.152	62.8
824.329	99.67
824.507	60.76
824.685	103.76
824.863	81.24
825.04	60.76
825.218	97.62
825.396	27.99
825.574	64.85
825.751	38.23
825.929	40.28
826.107	66.9
826.284	19.8
826.462	36.18
826.639	103.76
826.817	120.15
826.994	42.32
827.172	114
827.349	79.19
827.527	103.76
827.704	-2.73
827.882	44.37
828.059	9.56
828.237	-45.74
828.414	79.19
828.591	87.38
828.769	75.09
828.946	1.37
829.124	48.47
829.301	48.47
829.478	58.71
829.655	-8.87
829.833	89.43
830.01	66.9
830.187	73.04
830.364	83.28
830.542	91.48
830.719	64.85
830.896	144.72
831.073	75.09
831.25	71
831.427	64.85
831.604	101.72
831.782	11.61
831.959	101.72
832.136	75.09
832.313	122.2
832.49	75.09
832.667	73.04
832.844	-0.68
833.021	66.9
833.198	19.8
833.374	-0.68
833.551	50.52
833.728	-37.55
833.905	81.24
834.082	58.71
834.259	77.14
834.436	56.66
834.612	15.7
834.789	79.19
834.966	19.8
835.143	71
835.319	40.28
835.496	71
835.673	19.8
835.85	7.51
836.026	27.99
836.203	40.28
836.38	-2.73
836.556	9.56
836.733	68.95
836.909	13.65
837.086	-2.73
837.262	-8.87
837.439	30.04
837.616	13.65
837.792	62.8
837.968	-0.68
838.145	-27.31
838.321	30.04
838.498	52.56
838.674	81.24
838.851	7.51
839.027	50.52
839.203	50.52
839.38	118.1
839.556	-0.68
839.732	19.8
839.909	36.18
840.085	66.9
840.261	-0.68
840.437	1.37
840.614	30.04
840.79	87.38
840.966	54.61
841.142	15.7
841.318	21.85
841.494	30.04
841.671	79.19
841.847	-19.11
842.023	-2.73
842.199	7.51
842.375	124.24
842.551	36.18
842.727	54.61
842.903	5.46
843.079	46.42
843.255	21.85
843.431	64.85
843.607	44.37
843.783	-41.64
843.959	93.52
844.134	-31.4
844.31	64.85
844.486	-37.55
844.662	114
844.838	17.75
845.013	91.48
845.189	38.23
845.365	60.76
845.541	13.65
845.716	15.7
845.892	116.05
846.068	85.33
846.244	40.28
846.419	50.52
846.595	36.18
846.77	-12.97
846.946	58.71
847.122	83.28
847.297	-64.17
847.473	17.75
847.648	-6.83
847.824	11.61
847.999	-10.92
848.175	23.89
848.35	-15.02
848.526	17.75
848.701	13.65
848.876	99.67
849.052	13.65
849.227	30.04
849.403	-21.16
849.578	-12.97
849.753	73.04
849.929	40.28
850.104	-25.26
850.279	44.37
850.454	-37.55
850.63	7.51
850.805	23.89
850.98	58.71
851.155	32.08
851.33	-15.02
851.505	23.89
851.681	68.95
851.856	5.46
852.031	27.99
852.206	34.13
852.381	19.8
852.556	7.51
852.731	62.8
852.906	73.04
853.081	25.94
853.256	11.61
853.431	1.37
853.606	23.89
853.781	40.28
853.956	-0.68
854.131	62.8
854.305	1.37
854.48	-39.59
854.655	38.23
854.83	-29.35
855.005	-23.21
855.18	-15.02
855.354	9.56
855.529	66.9
855.704	-25.26
855.879	11.61
856.053	-10.92
856.228	23.89
856.403	17.75
856.577	73.04
856.752	42.32
856.926	34.13
857.101	40.28
857.276	5.46
857.45	3.41
857.625	11.61
857.799	27.99
857.974	30.04
858.148	25.94
858.323	54.61
858.497	5.46
858.672	7.51
858.846	1.37
859.02	87.38
859.195	-15.02
859.369	7.51
859.543	-15.02
859.718	27.99
859.892	103.76
860.066	56.66
860.241	79.19
860.415	79.19
860.589	1.37
860.763	27.99
860.938	-17.07
861.112	19.8
861.286	-74.41
861.46	73.04
861.634	-19.11
861.808	68.95
861.982	-17.07
862.157	-23.21
862.331	3.41
862.505	79.19
862.679	-37.55
862.853	-45.74
863.027	-6.83
863.201	68.95
863.375	36.18
863.549	44.37
863.722	-29.35
863.896	30.04
864.07	38.23
864.244	-21.16
864.418	56.66
864.592	-25.26
864.766	30.04
864.939	-12.97
865.113	-41.64
865.287	40.28
865.461	-37.55
865.634	-39.59
865.808	19.8
865.982	62.8
866.156	32.08
866.329	7.51
866.503	27.99
866.676	42.32
866.85	-21.16
867.024	23.89
867.197	3.41
867.371	64.85
867.544	15.7
867.718	34.13
867.891	54.61
868.065	50.52
868.238	19.8
868.412	19.8
868.585	54.61
868.759	68.95
868.932	85.33
869.105	-23.21
869.279	-27.31
869.452	-0.68
869.625	13.65
869.799	23.89
869.972	-53.93
870.145	-4.78
870.319	27.99
870.492	-43.69
870.665	-29.35
870.838	-8.87
871.011	5.46
871.185	1.37
871.358	-51.88
871.531	68.95
871.704	15.7
871.877	9.56
872.05	-17.07
872.223	-10.92
872.396	13.65
872.569	-49.83
872.742	7.51
872.915	44.37
873.088	-51.88
873.261	-17.07
873.434	-2.73
873.607	-33.45
873.78	34.13
873.953	-41.64
874.126	7.51
874.299	81.24
874.471	-29.35
874.644	-35.5
874.817	-74.41
874.99	36.18
875.163	17.75
875.335	44.37
875.508	-47.79
875.681	30.04
875.853	-2.73
876.026	27.99
876.199	-37.55
876.371	7.51
876.544	-0.68
876.717	-45.74
876.889	30.04
877.062	30.04
877.234	40.28
877.407	-6.83
877.579	30.04
877.752	-41.64
877.924	83.28
878.097	38.23
878.269	54.61
878.442	-31.4
878.614	7.51
878.786	-19.11
878.959	9.56
879.131	25.94
879.303	44.37
879.476	52.56
879.648	9.56
879.82	34.13
879.993	-12.97
880.165	60.76
880.337	-37.55
880.509	-53.93
880.681	21.85
880.854	91.48
881.026	17.75
881.198	30.04
881.37	-6.83
881.542	-21.16
881.714	-31.4
881.886	-29.35
882.058	11.61
882.23	9.56
882.402	52.56
882.574	62.8
882.746	1.37
882.918	-12.97
883.09	-37.55
883.262	1.37
883.434	32.08
883.606	-17.07
883.778	75.09
883.95	-19.11
884.122	50.52
884.293	9.56
884.465	23.89
884.637	-15.02
884.809	-2.73
884.98	44.37
885.152	-10.92
885.324	21.85
885.496	-33.45
885.667	-6.83
885.839	-37.55
886.011	32.08
886.182	-41.64
886.354	9.56
886.525	44.37
886.697	-6.83
886.869	15.7
887.04	36.18
887.212	-15.02
887.383	36.18
887.555	19.8
887.726	-6.83
887.897	11.61
888.069	-29.35
888.24	81.24
888.412	-4.78
888.583	58.71
888.754	-6.83
888.926	-15.02
889.097	-45.74
889.268	-6.83
889.44	-49.83
889.611	-51.88
889.782	46.42
889.953	-80.55
890.125	-31.4
890.296	40.28
890.467	13.65
890.638	-17.07
890.809	52.56
890.98	-35.5
891.151	-25.26
891.323	-41.64
891.494	19.8
891.665	9.56
891.836	-58.03
892.007	36.18
892.178	30.04
892.349	-90.79
892.52	-10.92
892.691	95.57
892.862	48.47
893.032	30.04
893.203	-15.02
893.374	-29.35
893.545	64.85
893.716	-41.64
893.887	48.47
894.057	11.61
894.228	-27.31
894.399	21.85
894.57	-10.92
894.74	-92.84
894.911	11.61
895.082	1.37
895.253	-39.59
895.423	21.85
895.594	17.75
895.764	73.04
895.935	27.99
896.106	40.28
896.276	-35.5
896.447	64.85
896.617	-10.92
896.788	-12.97
896.958	-29.35
897.129	-64.17
897.299	-2.73
897.47	-17.07
897.64	23.89
897.81	-33.45
897.981	44.37
898.151	32.08
898.322	7.51
898.492	46.42
898.662	-6.83
898.832	-31.4
899.003	-37.55
899.173	-8.87
899.343	52.56
899.513	-62.12
