Data from USB4F104151__43__12-00-55-031.txt Node

Date: Fri Mar 14 12:00:55 EDT 2025
User: louis
Spectrometer: USB4F10415
Trigger mode: 4
Integration Time (sec): 2.000000E-2
Scans to average: 1
Electric dark correction enabled: true
Nonlinearity correction enabled: false
Boxcar width: 0
XAxis mode: Wavelengths
Number of Pixels in Spectrum: 3648
>>>>>Begin Spectral Data<<<<<
178.204	-56.66
178.424	-56.66
178.644	-56.66
178.864	-105.81
179.084	-62.8
179.304	-7.51
179.524	8.87
179.744	-19.8
179.964	37.55
180.184	39.59
180.404	-7.51
180.624	-46.42
180.844	-5.46
181.064	-25.94
181.283	55.98
181.503	-62.8
181.723	33.45
181.943	-7.51
182.163	80.55
182.383	62.12
182.602	117.42
182.822	12.97
183.042	62.12
183.262	-9.56
183.482	47.79
183.701	25.26
183.921	41.64
184.141	31.4
184.361	-54.61
184.58	29.35
184.8	39.59
185.02	10.92
185.239	6.83
185.459	53.93
185.679	8.87
185.898	41.64
186.118	43.69
186.338	4.78
186.557	-7.51
186.777	-19.8
186.997	33.45
187.216	96.94
187.436	115.37
187.655	29.35
187.875	27.31
188.095	19.11
188.314	60.07
188.534	10.92
188.753	49.83
188.973	12.97
189.192	19.11
189.412	23.21
189.631	37.55
189.851	35.5
190.07	60.07
190.29	43.69
190.509	62.12
190.729	76.46
190.948	115.37
191.168	53.93
191.387	10.92
191.607	-17.75
191.826	6.83
192.045	47.79
192.265	25.26
192.484	6.83
192.704	53.93
192.923	82.6
193.142	25.26
193.362	-13.65
193.581	53.93
193.8	-44.37
194.02	107.18
194.239	41.64
194.458	33.45
194.678	39.59
194.897	51.88
195.116	8.87
195.335	125.61
195.555	-17.75
195.774	4.78
195.993	109.22
196.212	25.26
196.432	29.35
196.651	19.11
196.87	2.73
197.089	43.69
197.308	15.02
197.528	62.12
197.747	-73.04
197.966	84.65
198.185	109.22
198.404	-19.8
198.623	2.73
198.842	82.6
199.062	45.74
199.281	23.21
199.5	-21.85
199.719	2.73
199.938	88.75
200.157	21.16
200.376	109.22
200.595	51.88
200.814	17.07
201.033	92.84
201.252	4.78
201.471	37.55
201.69	62.12
201.909	4.78
202.128	0.68
202.347	17.07
202.566	-36.18
202.785	-54.61
203.004	-3.41
203.223	6.83
203.442	-54.61
203.661	12.97
203.879	-52.56
204.098	62.12
204.317	29.35
204.536	-1.37
204.755	55.98
204.974	-34.13
205.193	6.83
205.411	27.31
205.63	45.74
205.849	45.74
206.068	41.64
206.287	76.46
206.505	58.03
206.724	39.59
206.943	21.16
207.162	19.11
207.381	15.02
207.599	70.31
207.818	-3.41
208.037	66.22
208.255	39.59
208.474	41.64
208.693	60.07
208.911	55.98
209.13	37.55
209.349	84.65
209.567	4.78
209.786	68.27
210.005	47.79
210.223	88.75
210.442	33.45
210.661	72.36
210.879	29.35
211.098	-5.46
211.316	55.98
211.535	84.65
211.753	37.55
211.972	37.55
212.191	41.64
212.409	51.88
212.628	60.07
212.846	35.5
213.065	55.98
213.283	90.79
213.502	19.11
213.72	47.79
213.938	62.12
214.157	62.12
214.375	45.74
214.594	15.02
214.812	66.22
215.031	27.31
215.249	-44.37
215.467	-27.99
215.686	-9.56
215.904	49.83
216.122	12.97
216.341	109.22
216.559	70.31
216.778	60.07
216.996	84.65
217.214	47.79
217.432	53.93
217.651	19.11
217.869	31.4
218.087	0.68
218.306	55.98
218.524	105.13
218.742	-13.65
218.96	74.41
219.179	12.97
219.397	39.59
219.615	45.74
219.833	55.98
220.051	33.45
220.27	107.18
220.488	90.79
220.706	55.98
220.924	2.73
221.142	-1.37
221.36	27.31
221.578	55.98
221.796	80.55
222.015	58.03
222.233	37.55
222.451	45.74
222.669	-1.37
222.887	105.13
223.105	-44.37
223.323	-32.08
223.541	49.83
223.759	158.38
223.977	33.45
224.195	29.35
224.413	21.16
224.631	6.83
224.849	88.75
225.067	62.12
225.285	-27.99
225.503	31.4
225.721	37.55
225.939	78.51
226.157	60.07
226.375	72.36
226.592	-32.08
226.81	47.79
227.028	33.45
227.246	58.03
227.464	2.73
227.682	37.55
227.9	111.27
228.117	0.68
228.335	74.41
228.553	-1.37
228.771	-21.85
228.989	-25.94
229.206	66.22
229.424	12.97
229.642	49.83
229.86	-56.66
230.077	60.07
230.295	8.87
230.513	35.5
230.731	62.12
230.948	64.17
231.166	62.12
231.384	-50.52
231.601	-9.56
231.819	41.64
232.037	-38.23
232.254	-52.56
232.472	51.88
232.689	-17.75
232.907	-1.37
233.125	-36.18
233.342	29.35
233.56	33.45
233.777	-27.99
233.995	62.12
234.213	111.27
234.43	133.8
234.648	35.5
234.865	70.31
235.083	35.5
235.3	31.4
235.518	17.07
235.735	133.8
235.953	31.4
236.17	-17.75
236.388	76.46
236.605	43.69
236.822	58.03
237.04	-3.41
237.257	41.64
237.475	-17.75
237.692	-15.7
237.909	35.5
238.127	64.17
238.344	-1.37
238.562	6.83
238.779	25.26
238.996	78.51
239.214	49.83
239.431	-17.75
239.648	31.4
239.865	51.88
240.083	58.03
240.3	64.17
240.517	4.78
240.735	72.36
240.952	10.92
241.169	33.45
241.386	53.93
241.603	41.64
241.821	29.35
242.038	58.03
242.255	55.98
242.472	23.21
242.689	103.08
242.907	33.45
243.124	2.73
243.341	62.12
243.558	15.02
243.775	29.35
243.992	-21.85
244.209	25.26
244.426	55.98
244.643	37.55
244.86	23.21
245.078	4.78
245.295	33.45
245.512	2.73
245.729	47.79
245.946	66.22
246.163	55.98
246.38	23.21
246.597	-7.51
246.814	-36.18
247.031	66.22
247.248	33.45
247.464	76.46
247.681	80.55
247.898	70.31
248.115	90.79
248.332	37.55
248.549	49.83
248.766	152.23
248.983	55.98
249.2	-15.7
249.417	103.08
249.633	96.94
249.85	64.17
250.067	47.79
250.284	66.22
250.501	78.51
250.717	31.4
250.934	-52.56
251.151	88.75
251.368	60.07
251.585	2.73
251.801	64.17
252.018	0.68
252.235	-11.61
252.451	49.83
252.668	-23.89
252.885	96.94
253.102	96.94
253.318	88.75
253.535	64.17
253.752	113.32
253.968	29.35
254.185	37.55
254.401	39.59
254.618	96.94
254.835	-21.85
255.051	92.84
255.268	101.03
255.484	101.03
255.701	60.07
255.917	92.84
256.134	43.69
256.351	111.27
256.567	-19.8
256.784	-19.8
257	-21.85
257.217	19.11
257.433	21.16
257.65	58.03
257.866	-21.85
258.082	68.27
258.299	80.55
258.515	23.21
258.732	37.55
258.948	-54.61
259.165	92.84
259.381	49.83
259.597	-21.85
259.814	-5.46
260.03	115.37
260.246	-3.41
260.463	55.98
260.679	68.27
260.895	19.11
261.112	109.22
261.328	4.78
261.544	55.98
261.761	133.8
261.977	76.46
262.193	49.83
262.409	12.97
262.626	82.6
262.842	70.31
263.058	49.83
263.274	-7.51
263.49	66.22
263.707	53.93
263.923	2.73
264.139	25.26
264.355	35.5
264.571	115.37
264.787	21.16
265.004	64.17
265.22	45.74
265.436	105.13
265.652	-21.85
265.868	6.83
266.084	19.11
266.3	41.64
266.516	23.21
266.732	82.6
266.948	58.03
267.164	-17.75
267.38	8.87
267.596	31.4
267.812	107.18
268.028	51.88
268.244	76.46
268.46	10.92
268.676	17.07
268.892	80.55
269.108	-44.37
269.324	82.6
269.54	33.45
269.756	76.46
269.972	25.26
270.188	55.98
270.403	33.45
270.619	113.32
270.835	25.26
271.051	72.36
271.267	25.26
271.483	0.68
271.698	19.11
271.914	-1.37
272.13	113.32
272.346	51.88
272.562	49.83
272.777	72.36
272.993	78.51
273.209	58.03
273.425	43.69
273.64	23.21
273.856	10.92
274.072	23.21
274.287	51.88
274.503	21.16
274.719	49.83
274.934	39.59
275.15	17.07
275.366	-3.41
275.581	62.12
275.797	19.11
276.012	103.08
276.228	41.64
276.444	4.78
276.659	21.16
276.875	-1.37
277.09	60.07
277.306	47.79
277.521	45.74
277.737	86.7
277.952	8.87
278.168	35.5
278.383	19.11
278.599	-75.09
278.814	49.83
279.03	84.65
279.245	47.79
279.461	45.74
279.676	21.16
279.892	76.46
280.107	-7.51
280.322	-30.04
280.538	19.11
280.753	-7.51
280.969	121.51
281.184	72.36
281.399	96.94
281.615	25.26
281.83	47.79
282.045	25.26
282.26	64.17
282.476	21.16
282.691	47.79
282.906	41.64
283.122	10.92
283.337	27.31
283.552	49.83
283.767	43.69
283.983	15.02
284.198	-3.41
284.413	76.46
284.628	-13.65
284.843	15.02
285.058	92.84
285.274	6.83
285.489	82.6
285.704	19.11
285.919	-81.24
286.134	27.31
286.349	35.5
286.564	21.16
286.779	101.03
286.995	21.16
287.21	23.21
287.425	82.6
287.64	23.21
287.855	98.99
288.07	-15.7
288.285	66.22
288.5	72.36
288.715	66.22
288.93	27.31
289.145	31.4
289.36	33.45
289.575	45.74
289.79	98.99
290.004	-1.37
290.219	-1.37
290.434	-32.08
290.649	78.51
290.864	-30.04
291.079	10.92
291.294	60.07
291.509	49.83
291.724	31.4
291.938	51.88
292.153	66.22
292.368	55.98
292.583	53.93
292.798	33.45
293.012	53.93
293.227	39.59
293.442	43.69
293.657	55.98
293.871	86.7
294.086	-56.66
294.301	31.4
294.516	51.88
294.73	43.69
294.945	15.02
295.16	60.07
295.374	-5.46
295.589	41.64
295.804	37.55
296.018	19.11
296.233	8.87
296.447	39.59
296.662	39.59
296.877	64.17
297.091	129.7
297.306	-19.8
297.52	-7.51
297.735	39.59
297.949	41.64
298.164	68.27
298.378	6.83
298.593	31.4
298.807	80.55
299.022	35.5
299.236	19.11
299.451	74.41
299.665	-40.28
299.88	35.5
300.094	-13.65
300.309	-27.99
300.523	-3.41
300.737	33.45
300.952	-1.37
301.166	72.36
301.381	10.92
301.595	76.46
301.809	70.31
302.024	96.94
302.238	41.64
302.452	70.31
302.667	53.93
302.881	60.07
303.095	43.69
303.309	33.45
303.524	60.07
303.738	53.93
303.952	27.31
304.166	27.31
304.381	84.65
304.595	33.45
304.809	39.59
305.023	10.92
305.237	-46.42
305.452	35.5
305.666	27.31
305.88	49.83
306.094	51.88
306.308	80.55
306.522	17.07
306.736	23.21
306.95	17.07
307.164	29.35
307.379	-7.51
307.593	8.87
307.807	31.4
308.021	111.27
308.235	31.4
308.449	72.36
308.663	72.36
308.877	119.46
309.091	74.41
309.305	72.36
309.519	-5.46
309.733	80.55
309.947	111.27
310.161	10.92
310.374	31.4
310.588	-7.51
310.802	49.83
311.016	-11.61
311.23	10.92
311.444	4.78
311.658	39.59
311.872	103.08
312.085	127.66
312.299	-23.89
312.513	39.59
312.727	0.68
312.941	49.83
313.154	103.08
313.368	31.4
313.582	15.02
313.796	74.41
314.009	133.8
314.223	115.37
314.437	113.32
314.651	12.97
314.864	82.6
315.078	78.51
315.292	55.98
315.505	-5.46
315.719	47.79
315.933	88.75
316.146	105.13
316.36	4.78
316.573	92.84
316.787	68.27
317.001	-13.65
317.214	47.79
317.428	58.03
317.641	33.45
317.855	84.65
318.068	53.93
318.282	90.79
318.495	125.61
318.709	41.64
318.922	76.46
319.136	98.99
319.349	98.99
319.563	127.66
319.776	23.21
319.99	80.55
320.203	41.64
320.417	174.76
320.63	62.12
320.843	53.93
321.057	60.07
321.27	74.41
321.483	80.55
321.697	60.07
321.91	-9.56
322.124	-3.41
322.337	86.7
322.55	49.83
322.763	66.22
322.977	-13.65
323.19	8.87
323.403	60.07
323.617	82.6
323.83	41.64
324.043	-48.47
324.256	109.22
324.469	-71
324.683	92.84
324.896	-19.8
325.109	-17.75
325.322	-9.56
325.535	49.83
325.748	82.6
325.962	33.45
326.175	72.36
326.388	21.16
326.601	23.21
326.814	8.87
327.027	72.36
327.24	88.75
327.453	35.5
327.666	53.93
327.879	29.35
328.092	35.5
328.305	84.65
328.518	17.07
328.731	2.73
328.944	60.07
329.157	60.07
329.37	-23.89
329.583	96.94
329.796	43.69
330.009	25.26
330.222	64.17
330.435	62.12
330.648	60.07
330.861	29.35
331.073	72.36
331.286	152.23
331.499	49.83
331.712	53.93
331.925	6.83
332.138	107.18
332.35	39.59
332.563	105.13
332.776	64.17
332.989	53.93
333.202	6.83
333.414	62.12
333.627	68.27
333.84	45.74
334.053	72.36
334.265	101.03
334.478	82.6
334.691	-3.41
334.903	43.69
335.116	37.55
335.329	15.02
335.541	70.31
335.754	109.22
335.966	37.55
336.179	72.36
336.392	-9.56
336.604	119.46
336.817	96.94
337.029	72.36
337.242	82.6
337.454	66.22
337.667	76.46
337.88	33.45
338.092	51.88
338.305	92.84
338.517	10.92
338.729	-7.51
338.942	82.6
339.154	33.45
339.367	47.79
339.579	60.07
339.792	0.68
340.004	113.32
340.217	25.26
340.429	111.27
340.641	21.16
340.854	-9.56
341.066	53.93
341.278	6.83
341.491	-13.65
341.703	62.12
341.915	8.87
342.128	88.75
342.34	-7.51
342.552	84.65
342.764	166.57
342.977	74.41
343.189	2.73
343.401	49.83
343.613	10.92
343.826	82.6
344.038	29.35
344.25	90.79
344.462	43.69
344.674	43.69
344.886	-1.37
345.099	41.64
345.311	25.26
345.523	74.41
345.735	-19.8
345.947	8.87
346.159	39.59
346.371	58.03
346.583	35.5
346.795	98.99
347.007	21.16
347.219	101.03
347.431	45.74
347.643	72.36
347.855	70.31
348.067	86.7
348.279	64.17
348.491	84.65
348.703	158.38
348.915	82.6
349.127	-17.75
349.339	8.87
349.551	82.6
349.763	19.11
349.975	64.17
350.187	-9.56
350.399	152.23
350.61	25.26
350.822	78.51
351.034	64.17
351.246	80.55
351.458	33.45
351.669	39.59
351.881	53.93
352.093	19.11
352.305	103.08
352.517	84.65
352.728	135.85
352.94	78.51
353.152	33.45
353.363	74.41
353.575	-1.37
353.787	90.79
353.999	90.79
354.21	49.83
354.422	2.73
354.633	43.69
354.845	96.94
355.057	76.46
355.268	49.83
355.48	45.74
355.692	37.55
355.903	72.36
356.115	8.87
356.326	-9.56
356.538	117.42
356.749	27.31
356.961	72.36
357.172	25.26
357.384	41.64
357.595	103.08
357.807	68.27
358.018	-21.85
358.23	117.42
358.441	41.64
358.653	129.7
358.864	123.56
359.075	86.7
359.287	45.74
359.498	98.99
359.709	66.22
359.921	113.32
360.132	33.45
360.344	23.21
360.555	55.98
360.766	51.88
360.977	94.89
361.189	98.99
361.4	80.55
361.611	66.22
361.823	96.94
362.034	66.22
362.245	0.68
362.456	23.21
362.667	23.21
362.879	82.6
363.09	82.6
363.301	51.88
363.512	80.55
363.723	76.46
363.935	62.12
364.146	86.7
364.357	55.98
364.568	76.46
364.779	33.45
364.99	84.65
365.201	43.69
365.412	90.79
365.623	70.31
365.834	90.79
366.045	-27.99
366.256	101.03
366.467	55.98
366.678	78.51
366.889	84.65
367.1	19.11
367.311	47.79
367.522	23.21
367.733	19.11
367.944	86.7
368.155	41.64
368.366	160.42
368.577	158.38
368.788	41.64
368.999	-58.71
369.209	53.93
369.42	70.31
369.631	60.07
369.842	133.8
370.053	17.07
370.264	21.16
370.474	80.55
370.685	94.89
370.896	55.98
371.107	60.07
371.317	45.74
371.528	53.93
371.739	103.08
371.95	133.8
372.16	96.94
372.371	43.69
372.582	90.79
372.792	-21.85
373.003	121.51
373.214	96.94
373.424	55.98
373.635	35.5
373.846	131.75
374.056	94.89
374.267	21.16
374.477	58.03
374.688	49.83
374.898	170.66
375.109	127.66
375.319	74.41
375.53	6.83
375.74	68.27
375.951	58.03
376.161	19.11
376.372	53.93
376.582	92.84
376.793	64.17
377.003	12.97
377.214	105.13
377.424	31.4
377.635	49.83
377.845	82.6
378.055	88.75
378.266	86.7
378.476	86.7
378.686	53.93
378.897	107.18
379.107	111.27
379.317	17.07
379.528	84.65
379.738	19.11
379.948	-21.85
380.158	76.46
380.369	94.89
380.579	-3.41
380.789	107.18
380.999	70.31
381.21	15.02
381.42	88.75
381.63	21.16
381.84	60.07
382.05	117.42
382.261	90.79
382.471	82.6
382.681	-1.37
382.891	103.08
383.101	66.22
383.311	-27.99
383.521	15.02
383.731	49.83
383.941	43.69
384.151	45.74
384.361	29.35
384.571	74.41
384.781	37.55
384.991	74.41
385.201	94.89
385.411	127.66
385.621	68.27
385.831	94.89
386.041	49.83
386.251	98.99
386.461	113.32
386.671	45.74
386.881	90.79
387.091	21.16
387.301	82.6
387.511	80.55
387.72	41.64
387.93	47.79
388.14	98.99
388.35	-9.56
388.56	117.42
388.769	101.03
388.979	68.27
389.189	2.73
389.399	31.4
389.609	92.84
389.818	103.08
390.028	105.13
390.238	101.03
390.447	80.55
390.657	72.36
390.867	62.12
391.076	84.65
391.286	35.5
391.496	41.64
391.705	101.03
391.915	92.84
392.125	68.27
392.334	45.74
392.544	92.84
392.753	101.03
392.963	45.74
393.172	35.5
393.382	6.83
393.591	94.89
393.801	55.98
394.01	141.99
394.22	55.98
394.429	78.51
394.639	53.93
394.848	82.6
395.058	68.27
395.267	107.18
395.477	64.17
395.686	96.94
395.895	74.41
396.105	193.19
396.314	90.79
396.524	49.83
396.733	66.22
396.942	170.66
397.152	58.03
397.361	178.86
397.57	139.94
397.78	146.09
397.989	41.64
398.198	160.42
398.407	74.41
398.617	86.7
398.826	131.75
399.035	150.18
399.244	66.22
399.453	119.46
399.663	115.37
399.872	86.7
400.081	117.42
400.29	115.37
400.499	55.98
400.708	90.79
400.917	137.9
401.127	148.14
401.336	158.38
401.545	96.94
401.754	164.52
401.963	154.28
402.172	160.42
402.381	139.94
402.59	131.75
402.799	166.57
403.008	123.56
403.217	72.36
403.426	66.22
403.635	117.42
403.844	107.18
404.053	72.36
404.262	111.27
404.471	150.18
404.68	123.56
404.888	103.08
405.097	154.28
405.306	166.57
405.515	174.76
405.724	146.09
405.933	66.22
406.142	144.04
406.35	234.15
406.559	205.48
406.768	123.56
406.977	176.81
407.185	211.62
407.394	264.87
407.603	197.29
407.812	236.2
408.02	191.14
408.229	209.58
408.438	250.53
408.646	277.16
408.855	180.9
409.064	273.06
409.272	295.59
409.481	281.25
409.69	262.82
409.898	223.91
410.107	348.84
410.315	258.73
410.524	311.97
410.733	342.69
410.941	271.01
411.15	338.6
411.358	340.65
411.567	361.13
411.775	357.03
411.984	436.9
412.192	357.03
412.401	395.94
412.609	393.89
412.818	500.39
413.026	459.43
413.234	459.43
413.443	488.1
413.651	506.53
413.86	553.63
414.068	553.63
414.276	688.8
414.485	635.55
414.693	633.5
414.901	705.18
415.11	701.09
415.318	682.66
415.526	701.09
415.734	746.14
415.943	729.76
416.151	832.16
416.359	766.62
416.567	815.77
416.776	815.77
416.984	901.79
417.192	957.08
417.4	864.93
417.608	973.47
417.817	889.5
418.025	1030.81
418.233	1129.11
418.441	1020.57
418.649	1272.47
418.857	1168.02
419.065	1266.33
419.273	1311.38
419.481	1331.86
419.689	1389.21
419.897	1426.07
420.105	1446.55
420.313	1438.36
420.521	1505.94
420.729	1583.76
420.937	1600.15
421.145	1579.67
421.353	1766.03
421.561	1878.67
421.769	1852.05
421.977	1972.88
422.185	1888.91
422.393	2001.55
422.601	2237.06
422.809	2228.87
423.017	2103.95
423.224	2271.88
423.432	2343.56
423.64	2368.13
423.848	2593.41
424.056	2556.55
424.263	2636.42
424.471	2736.77
424.679	2710.15
424.887	2802.3
425.094	2916.99
425.302	3125.88
425.51	3101.31
425.718	3242.62
425.925	3324.54
426.133	3316.34
426.341	3408.5
426.548	3725.94
426.756	3664.5
426.964	3885.68
427.171	4033.13
427.379	4078.19
427.586	4215.4
427.794	4391.53
428.001	4397.67
428.209	4563.56
428.417	4622.95
428.624	4977.25
428.832	4954.72
429.039	4948.58
429.247	4889.18
429.454	5450.33
429.662	5702.23
429.869	5368.41
430.076	5818.96
430.284	5585.49
430.491	5653.08
430.699	6134.35
430.906	6167.12
431.114	6310.47
431.321	6494.79
431.528	6664.77
431.736	6988.35
431.943	7383.61
432.15	7289.4
432.358	7197.24
432.565	7672.37
432.772	7412.28
432.979	8036.91
433.187	7936.56
433.394	8088.11
433.601	8649.25
433.808	8819.24
434.016	8696.36
434.223	9087.52
434.43	9648.66
434.637	9210.4
434.844	9882.13
435.052	10277.39
435.259	10306.06
435.466	10291.73
435.673	10148.37
435.88	10924.55
436.087	11336.19
436.294	11289.09
436.501	11106.82
436.708	11244.03
436.915	11770.36
437.122	12263.92
437.329	11876.85
437.537	12663.27
437.743	12683.75
437.95	12718.57
438.157	13261.28
438.364	13779.42
438.571	13750.74
438.778	13842.9
438.985	15217.09
439.192	14701
439.399	14897.61
439.606	14797.26
439.813	15610.3
440.02	16308.66
440.227	16200.12
440.433	15925.69
440.64	16671.15
440.847	16478.64
441.054	16980.39
441.261	18055.58
441.467	17883.55
441.674	18203.03
441.881	18741.64
442.088	18717.07
442.294	18635.15
442.501	19073.42
442.708	19294.6
442.914	20324.72
443.121	20941.16
443.328	20808.05
443.534	21942.62
443.741	21326.18
443.948	21002.6
444.154	22679.89
444.361	22399.32
444.568	22593.87
444.774	22901.07
444.981	23085.39
445.187	23306.57
445.394	24838.45
445.6	24320.31
445.807	26761.49
446.013	25657.64
446.22	25766.18
446.426	26687.76
446.633	27066.64
446.839	28059.9
447.046	26970.38
447.252	28319.99
447.459	28619
447.665	28287.23
447.871	29808.87
448.078	30910.67
448.284	29657.32
448.491	30224.61
448.697	31537.35
448.903	31721.67
449.11	31998.15
449.316	31205.58
449.522	31793.35
449.728	32872.63
449.935	33126.58
450.141	33153.2
450.347	34269.34
450.553	32940.21
450.76	33282.22
450.966	34166.95
451.172	33519.79
451.378	35072.15
451.584	34345.12
451.791	34705.56
451.997	35000.47
452.203	35231.89
452.409	35160.21
452.615	34818.2
452.821	33632.43
453.027	33179.82
453.233	34979.99
453.44	33650.86
453.646	34070.69
453.852	34226.34
454.058	34771.1
454.264	33333.42
454.47	34490.52
454.676	33560.75
454.882	34285.73
455.088	31447.24
455.294	31858.88
455.5	32383.16
455.705	32671.93
455.911	31236.3
456.117	30699.73
456.323	30478.55
456.529	29106.41
456.735	30161.12
456.941	29364.46
457.147	28604.66
457.352	27863.3
457.558	27656.45
457.764	27730.18
457.97	27066.64
458.176	26249.5
458.381	26216.73
458.587	25155.88
458.793	24901.93
458.999	23746.88
459.204	25258.28
459.41	24676.66
459.616	23161.16
459.821	22778.19
460.027	23056.71
460.233	22597.97
460.438	21399.91
460.644	21737.82
460.85	20173.17
461.055	20414.84
461.261	20287.86
461.466	18639.25
461.672	18452.88
461.878	19405.19
462.083	18315.67
462.289	17844.63
462.494	17881.5
462.7	16961.96
462.905	16423.34
463.111	17197.48
463.316	17217.96
463.522	16693.68
463.727	16708.01
463.932	16753.07
464.138	16771.5
464.343	16634.28
464.549	16099.76
464.754	16695.72
464.959	16589.23
465.165	16396.72
465.37	15626.68
465.575	15237.57
465.781	15712.7
465.986	15907.26
466.191	15419.84
466.397	15227.33
466.602	14094.8
466.807	15051.2
467.012	14854.6
467.218	14979.53
467.423	14600.65
467.628	14725.58
467.833	15378.88
468.038	14946.76
468.244	14309.84
468.449	14848.46
468.654	14453.2
468.859	14078.42
469.064	14342.61
469.269	13826.52
469.474	13689.31
469.679	14139.86
469.885	13662.68
470.09	13990.36
470.295	13914.58
470.5	13484.51
470.705	13517.28
470.91	13224.42
471.115	13081.06
471.32	13246.94
471.525	12976.61
471.73	12964.32
471.935	12747.24
472.139	12292.59
472.344	12458.48
472.549	12306.93
472.754	12370.41
472.959	12095.99
473.164	11649.53
473.369	11639.29
473.574	12118.51
473.778	11903.48
473.983	11713.02
474.188	11819.51
474.393	11137.54
474.598	11282.94
474.802	11139.58
475.007	11168.26
475.212	11041.28
475.417	10648.07
475.621	10611.21
475.826	10793.48
476.031	10435.08
476.235	10301.97
476.44	10398.22
476.645	10172.94
476.849	10279.44
477.054	10029.59
477.259	10080.78
477.463	10015.25
477.668	9669.14
477.872	9871.89
478.077	9589.27
478.282	9447.96
478.486	9488.92
478.691	9337.37
478.895	9191.97
479.1	9280.03
479.304	9169.44
479.509	8704.55
479.713	9179.68
479.918	8897.06
480.122	8778.28
480.326	9021.98
480.531	8874.53
480.735	8405.55
480.94	8639.01
481.144	9067.04
481.348	8677.93
481.553	8596.01
481.757	8657.45
481.961	8786.47
482.166	8880.68
482.37	8614.44
482.574	8503.85
482.778	8725.03
482.983	8587.82
483.187	8747.56
483.391	8641.06
483.595	8360.49
483.8	8432.17
484.004	8553
484.208	8735.27
484.412	8587.82
484.616	8694.31
484.821	8618.54
485.025	8383.02
485.229	8321.58
485.433	8505.9
485.637	8712.74
485.841	8405.55
486.045	8337.96
486.249	8610.34
486.453	8348.2
486.657	8403.5
486.861	8442.41
487.065	8540.71
487.269	8460.84
487.473	8370.73
487.677	8593.96
487.881	8596.01
488.085	8616.49
488.289	8530.47
488.493	8364.59
488.697	8792.61
488.901	8591.91
489.105	8645.16
489.309	8520.23
489.512	8563.24
489.716	8675.88
489.92	8731.17
490.124	8452.65
490.328	9017.89
490.531	8677.93
490.735	8663.59
490.939	8849.96
491.143	8708.65
491.346	8733.22
491.55	8923.68
491.754	8860.2
491.958	8989.22
492.161	8852
492.365	8759.84
492.569	8819.24
492.772	9011.75
492.976	9161.25
493.18	9071.14
493.383	9034.27
493.587	9230.88
493.79	9257.5
493.994	9067.04
494.197	9462.3
494.401	9341.47
494.605	9277.98
494.808	9517.59
495.012	9490.97
495.215	9568.79
495.419	9744.92
495.622	9431.58
495.825	9873.94
496.029	10033.68
496.232	9972.24
496.436	9927.19
496.639	10326.54
496.843	10228.24
497.046	10377.74
497.249	10252.81
497.453	10514.95
497.656	10457.61
497.859	10803.72
498.063	10717.7
498.266	10897.92
498.469	10899.97
498.673	11160.06
498.876	11332.09
499.079	11334.14
499.282	11270.65
499.485	11737.59
499.689	11655.67
499.892	11829.75
500.095	12052.98
500.298	12173.81
500.501	11844.09
500.705	12280.3
500.908	12585.45
501.111	12499.44
501.314	12491.24
501.517	12829.16
501.72	12968.42
501.923	12980.71
502.126	13193.7
502.329	13484.51
502.532	13480.41
502.735	13726.17
502.938	13806.04
503.141	13896.15
503.344	13904.34
503.547	14236.11
503.75	14213.59
503.953	14524.88
504.156	14578.12
504.359	15096.26
504.562	14750.15
504.765	15323.58
504.968	15364.54
505.17	15352.26
505.373	15481.28
505.576	15796.67
505.779	15917.5
505.982	16247.22
506.185	16220.6
506.387	16447.92
506.59	16282.03
506.793	16847.27
506.996	16601.52
507.198	17228.2
507.401	16806.31
507.604	17154.47
507.807	17547.68
508.009	17883.55
508.212	17756.57
508.415	18114.97
508.617	18180.5
508.82	18147.73
509.022	18276.76
509.225	18538.9
509.428	18712.97
509.63	18842
509.833	19218.82
510.035	19646.85
510.238	19317.12
510.44	19620.22
510.643	19708.29
510.845	20224.37
511.048	19759.49
511.25	20433.27
511.453	20185.46
511.655	21240.17
511.858	21078.38
512.06	21139.82
512.262	21344.61
512.465	21356.9
512.667	21657.95
512.87	21926.24
513.072	21944.67
513.274	22069.59
513.477	22683.98
513.679	22759.76
513.881	22774.1
514.084	23243.08
514.286	22890.83
514.488	23296.33
514.69	23787.84
514.893	23834.94
515.095	24086.84
515.297	24183.1
515.499	24158.52
515.701	24570.16
515.904	24883.5
516.106	24674.61
516.308	25235.75
516.51	25487.65
516.712	25592.1
516.914	25788.71
517.116	26106.14
517.318	26159.39
517.52	26353.94
517.722	26577.17
517.925	26583.32
518.127	27099.41
518.329	27451.66
518.531	27277.58
518.733	27386.12
518.935	27613.45
519.136	27721.99
519.338	28004.61
519.54	27982.08
519.742	28346.62
519.944	28596.47
520.146	28944.62
520.348	28741.88
520.55	29190.38
520.752	29255.92
520.954	29751.52
521.155	29507.82
521.357	30062.82
521.559	30478.55
521.761	30740.69
521.963	30599.38
522.164	30720.21
522.366	30542.04
522.568	31076.56
522.77	31242.45
522.971	31525.07
523.173	31248.59
523.375	31674.57
523.576	31893.7
523.778	31666.38
523.98	32336.06
524.181	32561.34
524.383	32323.77
524.584	32606.39
524.786	32917.68
524.988	32833.72
525.189	33155.25
525.391	33341.61
525.592	33349.81
525.794	33476.78
525.995	33212.59
526.197	33493.16
526.398	33638.57
526.6	33863.85
526.801	34097.31
527.003	34156.71
527.204	34363.55
527.406	34267.3
527.607	34539.68
527.808	34531.48
528.01	34068.64
528.211	34623.64
528.412	35080.34
528.614	34928.79
528.815	34988.18
529.016	35319.95
529.218	34789.53
529.419	35033.24
529.62	34977.94
529.822	34990.23
530.023	34656.41
530.224	35301.52
530.425	35317.9
530.626	34758.81
530.828	34689.18
531.029	35539.08
531.23	35129.49
531.431	35528.84
531.632	35465.36
531.833	35901.57
532.035	35610.76
532.236	35731.59
532.437	35600.52
532.638	35172.5
532.839	35825.8
533.04	35567.76
533.241	35141.78
533.442	36020.36
533.643	35788.94
533.844	35809.42
534.045	35727.5
534.246	35723.4
534.447	35532.94
534.648	35414.16
534.849	35383.44
535.05	35641.48
535.251	35772.55
535.451	35422.35
535.652	36112.52
535.853	35661.96
536.054	36120.71
536.255	35551.37
536.456	35514.51
536.657	35657.87
536.857	35639.43
537.058	35395.73
537.259	35917.96
537.46	35817.61
537.66	35448.97
537.861	35729.55
538.062	35573.9
538.263	35797.13
538.463	35516.56
538.664	35244.18
538.865	35403.92
539.065	35514.51
539.266	35377.29
539.466	35772.55
539.667	35322
539.868	35899.53
540.068	35287.18
540.269	35373.2
540.469	35809.42
540.67	35133.59
540.87	35784.84
541.071	35604.62
541.271	35313.81
541.472	35031.19
541.672	35332.24
541.873	34756.76
542.073	35047.57
542.274	35514.51
542.474	35088.53
542.675	35281.04
542.875	35768.46
543.075	35084.44
543.276	34840.73
543.476	35346.58
543.676	35023
543.877	35356.82
544.077	35104.91
544.277	35356.82
544.478	34877.59
544.678	35371.15
544.878	34812.06
545.078	35072.15
545.279	34838.68
545.479	34953.37
545.679	35348.62
545.879	34896.02
546.079	35035.28
546.28	34758.81
546.48	34713.75
546.68	34943.13
546.88	35203.22
547.08	34828.44
547.28	34850.97
547.48	34445.47
547.68	34904.21
547.88	34336.93
548.081	35051.67
548.281	34650.27
548.481	34570.4
548.681	35025.04
548.881	34693.27
549.081	34631.83
549.28	34558.11
549.48	34916.5
549.68	34945.17
549.88	35559.56
550.08	34910.36
550.28	35066
550.48	34861.21
550.68	34951.32
550.88	34508.96
551.08	34779.29
551.279	34660.51
551.479	34455.71
551.679	34889.88
551.879	34601.11
552.079	34791.58
552.278	34631.83
552.478	34304.16
552.678	34861.21
552.878	34631.83
553.077	34496.67
553.277	34140.32
553.477	34517.15
553.676	34257.06
553.876	34918.55
554.076	34091.17
554.275	34257.06
554.475	34052.26
554.674	34224.29
554.874	34082.98
555.074	34107.55
555.273	34521.24
555.473	34097.31
555.672	33953.96
555.872	34187.42
556.071	34568.35
556.271	34246.82
556.47	34300.06
556.67	33773.74
556.869	34021.54
557.068	33820.84
557.268	34146.47
557.467	33579.18
557.667	33947.81
557.866	33921.19
558.065	33921.19
558.265	33585.32
558.464	32999.6
558.663	34097.31
558.863	33134.77
559.062	33835.17
559.261	33503.4
559.461	33849.51
559.66	33507.5
559.859	33597.61
560.058	33271.98
560.258	33585.32
560.457	32997.56
560.656	33493.16
560.855	33114.29
561.054	33200.3
561.253	32946.36
561.453	33274.03
561.652	33194.16
561.851	33136.82
562.05	32854.2
562.249	32823.48
562.448	33284.27
562.647	32874.68
562.846	32704.7
563.045	32929.97
563.244	32665.78
563.443	32929.97
563.642	32385.21
563.841	32893.11
564.04	32438.46
564.239	32839.86
564.438	32399.55
564.637	32696.5
564.836	32794.81
565.035	32055.49
565.234	31920.32
565.432	32250.05
565.631	32381.12
565.83	31975.62
566.029	32248
566.228	31963.33
566.427	31951.04
566.625	31770.82
566.824	31336.65
567.023	32139.46
567.222	31463.63
567.42	32045.25
567.619	31617.22
567.818	31676.62
568.016	31518.92
568.215	31686.86
568.414	31473.87
568.612	31557.83
568.811	31531.21
569.01	31056.08
569.208	31004.88
569.407	31224.01
569.605	31166.67
569.804	30984.4
570.002	30453.98
570.201	31021.27
570.4	30605.53
570.598	30804.18
570.797	30286.04
570.995	30349.53
571.193	30406.87
571.392	30965.97
571.59	30214.37
571.789	30421.21
571.987	30327
572.186	30038.24
572.384	29892.83
572.582	30169.31
572.781	30218.46
572.979	29819.11
573.177	30114.02
573.376	30122.21
573.574	29837.54
573.772	29849.83
573.971	29776.1
574.169	29432.04
574.367	29174
574.565	29710.57
574.763	29565.16
574.962	29208.81
575.16	29208.81
575.358	29376.75
575.556	29061.36
575.754	29585.64
575.952	28965.1
576.151	29470.95
576.349	28406.01
576.547	28666.1
576.745	28664.05
576.943	28856.56
577.141	28629.24
577.339	28672.25
577.537	28590.33
577.735	28184.83
577.933	27965.7
578.131	28557.56
578.329	28270.84
578.527	28070.14
578.725	28186.88
578.923	28084.48
579.121	28086.53
579.319	28158.21
579.516	28258.56
579.714	27875.59
579.912	27791.62
580.11	27900.16
580.308	27734.28
580.506	27730.18
580.704	27095.31
580.901	27584.77
581.099	27513.09
581.297	27382.02
581.495	27136.27
581.692	27171.08
581.89	26966.29
582.088	27054.35
582.285	26970.38
582.483	26884.37
582.681	26710.29
582.878	26784.02
583.076	26564.89
583.274	26655
583.471	26216.73
583.669	26462.49
583.866	26315.03
584.064	26540.31
584.262	26214.68
584.459	26755.35
584.657	26200.35
584.854	26429.72
585.052	26134.81
585.249	26104.09
585.447	26235.16
585.644	25981.21
585.841	26061.08
586.039	26038.56
586.236	25745.7
586.434	25665.83
586.631	25499.94
586.828	25510.18
587.026	25545
587.223	25628.96
587.42	25102.64
587.618	25164.07
587.815	24959.28
588.012	25162.03
588.21	25166.12
588.407	25198.89
588.604	24750.39
588.801	24711.47
588.999	24834.35
589.196	24590.64
589.393	24684.85
589.59	24406.33
589.787	24750.39
589.984	24095.03
590.182	24224.06
590.379	24039.74
590.576	24639.79
590.773	24359.22
590.97	23828.8
591.167	24125.75
591.364	23910.72
591.561	24203.58
591.758	23695.68
591.955	23667.01
592.152	23836.99
592.349	23689.54
592.546	23773.5
592.743	23560.52
592.94	23118.15
593.137	23355.72
593.334	23372.1
593.531	23017.8
593.727	23376.2
593.924	23124.3
594.121	22970.7
594.318	22862.16
594.515	22972.75
594.712	22923.6
594.908	22696.27
595.105	22968.65
595.302	22509.91
595.499	22610.26
595.696	22323.54
595.892	22702.42
596.089	22258.01
596.286	22581.59
596.482	22321.49
596.679	22286.68
596.876	22278.49
597.072	21832.03
597.269	21936.48
597.466	21791.07
597.662	21782.88
597.859	21924.19
598.055	21821.79
598.252	21713.25
598.448	21803.36
598.645	21727.58
598.841	21018.99
599.038	21461.35
599.234	21592.42
599.431	21115.24
599.627	21260.65
599.824	21258.6
600.02	21113.19
600.217	21274.98
600.413	20906.35
600.609	20863.34
600.806	20826.48
601.002	20781.42
601.198	20797.81
601.395	20545.91
601.591	20380.02
601.787	20382.07
601.984	20351.35
602.18	20689.26
602.376	20203.89
602.572	20240.76
602.769	20453.75
602.965	19861.88
603.161	20228.47
603.357	20175.22
603.553	20146.55
603.75	20103.54
603.946	19597.7
604.142	19956.09
604.338	19448.19
604.534	19722.62
604.73	19681.66
604.926	19661.18
605.122	19472.77
605.318	19503.49
605.514	19431.81
605.71	19648.89
605.906	19321.22
606.102	19229.06
606.298	19343.75
606.494	19083.66
606.69	19243.4
606.886	19204.49
607.082	18811.28
607.278	19276.16
607.474	18905.48
607.67	18891.15
607.866	18639.25
608.062	18854.28
608.257	18897.29
608.453	18475.41
608.649	18807.18
608.845	18626.96
609.041	18592.14
609.236	18499.98
609.432	18639.25
609.628	18352.53
609.824	18403.73
610.019	18344.34
610.215	18178.45
610.411	18432.4
610.606	18266.52
610.802	18305.43
610.998	18186.65
611.193	18088.34
611.389	17729.95
611.584	18074.01
611.78	17906.07
611.976	18078.1
612.171	18340.24
612.367	18117.01
612.562	17840.54
612.758	17557.92
612.953	17865.11
613.149	17965.46
613.344	17447.33
613.539	17916.31
613.735	17594.78
613.93	18080.15
614.126	17680.8
614.321	17732
614.517	17424.8
614.712	17476
614.907	17742.24
615.103	17631.65
615.298	17195.43
615.493	17805.72
615.688	17285.54
615.884	17639.84
616.079	17359.27
616.274	17291.68
616.47	17303.97
616.665	17385.89
616.86	17172.9
617.055	17031.59
617.25	17131.94
617.445	17197.48
617.641	16798.12
617.836	16900.52
618.031	16671.15
618.226	17213.86
618.421	16931.24
618.616	16972.2
618.811	16730.54
619.006	16980.39
619.201	16314.8
619.396	16662.96
619.591	16337.33
619.786	16308.66
619.981	16267.7
620.176	16300.47
620.371	16122.29
620.566	16320.95
620.761	15962.55
620.956	16075.19
621.151	15950.26
621.346	15942.07
621.541	15645.12
621.735	15909.3
621.93	15368.64
622.125	15503.81
622.32	15577.53
622.515	15497.66
622.709	15382.98
622.904	15342.02
623.099	15169.99
623.294	15137.22
623.488	14815.69
623.683	14854.6
623.878	14899.66
624.072	14787.02
624.267	14696.91
624.462	14588.36
624.656	14399.95
624.851	14500.3
625.046	14379.47
625.24	14418.38
625.435	14166.48
625.629	14344.66
625.824	14219.73
626.018	13943.25
626.213	13638.11
626.407	13969.88
626.602	13580.76
626.796	13844.95
626.991	14041.56
627.185	13687.26
627.38	13717.98
627.574	13390.3
627.768	13160.93
627.963	13402.59
628.157	13191.65
628.352	13259.23
628.546	12921.32
628.74	13044.2
628.935	13064.68
629.129	12921.32
629.323	12915.17
629.517	12546.54
629.712	12839.4
629.906	12761.58
630.1	12509.68
630.294	12388.85
630.489	12204.53
630.683	12438
630.877	12415.47
631.071	12132.85
631.265	12321.26
631.459	12116.47
631.653	12116.47
631.848	12085.75
632.042	11977.2
632.236	11923.96
632.43	11747.83
632.624	11756.02
632.818	11708.92
633.012	11510.27
633.206	11432.44
633.4	11534.84
633.594	11334.14
633.788	11405.82
633.982	11475.45
634.176	11440.64
634.369	11178.5
634.563	11129.34
634.757	11051.52
634.951	11096.58
635.145	11069.95
635.339	10920.45
635.533	10740.23
635.726	10873.35
635.92	10457.61
636.114	10799.62
636.308	10545.67
636.501	10643.98
636.695	10523.15
636.889	10506.76
637.083	10490.38
637.276	10209.81
637.47	10392.08
637.664	10129.94
637.857	10359.31
638.051	10064.4
638.244	9943.57
638.438	10000.91
638.632	10127.89
638.825	9986.58
639.019	9929.24
639.212	9740.82
639.406	9634.33
639.599	9757.21
639.793	9642.52
639.986	9300.51
640.18	9601.56
640.373	9501.21
640.567	9243.17
640.76	9331.23
640.954	9222.69
641.147	9286.17
641.34	9239.07
641.534	9259.55
641.727	9114.14
641.92	9073.18
642.114	9044.51
642.307	9015.84
642.5	9114.14
642.694	8677.93
642.887	8720.93
643.08	8827.43
643.273	8694.31
643.467	8708.65
643.66	8809
643.853	8710.69
644.046	8608.3
644.239	8350.25
644.432	8409.64
644.626	8344.11
644.819	8374.83
645.012	8231.47
645.205	8309.29
645.398	8153.65
645.591	8297
645.784	8208.94
645.977	8047.15
646.17	8122.93
646.363	7842.35
646.556	8000.05
646.749	7918.13
646.942	8131.12
647.135	7983.66
647.328	7854.64
647.521	7836.21
647.714	7531.06
647.907	7660.09
648.099	7699
648.292	7627.32
648.485	7604.79
648.678	7529.02
648.871	7510.58
649.064	7287.36
649.256	7426.62
649.449	7471.67
649.642	7297.6
649.835	7256.64
650.027	7299.64
650.22	7094.85
650.413	7105.09
650.605	7262.78
650.798	6974.02
650.991	7148.09
651.183	7049.79
651.376	6957.63
651.568	6742.6
651.761	6867.52
651.954	6799.94
652.146	6814.27
652.339	6961.73
652.531	6621.77
652.724	6861.38
652.916	6656.58
653.109	6642.25
653.301	6431.3
653.494	6666.82
653.686	6447.69
653.879	6486.6
654.071	6466.12
654.263	6552.13
654.456	6468.17
654.648	6478.41
654.84	6451.78
655.033	6322.76
655.225	6169.16
655.417	6175.31
655.61	6136.4
655.802	6359.63
655.994	6052.43
656.186	6222.41
656.379	6109.77
656.571	6025.81
656.763	6023.76
656.955	5997.14
657.148	6031.95
657.34	5874.26
657.532	5902.93
657.724	5956.18
657.916	5790.29
658.108	5798.48
658.3	5646.93
658.492	5706.32
658.684	5732.95
658.876	5624.4
659.068	5548.63
659.26	5542.49
659.452	5773.91
659.644	5651.03
659.836	5552.73
660.028	5663.32
660.22	5452.38
660.412	5419.61
660.604	5448.28
660.796	5483.09
660.988	5407.32
661.18	5386.84
661.372	5284.44
661.563	5433.94
661.755	5542.49
661.947	5341.79
662.139	5309.02
662.331	5200.48
662.522	5030.49
662.714	4975.2
662.906	5122.65
663.097	4997.73
663.289	5032.54
663.481	4956.77
663.673	5040.73
663.864	4919.9
664.056	5003.87
664.247	4956.77
664.439	4852.32
664.631	4735.59
664.822	4831.84
665.014	4840.03
665.205	4684.39
665.397	4964.96
665.588	4758.11
665.78	4643.43
665.971	4766.31
666.163	4700.77
666.354	4637.28
666.546	4657.76
666.737	4627.04
666.929	4641.38
667.12	4579.94
667.311	4469.35
667.503	4442.73
667.694	4549.22
667.885	4606.56
668.077	4479.59
668.268	4422.25
668.459	4475.49
668.651	4452.97
668.842	4467.3
669.033	4373.1
669.224	4405.86
669.416	4328.04
669.607	4254.31
669.798	4307.56
669.989	4360.81
670.18	4239.98
670.371	4162.16
670.563	4164.2
670.754	4270.7
670.945	4203.11
671.136	4246.12
671.327	4139.63
671.518	4170.35
671.709	4094.57
671.9	4115.05
672.091	4143.72
672.282	4141.68
672.473	4031.09
672.664	4074.09
672.855	3975.79
673.046	4045.42
673.237	4043.37
673.428	3943.02
673.619	3936.88
673.809	3932.78
674	3955.31
674.191	4041.32
674.382	3854.96
674.573	4002.41
674.764	3877.49
674.954	3994.22
675.145	3807.86
675.336	3801.71
675.527	3846.77
675.717	3814
675.908	3785.33
676.099	3943.02
676.289	3848.82
676.48	3707.51
676.671	3770.99
676.861	3732.08
677.052	3760.75
677.243	3662.45
677.433	3721.84
677.624	3740.27
677.814	3664.5
678.005	3750.51
678.195	3639.92
678.386	3734.13
678.576	3646.07
678.767	3601.01
678.957	3652.21
679.148	3650.16
679.338	3572.34
679.529	3639.92
679.719	3506.81
679.909	3693.17
680.1	3570.29
680.29	3658.35
680.481	3482.23
680.671	3527.28
680.861	3529.33
681.052	3578.48
681.242	3326.58
681.432	3498.61
681.622	3517.04
681.813	3508.85
682.003	3469.94
682.193	3484.28
682.383	3471.99
682.573	3488.37
682.764	3349.11
682.954	3469.94
683.144	3515
683.334	3385.97
683.524	3345.02
683.714	3402.36
683.904	3310.2
684.094	3381.88
684.284	3418.74
684.474	3322.49
684.664	3224.19
684.854	3242.62
685.044	3332.73
685.234	3373.69
685.424	3144.31
685.614	3222.14
685.804	3285.62
685.994	3302.01
686.184	3373.69
686.374	3326.58
686.564	3308.15
686.753	3060.35
686.943	3230.33
687.133	3054.2
687.323	3162.75
687.513	3220.09
687.702	3232.38
687.892	2921.09
688.082	3177.08
688.272	3039.87
688.461	3066.49
688.651	3019.39
688.841	2974.33
689.03	3013.24
689.22	2990.72
689.41	3011.2
689.599	3050.11
689.789	2978.43
689.979	3021.44
690.168	3054.2
690.358	3052.16
690.547	2873.98
690.737	3072.64
690.926	2865.79
691.116	2878.08
691.305	2896.51
691.495	2806.4
691.684	2800.26
691.874	2867.84
692.063	2742.91
692.252	2843.26
692.442	2730.62
692.631	2755.2
692.82	2775.68
693.01	2738.82
693.199	2697.86
693.388	2798.21
693.578	2812.54
693.767	2747.01
693.956	2693.76
694.146	2704
694.335	2806.4
694.524	2595.46
694.713	2581.12
694.902	2607.75
695.092	2620.03
695.281	2585.22
695.47	2628.23
695.659	2675.33
695.848	2570.88
696.037	2609.79
696.226	2546.31
696.415	2636.42
696.604	2654.85
696.793	2589.32
696.982	2577.03
697.171	2742.91
697.36	2507.4
697.549	2609.79
697.738	2570.88
697.927	2654.85
698.116	2638.47
698.305	2585.22
698.494	2591.36
698.683	2611.84
698.872	2642.56
699.061	2536.07
699.25	2669.19
699.438	2441.86
699.627	2644.61
699.816	2572.93
700.005	2493.06
700.193	2421.38
700.382	2540.16
700.571	2589.32
700.76	2523.78
700.948	2538.12
701.137	2491.01
701.326	2597.51
701.514	2511.49
701.703	2546.31
701.892	2531.97
702.08	2583.17
702.269	2564.74
702.457	2480.77
702.646	2538.12
702.834	2552.45
703.023	2527.88
703.212	2603.65
703.4	2542.21
703.589	2546.31
703.777	2574.98
703.965	2558.6
704.154	2503.3
704.342	2474.63
704.531	2478.72
704.719	2507.4
704.907	2570.88
705.096	2491.01
705.284	2611.84
705.472	2503.3
705.661	2482.82
705.849	2579.08
706.037	2497.16
706.226	2458.25
706.414	2540.16
706.602	2425.48
706.79	2546.31
706.979	2501.25
707.167	2554.5
707.355	2511.49
707.543	2509.44
707.731	2556.55
707.919	2486.92
708.107	2615.94
708.296	2513.54
708.484	2620.03
708.672	2587.27
708.86	2581.12
709.048	2658.95
709.236	2566.79
709.424	2677.38
709.612	2587.27
709.8	2593.41
709.988	2570.88
710.176	2611.84
710.364	2591.36
710.551	2441.86
710.739	2570.88
710.927	2511.49
711.115	2448.01
711.303	2577.03
711.491	2484.87
711.679	2572.93
711.866	2617.99
712.054	2519.68
712.242	2570.88
712.43	2577.03
712.617	2611.84
712.805	2556.55
712.993	2620.03
713.181	2527.88
713.368	2456.2
713.556	2486.92
713.744	2646.66
713.931	2597.51
714.119	2513.54
714.306	2466.44
714.494	2572.93
714.682	2548.36
714.869	2511.49
715.057	2605.7
715.244	2409.09
715.432	2589.32
715.619	2562.69
715.807	2632.32
715.994	2521.73
716.182	2554.5
716.369	2558.6
716.556	2617.99
716.744	2443.91
716.931	2499.2
717.119	2536.07
717.306	2646.66
717.493	2409.09
717.681	2495.11
717.868	2476.68
718.055	2390.66
718.242	2468.48
718.43	2577.03
718.617	2542.21
718.804	2456.2
718.991	2423.43
719.179	2599.55
719.366	2468.48
719.553	2634.37
719.74	2550.4
719.927	2445.96
720.114	2411.14
720.301	2556.55
720.488	2556.55
720.676	2499.2
720.863	2552.45
721.05	2437.77
721.237	2495.11
721.424	2491.01
721.611	2421.38
721.798	2503.3
721.985	2529.92
722.172	2439.81
722.358	2437.77
722.545	2486.92
722.732	2456.2
722.919	2509.44
723.106	2511.49
723.293	2501.25
723.48	2521.73
723.667	2499.2
723.853	2448.01
724.04	2448.01
724.227	2511.49
724.414	2409.09
724.6	2413.19
724.787	2495.11
724.974	2443.91
725.161	2427.53
725.347	2415.24
725.534	2550.4
725.72	2482.82
725.907	2433.67
726.094	2505.35
726.28	2511.49
726.467	2372.23
726.653	2511.49
726.84	2443.91
727.027	2458.25
727.213	2374.28
727.4	2398.85
727.586	2321.03
727.773	2437.77
727.959	2413.19
728.145	2558.6
728.332	2460.29
728.518	2413.19
728.705	2390.66
728.891	2480.77
729.077	2491.01
729.264	2337.41
729.45	2505.35
729.636	2384.52
729.823	2384.52
730.009	2415.24
730.195	2450.05
730.382	2429.57
730.568	2431.62
730.754	2355.85
730.94	2441.86
731.126	2421.38
731.313	2558.6
731.499	2417.29
731.685	2478.72
731.871	2388.61
732.057	2491.01
732.243	2456.2
732.429	2429.57
732.615	2296.46
732.801	2327.18
732.987	2452.1
733.173	2392.71
733.359	2368.13
733.545	2378.37
733.731	2327.18
733.917	2458.25
734.103	2331.27
734.289	2460.29
734.475	2343.56
734.661	2300.55
734.847	2327.18
735.033	2353.8
735.219	2386.57
735.404	2265.74
735.59	2314.89
735.776	2251.4
735.962	2257.54
736.148	2169.48
736.333	2329.22
736.519	2290.31
736.705	2368.13
736.89	2353.8
737.076	2441.86
737.262	2275.98
737.447	2134.67
737.633	2327.18
737.819	2247.3
738.004	2308.74
738.19	2196.11
738.375	2224.78
738.561	2304.65
738.747	2144.91
738.932	2159.24
739.118	2296.46
739.303	2224.78
739.489	2212.49
739.674	2263.69
739.859	2280.07
740.045	2146.95
740.23	2230.92
740.416	2216.58
740.601	2101.9
740.786	2179.72
740.972	2079.37
741.157	2161.29
741.342	2202.25
741.528	2165.39
741.713	2140.81
741.898	2065.04
742.084	2210.44
742.269	2120.33
742.454	2169.48
742.639	2114.19
742.824	1997.45
743.01	2120.33
743.195	2013.84
743.38	1983.12
743.565	2052.75
743.75	2081.42
743.935	2073.23
744.12	2071.18
744.305	2011.79
744.49	2069.13
744.675	1997.45
744.86	1942.16
745.045	2054.8
745.23	1938.06
745.415	2009.74
745.6	2005.64
745.785	1907.34
745.97	1936.01
746.155	1843.85
746.34	1872.53
746.525	1907.34
746.71	2056.84
746.895	1835.66
747.079	1784.46
747.264	1843.85
747.449	1895.05
747.634	1911.44
747.819	1866.38
748.003	1743.5
748.188	1821.33
748.373	1819.28
748.557	1878.67
748.742	1802.9
748.927	1653.39
749.111	1757.84
749.296	1741.46
749.481	1669.78
749.665	1663.63
749.85	1770.13
750.034	1661.59
750.219	1735.31
750.404	1663.63
750.588	1684.11
750.773	1579.67
750.957	1653.39
751.141	1516.18
751.326	1567.38
751.51	1497.75
751.695	1628.82
751.879	1528.47
752.064	1645.2
752.248	1637.01
752.432	1534.61
752.617	1510.04
752.801	1626.77
752.985	1561.23
753.17	1594
753.354	1565.33
753.538	1606.29
753.722	1436.31
753.907	1483.41
754.091	1397.4
754.275	1424.02
754.459	1403.54
754.643	1479.32
754.828	1366.68
755.012	1348.25
755.196	1381.01
755.38	1430.16
755.564	1338.01
755.748	1321.62
755.932	1376.92
756.116	1368.73
756.3	1307.29
756.484	1262.23
756.668	1297.05
756.852	1241.75
757.036	1368.73
757.22	1200.79
757.404	1165.98
757.588	1213.08
757.772	1282.71
757.956	1219.22
758.14	1299.09
758.323	1213.08
758.507	1077.91
758.691	1225.37
758.875	1245.85
759.059	1129.11
759.242	1190.55
759.426	1174.17
759.61	1217.18
759.794	1120.92
759.977	1192.6
760.161	1262.23
760.345	1182.36
760.528	1163.93
760.712	1176.22
760.895	1170.07
761.079	1145.5
761.263	1090.2
761.446	1131.16
761.63	1059.48
761.813	1120.92
761.997	1051.29
762.18	1077.91
762.364	1004.19
762.547	1141.4
762.731	1116.83
762.914	1024.67
763.098	1043.1
763.281	1055.39
763.464	1010.33
763.648	1092.25
763.831	955.04
764.015	1057.43
764.198	1057.43
764.381	1047.19
764.564	1039
764.748	993.95
764.931	1000.09
765.114	979.61
765.297	973.47
765.481	996
765.664	1020.57
765.847	938.65
766.03	963.23
766.213	932.51
766.397	930.46
766.58	909.98
766.763	977.56
766.946	912.03
767.129	932.51
767.312	918.17
767.495	909.98
767.678	983.71
767.861	936.6
768.044	918.17
768.227	938.65
768.41	862.88
768.593	887.45
768.776	1020.57
768.959	875.17
769.142	832.16
769.324	860.83
769.507	801.44
769.69	838.3
769.873	914.08
770.056	879.26
770.239	846.49
770.421	963.23
770.604	879.26
770.787	889.5
770.97	854.69
771.152	817.82
771.335	817.82
771.518	858.78
771.7	883.36
771.883	938.65
772.066	864.93
772.248	809.63
772.431	838.3
772.613	778.91
772.796	780.96
772.978	787.1
773.161	842.4
773.343	842.4
773.526	760.48
773.708	842.4
773.891	756.38
774.073	733.86
774.256	803.49
774.438	785.05
774.621	719.52
774.803	776.86
774.985	676.51
775.168	709.28
775.35	692.9
775.532	662.18
775.715	629.41
775.897	813.73
776.079	619.17
776.261	709.28
776.444	778.91
776.626	680.61
776.808	658.08
776.99	645.79
777.173	688.8
777.355	778.91
777.537	768.67
777.719	699.04
777.901	715.42
778.083	656.03
778.265	617.12
778.447	731.81
778.629	565.92
778.811	602.79
778.993	555.68
779.175	709.28
779.357	586.4
779.539	547.49
779.721	465.57
779.903	557.73
780.085	570.02
780.267	547.49
780.449	619.17
780.631	565.92
780.812	590.5
780.994	533.15
781.176	567.97
781.358	574.11
781.54	574.11
781.721	567.97
781.903	500.39
782.085	492.2
782.267	563.87
782.448	488.1
782.63	512.67
782.812	572.07
782.993	565.92
783.175	512.67
783.357	543.39
783.538	531.11
783.72	436.9
783.901	465.57
784.083	455.33
784.264	555.68
784.446	520.87
784.627	457.38
784.809	488.1
784.99	524.96
785.172	412.32
785.353	473.76
785.535	563.87
785.716	486.05
785.897	441
786.079	459.43
786.26	504.48
786.441	336.55
786.623	424.61
786.804	516.77
786.985	406.18
787.167	422.56
787.348	418.47
787.529	481.96
787.71	465.57
787.891	377.51
788.073	418.47
788.254	393.89
788.435	383.65
788.616	434.85
788.797	375.46
788.978	381.6
789.159	389.8
789.34	375.46
789.522	363.17
789.703	359.08
789.884	330.41
790.065	461.48
790.246	377.51
790.427	379.56
790.607	324.26
790.788	404.13
790.969	320.17
791.15	348.84
791.331	406.18
791.512	326.31
791.693	404.13
791.874	418.47
792.054	379.56
792.235	303.78
792.416	318.12
792.597	354.98
792.778	326.31
792.958	295.59
793.139	381.6
793.32	387.75
793.5	256.68
793.681	338.6
793.862	318.12
794.042	348.84
794.223	287.4
794.404	295.59
794.584	260.77
794.765	268.97
794.945	262.82
795.126	328.36
795.306	291.49
795.487	371.37
795.667	297.64
795.848	320.17
796.028	393.89
796.209	311.97
796.389	318.12
796.57	305.83
796.75	283.3
796.93	264.87
797.111	264.87
797.291	293.54
797.471	256.68
797.652	242.34
797.832	232.1
798.012	293.54
798.192	318.12
798.373	256.68
798.553	291.49
798.733	236.2
798.913	217.77
799.093	297.64
799.274	213.67
799.454	305.83
799.634	248.49
799.814	254.63
799.994	225.96
800.174	301.73
800.354	287.4
800.534	254.63
800.714	262.82
800.894	283.3
801.074	213.67
801.254	209.58
801.434	260.77
801.614	252.58
801.794	205.48
801.974	494.24
802.154	193.19
802.334	139.94
802.514	223.91
802.693	201.38
802.873	279.21
803.053	211.62
803.233	195.24
803.413	230.06
803.592	238.25
803.772	217.77
803.952	271.01
804.131	201.38
804.311	246.44
804.491	219.82
804.67	242.34
804.85	223.91
805.03	215.72
805.209	174.76
805.389	144.04
805.568	137.9
805.748	279.21
805.928	236.2
806.107	158.38
806.287	154.28
806.466	246.44
806.646	209.58
806.825	246.44
807.004	199.34
807.184	172.71
807.363	279.21
807.543	262.82
807.722	139.94
807.901	273.06
808.081	193.19
808.26	137.9
808.439	236.2
808.619	123.56
808.798	70.31
808.977	236.2
809.156	166.57
809.336	137.9
809.515	207.53
809.694	213.67
809.873	166.57
810.052	195.24
810.231	217.77
810.411	238.25
810.59	250.53
810.769	203.43
810.948	144.04
811.127	133.8
811.306	150.18
811.485	162.47
811.664	201.38
811.843	127.66
812.022	127.66
812.201	146.09
812.38	123.56
812.559	152.23
812.737	185
812.916	111.27
813.095	154.28
813.274	195.24
813.453	150.18
813.632	84.65
813.811	156.33
813.989	133.8
814.168	197.29
814.347	133.8
814.526	168.62
814.704	189.1
814.883	131.75
815.062	105.13
815.24	252.58
815.419	166.57
815.598	127.66
815.776	111.27
815.955	158.38
816.133	170.66
816.312	101.03
816.49	96.94
816.669	103.08
816.847	187.05
817.026	123.56
817.204	158.38
817.383	189.1
817.561	105.13
817.74	187.05
817.918	131.75
818.097	131.75
818.275	109.22
818.453	135.85
818.632	103.08
818.81	137.9
818.988	174.76
819.167	123.56
819.345	70.31
819.523	148.14
819.701	144.04
819.879	84.65
820.058	115.37
820.236	117.42
820.414	94.89
820.592	53.93
820.77	121.51
820.948	125.61
821.127	47.79
821.305	129.7
821.483	123.56
821.661	172.71
821.839	174.76
822.017	152.23
822.195	66.22
822.373	92.84
822.551	129.7
822.729	109.22
822.907	101.03
823.085	121.51
823.262	78.51
823.44	162.47
823.618	101.03
823.796	137.9
823.974	88.75
824.152	60.07
824.329	160.42
824.507	105.13
824.685	141.99
824.863	129.7
825.04	137.9
825.218	129.7
825.396	92.84
825.574	92.84
825.751	125.61
825.929	96.94
826.107	64.17
826.284	66.22
826.462	107.18
826.639	80.55
826.817	-17.75
826.994	82.6
827.172	129.7
827.349	158.38
827.527	74.41
827.704	105.13
827.882	58.03
828.059	74.41
828.237	148.14
828.414	127.66
828.591	107.18
828.769	162.47
828.946	109.22
829.124	109.22
829.301	156.33
829.478	92.84
829.655	139.94
829.833	60.07
830.01	109.22
830.187	60.07
830.364	64.17
830.542	74.41
830.719	72.36
830.896	154.28
831.073	152.23
831.25	139.94
831.427	98.99
831.604	72.36
831.782	111.27
831.959	119.46
832.136	98.99
832.313	109.22
832.49	53.93
832.667	123.56
832.844	43.69
833.021	90.79
833.198	185
833.374	107.18
833.551	90.79
833.728	144.04
833.905	8.87
834.082	15.02
834.259	150.18
834.436	78.51
834.612	62.12
834.789	88.75
834.966	115.37
835.143	92.84
835.319	103.08
835.496	139.94
835.673	107.18
835.85	105.13
836.026	72.36
836.203	113.32
836.38	76.46
836.556	35.5
836.733	80.55
836.909	64.17
837.086	121.51
837.262	107.18
837.439	88.75
837.616	84.65
837.792	41.64
837.968	103.08
838.145	60.07
838.321	90.79
838.498	101.03
838.674	27.31
838.851	45.74
839.027	41.64
839.203	76.46
839.38	127.66
839.556	19.11
839.732	80.55
839.909	23.21
840.085	125.61
840.261	82.6
840.437	84.65
840.614	133.8
840.79	141.99
840.966	55.98
841.142	131.75
841.318	23.21
841.494	55.98
841.671	88.75
841.847	53.93
842.023	53.93
842.199	78.51
842.375	127.66
842.551	21.16
842.727	82.6
842.903	86.7
843.079	68.27
843.255	113.32
843.431	21.16
843.607	62.12
843.783	66.22
843.959	105.13
844.134	49.83
844.31	103.08
844.486	88.75
844.662	94.89
844.838	8.87
845.013	62.12
845.189	62.12
845.365	72.36
845.541	123.56
845.716	115.37
845.892	27.31
846.068	62.12
846.244	96.94
846.419	49.83
846.595	43.69
846.77	33.45
846.946	35.5
847.122	19.11
847.297	41.64
847.473	88.75
847.648	-5.46
847.824	170.66
847.999	-36.18
848.175	19.11
848.35	25.26
848.526	58.03
848.701	60.07
848.876	37.55
849.052	27.31
849.227	55.98
849.403	43.69
849.578	49.83
849.753	80.55
849.929	64.17
850.104	137.9
850.279	80.55
850.454	144.04
850.63	82.6
850.805	82.6
850.98	96.94
851.155	105.13
851.33	25.26
851.505	-50.52
851.681	103.08
851.856	82.6
852.031	70.31
852.206	-7.51
852.381	55.98
852.556	78.51
852.731	121.51
852.906	17.07
853.081	12.97
853.256	60.07
853.431	19.11
853.606	58.03
853.781	53.93
853.956	8.87
854.131	39.59
854.305	-44.37
854.48	29.35
854.655	62.12
854.83	55.98
855.005	33.45
855.18	45.74
855.354	37.55
855.529	68.27
855.704	60.07
855.879	62.12
856.053	41.64
856.228	66.22
856.403	49.83
856.577	-5.46
856.752	49.83
856.926	117.42
857.101	76.46
857.276	-11.61
857.45	76.46
857.625	37.55
857.799	98.99
857.974	64.17
858.148	-30.04
858.323	72.36
858.497	-5.46
858.672	64.17
858.846	39.59
859.02	47.79
859.195	43.69
859.369	35.5
859.543	66.22
859.718	47.79
859.892	41.64
860.066	21.16
860.241	31.4
860.415	23.21
860.589	-1.37
860.763	21.16
860.938	72.36
861.112	15.02
861.286	-32.08
861.46	27.31
861.634	17.07
861.808	156.33
861.982	17.07
862.157	31.4
862.331	72.36
862.505	21.16
862.679	15.02
862.853	-3.41
863.027	68.27
863.201	66.22
863.375	45.74
863.549	43.69
863.722	25.26
863.896	17.07
864.07	-3.41
864.244	-13.65
864.418	35.5
864.592	53.93
864.766	70.31
864.939	86.7
865.113	-23.89
865.287	53.93
865.461	45.74
865.634	86.7
865.808	58.03
865.982	25.26
866.156	70.31
866.329	66.22
866.503	45.74
866.676	113.32
866.85	10.92
867.024	-11.61
867.197	51.88
867.371	72.36
867.544	29.35
867.718	43.69
867.891	115.37
868.065	6.83
868.238	17.07
868.412	6.83
868.585	0.68
868.759	27.31
868.932	86.7
869.105	-11.61
869.279	49.83
869.452	-7.51
869.625	60.07
869.799	29.35
869.972	37.55
870.145	21.16
870.319	37.55
870.492	23.21
870.665	21.16
870.838	25.26
871.011	53.93
871.185	0.68
871.358	33.45
871.531	49.83
871.704	-48.47
871.877	74.41
872.05	35.5
872.223	27.31
872.396	25.26
872.569	55.98
872.742	43.69
872.915	-1.37
873.088	49.83
873.261	41.64
873.434	15.02
873.607	70.31
873.78	6.83
873.953	10.92
874.126	62.12
874.299	-30.04
874.471	-32.08
874.644	55.98
874.817	25.26
874.99	15.02
875.163	6.83
875.335	84.65
875.508	43.69
875.681	17.07
875.853	49.83
876.026	47.79
876.199	19.11
876.371	74.41
876.544	-13.65
876.717	45.74
876.889	17.07
877.062	129.7
877.234	58.03
877.407	25.26
877.579	-52.56
877.752	66.22
877.924	33.45
878.097	45.74
878.269	-40.28
878.442	55.98
878.614	8.87
878.786	58.03
878.959	70.31
879.131	51.88
879.303	-7.51
879.476	31.4
879.648	101.03
879.82	60.07
879.993	25.26
880.165	80.55
880.337	37.55
880.509	-62.8
880.681	45.74
880.854	12.97
881.026	39.59
881.198	70.31
881.37	39.59
881.542	35.5
881.714	53.93
881.886	0.68
882.058	45.74
882.23	19.11
882.402	43.69
882.574	15.02
882.746	23.21
882.918	49.83
883.09	47.79
883.262	62.12
883.434	-13.65
883.606	2.73
883.778	10.92
883.95	101.03
884.122	25.26
884.293	12.97
884.465	19.11
884.637	21.16
884.809	-23.89
884.98	-17.75
885.152	21.16
885.324	-1.37
885.496	33.45
885.667	10.92
885.839	27.31
886.011	0.68
886.182	76.46
886.354	31.4
886.525	-5.46
886.697	47.79
886.869	-1.37
887.04	53.93
887.212	25.26
887.383	113.32
887.555	21.16
887.726	0.68
887.897	-21.85
888.069	12.97
888.24	55.98
888.412	6.83
888.583	37.55
888.754	53.93
888.926	-9.56
889.097	2.73
889.268	-21.85
889.44	45.74
889.611	-27.99
889.782	-23.89
889.953	-23.89
890.125	15.02
890.296	25.26
890.467	-21.85
890.638	-3.41
890.809	45.74
890.98	-66.9
891.151	41.64
891.323	76.46
891.494	41.64
891.665	25.26
891.836	35.5
892.007	33.45
892.178	49.83
892.349	70.31
892.52	2.73
892.691	58.03
892.862	109.22
893.032	43.69
893.203	21.16
893.374	15.02
893.545	19.11
893.716	-19.8
893.887	-23.89
894.057	70.31
894.228	12.97
894.399	-73.04
894.57	68.27
894.74	-66.9
894.911	33.45
895.082	-44.37
895.253	-23.89
895.423	-11.61
895.594	82.6
895.764	21.16
895.935	21.16
896.106	17.07
896.276	53.93
896.447	49.83
896.617	60.07
896.788	19.11
896.958	31.4
897.129	-42.32
897.299	8.87
897.47	19.11
897.64	23.21
897.81	0.68
897.981	68.27
898.151	-13.65
898.322	51.88
898.492	49.83
898.662	-15.7
898.832	27.31
899.003	-1.37
899.173	2.73
899.343	12.97
899.513	17.07
