Data from USB4F104151__16__12-00-26-474.txt Node

Date: Fri Mar 14 12:00:26 EDT 2025
User: louis
Spectrometer: USB4F10415
Trigger mode: 4
Integration Time (sec): 2.000000E-2
Scans to average: 1
Electric dark correction enabled: true
Nonlinearity correction enabled: false
Boxcar width: 0
XAxis mode: Wavelengths
Number of Pixels in Spectrum: 3648
>>>>>Begin Spectral Data<<<<<
178.204	-108.03
178.424	-108.03
178.644	-108.03
178.864	10.75
179.084	-69.12
179.304	-3.58
179.524	-30.21
179.744	33.28
179.964	25.09
180.184	14.85
180.404	2.56
180.624	-48.64
180.844	-11.78
181.064	39.42
181.283	-7.68
181.503	-42.5
181.723	29.18
181.943	-34.3
182.163	25.09
182.383	-40.45
182.602	86.53
182.822	4.61
183.042	-60.93
183.262	41.47
183.482	8.7
183.701	33.28
183.921	59.9
184.141	12.8
184.361	2.56
184.58	49.66
184.8	25.09
185.02	31.23
185.239	43.52
185.459	33.28
185.679	-15.87
185.898	4.61
186.118	37.38
186.338	-7.68
186.557	43.52
186.777	37.38
186.997	37.38
187.216	-73.21
187.436	111.1
187.655	-3.58
187.875	8.7
188.095	57.86
188.314	-22.02
188.534	70.14
188.753	-15.87
188.973	16.9
189.192	25.09
189.412	20.99
189.631	-34.3
189.851	45.57
190.07	20.99
190.29	-46.59
190.509	43.52
190.729	-15.87
190.948	-13.82
191.168	72.19
191.387	39.42
191.607	35.33
191.826	39.42
192.045	-67.07
192.265	-1.54
192.484	-40.45
192.704	16.9
192.923	-40.45
193.142	31.23
193.362	16.9
193.581	33.28
193.8	43.52
194.02	33.28
194.239	12.8
194.458	-5.63
194.678	16.9
194.897	0.51
195.116	2.56
195.335	-3.58
195.555	39.42
195.774	57.86
195.993	55.81
196.212	10.75
196.432	23.04
196.651	100.86
196.87	45.57
197.089	102.91
197.308	-11.78
197.528	35.33
197.747	31.23
197.966	25.09
198.185	127.49
198.404	-7.68
198.623	25.09
198.842	78.33
199.062	10.75
199.281	14.85
199.5	-52.74
199.719	-1.54
199.938	41.47
200.157	61.95
200.376	45.57
200.595	4.61
200.814	-15.87
201.033	47.62
201.252	-5.63
201.471	-34.3
201.69	20.99
201.909	31.23
202.128	23.04
202.347	100.86
202.566	45.57
202.785	33.28
203.004	-52.74
203.223	78.33
203.442	-7.68
203.661	29.18
203.879	25.09
204.098	96.77
204.317	-26.11
204.536	-30.21
204.755	-1.54
204.974	-13.82
205.193	25.09
205.411	76.29
205.63	-15.87
205.849	18.94
206.068	29.18
206.287	10.75
206.505	20.99
206.724	20.99
206.943	-50.69
207.162	51.71
207.381	74.24
207.599	102.91
207.818	-17.92
208.037	47.62
208.255	-44.54
208.474	-58.88
208.693	41.47
208.911	-28.16
209.13	53.76
209.349	90.62
209.567	8.7
209.786	16.9
210.005	39.42
210.223	47.62
210.442	-32.26
210.661	33.28
210.879	-24.06
211.098	41.47
211.316	43.52
211.535	27.14
211.753	-30.21
211.972	18.94
212.191	-5.63
212.409	14.85
212.628	-1.54
212.846	6.66
213.065	-1.54
213.283	53.76
213.502	4.61
213.72	12.8
213.938	4.61
214.157	43.52
214.375	-46.59
214.594	14.85
214.812	6.66
215.031	-36.35
215.249	70.14
215.467	-5.63
215.686	53.76
215.904	98.81
216.122	16.9
216.341	76.29
216.559	45.57
216.778	53.76
216.996	-15.87
217.214	61.95
217.432	-11.78
217.651	20.99
217.869	-11.78
218.087	74.24
218.306	8.7
218.524	6.66
218.742	-52.74
218.96	4.61
219.179	-17.92
219.397	4.61
219.615	-11.78
219.833	4.61
220.051	6.66
220.27	78.33
220.488	29.18
220.706	57.86
220.924	20.99
221.142	20.99
221.36	57.86
221.578	74.24
221.796	90.62
222.015	-54.78
222.233	59.9
222.451	18.94
222.669	152.06
222.887	16.9
223.105	37.38
223.323	72.19
223.541	-54.78
223.759	70.14
223.977	8.7
224.195	84.48
224.413	61.95
224.631	59.9
224.849	33.28
225.067	100.86
225.285	-13.82
225.503	47.62
225.721	0.51
225.939	70.14
226.157	25.09
226.375	35.33
226.592	-34.3
226.81	16.9
227.028	4.61
227.246	41.47
227.464	-28.16
227.682	-1.54
227.9	-5.63
228.117	47.62
228.335	55.81
228.553	10.75
228.771	-3.58
228.989	6.66
229.206	2.56
229.424	-9.73
229.642	-73.21
229.86	31.23
230.077	0.51
230.295	6.66
230.513	127.49
230.731	14.85
230.948	-9.73
231.166	-13.82
231.384	61.95
231.601	2.56
231.819	98.81
232.037	66.05
232.254	78.33
232.472	70.14
232.689	-9.73
232.907	53.76
233.125	23.04
233.342	-46.59
233.56	41.47
233.777	27.14
233.995	4.61
234.213	66.05
234.43	78.33
234.648	-24.06
234.865	6.66
235.083	100.86
235.3	-58.88
235.518	86.53
235.735	29.18
235.953	70.14
236.17	8.7
236.388	100.86
236.605	39.42
236.822	-30.21
237.04	25.09
237.257	113.15
237.475	-24.06
237.692	43.52
237.909	10.75
238.127	12.8
238.344	-17.92
238.562	55.81
238.779	-52.74
238.996	-40.45
239.214	-17.92
239.431	76.29
239.648	-36.35
239.865	33.28
240.083	-24.06
240.3	-3.58
240.517	0.51
240.735	43.52
240.952	55.81
241.169	2.56
241.386	20.99
241.603	20.99
241.821	-17.92
242.038	76.29
242.255	102.91
242.472	102.91
242.689	23.04
242.907	-32.26
243.124	-67.07
243.341	2.56
243.558	-34.3
243.775	20.99
243.992	29.18
244.209	41.47
244.426	27.14
244.643	18.94
244.86	41.47
245.078	-15.87
245.295	35.33
245.512	51.71
245.729	27.14
245.946	55.81
246.163	-17.92
246.38	-34.3
246.597	53.76
246.814	18.94
247.031	94.72
247.248	6.66
247.464	-17.92
247.681	-60.93
247.898	88.57
248.115	-5.63
248.332	-17.92
248.549	-34.3
248.766	41.47
248.983	29.18
249.2	0.51
249.417	23.04
249.633	53.76
249.85	-30.21
250.067	-32.26
250.284	0.51
250.501	-32.26
250.717	23.04
250.934	-7.68
251.151	66.05
251.368	-26.11
251.585	49.66
251.801	-65.02
252.018	72.19
252.235	37.38
252.451	31.23
252.668	57.86
252.885	-15.87
253.102	25.09
253.318	-22.02
253.535	6.66
253.752	-1.54
253.968	-15.87
254.185	16.9
254.401	6.66
254.618	61.95
254.835	-32.26
255.051	53.76
255.268	39.42
255.484	-46.59
255.701	25.09
255.917	90.62
256.134	-34.3
256.351	94.72
256.567	-34.3
256.784	29.18
257	-17.92
257.217	-9.73
257.433	12.8
257.65	94.72
257.866	59.9
258.082	-17.92
258.299	18.94
258.515	-5.63
258.732	-17.92
258.948	61.95
259.165	41.47
259.381	57.86
259.597	-34.3
259.814	49.66
260.03	-17.92
260.246	-1.54
260.463	14.85
260.679	-5.63
260.895	0.51
261.112	-3.58
261.328	37.38
261.544	-7.68
261.761	90.62
261.977	-19.97
262.193	47.62
262.409	68.09
262.626	35.33
262.842	84.48
263.058	-7.68
263.274	-3.58
263.49	16.9
263.707	74.24
263.923	16.9
264.139	64
264.355	6.66
264.571	16.9
264.787	16.9
265.004	-36.35
265.22	-52.74
265.436	47.62
265.652	43.52
265.868	-5.63
266.084	25.09
266.3	43.52
266.516	-46.59
266.732	78.33
266.948	33.28
267.164	23.04
267.38	59.9
267.596	51.71
267.812	66.05
268.028	45.57
268.244	43.52
268.46	4.61
268.676	59.9
268.892	111.1
269.108	2.56
269.324	6.66
269.54	-52.74
269.756	74.24
269.972	-3.58
270.188	-1.54
270.403	8.7
270.619	64
270.835	94.72
271.051	-19.97
271.267	10.75
271.483	-19.97
271.698	12.8
271.914	61.95
272.13	14.85
272.346	41.47
272.562	-5.63
272.777	64
272.993	41.47
273.209	-110.08
273.425	59.9
273.64	-38.4
273.856	29.18
274.072	8.7
274.287	47.62
274.503	74.24
274.719	25.09
274.934	-7.68
275.15	-19.97
275.366	59.9
275.581	-3.58
275.797	16.9
276.012	66.05
276.228	6.66
276.444	33.28
276.659	27.14
276.875	-11.78
277.09	-54.78
277.306	-15.87
277.521	49.66
277.737	41.47
277.952	51.71
278.168	84.48
278.383	70.14
278.599	-9.73
278.814	68.09
279.03	64
279.245	92.67
279.461	41.47
279.676	109.05
279.892	33.28
280.107	49.66
280.322	-3.58
280.538	92.67
280.753	6.66
280.969	-13.82
281.184	-32.26
281.399	78.33
281.615	-48.64
281.83	70.14
282.045	10.75
282.26	-42.5
282.476	61.95
282.691	25.09
282.906	23.04
283.122	29.18
283.337	6.66
283.552	68.09
283.767	31.23
283.983	66.05
284.198	-9.73
284.413	92.67
284.628	-3.58
284.843	-1.54
285.058	31.23
285.274	-56.83
285.489	-22.02
285.704	49.66
285.919	51.71
286.134	29.18
286.349	-17.92
286.564	-7.68
286.779	31.23
286.995	-36.35
287.21	-34.3
287.425	-3.58
287.64	61.95
287.855	41.47
288.07	-44.54
288.285	14.85
288.5	55.81
288.715	-7.68
288.93	14.85
289.145	84.48
289.36	-15.87
289.575	37.38
289.79	37.38
290.004	64
290.219	23.04
290.434	-52.74
290.649	35.33
290.864	70.14
291.079	41.47
291.294	47.62
291.509	-19.97
291.724	25.09
291.938	49.66
292.153	-13.82
292.368	6.66
292.583	68.09
292.798	-7.68
293.012	41.47
293.227	47.62
293.442	49.66
293.657	33.28
293.871	25.09
294.086	-46.59
294.301	74.24
294.516	84.48
294.73	20.99
294.945	-13.82
295.16	27.14
295.374	45.57
295.589	45.57
295.804	-75.26
296.018	2.56
296.233	98.81
296.447	31.23
296.662	27.14
296.877	76.29
297.091	-13.82
297.306	64
297.52	53.76
297.735	20.99
297.949	18.94
298.164	49.66
298.378	18.94
298.593	-13.82
298.807	-52.74
299.022	-1.54
299.236	41.47
299.451	121.34
299.665	-24.06
299.88	107.01
300.094	53.76
300.309	64
300.523	14.85
300.737	-24.06
300.952	-28.16
301.166	29.18
301.381	2.56
301.595	88.57
301.809	-32.26
302.024	16.9
302.238	-50.69
302.452	86.53
302.667	45.57
302.881	51.71
303.095	80.38
303.309	76.29
303.524	-54.78
303.738	45.57
303.952	35.33
304.166	82.43
304.381	14.85
304.595	23.04
304.809	8.7
305.023	16.9
305.237	-11.78
305.452	41.47
305.666	-1.54
305.88	-7.68
306.094	41.47
306.308	43.52
306.522	109.05
306.736	4.61
306.95	76.29
307.164	59.9
307.379	59.9
307.593	66.05
307.807	49.66
308.021	70.14
308.235	-1.54
308.449	6.66
308.663	113.15
308.877	-3.58
309.091	41.47
309.305	6.66
309.519	-42.5
309.733	16.9
309.947	39.42
310.161	41.47
310.374	78.33
310.588	64
310.802	16.9
311.016	14.85
311.23	37.38
311.444	35.33
311.658	-24.06
311.872	-65.02
312.085	12.8
312.299	39.42
312.513	139.77
312.727	10.75
312.941	33.28
313.154	72.19
313.368	14.85
313.582	90.62
313.796	66.05
314.009	-52.74
314.223	61.95
314.437	-11.78
314.651	-3.58
314.864	-46.59
315.078	-7.68
315.292	-7.68
315.505	-38.4
315.719	-1.54
315.933	-3.58
316.146	23.04
316.36	64
316.573	74.24
316.787	41.47
317.001	16.9
317.214	39.42
317.428	27.14
317.641	37.38
317.855	29.18
318.068	29.18
318.282	80.38
318.495	43.52
318.709	23.04
318.922	80.38
319.136	-9.73
319.349	64
319.563	-58.88
319.776	39.42
319.99	4.61
320.203	25.09
320.417	35.33
320.63	-3.58
320.843	96.77
321.057	16.9
321.27	51.71
321.483	18.94
321.697	96.77
321.91	82.43
322.124	96.77
322.337	66.05
322.55	6.66
322.763	12.8
322.977	29.18
323.19	14.85
323.403	57.86
323.617	-1.54
323.83	23.04
324.043	-52.74
324.256	43.52
324.469	57.86
324.683	57.86
324.896	119.29
325.109	51.71
325.322	-1.54
325.535	125.44
325.748	41.47
325.962	33.28
326.175	16.9
326.388	18.94
326.601	2.56
326.814	-5.63
327.027	51.71
327.24	53.76
327.453	14.85
327.666	18.94
327.879	33.28
328.092	-22.02
328.305	29.18
328.518	-19.97
328.731	59.9
328.944	4.61
329.157	125.44
329.37	-7.68
329.583	92.67
329.796	119.29
330.009	-7.68
330.222	84.48
330.435	43.52
330.648	-28.16
330.861	-22.02
331.073	-54.78
331.286	88.57
331.499	-13.82
331.712	23.04
331.925	47.62
332.138	53.76
332.35	8.7
332.563	37.38
332.776	39.42
332.989	-5.63
333.202	-5.63
333.414	4.61
333.627	2.56
333.84	49.66
334.053	86.53
334.265	29.18
334.478	45.57
334.691	27.14
334.903	20.99
335.116	102.91
335.329	37.38
335.541	8.7
335.754	47.62
335.966	4.61
336.179	55.81
336.392	-11.78
336.604	12.8
336.817	33.28
337.029	39.42
337.242	-28.16
337.454	25.09
337.667	133.63
337.88	45.57
338.092	-50.69
338.305	45.57
338.517	35.33
338.729	45.57
338.942	0.51
339.154	45.57
339.367	-7.68
339.579	25.09
339.792	18.94
340.004	113.15
340.217	29.18
340.429	33.28
340.641	-7.68
340.854	59.9
341.066	-3.58
341.278	72.19
341.491	90.62
341.703	35.33
341.915	-11.78
342.128	2.56
342.34	2.56
342.552	-38.4
342.764	23.04
342.977	-34.3
343.189	113.15
343.401	98.81
343.613	16.9
343.826	33.28
344.038	-19.97
344.25	-1.54
344.462	-9.73
344.674	51.71
344.886	94.72
345.099	16.9
345.311	31.23
345.523	23.04
345.735	27.14
345.947	39.42
346.159	-38.4
346.371	49.66
346.583	49.66
346.795	76.29
347.007	23.04
347.219	6.66
347.431	-15.87
347.643	-1.54
347.855	78.33
348.067	68.09
348.279	-40.45
348.491	45.57
348.703	47.62
348.915	20.99
349.127	66.05
349.339	39.42
349.551	90.62
349.763	0.51
349.975	59.9
350.187	76.29
350.399	12.8
350.61	27.14
350.822	27.14
351.034	4.61
351.246	57.86
351.458	37.38
351.669	59.9
351.881	64
352.093	102.91
352.305	57.86
352.517	8.7
352.728	35.33
352.94	53.76
353.152	16.9
353.363	88.57
353.575	31.23
353.787	12.8
353.999	-1.54
354.21	10.75
354.422	23.04
354.633	41.47
354.845	-1.54
355.057	-5.63
355.268	92.67
355.48	61.95
355.692	0.51
355.903	-5.63
356.115	37.38
356.326	53.76
356.538	76.29
356.749	-26.11
356.961	115.2
357.172	74.24
357.384	-11.78
357.595	20.99
357.807	41.47
358.018	72.19
358.23	12.8
358.441	59.9
358.653	8.7
358.864	16.9
359.075	-3.58
359.287	33.28
359.498	23.04
359.709	-40.45
359.921	41.47
360.132	14.85
360.344	37.38
360.555	-30.21
360.766	29.18
360.977	2.56
361.189	92.67
361.4	16.9
361.611	100.86
361.823	59.9
362.034	59.9
362.245	18.94
362.456	31.23
362.667	-32.26
362.879	23.04
363.09	-3.58
363.301	-48.64
363.512	33.28
363.723	59.9
363.935	-24.06
364.146	96.77
364.357	74.24
364.568	43.52
364.779	18.94
364.99	23.04
365.201	-65.02
365.412	111.1
365.623	4.61
365.834	-1.54
366.045	39.42
366.256	35.33
366.467	74.24
366.678	59.9
366.889	45.57
367.1	51.71
367.311	82.43
367.522	49.66
367.733	61.95
367.944	107.01
368.155	35.33
368.366	66.05
368.577	2.56
368.788	37.38
368.999	23.04
369.209	-28.16
369.42	51.71
369.631	119.29
369.842	47.62
370.053	72.19
370.264	88.57
370.474	51.71
370.685	61.95
370.896	57.86
371.107	2.56
371.317	-38.4
371.528	-7.68
371.739	61.95
371.95	18.94
372.16	-56.83
372.371	23.04
372.582	43.52
372.792	66.05
373.003	188.93
373.214	-15.87
373.424	45.57
373.635	129.53
373.846	33.28
374.056	25.09
374.267	78.33
374.477	0.51
374.688	-36.35
374.898	53.76
375.109	84.48
375.319	-7.68
375.53	43.52
375.74	-5.63
375.951	-32.26
376.161	94.72
376.372	-38.4
376.582	107.01
376.793	49.66
377.003	-11.78
377.214	29.18
377.424	27.14
377.635	70.14
377.845	57.86
378.055	33.28
378.266	-19.97
378.476	51.71
378.686	78.33
378.897	27.14
379.107	90.62
379.317	45.57
379.528	61.95
379.738	84.48
379.948	12.8
380.158	45.57
380.369	90.62
380.579	84.48
380.789	-24.06
380.999	41.47
381.21	8.7
381.42	53.76
381.63	33.28
381.84	45.57
382.05	35.33
382.261	29.18
382.471	31.23
382.681	31.23
382.891	76.29
383.101	-15.87
383.311	-48.64
383.521	-110.08
383.731	27.14
383.941	45.57
384.151	53.76
384.361	47.62
384.571	51.71
384.781	27.14
384.991	41.47
385.201	90.62
385.411	59.9
385.621	111.1
385.831	-28.16
386.041	29.18
386.251	55.81
386.461	121.34
386.671	-17.92
386.881	70.14
387.091	100.86
387.301	55.81
387.511	33.28
387.72	14.85
387.93	76.29
388.14	12.8
388.35	-11.78
388.56	37.38
388.769	45.57
388.979	68.09
389.189	18.94
389.399	55.81
389.609	55.81
389.818	45.57
390.028	64
390.238	84.48
390.447	20.99
390.657	84.48
390.867	8.7
391.076	55.81
391.286	82.43
391.496	135.68
391.705	109.05
391.915	74.24
392.125	43.52
392.334	-22.02
392.544	80.38
392.753	37.38
392.963	25.09
393.172	98.81
393.382	-26.11
393.591	47.62
393.801	49.66
394.01	74.24
394.22	-5.63
394.429	66.05
394.639	55.81
394.848	64
395.058	41.47
395.267	70.14
395.477	102.91
395.686	107.01
395.895	78.33
396.105	127.49
396.314	121.34
396.524	-19.97
396.733	33.28
396.942	82.43
397.152	119.29
397.361	96.77
397.57	74.24
397.78	143.87
397.989	29.18
398.198	119.29
398.407	76.29
398.617	129.53
398.826	66.05
399.035	82.43
399.244	82.43
399.453	92.67
399.663	133.63
399.872	125.44
400.081	90.62
400.29	109.05
400.499	47.62
400.708	170.49
400.917	88.57
401.127	158.21
401.336	143.87
401.545	123.39
401.754	31.23
401.963	68.09
402.172	143.87
402.381	94.72
402.59	100.86
402.799	59.9
403.008	152.06
403.217	104.96
403.426	72.19
403.635	45.57
403.844	100.86
404.053	86.53
404.262	127.49
404.471	188.93
404.68	162.3
404.888	147.97
405.097	121.34
405.306	152.06
405.515	170.49
405.724	111.1
405.933	162.3
406.142	156.16
406.35	238.08
406.559	160.25
406.768	211.45
406.977	166.4
407.185	143.87
407.394	250.36
407.603	158.21
407.812	180.73
408.02	242.17
408.229	219.64
408.438	254.46
408.646	215.55
408.855	240.12
409.064	197.12
409.272	201.21
409.481	262.65
409.69	250.36
409.898	270.84
410.107	276.99
410.315	268.8
410.524	322.04
410.733	297.47
410.941	272.89
411.15	340.47
411.358	342.52
411.567	354.81
411.775	393.72
411.984	434.68
412.192	395.77
412.401	479.74
412.609	369.15
412.818	483.83
413.026	502.26
413.234	571.9
413.443	590.33
413.651	559.61
413.86	524.79
414.068	535.03
414.276	619
414.485	580.09
414.693	614.9
414.901	696.82
415.11	590.33
415.318	616.95
415.526	702.97
415.734	733.68
415.943	694.77
416.151	768.5
416.359	715.25
416.567	778.74
416.776	899.57
416.984	903.67
417.192	965.11
417.4	956.91
417.608	885.23
417.817	991.73
418.025	1024.5
418.233	1149.42
418.441	942.58
418.649	1085.94
418.857	1159.66
419.065	1231.34
419.273	1143.28
419.481	1333.74
419.689	1335.79
419.897	1397.23
420.105	1507.82
420.313	1499.63
420.521	1690.09
420.729	1554.92
420.937	1550.82
421.145	1653.22
421.353	1829.35
421.561	1903.07
421.769	1888.74
421.977	1972.71
422.185	1991.14
422.393	2077.15
422.601	2175.45
422.809	2265.57
423.017	2339.29
423.224	2386.4
423.432	2406.88
423.64	2433.5
423.848	2628.06
424.056	2560.47
424.263	2789.85
424.471	2703.83
424.679	2757.08
424.887	2947.54
425.094	3037.65
425.302	3115.47
425.51	3162.58
425.718	3142.1
425.925	3328.46
426.133	3316.17
426.341	3645.9
426.548	3693
426.756	3852.74
426.964	3666.38
427.171	4059.59
427.379	4149.7
427.586	4196.8
427.794	4426.17
428.001	4557.24
428.209	4655.54
428.417	4710.84
428.624	4913.59
428.832	4929.97
429.039	4913.59
429.247	4938.16
429.454	5235.12
429.662	5759.4
429.869	5470.64
430.076	5908.9
430.284	5613.99
430.491	5824.94
430.699	6214.05
430.906	6218.15
431.114	6406.56
431.321	6631.83
431.528	6904.21
431.736	7135.64
431.943	7354.77
432.15	7225.75
432.358	7221.65
432.565	7707.02
432.772	7817.61
432.979	8229.25
433.187	8223.11
433.394	8343.94
433.601	8915.32
433.808	8862.07
434.016	8753.53
434.223	9210.23
434.43	9781.61
434.637	9623.92
434.844	10232.16
435.052	10404.19
435.259	10176.87
435.466	10371.43
435.673	10260.84
435.88	10924.38
436.087	11551.06
436.294	11614.54
436.501	11231.57
436.708	11581.78
436.915	11827.53
437.122	12491.07
437.329	12468.55
437.537	12775.74
437.743	13199.67
437.95	12988.73
438.157	13668.66
438.364	14027.05
438.571	13938.99
438.778	13914.41
438.985	15507.73
439.192	15104.28
439.399	15493.4
439.606	14913.82
439.813	15876.37
440.02	16687.36
440.227	16599.3
440.433	16429.32
440.64	17137.91
440.847	16820.48
441.054	17373.43
441.261	18346.22
441.467	18219.24
441.674	18596.07
441.881	19300.57
442.088	19116.25
442.294	18897.12
442.501	19376.34
442.708	19947.73
442.914	20943.04
443.121	21514.42
443.328	20977.86
443.534	22716.58
443.741	21883.06
443.948	21223.61
444.154	23306.4
444.361	22751.4
444.568	22970.53
444.774	23226.53
444.981	23560.34
445.187	24191.12
445.394	25196.67
445.6	24778.89
445.807	27015.27
446.013	26200.18
446.22	26476.65
446.426	27723.86
446.633	27822.17
446.839	29081.67
447.046	27355.23
447.252	28993.61
447.459	28958.79
447.665	28948.55
447.871	30359.6
448.078	31270.95
448.284	29841.46
448.491	30588.97
448.697	32170.01
448.903	32866.31
449.11	33019.91
449.316	32432.15
449.522	32440.34
449.728	33449.99
449.935	33765.37
450.141	33771.52
450.347	34537.46
450.553	33605.63
450.76	33966.07
450.966	34959.34
451.172	34758.64
451.378	35723.23
451.584	34740.21
451.791	35323.88
451.997	35323.88
452.203	35968.99
452.409	36181.98
452.615	35686.37
452.821	34502.64
453.027	34146.29
453.233	35833.82
453.44	34453.49
453.646	34926.57
453.852	34891.76
454.058	35964.89
454.264	34201.59
454.47	35104.74
454.676	34334.71
454.882	35383.27
455.088	32417.81
455.294	32917.51
455.5	33118.21
455.705	33710.08
455.911	32208.92
456.117	31459.36
456.323	31238.18
456.529	29425.73
456.735	30642.22
456.941	29732.92
457.147	29376.58
457.352	28473.42
457.558	28039.25
457.764	28098.64
457.97	27557.98
458.176	26912.87
458.381	26849.38
458.587	25829.49
458.793	25538.68
458.999	24346.76
459.204	25999.48
459.41	25395.32
459.616	23566.49
459.821	23597.21
460.027	23308.44
460.233	23054.5
460.438	21889.2
460.644	22137.01
460.85	20938.94
461.055	20781.25
461.261	20832.45
461.466	19235.03
461.672	18645.22
461.878	19943.63
462.083	18596.07
462.289	18305.26
462.494	18198.76
462.7	17234.17
462.905	16748.8
463.111	17414.39
463.316	17398.01
463.522	16873.73
463.727	17369.33
463.932	17092.86
464.138	16814.34
464.343	17156.35
464.549	16632.07
464.754	17152.25
464.959	16996.6
465.165	16746.75
465.37	16150.79
465.575	15728.91
465.781	16177.42
465.986	16296.2
466.191	15798.54
466.397	15569.17
466.602	14862.62
466.807	15345.94
467.012	15081.75
467.218	15178.01
467.423	14809.37
467.628	15182.1
467.833	15538.45
468.038	15036.7
468.244	14567.71
468.449	15520.02
468.654	14590.24
468.859	14543.14
469.064	14682.4
469.269	13850.92
469.474	14123.3
469.679	14326.05
469.885	14102.82
470.09	14281
470.295	13926.7
470.5	13592.88
470.705	13769.01
470.91	13574.45
471.115	13261.11
471.32	13549.87
471.525	13478.19
471.73	13121.85
471.935	13197.62
472.139	12818.75
472.344	12986.68
472.549	12429.63
472.754	12431.68
472.959	12317
473.164	12136.77
473.369	11848.01
473.574	12310.85
473.778	12276.04
473.983	12140.87
474.188	11956.55
474.393	11536.72
474.598	11661.65
474.802	11452.75
475.007	11313.49
475.212	11379.03
475.417	11008.34
475.621	10979.67
475.826	11026.78
476.031	10707.29
476.235	10520.93
476.44	10875.23
476.645	10410.34
476.849	10404.19
477.054	10430.82
477.259	10185.06
477.463	10264.93
477.668	9935.21
477.872	10082.66
478.077	9935.21
478.282	9525.61
478.486	9449.84
478.691	9488.75
478.895	9677.16
479.1	9447.79
479.304	9484.66
479.509	9148.79
479.713	9329.01
479.918	9113.97
480.122	8886.65
480.326	9044.34
480.531	9030.01
480.735	9011.57
480.94	8851.83
481.144	9142.64
481.348	8917.37
481.553	8669.56
481.757	8788.35
481.961	8896.89
482.166	8900.98
482.37	8923.51
482.574	8835.45
482.778	8698.24
482.983	9044.34
483.187	8929.66
483.391	8839.55
483.595	8655.23
483.8	8520.06
484.004	8497.53
484.208	8755.58
484.412	8710.52
484.616	8810.87
484.821	8810.87
485.025	8563.07
485.229	8862.07
485.433	8692.09
485.637	8827.26
485.841	8655.23
486.045	8464.77
486.249	8821.11
486.453	8817.02
486.657	8704.38
486.861	8620.41
487.065	8571.26
487.269	8724.86
487.473	8671.61
487.677	8790.39
487.881	8909.18
488.085	8841.59
488.289	8649.08
488.493	8780.15
488.697	8690.04
488.901	8857.98
489.105	8829.31
489.309	8835.45
489.512	8870.26
489.716	8825.21
489.92	8771.96
490.124	8769.91
490.328	8968.57
490.531	8911.22
490.735	8860.02
490.939	8929.66
491.143	8845.69
491.346	8993.14
491.55	9189.75
491.754	8925.56
491.958	8978.81
492.161	9159.03
492.365	9107.83
492.569	9070.97
492.772	9185.65
492.976	9339.25
493.18	9369.97
493.383	9587.05
493.587	9613.68
493.79	9539.95
493.994	9425.26
494.197	9433.46
494.401	9644.4
494.605	9787.75
494.808	9890.15
495.012	9828.71
495.215	9902.44
495.419	9910.63
495.622	9931.11
495.825	10092.9
496.029	9996.65
496.232	10187.11
496.436	10230.12
496.639	10584.41
496.843	10299.75
497.046	10619.23
497.249	10783.07
497.453	10850.65
497.656	10934.62
497.859	10934.62
498.063	11170.13
498.266	11489.62
498.469	11323.73
498.673	11241.81
498.876	11655.5
499.079	11680.08
499.282	11665.74
499.485	12011.85
499.689	11934.03
499.892	12579.14
500.095	12228.93
500.298	12388.67
500.501	12343.62
500.705	12718.4
500.908	12761.41
501.111	12785.98
501.314	13060.41
501.517	13148.47
501.72	13359.41
501.923	13377.84
502.126	13431.09
502.329	13670.7
502.532	13941.04
502.735	14100.78
502.938	14119.21
503.141	14223.65
503.344	14334.25
503.547	14911.77
503.75	14905.63
503.953	15208.73
504.156	15178.01
504.359	15274.26
504.562	15472.92
504.765	15501.59
504.968	15780.11
505.17	15950.09
505.373	15773.97
505.576	16124.17
505.779	16199.94
505.982	16394.5
506.185	16931.07
506.387	16836.86
506.59	17041.66
506.793	17400.05
506.996	17189.11
507.198	17842.42
507.401	17996.01
507.604	17889.52
507.807	18141.42
508.009	18182.38
508.212	18438.37
508.415	18702.56
508.617	18780.39
508.82	18764
509.022	19120.35
509.225	19468.5
509.428	19415.26
509.63	19577.05
509.833	19663.06
510.035	20056.27
510.238	20054.22
510.44	20385.99
510.643	20306.12
510.845	20738.24
511.048	20865.22
511.25	20959.42
511.453	21221.56
511.655	21946.55
511.858	21655.73
512.06	21842.1
512.262	22393
512.465	21678.26
512.667	22341.8
512.87	22677.67
513.072	22700.2
513.274	23111.84
513.477	23308.44
513.679	23414.94
513.881	23898.26
514.084	23720.09
514.286	23984.27
514.488	24305.81
514.69	24744.07
514.893	24596.62
515.095	24762.5
515.297	24981.63
515.499	24934.53
515.701	25548.92
515.904	25313.41
516.106	25704.57
516.308	26081.39
516.51	26181.74
516.712	26407.02
516.914	26378.35
517.116	26966.12
517.318	27043.94
517.52	27228.26
517.722	27349.09
517.925	27381.85
518.127	27859.03
518.329	28139.6
518.531	28301.39
518.733	28407.89
518.935	28819.53
519.136	28846.15
519.338	29124.68
519.54	29141.06
519.742	29634.62
519.944	29608
520.146	30310.45
520.348	30287.92
520.55	30226.48
520.752	30242.87
520.954	31049.77
521.155	30648.36
521.357	31039.53
521.559	31350.82
521.761	31948.82
521.963	31680.54
522.164	31619.1
522.366	31821.85
522.568	32204.82
522.77	32460.82
522.971	32831.5
523.173	32466.96
523.375	32993.29
523.576	32905.23
523.778	33120.26
523.98	33585.15
524.181	33540.1
524.383	33787.9
524.584	34222.07
524.786	33667.07
524.988	33951.74
525.189	34430.96
525.391	34355.19
525.592	34732.01
525.794	34772.97
525.995	34701.29
526.197	34404.34
526.398	34779.12
526.6	35076.07
526.801	35233.77
527.003	35612.64
527.204	35360.74
527.406	35610.59
527.607	35667.94
527.808	35747.81
528.01	35512.29
528.211	35844.06
528.412	36607.95
528.614	36300.76
528.815	36155.35
529.016	36489.17
529.218	35850.2
529.419	36165.59
529.62	36417.49
529.822	36423.64
530.023	36429.78
530.224	36397.01
530.425	36771.79
530.626	36231.13
530.828	36390.87
531.029	37144.52
531.23	36640.72
531.431	36802.51
531.632	37009.36
531.833	37423.04
532.035	36515.79
532.236	36593.62
532.437	37126.09
532.638	36773.84
532.839	37230.54
533.04	37201.86
533.241	36769.74
533.442	37441.48
533.643	36937.68
533.844	36841.42
534.045	37386.18
534.246	36689.87
534.447	37265.35
534.648	36691.92
534.849	36794.32
535.05	36964.3
535.251	36945.87
535.451	37040.07
535.652	37035.98
535.853	37189.58
536.054	37302.21
536.255	37126.09
536.456	36933.58
536.657	37504.96
536.857	37222.34
537.058	37218.25
537.259	37404.61
537.46	36818.89
537.66	36900.81
537.861	36949.96
538.062	36972.49
538.263	37150.67
538.463	37175.24
538.664	36937.68
538.865	37263.3
539.065	37019.6
539.266	36855.76
539.466	37414.85
539.667	36796.37
539.868	37435.33
540.068	37191.62
540.269	36872.14
540.469	37124.04
540.67	36925.39
540.87	37046.22
541.071	36749.26
541.271	37361.61
541.472	37230.54
541.672	36294.61
541.873	36421.59
542.073	36542.42
542.274	36999.12
542.474	36345.81
542.675	36405.2
542.875	37044.17
543.075	36775.89
543.276	36583.38
543.476	36816.85
543.676	36790.22
543.877	37111.75
544.077	36749.26
544.277	36679.63
544.478	36599.76
544.678	36411.35
544.878	36607.95
545.078	36739.02
545.279	36306.9
545.479	36276.18
545.679	36603.86
545.879	36458.45
546.079	36605.91
546.28	36599.76
546.48	36192.22
546.68	36429.78
546.88	36528.08
547.08	36321.24
547.28	36536.27
547.48	36526.03
547.68	36313.05
547.88	35868.64
548.081	36685.78
548.281	36466.64
548.481	36046.81
548.681	36478.93
548.881	36210.65
549.081	36081.63
549.28	36075.48
549.48	36696.02
549.68	36186.07
549.88	36669.39
550.08	35784.67
550.28	36204.5
550.48	36181.98
550.68	36472.79
550.88	36136.92
551.08	36452.31
551.279	36194.26
551.479	36018.14
551.679	35944.41
551.879	36034.52
552.079	36370.39
552.278	36407.25
552.478	36036.57
552.678	36046.81
552.878	36446.16
553.077	35827.68
553.277	35524.58
553.477	36495.32
553.676	36042.71
553.876	35882.97
554.076	35647.46
554.275	35637.22
554.475	35278.82
554.674	35891.16
554.874	35504.1
555.074	35483.62
555.273	35897.31
555.473	36108.25
555.672	35420.13
555.872	35706.85
556.071	35569.63
556.271	35575.78
556.47	35551.2
556.67	35231.72
556.869	35616.74
557.068	35489.76
557.268	35178.47
557.467	35538.91
557.667	35373.03
557.866	35293.16
558.065	35346.4
558.265	35246.05
558.464	35278.82
558.663	35598.3
558.863	34949.1
559.062	35289.06
559.261	35024.87
559.461	35143.66
559.66	34506.74
559.859	35139.56
560.058	34672.62
560.258	34967.53
560.457	34725.87
560.656	35016.68
560.855	34738.16
561.054	35071.98
561.253	34396.15
561.453	34885.61
561.652	34717.68
561.851	34772.97
562.05	34273.27
562.249	34039.8
562.448	34691.05
562.647	34496.5
562.846	34410.48
563.045	34273.27
563.244	33716.22
563.443	34357.24
563.642	34119.67
563.841	34375.67
564.04	34058.23
564.239	34488.31
564.438	33869.82
564.637	34332.66
564.836	33978.36
565.035	33486.85
565.234	33648.64
565.432	33804.28
565.631	33421.31
565.83	33757.18
566.029	33615.87
566.228	33536
566.427	33290.24
566.625	33200.13
566.824	32897.03
567.023	33546.24
567.222	32856.07
567.42	33343.49
567.619	33148.93
567.818	32913.42
568.016	33048.58
568.215	33302.53
568.414	32913.42
568.612	33028.1
568.811	32983.05
569.01	32983.05
569.208	32364.56
569.407	32856.07
569.605	32364.56
569.804	32856.07
570.002	32557.07
570.201	32593.93
570.4	32192.53
570.598	32012.31
570.797	31559.71
570.995	32264.21
571.193	32063.51
571.392	32122.9
571.59	31739.93
571.789	31819.8
571.987	31549.47
572.186	31504.42
572.384	31502.37
572.582	31660.06
572.781	31488.03
572.979	30838.83
573.177	31363.11
573.376	31692.83
573.574	31109.16
573.772	31242.28
573.971	31072.29
574.169	30746.67
574.367	30818.35
574.565	31014.95
574.763	30617.64
574.962	30464.05
575.16	30517.29
575.358	30318.64
575.556	30119.99
575.754	30795.82
575.952	30246.96
576.151	30738.47
576.349	30359.6
576.547	30175.28
576.745	29861.94
576.943	29921.34
577.141	30038.07
577.339	29886.52
577.537	29868.09
577.735	29624.38
577.933	29775.93
578.131	29390.91
578.329	29610.04
578.527	29179.97
578.725	29331.52
578.923	29421.63
579.121	29345.86
579.319	29567.04
579.516	29593.66
579.714	29120.58
579.912	29186.11
580.11	29165.63
580.308	28966.98
580.506	28926.02
580.704	28459.09
580.901	28614.73
581.099	28919.88
581.297	28481.61
581.495	28502.09
581.692	28647.5
581.89	28432.46
582.088	28653.64
582.285	28371.02
582.483	28444.75
582.681	27992.15
582.878	28147.79
583.076	27754.58
583.274	28201.04
583.471	27648.09
583.669	27969.62
583.866	27682.91
584.064	27846.74
584.262	27342.94
584.459	27596.89
584.657	27471.96
584.854	27773.02
585.052	27129.95
585.249	27537.5
585.447	26996.84
585.644	26792.04
585.841	26779.75
586.039	27244.64
586.236	26626.15
586.434	26757.22
586.631	26593.39
586.828	26761.32
587.026	26622.06
587.223	26540.14
587.42	26304.62
587.618	26454.12
587.815	26122.35
588.012	26161.26
588.21	26028.15
588.407	26181.74
588.604	25866.36
588.801	25581.69
588.999	25874.55
589.196	25831.54
589.393	25585.79
589.59	25454.72
589.787	25794.68
589.984	25114.75
590.182	25346.17
590.379	25405.56
590.576	24993.92
590.773	25290.88
590.97	25141.38
591.167	25411.71
591.364	24598.66
591.561	24963.2
591.758	24549.51
591.955	24617.1
592.152	24883.33
592.349	24727.69
592.546	24688.78
592.743	24895.62
592.94	24361.1
593.137	24473.74
593.334	24080.53
593.531	24125.58
593.727	24303.76
593.924	24232.08
594.121	24121.49
594.318	24021.14
594.515	23535.77
594.712	24045.71
594.908	23636.12
595.105	23746.71
595.302	23658.65
595.499	23756.95
595.696	23480.47
595.892	23029.92
596.089	23597.21
596.286	23416.99
596.482	23314.59
596.679	23027.87
596.876	23171.23
597.072	23083.17
597.269	23079.07
597.466	23034.02
597.662	22888.61
597.859	22755.49
598.055	22689.96
598.252	22626.47
598.448	22438.06
598.645	22407.34
598.841	22341.8
599.038	22395.05
599.234	22579.37
599.431	22259.88
599.627	22010.03
599.824	22161.58
600.02	22040.75
600.217	21833.91
600.413	21893.3
600.609	21399.74
600.806	21758.13
601.002	21932.21
601.198	21358.78
601.395	21645.49
601.591	21448.89
601.787	21455.03
601.984	21418.17
602.18	21582.01
602.376	21190.84
602.572	21129.41
602.769	20981.95
602.965	20592.84
603.161	21082.3
603.357	20920.51
603.553	20990.14
603.75	20762.82
603.946	20566.21
604.142	20525.25
604.338	20340.94
604.534	20449.48
604.73	20375.75
604.926	20381.9
605.122	20443.34
605.318	20037.84
605.514	20326.6
605.71	20318.41
605.906	20144.33
606.102	20007.12
606.298	19955.92
606.494	19957.97
606.69	19861.71
606.886	20353.23
607.082	19685.59
607.278	19912.91
607.474	19554.52
607.67	19755.22
607.866	19488.98
608.062	19927.25
608.257	19417.3
608.453	19607.76
608.649	19462.36
608.845	19251.42
609.041	19355.86
609.236	19329.24
609.432	19323.1
609.628	19011.81
609.824	19108.06
610.019	19054.81
610.215	19134.68
610.411	19081.44
610.606	18999.52
610.802	19028.19
610.998	19026.14
611.193	18815.2
611.389	18968.8
611.584	18632.93
611.78	18567.4
611.976	18831.58
612.171	18612.45
612.367	18798.82
612.562	18538.73
612.758	18421.99
612.953	18284.78
613.149	18766.05
613.344	18465
613.539	18772.19
613.735	18540.77
613.93	18649.32
614.126	18319.59
614.321	18362.6
614.517	18131.18
614.712	18225.39
614.907	17676.53
615.103	18274.54
615.298	17912.05
615.493	18088.17
615.688	17723.63
615.884	18419.94
616.079	17983.73
616.274	18004.21
616.47	17930.48
616.665	17987.82
616.86	17834.22
617.055	17643.76
617.25	17692.91
617.445	17598.71
617.641	17371.38
617.836	17479.93
618.031	17363.19
618.226	17602.8
618.421	17506.55
618.616	17488.12
618.811	17033.47
619.006	17471.73
619.201	17045.76
619.396	17084.67
619.591	16924.93
619.786	16738.56
619.981	16705.79
620.176	16830.72
620.371	16638.21
620.566	16843.01
620.761	16587.01
620.956	16404.74
621.151	16296.2
621.346	16615.68
621.541	16087.31
621.735	16335.11
621.93	16130.31
622.125	16335.11
622.32	15915.28
622.515	16023.82
622.709	15784.21
622.904	15825.17
623.099	15681.81
623.294	15700.24
623.488	15565.07
623.683	15427.86
623.878	15354.13
624.072	15391
624.267	15294.74
624.462	15341.85
624.656	15126.81
624.851	15075.61
625.046	14868.77
625.24	14926.11
625.435	14885.15
625.629	14668.06
625.824	14541.09
626.018	14571.81
626.213	14297.38
626.407	14453.03
626.602	14156.07
626.796	14381.35
626.991	14463.27
627.185	14244.13
627.38	13742.38
627.574	14068.01
627.768	13809.97
627.963	13969.71
628.157	13502.77
628.352	13701.42
628.546	13361.46
628.74	13721.9
628.935	13596.98
629.129	13386.04
629.323	13080.89
629.517	13171
629.712	13011.26
629.906	13064.5
630.1	12998.97
630.294	12828.99
630.489	12638.53
630.683	12757.31
630.877	12652.86
631.071	12417.35
631.265	12382.53
631.459	12351.81
631.653	12499.27
631.848	12382.53
632.042	12372.29
632.236	12009.8
632.43	12282.18
632.624	12114.25
632.818	12101.96
633.012	11911.5
633.206	11909.45
633.4	11790.67
633.594	11813.2
633.788	11878.73
633.982	11841.87
634.176	11682.13
634.369	11571.54
634.563	11454.8
634.757	11252.05
634.951	11372.88
635.145	11471.18
635.339	11237.72
635.533	10957.14
635.726	11170.13
635.92	11131.22
636.114	11102.55
636.308	11041.11
636.501	10971.48
636.695	10940.76
636.889	10619.23
637.083	10721.63
637.276	10582.37
637.47	10445.15
637.664	10619.23
637.857	10649.95
638.051	10486.11
638.244	10361.19
638.438	10207.59
638.632	10418.53
638.825	9988.46
639.019	10258.79
639.212	10076.52
639.406	10088.81
639.599	10164.58
639.793	9984.36
639.986	9752.94
640.18	9834.86
640.373	9748.84
640.567	9683.31
640.76	9681.26
640.954	9599.34
641.147	9464.18
641.34	9386.35
641.534	9441.65
641.727	9394.54
641.92	9314.67
642.114	9505.13
642.307	9361.78
642.5	9269.62
642.694	9152.88
642.887	8984.95
643.08	9017.72
643.273	9089.4
643.467	9056.63
643.66	8677.76
643.853	8962.42
644.046	8939.9
644.239	8864.12
644.432	8704.38
644.626	8647.04
644.819	8733.05
645.012	8690.04
645.205	8692.09
645.398	8575.36
645.591	8440.19
645.784	8399.23
645.977	8284.55
646.17	8339.84
646.363	8186.24
646.556	8194.43
646.749	8116.61
646.942	8188.29
647.135	8302.98
647.328	8057.22
647.521	8194.43
647.714	8188.29
647.907	8014.21
648.099	7870.86
648.292	8163.72
648.485	7809.42
648.678	7692.68
648.871	7551.37
649.064	7713.16
649.256	7729.55
649.449	7664.01
649.642	7578
649.835	7571.85
650.027	7453.07
650.22	7465.36
650.413	7305.62
650.605	7403.92
650.798	7360.91
650.991	7164.31
651.183	7319.95
651.376	6992.28
651.568	7244.18
651.761	6990.23
651.954	7139.73
652.146	7162.26
652.339	7117.2
652.531	6908.31
652.724	6840.73
652.916	6861.21
653.109	6822.3
653.301	6906.26
653.494	6756.76
653.686	6678.94
653.879	6910.36
654.071	6799.77
654.263	6629.79
654.456	6568.35
654.648	6623.64
654.84	6476.19
655.033	6396.32
655.225	6478.24
655.417	6373.79
655.61	6517.15
655.802	6480.29
655.994	6408.61
656.186	6431.13
656.379	6310.3
656.571	6332.83
656.763	6160.8
656.955	6168.99
657.148	6119.84
657.34	6216.1
657.532	6121.89
657.724	6115.75
657.916	6117.79
658.108	5960.1
658.3	5867.94
658.492	5902.76
658.684	5880.23
658.876	5894.57
659.068	5945.77
659.26	5880.23
659.452	5706.15
659.644	5933.48
659.836	5573.03
660.028	5788.07
660.22	5675.43
660.412	5616.04
660.604	5538.22
660.796	5540.27
660.988	5700.01
661.18	5474.73
661.372	5474.73
661.563	5452.2
661.755	5325.23
661.947	5382.57
662.139	5429.68
662.331	5327.28
662.522	5212.59
662.714	5142.96
662.906	5251.5
663.097	5376.43
663.289	5259.7
663.481	5065.14
663.673	5081.52
663.864	5226.93
664.056	4952.5
664.247	5255.6
664.439	4950.45
664.631	5013.94
664.822	5040.56
665.014	5095.86
665.205	4985.27
665.397	5069.23
665.588	4813.24
665.78	4850.1
665.971	4796.85
666.163	4712.89
666.354	4690.36
666.546	4759.99
666.737	4755.9
666.929	4790.71
667.12	4800.95
667.311	4663.74
667.503	4610.49
667.694	4673.98
667.885	4467.13
668.077	4772.28
668.268	4528.57
668.459	4606.39
668.651	4504
668.842	4575.67
669.033	4495.8
669.224	4395.45
669.416	4413.88
669.607	4338.11
669.798	4440.51
669.989	4504
670.18	4456.89
670.371	4264.38
670.563	4518.33
670.754	4323.77
670.945	4397.5
671.136	4221.38
671.327	4291.01
671.518	4164.03
671.709	4317.63
671.9	4118.98
672.091	4155.84
672.282	4248
672.473	4037.06
672.664	4137.41
672.855	4053.44
673.046	4121.03
673.237	4131.26
673.428	4133.31
673.619	4018.63
673.809	3965.38
674	4065.73
674.191	4045.25
674.382	4065.73
674.573	3932.61
674.764	4020.67
674.954	4075.97
675.145	3985.86
675.336	3983.81
675.527	3926.47
675.717	3879.36
675.908	3807.69
676.099	3983.81
676.289	3949
676.48	3787.21
676.671	3834.31
676.861	3854.79
677.052	3832.26
677.243	3748.29
677.433	3774.92
677.624	3860.93
677.814	3754.44
678.005	3721.67
678.195	3785.16
678.386	3783.11
678.576	3621.32
678.767	3699.14
678.957	3748.29
679.148	3848.65
679.338	3709.38
679.529	3721.67
679.719	3629.51
679.909	3744.2
680.1	3764.68
680.29	3623.37
680.481	3557.83
680.671	3789.25
680.861	3676.62
681.052	3666.38
681.242	3496.39
681.432	3666.38
681.622	3557.83
681.813	3549.64
682.003	3580.36
682.193	3414.48
682.383	3512.78
682.573	3475.91
682.764	3572.17
682.954	3549.64
683.144	3516.87
683.334	3518.92
683.524	3432.91
683.714	3625.42
683.904	3307.98
684.094	3484.11
684.284	3475.91
684.474	3531.21
684.664	3461.58
684.854	3484.11
685.044	3543.5
685.234	3365.32
685.424	3406.28
685.614	3350.99
685.804	3369.42
685.994	3467.72
686.184	3404.24
686.374	3322.32
686.564	3273.17
686.753	3279.31
686.943	3164.62
687.133	3277.26
687.323	3195.34
687.513	3330.51
687.702	3269.07
687.892	3142.1
688.082	3162.58
688.272	3041.75
688.461	3074.51
688.651	3205.58
688.841	3140.05
689.03	3103.18
689.22	3199.44
689.41	3160.53
689.599	3097.04
689.789	3088.85
689.979	3070.42
690.168	3039.7
690.358	2925.01
690.547	2916.82
690.737	3107.28
690.926	2976.21
691.116	2945.49
691.305	2890.2
691.495	2982.35
691.684	2877.91
691.874	2943.44
692.063	2920.92
692.252	2810.33
692.442	2855.38
692.631	2857.43
692.82	2736.6
693.01	2779.61
693.199	2922.96
693.388	2804.18
693.578	2884.05
693.767	2730.45
693.956	2640.34
694.146	2742.74
694.335	2732.5
694.524	2783.7
694.713	2806.23
694.902	2695.64
695.092	2798.04
695.281	2640.34
695.47	2669.02
695.659	2580.95
695.848	2599.38
696.037	2750.93
696.226	2671.06
696.415	2728.41
696.604	2691.54
696.793	2802.13
696.982	2544.09
697.171	2728.41
697.36	2648.54
697.549	2722.26
697.738	2761.17
697.927	2626.01
698.116	2542.04
698.305	2611.67
698.494	2632.15
698.683	2693.59
698.872	2769.37
699.061	2781.65
699.25	2617.82
699.438	2636.25
699.627	2712.02
699.816	2566.62
700.005	2611.67
700.193	2798.04
700.382	2617.82
700.571	2558.42
700.76	2658.78
700.948	2666.97
701.137	2607.58
701.326	2603.48
701.514	2681.3
701.703	2589.14
701.892	2529.75
702.08	2695.64
702.269	2609.62
702.457	2656.73
702.646	2640.34
702.834	2544.09
703.023	2634.2
703.212	2683.35
703.4	2605.53
703.589	2636.25
703.777	2597.34
703.965	2697.69
704.154	2578.9
704.342	2599.38
704.531	2583
704.719	2554.33
704.907	2644.44
705.096	2558.42
705.284	2640.34
705.472	2648.54
705.661	2611.67
705.849	2650.58
706.037	2648.54
706.226	2648.54
706.414	2576.86
706.602	2648.54
706.79	2718.17
706.979	2636.25
707.167	2740.69
707.355	2572.76
707.543	2599.38
707.731	2677.21
707.919	2593.24
708.107	2558.42
708.296	2525.66
708.484	2558.42
708.672	2646.49
708.86	2709.97
709.048	2556.38
709.236	2583
709.424	2654.68
709.612	2679.26
709.8	2695.64
709.988	2546.14
710.176	2650.58
710.364	2681.3
710.551	2660.82
710.739	2519.51
710.927	2693.59
711.115	2603.48
711.303	2709.97
711.491	2626.01
711.679	2623.96
711.866	2527.71
712.054	2535.9
712.242	2583
712.43	2699.73
712.617	2574.81
712.805	2673.11
712.993	2607.58
713.181	2537.95
713.368	2542.04
713.556	2539.99
713.744	2687.45
713.931	2521.56
714.119	2507.23
714.306	2662.87
714.494	2640.34
714.682	2654.68
714.869	2449.88
715.057	2644.44
715.244	2578.9
715.432	2621.91
715.619	2658.78
715.807	2578.9
715.994	2709.97
716.182	2724.31
716.369	2658.78
716.556	2730.45
716.744	2630.1
716.931	2552.28
717.119	2789.85
717.306	2585.05
717.493	2595.29
717.681	2648.54
717.868	2585.05
718.055	2550.23
718.242	2632.15
718.43	2576.86
718.617	2636.25
718.804	2554.33
718.991	2666.97
719.179	2611.67
719.366	2605.53
719.553	2689.49
719.74	2623.96
719.927	2628.06
720.114	2646.49
720.301	2564.57
720.488	2591.19
720.676	2660.82
720.863	2613.72
721.05	2652.63
721.237	2666.97
721.424	2752.98
721.611	2673.11
721.798	2621.91
721.985	2478.55
722.172	2548.19
722.358	2638.3
722.545	2527.71
722.732	2595.29
722.919	2599.38
723.106	2539.99
723.293	2589.14
723.48	2507.23
723.667	2648.54
723.853	2431.45
724.04	2478.55
724.227	2517.47
724.414	2441.69
724.6	2597.34
724.787	2384.35
724.974	2562.52
725.161	2468.31
725.347	2562.52
725.534	2603.48
725.72	2611.67
725.907	2650.58
726.094	2587.1
726.28	2503.13
726.467	2535.9
726.653	2447.83
726.84	2333.15
727.027	2517.47
727.213	2539.99
727.4	2531.8
727.586	2523.61
727.773	2456.03
727.959	2539.99
728.145	2458.07
728.332	2636.25
728.518	2521.56
728.705	2466.27
728.891	2413.02
729.077	2480.6
729.264	2382.3
729.45	2466.27
729.636	2398.68
729.823	2548.19
730.009	2466.27
730.195	2531.8
730.382	2437.59
730.568	2423.26
730.754	2499.03
730.94	2400.73
731.126	2490.84
731.313	2480.6
731.499	2380.25
731.685	2501.08
731.871	2513.37
732.057	2445.79
732.243	2529.75
732.429	2382.3
732.615	2451.93
732.801	2486.75
732.987	2433.5
733.173	2300.38
733.359	2417.12
733.545	2474.46
733.731	2357.72
733.917	2462.17
734.103	2464.22
734.289	2449.88
734.475	2427.35
734.661	2384.35
734.847	2417.12
735.033	2304.48
735.219	2296.28
735.404	2406.88
735.59	2284
735.776	2324.96
735.962	2320.86
736.148	2333.15
736.333	2417.12
736.519	2365.92
736.705	2243.04
736.89	2423.26
737.076	2259.42
737.262	2349.53
737.447	2324.96
737.633	2376.16
737.819	2267.61
738.004	2355.68
738.19	2284
738.375	2253.28
738.561	2240.99
738.747	2355.68
738.932	2365.92
739.118	2353.63
739.303	2224.61
739.489	2292.19
739.674	2232.8
739.859	2226.65
740.045	2331.1
740.23	2224.61
740.416	2251.23
740.601	2259.42
740.786	2263.52
740.972	2175.45
741.157	2169.31
741.342	2122.21
741.528	2255.33
741.713	2228.7
741.898	2111.97
742.084	2228.7
742.269	2146.78
742.454	2165.21
742.639	2083.3
742.824	2032.1
743.01	2146.78
743.195	2097.63
743.38	2161.12
743.565	2085.34
743.75	2001.38
743.935	1997.28
744.12	2116.06
744.305	1989.09
744.49	1878.5
744.675	1972.71
744.86	2046.43
745.045	2075.1
745.23	2071.01
745.415	2017.76
745.6	1927.65
745.785	1941.99
745.97	2017.76
746.155	1950.18
746.34	1890.79
746.525	1946.08
746.71	1960.42
746.895	1849.83
747.079	1972.71
747.264	1841.64
747.449	1974.75
747.634	1882.6
747.819	1976.8
748.003	1810.92
748.188	1796.58
748.373	1743.33
748.557	1778.15
748.742	1763.81
748.927	1712.61
749.111	1702.37
749.296	1749.48
749.481	1755.62
749.665	1780.2
749.85	1718.76
750.034	1786.34
750.219	1595.88
750.404	1663.46
750.588	1696.23
750.773	1659.37
750.957	1608.17
751.141	1630.7
751.326	1642.98
751.51	1595.88
751.695	1612.26
751.879	1526.25
752.064	1661.41
752.248	1513.96
752.432	1585.64
752.617	1610.22
752.801	1614.31
752.985	1556.97
753.17	1595.88
753.354	1440.23
753.538	1462.76
753.722	1456.62
753.907	1462.76
754.091	1450.47
754.275	1440.23
754.459	1391.08
754.643	1495.53
754.828	1343.98
755.012	1434.09
755.196	1343.98
755.38	1446.38
755.564	1343.98
755.748	1405.42
755.932	1405.42
756.116	1319.4
756.3	1335.79
756.484	1327.6
756.668	1317.36
756.852	1225.2
757.036	1313.26
757.22	1286.64
757.404	1260.01
757.588	1141.23
757.772	1354.22
757.956	1221.1
758.14	1300.97
758.323	1260.01
758.507	1217.01
758.691	1212.91
758.875	1251.82
759.059	1288.68
759.242	1165.81
759.426	1288.68
759.61	1229.29
759.794	1087.98
759.977	1190.38
760.161	1255.92
760.345	1110.51
760.528	1253.87
760.712	1174
760.895	1184.24
761.079	1217.01
761.263	1110.51
761.446	1137.13
761.63	1145.33
761.813	1120.75
761.997	1149.42
762.18	1141.23
762.364	1108.46
762.547	995.82
762.731	1034.74
762.914	1083.89
763.098	997.87
763.281	1049.07
763.464	1055.22
763.648	1028.59
763.831	1028.59
764.015	1006.06
764.198	1065.46
764.381	1012.21
764.564	1059.31
764.748	987.63
764.931	1010.16
765.114	1061.36
765.297	969.2
765.481	1016.3
765.664	971.25
765.847	1059.31
766.03	1063.41
766.213	858.61
766.397	956.91
766.58	930.29
766.763	907.76
766.946	932.34
767.129	946.67
767.312	999.92
767.495	870.9
767.678	928.24
767.861	915.95
768.044	920.05
768.227	987.63
768.41	905.71
768.593	846.32
768.776	850.42
768.959	815.6
769.142	922.1
769.324	877.04
769.507	942.58
769.69	911.86
769.873	846.32
770.056	907.76
770.239	930.29
770.421	915.95
770.604	862.71
770.787	872.95
770.97	872.95
771.152	817.65
771.335	825.84
771.518	797.17
771.7	772.6
771.883	846.32
772.066	809.46
772.248	854.51
772.431	846.32
772.613	733.68
772.796	854.51
772.978	815.6
773.161	760.31
773.343	700.92
773.526	772.6
773.708	719.35
773.891	737.78
774.073	741.88
774.256	752.12
774.438	791.03
774.621	692.73
774.803	801.27
774.985	698.87
775.168	737.78
775.35	825.84
775.532	799.22
775.715	737.78
775.897	719.35
776.079	674.29
776.261	760.31
776.444	758.26
776.626	666.1
776.808	696.82
776.99	690.68
777.173	694.77
777.355	702.97
777.537	729.59
777.719	705.01
777.901	655.86
778.083	623.09
778.265	557.56
778.447	530.94
778.629	614.9
778.811	555.51
778.993	633.33
779.175	653.81
779.357	674.29
779.539	616.95
779.721	662.01
779.903	530.94
780.085	592.37
780.267	569.85
780.449	559.61
780.631	614.9
780.812	584.18
780.994	627.19
781.176	524.79
781.358	580.09
781.54	588.28
781.721	561.66
781.903	436.73
782.085	475.64
782.267	541.18
782.448	483.83
782.63	489.98
782.812	571.9
782.993	483.83
783.175	449.02
783.357	502.26
783.538	467.45
783.72	496.12
783.901	498.17
784.083	471.54
784.264	457.21
784.446	520.7
784.627	487.93
784.809	406.01
784.99	438.78
785.172	502.26
785.353	494.07
785.535	444.92
785.716	416.25
785.897	403.96
786.079	446.97
786.26	424.44
786.441	438.78
786.623	444.92
786.804	334.33
786.985	350.71
787.167	438.78
787.348	350.71
787.529	434.68
787.71	412.15
787.891	418.3
788.073	420.35
788.254	360.95
788.435	406.01
788.616	381.43
788.797	389.63
788.978	371.19
789.159	348.67
789.34	451.07
789.522	369.15
789.703	352.76
789.884	375.29
790.065	412.15
790.246	410.11
790.427	367.1
790.607	383.48
790.788	334.33
790.969	428.54
791.15	410.11
791.331	309.76
791.512	397.82
791.693	303.61
791.874	317.95
792.054	410.11
792.235	356.86
792.416	344.57
792.597	301.56
792.778	371.19
792.958	307.71
793.139	330.23
793.32	371.19
793.5	279.04
793.681	330.23
793.862	360.95
794.042	317.95
794.223	303.61
794.404	264.7
794.584	363
794.765	186.88
794.945	279.04
795.126	356.86
795.306	320
795.487	240.12
795.667	246.27
795.848	322.04
796.028	336.38
796.209	289.28
796.389	229.88
796.57	299.52
796.75	256.51
796.93	178.69
797.111	215.55
797.291	248.32
797.471	246.27
797.652	272.89
797.832	197.12
798.012	307.71
798.192	178.69
798.373	164.35
798.553	289.28
798.733	207.36
798.913	221.69
799.093	219.64
799.274	293.37
799.454	279.04
799.634	260.6
799.814	315.9
799.994	227.84
800.174	270.84
800.354	176.64
800.534	276.99
800.714	320
800.894	242.17
801.074	174.59
801.254	244.22
801.434	217.6
801.614	279.04
801.794	201.21
801.974	569.85
802.154	178.69
802.334	270.84
802.514	176.64
802.693	268.8
802.873	162.3
803.053	256.51
803.233	207.36
803.413	217.6
803.592	213.5
803.772	197.12
803.952	176.64
804.131	164.35
804.311	213.5
804.491	133.63
804.67	88.57
804.85	276.99
805.03	182.78
805.209	231.93
805.389	154.11
805.568	160.25
805.748	186.88
805.928	309.76
806.107	246.27
806.287	195.07
806.466	160.25
806.646	135.68
806.825	125.44
807.004	182.78
807.184	113.15
807.363	195.07
807.543	209.4
807.722	225.79
807.901	221.69
808.081	115.2
808.26	178.69
808.439	190.97
808.619	190.97
808.798	178.69
808.977	147.97
809.156	190.97
809.336	190.97
809.515	182.78
809.694	209.4
809.873	197.12
810.052	233.98
810.231	201.21
810.411	141.82
810.59	186.88
810.769	152.06
810.948	154.11
811.127	145.92
811.306	174.59
811.485	123.39
811.664	164.35
811.843	184.83
812.022	88.57
812.201	137.73
812.38	143.87
812.559	150.01
812.737	233.98
812.916	158.21
813.095	119.29
813.274	154.11
813.453	227.84
813.632	98.81
813.811	135.68
813.989	141.82
814.168	125.44
814.347	184.83
814.526	121.34
814.704	160.25
814.883	166.4
815.062	113.15
815.24	174.59
815.419	158.21
815.598	115.2
815.776	174.59
815.955	195.07
816.133	98.81
816.312	147.97
816.49	92.67
816.669	107.01
816.847	127.49
817.026	147.97
817.204	166.4
817.383	82.43
817.561	121.34
817.74	88.57
817.918	72.19
818.097	88.57
818.275	193.02
818.453	88.57
818.632	127.49
818.81	156.16
818.988	168.45
819.167	66.05
819.345	135.68
819.523	115.2
819.701	129.53
819.879	143.87
820.058	86.53
820.236	147.97
820.414	98.81
820.592	88.57
820.77	168.45
820.948	78.33
821.127	78.33
821.305	117.25
821.483	64
821.661	162.3
821.839	123.39
822.017	147.97
822.195	49.66
822.373	109.05
822.551	68.09
822.729	123.39
822.907	68.09
823.085	86.53
823.262	70.14
823.44	172.54
823.618	82.43
823.796	23.04
823.974	64
824.152	197.12
824.329	139.77
824.507	117.25
824.685	109.05
824.863	72.19
825.04	129.53
825.218	180.73
825.396	51.71
825.574	150.01
825.751	96.77
825.929	154.11
826.107	68.09
826.284	182.78
826.462	121.34
826.639	68.09
826.817	84.48
826.994	156.16
827.172	55.81
827.349	188.93
827.527	55.81
827.704	143.87
827.882	160.25
828.059	145.92
828.237	12.8
828.414	20.99
828.591	104.96
828.769	49.66
828.946	72.19
829.124	111.1
829.301	80.38
829.478	84.48
829.655	74.24
829.833	125.44
830.01	92.67
830.187	84.48
830.364	31.23
830.542	49.66
830.719	96.77
830.896	123.39
831.073	53.76
831.25	127.49
831.427	47.62
831.604	59.9
831.782	82.43
831.959	80.38
832.136	37.38
832.313	133.63
832.49	33.28
832.667	135.68
832.844	-7.68
833.021	76.29
833.198	53.76
833.374	20.99
833.551	92.67
833.728	72.19
833.905	57.86
834.082	-30.21
834.259	61.95
834.436	31.23
834.612	92.67
834.789	96.77
834.966	92.67
835.143	96.77
835.319	47.62
835.496	8.7
835.673	84.48
835.85	53.76
836.026	111.1
836.203	137.73
836.38	57.86
836.556	70.14
836.733	25.09
836.909	80.38
837.086	-32.26
837.262	45.57
837.439	76.29
837.616	37.38
837.792	78.33
837.968	84.48
838.145	-38.4
838.321	68.09
838.498	45.57
838.674	68.09
838.851	104.96
839.027	55.81
839.203	64
839.38	113.15
839.556	23.04
839.732	111.1
839.909	43.52
840.085	45.57
840.261	59.9
840.437	2.56
840.614	8.7
840.79	16.9
840.966	49.66
841.142	70.14
841.318	70.14
841.494	133.63
841.671	133.63
841.847	55.81
842.023	51.71
842.199	20.99
842.375	80.38
842.551	0.51
842.727	6.66
842.903	35.33
843.079	39.42
843.255	64
843.431	74.24
843.607	66.05
843.783	8.7
843.959	41.47
844.134	74.24
844.31	-3.58
844.486	88.57
844.662	35.33
844.838	41.47
845.013	16.9
845.189	92.67
845.365	41.47
845.541	-1.54
845.716	20.99
845.892	68.09
846.068	31.23
846.244	-15.87
846.419	96.77
846.595	39.42
846.77	84.48
846.946	20.99
847.122	64
847.297	55.81
847.473	39.42
847.648	8.7
847.824	27.14
847.999	-28.16
848.175	4.61
848.35	64
848.526	27.14
848.701	20.99
848.876	76.29
849.052	82.43
849.227	100.86
849.403	23.04
849.578	39.42
849.753	135.68
849.929	37.38
850.104	29.18
850.279	2.56
850.454	80.38
850.63	20.99
850.805	43.52
850.98	-46.59
851.155	27.14
851.33	33.28
851.505	10.75
851.681	78.33
851.856	10.75
852.031	18.94
852.206	6.66
852.381	14.85
852.556	-15.87
852.731	109.05
852.906	-7.68
853.081	61.95
853.256	55.81
853.431	10.75
853.606	31.23
853.781	16.9
853.956	-1.54
854.131	14.85
854.305	-5.63
854.48	41.47
854.655	-17.92
854.83	8.7
855.005	-32.26
855.18	90.62
855.354	23.04
855.529	39.42
855.704	-1.54
855.879	55.81
856.053	23.04
856.228	25.09
856.403	41.47
856.577	47.62
856.752	-46.59
856.926	27.14
857.101	0.51
857.276	29.18
857.45	59.9
857.625	80.38
857.799	-34.3
857.974	-7.68
858.148	8.7
858.323	29.18
858.497	29.18
858.672	55.81
858.846	-36.35
859.02	31.23
859.195	2.56
859.369	8.7
859.543	6.66
859.718	-5.63
859.892	-44.54
860.066	47.62
860.241	10.75
860.415	57.86
860.589	-24.06
860.763	55.81
860.938	-11.78
861.112	23.04
861.286	-9.73
861.46	16.9
861.634	18.94
861.808	31.23
861.982	16.9
862.157	-19.97
862.331	92.67
862.505	-30.21
862.679	-28.16
862.853	-34.3
863.027	2.56
863.201	2.56
863.375	-44.54
863.549	25.09
863.722	12.8
863.896	4.61
864.07	-36.35
864.244	76.29
864.418	14.85
864.592	66.05
864.766	20.99
864.939	59.9
865.113	0.51
865.287	82.43
865.461	12.8
865.634	6.66
865.808	31.23
865.982	-15.87
866.156	-24.06
866.329	18.94
866.503	0.51
866.676	66.05
866.85	-46.59
867.024	72.19
867.197	27.14
867.371	33.28
867.544	-3.58
867.718	18.94
867.891	57.86
868.065	49.66
868.238	64
868.412	37.38
868.585	72.19
868.759	-26.11
868.932	-22.02
869.105	37.38
869.279	98.81
869.452	-40.45
869.625	-46.59
869.799	8.7
869.972	-17.92
870.145	70.14
870.319	-42.5
870.492	-30.21
870.665	-128.51
870.838	-7.68
871.011	-36.35
871.185	4.61
871.358	33.28
871.531	33.28
871.704	-15.87
871.877	31.23
872.05	39.42
872.223	-13.82
872.396	33.28
872.569	66.05
872.742	-13.82
872.915	43.52
873.088	8.7
873.261	-3.58
873.434	4.61
873.607	-1.54
873.78	10.75
873.953	-75.26
874.126	80.38
874.299	-3.58
874.471	-52.74
874.644	-32.26
874.817	66.05
874.99	12.8
875.163	16.9
875.335	51.71
875.508	12.8
875.681	6.66
875.853	-5.63
876.026	-1.54
876.199	-34.3
876.371	12.8
876.544	37.38
876.717	20.99
876.889	33.28
877.062	20.99
877.234	39.42
877.407	4.61
877.579	33.28
877.752	39.42
877.924	-65.02
878.097	25.09
878.269	39.42
878.442	4.61
878.614	-81.41
878.786	35.33
878.959	-5.63
879.131	-26.11
879.303	-101.89
879.476	33.28
879.648	33.28
879.82	-60.93
879.993	29.18
880.165	-1.54
880.337	-79.36
880.509	25.09
880.681	-19.97
880.854	45.57
881.026	20.99
881.198	25.09
881.37	-19.97
881.542	33.28
881.714	12.8
881.886	-50.69
882.058	-3.58
882.23	45.57
882.402	-52.74
882.574	-1.54
882.746	-48.64
882.918	57.86
883.09	14.85
883.262	6.66
883.434	29.18
883.606	-19.97
883.778	6.66
883.95	4.61
884.122	31.23
884.293	-5.63
884.465	-36.35
884.637	-1.54
884.809	39.42
884.98	-11.78
885.152	66.05
885.324	-62.98
885.496	4.61
885.667	31.23
885.839	33.28
886.011	43.52
886.182	-40.45
886.354	33.28
886.525	70.14
886.697	-32.26
886.869	10.75
887.04	-5.63
887.212	-3.58
887.383	115.2
887.555	4.61
887.726	20.99
887.897	-13.82
888.069	16.9
888.24	72.19
888.412	-5.63
888.583	10.75
888.754	92.67
888.926	-44.54
889.097	61.95
889.268	12.8
889.44	-3.58
889.611	59.9
889.782	41.47
889.953	8.7
890.125	-15.87
890.296	8.7
890.467	23.04
890.638	-3.58
890.809	-24.06
890.98	29.18
891.151	41.47
891.323	-28.16
891.494	-17.92
891.665	41.47
891.836	14.85
892.007	-5.63
892.178	-32.26
892.349	10.75
892.52	14.85
892.691	16.9
892.862	-85.5
893.032	-40.45
893.203	61.95
893.374	20.99
893.545	-9.73
893.716	8.7
893.887	18.94
894.057	2.56
894.228	-38.4
894.399	-11.78
894.57	53.76
894.74	-15.87
894.911	4.61
895.082	-30.21
895.253	-19.97
895.423	27.14
895.594	25.09
895.764	20.99
895.935	20.99
896.106	37.38
896.276	20.99
896.447	-3.58
896.617	41.47
896.788	-38.4
896.958	27.14
897.129	-44.54
897.299	-19.97
897.47	16.9
897.64	51.71
897.81	-7.68
897.981	-15.87
898.151	-46.59
898.322	-22.02
898.492	39.42
898.662	-1.54
898.832	-7.68
899.003	-34.3
899.173	4.61
899.343	14.85
899.513	68.09
