Data from USB4F104151__89__12-02-31-944.txt Node

Date: Fri Mar 14 12:02:31 EDT 2025
User: louis
Spectrometer: USB4F10415
Trigger mode: 4
Integration Time (sec): 2.000000E-2
Scans to average: 1
Electric dark correction enabled: true
Nonlinearity correction enabled: false
Boxcar width: 0
XAxis mode: Wavelengths
Number of Pixels in Spectrum: 3648
>>>>>Begin Spectral Data<<<<<
178.204	-71.68
178.424	-71.68
178.644	-71.68
178.864	-100.35
179.084	-22.53
179.304	40.96
179.524	-67.58
179.744	-6.14
179.964	32.77
180.184	8.19
180.404	51.2
180.624	-92.16
180.844	-20.48
181.064	32.77
181.283	-8.19
181.503	-2.05
181.723	30.72
181.943	-6.14
182.163	43.01
182.383	4.1
182.602	22.53
182.822	108.54
183.042	40.96
183.262	-14.34
183.482	2.05
183.701	16.38
183.921	59.39
184.141	26.62
184.361	71.68
184.58	14.34
184.8	-20.48
185.02	96.25
185.239	77.82
185.459	86.01
185.679	30.72
185.898	55.3
186.118	51.2
186.338	36.86
186.557	-14.34
186.777	-10.24
186.997	38.91
187.216	61.44
187.436	73.73
187.655	16.38
187.875	14.34
188.095	-2.05
188.314	14.34
188.534	79.87
188.753	61.44
188.973	-26.62
189.192	110.59
189.412	-2.05
189.631	90.11
189.851	75.77
190.07	40.96
190.29	96.25
190.509	22.53
190.729	12.29
190.948	20.48
191.168	145.41
191.387	4.1
191.607	18.43
191.826	18.43
192.045	-22.53
192.265	4.1
192.484	-2.05
192.704	16.38
192.923	22.53
193.142	55.3
193.362	57.34
193.581	24.58
193.8	65.54
194.02	65.54
194.239	63.49
194.458	57.34
194.678	79.87
194.897	79.87
195.116	30.72
195.335	0
195.555	49.15
195.774	53.25
195.993	69.63
196.212	16.38
196.432	-10.24
196.651	75.77
196.87	77.82
197.089	124.93
197.308	71.68
197.528	12.29
197.747	-28.67
197.966	36.86
198.185	53.25
198.404	18.43
198.623	-49.15
198.842	20.48
199.062	22.53
199.281	139.26
199.5	12.29
199.719	-6.14
199.938	10.24
200.157	75.77
200.376	43.01
200.595	86.01
200.814	77.82
201.033	30.72
201.252	10.24
201.471	36.86
201.69	88.06
201.909	126.97
202.128	10.24
202.347	30.72
202.566	8.19
202.785	24.58
203.004	90.11
203.223	51.2
203.442	45.06
203.661	28.67
203.879	53.25
204.098	71.68
204.317	36.86
204.536	49.15
204.755	63.49
204.974	102.4
205.193	24.58
205.411	45.06
205.63	36.86
205.849	73.73
206.068	-26.62
206.287	8.19
206.505	-4.1
206.724	73.73
206.943	26.62
207.162	-10.24
207.381	2.05
207.599	96.25
207.818	96.25
208.037	-2.05
208.255	67.58
208.474	61.44
208.693	106.49
208.911	88.06
209.13	55.3
209.349	51.2
209.567	-18.43
209.786	-2.05
210.005	10.24
210.223	18.43
210.442	73.73
210.661	90.11
210.879	69.63
211.098	14.34
211.316	77.82
211.535	118.78
211.753	-8.19
211.972	14.34
212.191	49.15
212.409	12.29
212.628	32.77
212.846	26.62
213.065	36.86
213.283	102.4
213.502	22.53
213.72	2.05
213.938	10.24
214.157	53.25
214.375	20.48
214.594	79.87
214.812	83.97
215.031	49.15
215.249	-4.1
215.467	18.43
215.686	6.14
215.904	71.68
216.122	-4.1
216.341	73.73
216.559	77.82
216.778	126.97
216.996	20.48
217.214	102.4
217.432	22.53
217.651	73.73
217.869	40.96
218.087	71.68
218.306	47.1
218.524	61.44
218.742	-32.77
218.96	94.21
219.179	2.05
219.397	51.2
219.615	57.34
219.833	45.06
220.051	59.39
220.27	131.07
220.488	-28.67
220.706	32.77
220.924	-14.34
221.142	34.82
221.36	57.34
221.578	75.77
221.796	49.15
222.015	86.01
222.233	-10.24
222.451	81.92
222.669	38.91
222.887	145.41
223.105	45.06
223.323	81.92
223.541	90.11
223.759	22.53
223.977	26.62
224.195	106.49
224.413	0
224.631	83.97
224.849	40.96
225.067	71.68
225.285	14.34
225.503	69.63
225.721	28.67
225.939	16.38
226.157	104.45
226.375	36.86
226.592	96.25
226.81	75.77
227.028	126.97
227.246	63.49
227.464	14.34
227.682	20.48
227.9	16.38
228.117	61.44
228.335	-40.96
228.553	86.01
228.771	108.54
228.989	94.21
229.206	61.44
229.424	88.06
229.642	22.53
229.86	8.19
230.077	30.72
230.295	43.01
230.513	45.06
230.731	18.43
230.948	86.01
231.166	53.25
231.384	73.73
231.601	75.77
231.819	49.15
232.037	22.53
232.254	-18.43
232.472	75.77
232.689	36.86
232.907	102.4
233.125	10.24
233.342	75.77
233.56	67.58
233.777	38.91
233.995	88.06
234.213	63.49
234.43	75.77
234.648	55.3
234.865	40.96
235.083	143.36
235.3	4.1
235.518	43.01
235.735	59.39
235.953	108.54
236.17	104.45
236.388	92.16
236.605	75.77
236.822	65.54
237.04	79.87
237.257	88.06
237.475	8.19
237.692	36.86
237.909	86.01
238.127	55.3
238.344	73.73
238.562	102.4
238.779	49.15
238.996	71.68
239.214	86.01
239.431	40.96
239.648	118.78
239.865	59.39
240.083	69.63
240.3	36.86
240.517	57.34
240.735	36.86
240.952	51.2
241.169	120.83
241.386	28.67
241.603	26.62
241.821	47.1
242.038	43.01
242.255	12.29
242.472	-2.05
242.689	47.1
242.907	65.54
243.124	32.77
243.341	77.82
243.558	-6.14
243.775	-16.38
243.992	36.86
244.209	77.82
244.426	102.4
244.643	59.39
244.86	2.05
245.078	98.3
245.295	10.24
245.512	92.16
245.729	86.01
245.946	59.39
246.163	159.74
246.38	86.01
246.597	-4.1
246.814	108.54
247.031	4.1
247.248	-6.14
247.464	133.12
247.681	4.1
247.898	-6.14
248.115	63.49
248.332	14.34
248.549	57.34
248.766	16.38
248.983	71.68
249.2	51.2
249.417	49.15
249.633	43.01
249.85	77.82
250.067	22.53
250.284	30.72
250.501	120.83
250.717	16.38
250.934	69.63
251.151	4.1
251.368	6.14
251.585	110.59
251.801	98.3
252.018	-12.29
252.235	55.3
252.451	30.72
252.668	32.77
252.885	51.2
253.102	-8.19
253.318	20.48
253.535	16.38
253.752	8.19
253.968	4.1
254.185	59.39
254.401	-8.19
254.618	96.25
254.835	10.24
255.051	94.21
255.268	59.39
255.484	122.88
255.701	106.49
255.917	63.49
256.134	47.1
256.351	69.63
256.567	59.39
256.784	69.63
257	28.67
257.217	67.58
257.433	2.05
257.65	47.1
257.866	75.77
258.082	-2.05
258.299	28.67
258.515	-26.62
258.732	114.69
258.948	2.05
259.165	-12.29
259.381	55.3
259.597	-43.01
259.814	45.06
260.03	30.72
260.246	69.63
260.463	10.24
260.679	34.82
260.895	10.24
261.112	43.01
261.328	49.15
261.544	14.34
261.761	71.68
261.977	94.21
262.193	22.53
262.409	38.91
262.626	90.11
262.842	-36.86
263.058	43.01
263.274	104.45
263.49	45.06
263.707	120.83
263.923	65.54
264.139	-18.43
264.355	71.68
264.571	-14.34
264.787	-45.06
265.004	32.77
265.22	53.25
265.436	59.39
265.652	45.06
265.868	104.45
266.084	47.1
266.3	94.21
266.516	77.82
266.732	10.24
266.948	65.54
267.164	100.35
267.38	51.2
267.596	40.96
267.812	88.06
268.028	-14.34
268.244	92.16
268.46	45.06
268.676	4.1
268.892	108.54
269.108	114.69
269.324	-2.05
269.54	34.82
269.756	16.38
269.972	43.01
270.188	6.14
270.403	-18.43
270.619	49.15
270.835	102.4
271.051	47.1
271.267	120.83
271.483	57.34
271.698	10.24
271.914	61.44
272.13	73.73
272.346	63.49
272.562	102.4
272.777	81.92
272.993	71.68
273.209	108.54
273.425	51.2
273.64	34.82
273.856	86.01
274.072	0
274.287	28.67
274.503	26.62
274.719	-24.58
274.934	32.77
275.15	34.82
275.366	16.38
275.581	47.1
275.797	51.2
276.012	73.73
276.228	-43.01
276.444	28.67
276.659	71.68
276.875	59.39
277.09	129.02
277.306	55.3
277.521	86.01
277.737	40.96
277.952	79.87
278.168	57.34
278.383	59.39
278.599	10.24
278.814	51.2
279.03	30.72
279.245	32.77
279.461	20.48
279.676	47.1
279.892	0
280.107	104.45
280.322	-57.34
280.538	90.11
280.753	-28.67
280.969	14.34
281.184	-30.72
281.399	118.78
281.615	-8.19
281.83	2.05
282.045	20.48
282.26	61.44
282.476	26.62
282.691	75.77
282.906	2.05
283.122	124.93
283.337	112.64
283.552	32.77
283.767	45.06
283.983	18.43
284.198	26.62
284.413	36.86
284.628	63.49
284.843	90.11
285.058	34.82
285.274	32.77
285.489	24.58
285.704	4.1
285.919	20.48
286.134	86.01
286.349	96.25
286.564	-4.1
286.779	57.34
286.995	51.2
287.21	-32.77
287.425	75.77
287.64	63.49
287.855	38.91
288.07	16.38
288.285	75.77
288.5	8.19
288.715	90.11
288.93	14.34
289.145	55.3
289.36	28.67
289.575	-14.34
289.79	147.45
290.004	24.58
290.219	18.43
290.434	59.39
290.649	75.77
290.864	28.67
291.079	12.29
291.294	16.38
291.509	45.06
291.724	2.05
291.938	2.05
292.153	-16.38
292.368	38.91
292.583	10.24
292.798	120.83
293.012	73.73
293.227	53.25
293.442	45.06
293.657	106.49
293.871	22.53
294.086	20.48
294.301	172.03
294.516	81.92
294.73	63.49
294.945	55.3
295.16	59.39
295.374	26.62
295.589	98.3
295.804	40.96
296.018	43.01
296.233	32.77
296.447	6.14
296.662	30.72
296.877	106.49
297.091	20.48
297.306	108.54
297.52	-22.53
297.735	6.14
297.949	90.11
298.164	67.58
298.378	59.39
298.593	34.82
298.807	45.06
299.022	20.48
299.236	116.73
299.451	-16.38
299.665	61.44
299.88	30.72
300.094	14.34
300.309	106.49
300.523	55.3
300.737	-26.62
300.952	26.62
301.166	2.05
301.381	-28.67
301.595	-2.05
301.809	59.39
302.024	63.49
302.238	114.69
302.452	94.21
302.667	16.38
302.881	57.34
303.095	22.53
303.309	61.44
303.524	104.45
303.738	36.86
303.952	100.35
304.166	18.43
304.381	34.82
304.595	129.02
304.809	40.96
305.023	59.39
305.237	51.2
305.452	26.62
305.666	110.59
305.88	67.58
306.094	-16.38
306.308	53.25
306.522	47.1
306.736	-4.1
306.95	114.69
307.164	57.34
307.379	24.58
307.593	61.44
307.807	118.78
308.021	108.54
308.235	61.44
308.449	69.63
308.663	16.38
308.877	24.58
309.091	28.67
309.305	69.63
309.519	14.34
309.733	63.49
309.947	40.96
310.161	65.54
310.374	51.2
310.588	67.58
310.802	-8.19
311.016	10.24
311.23	10.24
311.444	59.39
311.658	22.53
311.872	65.54
312.085	22.53
312.299	118.78
312.513	28.67
312.727	92.16
312.941	34.82
313.154	32.77
313.368	67.58
313.582	-14.34
313.796	75.77
314.009	59.39
314.223	22.53
314.437	86.01
314.651	26.62
314.864	79.87
315.078	38.91
315.292	81.92
315.505	16.38
315.719	67.58
315.933	65.54
316.146	69.63
316.36	53.25
316.573	51.2
316.787	106.49
317.001	65.54
317.214	45.06
317.428	18.43
317.641	63.49
317.855	0
318.068	0
318.282	124.93
318.495	124.93
318.709	59.39
318.922	71.68
319.136	102.4
319.349	20.48
319.563	83.97
319.776	69.63
319.99	47.1
320.203	57.34
320.417	61.44
320.63	36.86
320.843	108.54
321.057	79.87
321.27	14.34
321.483	104.45
321.697	49.15
321.91	86.01
322.124	100.35
322.337	0
322.55	-10.24
322.763	71.68
322.977	90.11
323.19	59.39
323.403	32.77
323.617	90.11
323.83	124.93
324.043	40.96
324.256	63.49
324.469	77.82
324.683	8.19
324.896	61.44
325.109	32.77
325.322	131.07
325.535	126.97
325.748	53.25
325.962	67.58
326.175	57.34
326.388	55.3
326.601	59.39
326.814	100.35
327.027	34.82
327.24	32.77
327.453	26.62
327.666	32.77
327.879	83.97
328.092	38.91
328.305	55.3
328.518	16.38
328.731	14.34
328.944	51.2
329.157	73.73
329.37	12.29
329.583	36.86
329.796	73.73
330.009	34.82
330.222	-6.14
330.435	24.58
330.648	38.91
330.861	51.2
331.073	77.82
331.286	40.96
331.499	30.72
331.712	71.68
331.925	59.39
332.138	10.24
332.35	53.25
332.563	38.91
332.776	26.62
332.989	-12.29
333.202	28.67
333.414	30.72
333.627	63.49
333.84	34.82
334.053	141.31
334.265	51.2
334.478	10.24
334.691	73.73
334.903	75.77
335.116	-18.43
335.329	90.11
335.541	49.15
335.754	124.93
335.966	28.67
336.179	65.54
336.392	-43.01
336.604	73.73
336.817	32.77
337.029	63.49
337.242	71.68
337.454	34.82
337.667	-16.38
337.88	137.21
338.092	88.06
338.305	110.59
338.517	2.05
338.729	116.73
338.942	63.49
339.154	57.34
339.367	75.77
339.579	59.39
339.792	83.97
340.004	67.58
340.217	22.53
340.429	4.1
340.641	71.68
340.854	30.72
341.066	0
341.278	71.68
341.491	79.87
341.703	59.39
341.915	4.1
342.128	36.86
342.34	81.92
342.552	45.06
342.764	30.72
342.977	65.54
343.189	55.3
343.401	73.73
343.613	36.86
343.826	65.54
344.038	69.63
344.25	16.38
344.462	20.48
344.674	57.34
344.886	126.97
345.099	49.15
345.311	120.83
345.523	53.25
345.735	14.34
345.947	98.3
346.159	112.64
346.371	28.67
346.583	32.77
346.795	126.97
347.007	96.25
347.219	104.45
347.431	22.53
347.643	145.41
347.855	69.63
348.067	176.13
348.279	47.1
348.491	-28.67
348.703	63.49
348.915	98.3
349.127	67.58
349.339	86.01
349.551	-6.14
349.763	30.72
349.975	75.77
350.187	124.93
350.399	28.67
350.61	104.45
350.822	61.44
351.034	67.58
351.246	83.97
351.458	149.5
351.669	147.45
351.881	83.97
352.093	102.4
352.305	49.15
352.517	2.05
352.728	110.59
352.94	77.82
353.152	43.01
353.363	22.53
353.575	141.31
353.787	100.35
353.999	38.91
354.21	38.91
354.422	86.01
354.633	71.68
354.845	59.39
355.057	40.96
355.268	116.73
355.48	83.97
355.692	-45.06
355.903	40.96
356.115	83.97
356.326	34.82
356.538	145.41
356.749	83.97
356.961	167.93
357.172	75.77
357.384	90.11
357.595	61.44
357.807	-38.91
358.018	94.21
358.23	88.06
358.441	26.62
358.653	98.3
358.864	30.72
359.075	38.91
359.287	96.25
359.498	75.77
359.709	92.16
359.921	6.14
360.132	75.77
360.344	116.73
360.555	34.82
360.766	57.34
360.977	45.06
361.189	71.68
361.4	141.31
361.611	141.31
361.823	49.15
362.034	10.24
362.245	2.05
362.456	16.38
362.667	118.78
362.879	40.96
363.09	18.43
363.301	73.73
363.512	47.1
363.723	75.77
363.935	116.73
364.146	94.21
364.357	-24.58
364.568	73.73
364.779	96.25
364.99	96.25
365.201	53.25
365.412	122.88
365.623	63.49
365.834	47.1
366.045	32.77
366.256	61.44
366.467	53.25
366.678	96.25
366.889	26.62
367.1	38.91
367.311	90.11
367.522	-16.38
367.733	122.88
367.944	102.4
368.155	75.77
368.366	61.44
368.577	114.69
368.788	77.82
368.999	-6.14
369.209	59.39
369.42	38.91
369.631	102.4
369.842	49.15
370.053	51.2
370.264	63.49
370.474	26.62
370.685	69.63
370.896	110.59
371.107	104.45
371.317	133.12
371.528	6.14
371.739	83.97
371.95	104.45
372.16	73.73
372.371	14.34
372.582	55.3
372.792	34.82
373.003	90.11
373.214	73.73
373.424	90.11
373.635	8.19
373.846	26.62
374.056	59.39
374.267	92.16
374.477	51.2
374.688	67.58
374.898	81.92
375.109	116.73
375.319	24.58
375.53	133.12
375.74	141.31
375.951	65.54
376.161	118.78
376.372	57.34
376.582	94.21
376.793	40.96
377.003	57.34
377.214	65.54
377.424	75.77
377.635	90.11
377.845	53.25
378.055	112.64
378.266	88.06
378.476	38.91
378.686	69.63
378.897	88.06
379.107	65.54
379.317	73.73
379.528	96.25
379.738	12.29
379.948	59.39
380.158	147.45
380.369	165.89
380.579	49.15
380.789	120.83
380.999	14.34
381.21	120.83
381.42	43.01
381.63	16.38
381.84	114.69
382.05	49.15
382.261	110.59
382.471	116.73
382.681	26.62
382.891	65.54
383.101	67.58
383.311	57.34
383.521	83.97
383.731	135.17
383.941	110.59
384.151	96.25
384.361	98.3
384.571	98.3
384.781	94.21
384.991	53.25
385.201	98.3
385.411	77.82
385.621	57.34
385.831	30.72
386.041	73.73
386.251	122.88
386.461	45.06
386.671	16.38
386.881	135.17
387.091	118.78
387.301	106.49
387.511	43.01
387.72	86.01
387.93	45.06
388.14	110.59
388.35	79.87
388.56	159.74
388.769	167.93
388.979	98.3
389.189	92.16
389.399	59.39
389.609	100.35
389.818	110.59
390.028	102.4
390.238	65.54
390.447	51.2
390.657	67.58
390.867	20.48
391.076	94.21
391.286	90.11
391.496	98.3
391.705	143.36
391.915	104.45
392.125	163.84
392.334	90.11
392.544	73.73
392.753	86.01
392.963	126.97
393.172	102.4
393.382	92.16
393.591	102.4
393.801	75.77
394.01	110.59
394.22	71.68
394.429	90.11
394.639	65.54
394.848	169.98
395.058	143.36
395.267	98.3
395.477	90.11
395.686	133.12
395.895	122.88
396.105	186.37
396.314	194.56
396.524	153.6
396.733	112.64
396.942	174.08
397.152	135.17
397.361	131.07
397.57	139.26
397.78	178.17
397.989	167.93
398.198	108.54
398.407	135.17
398.617	155.65
398.826	98.3
399.035	139.26
399.244	180.22
399.453	122.88
399.663	157.69
399.872	190.46
400.081	153.6
400.29	141.31
400.499	83.97
400.708	100.35
400.917	57.34
401.127	182.27
401.336	190.46
401.545	159.74
401.754	129.02
401.963	186.37
402.172	174.08
402.381	184.32
402.59	137.21
402.799	92.16
403.008	174.08
403.217	184.32
403.426	198.65
403.635	124.93
403.844	102.4
404.053	153.6
404.262	225.28
404.471	235.52
404.68	223.23
404.888	256
405.097	243.71
405.306	215.04
405.515	239.61
405.724	196.61
405.933	180.22
406.142	233.47
406.35	292.86
406.559	196.61
406.768	296.96
406.977	272.38
407.185	239.61
407.394	266.24
407.603	249.85
407.812	286.72
408.02	270.33
408.229	356.35
408.438	284.67
408.646	329.72
408.855	311.29
409.064	274.43
409.272	366.59
409.481	301.05
409.69	385.02
409.898	446.46
410.107	411.64
410.315	423.93
410.524	391.16
410.733	483.32
410.941	440.31
411.15	442.36
411.358	524.28
411.567	522.23
411.775	528.38
411.984	565.24
412.192	651.25
412.401	593.91
412.609	587.77
412.818	675.83
413.026	675.83
413.234	706.55
413.443	776.18
413.651	675.83
413.86	696.31
414.068	860.15
414.276	731.12
414.485	767.99
414.693	868.34
414.901	935.92
415.11	942.07
415.318	915.44
415.526	956.4
415.734	1046.51
415.943	1019.89
416.151	1085.42
416.359	1046.51
416.567	1124.33
416.776	1140.72
416.984	1339.37
417.192	1255.4
417.4	1204.21
417.608	1466.35
417.817	1310.7
418.025	1417.19
418.233	1527.78
418.441	1583.08
418.649	1619.94
418.857	1703.91
419.065	1683.43
419.273	1724.39
419.481	1808.36
419.689	1763.3
419.897	1931.23
420.105	1933.28
420.313	2066.4
420.521	2164.7
420.729	2213.85
420.937	2199.52
421.145	2367.45
421.353	2545.63
421.561	2697.17
421.769	2648.02
421.977	2775
422.185	2658.26
422.393	3004.37
422.601	3022.8
422.809	3063.76
423.017	3061.71
423.224	3160.02
423.432	3321.81
423.64	3399.63
423.848	3577.8
424.056	3542.99
424.263	3796.93
424.471	3768.26
424.679	3889.09
424.887	4052.93
425.094	4175.81
425.302	4415.42
425.51	4532.15
425.718	4480.96
425.925	4630.46
426.133	4927.41
426.341	5005.24
426.548	5318.57
426.756	5242.8
426.964	5437.36
427.171	5597.1
427.379	5836.71
427.586	5971.88
427.794	6084.52
428.001	6354.85
428.209	6748.06
428.417	6723.48
428.624	7034.77
428.832	7016.34
429.039	6997.91
429.247	7020.44
429.454	7638.92
429.662	7995.27
429.869	7628.68
430.076	8228.74
430.284	8099.72
430.491	8253.31
430.699	8669.05
430.906	8816.51
431.114	8961.91
431.321	9068.41
431.528	9574.25
431.736	9844.59
431.943	10358.63
432.15	10184.55
432.358	10311.52
432.565	10794.84
432.772	10977.11
432.979	11362.13
433.187	11327.32
433.394	11648.85
433.601	12494.66
433.808	12398.4
434.016	12107.59
434.223	12881.72
434.43	13678.38
434.637	13225.78
434.844	14024.49
435.052	14411.56
435.259	14337.83
435.466	14227.24
435.673	14210.86
435.88	15429.4
436.087	15841.04
436.294	15859.47
436.501	15632.15
436.708	16086.79
436.915	16764.67
437.122	17651.44
437.329	17121.02
437.537	17923.82
437.743	18120.43
437.95	18124.52
438.157	19119.84
438.364	19515.09
438.571	19605.2
438.778	19640.02
438.985	21356.22
439.192	20917.95
439.399	21106.37
439.606	20934.34
439.813	22216.36
440.02	23070.37
440.227	22744.74
440.433	22793.89
440.64	23428.76
440.847	23363.23
441.054	23672.47
441.261	25355.9
441.467	24907.4
441.674	25788.02
441.881	26590.83
442.088	26596.97
442.294	25986.68
442.501	26777.19
442.708	27317.86
442.914	28603.98
443.121	29693.5
443.328	28894.79
443.534	30879.27
443.741	30182.96
443.948	29632.06
444.154	31895.07
444.361	31391.26
444.568	31675.93
444.774	31671.84
444.981	32359.95
445.187	33119.75
445.394	34682.35
445.6	33879.55
445.807	37035.47
446.013	35683.81
446.22	36931.02
446.426	37524.93
446.633	37860.8
446.839	39239.08
447.046	37596.61
447.252	39654.82
447.459	39800.22
447.665	39638.44
447.871	41758.08
448.078	43335.02
448.284	40598.93
448.491	42220.92
448.697	43818.34
448.903	44445.02
449.11	44420.44
449.316	43392.36
449.522	44557.66
449.728	45677.89
449.935	45995.33
450.141	45815.11
450.347	47127.86
450.553	45587.78
450.76	46048.58
450.966	47463.72
451.172	46953.78
451.378	48164.13
451.584	47213.87
451.791	47867.17
451.997	47922.47
452.203	48680.22
452.409	48792.86
452.615	48239.9
452.821	46869.81
453.027	46054.72
453.233	49179.92
453.44	46880.05
453.646	47203.63
453.852	47236.4
454.058	47770.92
454.264	46552.38
454.47	47576.36
454.676	46296.38
454.882	47598.89
455.088	43593.06
455.294	44342.62
455.5	45167.95
455.705	45571.4
455.911	43789.67
456.117	42640.76
456.323	42143.1
456.529	40199.58
456.735	41848.19
456.941	40762.77
457.147	40175
457.352	38981.04
457.558	38364.6
457.764	38604.21
457.97	37965.24
458.176	36392.4
458.381	36851.15
458.587	34911.72
458.793	35296.74
458.999	33340.93
459.204	35540.45
459.41	34489.84
459.616	32294.42
459.821	32155.16
460.027	32380.43
460.233	31493.66
460.438	29681.21
460.644	30311.99
460.85	28593.74
461.055	28393.04
461.261	28321.36
461.466	26336.88
461.672	25546.36
461.878	27387.49
462.083	25466.49
462.289	24673.93
462.494	24731.27
462.7	23531.16
462.905	23086.75
463.111	23627.42
463.316	23877.27
463.522	23281.31
463.727	23539.35
463.932	22900.39
464.138	23051.94
464.343	23258.78
464.549	22484.65
464.754	23066.27
464.959	22832.8
465.165	23002.78
465.37	22079.15
465.575	21176
465.781	22232.75
465.986	22451.88
466.191	21610.17
466.397	21276.35
466.602	20055.76
466.807	20616.9
467.012	20940.48
467.218	20518.6
467.423	20872.9
467.628	20639.43
467.833	21345.98
468.038	20698.82
468.244	19883.73
468.449	20860.61
468.654	20102.86
468.859	19832.53
469.064	19644.12
469.269	19338.97
469.474	19310.3
469.679	19711.7
469.885	18872.03
470.09	19343.06
470.295	19179.23
470.5	18630.37
470.705	18644.71
470.91	18560.74
471.115	17886.96
471.32	18505.45
471.525	18206.44
471.73	18052.84
471.935	17870.58
472.139	17155.83
472.344	17618.68
472.549	17331.96
472.754	17172.22
472.959	16719.62
473.164	16348.93
473.369	16084.75
473.574	16930.56
473.778	16535.3
473.983	16396.04
474.188	16258.82
474.393	15740.69
474.598	15509.27
474.802	15468.31
475.007	15255.32
475.212	15388.44
475.417	14964.51
475.621	14671.65
475.826	14950.17
476.031	14522.15
476.235	14331.69
476.44	14550.82
476.645	13983.53
476.849	14415.65
477.054	14139.18
477.259	13797.17
477.463	13608.75
477.668	13406
477.872	13772.59
478.077	13414.2
478.282	12822.33
478.486	13088.57
478.691	12887.87
478.895	12824.38
479.1	12783.42
479.304	12629.82
479.509	12328.77
479.713	12713.79
479.918	12367.68
480.122	12189.51
480.326	12451.65
480.531	12420.93
480.735	12140.36
480.94	12058.44
481.144	12613.44
481.348	12013.38
481.553	12130.12
481.757	11859.79
481.961	12101.45
482.166	12171.08
482.37	12050.25
482.574	11734.86
482.778	11888.46
482.983	11937.61
483.187	11923.27
483.391	11972.43
483.595	11741
483.8	11738.96
484.004	11886.41
484.208	11831.12
484.412	11605.84
484.616	11923.27
484.821	11892.55
485.025	11757.39
485.229	11978.57
485.433	11693.9
485.637	11874.12
485.841	11781.96
486.045	11689.81
486.249	11863.88
486.453	11685.71
486.657	11784.01
486.861	11976.52
487.065	11614.03
487.269	11730.76
487.473	11843.4
487.677	11845.45
487.881	12027.72
488.085	11710.29
488.289	11941.71
488.493	11722.57
488.697	11863.88
488.901	11927.37
489.105	12023.62
489.309	11913.03
489.512	12085.06
489.716	11751.24
489.92	11978.57
490.124	11722.57
490.328	12169.03
490.531	12058.44
490.735	12154.69
490.939	12345.16
491.143	12220.23
491.346	12203.85
491.55	12265.28
491.754	12117.83
491.958	12074.82
492.161	12216.13
492.365	12535.62
492.569	12552
492.772	12343.11
492.976	12382.02
493.18	12562.24
493.383	12638.02
493.587	12775.23
493.79	13063.99
493.994	12756.8
494.197	12988.22
494.401	13111.1
494.605	12986.17
494.808	13219.64
495.012	13233.97
495.215	13543.22
495.419	13637.42
495.622	13346.61
495.825	13664.05
496.029	13694.77
496.232	14325.54
496.436	13580.08
496.639	14247.72
496.843	14219.05
497.046	14427.94
497.249	14466.85
497.453	14595.87
497.656	14647.07
497.859	14872.35
498.063	15116.06
498.266	15163.16
498.469	15048.47
498.673	15335.19
498.876	15656.72
499.079	15548.18
499.282	15877.9
499.485	16117.51
499.689	16228.1
499.892	16598.79
500.095	16480
500.298	17170.17
500.501	16762.62
500.705	17123.07
500.908	17411.83
501.111	17516.28
501.314	17772.27
501.517	17876.72
501.72	18102
501.923	17940.21
502.126	18325.22
502.329	18513.64
502.532	18620.13
502.735	18927.33
502.938	19267.29
503.141	19343.06
503.344	19625.68
503.547	19611.35
503.75	19988.17
503.953	20078.29
504.156	20362.95
504.359	20563.65
504.562	20698.82
504.765	21034.69
504.968	21329.59
505.17	21651.13
505.373	21745.33
505.576	22017.71
505.779	22212.27
505.982	22513.32
506.185	22746.79
506.387	22673.06
506.59	22918.82
506.793	23283.36
506.996	23207.58
507.198	24024.72
507.401	23416.47
507.604	24063.63
507.807	24792.71
508.009	24755.85
508.212	24950.4
508.415	25067.14
508.617	25366.14
508.82	25693.82
509.022	25321.09
509.225	26150.51
509.428	26211.95
509.63	26723.94
509.833	26498.67
510.035	27256.42
510.238	27248.22
510.44	27481.69
510.643	27749.98
510.845	28141.14
511.048	28044.88
511.25	28264.02
511.453	28737.1
511.655	29744.7
511.858	29201.99
512.06	29288
512.262	29703.74
512.465	29888.06
512.667	30373.42
512.87	30805.55
513.072	30836.27
513.274	31047.21
513.477	31475.23
513.679	31948.31
513.881	31649.31
514.084	32341.52
514.286	32517.65
514.488	32132.63
514.69	33422.85
514.893	33527.3
515.095	33205.77
515.297	33955.32
515.499	33940.99
515.701	34600.43
515.904	35020.27
516.106	34975.21
516.308	35526.11
516.51	35624.42
516.712	35692
516.914	36040.15
517.116	36621.78
517.318	36253.14
517.52	36597.2
517.722	37111.24
517.925	37440.96
518.127	37948.86
518.329	38376.89
518.531	38030.78
518.733	38809.01
518.935	38921.65
519.136	38809.01
519.338	39620
519.54	39189.93
519.742	39941.53
519.944	40193.43
520.146	40910.22
520.348	40797.59
520.55	41401.74
520.752	41010.57
520.954	42130.81
521.155	41495.94
521.357	42368.38
521.559	42253.69
521.761	43052.4
521.963	42954.1
522.164	42900.85
522.366	42882.42
522.568	43662.69
522.77	43789.67
522.971	44506.46
523.173	43996.51
523.375	44395.87
523.576	44354.91
523.778	44320.09
523.98	45196.62
524.181	45163.85
524.383	45155.66
524.584	45780.29
524.786	45557.06
524.988	45651.27
525.189	46308.67
525.391	46396.73
525.592	46693.69
525.794	46509.37
525.995	47002.93
526.197	47015.22
526.398	47652.14
526.6	47232.3
526.801	47574.31
527.003	47977.76
527.204	47531.31
527.406	48151.84
527.607	47734.06
527.808	48538.91
528.01	47596.84
528.211	47885.61
528.412	48786.71
528.614	48704.79
528.815	48520.48
529.016	49270.03
529.218	48772.38
529.419	49055
529.62	49003.8
529.822	48794.9
530.023	49300.75
530.224	48981.27
530.425	49106.19
530.626	48921.88
530.828	48913.69
531.029	49771.78
531.23	48995.6
531.431	49265.94
531.632	49200.4
531.833	49560.84
532.035	49302.8
532.236	49384.72
532.437	49890.57
532.638	49302.8
532.839	49820.94
533.04	49970.44
533.241	49290.51
533.442	50093.32
533.643	49376.53
533.844	49659.15
534.045	50052.36
534.246	49437.97
534.447	50121.99
534.648	49519.88
534.849	49589.52
535.05	49093.91
535.251	49986.82
535.451	49556.75
535.652	49683.72
535.853	49055
536.054	49790.22
536.255	49575.18
536.456	49237.26
536.657	49962.25
536.857	49661.19
537.058	49073.43
537.259	49788.17
537.46	49394.96
537.66	49454.35
537.861	49878.28
538.062	49036.56
538.263	49462.54
538.463	49302.8
538.664	49052.95
538.865	49308.94
539.065	49663.24
539.266	48835.86
539.466	49585.42
539.667	48815.38
539.868	49956.1
540.068	49081.62
540.269	49124.63
540.469	49761.54
540.67	48784.66
540.87	49341.71
541.071	49235.22
541.271	49247.5
541.472	48934.17
541.672	48977.17
541.873	49184.02
542.073	48350.49
542.274	49175.83
542.474	48813.34
542.675	48725.27
542.875	48971.03
543.075	48643.35
543.276	48313.63
543.476	49270.03
543.676	48805.14
543.877	48682.27
544.077	48489.76
544.277	48784.66
544.478	48364.83
544.678	48950.55
544.878	48471.32
545.078	48504.09
545.279	48643.35
545.479	48100.64
545.679	48319.77
545.879	48446.75
546.079	48538.91
546.28	48287.01
546.48	48106.79
546.68	48563.48
546.88	48602.39
547.08	48297.25
547.28	48065.83
547.48	47897.89
547.68	48207.14
547.88	47988
548.081	48282.91
548.281	48104.74
548.481	48164.13
548.681	48571.67
548.881	48131.36
549.081	48469.28
549.28	47988
549.48	48327.97
549.68	47936.8
549.88	48547.1
550.08	48104.74
550.28	47940.9
550.48	47740.2
550.68	48618.78
550.88	47967.52
551.08	47564.07
551.279	47721.77
551.479	47658.28
551.679	47433
551.879	47588.65
552.079	47924.52
552.278	47504.68
552.478	47924.52
552.678	47861.03
552.878	47654.18
553.077	47420.72
553.277	47459.63
553.477	47766.82
553.676	47346.99
553.876	47799.59
554.076	47336.75
554.275	47312.17
554.475	46861.62
554.674	47629.61
554.874	47496.49
555.074	47129.9
555.273	47437.1
555.473	47631.66
555.672	46783.8
555.872	47062.32
556.071	47117.62
556.271	47246.64
556.47	47191.34
556.67	46605.62
556.869	46759.22
557.068	46980.4
557.268	46449.98
557.467	46642.49
557.667	46964.02
557.866	46513.47
558.065	46290.24
558.265	46695.74
558.464	46447.93
558.663	46546.23
558.863	45669.7
559.062	46939.44
559.261	46054.72
559.461	46650.68
559.66	45911.36
559.859	45907.27
560.058	45759.81
560.258	46112.06
560.457	45849.92
560.656	46081.34
560.855	45665.61
561.054	45757.77
561.253	45524.3
561.453	45235.53
561.652	46071.1
561.851	46054.72
562.05	45493.58
562.249	45438.28
562.448	45616.46
562.647	45544.78
562.846	45002.07
563.045	44911.95
563.244	44997.97
563.443	45487.43
563.642	44914
563.841	45000.02
564.04	44918.1
564.239	45419.85
564.438	44834.13
564.637	44993.87
564.836	45104.46
565.035	44506.46
565.234	44612.95
565.432	44217.69
565.631	44072.29
565.83	44330.33
566.029	44705.11
566.228	44094.82
566.427	44111.2
566.625	44105.06
566.824	43638.12
567.023	43816.29
567.222	43298.16
567.42	43978.08
567.619	43646.31
567.818	43689.32
568.016	43378.03
568.215	43728.23
568.414	43500.9
568.612	43842.91
568.811	43216.24
569.01	43335.02
569.208	42321.27
569.407	43050.35
569.605	42528.12
569.804	42970.48
570.002	42354.04
570.201	42687.86
570.4	42007.93
570.598	42630.52
570.797	42198.4
570.995	42366.33
571.193	41991.55
571.392	42335.61
571.59	41667.97
571.789	41680.26
571.987	41760.13
572.186	41741.7
572.384	41588.1
572.582	41407.88
572.781	42016.13
572.979	41518.47
573.177	41647.49
573.376	41690.5
573.574	40654.23
573.772	41219.47
573.971	40775.06
574.169	40996.24
574.367	40715.67
574.565	41016.72
574.763	40549.78
574.962	40115.61
575.16	39720.35
575.358	40377.75
575.556	39927.2
575.754	40287.64
575.952	39708.07
576.151	40478.1
576.349	39374.25
576.547	39953.82
576.745	40058.27
576.943	39265.7
577.141	39499.17
577.339	39400.87
577.537	39120.3
577.735	39255.46
577.933	39028.14
578.131	39427.49
578.329	38862.25
578.527	38690.23
578.725	38892.97
578.923	39065
579.121	38874.54
579.319	38669.75
579.516	38696.37
579.714	38391.22
579.912	38622.64
580.11	38135.23
580.308	38260.15
580.506	37686.72
580.704	37629.38
580.901	37828.03
581.099	37967.29
581.297	37866.94
581.495	37408.2
581.692	37762.5
581.89	37203.4
582.088	37774.78
582.285	37150.15
582.483	37350.85
582.681	37301.7
582.878	37072.33
583.076	36568.53
583.274	36828.62
583.471	36767.18
583.669	36521.43
583.866	36126.17
584.064	36459.99
584.262	35917.28
584.459	36183.51
584.657	36167.13
584.854	36261.33
585.052	35589.6
585.249	36163.03
585.447	36029.91
585.644	35104.23
585.841	35554.79
586.039	36206.04
586.236	35208.68
586.434	35571.17
586.631	35268.07
586.828	35126.76
587.026	35061.22
587.223	35167.72
587.42	34567.66
587.618	34823.66
587.815	34772.46
588.012	34594.29
588.21	34420.21
588.407	34381.3
588.604	34395.64
588.801	34160.12
588.999	34455.03
589.196	34029.05
589.393	33838.59
589.59	33906.17
589.787	33969.66
589.984	33793.53
590.182	33191.43
590.379	33867.26
590.576	33166.85
590.773	33451.52
590.97	33144.33
591.167	33275.4
591.364	32810.51
591.561	32890.38
591.758	32482.83
591.955	32441.87
592.152	32691.73
592.349	32521.74
592.546	32421.39
592.743	32499.22
592.94	31876.63
593.137	32095.77
593.334	32106.01
593.531	31936.02
593.727	32134.68
593.924	32259.6
594.121	31739.42
594.318	31938.07
594.515	31276.58
594.712	31657.5
594.908	31329.83
595.105	31313.44
595.302	31331.87
595.499	30926.38
595.696	30787.11
595.892	30731.82
596.089	30783.02
596.286	30920.23
596.482	30465.58
596.679	30596.65
596.876	30465.58
597.072	30551.6
597.269	30576.17
597.466	30121.52
597.662	29869.62
597.859	29695.55
598.055	30037.56
598.252	29707.83
598.448	29695.55
598.645	29546.05
598.841	29081.16
599.038	29208.13
599.234	29679.16
599.431	29013.57
599.627	29429.31
599.824	29343.3
600.02	28966.47
600.217	29140.55
600.413	29015.62
600.609	28862.02
600.806	28776.01
601.002	28798.54
601.198	28354.13
601.395	28450.38
601.591	28528.2
601.787	28769.86
601.984	28221.01
602.18	28315.22
602.376	28212.82
602.572	27801.18
602.769	28243.54
602.965	27518.56
603.161	27952.73
603.357	27561.56
603.553	27590.23
603.75	27346.53
603.946	27229.79
604.142	27258.46
604.338	27139.68
604.534	27188.83
604.73	26916.45
604.926	26842.73
605.122	27170.4
605.318	26758.76
605.514	26769
605.71	26517.1
605.906	26517.1
606.102	26406.51
606.298	26889.83
606.494	26252.91
606.69	26678.89
606.886	26244.72
607.082	26170.99
607.278	26365.55
607.474	25771.64
607.67	25880.18
607.866	25874.04
608.062	26295.92
608.257	25642.62
608.453	26046.07
608.649	26154.61
608.845	25749.11
609.041	25841.27
609.236	25628.28
609.432	25939.57
609.628	25396.86
609.824	25392.76
610.019	25206.4
610.215	25521.79
610.411	25271.93
610.606	25140.86
610.802	25190.02
610.998	24938.12
611.193	24921.73
611.389	24768.13
611.584	24989.31
611.78	24510.09
611.976	24811.14
612.171	24694.41
612.367	24536.71
612.562	24692.36
612.758	24151.7
612.953	24540.81
613.149	24682.12
613.344	24157.84
613.539	24424.08
613.735	24604.3
613.93	24422.03
614.126	24077.97
614.321	24563.34
614.517	24587.91
614.712	24350.35
614.907	24067.73
615.103	23877.27
615.298	24100.5
615.493	24098.45
615.688	23819.92
615.884	24397.45
616.079	23656.09
616.274	23641.75
616.47	23877.27
616.665	23713.43
616.86	23858.84
617.055	23668.37
617.25	23355.04
617.445	23684.76
617.641	23004.83
617.836	23590.55
618.031	23004.83
618.226	23295.64
618.421	23019.17
618.616	23226.01
618.811	23088.8
619.006	23340.7
619.201	22531.75
619.396	22415.02
619.591	22541.99
619.786	22705.83
619.981	22396.59
620.176	22546.09
620.371	22138.54
620.566	22613.67
620.761	22443.69
620.956	22388.39
621.151	21817.01
621.346	22042.29
621.541	21454.52
621.735	21870.26
621.93	21317.31
622.125	21216.96
622.32	21196.48
622.515	21173.95
622.709	20995.78
622.904	21155.52
623.099	20850.37
623.294	20960.96
623.488	20592.33
623.683	20770.5
623.878	20621
624.072	20444.87
624.267	20342.47
624.462	20186.83
624.656	19785.43
624.851	19842.77
625.046	19861.2
625.24	19900.11
625.435	19336.92
625.629	19433.18
625.824	19347.16
626.018	19490.52
626.213	18953.95
626.407	19224.28
626.602	18898.66
626.796	18910.94
626.991	19105.5
627.185	19027.68
627.38	18769.63
627.574	18650.85
627.768	18304.74
627.963	18192.11
628.157	18089.71
628.352	18087.66
628.546	17737.46
628.74	18286.31
628.935	17743.6
629.129	17790.7
629.323	17329.91
629.517	17405.69
629.712	17428.21
629.906	17428.21
630.1	16797.44
630.294	17227.51
630.489	16955.13
630.683	16946.94
630.877	16844.54
631.071	16582.4
631.265	16498.44
631.459	16807.68
631.653	16443.14
631.848	16529.16
632.042	16336.65
632.236	16580.35
632.43	16023.31
632.624	16221.96
632.818	16058.12
633.012	15968.01
633.206	15832.85
633.4	16013.07
633.594	15503.12
633.788	15560.47
633.982	15619.86
634.176	15257.37
634.369	15433.49
634.563	15224.6
634.757	15294.23
634.951	15062.81
635.145	15148.82
635.339	15062.81
635.533	14804.77
635.726	14870.3
635.92	14698.27
636.114	14806.81
636.308	14511.91
636.501	14323.49
636.695	14534.43
636.889	14214.95
637.083	14348.07
637.276	14425.89
637.47	14272.29
637.664	13928.24
637.857	13975.34
638.051	13782.83
638.244	13858.6
638.438	13920.04
638.632	13727.53
638.825	13705.01
639.019	13453.11
639.212	13352.76
639.406	13485.87
639.599	13496.11
639.793	13381.43
639.986	13395.76
640.18	13123.38
640.373	13180.73
640.567	13066.04
640.76	13100.86
640.954	12808
641.147	12783.42
641.34	12660.54
641.534	12691.26
641.727	12527.42
641.92	12705.6
642.114	12238.66
642.307	12197.7
642.5	12265.28
642.694	11988.81
642.887	12197.7
643.08	12332.87
643.273	12052.3
643.467	12072.78
643.66	11861.83
643.853	11945.8
644.046	11788.11
644.239	11824.97
644.432	11628.37
644.626	11710.29
644.819	11188.05
645.012	11380.56
645.205	11448.15
645.398	11306.84
645.591	11474.77
645.784	11380.56
645.977	10989.4
646.17	11087.7
646.363	10936.15
646.556	11016.02
646.749	10950.49
646.942	11038.55
647.135	10760.03
647.328	10770.27
647.521	10710.88
647.714	10676.06
647.907	10581.85
648.099	10547.04
648.292	10536.8
648.485	10489.7
648.678	10243.94
648.871	10360.67
649.064	10125.16
649.256	10241.89
649.449	9987.94
649.642	10200.93
649.835	10045.29
650.027	10012.52
650.22	9768.81
650.413	9693.04
650.605	9944.94
650.798	9805.67
650.991	9717.61
651.183	9709.42
651.376	9742.19
651.568	9729.9
651.761	9549.68
651.954	9396.08
652.146	9346.93
652.339	9213.81
652.531	9494.38
652.724	9211.76
652.916	9127.8
653.109	9121.65
653.301	9164.66
653.494	9144.18
653.686	8990.58
653.879	8976.25
654.071	8896.38
654.263	8779.64
654.456	8949.62
654.648	8839.03
654.84	8757.11
655.033	8800.12
655.225	8654.72
655.417	8628.09
655.61	8546.17
655.802	8558.46
655.994	8521.6
656.186	8574.85
656.379	8546.17
656.571	8435.58
656.763	8478.59
656.955	8365.95
657.148	8140.68
657.34	8345.47
657.532	8157.06
657.724	7991.17
657.916	8118.15
658.108	8120.2
658.3	7853.96
658.492	8112
658.684	7767.95
658.876	7704.46
659.068	7778.19
659.26	7722.89
659.452	7606.16
659.644	7733.13
659.836	7518.09
660.028	7735.18
660.22	7393.17
660.412	7489.42
660.604	7475.09
660.796	7503.76
660.988	7454.61
661.18	7315.34
661.372	7321.49
661.563	7260.05
661.755	7376.78
661.947	7198.61
662.139	7022.48
662.331	7149.46
662.522	7006.1
662.714	7055.25
662.906	7045.01
663.097	6911.89
663.289	6864.79
663.481	6959
663.673	6809.5
663.864	6911.89
664.056	6725.53
664.247	6987.67
664.439	6727.58
664.631	6764.44
664.822	6553.5
665.014	6711.19
665.205	6604.7
665.397	6580.12
665.588	6600.6
665.78	6490.01
665.971	6238.11
666.163	6436.77
666.354	6442.91
666.546	6258.59
666.737	6471.58
666.929	6272.93
667.12	6229.92
667.311	6307.74
667.503	6131.62
667.694	6262.69
667.885	6236.06
668.077	6029.22
668.268	6053.8
668.459	6191.01
668.651	5838.76
668.842	5912.49
669.033	5943.21
669.224	6010.79
669.416	6025.12
669.607	5965.73
669.798	5814.18
669.989	5785.51
670.18	5746.6
670.371	5750.7
670.563	5648.3
670.754	5670.83
670.945	5564.33
671.136	5701.55
671.327	5769.13
671.518	5595.05
671.709	5752.74
671.9	5758.89
672.091	5715.88
672.282	5488.56
672.473	5384.11
672.664	5359.53
672.855	5408.69
673.046	5373.87
673.237	5535.66
673.428	5318.57
673.619	5466.03
673.809	5144.5
674	5142.45
674.191	5232.56
674.382	5257.14
674.573	5232.56
674.764	5195.7
674.954	5302.19
675.145	5054.39
675.336	5154.74
675.527	5156.79
675.717	5361.58
675.908	5138.35
676.099	5130.16
676.289	5124.02
676.48	5081.01
676.671	5070.77
676.861	5029.81
677.052	4974.52
677.243	4788.15
677.433	5042.1
677.624	5019.57
677.814	5035.96
678.005	4949.94
678.195	4872.12
678.386	4913.08
678.576	4839.35
678.767	4927.41
678.957	4906.93
679.148	4908.98
679.338	4861.88
679.529	4779.96
679.719	4782.01
679.909	4796.34
680.1	4710.33
680.29	4822.97
680.481	4730.81
680.671	4624.31
680.861	4655.03
681.052	4786.1
681.242	4822.97
681.432	4644.79
681.622	4702.14
681.813	4646.84
682.003	4704.18
682.193	4618.17
682.383	4612.03
682.573	4587.45
682.764	4472.76
682.954	4476.86
683.144	4628.41
683.334	4550.59
683.524	4358.08
683.714	4419.52
683.904	4448.19
684.094	4351.93
684.284	4405.18
684.474	4476.86
684.664	4370.37
684.854	4401.08
685.044	4229.06
685.234	4431.8
685.424	4358.08
685.614	4278.21
685.804	4278.21
685.994	4321.21
686.184	4335.55
686.374	4284.35
686.564	4079.55
686.753	4282.3
686.943	4190.14
687.133	4163.52
687.323	3979.2
687.513	4083.65
687.702	4259.77
687.892	4237.25
688.082	4093.89
688.272	4079.55
688.461	4079.55
688.651	4200.38
688.841	3956.68
689.03	3987.4
689.22	3987.4
689.41	3987.4
689.599	3788.74
689.789	3960.77
689.979	3710.92
690.168	3958.72
690.358	3868.61
690.547	3846.09
690.737	3948.48
690.926	3780.55
691.116	3639.24
691.305	3942.34
691.495	3770.31
691.684	3725.26
691.874	3772.36
692.063	3719.11
692.252	3794.89
692.442	3809.22
692.631	3672.01
692.82	3502.03
693.01	3571.66
693.199	3600.33
693.388	3643.34
693.578	3667.91
693.767	3682.25
693.956	3686.34
694.146	3561.42
694.335	3465.16
694.524	3471.31
694.713	3573.71
694.902	3504.07
695.092	3614.66
695.281	3440.59
695.47	3518.41
695.659	3514.31
695.848	3479.5
696.037	3436.49
696.226	3571.66
696.415	3555.27
696.604	3442.64
696.793	3368.91
696.982	3467.21
697.171	3534.79
697.36	3426.25
697.549	3295.18
697.738	3512.27
697.927	3301.33
698.116	3342.28
698.305	3491.79
698.494	3282.89
698.683	3467.21
698.872	3393.48
699.061	3370.96
699.25	3456.97
699.438	3250.13
699.627	3332.05
699.816	3307.47
700.005	3262.41
700.193	3317.71
700.382	3313.61
700.571	3338.19
700.76	3284.94
700.948	3356.62
701.137	3368.91
701.326	3393.48
701.514	3401.68
701.703	3286.99
701.892	3252.17
702.08	3461.07
702.269	3235.79
702.457	3342.28
702.646	3385.29
702.834	3293.13
703.023	3350.48
703.212	3280.85
703.4	3233.74
703.589	3393.48
703.777	3358.67
703.965	3315.66
704.154	3262.41
704.342	3221.45
704.531	3217.36
704.719	3295.18
704.907	3289.04
705.096	3182.54
705.284	3252.17
705.472	3299.28
705.661	3160.02
705.849	3260.37
706.037	3151.82
706.226	3102.67
706.414	3170.26
706.602	3092.43
706.79	3196.88
706.979	3047.38
707.167	3108.82
707.355	3149.78
707.543	3139.54
707.731	3209.17
707.919	3205.07
708.107	3182.54
708.296	3166.16
708.484	3110.86
708.672	3102.67
708.86	3227.6
709.048	3196.88
709.236	3153.87
709.424	3180.5
709.612	3221.45
709.8	3184.59
709.988	3135.44
710.176	3153.87
710.364	3088.34
710.551	3213.26
710.739	3135.44
710.927	3143.63
711.115	3061.71
711.303	3022.8
711.491	3055.57
711.679	3131.34
711.866	3086.29
712.054	3090.38
712.242	3065.81
712.43	3114.96
712.617	3012.56
712.805	3051.47
712.993	2949.07
713.181	2955.22
713.368	3012.56
713.556	3057.62
713.744	3033.04
713.931	3008.47
714.119	2932.69
714.306	3018.71
714.494	3114.96
714.682	2983.89
714.869	3008.47
715.057	3086.29
715.244	2971.6
715.432	3063.76
715.619	2973.65
715.807	2990.03
715.994	2877.4
716.182	3006.42
716.369	2971.6
716.556	2951.12
716.744	2987.99
716.931	2947.03
717.119	2957.27
717.306	2967.51
717.493	2920.4
717.681	2994.13
717.868	2926.55
718.055	2873.3
718.242	2844.63
718.43	2887.64
718.617	3006.42
718.804	2871.25
718.991	2994.13
719.179	2942.93
719.366	2934.74
719.553	2893.78
719.74	2951.12
719.927	2756.57
720.114	2881.49
720.301	2719.7
720.488	2772.95
720.676	2858.96
720.863	2738.13
721.05	2760.66
721.237	2824.15
721.424	2897.88
721.611	2791.38
721.798	2799.57
721.985	2785.24
722.172	2781.14
722.358	2701.27
722.545	2926.55
722.732	2600.92
722.919	2770.9
723.106	2772.95
723.293	2717.65
723.48	2676.7
723.667	2799.57
723.853	2676.7
724.04	2650.07
724.227	2770.9
724.414	2746.33
724.6	2691.03
724.787	2731.99
724.974	2725.85
725.161	2770.9
725.347	2684.89
725.534	2664.41
725.72	2731.99
725.907	2734.04
726.094	2699.22
726.28	2686.94
726.467	2627.54
726.653	2605.02
726.84	2695.13
727.027	2803.67
727.213	2648.02
727.4	2592.73
727.586	2533.34
727.773	2617.3
727.959	2621.4
728.145	2729.94
728.332	2611.16
728.518	2627.54
728.705	2613.21
728.891	2652.12
729.077	2557.91
729.264	2596.82
729.45	2635.74
729.636	2609.11
729.823	2439.13
730.009	2652.12
730.195	2607.06
730.382	2695.13
730.568	2668.5
730.754	2586.58
730.94	2576.34
731.126	2617.3
731.313	2506.71
731.499	2482.14
731.685	2457.56
731.871	2504.67
732.057	2504.67
732.243	2521.05
732.429	2609.11
732.615	2529.24
732.801	2609.11
732.987	2504.67
733.173	2480.09
733.359	2494.43
733.545	2514.91
733.731	2516.95
733.917	2527.19
734.103	2420.7
734.289	2500.57
734.475	2410.46
734.661	2473.95
734.847	2445.27
735.033	2435.03
735.219	2451.42
735.404	2451.42
735.59	2283.49
735.776	2441.18
735.962	2402.27
736.148	2443.23
736.333	2480.09
736.519	2340.83
736.705	2328.54
736.89	2400.22
737.076	2447.32
737.262	2383.84
737.447	2230.24
737.633	2320.35
737.819	2367.45
738.004	2383.84
738.19	2289.63
738.375	2306.01
738.561	2312.16
738.747	2316.25
738.932	2248.67
739.118	2281.44
739.303	2263.01
739.489	2125.79
739.674	2252.77
739.859	2187.23
740.045	2226.14
740.23	2244.57
740.416	2193.37
740.601	2152.42
740.786	2197.47
740.972	2166.75
741.157	2179.04
741.342	2193.37
741.528	2017.25
741.713	2070.5
741.898	2187.23
742.084	2334.68
742.269	2136.03
742.454	2127.84
742.639	2080.74
742.824	2019.3
743.01	2062.3
743.195	2084.83
743.38	2013.15
743.565	2007.01
743.75	2025.44
743.935	2052.06
744.12	2041.82
744.305	1992.67
744.49	2039.78
744.675	1908.71
744.86	2002.91
745.045	1943.52
745.23	1941.47
745.415	1968.1
745.6	1869.8
745.785	1939.43
745.97	1886.18
746.155	1888.23
746.34	1968.1
746.525	1859.56
746.71	1892.32
746.895	1775.59
747.079	1935.33
747.264	1830.88
747.449	1890.28
747.634	1912.8
747.819	1789.92
748.003	1767.4
748.188	1634.28
748.373	1781.73
748.557	1734.63
748.742	1667.05
748.927	1669.09
749.111	1665
749.296	1648.61
749.481	1763.3
749.665	1769.44
749.85	1705.96
750.034	1667.05
750.219	1779.68
750.404	1642.47
750.588	1765.35
750.773	1538.02
750.957	1538.02
751.141	1710.05
751.326	1572.84
751.51	1583.08
751.695	1576.94
751.879	1583.08
752.064	1605.61
752.248	1542.12
752.432	1624.04
752.617	1497.07
752.801	1527.78
752.985	1476.59
753.17	1460.2
753.354	1576.94
753.538	1474.54
753.722	1456.11
753.907	1425.39
754.091	1468.39
754.275	1435.63
754.459	1480.68
754.643	1345.52
754.828	1433.58
755.012	1353.71
755.196	1357.8
755.38	1302.51
755.564	1296.36
755.748	1394.67
755.932	1335.28
756.116	1343.47
756.3	1290.22
756.484	1193.97
756.668	1261.55
756.852	1269.74
757.036	1353.71
757.22	1271.79
757.404	1259.5
757.588	1329.13
757.772	1347.56
757.956	1337.32
758.14	1273.84
758.323	1245.16
758.507	1261.55
758.691	1279.98
758.875	1171.44
759.059	1210.35
759.242	1202.16
759.426	1236.97
759.61	1228.78
759.794	1204.21
759.977	1142.77
760.161	1216.49
760.345	1153.01
760.528	1150.96
760.712	1081.33
760.895	1099.76
761.079	1136.62
761.263	1118.19
761.446	1093.62
761.63	1126.38
761.813	1128.43
761.997	1060.85
762.18	972.79
762.364	1163.25
762.547	1030.13
762.731	1060.85
762.914	1062.9
763.098	1048.56
763.281	1050.61
763.464	962.55
763.648	1032.18
763.831	935.92
764.015	983.02
764.198	987.12
764.381	952.31
764.564	1023.98
764.748	1040.37
764.931	1101.81
765.114	1081.33
765.297	1083.38
765.481	1007.6
765.664	1007.6
765.847	917.49
766.03	997.36
766.213	1003.5
766.397	892.91
766.58	958.45
766.763	1028.08
766.946	864.24
767.129	954.35
767.312	923.63
767.495	976.88
767.678	978.93
767.861	925.68
768.044	1021.94
768.227	968.69
768.41	917.49
768.593	925.68
768.776	923.63
768.959	845.81
769.142	946.16
769.324	888.82
769.507	841.72
769.69	976.88
769.873	839.67
770.056	921.59
770.239	870.39
770.421	882.67
770.604	897.01
770.787	856.05
770.97	847.86
771.152	841.72
771.335	862.19
771.518	753.65
771.7	919.54
771.883	831.48
772.066	940.02
772.248	876.53
772.431	802.8
772.613	829.43
772.796	792.56
772.978	868.34
773.161	849.91
773.343	780.28
773.526	784.37
773.708	833.52
773.891	794.61
774.073	702.45
774.256	765.94
774.438	788.47
774.621	696.31
774.803	749.56
774.985	813.04
775.168	751.6
775.35	821.24
775.532	794.61
775.715	688.12
775.897	649.21
776.079	737.27
776.261	743.41
776.444	638.97
776.626	784.37
776.808	710.65
776.99	677.88
777.173	649.21
777.355	677.88
777.537	632.82
777.719	626.68
777.901	686.07
778.083	649.21
778.265	559.1
778.447	692.21
778.629	559.1
778.811	620.53
778.993	602.1
779.175	591.86
779.357	614.39
779.539	587.77
779.721	579.58
779.903	612.34
780.085	612.34
780.267	595.96
780.449	628.73
780.631	579.58
780.812	647.16
780.994	557.05
781.176	577.53
781.358	583.67
781.54	626.68
781.721	595.96
781.903	546.81
782.085	522.23
782.267	595.96
782.448	501.75
782.63	587.77
782.812	544.76
782.993	518.14
783.175	555
783.357	540.66
783.538	528.38
783.72	434.17
783.901	532.47
784.083	524.28
784.264	473.08
784.446	452.6
784.627	442.36
784.809	448.51
784.99	462.84
785.172	495.61
785.353	419.83
785.535	458.74
785.716	417.79
785.897	395.26
786.079	487.42
786.26	448.51
786.441	415.74
786.623	362.49
786.804	452.6
786.985	491.51
787.167	511.99
787.348	432.12
787.529	438.27
787.71	417.79
787.891	415.74
788.073	385.02
788.254	374.78
788.435	458.74
788.616	376.83
788.797	348.15
788.978	413.69
789.159	393.21
789.34	430.07
789.522	364.54
789.703	456.7
789.884	446.46
790.065	428.03
790.246	354.3
790.427	436.22
790.607	397.31
790.788	446.46
790.969	376.83
791.15	464.89
791.331	362.49
791.512	382.97
791.693	387.07
791.874	284.67
792.054	403.45
792.235	331.77
792.416	301.05
792.597	352.25
792.778	223.23
792.958	380.92
793.139	303.1
793.32	346.11
793.5	342.01
793.681	348.15
793.862	352.25
794.042	352.25
794.223	249.85
794.404	350.2
794.584	253.95
794.765	354.3
794.945	323.58
795.126	342.01
795.306	346.11
795.487	366.59
795.667	364.54
795.848	327.67
796.028	309.24
796.209	348.15
796.389	333.82
796.57	196.61
796.75	245.76
796.93	358.39
797.111	299
797.291	288.76
797.471	288.76
797.652	272.38
797.832	233.47
798.012	321.53
798.192	282.62
798.373	231.42
798.553	196.61
798.733	286.72
798.913	305.15
799.093	239.61
799.274	194.56
799.454	227.32
799.634	307.2
799.814	212.99
799.994	280.57
800.174	346.11
800.354	296.96
800.534	161.79
800.714	245.76
800.894	225.28
801.074	208.89
801.254	243.71
801.434	231.42
801.614	245.76
801.794	229.37
801.974	655.35
802.154	274.43
802.334	192.51
802.514	260.09
802.693	223.23
802.873	233.47
803.053	299
803.233	249.85
803.413	235.52
803.592	223.23
803.772	86.01
803.952	194.56
804.131	247.8
804.311	243.71
804.491	192.51
804.67	253.95
804.85	167.93
805.03	243.71
805.209	258.04
805.389	212.99
805.568	182.27
805.748	243.71
805.928	147.45
806.107	210.94
806.287	188.41
806.466	167.93
806.646	231.42
806.825	116.73
807.004	239.61
807.184	233.47
807.363	212.99
807.543	208.89
807.722	192.51
807.901	159.74
808.081	182.27
808.26	215.04
808.439	239.61
808.619	215.04
808.798	192.51
808.977	217.08
809.156	278.52
809.336	192.51
809.515	262.14
809.694	30.72
809.873	198.65
810.052	231.42
810.231	249.85
810.411	212.99
810.59	174.08
810.769	165.89
810.948	202.75
811.127	237.56
811.306	114.69
811.485	126.97
811.664	137.21
811.843	225.28
812.022	264.19
812.201	53.25
812.38	237.56
812.559	186.37
812.737	249.85
812.916	151.55
813.095	182.27
813.274	77.82
813.453	194.56
813.632	143.36
813.811	147.45
813.989	169.98
814.168	200.7
814.347	198.65
814.526	221.18
814.704	133.12
814.883	141.31
815.062	145.41
815.24	172.03
815.419	163.84
815.598	194.56
815.776	34.82
815.955	231.42
816.133	155.65
816.312	124.93
816.49	104.45
816.669	225.28
816.847	96.25
817.026	202.75
817.204	182.27
817.383	139.26
817.561	141.31
817.74	102.4
817.918	106.49
818.097	147.45
818.275	198.65
818.453	167.93
818.632	174.08
818.81	176.13
818.988	194.56
819.167	143.36
819.345	104.45
819.523	124.93
819.701	190.46
819.879	147.45
820.058	106.49
820.236	133.12
820.414	100.35
820.592	147.45
820.77	180.22
820.948	139.26
821.127	112.64
821.305	63.49
821.483	83.97
821.661	188.41
821.839	178.17
822.017	151.55
822.195	155.65
822.373	110.59
822.551	71.68
822.729	112.64
822.907	163.84
823.085	165.89
823.262	61.44
823.44	114.69
823.618	124.93
823.796	83.97
823.974	133.12
824.152	110.59
824.329	69.63
824.507	176.13
824.685	182.27
824.863	106.49
825.04	108.54
825.218	120.83
825.396	90.11
825.574	126.97
825.751	194.56
825.929	94.21
826.107	59.39
826.284	114.69
826.462	102.4
826.639	118.78
826.817	114.69
826.994	88.06
827.172	88.06
827.349	92.16
827.527	182.27
827.704	26.62
827.882	155.65
828.059	71.68
828.237	83.97
828.414	157.69
828.591	141.31
828.769	40.96
828.946	104.45
829.124	133.12
829.301	124.93
829.478	165.89
829.655	102.4
829.833	145.41
830.01	92.16
830.187	210.94
830.364	69.63
830.542	120.83
830.719	77.82
830.896	137.21
831.073	120.83
831.25	122.88
831.427	79.87
831.604	92.16
831.782	26.62
831.959	141.31
832.136	32.77
832.313	102.4
832.49	124.93
832.667	61.44
832.844	126.97
833.021	104.45
833.198	38.91
833.374	131.07
833.551	86.01
833.728	34.82
833.905	126.97
834.082	100.35
834.259	104.45
834.436	118.78
834.612	106.49
834.789	104.45
834.966	100.35
835.143	43.01
835.319	63.49
835.496	114.69
835.673	69.63
835.85	73.73
836.026	49.15
836.203	110.59
836.38	-6.14
836.556	53.25
836.733	120.83
836.909	75.77
837.086	120.83
837.262	43.01
837.439	88.06
837.616	118.78
837.792	106.49
837.968	55.3
838.145	49.15
838.321	157.69
838.498	6.14
838.674	81.92
838.851	69.63
839.027	65.54
839.203	63.49
839.38	-14.34
839.556	38.91
839.732	188.41
839.909	10.24
840.085	104.45
840.261	-32.77
840.437	133.12
840.614	49.15
840.79	79.87
840.966	24.58
841.142	45.06
841.318	51.2
841.494	65.54
841.671	83.97
841.847	61.44
842.023	43.01
842.199	157.69
842.375	81.92
842.551	75.77
842.727	4.1
842.903	96.25
843.079	61.44
843.255	124.93
843.431	14.34
843.607	141.31
843.783	61.44
843.959	47.1
844.134	14.34
844.31	59.39
844.486	26.62
844.662	61.44
844.838	51.2
845.013	112.64
845.189	75.77
845.365	120.83
845.541	108.54
845.716	112.64
845.892	77.82
846.068	28.67
846.244	36.86
846.419	124.93
846.595	26.62
846.77	108.54
846.946	102.4
847.122	4.1
847.297	63.49
847.473	81.92
847.648	26.62
847.824	69.63
847.999	-28.67
848.175	-12.29
848.35	145.41
848.526	86.01
848.701	34.82
848.876	65.54
849.052	67.58
849.227	28.67
849.403	38.91
849.578	-6.14
849.753	-10.24
849.929	10.24
850.104	96.25
850.279	106.49
850.454	77.82
850.63	8.19
850.805	26.62
850.98	59.39
851.155	-8.19
851.33	20.48
851.505	43.01
851.681	79.87
851.856	43.01
852.031	75.77
852.206	51.2
852.381	6.14
852.556	16.38
852.731	6.14
852.906	63.49
853.081	22.53
853.256	59.39
853.431	8.19
853.606	45.06
853.781	67.58
853.956	12.29
854.131	49.15
854.305	-6.14
854.48	38.91
854.655	-12.29
854.83	40.96
855.005	47.1
855.18	122.88
855.354	98.3
855.529	108.54
855.704	30.72
855.879	86.01
856.053	-30.72
856.228	32.77
856.403	28.67
856.577	24.58
856.752	51.2
856.926	-8.19
857.101	49.15
857.276	63.49
857.45	110.59
857.625	69.63
857.799	30.72
857.974	57.34
858.148	57.34
858.323	34.82
858.497	73.73
858.672	57.34
858.846	69.63
859.02	30.72
859.195	30.72
859.369	118.78
859.543	94.21
859.718	40.96
859.892	67.58
860.066	30.72
860.241	69.63
860.415	-24.58
860.589	36.86
860.763	45.06
860.938	36.86
861.112	67.58
861.286	0
861.46	-30.72
861.634	4.1
861.808	-6.14
861.982	53.25
862.157	28.67
862.331	34.82
862.505	30.72
862.679	-4.1
862.853	-43.01
863.027	47.1
863.201	102.4
863.375	-8.19
863.549	-8.19
863.722	24.58
863.896	59.39
864.07	-6.14
864.244	26.62
864.418	59.39
864.592	65.54
864.766	14.34
864.939	-43.01
865.113	90.11
865.287	4.1
865.461	0
865.634	90.11
865.808	38.91
865.982	43.01
866.156	-2.05
866.329	-45.06
866.503	67.58
866.676	-16.38
866.85	83.97
867.024	112.64
867.197	71.68
867.371	-10.24
867.544	45.06
867.718	49.15
867.891	59.39
868.065	53.25
868.238	24.58
868.412	86.01
868.585	22.53
868.759	12.29
868.932	12.29
869.105	53.25
869.279	8.19
869.452	28.67
869.625	79.87
869.799	10.24
869.972	12.29
870.145	26.62
870.319	57.34
870.492	0
870.665	-49.15
870.838	18.43
871.011	30.72
871.185	24.58
871.358	18.43
871.531	-6.14
871.704	88.06
871.877	86.01
872.05	43.01
872.223	22.53
872.396	14.34
872.569	55.3
872.742	22.53
872.915	2.05
873.088	106.49
873.261	-12.29
873.434	-10.24
873.607	57.34
873.78	-4.1
873.953	63.49
874.126	36.86
874.299	-26.62
874.471	61.44
874.644	38.91
874.817	47.1
874.99	69.63
875.163	94.21
875.335	47.1
875.508	10.24
875.681	26.62
875.853	83.97
876.026	-32.77
876.199	67.58
876.371	-8.19
876.544	-12.29
876.717	-69.63
876.889	22.53
877.062	47.1
877.234	4.1
877.407	65.54
877.579	6.14
877.752	-14.34
877.924	81.92
878.097	18.43
878.269	-18.43
878.442	22.53
878.614	67.58
878.786	45.06
878.959	12.29
879.131	53.25
879.303	12.29
879.476	73.73
879.648	24.58
879.82	18.43
879.993	0
880.165	0
880.337	38.91
880.509	47.1
880.681	-10.24
880.854	71.68
881.026	108.54
881.198	55.3
881.37	12.29
881.542	51.2
881.714	69.63
881.886	79.87
882.058	-61.44
882.23	53.25
882.402	-43.01
882.574	55.3
882.746	90.11
882.918	100.35
883.09	-10.24
883.262	32.77
883.434	43.01
883.606	-6.14
883.778	-10.24
883.95	75.77
884.122	34.82
884.293	53.25
884.465	-59.39
884.637	49.15
884.809	-32.77
884.98	73.73
885.152	26.62
885.324	18.43
885.496	47.1
885.667	-10.24
885.839	16.38
886.011	71.68
886.182	18.43
886.354	53.25
886.525	53.25
886.697	61.44
886.869	-38.91
887.04	36.86
887.212	102.4
887.383	104.45
887.555	12.29
887.726	36.86
887.897	65.54
888.069	22.53
888.24	40.96
888.412	-16.38
888.583	88.06
888.754	108.54
888.926	4.1
889.097	28.67
889.268	-65.54
889.44	-12.29
889.611	14.34
889.782	12.29
889.953	75.77
890.125	26.62
890.296	2.05
890.467	67.58
890.638	94.21
890.809	34.82
890.98	-57.34
891.151	71.68
891.323	53.25
891.494	55.3
891.665	22.53
891.836	51.2
892.007	43.01
892.178	14.34
892.349	-73.73
892.52	59.39
892.691	22.53
892.862	2.05
893.032	96.25
893.203	61.44
893.374	-53.25
893.545	34.82
893.716	22.53
893.887	14.34
894.057	57.34
894.228	40.96
894.399	-12.29
894.57	90.11
894.74	10.24
894.911	22.53
895.082	-10.24
895.253	28.67
895.423	-30.72
895.594	-12.29
895.764	49.15
895.935	20.48
896.106	22.53
896.276	38.91
896.447	6.14
896.617	36.86
896.788	14.34
896.958	-22.53
897.129	53.25
897.299	-57.34
897.47	55.3
897.64	47.1
897.81	6.14
897.981	26.62
898.151	34.82
898.322	24.58
898.492	73.73
898.662	30.72
898.832	57.34
899.003	38.91
899.173	43.01
899.343	51.2
899.513	-28.67
