Data from USB4F104151__15__12-00-25-514.txt Node

Date: Fri Mar 14 12:00:25 EDT 2025
User: louis
Spectrometer: USB4F10415
Trigger mode: 4
Integration Time (sec): 2.000000E-2
Scans to average: 1
Electric dark correction enabled: true
Nonlinearity correction enabled: false
Boxcar width: 0
XAxis mode: Wavelengths
Number of Pixels in Spectrum: 3648
>>>>>Begin Spectral Data<<<<<
178.204	-122.88
178.424	-122.88
178.644	-122.88
178.864	-159.74
179.084	-26.62
179.304	63.49
179.524	-12.29
179.744	-53.25
179.964	88.06
180.184	-2.05
180.404	36.86
180.624	16.38
180.844	38.91
181.064	-4.1
181.283	-22.53
181.503	-86.01
181.723	-63.49
181.943	-6.14
182.163	49.15
182.383	53.25
182.602	-36.86
182.822	40.96
183.042	51.2
183.262	-10.24
183.482	6.14
183.701	-96.25
183.921	-22.53
184.141	-14.34
184.361	57.34
184.58	8.19
184.8	49.15
185.02	-12.29
185.239	65.54
185.459	-16.38
185.679	51.2
185.898	-30.72
186.118	145.41
186.338	69.63
186.557	47.1
186.777	26.62
186.997	86.01
187.216	4.1
187.436	22.53
187.655	16.38
187.875	12.29
188.095	-65.53
188.314	38.91
188.534	14.34
188.753	61.44
188.973	22.53
189.192	61.44
189.412	22.53
189.631	-10.24
189.851	20.48
190.07	69.63
190.29	57.34
190.509	-20.48
190.729	-30.72
190.948	86.01
191.168	90.11
191.387	26.62
191.607	22.53
191.826	79.87
192.045	12.29
192.265	40.96
192.484	20.48
192.704	55.3
192.923	-2.05
193.142	98.3
193.362	59.39
193.581	49.15
193.8	4.1
194.02	43.01
194.239	18.43
194.458	108.54
194.678	34.82
194.897	4.1
195.116	-4.1
195.335	32.77
195.555	45.06
195.774	8.19
195.993	20.48
196.212	22.53
196.432	49.15
196.651	-4.1
196.87	38.91
197.089	92.16
197.308	28.67
197.528	96.25
197.747	-6.14
197.966	34.82
198.185	22.53
198.404	67.58
198.623	22.53
198.842	6.14
199.062	59.39
199.281	24.58
199.5	24.58
199.719	6.14
199.938	53.25
200.157	139.26
200.376	0
200.595	28.67
200.814	63.49
201.033	61.44
201.252	22.53
201.471	79.87
201.69	65.54
201.909	61.44
202.128	-98.3
202.347	20.48
202.566	38.91
202.785	81.92
203.004	63.49
203.223	51.2
203.442	45.06
203.661	53.25
203.879	10.24
204.098	4.1
204.317	65.54
204.536	81.92
204.755	-16.38
204.974	12.29
205.193	88.06
205.411	53.25
205.63	51.2
205.849	55.3
206.068	73.73
206.287	26.62
206.505	8.19
206.724	24.58
206.943	-38.91
207.162	-36.86
207.381	32.77
207.599	81.92
207.818	-38.91
208.037	45.06
208.255	98.3
208.474	90.11
208.693	14.34
208.911	12.29
209.13	16.38
209.349	49.15
209.567	34.82
209.786	75.77
210.005	18.43
210.223	-26.62
210.442	2.05
210.661	55.3
210.879	71.68
211.098	55.3
211.316	-24.58
211.535	106.49
211.753	-20.48
211.972	16.38
212.191	24.58
212.409	12.29
212.628	-16.38
212.846	-12.29
213.065	-4.1
213.283	98.3
213.502	-10.24
213.72	38.91
213.938	12.29
214.157	45.06
214.375	43.01
214.594	63.49
214.812	14.34
215.031	71.68
215.249	10.24
215.467	-4.1
215.686	34.82
215.904	55.3
216.122	-6.14
216.341	69.63
216.559	-12.29
216.778	92.16
216.996	47.1
217.214	-8.19
217.432	77.82
217.651	22.53
217.869	26.62
218.087	24.58
218.306	6.14
218.524	77.82
218.742	-10.24
218.96	65.54
219.179	26.62
219.397	16.38
219.615	24.58
219.833	-6.14
220.051	98.3
220.27	18.43
220.488	59.39
220.706	81.92
220.924	24.58
221.142	26.62
221.36	47.1
221.578	8.19
221.796	36.86
222.015	16.38
222.233	6.14
222.451	16.38
222.669	-8.19
222.887	30.72
223.105	45.06
223.323	32.77
223.541	-2.05
223.759	6.14
223.977	38.91
224.195	110.59
224.413	114.69
224.631	36.86
224.849	10.24
225.067	98.3
225.285	-8.19
225.503	36.86
225.721	10.24
225.939	38.91
226.157	28.67
226.375	73.73
226.592	-26.62
226.81	36.86
227.028	20.48
227.246	88.06
227.464	47.1
227.682	-4.1
227.9	32.77
228.117	51.2
228.335	32.77
228.553	65.54
228.771	26.62
228.989	36.86
229.206	-53.25
229.424	96.25
229.642	22.53
229.86	30.72
230.077	16.38
230.295	45.06
230.513	-2.05
230.731	53.25
230.948	30.72
231.166	65.54
231.384	34.82
231.601	12.29
231.819	86.01
232.037	-12.29
232.254	4.1
232.472	47.1
232.689	-26.62
232.907	32.77
233.125	24.58
233.342	-10.24
233.56	-51.2
233.777	-8.19
233.995	49.15
234.213	96.25
234.43	20.48
234.648	12.29
234.865	20.48
235.083	55.3
235.3	32.77
235.518	6.14
235.735	49.15
235.953	69.63
236.17	18.43
236.388	57.34
236.605	96.25
236.822	57.34
237.04	96.25
237.257	22.53
237.475	24.58
237.692	-24.58
237.909	-8.19
238.127	69.63
238.344	88.06
238.562	63.49
238.779	30.72
238.996	32.77
239.214	55.3
239.431	77.82
239.648	-83.97
239.865	30.72
240.083	18.43
240.3	53.25
240.517	22.53
240.735	129.02
240.952	-14.34
241.169	32.77
241.386	40.96
241.603	88.06
241.821	18.43
242.038	18.43
242.255	38.91
242.472	26.62
242.689	75.77
242.907	26.62
243.124	-18.43
243.341	51.2
243.558	6.14
243.775	-49.15
243.992	-45.06
244.209	-16.38
244.426	28.67
244.643	59.39
244.86	-14.34
245.078	57.34
245.295	83.97
245.512	8.19
245.729	-6.14
245.946	14.34
246.163	20.48
246.38	-4.1
246.597	22.53
246.814	-8.19
247.031	38.91
247.248	-8.19
247.464	22.53
247.681	28.67
247.898	-10.24
248.115	0
248.332	-14.34
248.549	77.82
248.766	18.43
248.983	47.1
249.2	-4.1
249.417	63.49
249.633	26.62
249.85	4.1
250.067	26.62
250.284	-36.86
250.501	-10.24
250.717	71.68
250.934	63.49
251.151	-4.1
251.368	14.34
251.585	51.2
251.801	26.62
252.018	40.96
252.235	47.1
252.451	26.62
252.668	-6.14
252.885	47.1
253.102	57.34
253.318	-26.62
253.535	16.38
253.752	40.96
253.968	43.01
254.185	12.29
254.401	36.86
254.618	32.77
254.835	6.14
255.051	51.2
255.268	43.01
255.484	32.77
255.701	10.24
255.917	-8.19
256.134	-28.67
256.351	26.62
256.567	77.82
256.784	40.96
257	12.29
257.217	14.34
257.433	28.67
257.65	-18.43
257.866	-30.72
258.082	18.43
258.299	-2.05
258.515	83.97
258.732	43.01
258.948	24.58
259.165	-14.34
259.381	-36.86
259.597	28.67
259.814	-2.05
260.03	-59.39
260.246	16.38
260.463	112.64
260.679	30.72
260.895	4.1
261.112	65.54
261.328	-53.25
261.544	45.06
261.761	73.73
261.977	-6.14
262.193	53.25
262.409	59.39
262.626	65.54
262.842	61.44
263.058	53.25
263.274	86.01
263.49	-4.1
263.707	38.91
263.923	6.14
264.139	-40.96
264.355	57.34
264.571	0
264.787	-14.34
265.004	47.1
265.22	-12.29
265.436	34.82
265.652	67.58
265.868	36.86
266.084	6.14
266.3	4.1
266.516	24.58
266.732	69.63
266.948	-51.2
267.164	8.19
267.38	86.01
267.596	51.2
267.812	45.06
268.028	-14.34
268.244	45.06
268.46	53.25
268.676	0
268.892	-6.14
269.108	0
269.324	45.06
269.54	-24.58
269.756	38.91
269.972	-28.67
270.188	49.15
270.403	24.58
270.619	43.01
270.835	28.67
271.051	18.43
271.267	32.77
271.483	53.25
271.698	83.97
271.914	47.1
272.13	-10.24
272.346	24.58
272.562	-22.53
272.777	45.06
272.993	45.06
273.209	73.73
273.425	77.82
273.64	73.73
273.856	28.67
274.072	53.25
274.287	20.48
274.503	53.25
274.719	75.77
274.934	32.77
275.15	-32.77
275.366	59.39
275.581	14.34
275.797	20.48
276.012	-24.58
276.228	100.35
276.444	34.82
276.659	55.3
276.875	-14.34
277.09	30.72
277.306	24.58
277.521	47.1
277.737	8.19
277.952	77.82
278.168	30.72
278.383	86.01
278.599	-16.38
278.814	120.83
279.03	73.73
279.245	49.15
279.461	133.12
279.676	57.34
279.892	-10.24
280.107	0
280.322	10.24
280.538	40.96
280.753	14.34
280.969	96.25
281.184	45.06
281.399	16.38
281.615	-26.62
281.83	67.58
282.045	-28.67
282.26	63.49
282.476	18.43
282.691	67.58
282.906	-30.72
283.122	86.01
283.337	63.49
283.552	-2.05
283.767	94.21
283.983	59.39
284.198	40.96
284.413	45.06
284.628	34.82
284.843	2.05
285.058	71.68
285.274	34.82
285.489	55.3
285.704	45.06
285.919	53.25
286.134	-10.24
286.349	-4.1
286.564	18.43
286.779	96.25
286.995	67.58
287.21	-22.53
287.425	53.25
287.64	34.82
287.855	100.35
288.07	4.1
288.285	-18.43
288.5	22.53
288.715	43.01
288.93	49.15
289.145	4.1
289.36	-57.34
289.575	83.97
289.79	0
290.004	59.39
290.219	151.55
290.434	59.39
290.649	-67.58
290.864	83.97
291.079	28.67
291.294	2.05
291.509	4.1
291.724	53.25
291.938	45.06
292.153	110.59
292.368	53.25
292.583	40.96
292.798	10.24
293.012	63.49
293.227	-6.14
293.442	73.73
293.657	59.39
293.871	28.67
294.086	36.86
294.301	61.44
294.516	69.63
294.73	38.91
294.945	10.24
295.16	-40.96
295.374	34.82
295.589	81.92
295.804	14.34
296.018	-8.19
296.233	110.59
296.447	53.25
296.662	67.58
296.877	38.91
297.091	67.58
297.306	10.24
297.52	22.53
297.735	79.87
297.949	51.2
298.164	-4.1
298.378	53.25
298.593	38.91
298.807	34.82
299.022	63.49
299.236	71.68
299.451	94.21
299.665	32.77
299.88	26.62
300.094	10.24
300.309	20.48
300.523	73.73
300.737	-30.72
300.952	79.87
301.166	45.06
301.381	6.14
301.595	53.25
301.809	-51.2
302.024	6.14
302.238	14.34
302.452	77.82
302.667	43.01
302.881	28.67
303.095	18.43
303.309	38.91
303.524	14.34
303.738	47.1
303.952	-14.34
304.166	-16.38
304.381	47.1
304.595	114.69
304.809	22.53
305.023	8.19
305.237	30.72
305.452	12.29
305.666	90.11
305.88	45.06
306.094	-16.38
306.308	83.97
306.522	38.91
306.736	86.01
306.95	43.01
307.164	8.19
307.379	-61.44
307.593	145.41
307.807	20.48
308.021	30.72
308.235	71.68
308.449	4.1
308.663	20.48
308.877	96.25
309.091	32.77
309.305	26.62
309.519	-34.82
309.733	32.77
309.947	36.86
310.161	36.86
310.374	43.01
310.588	63.49
310.802	51.2
311.016	6.14
311.23	24.58
311.444	36.86
311.658	-14.34
311.872	77.82
312.085	96.25
312.299	32.77
312.513	-14.34
312.727	94.21
312.941	69.63
313.154	51.2
313.368	22.53
313.582	47.1
313.796	16.38
314.009	28.67
314.223	75.77
314.437	77.82
314.651	18.43
314.864	-30.72
315.078	28.67
315.292	45.06
315.505	57.34
315.719	43.01
315.933	47.1
316.146	-14.34
316.36	30.72
316.573	98.3
316.787	22.53
317.001	59.39
317.214	40.96
317.428	55.3
317.641	-2.05
317.855	12.29
318.068	4.1
318.282	75.77
318.495	59.39
318.709	94.21
318.922	22.53
319.136	6.14
319.349	49.15
319.563	69.63
319.776	83.97
319.99	20.48
320.203	16.38
320.417	110.59
320.63	65.54
320.843	83.97
321.057	40.96
321.27	-12.29
321.483	59.39
321.697	108.54
321.91	30.72
322.124	43.01
322.337	24.58
322.55	104.45
322.763	40.96
322.977	28.67
323.19	100.35
323.403	53.25
323.617	8.19
323.83	65.54
324.043	14.34
324.256	36.86
324.469	-2.05
324.683	79.87
324.896	83.97
325.109	34.82
325.322	34.82
325.535	53.25
325.748	98.3
325.962	6.14
326.175	43.01
326.388	43.01
326.601	102.4
326.814	53.25
327.027	36.86
327.24	137.21
327.453	22.53
327.666	12.29
327.879	73.73
328.092	63.49
328.305	86.01
328.518	65.54
328.731	4.1
328.944	77.82
329.157	-2.05
329.37	-10.24
329.583	18.43
329.796	90.11
330.009	-8.19
330.222	88.06
330.435	4.1
330.648	53.25
330.861	53.25
331.073	51.2
331.286	34.82
331.499	98.3
331.712	26.62
331.925	73.73
332.138	53.25
332.35	61.44
332.563	40.96
332.776	8.19
332.989	-38.91
333.202	34.82
333.414	77.82
333.627	120.83
333.84	79.87
334.053	51.2
334.265	47.1
334.478	51.2
334.691	32.77
334.903	53.25
335.116	40.96
335.329	47.1
335.541	38.91
335.754	90.11
335.966	6.14
336.179	-18.43
336.392	55.3
336.604	28.67
336.817	40.96
337.029	88.06
337.242	43.01
337.454	36.86
337.667	32.77
337.88	79.87
338.092	18.43
338.305	49.15
338.517	51.2
338.729	34.82
338.942	71.68
339.154	-32.77
339.367	14.34
339.579	-30.72
339.792	-2.05
340.004	90.11
340.217	12.29
340.429	100.35
340.641	-43.01
340.854	34.82
341.066	38.91
341.278	126.97
341.491	-2.05
341.703	40.96
341.915	28.67
342.128	55.3
342.34	47.1
342.552	6.14
342.764	38.91
342.977	28.67
343.189	24.58
343.401	57.34
343.613	57.34
343.826	94.21
344.038	38.91
344.25	53.25
344.462	6.14
344.674	-47.1
344.886	63.49
345.099	120.83
345.311	16.38
345.523	-6.14
345.735	-2.05
345.947	24.58
346.159	86.01
346.371	81.92
346.583	51.2
346.795	51.2
347.007	55.3
347.219	67.58
347.431	45.06
347.643	71.68
347.855	-43.01
348.067	114.69
348.279	59.39
348.491	104.45
348.703	61.44
348.915	53.25
349.127	53.25
349.339	14.34
349.551	22.53
349.763	43.01
349.975	30.72
350.187	90.11
350.399	32.77
350.61	30.72
350.822	61.44
351.034	53.25
351.246	40.96
351.458	45.06
351.669	86.01
351.881	2.05
352.093	102.4
352.305	88.06
352.517	81.92
352.728	114.69
352.94	20.48
353.152	-32.77
353.363	57.34
353.575	86.01
353.787	34.82
353.999	108.54
354.21	116.73
354.422	6.14
354.633	-12.29
354.845	6.14
355.057	-20.48
355.268	100.35
355.48	79.87
355.692	63.49
355.903	28.67
356.115	36.86
356.326	16.38
356.538	75.77
356.749	67.58
356.961	75.77
357.172	20.48
357.384	131.07
357.595	26.62
357.807	14.34
358.018	-10.24
358.23	71.68
358.441	2.05
358.653	34.82
358.864	61.44
359.075	-18.43
359.287	40.96
359.498	79.87
359.709	8.19
359.921	83.97
360.132	36.86
360.344	10.24
360.555	149.5
360.766	59.39
360.977	16.38
361.189	71.68
361.4	73.73
361.611	71.68
361.823	32.77
362.034	88.06
362.245	-6.14
362.456	83.97
362.667	40.96
362.879	24.58
363.09	14.34
363.301	63.49
363.512	14.34
363.723	57.34
363.935	24.58
364.146	106.49
364.357	112.64
364.568	18.43
364.779	61.44
364.99	96.25
365.201	-6.14
365.412	-4.1
365.623	30.72
365.834	32.77
366.045	8.19
366.256	75.77
366.467	71.68
366.678	81.92
366.889	57.34
367.1	18.43
367.311	98.3
367.522	88.06
367.733	63.49
367.944	94.21
368.155	2.05
368.366	43.01
368.577	116.73
368.788	114.69
368.999	24.58
369.209	83.97
369.42	51.2
369.631	98.3
369.842	69.63
370.053	73.73
370.264	8.19
370.474	40.96
370.685	32.77
370.896	6.14
371.107	83.97
371.317	47.1
371.528	30.72
371.739	65.54
371.95	57.34
372.16	34.82
372.371	73.73
372.582	36.86
372.792	49.15
373.003	43.01
373.214	16.38
373.424	61.44
373.635	-18.43
373.846	14.34
374.056	67.58
374.267	34.82
374.477	100.35
374.688	104.45
374.898	2.05
375.109	51.2
375.319	51.2
375.53	83.97
375.74	20.48
375.951	36.86
376.161	51.2
376.372	61.44
376.582	47.1
376.793	24.58
377.003	20.48
377.214	159.74
377.424	77.82
377.635	18.43
377.845	114.69
378.055	71.68
378.266	6.14
378.476	106.49
378.686	38.91
378.897	47.1
379.107	71.68
379.317	61.44
379.528	32.77
379.738	26.62
379.948	34.82
380.158	38.91
380.369	49.15
380.579	120.83
380.789	36.86
380.999	114.69
381.21	4.1
381.42	129.02
381.63	0
381.84	18.43
382.05	106.49
382.261	100.35
382.471	63.49
382.681	63.49
382.891	69.63
383.101	47.1
383.311	69.63
383.521	77.82
383.731	32.77
383.941	57.34
384.151	36.86
384.361	45.06
384.571	67.58
384.781	90.11
384.991	16.38
385.201	67.58
385.411	73.73
385.621	-18.43
385.831	26.62
386.041	30.72
386.251	59.39
386.461	88.06
386.671	71.68
386.881	55.3
387.091	-20.48
387.301	43.01
387.511	73.73
387.72	139.26
387.93	45.06
388.14	94.21
388.35	122.88
388.56	57.34
388.769	10.24
388.979	69.63
389.189	90.11
389.399	38.91
389.609	26.62
389.818	77.82
390.028	38.91
390.238	165.89
390.447	67.58
390.657	30.72
390.867	20.48
391.076	65.54
391.286	34.82
391.496	34.82
391.705	79.87
391.915	100.35
392.125	94.21
392.334	124.93
392.544	102.4
392.753	71.68
392.963	67.58
393.172	108.54
393.382	69.63
393.591	65.54
393.801	102.4
394.01	120.83
394.22	98.3
394.429	114.69
394.639	73.73
394.848	126.97
395.058	135.17
395.267	67.58
395.477	59.39
395.686	137.21
395.895	98.3
396.105	102.4
396.314	110.59
396.524	100.35
396.733	63.49
396.942	133.12
397.152	90.11
397.361	114.69
397.57	116.73
397.78	75.77
397.989	118.78
398.198	174.08
398.407	65.54
398.617	63.49
398.826	122.88
399.035	118.78
399.244	133.12
399.453	151.55
399.663	110.59
399.872	147.45
400.081	77.82
400.29	88.06
400.499	114.69
400.708	112.64
400.917	120.83
401.127	147.45
401.336	155.65
401.545	198.65
401.754	141.31
401.963	147.45
402.172	212.99
402.381	65.54
402.59	131.07
402.799	206.84
403.008	143.36
403.217	143.36
403.426	159.74
403.635	135.17
403.844	174.08
404.053	102.4
404.262	114.69
404.471	202.75
404.68	198.65
404.888	129.02
405.097	129.02
405.306	174.08
405.515	192.51
405.724	159.74
405.933	174.08
406.142	192.51
406.35	141.31
406.559	223.23
406.768	198.65
406.977	258.04
407.185	215.04
407.394	206.84
407.603	165.89
407.812	243.71
408.02	260.09
408.229	305.15
408.438	223.23
408.646	229.37
408.855	198.65
409.064	280.57
409.272	227.32
409.481	317.44
409.69	358.39
409.898	321.53
410.107	344.06
410.315	348.15
410.524	299
410.733	323.58
410.941	378.87
411.15	485.37
411.358	444.41
411.567	430.07
411.775	462.84
411.984	425.98
412.192	464.89
412.401	550.9
412.609	536.57
412.818	602.1
413.026	444.41
413.234	540.66
413.443	499.7
413.651	612.34
413.86	612.34
414.068	632.82
414.276	630.77
414.485	755.7
414.693	567.29
414.901	782.32
415.11	757.75
415.318	724.98
415.526	903.15
415.734	858.1
415.943	806.9
416.151	833.52
416.359	813.04
416.567	964.59
416.776	944.11
416.984	1007.6
417.192	1036.27
417.4	1054.7
417.608	1005.55
417.817	1048.56
418.025	1175.53
418.233	1196.01
418.441	1226.73
418.649	1275.88
418.857	1409
419.065	1368.04
419.273	1318.89
419.481	1400.81
419.689	1449.96
419.897	1495.02
420.105	1544.17
420.313	1533.93
420.521	1648.61
420.729	1644.52
420.937	1753.06
421.145	1804.26
421.353	1877.99
421.561	1847.27
421.769	2041.82
421.977	2041.82
422.185	2031.59
422.393	2174.94
422.601	2222.05
422.809	2326.49
423.017	2406.36
423.224	2516.95
423.432	2549.72
423.64	2596.82
423.848	2811.86
424.056	2748.37
424.263	2756.57
424.471	2938.84
424.679	2994.13
424.887	3170.26
425.094	3258.32
425.302	3164.11
425.51	3364.81
425.718	3518.41
425.925	3454.92
426.133	3676.1
426.341	3710.92
426.548	4040.64
426.756	3950.53
426.964	4048.83
427.171	4392.89
427.379	4466.62
427.586	4462.52
427.794	4493.24
428.001	4829.11
428.209	5013.43
428.417	4900.79
428.624	5466.03
428.832	5156.79
429.039	5199.79
429.247	5199.79
429.454	5701.55
429.662	6096.8
429.869	5670.83
430.076	6137.76
430.284	6018.98
430.491	6279.07
430.699	6647.71
430.906	6686.62
431.114	6674.33
431.321	7071.64
431.528	7088.02
431.736	7423.89
431.943	7772.04
432.15	7774.09
432.358	7866.25
432.565	8318.85
432.772	8247.17
432.979	8699.77
433.187	8734.59
433.394	8873.85
433.601	9322.35
433.808	9484.14
434.016	9523.05
434.223	9787.24
434.43	10356.58
434.637	10131.3
434.844	10936.15
435.052	10661.73
435.259	10915.67
435.466	10897.24
435.673	10850.14
435.88	11489.1
436.087	12379.97
436.294	12218.18
436.501	11927.37
436.708	12269.38
436.915	12721.98
437.122	13342.52
437.329	13367.09
437.537	13725.49
437.743	14006.06
437.95	13696.81
438.157	14681.89
438.364	14995.23
438.571	14931.74
438.778	14866.21
438.985	16291.59
439.192	15767.31
439.399	16060.17
439.606	15996.68
439.813	16822.02
440.02	17886.96
440.227	17499.89
440.433	17346.3
440.64	17915.63
440.847	17944.3
441.054	18380.52
441.261	19277.53
441.467	19060.45
441.674	19670.74
441.881	20557.51
442.088	20139.72
442.294	20129.48
442.501	20551.37
442.708	21212.86
442.914	21874.35
443.121	22912.67
443.328	22466.22
443.534	23850.64
443.741	23207.58
443.948	22802.08
444.154	24649.35
444.361	24274.57
444.568	24546.95
444.774	24663.69
444.981	24807.05
445.187	25687.67
445.394	26525.29
445.6	26392.17
445.807	28866.12
446.013	27438.69
446.22	28487.25
446.426	29308.48
446.633	29355.58
446.839	30340.66
447.046	29349.44
447.252	30731.82
447.459	30840.36
447.665	30819.88
447.871	32239.12
448.078	33678.85
448.284	32009.75
448.491	32564.75
448.697	34006.52
448.903	34729.45
449.11	34231.8
449.316	33936.89
449.522	34436.59
449.728	35542.5
449.935	35694.05
450.141	35728.86
450.347	36220.38
450.553	35405.28
450.76	35843.55
450.966	37141.96
451.172	36668.88
451.378	37443.01
451.584	36720.08
451.791	37574.08
451.997	37330.37
452.203	37660.1
452.409	38032.83
452.615	37490.12
452.821	36107.74
453.027	35544.55
453.233	37705.15
453.44	36402.64
453.646	36609.49
453.852	36693.46
454.058	36849.1
454.264	35716.57
454.47	36947.4
454.676	35773.92
454.882	37137.87
455.088	33895.93
455.294	34260.47
455.5	34749.93
455.705	34852.33
455.911	33537.54
456.117	32812.56
456.323	32802.32
456.529	30832.17
456.735	32017.94
456.941	31243.81
457.147	30649.9
457.352	29828.66
457.558	29208.13
457.764	29589.05
457.97	28894.79
458.176	27903.57
458.381	28112.47
458.587	26506.86
458.793	26887.78
458.999	25351.81
459.204	27231.84
459.41	26099.31
459.616	24688.26
459.821	24718.98
460.027	24596.1
460.233	24200.85
460.438	22939.3
460.644	23039.65
460.85	21659.32
461.055	21687.99
461.261	21761.72
461.466	20082.38
461.672	19287.77
461.878	20612.81
462.083	19453.66
462.289	19232.47
462.494	18925.28
462.7	17925.87
462.905	17731.31
463.111	18226.92
463.316	18165.48
463.522	17940.21
463.727	17712.88
463.932	17743.6
464.138	17706.74
464.343	17903.34
464.549	17159.93
464.754	17639.15
464.959	17389.3
465.165	17297.14
465.37	16703.23
465.575	16295.69
465.781	16862.97
465.986	17231.61
466.191	16568.07
466.397	16314.12
466.602	15542.03
466.807	15851.28
467.012	15865.61
467.218	15943.44
467.423	15716.11
467.628	15802.13
467.833	16580.35
468.038	15679.25
468.244	15249.18
468.449	15886.09
468.654	15468.31
468.859	15388.44
469.064	15290.13
469.269	14473
469.474	14886.68
469.679	14802.72
469.885	14708.51
470.09	14802.72
470.295	14649.12
470.5	14434.08
470.705	14593.83
470.91	14202.66
471.115	13877.04
471.32	14335.78
471.525	14231.33
471.73	13707.05
471.935	13643.57
472.139	13215.54
472.344	13266.74
472.549	13465.39
472.754	13051.7
472.959	12793.66
473.164	12775.23
473.369	12529.47
473.574	12515.14
473.778	12666.69
473.983	12760.89
474.188	12402.5
474.393	11788.11
474.598	12011.34
474.802	11679.57
475.007	11790.16
475.212	11722.57
475.417	11323.22
475.621	11456.34
475.826	11323.22
476.031	11087.7
476.235	10913.63
476.44	11208.53
476.645	10600.29
476.849	10934.11
477.054	10610.53
477.259	10737.5
477.463	10551.13
477.668	10512.22
477.872	10420.06
478.077	10362.72
478.282	10141.54
478.486	9959.27
478.691	9992.04
478.895	9977.7
479.1	9795.43
479.304	9883.5
479.509	9588.59
479.713	9768.81
479.918	9584.49
480.122	9555.82
480.326	9502.58
480.531	9404.27
480.735	9316.21
480.94	9236.34
481.144	9506.67
481.348	9138.04
481.553	9308.02
481.757	9191.28
481.961	9117.56
482.166	9254.77
482.37	9295.73
482.574	9043.83
482.778	9054.07
482.983	9148.28
483.187	9011.06
483.391	9222
483.595	9068.41
483.8	9054.07
484.004	9416.56
484.208	9127.8
484.412	8933.24
484.616	9105.27
484.821	9332.59
485.025	8894.33
485.229	9129.84
485.433	8951.67
485.637	9095.03
485.841	8935.29
486.045	9080.69
486.249	9097.08
486.453	8959.86
486.657	9201.52
486.861	9207.67
487.065	9142.13
487.269	8990.58
487.473	8966.01
487.677	8968.06
487.881	9361.27
488.085	9011.06
488.289	9322.35
488.493	8966.01
488.697	9168.76
488.901	9049.97
489.105	9056.12
489.309	9084.79
489.512	9396.08
489.716	8992.63
489.92	9195.38
490.124	9193.33
490.328	9267.06
490.531	9150.32
490.735	9209.72
490.939	9502.58
491.143	9361.27
491.346	9297.78
491.55	9383.79
491.754	9336.69
491.958	9377.65
492.161	9402.22
492.365	9449.33
492.569	9432.94
492.772	9492.34
492.976	9543.53
493.18	9570.16
493.383	9824.11
493.587	9867.11
493.79	9998.18
493.994	9658.22
494.197	9920.36
494.401	9881.45
494.605	10014.57
494.808	10510.18
495.012	10237.8
495.215	10245.99
495.419	10372.96
495.622	10409.83
495.825	10551.13
496.029	10551.13
496.232	10526.56
496.436	10633.05
496.639	10958.68
496.843	10782.56
497.046	11036.5
497.249	11112.28
497.453	11255.64
497.656	11388.75
497.859	11534.16
498.063	11358.03
498.266	11628.37
498.469	11634.51
498.673	11665.23
498.876	12033.86
499.079	12191.56
499.282	12162.89
499.485	12289.86
499.689	12250.95
499.892	12635.97
500.095	12564.29
500.298	13025.08
500.501	12693.31
500.705	13066.04
500.908	13244.21
501.111	13592.37
501.314	13512.5
501.517	13455.15
501.72	13748.01
501.923	13735.73
502.126	14006.06
502.329	14274.34
502.532	14376.74
502.735	14468.9
502.938	14657.31
503.141	14700.32
503.344	14972.7
503.547	15273.75
503.75	15245.08
503.953	15726.35
504.156	15847.18
504.359	15693.58
504.562	15789.84
504.765	16230.15
504.968	16307.98
505.17	16602.88
505.373	16551.68
505.576	16920.32
505.779	16871.17
505.982	17059.58
506.185	17291
506.387	17313.53
506.59	17669.87
506.793	17995.5
506.996	17792.75
507.198	18374.38
507.401	18384.62
507.604	18466.53
507.807	18448.1
508.009	18863.84
508.212	18904.8
508.415	19166.94
508.617	19248.86
508.82	19687.12
509.022	19515.09
509.225	19939.02
509.428	20147.92
509.63	19941.07
509.833	20125.39
510.035	20555.46
510.238	20557.51
510.44	20901.57
510.643	21274.3
510.845	21231.29
511.048	21280.44
511.25	21487.29
511.453	21747.38
511.655	22496.94
511.858	22163.12
512.06	22566.57
512.262	22412.97
512.465	22699.69
512.667	22886.05
512.87	23346.84
513.072	23514.78
513.274	23338.65
513.477	23983.76
513.679	24221.33
513.881	24430.22
514.084	24319.63
514.286	24239.76
514.488	24661.64
514.69	25656.95
514.893	25581.18
515.095	25316.99
515.297	25759.35
515.499	25693.82
515.701	26072.69
515.904	26285.68
516.106	26314.35
516.308	26941.03
516.51	26893.93
516.712	26801.77
516.914	27123.3
517.116	27555.42
517.318	27555.42
517.52	27889.24
517.722	27956.82
517.925	28376.65
518.127	28685.9
518.329	28735.05
518.531	28819.02
518.733	29431.36
518.935	29632.06
519.136	29515.33
519.338	29978.17
519.54	30109.24
519.742	30436.91
519.944	30334.51
520.146	30883.37
520.348	30871.08
520.55	31043.11
520.752	30959.14
520.954	31673.88
521.155	31591.97
521.357	31888.92
521.559	32112.15
521.761	32640.53
521.963	32247.32
522.164	32818.7
522.366	32640.53
522.568	33033.74
522.77	33459.71
522.971	33625.6
523.173	33703.42
523.375	33938.94
523.576	33719.81
523.778	34106.87
523.98	34235.89
524.181	34518.51
524.383	34594.29
524.584	34844.14
524.786	34971.11
524.988	34942.44
525.189	35315.17
525.391	35458.53
525.592	35552.74
525.794	36031.96
525.995	35745.25
526.197	35620.32
526.398	35692
526.6	36105.69
526.801	35941.85
527.003	36445.65
527.204	36244.95
527.406	36531.67
527.607	36845.01
527.808	36974.03
528.01	36261.33
528.211	37121.48
528.412	37774.78
528.614	37039.56
528.815	37203.4
529.016	37531.08
529.218	37234.12
529.419	37359.05
529.62	37387.72
529.822	37477.83
530.023	37975.48
530.224	37879.23
530.425	37686.72
530.626	37545.41
530.828	37365.19
531.029	38423.99
531.23	37621.19
531.431	37725.63
531.632	37715.39
531.833	38071.74
532.035	37770.69
532.236	37805.5
532.437	38389.17
532.638	37914.05
532.839	38620.59
533.04	38145.47
533.241	37653.95
533.442	38641.07
533.643	38436.28
533.844	38188.47
534.045	37998.01
534.246	37909.95
534.447	38413.75
534.648	38299.06
534.849	38499.76
535.05	38026.68
535.251	38196.67
535.451	38157.75
535.652	38385.08
535.853	38317.5
536.054	38129.08
536.255	38579.64
536.456	38198.71
536.657	38655.41
536.857	38124.99
537.058	38292.92
537.259	38358.45
537.46	38264.25
537.66	38098.36
537.861	38407.61
538.062	38618.55
538.263	38231.48
538.463	38489.52
538.664	37944.76
538.865	38151.61
539.065	38641.07
539.266	38106.55
539.466	38174.14
539.667	37760.45
539.868	38393.27
540.068	38231.48
540.269	38204.86
540.469	38278.58
540.67	38182.33
540.87	38120.89
541.071	37901.76
541.271	37893.57
541.472	38178.23
541.672	37916.09
541.873	37875.13
542.073	37809.6
542.274	38059.45
542.474	37893.57
542.675	37639.62
542.875	38192.57
543.075	38018.49
543.276	37510.6
543.476	38321.59
543.676	37940.67
543.877	38241.72
544.077	38208.95
544.277	37971.39
544.478	37703.1
544.678	37762.5
544.878	37856.7
545.078	37920.19
545.279	37793.22
545.479	37676.48
545.679	37756.35
545.879	38067.64
546.079	37813.69
546.28	37510.6
546.48	37408.2
546.68	37543.36
546.88	37676.48
547.08	37588.42
547.28	37574.08
547.48	37375.43
547.68	37625.28
547.88	37596.61
548.081	37486.02
548.281	37678.53
548.481	37195.21
548.681	38075.83
548.881	37385.67
549.081	37639.62
549.28	37404.1
549.48	37574.08
549.68	37203.4
549.88	37780.93
550.08	37373.38
550.28	37809.6
550.48	37731.78
550.68	37653.95
550.88	37152.2
551.08	37621.19
551.279	37598.66
551.479	37234.12
551.679	37375.43
551.879	37176.78
552.079	37537.22
552.278	37385.67
552.478	37232.07
552.678	37662.15
552.878	37406.15
553.077	37266.89
553.277	37211.59
553.477	37670.34
553.676	37172.68
553.876	37459.4
554.076	37033.42
554.275	36802
554.475	36697.55
554.674	37060.04
554.874	37084.62
555.074	37023.18
555.273	37084.62
555.473	37324.23
555.672	36689.36
555.872	36828.62
556.071	36961.74
556.271	37105.1
556.47	36912.59
556.67	36423.12
556.869	36773.33
557.068	36947.4
557.268	36558.29
557.467	36384.21
557.667	36697.55
557.866	36859.34
558.065	36668.88
558.265	36414.93
558.464	36056.54
558.663	36937.16
558.863	36074.97
559.062	36840.91
559.261	36099.55
559.461	36746.7
559.66	35954.14
559.859	36228.57
560.058	36064.73
560.258	36160.98
560.457	35798.49
560.656	36265.43
560.855	35833.31
561.054	36146.65
561.253	35808.73
561.453	35986.91
561.652	36302.29
561.851	36074.97
562.05	35833.31
562.249	35720.67
562.448	36031.96
562.647	35673.57
562.846	35497.44
563.045	35706.34
563.244	35331.56
563.443	35694.05
563.642	35413.48
563.841	35362.28
564.04	35024.36
564.239	35749.34
564.438	35306.98
564.637	35569.12
564.836	35132.9
565.035	34723.31
565.234	35061.22
565.432	34926.06
565.631	34551.28
565.83	34977.26
566.029	34745.84
566.228	34424.31
566.427	35028.46
566.625	34375.16
566.824	34205.17
567.023	34483.7
567.222	34072.06
567.42	34811.37
567.619	34176.5
567.818	34037.24
568.016	34278.9
568.215	34319.86
568.414	33983.99
568.612	33750.52
568.811	33791.48
569.01	33619.45
569.208	33375.75
569.407	33541.63
569.605	33256.96
569.804	33713.66
570.002	33611.26
570.201	33461.76
570.4	33054.22
570.598	33394.18
570.797	32904.71
570.995	33170.95
571.193	32814.6
571.392	32826.89
571.59	33283.59
571.789	32937.48
571.987	32669.2
572.186	32845.32
572.384	32988.68
572.582	32984.58
572.781	32712.2
572.979	32230.93
573.177	32134.68
573.376	32415.25
573.574	32110.1
573.772	32267.8
573.971	32042.52
574.169	32235.03
574.367	31628.83
574.565	31784.48
574.763	31792.67
574.962	31938.07
575.16	31391.26
575.358	31499.81
575.556	31055.4
575.754	31563.29
575.952	31010.34
576.151	31690.27
576.349	31034.92
576.547	30922.28
576.745	31428.13
576.943	31157.8
577.141	31157.8
577.339	31026.73
577.537	30740.01
577.735	30815.79
577.933	30527.02
578.131	30559.79
578.329	30633.52
578.527	30430.77
578.725	30408.24
578.923	30471.73
579.121	30246.45
579.319	30099
579.516	30211.63
579.714	29908.54
579.912	30047.8
580.11	30002.74
580.308	29941.3
580.506	29816.38
580.704	29201.99
580.901	29494.85
581.099	29632.06
581.297	29515.33
581.495	29234.75
581.692	29070.92
581.89	29017.67
582.088	29431.36
582.285	29044.29
582.483	29204.03
582.681	29294.15
582.878	29091.4
583.076	28978.76
583.274	28976.71
583.471	28587.6
583.669	28708.43
583.866	28450.38
584.064	28642.89
584.262	28255.82
584.459	28495.44
584.657	28378.7
584.854	28431.95
585.052	27854.42
585.249	28253.78
585.447	28388.94
585.644	27434.59
585.841	28098.13
586.039	28116.56
586.236	27659.87
586.434	27627.1
586.631	27539.04
586.828	27586.14
587.026	27194.98
587.223	27856.47
587.42	27276.9
587.618	27285.09
587.815	26844.77
588.012	27000.42
588.21	26992.23
588.407	26877.54
588.604	26797.67
588.801	26594.92
588.999	26656.36
589.196	26779.24
589.393	26515.05
589.59	26277.49
589.787	26562.15
589.984	26130.03
590.182	26035.83
590.379	26136.18
590.576	25925.24
590.773	26209.9
590.97	25951.86
591.167	25904.76
591.364	25511.55
591.561	25810.55
591.758	25474.68
591.955	25499.26
592.152	25370.24
592.349	25194.11
592.546	25396.86
592.743	25218.69
592.94	24954.5
593.137	25200.26
593.334	25194.11
593.531	25046.66
593.727	25073.28
593.924	25171.58
594.121	24741.51
594.318	24946.31
594.515	24401.55
594.712	24489.61
594.908	24303.25
595.105	24512.14
595.302	24346.25
595.499	24237.71
595.696	24325.77
595.892	23977.62
596.089	24020.63
596.286	24106.64
596.482	24016.53
596.679	23789.2
596.876	24200.85
597.072	23797.4
597.269	23735.96
597.466	23692.95
597.662	23488.15
597.859	23420.57
598.055	23019.17
598.252	23137.95
598.448	23006.88
598.645	22963.87
598.841	22671.01
599.038	23035.55
599.234	23076.51
599.431	22906.53
599.627	22660.77
599.824	22707.88
600.02	22601.38
600.217	22668.97
600.413	22607.53
600.609	22372.01
600.806	22343.34
601.002	22439.59
601.198	22220.46
601.395	22087.34
601.591	21774
601.787	22068.91
601.984	22224.56
602.18	22126.25
602.376	21788.34
602.572	22019.76
602.769	21464.76
602.965	21518.01
603.161	21649.08
603.357	21460.66
603.553	21350.07
603.75	21196.48
603.946	21010.11
604.142	21255.87
604.338	20965.06
604.534	21268.16
604.73	21147.33
604.926	20852.42
605.122	20958.91
605.318	20690.63
605.514	20723.4
605.71	20537.03
605.906	20571.85
606.102	20467.4
606.298	20649.67
606.494	20299.47
606.69	20600.52
606.886	20612.81
607.082	20600.52
607.278	20528.84
607.474	19986.13
607.67	20336.33
607.866	20059.85
608.062	20307.66
608.257	20035.28
608.453	20270.79
608.649	20057.81
608.845	19916.5
609.041	20147.92
609.236	19945.17
609.432	19656.4
609.628	19816.15
609.824	19766.99
610.019	19398.36
610.215	19449.56
610.411	19642.07
610.606	19504.85
610.802	19558.1
610.998	19369.69
611.193	19703.51
611.389	19394.26
611.584	19457.75
611.78	19349.21
611.976	19295.96
612.171	19144.41
612.367	19144.41
612.562	18986.72
612.758	18904.8
612.953	18747.11
613.149	18996.96
613.344	18505.45
613.539	19384.02
613.735	19156.7
613.93	18773.73
614.126	18593.51
614.321	19031.77
614.517	18712.29
614.712	18630.37
614.907	18620.13
615.103	18992.86
615.298	18630.37
615.493	18589.41
615.688	18345.7
615.884	18671.33
616.079	18380.52
616.274	18693.86
616.47	18181.87
616.665	18646.76
616.86	18142.96
617.055	18140.91
617.25	18216.68
617.445	18398.95
617.641	17905.39
617.836	18153.19
618.031	17954.54
618.226	18265.83
618.421	17790.7
618.616	18163.43
618.811	17878.77
619.006	18038.51
619.201	17479.41
619.396	17686.26
619.591	17258.23
619.786	17553.14
619.981	17143.55
620.176	17411.83
620.371	17053.44
620.566	17084.16
620.761	16846.59
620.956	17131.26
621.151	16801.54
621.346	16846.59
621.541	16543.49
621.735	16926.46
621.93	16471.81
622.125	16787.2
622.32	16285.45
622.515	16219.91
622.709	16269.06
622.904	16350.98
623.099	16105.23
623.294	16293.64
623.488	15810.32
623.683	15873.81
623.878	15546.13
624.072	15767.31
624.267	15593.23
624.462	15451.92
624.656	15365.91
624.851	15247.13
625.046	15224.6
625.24	15085.34
625.435	14788.38
625.629	14823.2
625.824	14817.05
626.018	14808.86
626.213	14497.57
626.407	14653.22
626.602	14321.45
626.796	14415.65
626.991	14622.5
627.185	14352.17
627.38	14257.96
627.574	14270.25
627.768	14071.59
627.963	14128.94
628.157	13829.93
628.352	13901.61
628.546	13655.86
628.74	13922.09
628.935	13561.65
629.129	13551.41
629.323	13535.03
629.517	13375.28
629.712	13287.22
629.906	13319.99
630.1	13356.85
630.294	13375.28
630.489	13035.32
630.683	13178.68
630.877	12957.5
631.071	12689.21
631.265	12904.25
631.459	12844.86
631.653	12568.38
631.848	12545.86
632.042	12478.27
632.236	12699.45
632.43	12281.67
632.624	12187.46
632.818	12250.95
633.012	12087.11
633.206	12175.17
633.4	12181.32
633.594	12023.62
633.788	12064.58
633.982	11849.55
634.176	11710.29
634.369	11698
634.563	11759.44
634.757	11665.23
634.951	11446.1
635.145	11622.22
635.339	11609.93
635.533	11405.14
635.726	11298.64
635.92	11276.12
636.114	11333.46
636.308	11233.11
636.501	11278.16
636.695	10964.82
636.889	10911.58
637.083	10895.19
637.276	10878.81
637.47	10899.29
637.664	10776.41
637.857	10581.85
638.051	10684.25
638.244	10706.78
638.438	10590.05
638.632	10344.29
638.825	10413.92
639.019	10274.66
639.212	10401.63
639.406	10356.58
639.599	10155.88
639.793	10104.68
639.986	9852.78
640.18	10135.4
640.373	9860.97
640.567	9983.85
640.76	9785.19
640.954	9863.02
641.147	9645.93
641.34	9707.37
641.534	9731.95
641.727	9627.5
641.92	9795.43
642.114	9385.84
642.307	9453.42
642.5	9289.59
642.694	9256.82
642.887	9097.08
643.08	9328.5
643.273	8982.39
643.467	9271.15
643.66	9111.41
643.853	9023.35
644.046	8720.25
644.239	9017.21
644.432	8841.08
644.626	8857.46
644.819	8806.27
645.012	8656.76
645.205	8767.35
645.398	8748.92
645.591	8517.5
645.784	8507.26
645.977	8447.87
646.17	8376.19
646.363	8400.77
646.556	8324.99
646.749	8415.1
646.942	8439.68
647.135	8253.31
647.328	8103.81
647.521	8054.66
647.714	8038.28
647.907	8167.3
648.099	8103.81
648.292	8109.96
648.485	7743.37
648.678	7993.22
648.871	7894.92
649.064	7741.32
649.256	7737.23
649.449	7716.75
649.642	7763.85
649.835	7616.4
650.027	7612.3
650.22	7620.49
650.413	7520.14
650.605	7733.13
650.798	7346.06
650.991	7303.06
651.183	7348.11
651.376	7258
651.568	7038.87
651.761	7188.37
651.954	7131.03
652.146	7094.16
652.339	7272.34
652.531	7002.01
652.724	7083.92
652.916	6895.51
653.109	7028.63
653.301	6959
653.494	7032.72
653.686	6924.18
653.879	6834.07
654.071	6750.11
654.263	6870.94
654.456	6713.24
654.648	6832.02
654.84	6612.89
655.033	6442.91
655.225	6698.91
655.417	6514.59
655.61	6563.74
655.802	6619.03
655.994	6315.94
656.186	6389.66
656.379	6344.61
656.571	6494.11
656.763	6490.01
656.955	6307.74
657.148	6154.15
657.34	6285.22
657.532	5969.83
657.724	6211.49
657.916	6174.63
658.108	6002.6
658.3	6031.27
658.492	6072.23
658.684	5777.32
658.876	5900.2
659.068	5992.36
659.26	5912.49
659.452	6008.74
659.644	5894.05
659.836	5715.88
660.028	5701.55
660.22	5633.96
660.412	5816.23
660.604	5646.25
660.796	5597.1
660.988	5658.54
661.18	5541.8
661.372	5435.31
661.563	5418.93
661.755	5369.77
661.947	5353.39
662.139	5537.71
662.331	5320.62
662.522	5304.24
662.714	5132.21
662.906	5373.87
663.097	5220.27
663.289	5234.61
663.481	5195.7
663.673	5271.47
663.864	5142.45
664.056	5269.42
664.247	5105.59
664.439	5040.05
664.631	5070.77
664.822	4970.42
665.014	4995
665.205	4841.4
665.397	4935.6
665.588	4999.09
665.78	4954.04
665.971	4818.87
666.163	4929.46
666.354	4812.73
666.546	4810.68
666.737	4878.26
666.929	4837.3
667.12	4659.13
667.311	4777.91
667.503	4704.18
667.694	4704.18
667.885	4661.18
668.077	4642.75
668.268	4700.09
668.459	4423.61
668.651	4517.82
668.842	4487.1
669.033	4487.1
669.224	4495.29
669.416	4507.58
669.607	4351.93
669.798	4345.79
669.989	4274.11
670.18	4304.83
670.371	4470.72
670.563	4351.93
670.754	4300.73
670.945	4206.53
671.136	4329.41
671.327	4249.54
671.518	4292.54
671.709	4265.92
671.9	4229.06
672.091	4130.75
672.282	4087.75
672.473	4171.71
672.664	4132.8
672.855	3995.59
673.046	4071.36
673.237	4104.13
673.428	4157.38
673.619	4149.18
673.809	4067.27
674	4061.12
674.191	3948.48
674.382	3952.58
674.573	3987.4
674.764	3901.38
674.954	3864.52
675.145	3880.9
675.336	3856.33
675.527	3903.43
675.717	4007.87
675.908	3653.58
676.099	3889.09
676.289	3721.16
676.48	3813.32
676.671	3696.58
676.861	3813.32
677.052	3655.62
677.243	3563.47
677.433	3639.24
677.624	3801.03
677.814	3731.4
678.005	3741.64
678.195	3563.47
678.386	3686.34
678.576	3667.91
678.767	3624.9
678.957	3571.66
679.148	3524.55
679.338	3516.36
679.529	3571.66
679.719	3499.98
679.909	3565.51
680.1	3518.41
680.29	3463.12
680.481	3547.08
680.671	3534.79
680.861	3428.3
681.052	3495.88
681.242	3330
681.432	3434.44
681.622	3526.6
681.813	3317.71
682.003	3403.72
682.193	3282.89
682.383	3401.68
682.573	3354.57
682.764	3268.56
682.954	3276.75
683.144	3403.72
683.334	3338.19
683.524	3250.13
683.714	3276.75
683.904	3237.84
684.094	3260.37
684.284	3270.61
684.474	3344.33
684.664	3184.59
684.854	3217.36
685.044	3149.78
685.234	2975.7
685.424	3198.93
685.614	3301.33
685.804	3147.73
685.994	3190.74
686.184	3203.02
686.374	3299.28
686.564	3055.57
686.753	3065.81
686.943	2922.45
687.133	3196.88
687.323	3086.29
687.513	3090.38
687.702	2969.55
687.892	2992.08
688.082	2904.02
688.272	3055.57
688.461	2815.96
688.651	2944.98
688.841	2889.68
689.03	2926.55
689.22	2826.2
689.41	2781.14
689.599	2809.81
689.789	2830.29
689.979	2791.38
690.168	2906.07
690.358	2795.48
690.547	2871.25
690.737	2789.33
690.926	2777.05
691.116	2672.6
691.305	2656.22
691.495	2609.11
691.684	2639.83
691.874	2695.13
692.063	2717.65
692.252	2650.07
692.442	2641.88
692.631	2602.97
692.82	2631.64
693.01	2635.74
693.199	2600.92
693.388	2629.59
693.578	2529.24
693.767	2652.12
693.956	2625.5
694.146	2506.71
694.335	2643.93
694.524	2557.91
694.713	2543.58
694.902	2523.1
695.092	2514.91
695.281	2566.1
695.47	2461.66
695.659	2523.1
695.848	2482.14
696.037	2539.48
696.226	2475.99
696.415	2404.32
696.604	2469.85
696.793	2514.91
696.982	2441.18
697.171	2512.86
697.36	2469.85
697.549	2326.49
697.738	2467.8
697.927	2535.39
698.116	2500.57
698.305	2363.36
698.494	2426.84
698.683	2389.98
698.872	2338.78
699.061	2385.88
699.25	2424.8
699.438	2365.4
699.627	2537.43
699.816	2351.07
700.005	2379.74
700.193	2338.78
700.382	2416.6
700.571	2447.32
700.76	2308.06
700.948	2486.23
701.137	2293.72
701.326	2277.34
701.514	2322.4
701.703	2373.6
701.892	2252.77
702.08	2334.68
702.269	2453.47
702.457	2449.37
702.646	2359.26
702.834	2320.35
703.023	2506.71
703.212	2328.54
703.4	2408.41
703.589	2318.3
703.777	2404.32
703.965	2187.23
704.154	2256.86
704.342	2377.69
704.531	2432.99
704.719	2301.92
704.907	2441.18
705.096	2408.41
705.284	2412.51
705.472	2443.23
705.661	2394.08
705.849	2473.95
706.037	2385.88
706.226	2389.98
706.414	2357.21
706.602	2404.32
706.79	2287.58
706.979	2385.88
707.167	2349.02
707.355	2355.16
707.543	2447.32
707.731	2465.75
707.919	2260.96
708.107	2248.67
708.296	2316.25
708.484	2310.11
708.672	2328.54
708.86	2396.12
709.048	2371.55
709.236	2250.72
709.424	2404.32
709.612	2342.88
709.8	2389.98
709.988	2381.79
710.176	2418.65
710.364	2312.16
710.551	2361.31
710.739	2201.57
710.927	2342.88
711.115	2215.9
711.303	2324.44
711.491	2244.57
711.679	2269.15
711.866	2363.36
712.054	2344.92
712.242	2330.59
712.43	2328.54
712.617	2310.11
712.805	2424.8
712.993	2285.53
713.181	2291.68
713.368	2359.26
713.556	2377.69
713.744	2371.55
713.931	2336.73
714.119	2330.59
714.306	2361.31
714.494	2367.45
714.682	2338.78
714.869	2344.92
715.057	2340.83
715.244	2269.15
715.432	2412.51
715.619	2226.14
715.807	2324.44
715.994	2441.18
716.182	2277.34
716.369	2332.64
716.556	2246.62
716.744	2402.27
716.931	2351.07
717.119	2365.4
717.306	2310.11
717.493	2357.21
717.681	2306.01
717.868	2101.22
718.055	2369.5
718.242	2238.43
718.43	2275.29
718.617	2234.33
718.804	2185.18
718.991	2330.59
719.179	2355.16
719.366	2252.77
719.553	2185.18
719.74	2211.81
719.927	2211.81
720.114	2287.58
720.301	2230.24
720.488	2217.95
720.676	2275.29
720.863	2226.14
721.05	2246.62
721.237	2322.4
721.424	2287.58
721.611	2222.05
721.798	2189.28
721.985	2213.85
722.172	2197.47
722.358	2150.37
722.545	2185.18
722.732	2240.48
722.919	2156.51
723.106	2224.09
723.293	2203.61
723.48	2119.65
723.667	2240.48
723.853	2109.41
724.04	2142.18
724.227	2220
724.414	2189.28
724.6	2205.66
724.787	2242.53
724.974	2142.18
725.161	2222.05
725.347	2174.94
725.534	2168.8
725.72	2148.32
725.907	2158.56
726.094	2267.1
726.28	2193.37
726.467	2113.5
726.653	2174.94
726.84	2111.46
727.027	2193.37
727.213	2041.82
727.4	2142.18
727.586	2117.6
727.773	2179.04
727.959	2207.71
728.145	2013.15
728.332	2101.22
728.518	2109.41
728.705	2119.65
728.891	2129.89
729.077	2125.79
729.264	2125.79
729.45	2097.12
729.636	2201.57
729.823	2004.96
730.009	2068.45
730.195	1970.15
730.382	2068.45
730.568	2097.12
730.754	2025.44
730.94	2146.27
731.126	2228.19
731.313	2138.08
731.499	2045.92
731.685	2146.27
731.871	2019.3
732.057	2054.11
732.243	2058.21
732.429	2117.6
732.615	1966.05
732.801	2019.3
732.987	2007.01
733.173	2002.91
733.359	2017.25
733.545	2093.02
733.731	2033.63
733.917	2041.82
734.103	2052.06
734.289	2078.69
734.475	2015.2
734.661	1957.86
734.847	2047.97
735.033	1920.99
735.219	1931.23
735.404	1964
735.59	1994.72
735.776	2090.98
735.962	1957.86
736.148	1910.75
736.333	2058.21
736.519	2033.63
736.705	1914.85
736.89	1959.91
737.076	2070.5
737.262	1738.73
737.447	1978.34
737.633	1964
737.819	1918.95
738.004	1828.84
738.19	1918.95
738.375	1886.18
738.561	1929.19
738.747	1824.74
738.932	1937.38
739.118	1853.41
739.303	1873.89
739.489	1812.45
739.674	1861.6
739.859	1824.74
740.045	1759.21
740.23	1892.32
740.416	1779.68
740.601	1880.04
740.786	1755.11
740.972	1820.64
741.157	1820.64
741.342	1781.73
741.528	1820.64
741.713	1820.64
741.898	1761.25
742.084	1677.29
742.269	1804.26
742.454	1773.54
742.639	1712.1
742.824	1851.36
743.01	1718.25
743.195	1802.21
743.38	1652.71
743.565	1763.3
743.75	1802.21
743.935	1689.57
744.12	1710.05
744.305	1656.81
744.49	1656.81
744.675	1699.81
744.86	1609.7
745.045	1660.9
745.23	1568.74
745.415	1599.46
745.6	1624.04
745.785	1644.52
745.97	1609.7
746.155	1583.08
746.34	1466.35
746.525	1554.41
746.71	1603.56
746.895	1609.7
747.079	1572.84
747.264	1525.74
747.449	1548.26
747.634	1650.66
747.819	1525.74
748.003	1488.87
748.188	1460.2
748.373	1517.54
748.557	1501.16
748.742	1488.87
748.927	1472.49
749.111	1443.82
749.296	1366
749.481	1437.67
749.665	1474.54
749.85	1390.57
750.034	1492.97
750.219	1380.33
750.404	1472.49
750.588	1355.76
750.773	1269.74
750.957	1333.23
751.141	1429.48
751.326	1308.65
751.51	1241.07
751.695	1355.76
751.879	1353.71
752.064	1368.04
752.248	1243.12
752.432	1261.55
752.617	1339.37
752.801	1251.31
752.985	1288.17
753.17	1325.04
753.354	1273.84
753.538	1249.26
753.722	1169.39
753.907	1187.82
754.091	1179.63
754.275	1241.07
754.459	1255.4
754.643	1175.53
754.828	1234.93
755.012	1177.58
755.196	1083.38
755.38	1163.25
755.564	1122.29
755.748	1122.29
755.932	1148.91
756.116	1187.82
756.3	1095.66
756.484	999.41
756.668	1097.71
756.852	1060.85
757.036	1083.38
757.22	1112.05
757.404	1064.94
757.588	1050.61
757.772	1116.14
757.956	1017.84
758.14	1023.98
758.323	946.16
758.507	1081.33
758.691	1042.42
758.875	1069.04
759.059	1026.03
759.242	880.63
759.426	980.98
759.61	1062.9
759.794	937.97
759.977	1030.13
760.161	1013.74
760.345	978.93
760.528	937.97
760.712	927.73
760.895	890.87
761.079	935.92
761.263	899.06
761.446	1042.42
761.63	913.39
761.813	925.68
761.997	913.39
762.18	966.64
762.364	886.77
762.547	937.97
762.731	913.39
762.914	874.48
763.098	978.93
763.281	956.4
763.464	958.45
763.648	847.86
763.831	874.48
764.015	778.23
764.198	884.72
764.381	872.43
764.564	884.72
764.748	876.53
764.931	901.11
765.114	798.71
765.297	798.71
765.481	800.76
765.664	841.72
765.847	835.57
766.03	841.72
766.213	856.05
766.397	958.45
766.58	778.23
766.763	876.53
766.946	837.62
767.129	843.76
767.312	821.24
767.495	841.72
767.678	841.72
767.861	747.51
768.044	829.43
768.227	800.76
768.41	778.23
768.593	718.84
768.776	823.28
768.959	790.52
769.142	782.32
769.324	681.97
769.507	722.93
769.69	692.21
769.873	815.09
770.056	860.15
770.239	747.51
770.421	790.52
770.604	741.36
770.787	747.51
770.97	767.99
771.152	733.17
771.335	720.89
771.518	655.35
771.7	759.8
771.883	829.43
772.066	718.84
772.248	724.98
772.431	774.13
772.613	770.04
772.796	626.68
772.978	817.14
773.161	733.17
773.343	743.41
773.526	698.36
773.708	665.59
773.891	745.46
774.073	708.6
774.256	671.73
774.438	739.32
774.621	686.07
774.803	724.98
774.985	628.73
775.168	708.6
775.35	704.5
775.532	645.11
775.715	677.88
775.897	552.95
776.079	659.45
776.261	690.17
776.444	669.69
776.626	653.3
776.808	538.62
776.99	524.28
777.173	657.4
777.355	581.62
777.537	552.95
777.719	618.49
777.901	561.14
778.083	550.9
778.265	591.86
778.447	548.86
778.629	546.81
778.811	620.53
778.993	612.34
779.175	579.58
779.357	595.96
779.539	479.22
779.721	649.21
779.903	540.66
780.085	546.81
780.267	534.52
780.449	522.23
780.631	550.9
780.812	507.9
780.994	514.04
781.176	495.61
781.358	524.28
781.54	520.18
781.721	479.22
781.903	571.38
782.085	481.27
782.267	462.84
782.448	471.03
782.63	507.9
782.812	450.55
782.993	524.28
783.175	452.6
783.357	415.74
783.538	505.85
783.72	514.04
783.901	415.74
784.083	514.04
784.264	430.07
784.446	487.42
784.627	446.46
784.809	409.59
784.99	434.17
785.172	471.03
785.353	464.89
785.535	444.41
785.716	423.93
785.897	391.16
786.079	415.74
786.26	495.61
786.441	444.41
786.623	372.73
786.804	368.63
786.985	456.7
787.167	430.07
787.348	385.02
787.529	335.87
787.71	366.59
787.891	407.55
788.073	327.67
788.254	368.63
788.435	358.39
788.616	385.02
788.797	358.39
788.978	372.73
789.159	411.64
789.34	378.87
789.522	370.68
789.703	415.74
789.884	372.73
790.065	393.21
790.246	299
790.427	374.78
790.607	339.96
790.788	339.96
790.969	366.59
791.15	387.07
791.331	280.57
791.512	313.34
791.693	305.15
791.874	262.14
792.054	331.77
792.235	344.06
792.416	286.72
792.597	337.91
792.778	315.39
792.958	299
793.139	282.62
793.32	296.96
793.5	299
793.681	346.11
793.862	286.72
794.042	311.29
794.223	256
794.404	311.29
794.584	204.8
794.765	280.57
794.945	276.48
795.126	286.72
795.306	272.38
795.487	344.06
795.667	278.52
795.848	274.43
796.028	286.72
796.209	268.28
796.389	280.57
796.57	237.56
796.75	223.23
796.93	212.99
797.111	221.18
797.291	245.76
797.471	331.77
797.652	196.61
797.832	229.37
798.012	280.57
798.192	241.66
798.373	192.51
798.553	219.13
798.733	260.09
798.913	200.7
799.093	294.91
799.274	233.47
799.454	301.05
799.634	276.48
799.814	219.13
799.994	284.67
800.174	184.32
800.354	200.7
800.534	215.04
800.714	190.46
800.894	167.93
801.074	247.8
801.254	256
801.434	264.19
801.614	284.67
801.794	198.65
801.974	634.87
802.154	225.28
802.334	204.8
802.514	163.84
802.693	139.26
802.873	208.89
803.053	204.8
803.233	178.17
803.413	294.91
803.592	157.69
803.772	157.69
803.952	223.23
804.131	169.98
804.311	235.52
804.491	200.7
804.67	247.8
804.85	184.32
805.03	231.42
805.209	180.22
805.389	225.28
805.568	258.04
805.748	247.8
805.928	237.56
806.107	176.13
806.287	178.17
806.466	245.76
806.646	167.93
806.825	155.65
807.004	143.36
807.184	151.55
807.363	186.37
807.543	151.55
807.722	151.55
807.901	149.5
808.081	198.65
808.26	190.46
808.439	217.08
808.619	192.51
808.798	180.22
808.977	135.17
809.156	217.08
809.336	176.13
809.515	204.8
809.694	141.31
809.873	133.12
810.052	129.02
810.231	217.08
810.411	102.4
810.59	151.55
810.769	172.03
810.948	188.41
811.127	200.7
811.306	63.49
811.485	198.65
811.664	137.21
811.843	186.37
812.022	118.78
812.201	147.45
812.38	182.27
812.559	145.41
812.737	143.36
812.916	145.41
813.095	143.36
813.274	137.21
813.453	167.93
813.632	137.21
813.811	118.78
813.989	169.98
814.168	165.89
814.347	139.26
814.526	167.93
814.704	159.74
814.883	94.21
815.062	122.88
815.24	192.51
815.419	110.59
815.598	163.84
815.776	108.54
815.955	165.89
816.133	106.49
816.312	188.41
816.49	124.93
816.669	149.5
816.847	161.79
817.026	122.88
817.204	116.73
817.383	61.44
817.561	94.21
817.74	118.78
817.918	176.13
818.097	131.07
818.275	86.01
818.453	186.37
818.632	104.45
818.81	155.65
818.988	143.36
819.167	71.68
819.345	110.59
819.523	110.59
819.701	135.17
819.879	198.65
820.058	233.47
820.236	75.77
820.414	112.64
820.592	126.97
820.77	22.53
820.948	174.08
821.127	147.45
821.305	110.59
821.483	141.31
821.661	157.69
821.839	141.31
822.017	139.26
822.195	118.78
822.373	88.06
822.551	90.11
822.729	100.35
822.907	94.21
823.085	100.35
823.262	59.39
823.44	75.77
823.618	77.82
823.796	194.56
823.974	149.5
824.152	92.16
824.329	79.87
824.507	92.16
824.685	124.93
824.863	131.07
825.04	114.69
825.218	71.68
825.396	71.68
825.574	67.58
825.751	67.58
825.929	65.54
826.107	51.2
826.284	116.73
826.462	116.73
826.639	83.97
826.817	81.92
826.994	104.45
827.172	83.97
827.349	169.98
827.527	108.54
827.704	83.97
827.882	92.16
828.059	151.55
828.237	-2.05
828.414	112.64
828.591	67.58
828.769	133.12
828.946	135.17
829.124	120.83
829.301	129.02
829.478	108.54
829.655	90.11
829.833	102.4
830.01	49.15
830.187	79.87
830.364	24.58
830.542	139.26
830.719	102.4
830.896	94.21
831.073	110.59
831.25	71.68
831.427	53.25
831.604	145.41
831.782	40.96
831.959	129.02
832.136	61.44
832.313	92.16
832.49	151.55
832.667	106.49
832.844	71.68
833.021	104.45
833.198	28.67
833.374	43.01
833.551	112.64
833.728	94.21
833.905	114.69
834.082	77.82
834.259	106.49
834.436	108.54
834.612	77.82
834.789	114.69
834.966	102.4
835.143	149.5
835.319	98.3
835.496	57.34
835.673	86.01
835.85	83.97
836.026	51.2
836.203	-8.19
836.38	100.35
836.556	67.58
836.733	92.16
836.909	88.06
837.086	40.96
837.262	90.11
837.439	143.36
837.616	6.14
837.792	96.25
837.968	106.49
838.145	36.86
838.321	53.25
838.498	77.82
838.674	124.93
838.851	75.77
839.027	43.01
839.203	40.96
839.38	112.64
839.556	-4.1
839.732	81.92
839.909	45.06
840.085	57.34
840.261	34.82
840.437	45.06
840.614	-30.72
840.79	96.25
840.966	151.55
841.142	16.38
841.318	-2.05
841.494	20.48
841.671	81.92
841.847	38.91
842.023	61.44
842.199	69.63
842.375	67.58
842.551	55.3
842.727	73.73
842.903	92.16
843.079	-18.43
843.255	63.49
843.431	73.73
843.607	45.06
843.783	120.83
843.959	81.92
844.134	8.19
844.31	71.68
844.486	77.82
844.662	75.77
844.838	4.1
845.013	126.97
845.189	96.25
845.365	71.68
845.541	34.82
845.716	98.3
845.892	77.82
846.068	40.96
846.244	8.19
846.419	51.2
846.595	65.54
846.77	38.91
846.946	40.96
847.122	-6.14
847.297	104.45
847.473	49.15
847.648	-28.67
847.824	53.25
847.999	10.24
848.175	20.48
848.35	49.15
848.526	53.25
848.701	26.62
848.876	61.44
849.052	65.54
849.227	92.16
849.403	-14.34
849.578	86.01
849.753	67.58
849.929	81.92
850.104	79.87
850.279	43.01
850.454	26.62
850.63	45.06
850.805	24.58
850.98	-4.1
851.155	12.29
851.33	63.49
851.505	63.49
851.681	49.15
851.856	18.43
852.031	40.96
852.206	16.38
852.381	-24.58
852.556	45.06
852.731	55.3
852.906	32.77
853.081	73.73
853.256	32.77
853.431	118.78
853.606	6.14
853.781	-2.05
853.956	22.53
854.131	53.25
854.305	57.34
854.48	71.68
854.655	20.48
854.83	32.77
855.005	71.68
855.18	24.58
855.354	47.1
855.529	30.72
855.704	51.2
855.879	77.82
856.053	-4.1
856.228	2.05
856.403	32.77
856.577	12.29
856.752	-4.1
856.926	104.45
857.101	28.67
857.276	-24.58
857.45	69.63
857.625	43.01
857.799	90.11
857.974	20.48
858.148	28.67
858.323	4.1
858.497	30.72
858.672	30.72
858.846	20.48
859.02	8.19
859.195	-10.24
859.369	116.73
859.543	-26.62
859.718	65.54
859.892	4.1
860.066	59.39
860.241	49.15
860.415	-34.82
860.589	36.86
860.763	40.96
860.938	47.1
861.112	81.92
861.286	-22.53
861.46	88.06
861.634	106.49
861.808	65.54
861.982	32.77
862.157	61.44
862.331	47.1
862.505	96.25
862.679	-28.67
862.853	96.25
863.027	-6.14
863.201	-10.24
863.375	0
863.549	45.06
863.722	40.96
863.896	81.92
864.07	8.19
864.244	16.38
864.418	22.53
864.592	-43.01
864.766	10.24
864.939	18.43
865.113	34.82
865.287	-34.82
865.461	8.19
865.634	-14.34
865.808	-34.82
865.982	0
866.156	36.86
866.329	12.29
866.503	45.06
866.676	28.67
866.85	-112.64
867.024	-26.62
867.197	0
867.371	2.05
867.544	24.58
867.718	28.67
867.891	-43.01
868.065	-63.49
868.238	-38.91
868.412	63.49
868.585	53.25
868.759	-10.24
868.932	-12.29
869.105	2.05
869.279	45.06
869.452	26.62
869.625	81.92
869.799	30.72
869.972	114.69
870.145	-2.05
870.319	51.2
870.492	-16.38
870.665	49.15
870.838	32.77
871.011	-18.43
871.185	30.72
871.358	8.19
871.531	38.91
871.704	63.49
871.877	30.72
872.05	53.25
872.223	28.67
872.396	-28.67
872.569	59.39
872.742	10.24
872.915	-51.2
873.088	8.19
873.261	63.49
873.434	22.53
873.607	-2.05
873.78	-67.58
873.953	-20.48
874.126	28.67
874.299	71.68
874.471	51.2
874.644	20.48
874.817	-8.19
874.99	30.72
875.163	-24.58
875.335	57.34
875.508	38.91
875.681	32.77
875.853	-6.14
876.026	-38.91
876.199	47.1
876.371	18.43
876.544	24.58
876.717	79.87
876.889	34.82
877.062	26.62
877.234	-36.86
877.407	4.1
877.579	55.3
877.752	26.62
877.924	65.54
878.097	69.63
878.269	-10.24
878.442	28.67
878.614	38.91
878.786	28.67
878.959	40.96
879.131	-4.1
879.303	-4.1
879.476	24.58
879.648	40.96
879.82	-12.29
879.993	79.87
880.165	4.1
880.337	32.77
880.509	-18.43
880.681	-69.63
880.854	0
881.026	69.63
881.198	92.16
881.37	59.39
881.542	20.48
881.714	32.77
881.886	-12.29
882.058	-92.16
882.23	40.96
882.402	-51.2
882.574	10.24
882.746	-12.29
882.918	-18.43
883.09	2.05
883.262	-16.38
883.434	22.53
883.606	-8.19
883.778	12.29
883.95	-4.1
884.122	-12.29
884.293	100.35
884.465	22.53
884.637	47.1
884.809	30.72
884.98	-36.86
885.152	34.82
885.324	28.67
885.496	45.06
885.667	4.1
885.839	-14.34
886.011	30.72
886.182	-2.05
886.354	71.68
886.525	0
886.697	40.96
886.869	-47.1
887.04	73.73
887.212	24.58
887.383	77.82
887.555	36.86
887.726	12.29
887.897	-34.82
888.069	75.77
888.24	40.96
888.412	-18.43
888.583	-2.05
888.754	-32.77
888.926	45.06
889.097	18.43
889.268	-20.48
889.44	61.44
889.611	-20.48
889.782	26.62
889.953	-98.3
890.125	14.34
890.296	-16.38
890.467	-4.1
890.638	-16.38
890.809	43.01
890.98	-6.14
891.151	8.19
891.323	-10.24
891.494	40.96
891.665	-14.34
891.836	-10.24
892.007	14.34
892.178	18.43
892.349	-38.91
892.52	-2.05
892.691	-24.58
892.862	77.82
893.032	-18.43
893.203	-34.82
893.374	-20.48
893.545	20.48
893.716	-30.72
893.887	0
894.057	-2.05
894.228	32.77
894.399	26.62
894.57	61.44
894.74	81.92
894.911	63.49
895.082	-4.1
895.253	-4.1
895.423	28.67
895.594	36.86
895.764	-38.91
895.935	14.34
896.106	-28.67
896.276	-47.1
896.447	-10.24
896.617	-18.43
896.788	40.96
896.958	45.06
897.129	12.29
897.299	32.77
897.47	63.49
897.64	22.53
897.81	51.2
897.981	-24.58
898.151	-30.72
898.322	14.34
898.492	24.58
898.662	16.38
898.832	-2.05
899.003	81.92
899.173	20.48
899.343	-59.39
899.513	-6.14
