Data from USB4F104151__79__12-02-11-335.txt Node

Date: Fri Mar 14 12:02:11 EDT 2025
User: louis
Spectrometer: USB4F10415
Trigger mode: 4
Integration Time (sec): 2.000000E-2
Scans to average: 1
Electric dark correction enabled: true
Nonlinearity correction enabled: false
Boxcar width: 0
XAxis mode: Wavelengths
Number of Pixels in Spectrum: 3648
>>>>>Begin Spectral Data<<<<<
178.204	-81.58
178.424	-81.58
178.644	-81.58
178.864	-100.01
179.084	-44.71
179.304	49.49
179.524	24.92
179.744	-11.95
179.964	47.44
180.184	-26.28
180.404	78.16
180.624	8.53
180.844	-30.38
181.064	-28.33
181.283	-13.99
181.503	-30.38
181.723	-67.24
181.943	-52.91
182.163	-1.71
182.383	33.11
182.602	37.2
182.822	-20.14
183.042	0.34
183.262	-32.43
183.482	-20.14
183.701	35.16
183.921	53.59
184.141	-34.47
184.361	51.54
184.58	170.32
184.8	37.2
185.02	47.44
185.239	47.44
185.459	-9.9
185.679	90.45
185.898	20.82
186.118	65.88
186.338	-38.57
186.557	4.44
186.777	-38.57
186.997	47.44
187.216	76.12
187.436	35.16
187.655	90.45
187.875	31.06
188.095	-40.62
188.314	63.83
188.534	26.96
188.753	-34.47
188.973	127.32
189.192	22.87
189.412	72.02
189.631	22.87
189.851	-52.91
190.07	51.54
190.29	22.87
190.509	-13.99
190.729	-11.95
190.948	51.54
191.168	84.31
191.387	76.12
191.607	37.2
191.826	57.68
192.045	45.4
192.265	14.68
192.484	-11.95
192.704	-24.23
192.923	-46.76
193.142	121.17
193.362	29.01
193.581	92.5
193.8	22.87
194.02	96.6
194.239	12.63
194.458	102.74
194.678	2.39
194.897	45.4
195.116	57.68
195.335	69.97
195.555	-28.33
195.774	-26.28
195.993	61.78
196.212	31.06
196.432	6.49
196.651	-73.39
196.87	12.63
197.089	102.74
197.308	49.49
197.528	78.16
197.747	16.73
197.966	-5.8
198.185	35.16
198.404	0.34
198.623	37.2
198.842	90.45
199.062	-16.04
199.281	72.02
199.5	6.49
199.719	-34.47
199.938	63.83
200.157	78.16
200.376	-7.85
200.595	51.54
200.814	4.44
201.033	14.68
201.252	94.55
201.471	10.58
201.69	26.96
201.909	41.3
202.128	43.35
202.347	43.35
202.566	18.77
202.785	4.44
203.004	-13.99
203.223	78.16
203.442	-20.14
203.661	49.49
203.879	22.87
204.098	115.03
204.317	-7.85
204.536	59.73
204.755	-22.19
204.974	12.63
205.193	47.44
205.411	72.02
205.63	-16.04
205.849	61.78
206.068	31.06
206.287	86.36
206.505	67.92
206.724	47.44
206.943	82.26
207.162	20.82
207.381	-38.57
207.599	-114.34
207.818	14.68
208.037	-5.8
208.255	-11.95
208.474	16.73
208.693	-48.81
208.911	0.34
209.13	-75.43
209.349	74.07
209.567	31.06
209.786	78.16
210.005	-32.43
210.223	-1.71
210.442	26.96
210.661	-3.75
210.879	43.35
211.098	55.64
211.316	6.49
211.535	43.35
211.753	41.3
211.972	-32.43
212.191	22.87
212.409	16.73
212.628	55.64
212.846	33.11
213.065	8.53
213.283	33.11
213.502	-32.43
213.72	67.92
213.938	41.3
214.157	-28.33
214.375	39.25
214.594	-42.67
214.812	51.54
215.031	43.35
215.249	29.01
215.467	8.53
215.686	80.21
215.904	49.49
216.122	47.44
216.341	-52.91
216.559	69.97
216.778	26.96
216.996	6.49
217.214	31.06
217.432	-5.8
217.651	4.44
217.869	22.87
218.087	24.92
218.306	63.83
218.524	-7.85
218.742	72.02
218.96	63.83
219.179	14.68
219.397	76.12
219.615	76.12
219.833	-89.77
220.051	6.49
220.27	14.68
220.488	-59.05
220.706	47.44
220.924	-22.19
221.142	37.2
221.36	63.83
221.578	37.2
221.796	102.74
222.015	20.82
222.233	112.98
222.451	24.92
222.669	41.3
222.887	69.97
223.105	26.96
223.323	-38.57
223.541	8.53
223.759	41.3
223.977	4.44
224.195	29.01
224.413	76.12
224.631	10.58
224.849	22.87
225.067	72.02
225.285	39.25
225.503	20.82
225.721	29.01
225.939	135.51
226.157	72.02
226.375	10.58
226.592	-1.71
226.81	45.4
227.028	-36.52
227.246	-28.33
227.464	65.88
227.682	39.25
227.9	6.49
228.117	24.92
228.335	16.73
228.553	-18.09
228.771	-1.71
228.989	39.25
229.206	51.54
229.424	6.49
229.642	10.58
229.86	-1.71
230.077	158.03
230.295	22.87
230.513	-24.23
230.731	55.64
230.948	14.68
231.166	2.39
231.384	65.88
231.601	26.96
231.819	33.11
232.037	119.12
232.254	8.53
232.472	33.11
232.689	22.87
232.907	100.69
233.125	39.25
233.342	6.49
233.56	-1.71
233.777	33.11
233.995	12.63
234.213	94.55
234.43	-20.14
234.648	-5.8
234.865	45.4
235.083	67.92
235.3	-11.95
235.518	-30.38
235.735	80.21
235.953	22.87
236.17	-11.95
236.388	33.11
236.605	41.3
236.822	96.6
237.04	39.25
237.257	-13.99
237.475	26.96
237.692	-38.57
237.909	31.06
238.127	92.5
238.344	-30.38
238.562	104.79
238.779	-40.62
238.996	-20.14
239.214	26.96
239.431	84.31
239.648	4.44
239.865	-5.8
240.083	-1.71
240.3	29.01
240.517	14.68
240.735	65.88
240.952	-16.04
241.169	121.17
241.386	-7.85
241.603	112.98
241.821	-16.04
242.038	-36.52
242.255	22.87
242.472	-9.9
242.689	24.92
242.907	80.21
243.124	-34.47
243.341	45.4
243.558	-11.95
243.775	88.4
243.992	4.44
244.209	131.41
244.426	90.45
244.643	92.5
244.86	82.26
245.078	-5.8
245.295	-5.8
245.512	-24.23
245.729	41.3
245.946	59.73
246.163	4.44
246.38	24.92
246.597	12.63
246.814	35.16
247.031	10.58
247.248	14.68
247.464	33.11
247.681	63.83
247.898	14.68
248.115	41.3
248.332	-9.9
248.549	82.26
248.766	90.45
248.983	65.88
249.2	63.83
249.417	110.93
249.633	26.96
249.85	10.58
250.067	-11.95
250.284	55.64
250.501	24.92
250.717	76.12
250.934	-11.95
251.151	35.16
251.368	78.16
251.585	35.16
251.801	51.54
252.018	-3.75
252.235	72.02
252.451	4.44
252.668	22.87
252.885	82.26
253.102	-1.71
253.318	47.44
253.535	8.53
253.752	69.97
253.968	18.77
254.185	-1.71
254.401	65.88
254.618	24.92
254.835	16.73
255.051	26.96
255.268	127.32
255.484	102.74
255.701	20.82
255.917	-9.9
256.134	-22.19
256.351	-11.95
256.567	18.77
256.784	-120.49
257	76.12
257.217	57.68
257.433	12.63
257.65	69.97
257.866	153.94
258.082	-24.23
258.299	-26.28
258.515	65.88
258.732	31.06
258.948	-3.75
259.165	43.35
259.381	12.63
259.597	-24.23
259.814	69.97
260.03	37.2
260.246	53.59
260.463	74.07
260.679	37.2
260.895	29.01
261.112	-9.9
261.328	94.55
261.544	49.49
261.761	8.53
261.977	20.82
262.193	55.64
262.409	59.73
262.626	110.93
262.842	10.58
263.058	-26.28
263.274	53.59
263.49	-1.71
263.707	41.3
263.923	61.78
264.139	-16.04
264.355	12.63
264.571	35.16
264.787	18.77
265.004	22.87
265.22	102.74
265.436	-30.38
265.652	51.54
265.868	86.36
266.084	-7.85
266.3	29.01
266.516	-11.95
266.732	22.87
266.948	86.36
267.164	2.39
267.38	55.64
267.596	94.55
267.812	127.32
268.028	98.64
268.244	-77.48
268.46	57.68
268.676	22.87
268.892	153.94
269.108	-13.99
269.324	0.34
269.54	47.44
269.756	65.88
269.972	2.39
270.188	20.82
270.403	16.73
270.619	49.49
270.835	14.68
271.051	55.64
271.267	-16.04
271.483	55.64
271.698	-42.67
271.914	-11.95
272.13	14.68
272.346	106.84
272.562	33.11
272.777	-1.71
272.993	74.07
273.209	-42.67
273.425	-5.8
273.64	47.44
273.856	82.26
274.072	61.78
274.287	-7.85
274.503	-26.28
274.719	102.74
274.934	-7.85
275.15	14.68
275.366	35.16
275.581	14.68
275.797	55.64
276.012	18.77
276.228	12.63
276.444	24.92
276.659	63.83
276.875	41.3
277.09	59.73
277.306	-13.99
277.521	112.98
277.737	-36.52
277.952	63.83
278.168	-1.71
278.383	35.16
278.599	-1.71
278.814	82.26
279.03	18.77
279.245	61.78
279.461	51.54
279.676	80.21
279.892	-3.75
280.107	45.4
280.322	49.49
280.538	31.06
280.753	10.58
280.969	78.16
281.184	67.92
281.399	4.44
281.615	-9.9
281.83	69.97
282.045	47.44
282.26	-20.14
282.476	-26.28
282.691	96.6
282.906	20.82
283.122	80.21
283.337	24.92
283.552	-3.75
283.767	10.58
283.983	55.64
284.198	-5.8
284.413	55.64
284.628	-40.62
284.843	53.59
285.058	-11.95
285.274	-30.38
285.489	-61.1
285.704	51.54
285.919	92.5
286.134	-1.71
286.349	61.78
286.564	51.54
286.779	67.92
286.995	39.25
287.21	16.73
287.425	10.58
287.64	-5.8
287.855	39.25
288.07	14.68
288.285	43.35
288.5	51.54
288.715	24.92
288.93	-1.71
289.145	45.4
289.36	88.4
289.575	74.07
289.79	51.54
290.004	80.21
290.219	41.3
290.434	59.73
290.649	53.59
290.864	6.49
291.079	49.49
291.294	-34.47
291.509	-3.75
291.724	33.11
291.938	53.59
292.153	39.25
292.368	4.44
292.583	53.59
292.798	16.73
293.012	96.6
293.227	-36.52
293.442	53.59
293.657	61.78
293.871	51.54
294.086	41.3
294.301	61.78
294.516	20.82
294.73	100.69
294.945	65.88
295.16	4.44
295.374	43.35
295.589	-3.75
295.804	43.35
296.018	127.32
296.233	67.92
296.447	33.11
296.662	24.92
296.877	49.49
297.091	65.88
297.306	51.54
297.52	61.78
297.735	92.5
297.949	86.36
298.164	45.4
298.378	22.87
298.593	51.54
298.807	18.77
299.022	20.82
299.236	4.44
299.451	22.87
299.665	53.59
299.88	59.73
300.094	39.25
300.309	43.35
300.523	-24.23
300.737	57.68
300.952	-36.52
301.166	88.4
301.381	-11.95
301.595	31.06
301.809	108.88
302.024	26.96
302.238	-26.28
302.452	94.55
302.667	12.63
302.881	160.08
303.095	49.49
303.309	41.3
303.524	12.63
303.738	59.73
303.952	26.96
304.166	67.92
304.381	24.92
304.595	104.79
304.809	20.82
305.023	6.49
305.237	-20.14
305.452	57.68
305.666	2.39
305.88	24.92
306.094	29.01
306.308	14.68
306.522	86.36
306.736	43.35
306.95	69.97
307.164	0.34
307.379	-3.75
307.593	49.49
307.807	24.92
308.021	10.58
308.235	-7.85
308.449	49.49
308.663	22.87
308.877	84.31
309.091	35.16
309.305	65.88
309.519	22.87
309.733	74.07
309.947	14.68
310.161	49.49
310.374	35.16
310.588	-9.9
310.802	39.25
311.016	39.25
311.23	24.92
311.444	24.92
311.658	-16.04
311.872	26.96
312.085	35.16
312.299	61.78
312.513	16.73
312.727	55.64
312.941	20.82
313.154	51.54
313.368	8.53
313.582	45.4
313.796	41.3
314.009	26.96
314.223	74.07
314.437	24.92
314.651	63.83
314.864	45.4
315.078	43.35
315.292	47.44
315.505	37.2
315.719	41.3
315.933	16.73
316.146	26.96
316.36	6.49
316.573	69.97
316.787	33.11
317.001	49.49
317.214	86.36
317.428	-24.23
317.641	41.3
317.855	-11.95
318.068	35.16
318.282	72.02
318.495	55.64
318.709	63.83
318.922	88.4
319.136	78.16
319.349	78.16
319.563	67.92
319.776	72.02
319.99	22.87
320.203	63.83
320.417	57.68
320.63	90.45
320.843	137.56
321.057	-22.19
321.27	94.55
321.483	8.53
321.697	80.21
321.91	47.44
322.124	90.45
322.337	86.36
322.55	-7.85
322.763	69.97
322.977	53.59
323.19	-50.86
323.403	43.35
323.617	35.16
323.83	55.64
324.043	-3.75
324.256	-1.71
324.469	8.53
324.683	112.98
324.896	18.77
325.109	51.54
325.322	26.96
325.535	84.31
325.748	72.02
325.962	2.39
326.175	20.82
326.388	20.82
326.601	41.3
326.814	6.49
327.027	47.44
327.24	100.69
327.453	74.07
327.666	-71.34
327.879	69.97
328.092	51.54
328.305	18.77
328.518	-34.47
328.731	4.44
328.944	14.68
329.157	57.68
329.37	65.88
329.583	125.27
329.796	26.96
330.009	29.01
330.222	92.5
330.435	31.06
330.648	-18.09
330.861	22.87
331.073	35.16
331.286	102.74
331.499	-20.14
331.712	20.82
331.925	88.4
332.138	31.06
332.35	61.78
332.563	41.3
332.776	69.97
332.989	102.74
333.202	-24.23
333.414	29.01
333.627	51.54
333.84	35.16
334.053	43.35
334.265	41.3
334.478	69.97
334.691	-13.99
334.903	12.63
335.116	29.01
335.329	31.06
335.541	-13.99
335.754	37.2
335.966	10.58
336.179	102.74
336.392	8.53
336.604	43.35
336.817	94.55
337.029	151.89
337.242	37.2
337.454	49.49
337.667	104.79
337.88	162.13
338.092	72.02
338.305	57.68
338.517	16.73
338.729	-9.9
338.942	65.88
339.154	8.53
339.367	2.39
339.579	24.92
339.792	55.64
340.004	37.2
340.217	41.3
340.429	26.96
340.641	-24.23
340.854	67.92
341.066	-5.8
341.278	26.96
341.491	98.64
341.703	6.49
341.915	80.21
342.128	76.12
342.34	-26.28
342.552	-1.71
342.764	16.73
342.977	24.92
343.189	31.06
343.401	90.45
343.613	55.64
343.826	49.49
344.038	-18.09
344.25	12.63
344.462	10.58
344.674	26.96
344.886	14.68
345.099	14.68
345.311	29.01
345.523	57.68
345.735	0.34
345.947	-9.9
346.159	86.36
346.371	72.02
346.583	65.88
346.795	84.31
347.007	-63.15
347.219	43.35
347.431	4.44
347.643	123.22
347.855	41.3
348.067	88.4
348.279	63.83
348.491	78.16
348.703	4.44
348.915	47.44
349.127	57.68
349.339	51.54
349.551	65.88
349.763	31.06
349.975	-7.85
350.187	104.79
350.399	78.16
350.61	55.64
350.822	33.11
351.034	-1.71
351.246	90.45
351.458	18.77
351.669	45.4
351.881	49.49
352.093	55.64
352.305	67.92
352.517	2.39
352.728	26.96
352.94	24.92
353.152	22.87
353.363	92.5
353.575	127.32
353.787	108.88
353.999	65.88
354.21	139.6
354.422	10.58
354.633	39.25
354.845	31.06
355.057	55.64
355.268	82.26
355.48	26.96
355.692	26.96
355.903	14.68
356.115	55.64
356.326	37.2
356.538	110.93
356.749	20.82
356.961	82.26
357.172	39.25
357.384	41.3
357.595	137.56
357.807	35.16
358.018	8.53
358.23	49.49
358.441	141.65
358.653	35.16
358.864	33.11
359.075	8.53
359.287	-20.14
359.498	78.16
359.709	-5.8
359.921	82.26
360.132	88.4
360.344	49.49
360.555	43.35
360.766	45.4
360.977	78.16
361.189	67.92
361.4	80.21
361.611	63.83
361.823	53.59
362.034	76.12
362.245	12.63
362.456	80.21
362.667	-9.9
362.879	43.35
363.09	98.64
363.301	14.68
363.512	33.11
363.723	112.98
363.935	80.21
364.146	61.78
364.357	47.44
364.568	78.16
364.779	53.59
364.99	92.5
365.201	-34.47
365.412	49.49
365.623	49.49
365.834	37.2
366.045	45.4
366.256	63.83
366.467	102.74
366.678	76.12
366.889	31.06
367.1	43.35
367.311	69.97
367.522	106.84
367.733	86.36
367.944	102.74
368.155	-7.85
368.366	86.36
368.577	72.02
368.788	108.88
368.999	14.68
369.209	26.96
369.42	106.84
369.631	139.6
369.842	0.34
370.053	84.31
370.264	12.63
370.474	31.06
370.685	35.16
370.896	72.02
371.107	59.73
371.317	94.55
371.528	14.68
371.739	76.12
371.95	53.59
372.16	53.59
372.371	-7.85
372.582	119.12
372.792	10.58
373.003	53.59
373.214	47.44
373.424	123.22
373.635	26.96
373.846	82.26
374.056	112.98
374.267	43.35
374.477	14.68
374.688	16.73
374.898	12.63
375.109	51.54
375.319	104.79
375.53	86.36
375.74	74.07
375.951	-7.85
376.161	8.53
376.372	55.64
376.582	26.96
376.793	172.37
377.003	45.4
377.214	22.87
377.424	33.11
377.635	41.3
377.845	82.26
378.055	61.78
378.266	92.5
378.476	-16.04
378.686	84.31
378.897	-13.99
379.107	80.21
379.317	67.92
379.528	51.54
379.738	26.96
379.948	39.25
380.158	86.36
380.369	106.84
380.579	67.92
380.789	80.21
380.999	123.22
381.21	37.2
381.42	117.08
381.63	-1.71
381.84	72.02
382.05	57.68
382.261	47.44
382.471	96.6
382.681	39.25
382.891	94.55
383.101	74.07
383.311	98.64
383.521	-3.75
383.731	59.73
383.941	74.07
384.151	55.64
384.361	45.4
384.571	45.4
384.781	80.21
384.991	49.49
385.201	63.83
385.411	92.5
385.621	84.31
385.831	78.16
386.041	125.27
386.251	47.44
386.461	37.2
386.671	76.12
386.881	33.11
387.091	96.6
387.301	96.6
387.511	-5.8
387.72	65.88
387.93	123.22
388.14	14.68
388.35	41.3
388.56	127.32
388.769	26.96
388.979	135.51
389.189	74.07
389.399	121.17
389.609	90.45
389.818	72.02
390.028	57.68
390.238	110.93
390.447	33.11
390.657	69.97
390.867	8.53
391.076	37.2
391.286	112.98
391.496	155.99
391.705	88.4
391.915	74.07
392.125	76.12
392.334	121.17
392.544	78.16
392.753	121.17
392.963	33.11
393.172	86.36
393.382	43.35
393.591	90.45
393.801	92.5
394.01	108.88
394.22	51.54
394.429	63.83
394.639	57.68
394.848	88.4
395.058	160.08
395.267	63.83
395.477	172.37
395.686	153.94
395.895	115.03
396.105	112.98
396.314	78.16
396.524	102.74
396.733	82.26
396.942	145.75
397.152	196.95
397.361	104.79
397.57	182.61
397.78	82.26
397.989	119.12
398.198	184.66
398.407	112.98
398.617	123.22
398.826	88.4
399.035	78.16
399.244	129.36
399.453	86.36
399.663	67.92
399.872	104.79
400.081	63.83
400.29	170.32
400.499	170.32
400.708	78.16
400.917	147.8
401.127	74.07
401.336	162.13
401.545	145.75
401.754	190.8
401.963	164.18
402.172	139.6
402.381	158.03
402.59	135.51
402.799	67.92
403.008	139.6
403.217	143.7
403.426	158.03
403.635	125.27
403.844	102.74
404.053	196.95
404.262	166.23
404.471	217.43
404.68	129.36
404.888	196.95
405.097	229.71
405.306	155.99
405.515	223.57
405.724	239.95
405.933	184.66
406.142	213.33
406.35	317.78
406.559	145.75
406.768	246.1
406.977	237.91
407.185	242
407.394	260.43
407.603	160.08
407.812	317.78
408.02	340.3
408.229	250.19
408.438	282.96
408.646	258.39
408.855	211.28
409.064	268.63
409.272	272.72
409.481	444.75
409.69	319.82
409.898	375.12
410.107	260.43
410.315	465.23
410.524	371.02
410.733	399.7
410.941	485.71
411.15	481.61
411.358	498
411.567	551.24
411.775	465.23
411.984	520.53
412.192	469.33
412.401	506.19
412.609	563.53
412.818	672.08
413.026	612.68
413.234	647.5
413.443	639.31
413.651	643.4
413.86	643.4
414.068	684.36
414.276	727.37
414.485	821.58
414.693	827.72
414.901	778.57
415.11	837.96
415.318	842.06
415.526	901.45
415.734	919.88
415.943	905.54
416.151	1100.1
416.359	921.93
416.567	1032.52
416.776	1108.29
416.984	1149.25
417.192	1302.85
417.4	1186.12
417.608	1229.12
417.817	1235.27
418.025	1399.1
418.233	1474.88
418.441	1425.73
418.649	1509.69
418.857	1485.12
419.065	1548.61
419.273	1601.85
419.481	1700.16
419.689	1810.75
419.897	1833.27
420.105	1876.28
420.313	1831.23
420.521	2062.65
420.729	2113.85
420.937	2087.22
421.145	2251.06
421.353	2320.69
421.561	2298.16
421.769	2488.62
421.977	2443.57
422.185	2519.34
422.393	2738.48
422.601	2851.11
422.809	2847.02
423.017	3002.66
423.224	3014.95
423.432	3055.91
423.64	2904.36
423.848	3316
424.056	3289.38
424.263	3547.42
424.471	3430.69
424.679	3600.67
424.887	3840.28
425.094	4079.9
425.302	3946.78
425.51	4227.35
425.718	4411.67
425.925	4284.69
426.133	4593.94
426.341	4851.98
426.548	4894.99
426.756	4933.9
426.964	4970.76
427.171	5366.02
427.379	5511.43
427.586	5593.34
427.794	5738.75
428.001	5984.51
428.209	6144.25
428.417	6072.57
428.624	6486.26
428.832	6523.12
429.039	6508.79
429.247	6535.41
429.454	6965.48
429.662	7600.35
429.869	7065.83
430.076	7555.3
430.284	7413.99
430.491	7661.79
430.699	8460.5
430.906	7950.56
431.114	8267.99
431.321	8544.47
431.528	8696.02
431.736	9341.13
431.943	9550.02
432.15	9550.02
432.358	9572.55
432.565	10084.54
432.772	9967.81
432.979	10494.13
433.187	10737.84
433.394	10690.74
433.601	11677.86
433.808	11673.76
434.016	11428.01
434.223	11972.77
434.43	12656.79
434.637	12474.52
434.844	13320.33
435.052	13465.74
435.259	13381.77
435.466	13465.74
435.673	13244.56
435.88	14446.71
436.087	14985.33
436.294	15091.82
436.501	14583.93
436.708	15274.09
436.915	15523.94
437.122	16343.13
437.329	16216.16
437.537	16717.91
437.743	17072.21
437.95	16789.59
438.157	17621.06
438.364	18356.29
438.571	18337.85
438.778	18778.17
438.985	20066.34
439.192	19361.84
439.399	20088.87
439.606	19427.37
439.813	20850.71
440.02	21762.06
440.227	21725.19
440.433	21252.11
440.64	22153.22
440.847	21901.32
441.054	22681.6
441.261	24283.11
441.467	23525.36
441.674	24225.76
441.881	24780.76
442.088	25003.99
442.294	24905.69
442.501	25923.53
442.708	25599.95
442.914	26861.5
443.121	28065.71
443.328	27250.61
443.534	29140.89
443.741	28092.33
443.948	28034.99
444.154	30130.06
444.361	29749.14
444.568	30271.37
444.774	29894.54
444.981	30553.99
445.187	31278.97
445.394	32608.1
445.6	32214.89
445.807	35393.34
446.013	34213.71
446.22	34426.7
446.426	35839.79
446.633	36114.22
446.839	37254.94
447.046	35843.89
447.252	37957.39
447.459	37783.32
447.665	37717.78
447.871	39149.31
448.078	40920.8
448.284	39040.77
448.491	40261.36
448.697	41508.57
448.903	41977.56
449.11	42567.37
449.316	41572.06
449.522	42725.07
449.728	43677.37
449.935	43886.26
450.141	43853.5
450.347	44863.14
450.553	43462.33
450.76	43783.87
450.966	45459.1
451.172	44500.65
451.378	45547.17
451.584	45190.82
451.791	46130.84
451.997	46175.89
452.203	46618.25
452.409	46829.19
452.615	46196.37
452.821	44990.12
453.027	44267.19
453.233	46462.61
453.44	44564.14
453.646	45137.57
453.852	45778.59
454.058	46048.92
454.264	44410.54
454.47	45659.8
454.676	44447.41
454.882	45837.98
455.088	41811.67
455.294	42622.67
455.5	43486.91
455.705	43747
455.911	42125.01
456.117	41465.56
456.323	40466.16
456.529	38608.65
456.735	40142.58
456.941	38776.58
457.147	38629.13
457.352	37277.47
457.558	36785.96
457.764	36871.97
457.97	36060.98
458.176	35489.59
458.381	35096.38
458.587	33494.87
458.793	33718.1
458.999	31991.66
459.204	34404.17
459.41	33140.57
459.616	31121.27
459.821	31100.79
460.027	30572.42
460.233	30177.16
460.438	28540.83
460.644	29288.34
460.85	27901.87
461.055	27459.51
461.261	27334.58
461.466	25221.08
461.672	24698.84
461.878	26269.64
462.083	24694.75
462.289	24006.63
462.494	23810.03
462.7	22665.21
462.905	22233.09
463.111	22794.23
463.316	22874.1
463.522	22593.53
463.727	22554.62
463.932	22657.02
464.138	22052.87
464.343	22323.2
464.549	21889.03
464.754	22552.57
464.959	22220.8
465.165	22128.64
465.37	21162
465.575	20461.6
465.781	21422.09
465.986	21340.18
466.191	20543.52
466.397	20484.12
466.602	19292.21
466.807	20027.43
467.012	20056.1
467.218	19998.76
467.423	19623.98
467.628	20117.54
467.833	20863
468.038	19941.41
468.244	19214.38
468.449	19787.82
468.654	19392.56
468.859	19437.61
469.064	19357.74
469.269	18649.14
469.474	18626.62
469.679	19111.99
469.885	18446.4
470.09	18862.13
470.295	18575.42
470.5	18104.39
470.705	18096.19
470.91	17944.64
471.115	17731.65
471.32	18133.06
471.525	17668.17
471.73	17623.11
471.935	17090.64
472.139	17021.01
472.344	16785.49
472.549	16791.64
472.754	16537.69
472.959	16203.87
473.164	15872.1
473.369	15812.71
473.574	16152.67
473.778	16150.62
473.983	15810.66
474.188	15784.04
474.393	15167.6
474.598	15396.97
474.802	15118.45
475.007	14964.85
475.212	14997.62
475.417	14528.63
475.621	14561.4
475.826	14338.17
476.031	14065.79
476.235	13885.57
476.44	14106.75
476.645	13801.6
476.849	13934.72
477.054	13594.76
477.259	13283.47
477.463	13138.06
477.668	12867.73
477.872	13422.73
478.077	13000.85
478.282	12728.47
478.486	12603.54
478.691	12603.54
478.895	12538.01
479.1	12605.59
479.304	12384.41
479.509	12142.75
479.713	12314.78
479.918	12120.22
480.122	12079.26
480.326	12300.44
480.531	11972.77
480.735	11831.46
480.94	11888.8
481.144	12257.43
481.348	11661.48
481.553	11888.8
481.757	11438.25
481.961	11718.82
482.166	11747.49
482.37	11675.81
482.574	11423.91
482.778	11669.67
482.983	11851.94
483.187	11593.89
483.391	11624.61
483.595	11761.83
483.8	11434.15
484.004	11641
484.208	11724.96
484.412	11571.36
484.616	11493.54
484.821	11563.17
485.025	11348.14
485.229	11688.1
485.433	11350.18
485.637	11671.72
485.841	11307.18
486.045	11557.03
486.249	11593.89
486.453	11405.48
486.657	11653.28
486.861	11503.78
487.065	11317.42
487.269	11477.16
487.473	11348.14
487.677	11493.54
487.881	11786.4
488.085	11403.43
488.289	11387.05
488.493	11425.96
488.697	11442.34
488.901	11522.21
489.105	11585.7
489.309	11612.32
489.512	11983.01
489.716	11675.81
489.92	11708.58
490.124	11540.65
490.328	11913.38
490.531	11733.15
490.735	11944.1
490.939	11724.96
491.143	11870.37
491.346	11911.33
491.55	12122.27
491.754	11892.9
491.958	12257.43
492.161	11847.84
492.365	12128.41
492.569	12136.6
492.772	12349.59
492.976	12210.33
493.18	12374.17
493.383	12351.64
493.587	12621.97
493.79	12759.19
493.994	12509.33
494.197	12558.49
494.401	12664.98
494.605	12963.98
494.808	13029.52
495.012	12916.88
495.215	13011.09
495.419	13056.14
495.622	13228.17
495.825	13228.17
496.029	13285.51
496.232	13637.77
496.436	13463.69
496.639	13895.81
496.843	13697.16
497.046	13889.67
497.249	14299.26
497.453	14397.56
497.656	14325.88
497.859	14395.51
498.063	14932.08
498.266	14993.52
498.469	15272.04
498.673	15276.14
498.876	15065.2
499.079	15458.41
499.282	15399.02
499.485	15757.41
499.689	15763.56
499.892	16023.65
500.095	16148.57
500.298	16439.39
500.501	16289.88
500.705	16623.7
500.908	16973.91
501.111	17037.39
501.314	17340.49
501.517	17512.52
501.72	17780.81
501.923	17528.91
502.126	18280.51
502.329	18354.24
502.532	18407.48
502.735	18864.18
502.938	19071.03
503.141	19007.54
503.344	19304.49
503.547	19159.09
503.75	19568.68
503.953	19619.88
504.156	20107.3
504.359	20408.35
504.562	20320.29
504.765	20953.11
504.968	20883.48
505.17	21032.98
505.373	21073.94
505.576	21461.01
505.779	21764.11
505.982	21825.54
506.185	22302.72
506.387	22235.14
506.59	22743.03
506.793	22642.68
506.996	22847.48
507.198	23506.93
507.401	23152.63
507.604	23769.07
507.807	24297.44
508.009	24330.21
508.212	24383.46
508.415	24475.62
508.617	24860.63
508.82	24928.22
509.022	24776.67
509.225	25253.84
509.428	25683.92
509.63	26093.51
509.833	25929.67
510.035	26630.08
510.238	26892.22
510.44	26877.88
510.643	27391.92
510.845	27037.62
511.048	27436.98
511.25	27848.62
511.453	28020.65
511.655	29202.33
511.858	28456.87
512.06	28708.77
512.262	29259.67
512.465	29005.72
512.667	29790.09
512.87	30064.52
513.072	29915.02
513.274	30537.6
513.477	30599.04
513.679	31100.79
513.881	31274.87
514.084	31586.16
514.286	31913.84
514.488	31596.4
514.69	32898.91
514.893	32675.68
515.095	32745.31
515.297	33374.04
515.499	33195.87
515.701	33654.61
515.904	33965.9
516.106	33912.66
516.308	34654.02
516.51	34580.29
516.712	34735.94
516.914	35063.61
517.116	35704.63
517.318	35563.32
517.52	35934
517.722	35852.08
517.925	36564.78
518.127	36990.75
518.329	37367.58
518.531	36759.33
518.733	37865.24
518.935	37785.36
519.136	37928.72
519.338	38397.71
519.54	38258.45
519.742	38909.7
519.944	38825.73
520.146	39724.79
520.348	39765.75
520.55	39831.29
520.752	39943.92
520.954	40795.88
521.155	40341.23
521.357	40824.55
521.559	41414.37
521.761	41647.83
521.963	41893.59
522.164	41606.87
522.366	41889.49
522.568	42510.03
522.77	42460.88
522.971	43103.94
523.173	42878.66
523.375	43198.15
523.576	43384.51
523.778	43529.92
523.98	43581.12
524.181	44005.05
524.383	44084.92
524.584	44336.82
524.786	44519.09
524.988	44228.27
525.189	44652.2
525.391	45147.81
525.592	45291.17
525.794	45571.74
525.995	45194.92
526.197	45772.44
526.398	45733.53
526.6	45897.37
526.801	45995.67
527.003	46300.82
527.204	46300.82
527.406	46460.56
527.607	46587.53
527.808	46859.91
528.01	45926.04
528.211	46368.4
528.412	47150.73
528.614	47064.71
528.815	47169.16
529.016	47488.64
529.218	46917.26
529.419	47533.7
529.62	47570.56
529.822	47476.35
530.023	47435.39
530.224	47464.07
530.425	47414.91
530.626	47044.23
530.828	47564.42
531.029	48608.88
531.23	47648.38
531.431	47601.28
531.632	47648.38
531.833	48012.92
532.035	48023.16
532.236	47844.99
532.437	48279.16
532.638	47887.99
532.839	48416.37
533.04	48060.02
533.241	47986.3
533.442	48457.33
533.643	48070.26
533.844	48049.78
534.045	48359.03
534.246	47857.28
534.447	48780.91
534.648	47949.43
534.849	48184.95
535.05	48211.57
535.251	48250.49
535.451	47890.04
535.652	48094.84
535.853	48139.89
536.054	47881.85
536.255	48135.8
536.456	47816.32
536.657	48340.6
536.857	48279.16
537.058	48012.92
537.259	48434.8
537.46	48143.99
537.66	47777.4
537.861	47822.46
538.062	48008.82
538.263	48086.65
538.463	48066.17
538.664	47603.33
538.865	48281.2
539.065	48248.44
539.266	47810.17
539.466	48017.02
539.667	47576.7
539.868	48471.67
540.068	48197.24
540.269	47836.8
540.469	48080.5
540.67	47513.22
540.87	47687.29
541.071	47761.02
541.271	48258.68
541.472	47885.95
541.672	47554.18
541.873	47392.39
542.073	47199.88
542.274	47955.58
542.474	47840.89
542.675	47824.51
542.875	47971.96
543.075	47939.19
543.276	47160.97
543.476	47844.99
543.676	47593.09
543.877	47451.78
544.077	47574.66
544.277	47513.22
544.478	47451.78
544.678	47990.39
544.878	47681.15
545.078	47177.35
545.279	46904.97
545.479	47502.98
545.679	47181.45
545.879	47324.8
546.079	47404.67
546.28	47758.97
546.48	47267.46
546.68	47720.06
546.88	47431.3
547.08	47505.02
547.28	47259.27
547.48	47017.61
547.68	47142.53
547.88	46843.53
548.081	47550.08
548.281	47175.3
548.481	47074.95
548.681	47265.41
548.881	47355.52
549.081	47058.57
549.28	47060.62
549.48	47111.81
549.68	47081.09
549.88	48053.88
550.08	46866.06
550.28	47214.21
550.48	46657.17
550.68	47224.45
550.88	46358.16
551.08	46829.19
551.279	47105.67
551.479	46530.19
551.679	46839.43
551.879	47042.18
552.079	47322.76
552.278	46706.32
552.478	46612.11
552.678	46522
552.878	46853.77
553.077	46714.51
553.277	46892.68
553.477	46907.02
553.676	46446.22
553.876	46302.87
554.076	46046.87
554.275	46511.76
554.475	46128.79
554.674	46618.25
554.874	46825.1
555.074	46370.45
555.273	46646.93
555.473	46734.99
555.672	46554.77
555.872	46333.59
556.071	46597.77
556.271	46696.08
556.47	46448.27
556.67	46091.93
556.869	45973.14
557.068	46349.97
557.268	45981.34
557.467	46284.44
557.667	46061.21
557.866	45661.85
558.065	46012.06
558.265	45731.48
558.464	45614.75
558.663	46257.81
558.863	45502.11
559.062	46057.11
559.261	45244.07
559.461	46155.41
559.66	45487.78
559.859	45893.27
560.058	45469.34
560.258	45440.67
560.457	45117.09
560.656	45649.56
560.855	45432.48
561.054	45741.72
561.253	45387.42
561.453	45141.67
561.652	45368.99
561.851	45368.99
562.05	44957.35
562.249	44609.2
562.448	45043.37
562.647	45264.55
562.846	45047.46
563.045	44566.19
563.244	44555.95
563.443	45233.83
563.642	44345.01
563.841	44517.04
564.04	44345.01
564.239	44826.28
564.438	44080.82
564.637	44420.78
564.836	44478.13
565.035	44060.34
565.234	44402.35
565.432	44029.62
565.631	43753.15
565.83	44134.07
566.029	44070.58
566.228	43863.74
566.427	43755.19
566.625	43730.62
566.824	43413.18
567.023	43951.8
567.222	43034.31
567.42	43959.99
567.619	43419.33
567.818	43159.23
568.016	43261.63
568.215	43769.53
568.414	43327.17
568.612	43056.84
568.811	42841.8
569.01	43327.17
569.208	42612.43
569.407	42780.36
569.605	42204.88
569.804	43015.88
570.002	42495.69
570.201	42940.1
570.4	42434.25
570.598	42356.43
570.797	42315.47
570.995	42024.66
571.193	41772.76
571.392	42520.27
571.59	41809.62
571.789	41852.63
571.987	41541.34
572.186	41604.83
572.384	41725.66
572.582	41916.12
572.781	41756.38
572.979	41346.78
573.177	41424.61
573.376	41230.05
573.574	41303.78
573.772	41424.61
573.971	40779.5
574.169	41096.93
574.367	40916.71
574.565	41021.16
574.763	40767.21
574.962	40664.81
575.16	40308.46
575.358	40705.77
575.556	40240.88
575.754	40580.84
575.952	40216.3
576.151	40607.47
576.349	40048.37
576.547	40009.46
576.745	39941.88
576.943	39878.39
577.141	40226.54
577.339	39970.55
577.537	39415.55
577.735	39694.07
577.933	39190.27
578.131	39264
578.329	39309.05
578.527	38969.09
578.725	39057.15
578.923	39522.04
579.121	38770.44
579.319	38672.14
579.516	39143.17
579.714	38919.94
579.912	38582.02
580.11	38326.03
580.308	38461.19
580.506	38227.73
580.704	37936.91
580.901	38371.08
581.099	38383.37
581.297	38197.01
581.495	37916.43
581.692	38166.29
581.89	37695.25
582.088	37842.71
582.285	37529.37
582.483	37463.83
582.681	37418.78
582.878	37469.98
583.076	36822.82
583.274	37222.17
583.471	36943.65
583.669	37314.33
583.866	36994.85
584.064	36937.51
584.262	36589.35
584.459	36810.53
584.657	36466.47
584.854	37111.58
585.052	36034.35
585.249	36669.22
585.447	36443.95
585.644	35895.09
585.841	36183.85
586.039	36239.15
586.236	35583.8
586.434	35680.05
586.631	35475.26
586.828	35155.77
587.026	35721.01
587.223	35340.09
587.42	34916.16
587.618	35368.76
587.815	35075.9
588.012	35106.62
588.21	34946.88
588.407	35254.08
588.604	35043.13
588.801	34891.58
588.999	34443.08
589.196	34232.14
589.393	34494.28
589.59	34269
589.787	34211.66
589.984	34309.96
590.182	34078.54
590.379	34176.84
590.576	33564.5
590.773	33757.01
590.97	33718.1
591.167	33869.65
591.364	33161.05
591.561	33371.99
591.758	33371.99
591.955	33034.08
592.152	33490.77
592.349	32986.97
592.546	32894.82
592.743	32814.94
592.94	32450.41
593.137	32927.58
593.334	32921.44
593.531	32051.05
593.727	32755.55
593.924	32307.05
594.121	32333.67
594.318	32436.07
594.515	31752.05
594.712	32163.69
594.908	31557.49
595.105	31860.59
595.302	31553.4
595.499	31799.15
595.696	31549.3
595.892	31446.9
596.089	31512.44
596.286	31485.81
596.482	31172.47
596.679	30885.76
596.876	31364.98
597.072	30910.33
597.269	30984.06
597.466	30633.86
597.662	30623.62
597.859	30351.24
598.055	30664.58
598.252	30193.54
598.448	30248.84
598.645	30351.24
598.841	29814.67
599.038	29945.74
599.234	30173.06
599.431	29487
599.627	29802.38
599.824	30199.69
600.02	29425.56
600.217	29720.46
600.413	29431.7
600.609	29366.17
600.806	29292.44
601.002	29474.71
601.198	29167.51
601.395	29028.25
601.591	28737.44
601.787	28821.41
601.984	28551.07
602.18	29083.55
602.376	28596.13
602.572	28172.2
602.769	28348.32
602.965	28221.35
603.161	28223.4
603.357	28024.75
603.553	28223.4
603.75	27948.97
603.946	27742.13
604.142	28194.73
604.338	27723.69
604.534	27662.26
604.73	27324.34
604.926	27273.14
605.122	27760.56
605.318	26959.8
605.514	27213.75
605.71	27305.91
605.906	26994.62
606.102	26978.23
606.298	27404.21
606.494	26755.01
606.69	26691.52
606.886	26771.39
607.082	26603.46
607.278	26863.55
607.474	26521.54
607.67	26634.17
607.866	26193.86
608.062	26464.19
608.257	26144.71
608.453	26296.26
608.649	26175.43
608.845	26075.08
609.041	26034.12
609.236	26326.98
609.432	25976.78
609.628	26296.26
609.824	25966.54
610.019	25608.14
610.215	26070.98
610.411	25909.19
610.606	25612.24
610.802	25694.16
610.998	25462.74
611.193	25567.18
611.389	25153.49
611.584	25477.07
611.78	25272.28
611.976	25284.56
612.171	25327.57
612.367	25270.23
612.562	25288.66
612.758	24711.13
612.953	24911.83
613.149	25602
613.344	24586.21
613.539	25196.5
613.735	24844.25
613.93	25036.76
614.126	25036.76
614.321	24981.46
614.517	24598.49
614.712	24506.34
614.907	24528.86
615.103	24905.69
615.298	24590.3
615.493	24481.76
615.688	24291.3
615.884	24758.24
616.079	24508.38
616.274	24549.34
616.47	24219.62
616.665	24258.53
616.86	23850.99
617.055	23928.81
617.25	24215.52
617.445	24256.48
617.641	23615.47
617.836	24190.95
618.031	23734.25
618.226	24029.16
618.421	23474.16
618.616	23906.28
618.811	23431.15
619.006	23416.82
619.201	23113.72
619.396	23367.66
619.591	22792.19
619.786	23244.79
619.981	22935.54
620.176	23093.24
620.371	22820.86
620.566	22827
620.761	22491.13
620.956	22851.58
621.151	22233.09
621.346	22538.24
621.541	22243.33
621.735	22308.86
621.93	21946.37
622.125	22081.54
622.32	21747.72
622.515	21843.98
622.709	21360.66
622.904	21450.77
623.099	21370.9
623.294	21639.18
623.488	20998.16
623.683	21090.32
623.878	20752.41
624.072	20799.51
624.267	20881.43
624.462	20799.51
624.656	20377.63
624.851	20344.86
625.046	20262.94
625.24	19933.22
625.435	19904.55
625.629	19884.07
625.824	19908.65
626.018	19720.23
626.213	19370.03
626.407	19781.67
626.602	19322.93
626.796	19443.76
626.991	19429.42
627.185	19200.05
627.38	19134.51
627.574	18835.51
627.768	18747.45
627.963	18712.63
628.157	18421.82
628.352	18522.17
628.546	18161.73
628.74	18409.53
628.935	18217.02
629.129	17985.6
629.323	18010.18
629.517	18122.82
629.712	17952.84
629.906	17768.52
630.1	17569.87
630.294	17537.1
630.489	17449.04
630.683	17410.12
630.877	17213.52
631.071	17000.53
631.265	17234
631.459	16955.47
631.653	16715.86
631.848	16765.01
632.042	16812.12
632.236	16480.35
632.43	16347.23
632.624	16244.83
632.818	16412.76
633.012	16189.53
633.206	16425.05
633.4	16080.99
633.594	16037.98
633.788	15884.39
633.982	15929.44
634.176	16009.31
634.369	15663.21
634.563	15566.95
634.757	15429.74
634.951	15392.87
635.145	15566.95
635.339	15523.94
635.533	15517.8
635.726	15368.3
635.92	15026.29
636.114	15233.13
636.308	15026.29
636.501	14909.55
636.695	14852.21
636.889	14614.65
637.083	14884.98
637.276	14641.27
637.47	14563.45
637.664	14592.12
637.857	14268.54
638.051	14360.7
638.244	14184.57
638.438	14123.13
638.632	13918.34
638.825	13850.75
639.019	13994.11
639.212	13838.47
639.406	13852.8
639.599	13529.22
639.793	13727.88
639.986	13262.99
640.18	13381.77
640.373	13592.71
640.567	13416.58
640.76	13228.17
640.954	13043.85
641.147	13363.34
641.34	12918.93
641.534	12837.01
641.727	12888.21
641.92	12984.46
642.114	12613.78
642.307	12521.62
642.5	12550.29
642.694	12284.06
642.887	12327.07
643.08	12462.23
643.273	12413.08
643.467	12329.11
643.66	12028.06
643.853	12163.23
644.046	11776.16
644.239	12189.85
644.432	12089.5
644.626	11882.66
644.819	11774.11
645.012	11817.12
645.205	11794.59
645.398	11710.63
645.591	11710.63
645.784	11614.37
645.977	11487.4
646.17	11600.04
646.363	11266.22
646.556	11149.48
646.749	11262.12
646.942	11129
647.135	11186.35
647.328	11139.24
647.521	10995.89
647.714	10649.78
647.907	10971.31
648.099	10780.85
648.292	10928.3
648.485	10754.23
648.678	10649.78
648.871	10397.88
649.064	10551.48
649.256	10516.66
649.449	10295.48
649.642	10330.3
649.835	10363.06
650.027	10447.03
650.22	10389.69
650.413	10139.83
650.605	10154.17
650.798	10029.24
650.991	10238.14
651.183	10025.15
651.376	9777.34
651.568	9939.13
651.761	9674.95
651.954	9789.63
652.146	9763.01
652.339	9670.85
652.531	9402.57
652.724	9543.88
652.916	9236.68
653.109	9421
653.301	9433.29
653.494	9359.56
653.686	9173.19
653.879	9310.41
654.071	9132.23
654.263	9134.28
654.456	9136.33
654.648	9054.41
654.84	8909.01
655.033	8868.05
655.225	8863.95
655.417	8827.09
655.61	9015.5
655.802	8741.07
655.994	8542.42
656.186	8771.79
656.379	8577.23
656.571	8661.2
656.763	8614.1
656.955	8546.51
657.148	8429.78
657.34	8411.35
657.532	8233.18
657.724	8372.44
657.916	8356.05
658.108	8233.18
658.3	8284.37
658.492	8108.25
658.684	8089.82
658.876	8151.26
659.068	7958.75
659.26	7917.79
659.452	8071.39
659.644	7999.71
659.836	7807.2
660.028	7897.31
660.22	7563.49
660.412	7799.01
660.604	7604.45
660.796	7600.35
660.988	7682.27
661.18	7504.1
661.372	7500
661.563	7598.31
661.755	7346.41
661.947	7579.87
662.139	7327.97
662.331	7389.41
662.522	6985.96
662.714	7266.53
662.906	7104.74
663.097	7244.01
663.289	7129.32
663.481	6912.24
663.673	7049.45
663.864	7110.89
664.056	7119.08
664.247	6988.01
664.439	7026.92
664.631	6895.85
664.822	6906.09
665.014	6787.31
665.205	6822.13
665.397	6772.97
665.588	6775.02
665.78	6643.95
665.971	6734.06
666.163	6662.38
666.354	6543.6
666.546	6586.61
666.737	6658.29
666.929	6394.1
667.12	6635.76
667.311	6498.55
667.503	6480.11
667.694	6211.83
667.885	6430.96
668.077	6344.95
668.268	6269.17
668.459	6310.13
668.651	6347
668.842	6187.25
669.033	6060.28
669.224	6070.52
669.416	6189.3
669.607	6187.25
669.798	5921.02
669.989	6033.66
670.18	6047.99
670.371	5947.64
670.563	5988.6
670.754	5884.16
670.945	5804.28
671.136	5835
671.327	5970.17
671.518	5744.89
671.709	5781.76
671.9	5699.84
672.091	5925.11
672.282	5619.97
672.473	5773.57
672.664	5728.51
672.855	5695.74
673.046	5585.15
673.237	5665.02
673.428	5484.8
673.619	5624.06
673.809	5503.23
674	5585.15
674.191	5370.12
674.382	5439.75
674.573	5427.46
674.764	5333.25
674.954	5409.03
675.145	5343.49
675.336	5329.16
675.527	5310.72
675.717	5382.4
675.908	5366.02
676.099	5249.29
676.289	5290.24
676.48	5165.32
676.671	5288.2
676.861	5331.2
677.052	5296.39
677.243	5130.5
677.433	5191.94
677.624	5187.85
677.814	5093.64
678.005	5198.09
678.195	5093.64
678.386	4933.9
678.576	4976.91
678.767	4897.03
678.957	5142.79
679.148	4952.33
679.338	4931.85
679.529	4958.47
679.719	5038.34
679.909	4985.1
680.1	5026.06
680.29	4880.65
680.481	4849.93
680.671	4858.12
680.861	4956.43
681.052	4892.94
681.242	4897.03
681.432	4815.12
681.622	4811.02
681.813	4856.08
682.003	4690.19
682.193	4659.47
682.383	4964.62
682.573	4737.29
682.764	4665.61
682.954	4663.57
683.144	4786.44
683.334	4792.59
683.524	4716.81
683.714	4581.65
683.904	4688.14
684.094	4481.3
684.284	4550.93
684.474	4763.92
684.664	4469.01
684.854	4540.69
685.044	4415.76
685.234	4466.96
685.424	4428.05
685.614	4505.87
685.804	4309.27
685.994	4413.71
686.184	4405.52
686.374	4385.04
686.564	4333.84
686.753	4440.34
686.943	4313.36
687.133	4276.5
687.323	4290.84
687.513	4282.64
687.702	4145.43
687.892	4069.66
688.082	4200.73
688.272	4280.6
688.461	4272.4
688.651	4157.72
688.841	4223.25
689.03	3997.98
689.22	4016.41
689.41	4067.61
689.599	4036.89
689.789	3967.26
689.979	3930.39
690.168	4032.79
690.358	3930.39
690.547	4004.12
690.737	3846.43
690.926	3854.62
691.116	3852.57
691.305	3883.29
691.495	3850.52
691.684	3899.67
691.874	3860.76
692.063	3844.38
692.252	3631.39
692.442	3795.23
692.631	3928.35
692.82	3754.27
693.01	3744.03
693.199	3655.97
693.388	3729.69
693.578	3733.79
693.767	3592.48
693.956	3653.92
694.146	3641.63
694.335	3539.23
694.524	3580.19
694.713	3395.87
694.902	3561.76
695.092	3635.49
695.281	3485.98
695.47	3637.53
695.659	3504.42
695.848	3494.18
696.037	3430.69
696.226	3531.04
696.415	3477.79
696.604	3483.94
696.793	3574.05
696.982	3434.78
697.171	3506.46
697.36	3387.68
697.549	3520.8
697.738	3344.67
697.927	3309.86
698.116	3539.23
698.305	3318.05
698.494	3436.83
698.683	3428.64
698.872	3418.4
699.061	3273
699.25	3465.5
699.438	3334.43
699.627	3250.47
699.816	3442.98
700.005	3344.67
700.193	3262.76
700.382	3410.21
700.571	3287.33
700.76	3336.48
700.948	3340.58
701.137	3326.24
701.326	3395.87
701.514	3258.66
701.703	3436.83
701.892	3326.24
702.08	3389.73
702.269	3289.38
702.457	3090.73
702.646	3420.45
702.834	3287.33
703.023	3287.33
703.212	3256.61
703.4	3281.19
703.589	3244.32
703.777	3307.81
703.965	3307.81
704.154	3336.48
704.342	3209.51
704.531	3209.51
704.719	3137.83
704.907	3213.6
705.096	3146.02
705.284	3189.03
705.472	3197.22
705.661	3322.15
705.849	3240.23
706.037	3146.02
706.226	3246.37
706.414	3203.36
706.602	3262.76
706.79	3195.17
706.979	3201.32
707.167	3244.32
707.355	3115.3
707.543	3217.7
707.731	3307.81
707.919	3246.37
708.107	3162.41
708.296	3223.84
708.484	3094.82
708.672	3152.17
708.86	3072.29
709.048	3053.86
709.236	3090.73
709.424	3164.45
709.612	3152.17
709.8	3266.85
709.988	3207.46
710.176	3025.19
710.364	3156.26
710.551	3158.31
710.739	3176.74
710.927	3080.49
711.115	3043.62
711.303	3027.24
711.491	3086.63
711.679	3201.32
711.866	3156.26
712.054	3033.38
712.242	3100.97
712.43	3156.26
712.617	3172.64
712.805	3131.69
712.993	3029.29
713.181	3070.25
713.368	3062.05
713.556	3008.81
713.744	3057.96
713.931	3055.91
714.119	2877.74
714.306	3211.56
714.494	3074.34
714.682	3033.38
714.869	2902.31
715.057	2945.32
715.244	2826.54
715.432	3000.62
715.619	3082.53
715.807	2941.22
715.994	2971.94
716.182	2967.85
716.369	3021.1
716.556	2918.7
716.744	2961.7
716.931	2980.14
717.119	2941.22
717.306	2988.33
717.493	2883.88
717.681	2914.6
717.868	2918.7
718.055	2941.22
718.242	2855.21
718.43	2973.99
718.617	2930.98
718.804	2887.98
718.991	3047.72
719.179	2980.14
719.366	2822.44
719.553	2941.22
719.74	2783.53
719.927	2892.07
720.114	2820.39
720.301	2965.8
720.488	2840.87
720.676	2892.07
720.863	2769.2
721.05	2861.35
721.237	2881.83
721.424	2767.15
721.611	2865.45
721.798	2877.74
721.985	2726.19
722.172	2695.47
722.358	2775.34
722.545	2808.11
722.732	2887.98
722.919	2832.68
723.106	2806.06
723.293	2650.41
723.48	2738.48
723.667	2730.28
723.853	2775.34
724.04	2758.96
724.227	2769.2
724.414	2793.77
724.6	2715.95
724.787	2820.39
724.974	2783.53
725.161	2689.32
725.347	2820.39
725.534	2593.07
725.72	2611.5
725.907	2679.08
726.094	2718
726.28	2591.02
726.467	2636.08
726.653	2695.47
726.84	2703.66
727.027	2726.19
727.213	2617.65
727.4	2679.08
727.586	2636.08
727.773	2644.27
727.959	2531.63
728.145	2586.93
728.332	2619.69
728.518	2570.54
728.705	2740.52
728.891	2683.18
729.077	2588.97
729.264	2664.75
729.45	2523.44
729.636	2644.27
729.823	2523.44
730.009	2660.65
730.195	2511.15
730.382	2613.55
730.568	2599.21
730.754	2502.96
730.94	2466.1
731.126	2515.25
731.313	2562.35
731.499	2535.73
731.685	2521.39
731.871	2572.59
732.057	2550.06
732.243	2605.36
732.429	2578.73
732.615	2500.91
732.801	2556.21
732.987	2560.3
733.173	2369.84
733.359	2523.44
733.545	2464.05
733.731	2537.77
733.917	2408.75
734.103	2337.07
734.289	2464.05
734.475	2500.91
734.661	2552.11
734.847	2414.9
735.033	2623.79
735.219	2429.23
735.404	2494.77
735.59	2349.36
735.776	2400.56
735.962	2363.7
736.148	2441.52
736.333	2361.65
736.519	2275.63
736.705	2416.94
736.89	2289.97
737.076	2425.14
737.262	2353.46
737.447	2498.86
737.633	2320.69
737.819	2537.77
738.004	2337.07
738.19	2425.14
738.375	2281.78
738.561	2322.74
738.747	2173.24
738.932	2298.16
739.118	2335.03
739.303	2261.3
739.489	2230.58
739.674	2316.59
739.859	2238.77
740.045	2277.68
740.23	2269.49
740.416	2181.43
740.601	2359.6
740.786	2128.18
740.972	2222.39
741.157	2119.99
741.342	2158.9
741.528	2271.54
741.713	2226.48
741.898	2191.67
742.084	2101.56
742.269	2226.48
742.454	2277.68
742.639	2132.28
742.824	2119.99
743.01	2083.13
743.195	2160.95
743.38	2122.04
743.565	2072.89
743.75	2111.8
743.935	2046.26
744.12	2154.8
744.305	1964.34
744.49	2015.54
744.675	2033.97
744.86	2031.93
745.045	1966.39
745.23	1974.58
745.415	1941.82
745.6	1947.96
745.785	2005.3
745.97	1990.97
746.155	2025.78
746.34	1745.21
746.525	1925.43
746.71	1978.68
746.895	1857.85
747.079	1861.94
747.264	1868.09
747.449	1855.8
747.634	1909.05
747.819	1884.47
748.003	1827.13
748.188	1866.04
748.373	1790.27
748.557	1734.97
748.742	1831.23
748.927	1765.69
749.111	1749.31
749.296	1771.83
749.481	1786.17
749.665	1749.31
749.85	1669.44
750.034	1761.59
750.219	1677.63
750.404	1610.04
750.588	1677.63
750.773	1593.66
750.957	1714.49
751.141	1634.62
751.326	1571.13
751.51	1675.58
751.695	1601.85
751.879	1544.51
752.064	1546.56
752.248	1534.27
752.432	1493.31
752.617	1487.17
752.801	1585.47
752.985	1587.52
753.17	1474.88
753.354	1564.99
753.538	1552.7
753.722	1542.46
753.907	1481.02
754.091	1429.82
754.275	1397.06
754.459	1481.02
754.643	1372.48
754.828	1278.27
755.012	1456.45
755.196	1425.73
755.38	1444.16
755.564	1425.73
755.748	1407.3
755.932	1399.1
756.116	1284.42
756.3	1261.89
756.484	1460.54
756.668	1319.23
756.852	1335.62
757.036	1349.95
757.22	1317.19
757.404	1212.74
757.588	1251.65
757.772	1308.99
757.956	1231.17
758.14	1311.04
758.323	1313.09
758.507	1259.84
758.691	1282.37
758.875	1270.08
759.059	1265.99
759.242	1184.07
759.426	1122.63
759.61	1153.35
759.794	1239.36
759.977	1151.3
760.161	1225.03
760.345	1231.17
760.528	1130.82
760.712	1175.88
760.895	1073.48
761.079	1171.78
761.263	1116.48
761.446	1102.15
761.63	1079.62
761.813	1132.87
761.997	1032.52
762.18	1034.57
762.364	1059.14
762.547	1087.81
762.731	1046.85
762.914	1112.39
763.098	1024.33
763.281	954.69
763.464	1081.67
763.648	1022.28
763.831	1053
764.015	991.56
764.198	1036.61
764.381	1075.52
764.564	1030.47
764.748	1009.99
764.931	977.22
765.114	1032.52
765.297	962.89
765.481	1012.04
765.664	928.07
765.847	971.08
766.03	960.84
766.213	969.03
766.397	1003.85
766.58	960.84
766.763	1005.89
766.946	944.45
767.129	946.5
767.312	923.98
767.495	944.45
767.678	907.59
767.861	981.32
768.044	899.4
768.227	880.97
768.41	969.03
768.593	842.06
768.776	901.45
768.959	907.59
769.142	940.36
769.324	846.15
769.507	837.96
769.69	874.82
769.873	790.86
770.056	962.89
770.239	926.02
770.421	885.06
770.604	858.44
770.787	825.67
770.97	913.74
771.152	778.57
771.335	854.34
771.518	772.43
771.7	887.11
771.883	897.35
772.066	868.68
772.248	717.13
772.431	889.16
772.613	862.54
772.796	807.24
772.978	829.77
773.161	794.95
773.343	760.14
773.526	821.58
773.708	745.8
773.891	758.09
774.073	762.19
774.256	770.38
774.438	846.15
774.621	758.09
774.803	887.11
774.985	772.43
775.168	749.9
775.35	764.23
775.532	788.81
775.715	719.18
775.897	725.32
776.079	702.79
776.261	737.61
776.444	676.17
776.626	635.21
776.808	655.69
776.99	661.84
777.173	674.12
777.355	698.7
777.537	680.27
777.719	684.36
777.901	672.08
778.083	639.31
778.265	604.49
778.447	682.31
778.629	608.59
778.811	690.51
778.993	635.21
779.175	672.08
779.357	616.78
779.539	598.35
779.721	618.83
779.903	561.48
780.085	622.92
780.267	557.39
780.449	528.72
780.631	612.68
780.812	649.55
780.994	588.11
781.176	532.81
781.358	561.48
781.54	559.44
781.721	563.53
781.903	555.34
782.085	571.72
782.267	518.48
782.448	481.61
782.63	502.09
782.812	424.27
782.993	524.62
783.175	520.53
783.357	502.09
783.538	536.91
783.72	506.19
783.901	500.05
784.083	516.43
784.264	481.61
784.446	424.27
784.627	459.09
784.809	500.05
784.99	442.7
785.172	461.13
785.353	448.85
785.535	479.57
785.716	414.03
785.897	354.64
786.079	491.85
786.26	465.23
786.441	450.89
786.623	430.41
786.804	457.04
786.985	461.13
787.167	371.02
787.348	487.76
787.529	428.37
787.71	461.13
787.891	381.26
788.073	397.65
788.254	391.5
788.435	405.84
788.616	391.5
788.797	381.26
788.978	399.7
789.159	303.44
789.34	411.98
789.522	338.26
789.703	371.02
789.884	420.17
790.065	358.74
790.246	379.22
790.427	364.88
790.607	342.35
790.788	354.64
790.969	381.26
791.15	463.18
791.331	354.64
791.512	344.4
791.693	276.82
791.874	371.02
792.054	414.03
792.235	424.27
792.416	305.49
792.597	416.08
792.778	401.74
792.958	321.87
793.139	338.26
793.32	342.35
793.5	352.59
793.681	368.98
793.862	385.36
794.042	379.22
794.223	272.72
794.404	289.1
794.584	342.35
794.765	252.24
794.945	342.35
795.126	319.82
795.306	336.21
795.487	276.82
795.667	303.44
795.848	387.41
796.028	266.58
796.209	317.78
796.389	231.76
796.57	321.87
796.75	168.27
796.93	274.77
797.111	309.58
797.291	336.21
797.471	278.87
797.652	309.58
797.832	227.67
798.012	319.82
798.192	239.95
798.373	246.1
798.553	239.95
798.733	213.33
798.913	264.53
799.093	221.52
799.274	285.01
799.454	239.95
799.634	364.88
799.814	254.29
799.994	231.76
800.174	235.86
800.354	239.95
800.534	278.87
800.714	272.72
800.894	262.48
801.074	143.7
801.254	194.9
801.434	285.01
801.614	325.97
801.794	227.67
801.974	637.26
802.154	190.8
802.334	217.43
802.514	268.63
802.693	274.77
802.873	198.99
803.053	260.43
803.233	233.81
803.413	285.01
803.592	172.37
803.772	278.87
803.952	84.31
804.131	194.9
804.311	192.85
804.491	213.33
804.67	201.04
804.85	207.19
805.03	184.66
805.209	239.95
805.389	168.27
805.568	151.89
805.748	188.75
805.928	272.72
806.107	149.84
806.287	225.62
806.466	121.17
806.646	172.37
806.825	168.27
807.004	160.08
807.184	172.37
807.363	155.99
807.543	182.61
807.722	184.66
807.901	205.14
808.081	213.33
808.26	84.31
808.439	211.28
808.619	174.42
808.798	209.23
808.977	229.71
809.156	258.39
809.336	194.9
809.515	262.48
809.694	127.32
809.873	192.85
810.052	254.29
810.231	168.27
810.411	246.1
810.59	84.31
810.769	137.56
810.948	223.57
811.127	106.84
811.306	201.04
811.485	174.42
811.664	209.23
811.843	192.85
812.022	155.99
812.201	178.51
812.38	131.41
812.559	100.69
812.737	178.51
812.916	123.22
813.095	182.61
813.274	172.37
813.453	92.5
813.632	172.37
813.811	164.18
813.989	110.93
814.168	170.32
814.347	170.32
814.526	170.32
814.704	205.14
814.883	129.36
815.062	96.6
815.24	129.36
815.419	160.08
815.598	170.32
815.776	102.74
815.955	239.95
816.133	106.84
816.312	67.92
816.49	139.6
816.669	115.03
816.847	141.65
817.026	125.27
817.204	133.46
817.383	178.51
817.561	149.84
817.74	229.71
817.918	141.65
818.097	51.54
818.275	147.8
818.453	143.7
818.632	139.6
818.81	110.93
818.988	147.8
819.167	98.64
819.345	155.99
819.523	26.96
819.701	135.51
819.879	160.08
820.058	102.74
820.236	104.79
820.414	145.75
820.592	82.26
820.77	119.12
820.948	135.51
821.127	45.4
821.305	112.98
821.483	78.16
821.661	133.46
821.839	153.94
822.017	115.03
822.195	100.69
822.373	184.66
822.551	82.26
822.729	90.45
822.907	104.79
823.085	84.31
823.262	149.84
823.44	90.45
823.618	100.69
823.796	125.27
823.974	65.88
824.152	69.97
824.329	117.08
824.507	143.7
824.685	104.79
824.863	86.36
825.04	127.32
825.218	69.97
825.396	125.27
825.574	98.64
825.751	117.08
825.929	110.93
826.107	112.98
826.284	35.16
826.462	82.26
826.639	80.21
826.817	76.12
826.994	110.93
827.172	67.92
827.349	123.22
827.527	135.51
827.704	4.44
827.882	41.3
828.059	110.93
828.237	57.68
828.414	37.2
828.591	47.44
828.769	20.82
828.946	121.17
829.124	88.4
829.301	86.36
829.478	106.84
829.655	45.4
829.833	143.7
830.01	53.59
830.187	65.88
830.364	63.83
830.542	139.6
830.719	55.64
830.896	26.96
831.073	86.36
831.25	74.07
831.427	100.69
831.604	88.4
831.782	59.73
831.959	16.73
832.136	65.88
832.313	12.63
832.49	129.36
832.667	65.88
832.844	67.92
833.021	69.97
833.198	96.6
833.374	115.03
833.551	74.07
833.728	129.36
833.905	174.42
834.082	37.2
834.259	86.36
834.436	65.88
834.612	84.31
834.789	90.45
834.966	49.49
835.143	63.83
835.319	55.64
835.496	45.4
835.673	127.32
835.85	135.51
836.026	43.35
836.203	86.36
836.38	-3.75
836.556	51.54
836.733	72.02
836.909	127.32
837.086	4.44
837.262	61.78
837.439	98.64
837.616	135.51
837.792	24.92
837.968	65.88
838.145	82.26
838.321	63.83
838.498	51.54
838.674	78.16
838.851	106.84
839.027	45.4
839.203	53.59
839.38	106.84
839.556	26.96
839.732	86.36
839.909	20.82
840.085	106.84
840.261	47.44
840.437	67.92
840.614	98.64
840.79	80.21
840.966	20.82
841.142	37.2
841.318	43.35
841.494	129.36
841.671	65.88
841.847	45.4
842.023	10.58
842.199	57.68
842.375	35.16
842.551	12.63
842.727	67.92
842.903	129.36
843.079	20.82
843.255	61.78
843.431	88.4
843.607	-5.8
843.783	0.34
843.959	92.5
844.134	110.93
844.31	112.98
844.486	88.4
844.662	88.4
844.838	43.35
845.013	39.25
845.189	37.2
845.365	16.73
845.541	76.12
845.716	82.26
845.892	92.5
846.068	82.26
846.244	55.64
846.419	31.06
846.595	74.07
846.77	6.49
846.946	35.16
847.122	49.49
847.297	6.49
847.473	86.36
847.648	108.88
847.824	14.68
847.999	-24.23
848.175	88.4
848.35	37.2
848.526	33.11
848.701	47.44
848.876	18.77
849.052	96.6
849.227	59.73
849.403	72.02
849.578	4.44
849.753	80.21
849.929	102.74
850.104	90.45
850.279	43.35
850.454	29.01
850.63	-1.71
850.805	67.92
850.98	51.54
851.155	59.73
851.33	20.82
851.505	39.25
851.681	67.92
851.856	-38.57
852.031	88.4
852.206	82.26
852.381	-34.47
852.556	59.73
852.731	90.45
852.906	18.77
853.081	84.31
853.256	-7.85
853.431	-32.43
853.606	43.35
853.781	-61.1
853.956	24.92
854.131	2.39
854.305	-20.14
854.48	-38.57
854.655	31.06
854.83	-5.8
855.005	22.87
855.18	47.44
855.354	100.69
855.529	18.77
855.704	12.63
855.879	121.17
856.053	45.4
856.228	49.49
856.403	-22.19
856.577	10.58
856.752	90.45
856.926	39.25
857.101	82.26
857.276	20.82
857.45	45.4
857.625	143.7
857.799	33.11
857.974	102.74
858.148	8.53
858.323	31.06
858.497	39.25
858.672	33.11
858.846	-32.43
859.02	112.98
859.195	-7.85
859.369	29.01
859.543	-28.33
859.718	39.25
859.892	88.4
860.066	-11.95
860.241	12.63
860.415	86.36
860.589	12.63
860.763	-11.95
860.938	35.16
861.112	88.4
861.286	35.16
861.46	8.53
861.634	-9.9
861.808	16.73
861.982	69.97
862.157	35.16
862.331	-13.99
862.505	14.68
862.679	-50.86
862.853	8.53
863.027	2.39
863.201	59.73
863.375	-11.95
863.549	4.44
863.722	88.4
863.896	53.59
864.07	26.96
864.244	29.01
864.418	6.49
864.592	57.68
864.766	-57
864.939	35.16
865.113	-9.9
865.287	63.83
865.461	26.96
865.634	12.63
865.808	-5.8
865.982	24.92
866.156	-34.47
866.329	-1.71
866.503	69.97
866.676	33.11
866.85	-1.71
867.024	12.63
867.197	63.83
867.371	16.73
867.544	49.49
867.718	-7.85
867.891	74.07
868.065	-26.28
868.238	39.25
868.412	33.11
868.585	80.21
868.759	-13.99
868.932	-1.71
869.105	-22.19
869.279	39.25
869.452	-22.19
869.625	18.77
869.799	47.44
869.972	-5.8
870.145	-22.19
870.319	-63.15
870.492	-13.99
870.665	61.78
870.838	-20.14
871.011	-54.95
871.185	4.44
871.358	-18.09
871.531	-16.04
871.704	29.01
871.877	-1.71
872.05	90.45
872.223	8.53
872.396	-7.85
872.569	84.31
872.742	-18.09
872.915	4.44
873.088	-7.85
873.261	-40.62
873.434	-11.95
873.607	39.25
873.78	51.54
873.953	14.68
874.126	14.68
874.299	53.59
874.471	2.39
874.644	-20.14
874.817	24.92
874.99	16.73
875.163	10.58
875.335	20.82
875.508	6.49
875.681	20.82
875.853	14.68
876.026	20.82
876.199	-9.9
876.371	16.73
876.544	8.53
876.717	-7.85
876.889	-5.8
877.062	37.2
877.234	-44.71
877.407	86.36
877.579	24.92
877.752	29.01
877.924	-26.28
878.097	29.01
878.269	31.06
878.442	-30.38
878.614	-13.99
878.786	16.73
878.959	80.21
879.131	61.78
879.303	-3.75
879.476	26.96
879.648	-18.09
879.82	45.4
879.993	47.44
880.165	26.96
880.337	-42.67
880.509	4.44
880.681	-46.76
880.854	6.49
881.026	0.34
881.198	35.16
881.37	-22.19
881.542	45.4
881.714	37.2
881.886	67.92
882.058	-11.95
882.23	10.58
882.402	-9.9
882.574	6.49
882.746	-18.09
882.918	22.87
883.09	18.77
883.262	12.63
883.434	-11.95
883.606	6.49
883.778	33.11
883.95	45.4
884.122	12.63
884.293	0.34
884.465	10.58
884.637	20.82
884.809	35.16
884.98	33.11
885.152	-54.95
885.324	-9.9
885.496	22.87
885.667	4.44
885.839	-26.28
886.011	92.5
886.182	-46.76
886.354	-18.09
886.525	2.39
886.697	31.06
886.869	-42.67
887.04	-5.8
887.212	26.96
887.383	88.4
887.555	18.77
887.726	-9.9
887.897	-42.67
888.069	-1.71
888.24	29.01
888.412	18.77
888.583	-5.8
888.754	-11.95
888.926	-20.14
889.097	20.82
889.268	-20.14
889.44	-13.99
889.611	16.73
889.782	2.39
889.953	47.44
890.125	10.58
890.296	-13.99
890.467	-3.75
890.638	61.78
890.809	31.06
890.98	-3.75
891.151	47.44
891.323	-9.9
891.494	37.2
891.665	12.63
891.836	43.35
892.007	6.49
892.178	51.54
892.349	10.58
892.52	2.39
892.691	-22.19
892.862	12.63
893.032	67.92
893.203	-77.48
893.374	14.68
893.545	18.77
893.716	-89.77
893.887	51.54
894.057	-3.75
894.228	129.36
894.399	-50.86
894.57	-9.9
894.74	-61.1
894.911	53.59
895.082	-30.38
895.253	-22.19
895.423	10.58
895.594	129.36
895.764	76.12
895.935	61.78
896.106	-7.85
896.276	18.77
896.447	-40.62
896.617	16.73
896.788	8.53
896.958	33.11
897.129	-32.43
897.299	90.45
897.47	-22.19
897.64	41.3
897.81	6.49
897.981	49.49
898.151	-28.33
898.322	-5.8
898.492	67.92
898.662	69.97
898.832	20.82
899.003	22.87
899.173	-24.23
899.343	55.64
899.513	10.58
