Data from USB4F104151__92__12-02-35-764.txt Node

Date: Fri Mar 14 12:02:35 EDT 2025
User: louis
Spectrometer: USB4F10415
Trigger mode: 4
Integration Time (sec): 2.000000E-2
Scans to average: 1
Electric dark correction enabled: true
Nonlinearity correction enabled: false
Boxcar width: 0
XAxis mode: Wavelengths
Number of Pixels in Spectrum: 3648
>>>>>Begin Spectral Data<<<<<
178.204	-133.46
178.424	-133.46
178.644	-133.46
178.864	-96.6
179.084	-84.31
179.304	38.57
179.524	46.76
179.744	3.75
179.964	9.9
180.184	-74.07
180.404	22.19
180.624	-63.83
180.844	-31.06
181.064	-20.82
181.283	9.9
181.503	-0.34
181.723	59.05
181.943	-2.39
182.163	65.19
182.383	-8.53
182.602	1.71
182.822	61.1
183.042	11.95
183.262	7.85
183.482	48.81
183.701	-12.63
183.921	59.05
184.141	-4.44
184.361	91.82
184.58	77.48
184.8	40.62
185.02	-6.49
185.239	48.81
185.459	-65.88
185.679	36.52
185.898	-43.35
186.118	63.15
186.338	-16.73
186.557	-31.06
186.777	9.9
186.997	52.91
187.216	77.48
187.436	32.43
187.655	81.58
187.875	32.43
188.095	16.04
188.314	24.23
188.534	65.19
188.753	5.8
188.973	7.85
189.192	-6.49
189.412	9.9
189.631	7.85
189.851	50.86
190.07	71.34
190.29	24.23
190.509	46.76
190.729	40.62
190.948	13.99
191.168	65.19
191.387	108.2
191.607	-84.31
191.826	-12.63
192.045	48.81
192.265	-8.53
192.484	16.04
192.704	50.86
192.923	-24.92
193.142	145.06
193.362	38.57
193.581	-8.53
193.8	-12.63
194.02	79.53
194.239	24.23
194.458	-74.07
194.678	24.23
194.897	-8.53
195.116	71.34
195.335	34.47
195.555	61.1
195.774	-16.73
195.993	36.52
196.212	-8.53
196.432	-29.01
196.651	57
196.87	34.47
197.089	97.96
197.308	81.58
197.528	-0.34
197.747	-33.11
197.966	77.48
198.185	9.9
198.404	71.34
198.623	42.67
198.842	-2.39
199.062	-24.92
199.281	54.95
199.5	79.53
199.719	-4.44
199.938	38.57
200.157	91.82
200.376	16.04
200.595	87.72
200.814	22.19
201.033	36.52
201.252	44.71
201.471	57
201.69	38.57
201.909	57
202.128	20.14
202.347	97.96
202.566	40.62
202.785	30.38
203.004	38.57
203.223	65.19
203.442	30.38
203.661	59.05
203.879	63.15
204.098	91.82
204.317	30.38
204.536	-10.58
204.755	73.39
204.974	44.71
205.193	97.96
205.411	81.58
205.63	36.52
205.849	48.81
206.068	34.47
206.287	38.57
206.505	18.09
206.724	38.57
206.943	-16.73
207.162	40.62
207.381	-0.34
207.599	42.67
207.818	36.52
208.037	-12.63
208.255	46.76
208.474	18.09
208.693	44.71
208.911	-45.4
209.13	26.28
209.349	-37.2
209.567	42.67
209.786	40.62
210.005	89.77
210.223	-16.73
210.442	42.67
210.661	28.33
210.879	-31.06
211.098	42.67
211.316	36.52
211.535	71.34
211.753	-8.53
211.972	30.38
212.191	-10.58
212.409	65.19
212.628	36.52
212.846	-12.63
213.065	-22.87
213.283	30.38
213.502	40.62
213.72	-12.63
213.938	-26.96
214.157	54.95
214.375	36.52
214.594	-4.44
214.812	-4.44
215.031	5.8
215.249	32.43
215.467	13.99
215.686	30.38
215.904	102.06
216.122	71.34
216.341	34.47
216.559	-20.82
216.778	48.81
216.996	-31.06
217.214	57
217.432	-12.63
217.651	46.76
217.869	13.99
218.087	73.39
218.306	-10.58
218.524	57
218.742	26.28
218.96	-2.39
219.179	-16.73
219.397	7.85
219.615	83.63
219.833	7.85
220.051	-20.82
220.27	42.67
220.488	28.33
220.706	-12.63
220.924	20.14
221.142	9.9
221.36	44.71
221.578	65.19
221.796	71.34
222.015	36.52
222.233	54.95
222.451	38.57
222.669	40.62
222.887	87.72
223.105	-24.92
223.323	79.53
223.541	-10.58
223.759	7.85
223.977	52.91
224.195	52.91
224.413	36.52
224.631	48.81
224.849	-2.39
225.067	79.53
225.285	44.71
225.503	151.21
225.721	-10.58
225.939	83.63
226.157	11.95
226.375	54.95
226.592	-10.58
226.81	24.23
227.028	128.68
227.246	44.71
227.464	48.81
227.682	81.58
227.9	102.06
228.117	50.86
228.335	3.75
228.553	-2.39
228.771	-14.68
228.989	48.81
229.206	48.81
229.424	-12.63
229.642	85.67
229.86	46.76
230.077	52.91
230.295	59.05
230.513	75.43
230.731	36.52
230.948	16.04
231.166	38.57
231.384	63.15
231.601	-10.58
231.819	-8.53
232.037	118.44
232.254	9.9
232.472	24.23
232.689	11.95
232.907	30.38
233.125	40.62
233.342	-37.2
233.56	-20.82
233.777	34.47
233.995	26.28
234.213	83.63
234.43	81.58
234.648	7.85
234.865	-0.34
235.083	26.28
235.3	73.39
235.518	36.52
235.735	44.71
235.953	93.87
236.17	59.05
236.388	32.43
236.605	140.97
236.822	13.99
237.04	63.15
237.257	50.86
237.475	18.09
237.692	34.47
237.909	28.33
238.127	7.85
238.344	24.23
238.562	18.09
238.779	36.52
238.996	71.34
239.214	-22.87
239.431	34.47
239.648	61.1
239.865	28.33
240.083	69.29
240.3	-10.58
240.517	20.14
240.735	30.38
240.952	77.48
241.169	116.39
241.386	71.34
241.603	30.38
241.821	16.04
242.038	95.91
242.255	22.19
242.472	26.28
242.689	34.47
242.907	38.57
243.124	59.05
243.341	-4.44
243.558	93.87
243.775	7.85
243.992	48.81
244.209	22.19
244.426	97.96
244.643	63.15
244.86	11.95
245.078	24.23
245.295	93.87
245.512	73.39
245.729	-20.82
245.946	36.52
246.163	97.96
246.38	106.15
246.597	87.72
246.814	24.23
247.031	26.28
247.248	-2.39
247.464	11.95
247.681	61.1
247.898	22.19
248.115	24.23
248.332	18.09
248.549	36.52
248.766	128.68
248.983	87.72
249.2	73.39
249.417	63.15
249.633	42.67
249.85	38.57
250.067	81.58
250.284	63.15
250.501	11.95
250.717	48.81
250.934	65.19
251.151	-76.12
251.368	81.58
251.585	9.9
251.801	75.43
252.018	112.3
252.235	83.63
252.451	79.53
252.668	3.75
252.885	97.96
253.102	32.43
253.318	7.85
253.535	73.39
253.752	38.57
253.968	24.23
254.185	7.85
254.401	63.15
254.618	69.29
254.835	20.14
255.051	44.71
255.268	52.91
255.484	63.15
255.701	1.71
255.917	79.53
256.134	32.43
256.351	46.76
256.567	54.95
256.784	134.82
257	-10.58
257.217	1.71
257.433	-10.58
257.65	57
257.866	34.47
258.082	24.23
258.299	1.71
258.515	16.04
258.732	44.71
258.948	-20.82
259.165	77.48
259.381	38.57
259.597	30.38
259.814	-37.2
260.03	52.91
260.246	38.57
260.463	-33.11
260.679	71.34
260.895	57
261.112	5.8
261.328	3.75
261.544	38.57
261.761	50.86
261.977	65.19
262.193	7.85
262.409	124.58
262.626	-26.96
262.842	61.1
263.058	67.24
263.274	36.52
263.49	54.95
263.707	83.63
263.923	3.75
264.139	42.67
264.355	44.71
264.571	75.43
264.787	1.71
265.004	-16.73
265.22	22.19
265.436	9.9
265.652	-61.78
265.868	16.04
266.084	59.05
266.3	26.28
266.516	11.95
266.732	26.28
266.948	85.67
267.164	44.71
267.38	22.19
267.596	40.62
267.812	126.63
268.028	61.1
268.244	24.23
268.46	40.62
268.676	40.62
268.892	5.8
269.108	-16.73
269.324	20.14
269.54	-18.77
269.756	93.87
269.972	40.62
270.188	-16.73
270.403	42.67
270.619	-8.53
270.835	-6.49
271.051	54.95
271.267	-37.2
271.483	81.58
271.698	38.57
271.914	7.85
272.13	3.75
272.346	42.67
272.562	7.85
272.777	38.57
272.993	5.8
273.209	57
273.425	67.24
273.64	22.19
273.856	52.91
274.072	34.47
274.287	34.47
274.503	-0.34
274.719	59.05
274.934	-35.16
275.15	-6.49
275.366	34.47
275.581	22.19
275.797	69.29
276.012	65.19
276.228	5.8
276.444	63.15
276.659	100.01
276.875	-0.34
277.09	81.58
277.306	20.14
277.521	40.62
277.737	67.24
277.952	30.38
278.168	122.54
278.383	42.67
278.599	-4.44
278.814	91.82
279.03	-41.3
279.245	36.52
279.461	50.86
279.676	116.39
279.892	38.57
280.107	18.09
280.322	-0.34
280.538	11.95
280.753	-10.58
280.969	-4.44
281.184	-14.68
281.399	132.78
281.615	81.58
281.83	106.15
282.045	1.71
282.26	-16.73
282.476	22.19
282.691	40.62
282.906	124.58
283.122	3.75
283.337	81.58
283.552	13.99
283.767	81.58
283.983	65.19
284.198	77.48
284.413	3.75
284.628	16.04
284.843	122.54
285.058	11.95
285.274	36.52
285.489	110.25
285.704	106.15
285.919	30.38
286.134	46.76
286.349	57
286.564	-18.77
286.779	26.28
286.995	50.86
287.21	-2.39
287.425	83.63
287.64	48.81
287.855	32.43
288.07	-10.58
288.285	38.57
288.5	7.85
288.715	87.72
288.93	22.19
289.145	36.52
289.36	24.23
289.575	63.15
289.79	73.39
290.004	20.14
290.219	75.43
290.434	73.39
290.649	38.57
290.864	28.33
291.079	22.19
291.294	61.1
291.509	-8.53
291.724	-2.39
291.938	22.19
292.153	59.05
292.368	52.91
292.583	54.95
292.798	-8.53
293.012	77.48
293.227	54.95
293.442	-4.44
293.657	69.29
293.871	1.71
294.086	1.71
294.301	7.85
294.516	59.05
294.73	-0.34
294.945	-14.68
295.16	16.04
295.374	7.85
295.589	100.01
295.804	28.33
296.018	3.75
296.233	52.91
296.447	32.43
296.662	83.63
296.877	79.53
297.091	71.34
297.306	63.15
297.52	48.81
297.735	-47.44
297.949	-10.58
298.164	46.76
298.378	59.05
298.593	122.54
298.807	67.24
299.022	69.29
299.236	20.14
299.451	11.95
299.665	13.99
299.88	16.04
300.094	26.28
300.309	65.19
300.523	20.14
300.737	61.1
300.952	57
301.166	30.38
301.381	34.47
301.595	-8.53
301.809	13.99
302.024	30.38
302.238	24.23
302.452	112.3
302.667	95.91
302.881	100.01
303.095	30.38
303.309	65.19
303.524	16.04
303.738	110.25
303.952	83.63
304.166	34.47
304.381	65.19
304.595	46.76
304.809	-6.49
305.023	59.05
305.237	48.81
305.452	-22.87
305.666	57
305.88	83.63
306.094	167.59
306.308	24.23
306.522	44.71
306.736	57
306.95	138.92
307.164	36.52
307.379	3.75
307.593	54.95
307.807	3.75
308.021	-2.39
308.235	18.09
308.449	-2.39
308.663	-18.77
308.877	71.34
309.091	-14.68
309.305	7.85
309.519	89.77
309.733	46.76
309.947	-14.68
310.161	104.11
310.374	32.43
310.588	85.67
310.802	-37.2
311.016	69.29
311.23	22.19
311.444	7.85
311.658	87.72
311.872	34.47
312.085	77.48
312.299	108.2
312.513	73.39
312.727	-51.54
312.941	95.91
313.154	126.63
313.368	42.67
313.582	-10.58
313.796	38.57
314.009	75.43
314.223	59.05
314.437	40.62
314.651	114.34
314.864	44.71
315.078	61.1
315.292	67.24
315.505	24.23
315.719	32.43
315.933	57
316.146	42.67
316.36	59.05
316.573	89.77
316.787	24.23
317.001	48.81
317.214	46.76
317.428	61.1
317.641	-2.39
317.855	11.95
318.068	3.75
318.282	67.24
318.495	61.1
318.709	22.19
318.922	118.44
319.136	89.77
319.349	77.48
319.563	16.04
319.776	3.75
319.99	34.47
320.203	81.58
320.417	97.96
320.63	102.06
320.843	52.91
321.057	-2.39
321.27	83.63
321.483	75.43
321.697	100.01
321.91	46.76
322.124	24.23
322.337	26.28
322.55	44.71
322.763	65.19
322.977	73.39
323.19	16.04
323.403	75.43
323.617	-31.06
323.83	147.11
324.043	46.76
324.256	30.38
324.469	-43.35
324.683	26.28
324.896	52.91
325.109	24.23
325.322	22.19
325.535	93.87
325.748	97.96
325.962	42.67
326.175	73.39
326.388	44.71
326.601	65.19
326.814	20.14
327.027	71.34
327.24	30.38
327.453	18.09
327.666	7.85
327.879	153.26
328.092	13.99
328.305	57
328.518	5.8
328.731	18.09
328.944	44.71
329.157	44.71
329.37	48.81
329.583	89.77
329.796	79.53
330.009	-22.87
330.222	54.95
330.435	26.28
330.648	69.29
330.861	5.8
331.073	32.43
331.286	42.67
331.499	97.96
331.712	26.28
331.925	79.53
332.138	-4.44
332.35	118.44
332.563	-18.77
332.776	75.43
332.989	5.8
333.202	48.81
333.414	16.04
333.627	38.57
333.84	-16.73
334.053	48.81
334.265	-2.39
334.478	104.11
334.691	26.28
334.903	42.67
335.116	11.95
335.329	-2.39
335.541	16.04
335.754	89.77
335.966	34.47
336.179	30.38
336.392	-26.96
336.604	67.24
336.817	106.15
337.029	57
337.242	46.76
337.454	110.25
337.667	54.95
337.88	75.43
338.092	38.57
338.305	85.67
338.517	102.06
338.729	69.29
338.942	30.38
339.154	-20.82
339.367	57
339.579	34.47
339.792	20.14
340.004	79.53
340.217	40.62
340.429	57
340.641	-45.4
340.854	3.75
341.066	71.34
341.278	34.47
341.491	63.15
341.703	59.05
341.915	18.09
342.128	65.19
342.34	1.71
342.552	38.57
342.764	93.87
342.977	87.72
343.189	36.52
343.401	67.24
343.613	16.04
343.826	26.28
344.038	44.71
344.25	36.52
344.462	130.73
344.674	77.48
344.886	7.85
345.099	44.71
345.311	93.87
345.523	11.95
345.735	26.28
345.947	79.53
346.159	7.85
346.371	1.71
346.583	13.99
346.795	95.91
347.007	71.34
347.219	57
347.431	-18.77
347.643	50.86
347.855	11.95
348.067	85.67
348.279	20.14
348.491	73.39
348.703	87.72
348.915	44.71
349.127	69.29
349.339	91.82
349.551	79.53
349.763	32.43
349.975	-4.44
350.187	65.19
350.399	24.23
350.61	52.91
350.822	57
351.034	50.86
351.246	26.28
351.458	44.71
351.669	54.95
351.881	73.39
352.093	71.34
352.305	89.77
352.517	54.95
352.728	69.29
352.94	36.52
353.152	38.57
353.363	61.1
353.575	85.67
353.787	52.91
353.999	-29.01
354.21	91.82
354.422	104.11
354.633	36.52
354.845	26.28
355.057	59.05
355.268	69.29
355.48	102.06
355.692	16.04
355.903	24.23
356.115	-33.11
356.326	38.57
356.538	93.87
356.749	26.28
356.961	77.48
357.172	71.34
357.384	-20.82
357.595	54.95
357.807	-20.82
358.018	22.19
358.23	95.91
358.441	112.3
358.653	50.86
358.864	50.86
359.075	110.25
359.287	5.8
359.498	138.92
359.709	32.43
359.921	20.14
360.132	28.33
360.344	18.09
360.555	50.86
360.766	87.72
360.977	5.8
361.189	57
361.4	22.19
361.611	65.19
361.823	32.43
362.034	11.95
362.245	26.28
362.456	95.91
362.667	63.15
362.879	16.04
363.09	48.81
363.301	1.71
363.512	-0.34
363.723	57
363.935	57
364.146	54.95
364.357	26.28
364.568	61.1
364.779	-33.11
364.99	75.43
365.201	11.95
365.412	104.11
365.623	18.09
365.834	52.91
366.045	-20.82
366.256	20.14
366.467	65.19
366.678	11.95
366.889	67.24
367.1	-18.77
367.311	-6.49
367.522	118.44
367.733	3.75
367.944	50.86
368.155	46.76
368.366	114.34
368.577	81.58
368.788	89.77
368.999	57
369.209	48.81
369.42	79.53
369.631	181.93
369.842	61.1
370.053	128.68
370.264	126.63
370.474	79.53
370.685	11.95
370.896	5.8
371.107	122.54
371.317	-0.34
371.528	3.75
371.739	124.58
371.95	67.24
372.16	95.91
372.371	36.52
372.582	102.06
372.792	108.2
373.003	69.29
373.214	32.43
373.424	40.62
373.635	34.47
373.846	93.87
374.056	-4.44
374.267	16.04
374.477	-10.58
374.688	102.06
374.898	93.87
375.109	155.3
375.319	42.67
375.53	30.38
375.74	67.24
375.951	57
376.161	34.47
376.372	42.67
376.582	18.09
376.793	32.43
377.003	7.85
377.214	38.57
377.424	118.44
377.635	67.24
377.845	63.15
378.055	46.76
378.266	-26.96
378.476	81.58
378.686	-4.44
378.897	110.25
379.107	93.87
379.317	18.09
379.528	50.86
379.738	71.34
379.948	46.76
380.158	69.29
380.369	24.23
380.579	106.15
380.789	5.8
380.999	75.43
381.21	63.15
381.42	-6.49
381.63	22.19
381.84	34.47
382.05	54.95
382.261	50.86
382.471	36.52
382.681	40.62
382.891	97.96
383.101	87.72
383.311	-8.53
383.521	50.86
383.731	52.91
383.941	104.11
384.151	57
384.361	77.48
384.571	30.38
384.781	102.06
384.991	89.77
385.201	48.81
385.411	48.81
385.621	100.01
385.831	-31.06
386.041	128.68
386.251	77.48
386.461	112.3
386.671	50.86
386.881	52.91
387.091	-26.96
387.301	100.01
387.511	42.67
387.72	87.72
387.93	40.62
388.14	71.34
388.35	24.23
388.56	100.01
388.769	46.76
388.979	104.11
389.189	1.71
389.399	87.72
389.609	32.43
389.818	65.19
390.028	79.53
390.238	128.68
390.447	38.57
390.657	11.95
390.867	-45.4
391.076	79.53
391.286	42.67
391.496	79.53
391.705	50.86
391.915	130.73
392.125	102.06
392.334	106.15
392.544	177.83
392.753	54.95
392.963	73.39
393.172	91.82
393.382	38.57
393.591	50.86
393.801	112.3
394.01	130.73
394.22	91.82
394.429	75.43
394.639	69.29
394.848	89.77
395.058	20.14
395.267	75.43
395.477	67.24
395.686	132.78
395.895	128.68
396.105	97.96
396.314	120.49
396.524	206.5
396.733	173.74
396.942	136.87
397.152	63.15
397.361	165.54
397.57	75.43
397.78	95.91
397.989	186.02
398.198	130.73
398.407	32.43
398.617	116.39
398.826	126.63
399.035	120.49
399.244	59.05
399.453	130.73
399.663	85.67
399.872	161.45
400.081	100.01
400.29	102.06
400.499	118.44
400.708	118.44
400.917	61.1
401.127	149.16
401.336	196.26
401.545	218.79
401.754	163.5
401.963	159.4
402.172	93.87
402.381	145.06
402.59	132.78
402.799	145.06
403.008	171.69
403.217	145.06
403.426	177.83
403.635	110.25
403.844	130.73
404.053	134.82
404.262	112.3
404.471	218.79
404.68	102.06
404.888	173.74
405.097	138.92
405.306	171.69
405.515	153.26
405.724	251.56
405.933	204.46
406.142	159.4
406.35	188.07
406.559	202.41
406.768	122.54
406.977	229.03
407.185	257.7
407.394	292.52
407.603	233.13
407.812	173.74
408.02	263.85
408.229	269.99
408.438	194.22
408.646	259.75
408.855	229.03
409.064	313
409.272	200.36
409.481	269.99
409.69	317.09
409.898	267.94
410.107	282.28
410.315	413.35
410.524	378.53
410.733	458.4
410.941	386.72
411.15	462.5
411.358	466.6
411.567	511.65
411.775	409.25
411.984	454.31
412.192	491.17
412.401	421.54
412.609	525.99
412.818	497.32
413.026	591.52
413.234	501.41
413.443	532.13
413.651	605.86
413.86	528.03
414.068	704.16
414.276	650.91
414.485	663.2
414.693	700.06
414.901	708.26
415.11	687.78
415.318	777.89
415.526	757.41
415.734	833.18
415.943	872.09
416.151	874.14
416.359	951.96
416.567	884.38
416.776	999.07
416.984	1060.51
417.192	1099.42
417.4	1070.75
417.608	1040.03
417.817	1189.53
418.025	1189.53
418.233	1236.63
418.441	1242.78
418.649	1318.55
418.857	1275.54
419.065	1457.81
419.273	1384.09
419.481	1468.05
419.689	1549.97
419.897	1672.85
420.105	1685.14
420.313	1754.77
420.521	1724.05
420.729	1816.21
420.937	1902.22
421.145	1851.02
421.353	2002.57
421.561	2041.48
421.769	2137.74
421.977	2176.65
422.185	2096.78
422.393	2371.21
422.601	2328.2
422.809	2408.07
423.017	2502.28
423.224	2567.81
423.432	2602.63
423.64	2651.78
423.848	2885.25
424.056	2770.56
424.263	3104.38
424.471	3122.81
424.679	3223.16
424.887	3425.91
425.094	3391.09
425.302	3421.81
425.51	3448.44
425.718	3626.61
425.925	3780.21
426.133	3937.9
426.341	4036.21
426.548	4359.78
426.756	4165.23
426.964	4277.87
427.171	4605.54
427.379	4628.07
427.586	4744.8
427.794	5017.18
428.001	5164.64
428.209	5461.59
428.417	5213.79
428.624	5615.19
428.832	5633.62
429.039	5549.65
429.247	5658.2
429.454	5996.11
429.662	6581.83
429.869	6313.55
430.076	6577.73
430.284	6194.76
430.491	6692.42
430.699	7120.45
430.906	6913.6
431.114	6919.75
431.321	7456.31
431.528	7489.08
431.736	7943.73
431.943	8408.62
432.15	8078.9
432.358	8181.29
432.565	8719.91
432.772	8476.2
432.979	8994.34
433.187	9135.65
433.394	9340.44
433.601	10026.51
433.808	9868.82
434.016	9739.8
434.223	10319.37
434.43	10778.12
434.637	10575.37
434.844	11382.27
435.052	11773.43
435.259	11431.42
435.466	11566.59
435.673	11324.93
435.88	12146.16
436.087	12809.7
436.294	13129.19
436.501	12662.25
436.708	12883.43
436.915	13256.16
437.122	14024.15
437.329	13831.64
437.537	14267.86
437.743	14603.72
437.95	14282.19
438.157	15281.6
438.364	15525.31
438.571	15590.84
438.778	15814.07
438.985	17030.57
439.192	16301.49
439.399	17034.66
439.606	16999.85
439.813	17569.18
440.02	18378.13
440.227	18302.36
440.433	18202
440.64	18640.27
440.847	18523.54
441.054	19121.54
441.261	20178.29
441.467	20061.56
441.674	20649.33
441.881	20837.74
442.088	21153.13
442.294	20970.86
442.501	21441.89
442.708	22041.95
442.914	23012.68
443.121	23790.91
443.328	23301.45
443.534	25003.31
443.741	24247.61
443.948	23895.36
444.154	25406.76
444.361	25167.15
444.568	25595.17
444.774	25580.84
444.981	25687.33
445.187	26338.58
445.394	27618.57
445.6	27329.8
445.807	29828.32
446.013	28273.92
446.22	29252.84
446.426	29940.96
446.633	30219.49
446.839	31487.18
447.046	30336.22
447.252	31935.68
447.459	32132.29
447.665	31651.02
447.871	33182.9
448.078	34657.43
448.284	33088.69
448.491	33868.97
448.697	35110.03
448.903	35773.58
449.11	35857.54
449.316	35122.32
449.522	35757.19
449.728	36637.82
449.935	37246.07
450.141	36736.12
450.347	38022.25
450.553	36619.39
450.76	36975.73
450.966	38032.49
451.172	37727.34
451.378	38704.22
451.584	37815.4
451.791	39040.09
451.997	38833.24
452.203	39201.88
452.409	39396.43
452.615	39119.96
452.821	37555.31
453.027	37186.68
453.233	39318.61
453.44	37424.24
453.646	38114.41
453.852	38143.08
454.058	38767.71
454.264	37368.94
454.47	38427.74
454.676	37311.6
454.882	38806.62
455.088	35267.73
455.294	35546.25
455.5	35984.52
455.705	36912.25
455.911	35187.86
456.117	34686.11
456.323	33854.63
456.529	32648.38
456.735	33733.8
456.941	32775.35
457.147	32376
457.352	31188.17
457.558	30930.13
457.764	30565.59
457.97	30000.35
458.176	29730.02
458.381	29424.87
458.587	28278.01
458.793	28222.72
458.999	26805.52
459.204	28382.46
459.41	27579.65
459.616	25965.85
459.821	25830.69
460.027	25783.59
460.233	24972.59
460.438	24132.92
460.644	24378.68
460.85	23170.38
461.055	22398.29
461.261	22979.92
461.466	21114.22
461.672	20444.53
461.878	21906.78
462.083	20188.53
462.289	20084.09
462.494	19594.62
462.7	19023.24
462.905	18320.79
463.111	18943.37
463.316	19228.04
463.522	18859.4
463.727	18531.73
463.932	18660.75
464.138	18658.7
464.343	18449.81
464.549	18042.26
464.754	18820.49
464.959	18455.95
465.165	18351.51
465.37	17421.73
465.575	17233.32
465.781	17794.46
465.986	17946.01
466.191	17391.01
466.397	16616.88
466.602	15928.76
466.807	16917.93
467.012	16805.29
467.218	16766.38
467.423	16610.73
467.628	16258.48
467.833	17399.2
468.038	16661.93
468.244	16074.17
468.449	16760.23
468.654	16203.19
468.859	15918.52
469.064	16016.82
469.269	15259.07
469.474	15418.82
469.679	15756.73
469.885	15431.1
470.09	15486.4
470.295	15433.15
470.5	15025.61
470.705	14894.54
470.91	14906.82
471.115	14595.53
471.32	14759.37
471.525	14767.56
471.73	14521.81
471.935	14269.9
472.139	13837.78
472.344	14104.02
472.549	14026.2
472.754	13532.64
472.959	13540.83
473.164	13352.41
473.369	13059.56
473.574	13491.68
473.778	13495.77
473.983	13241.82
474.188	13153.76
474.393	12733.93
474.598	12733.93
474.802	12606.95
475.007	12324.33
475.212	12295.66
475.417	11730.42
475.621	11959.8
475.826	11947.51
476.031	11884.02
476.235	11689.46
476.44	11763.19
476.645	11374.08
476.849	11611.64
477.054	11382.27
477.259	11302.4
477.463	11308.54
477.668	11042.31
477.872	11011.59
478.077	10851.85
478.282	10601.99
478.486	10825.22
478.691	10513.93
478.895	10442.25
479.1	10393.1
479.304	10337.8
479.509	10020.37
479.713	10321.42
479.918	9993.75
480.122	9870.87
480.326	9836.05
480.531	10061.33
480.735	9852.44
480.94	9850.39
481.144	10198.54
481.348	9459.23
481.553	9698.84
481.757	9453.08
481.961	9465.37
482.166	9786.9
482.37	9778.71
482.574	9475.61
482.778	9526.81
482.983	9700.89
483.187	9715.22
483.391	9764.37
483.595	9672.22
483.8	9590.3
484.004	9616.92
484.208	9639.45
484.412	9473.56
484.616	9362.97
484.821	9690.65
485.025	9381.4
485.229	9727.51
485.433	9405.98
485.637	9604.63
485.841	9553.43
486.045	9596.44
486.249	9412.12
486.453	9506.33
486.657	9547.29
486.861	9555.48
487.065	9309.72
487.269	9471.51
487.473	9303.58
487.677	9575.96
487.881	9657.88
488.085	9633.3
488.289	9625.11
488.493	9334.3
488.697	9604.63
488.901	9571.86
489.105	9522.71
489.309	9868.82
489.512	9694.74
489.716	9743.89
489.92	9680.41
490.124	9702.93
490.328	9793.05
490.531	9711.13
490.735	9661.98
490.939	9834
491.143	9799.19
491.346	9803.29
491.55	10001.94
491.754	9889.3
491.958	9993.75
492.161	9858.58
492.365	10173.97
492.569	9981.46
492.772	9967.12
492.976	10243.6
493.18	10020.37
493.383	10243.6
493.587	10257.93
493.79	10165.78
493.994	10337.8
494.197	10370.57
494.401	10513.93
494.605	10565.13
494.808	10819.08
495.012	10784.26
495.215	10808.84
495.419	11025.92
495.622	10866.18
495.825	11005.44
496.029	10892.8
496.232	11273.73
496.436	11308.54
496.639	11507.2
496.843	11533.82
497.046	11689.46
497.249	11896.31
497.453	11752.95
497.656	11857.4
497.859	11992.56
498.063	12033.52
498.266	12408.3
498.469	12469.74
498.673	12367.34
498.876	12525.04
499.079	12922.34
499.282	12633.58
499.485	13084.13
499.689	13174.24
499.892	13262.3
500.095	13618.65
500.298	13755.86
500.501	13430.24
500.705	14030.29
500.908	13917.65
501.111	14142.93
501.314	14159.31
501.517	14546.38
501.72	14468.56
501.923	14454.22
502.126	14831.05
502.329	14970.31
502.532	15291.84
502.735	15052.23
502.938	15246.79
503.141	15719.87
503.344	15809.98
503.547	16045.49
503.75	15891.9
503.953	16602.54
504.156	16405.94
504.359	16502.19
504.562	16629.16
504.765	17081.77
504.968	17225.12
505.17	17511.84
505.373	17462.69
505.576	17749.4
505.779	17954.2
505.982	17583.52
506.185	18238.87
506.387	18288.02
506.59	18484.62
506.793	18808.2
506.996	18955.66
507.198	19254.66
507.401	19365.25
507.604	19668.35
507.807	19918.2
508.009	19819.9
508.212	20315.51
508.415	20483.44
508.617	20356.47
508.82	20346.23
509.022	20663.66
509.225	21185.9
509.428	21331.3
509.63	21355.88
509.833	21226.85
510.035	22097.24
510.238	21894.49
510.44	22166.87
510.643	22730.06
510.845	22615.38
511.048	22748.5
511.25	22744.4
511.453	23489.86
511.655	23524.68
511.858	23254.34
512.06	23665.99
512.262	23829.82
512.465	24276.28
512.667	24503.6
512.87	24651.06
513.072	24583.48
513.274	25044.27
513.477	25097.52
513.679	25746.72
513.881	26039.58
514.084	25928.99
514.286	26332.44
514.488	26090.78
514.69	26658.07
514.893	26926.35
515.095	27247.88
515.297	27512.07
515.499	27116.81
515.701	27643.14
515.904	27944.19
516.106	28103.93
516.308	28359.93
516.51	28804.34
516.712	28337.4
516.914	29031.66
517.116	29570.28
517.318	29435.11
517.52	29482.22
517.722	29656.29
517.925	30049.5
518.127	30575.83
518.329	30784.72
518.531	30680.28
518.733	31003.86
518.935	31231.18
519.136	31460.55
519.338	31601.86
519.54	32019.65
519.742	32292.03
519.944	32265.41
520.146	32615.61
520.348	32990.39
520.55	32658.62
520.752	33371.31
520.954	33553.58
521.155	33506.48
521.357	33885.35
521.559	33785
521.761	34383.01
521.963	34409.63
522.164	34958.49
522.366	34802.84
522.568	34866.33
522.77	35325.07
522.971	35781.77
523.173	35501.2
523.375	35710.09
523.576	35517.58
523.778	36002.95
523.98	36584.57
524.181	36476.03
524.383	36371.58
524.584	36775.03
524.786	37133.43
524.988	36488.32
525.189	36891.77
525.391	37506.16
525.592	37723.24
525.794	37786.73
525.995	37774.44
526.197	37606.51
526.398	37887.08
526.6	38095.97
526.801	38059.11
527.003	38354.02
527.204	37854.31
527.406	38763.61
527.607	38687.84
527.808	38970.46
528.01	38421.6
528.211	38923.35
528.412	39523.41
528.614	39255.12
528.815	39425.11
529.016	39582.8
529.218	39162.97
529.419	39459.92
529.62	39394.39
529.822	39494.74
530.023	39375.95
530.224	39414.87
530.425	39318.61
530.626	39066.71
530.828	39265.36
531.029	40219.72
531.23	39609.42
531.431	39744.59
531.632	39779.4
531.833	39636.05
532.035	39523.41
532.236	39683.15
532.437	40031.3
532.638	39892.04
532.839	40160.33
533.04	40125.51
533.241	39734.35
533.442	40141.89
533.643	40102.98
533.844	40113.22
534.045	40084.55
534.246	39904.33
534.447	40176.71
534.648	39775.31
534.849	40084.55
535.05	39720.01
535.251	40219.72
535.451	39433.3
535.652	40399.94
535.853	39857.23
536.054	39900.23
536.255	39994.44
536.456	39728.2
536.657	39904.33
536.857	39990.34
537.058	39705.68
537.259	40328.26
537.46	40055.88
537.66	39826.51
537.861	40195.14
538.062	39785.55
538.263	39918.67
538.463	40131.65
538.664	39535.7
538.865	39978.06
539.065	39846.99
539.266	39124.05
539.466	40242.24
539.667	39584.85
539.868	40080.46
540.068	39769.16
540.269	39203.92
540.469	39859.27
540.67	39461.97
540.87	39748.68
541.071	39369.81
541.271	39543.89
541.472	39607.37
541.672	39582.8
541.873	39523.41
542.073	38956.12
542.274	39638.09
542.474	39638.09
542.675	39326.8
542.875	39564.37
543.075	39154.77
543.276	38849.63
543.476	39588.94
543.676	39285.84
543.877	39615.57
544.077	39218.26
544.277	39668.81
544.478	39380.05
544.678	39302.23
544.878	38878.3
545.078	39236.69
545.279	38960.22
545.479	38882.39
545.679	39142.49
545.879	39238.74
546.079	39011.42
546.28	38956.12
546.48	38800.47
546.68	39185.49
546.88	39052.37
547.08	38904.92
547.28	38765.66
547.48	38540.38
547.68	38790.23
547.88	38380.64
548.081	38839.39
548.281	38968.41
548.481	38564.96
548.681	38966.36
548.881	38667.36
549.081	38831.19
549.28	38550.62
549.48	38769.76
549.68	38167.65
549.88	38874.2
550.08	38573.15
550.28	38528.09
550.48	38601.82
550.68	39179.35
550.88	38425.7
551.08	38653.02
551.279	38437.98
551.479	38272.1
551.679	38831.19
551.879	38431.84
552.079	38976.6
552.278	38335.59
552.478	38397.02
552.678	38591.58
552.878	38548.57
553.077	38321.25
553.277	38304.87
553.477	38431.84
553.676	38452.32
553.876	38155.36
554.076	38335.59
554.275	37692.52
554.475	37934.18
554.674	38159.46
554.874	38147.17
555.074	38147.17
555.273	38280.29
555.473	38480.99
555.672	37633.13
555.872	37778.54
556.071	37938.28
556.271	37942.38
556.47	37647.47
556.67	37837.93
556.869	37510.25
557.068	37979.24
557.268	37340.27
557.467	37913.7
557.667	37643.37
557.866	38130.79
558.065	37364.85
558.265	37094.52
558.464	37115
558.663	37561.45
558.863	36965.49
559.062	37860.46
559.261	37155.96
559.461	37518.45
559.66	37160.05
559.859	37547.12
560.058	36961.4
560.258	37504.11
560.457	37164.15
560.656	37125.24
560.855	36705.4
561.054	37194.87
561.253	36381.82
561.453	36863.1
561.652	37129.33
561.851	37008.5
562.05	36457.6
562.249	36478.08
562.448	37055.61
562.647	36672.64
562.846	36402.3
563.045	36238.47
563.244	36031.62
563.443	36383.87
563.642	36101.25
563.841	36230.27
564.04	36304
564.239	36453.5
564.438	36121.73
564.637	35900.55
564.836	35789.96
565.035	35517.58
565.234	36035.72
565.432	35710.09
565.631	35671.18
565.83	35820.68
566.029	35464.33
566.228	35822.73
566.427	35478.67
566.625	35368.08
566.824	34895
567.023	34978.96
567.222	34847.89
567.42	35107.99
567.619	35292.3
567.818	35087.51
568.016	35228.82
568.215	35067.03
568.414	34987.16
568.612	35071.12
568.811	34682.01
569.01	35073.17
569.208	34309.28
569.407	34749.59
569.605	34108.58
569.804	34700.44
570.002	34495.64
570.201	34372.77
570.4	34124.96
570.598	34432.16
570.797	34196.64
570.995	34065.57
571.193	33469.61
571.392	34077.86
571.59	33782.95
571.789	33916.07
571.987	33428.65
572.186	33703.08
572.384	33043.63
572.582	33838.25
572.781	33436.84
572.979	32971.96
573.177	33350.83
573.376	33477.8
573.574	33070.26
573.772	33322.16
573.971	32910.52
574.169	32683.19
574.367	32658.62
574.565	32898.23
574.763	32711.86
574.962	32591.03
575.16	32193.73
575.358	32566.46
575.556	31925.44
575.754	32441.53
575.952	32298.17
576.151	32326.85
576.349	32066.75
576.547	32091.33
576.745	31974.59
576.943	32089.28
577.141	31773.89
577.339	31810.76
577.537	31704.26
577.735	31395.02
577.933	31177.93
578.131	31540.43
578.329	31335.63
578.527	31349.96
578.725	31046.86
578.923	31257.81
579.121	31179.98
579.319	31100.11
579.516	31065.3
579.714	31167.7
579.912	30850.26
580.11	30528.73
580.308	30631.13
580.506	30637.27
580.704	30401.75
580.901	30543.06
581.099	30491.87
581.297	30170.33
581.495	30069.98
581.692	30364.89
581.89	29811.94
582.088	30403.8
582.285	29760.74
582.483	29928.67
582.681	30090.46
582.878	29541.61
583.076	29447.4
583.274	29895.91
583.471	29469.93
583.669	29644.01
583.866	29365.48
584.064	29512.94
584.262	29146.35
584.459	29527.27
584.657	29242.6
584.854	29199.6
585.052	28536.06
585.249	29068.53
585.447	28804.34
585.644	28343.55
585.841	28945.65
586.039	29000.94
586.236	28286.2
586.434	28323.07
586.631	28208.38
586.828	28439.8
587.026	28595.45
587.223	28673.27
587.42	28007.68
587.618	28124.41
587.815	27811.07
588.012	27763.97
588.21	27921.66
588.407	27671.81
588.604	27378.95
588.801	27692.29
588.999	27536.65
589.196	27487.5
589.393	27354.38
589.59	27114.76
589.787	27153.68
589.984	27014.41
590.182	27303.18
590.379	27282.7
590.576	26680.6
590.773	26721.55
590.97	26594.58
591.167	26866.96
591.364	26467.61
591.561	26762.51
591.758	26338.58
591.955	26502.42
592.152	26471.7
592.349	26455.32
592.546	26127.64
592.743	26232.09
592.94	25560.36
593.137	26191.13
593.334	25926.94
593.531	25752.87
593.727	25826.59
593.924	25832.74
594.121	25539.88
594.318	25810.21
594.515	25290.02
594.712	25460.01
594.908	25369.9
595.105	25568.55
595.302	25281.83
595.499	25222.44
595.696	24898.86
595.892	24718.64
596.089	25087.28
596.286	25015.6
596.482	24892.72
596.679	24857.9
596.876	24902.96
597.072	24767.79
597.269	24614.2
597.466	24261.94
597.662	24268.09
597.859	23991.61
598.055	24096.06
598.252	23899.45
598.448	24044.86
598.645	23725.38
598.841	24024.38
599.038	23913.79
599.234	23799.1
599.431	23588.16
599.627	23555.4
599.824	23702.85
600.02	23596.35
600.217	23618.88
600.413	23252.3
600.609	23156.04
600.806	23084.36
601.002	23240.01
601.198	23301.45
601.395	23209.29
601.591	22932.81
601.787	23139.66
601.984	22779.22
602.18	22988.11
602.376	22693.2
602.572	22756.69
602.769	22545.75
602.965	22191.45
603.161	22441.3
603.357	22539.6
603.553	22392.15
603.75	22189.4
603.946	22089.05
604.142	22451.54
604.338	22087
604.534	22111.58
604.73	21585.25
604.926	21833.05
605.122	21884.25
605.318	21894.49
605.514	21831.01
605.71	21773.66
605.906	21491.04
606.102	21605.73
606.298	21554.53
606.494	21550.43
606.69	21681.5
606.886	21431.65
607.082	20936.04
607.278	21384.55
607.474	20850.03
607.67	21339.49
607.866	20913.52
608.062	21011.82
608.257	20866.41
608.453	20772.21
608.649	21216.61
608.845	20788.59
609.041	20870.51
609.236	20952.43
609.432	20782.45
609.628	20651.38
609.824	20747.63
610.019	20628.85
610.215	20364.66
610.411	20419.96
610.606	20462.96
610.802	20610.42
610.998	20381.04
611.193	20368.76
611.389	20385.14
611.584	20444.53
611.78	20243.83
611.976	20221.3
612.171	20454.77
612.367	20163.96
612.562	20125.05
612.758	20016.51
612.953	19621.25
613.149	20079.99
613.344	19885.44
613.539	20127.1
613.735	19957.11
613.93	20067.7
614.126	19795.32
614.321	19862.91
614.517	19490.18
614.712	19508.61
614.907	19504.51
615.103	19641.73
615.298	19502.47
615.493	19717.5
615.688	19199.37
615.884	19801.47
616.079	19555.71
616.274	19527.04
616.47	19494.27
616.665	19496.32
616.86	19193.22
617.055	18986.38
617.25	18976.14
617.445	19197.32
617.641	18855.31
617.836	19142.02
618.031	18687.37
618.226	18742.67
618.421	18795.92
618.616	19385.73
618.811	18609.55
619.006	18929.03
619.201	18548.11
619.396	18613.65
619.591	18245.01
619.786	18474.38
619.981	18306.45
620.176	18337.17
620.371	18054.55
620.566	18144.66
620.761	18044.31
620.956	18122.13
621.151	17597.85
621.346	17968.54
621.541	17464.74
621.735	17747.36
621.93	17339.81
622.125	17567.13
622.32	17089.96
622.515	17130.92
622.709	17173.92
622.904	17395.11
623.099	17120.68
623.294	17055.14
623.488	16981.42
623.683	17092.01
623.878	16608.69
624.072	16604.59
624.267	16666.03
624.462	16395.7
624.656	16244.15
624.851	16510.38
625.046	16211.38
625.24	16143.8
625.435	16039.35
625.629	16098.74
625.824	15889.85
626.018	15883.7
626.213	15322.56
626.407	15693.24
626.602	15525.31
626.796	15502.78
626.991	15566.27
627.185	15304.13
627.38	15025.61
627.574	15134.15
627.768	15013.32
627.963	14706.12
628.157	14902.73
628.352	14886.34
628.546	14611.92
628.74	14837.19
628.935	14546.38
629.129	14351.82
629.323	14288.34
629.517	14226.9
629.712	14257.62
629.906	14015.96
630.1	13737.43
630.294	14122.45
630.489	13850.07
630.683	13895.13
630.877	13614.55
631.071	13581.79
631.265	13774.3
631.459	13673.95
631.653	13458.91
631.848	13432.29
632.042	13166.05
632.236	13379.04
632.43	13118.95
632.624	13239.78
632.818	13024.74
633.012	12977.64
633.206	12862.95
633.4	12879.33
633.594	12727.78
633.788	12846.57
633.982	12918.25
634.176	12664.3
634.369	12580.33
634.563	12396.01
634.757	12408.3
634.951	12639.72
635.145	12287.47
635.339	12510.7
635.533	12205.55
635.726	12299.76
635.92	11775.48
636.114	12090.87
636.308	11890.17
636.501	11789.81
636.695	11818.49
636.889	11640.31
637.083	11507.2
637.276	11435.52
637.47	11439.61
637.664	11412.99
637.857	11415.04
638.051	11499
638.244	11208.19
638.438	11163.14
638.632	11296.25
638.825	10974.72
639.019	10923.52
639.212	10796.55
639.406	11095.55
639.599	10966.53
639.793	10784.26
639.986	10636.81
640.18	10720.78
640.373	10628.62
640.567	10544.65
640.76	10493.45
640.954	10685.96
641.147	10464.78
641.34	10239.5
641.534	10149.39
641.727	10548.75
641.92	10087.95
642.114	9991.7
642.307	10020.37
642.5	9899.54
642.694	9801.24
642.887	9948.69
643.08	9909.78
643.273	9940.5
643.467	9817.62
643.66	9631.26
643.853	9690.65
644.046	9532.95
644.239	9563.67
644.432	9461.27
644.626	9317.92
644.819	9436.7
645.012	9502.23
645.205	9371.16
645.398	9399.84
645.591	9348.64
645.784	9203.23
645.977	9004.58
646.17	9164.32
646.363	8865.32
646.556	8965.67
646.749	8797.73
646.942	8844.84
647.135	8902.18
647.328	8791.59
647.521	8762.92
647.714	8500.78
647.907	8685.09
648.099	8398.38
648.292	8572.46
648.485	8629.8
648.678	8379.95
648.871	8429.1
649.064	8334.89
649.256	8443.43
649.449	8326.7
649.642	7976.5
649.835	8138.29
650.027	8103.47
650.22	7806.52
650.413	8019.5
650.605	8050.22
650.798	8044.08
650.991	7736.88
651.183	8021.55
651.376	7738.93
651.568	7822.9
651.761	7648.82
651.954	7583.29
652.146	7736.88
652.339	7601.72
652.531	7679.54
652.724	7421.5
652.916	7425.59
653.109	7411.26
653.301	7450.17
653.494	7478.84
653.686	7198.27
653.879	7370.3
654.071	7206.46
654.263	7157.31
654.456	7077.44
654.648	7269.95
654.84	7106.11
655.033	7128.64
655.225	7042.62
655.417	6911.55
655.61	6794.82
655.802	6954.56
655.994	6823.49
656.186	6823.49
656.379	6788.68
656.571	6778.44
656.763	6702.66
656.955	6712.9
657.148	6749.76
657.34	6620.74
657.532	6420.04
657.724	6553.16
657.916	6618.69
658.108	6544.97
658.3	6532.68
658.492	6420.04
658.684	6432.33
658.876	6448.71
659.068	6276.68
659.26	6301.26
659.452	6231.63
659.644	6315.59
659.836	6051.41
660.028	6303.31
660.22	6104.65
660.412	6041.17
660.604	5985.87
660.796	6055.5
660.988	6112.85
661.18	5957.2
661.372	5949.01
661.563	5936.72
661.755	5955.15
661.947	5811.79
662.139	5850.71
662.331	5742.16
662.522	5783.12
662.714	5656.15
662.906	5711.44
663.097	5695.06
663.289	5731.92
663.481	5494.36
663.673	5621.33
663.864	5375.58
664.056	5449.3
664.247	5457.5
664.439	5310.04
664.631	5471.83
664.822	5439.06
665.014	5416.54
665.205	5566.04
665.397	5299.8
665.588	5437.02
665.78	5119.58
665.971	5228.12
666.163	5281.37
666.354	5310.04
666.546	5095
666.737	5152.35
666.929	5058.14
667.12	5027.42
667.311	4939.36
667.503	5039.71
667.694	5092.96
667.885	4914.78
668.077	5047.9
668.268	4912.74
668.459	4914.78
668.651	4931.17
668.842	4908.64
669.033	4740.71
669.224	4896.35
669.416	5002.85
669.607	4908.64
669.798	4724.32
669.989	4728.42
670.18	4740.71
670.371	4851.3
670.563	4617.83
670.754	4871.78
670.945	4683.36
671.136	4748.9
671.327	4656.74
671.518	4527.72
671.709	4576.87
671.9	4527.72
672.091	4640.36
672.282	4587.11
672.473	4376.17
672.664	4464.23
672.855	4451.94
673.046	4406.89
673.237	4292.2
673.428	4372.07
673.619	4380.26
673.809	4290.15
674	4417.13
674.191	4302.44
674.382	4234.86
674.573	4507.24
674.764	4308.58
674.954	4310.63
675.145	4304.49
675.336	4320.87
675.527	4234.86
675.717	4167.28
675.908	4327.02
676.099	4298.35
676.289	4189.8
676.48	4245.1
676.671	4122.22
676.861	4185.71
677.052	4064.88
677.243	3976.81
677.433	4036.21
677.624	4263.53
677.814	4085.36
678.005	4120.17
678.195	4028.01
678.386	3874.42
678.576	3966.57
678.767	4060.78
678.957	3985.01
679.148	3993.2
679.338	4028.01
679.529	3929.71
679.719	3974.77
679.909	4048.49
680.1	3974.77
680.29	3958.38
680.481	3989.1
680.671	3862.13
680.861	3819.12
681.052	3835.5
681.242	3993.2
681.432	3958.38
681.622	3788.4
681.813	3810.93
682.003	3780.21
682.193	3767.92
682.383	3860.08
682.573	3829.36
682.764	3692.15
682.954	3714.67
683.144	3759.73
683.334	3667.57
683.524	3659.38
683.714	3774.07
683.904	3634.8
684.094	3698.29
684.284	3643
684.474	3634.8
684.664	3643
684.854	3513.97
685.044	3602.04
685.234	3604.08
685.424	3665.52
685.614	3511.93
685.804	3638.9
685.994	3542.64
686.184	3571.32
686.374	3475.06
686.564	3468.92
686.753	3575.41
686.943	3540.6
687.133	3618.42
687.323	3421.81
687.513	3423.86
687.702	3493.49
687.892	3448.44
688.082	3278.46
688.272	3446.39
688.461	3397.24
688.651	3325.56
688.841	3307.13
689.03	3378.81
689.22	3356.28
689.41	3325.56
689.599	3315.32
689.789	3251.83
689.979	3169.91
690.168	3243.64
690.358	3227.26
690.547	3198.59
690.737	3217.02
690.926	3167.87
691.116	3233.4
691.305	3186.3
691.495	3016.32
691.684	3149.43
691.874	3153.53
692.063	3104.38
692.252	3047.04
692.442	3131
692.631	3096.19
692.82	3088
693.01	2989.69
693.199	3145.34
693.388	3081.85
693.578	2944.64
693.767	3081.85
693.956	3094.14
694.146	3012.22
694.335	2903.68
694.524	3096.19
694.713	2944.64
694.902	2991.74
695.092	2952.83
695.281	3016.32
695.47	2905.73
695.659	2991.74
695.848	2827.9
696.037	2950.78
696.226	2866.81
696.415	2948.73
696.604	2938.49
696.793	2958.97
696.982	2846.34
697.171	2868.86
697.36	2907.77
697.549	2858.62
697.738	2885.25
697.927	2780.8
698.116	3032.7
698.305	2832
698.494	3001.98
698.683	2989.69
698.872	2801.28
699.061	2733.7
699.25	2862.72
699.438	2872.96
699.627	2815.62
699.816	2934.4
700.005	2711.17
700.193	2897.53
700.382	2813.57
700.571	2809.47
700.76	2838.14
700.948	2932.35
701.137	2862.72
701.326	2979.45
701.514	2840.19
701.703	2891.39
701.892	2692.74
702.08	2868.86
702.269	2782.85
702.457	2762.37
702.646	2858.62
702.834	2866.81
703.023	2909.82
703.212	2854.53
703.4	2838.14
703.589	2872.96
703.777	2891.39
703.965	2748.03
704.154	2793.09
704.342	2801.28
704.531	2899.58
704.719	2709.12
704.907	2768.51
705.096	2756.22
705.284	2825.86
705.472	2850.43
705.661	2803.33
705.849	2860.67
706.037	2786.94
706.226	2827.9
706.414	2832
706.602	2793.09
706.79	2952.83
706.979	2803.33
707.167	2823.81
707.355	2778.75
707.543	2915.97
707.731	2889.34
707.919	2868.86
708.107	2741.89
708.296	2838.14
708.484	2766.46
708.672	2696.83
708.86	2782.85
709.048	2772.61
709.236	2760.32
709.424	2856.58
709.612	2795.14
709.8	2770.56
709.988	2719.36
710.176	2797.18
710.364	2811.52
710.551	2872.96
710.739	2844.29
710.927	2786.94
711.115	2797.18
711.303	2745.98
711.491	2754.18
711.679	2823.81
711.866	2739.84
712.054	2782.85
712.242	2721.41
712.43	2825.86
712.617	2754.18
712.805	2684.55
712.993	2674.31
713.181	2682.5
713.368	2817.66
713.556	2805.38
713.744	2807.42
713.931	2813.57
714.119	2739.84
714.306	2717.31
714.494	2680.45
714.682	2676.35
714.869	2719.36
715.057	2727.55
715.244	2698.88
715.432	2707.07
715.619	2672.26
715.807	2754.18
715.994	2733.7
716.182	2688.64
716.369	2832
716.556	2606.72
716.744	2705.03
716.931	2629.25
717.119	2729.6
717.306	2659.97
717.493	2651.78
717.681	2662.02
717.868	2723.46
718.055	2649.73
718.242	2725.51
718.43	2608.77
718.617	2784.9
718.804	2633.35
718.991	2713.22
719.179	2772.61
719.366	2627.2
719.553	2772.61
719.74	2590.34
719.927	2795.14
720.114	2586.24
720.301	2641.54
720.488	2631.3
720.676	2666.11
720.863	2598.53
721.05	2580.1
721.237	2629.25
721.424	2633.35
721.611	2543.24
721.798	2645.63
721.985	2635.39
722.172	2612.87
722.358	2537.09
722.545	2586.24
722.732	2619.01
722.919	2676.35
723.106	2625.15
723.293	2612.87
723.48	2537.09
723.667	2725.51
723.853	2576
724.04	2557.57
724.227	2518.66
724.414	2625.15
724.6	2590.34
724.787	2444.93
724.974	2676.35
725.161	2567.81
725.347	2621.06
725.534	2516.61
725.72	2520.71
725.907	2512.52
726.094	2702.98
726.28	2467.46
726.467	2522.76
726.653	2592.39
726.84	2563.72
727.027	2557.57
727.213	2559.62
727.4	2434.69
727.586	2492.04
727.773	2584.2
727.959	2428.55
728.145	2551.43
728.332	2487.94
728.518	2528.9
728.705	2539.14
728.891	2424.45
729.077	2481.8
729.264	2492.04
729.45	2348.68
729.636	2586.24
729.823	2463.37
730.009	2502.28
730.195	2387.59
730.382	2541.19
730.568	2383.49
730.754	2401.93
730.94	2467.46
731.126	2434.69
731.313	2492.04
731.499	2473.6
731.685	2485.89
731.871	2451.08
732.057	2424.45
732.243	2410.12
732.429	2473.6
732.615	2360.97
732.801	2340.49
732.987	2324.1
733.173	2365.06
733.359	2391.69
733.545	2340.49
733.731	2332.3
733.917	2324.1
734.103	2461.32
734.289	2373.25
734.475	2403.97
734.661	2336.39
734.847	2399.88
735.033	2301.58
735.219	2277
735.404	2340.49
735.59	2297.48
735.776	2418.31
735.962	2315.91
736.148	2363.01
736.333	2313.86
736.519	2221.7
736.705	2322.06
736.89	2260.62
737.076	2315.91
737.262	2266.76
737.447	2178.7
737.633	2293.38
737.819	2201.23
738.004	2262.66
738.19	2285.19
738.375	2207.37
738.561	2270.86
738.747	2262.66
738.932	2154.12
739.118	2256.52
739.303	2270.86
739.489	2217.61
739.674	2227.85
739.859	2068.11
740.045	2129.55
740.23	2279.05
740.416	2176.65
740.601	2190.99
740.786	2225.8
740.972	2096.78
741.157	2064.01
741.342	2070.16
741.528	2064.01
741.713	2168.46
741.898	2119.31
742.084	2068.11
742.269	2121.35
742.454	2096.78
742.639	1969.8
742.824	2025.1
743.01	2006.67
743.195	2100.87
743.38	2225.8
743.565	2059.92
743.75	2045.58
743.935	1908.37
744.12	2059.92
744.305	2012.81
744.49	1969.8
744.675	1885.84
744.86	1881.74
745.045	1908.37
745.23	1846.93
745.415	2002.57
745.6	1920.65
745.785	1855.12
745.97	1857.17
746.155	1848.97
746.34	1896.08
746.525	1820.3
746.71	1898.13
746.895	1779.34
747.079	1783.44
747.264	1752.72
747.449	1799.82
747.634	1701.52
747.819	1787.54
748.003	1722
748.188	1803.92
748.373	1701.52
748.557	1777.3
748.742	1685.14
748.927	1771.15
749.111	1678.99
749.296	1691.28
749.481	1662.61
749.665	1765.01
749.85	1654.42
750.034	1642.13
750.219	1648.27
750.404	1658.51
750.588	1547.92
750.773	1531.54
750.957	1724.05
751.141	1629.84
751.326	1554.07
751.51	1627.79
751.695	1595.03
751.879	1535.64
752.064	1547.92
752.248	1531.54
752.432	1640.08
752.617	1521.3
752.801	1529.49
752.985	1484.44
753.17	1558.16
753.354	1451.67
753.538	1498.77
753.722	1341.08
753.907	1414.81
754.091	1453.72
754.275	1437.33
754.459	1343.13
754.643	1451.67
754.828	1386.13
755.012	1396.37
755.196	1300.12
755.38	1351.32
755.564	1308.31
755.748	1304.21
755.932	1322.65
756.116	1230.49
756.3	1377.94
756.484	1293.97
756.668	1224.34
756.852	1203.86
757.036	1312.41
757.22	1210.01
757.404	1230.49
757.588	1269.4
757.772	1265.3
757.956	1224.34
758.14	1269.4
758.323	1158.81
758.507	1257.11
758.691	1218.2
758.875	1306.26
759.059	1205.91
759.242	1220.25
759.426	1244.82
759.61	1128.09
759.794	1162.9
759.977	1089.18
760.161	1210.01
760.345	1027.74
760.528	1169.05
760.712	1035.93
760.895	1130.14
761.079	1132.19
761.263	1183.38
761.446	1162.9
761.63	1064.6
761.813	1089.18
761.997	1005.21
762.18	1009.31
762.364	1050.27
762.547	937.63
762.731	1132.19
762.914	1083.03
763.098	1040.03
763.281	1023.64
763.464	1052.31
763.648	1013.4
763.831	1035.93
764.015	1062.55
764.198	974.49
764.381	1070.75
764.564	947.87
764.748	968.35
764.931	1003.16
765.114	861.85
765.297	962.2
765.481	886.43
765.664	939.68
765.847	949.92
766.03	941.72
766.213	878.24
766.397	927.39
766.58	919.2
766.763	941.72
766.946	908.96
767.129	870.05
767.312	976.54
767.495	939.68
767.678	841.37
767.861	904.86
768.044	898.72
768.227	841.37
768.41	837.28
768.593	827.04
768.776	849.57
768.959	876.19
769.142	839.33
769.324	876.19
769.507	827.04
769.69	855.71
769.873	874.14
770.056	824.99
770.239	898.72
770.421	898.72
770.604	863.9
770.787	857.76
770.97	911
771.152	829.09
771.335	849.57
771.518	794.27
771.7	839.33
771.883	878.24
772.066	794.27
772.248	835.23
772.431	868
772.613	843.42
772.796	808.61
772.978	798.37
773.161	816.8
773.343	747.17
773.526	714.4
773.708	644.77
773.891	714.4
774.073	693.92
774.256	650.91
774.438	788.13
774.621	702.11
774.803	704.16
774.985	691.87
775.168	706.21
775.35	642.72
775.532	634.53
775.715	712.35
775.897	718.5
776.079	685.73
776.261	718.5
776.444	671.39
776.626	677.54
776.808	591.52
776.99	597.67
777.173	759.46
777.355	628.39
777.537	644.77
777.719	636.58
777.901	564.9
778.083	683.68
778.265	575.14
778.447	624.29
778.629	591.52
778.811	655.01
778.993	652.96
779.175	612
779.357	620.19
779.539	556.71
779.721	571.04
779.903	538.27
780.085	530.08
780.267	542.37
780.449	519.84
780.631	568.99
780.812	552.61
780.994	536.23
781.176	546.47
781.358	589.47
781.54	556.71
781.721	607.91
781.903	558.75
782.085	513.7
782.267	503.46
782.448	517.79
782.63	497.32
782.812	493.22
782.993	437.92
783.175	476.84
783.357	433.83
783.538	458.4
783.72	493.22
783.901	446.12
784.083	433.83
784.264	544.42
784.446	493.22
784.627	442.02
784.809	403.11
784.99	495.27
785.172	493.22
785.353	474.79
785.535	407.2
785.716	431.78
785.897	372.39
786.079	427.68
786.26	489.12
786.441	439.97
786.623	448.16
786.804	390.82
786.985	421.54
787.167	448.16
787.348	341.67
787.529	390.82
787.71	435.88
787.891	386.72
788.073	419.49
788.254	358.05
788.435	327.33
788.616	421.54
788.797	356.01
788.978	378.53
789.159	319.14
789.34	407.2
789.522	372.39
789.703	405.16
789.884	362.15
790.065	407.2
790.246	405.16
790.427	315.05
790.607	349.86
790.788	431.78
790.969	323.24
791.15	392.87
791.331	317.09
791.512	394.92
791.693	321.19
791.874	284.33
792.054	386.72
792.235	351.91
792.416	325.29
792.597	278.18
792.778	325.29
792.958	308.9
793.139	323.24
793.32	335.53
793.5	274.09
793.681	294.57
793.862	329.38
794.042	294.57
794.223	233.13
794.404	294.57
794.584	255.65
794.765	278.18
794.945	255.65
795.126	376.48
795.306	401.06
795.487	272.04
795.667	278.18
795.848	313
796.028	247.46
796.209	286.37
796.389	345.77
796.57	308.9
796.75	288.42
796.93	290.47
797.111	220.84
797.291	263.85
797.471	253.61
797.652	269.99
797.832	298.66
798.012	202.41
798.192	247.46
798.373	329.38
798.553	253.61
798.733	313
798.913	282.28
799.093	274.09
799.274	241.32
799.454	272.04
799.634	237.22
799.814	261.8
799.994	114.34
800.174	282.28
800.354	249.51
800.534	177.83
800.714	292.52
800.894	132.78
801.074	259.75
801.254	231.08
801.434	310.95
801.614	226.98
801.794	243.37
801.974	624.29
802.154	216.74
802.334	255.65
802.514	200.36
802.693	249.51
802.873	179.88
803.053	263.85
803.233	226.98
803.413	216.74
803.592	243.37
803.772	216.74
803.952	220.84
804.131	196.26
804.311	247.46
804.491	196.26
804.67	231.08
804.85	163.5
805.03	183.98
805.209	220.84
805.389	239.27
805.568	196.26
805.748	177.83
805.928	198.31
806.107	200.36
806.287	253.61
806.466	253.61
806.646	226.98
806.825	216.74
807.004	145.06
807.184	194.22
807.363	220.84
807.543	192.17
807.722	171.69
807.901	134.82
808.081	147.11
808.26	181.93
808.439	173.74
808.619	128.68
808.798	128.68
808.977	196.26
809.156	196.26
809.336	63.15
809.515	198.31
809.694	216.74
809.873	188.07
810.052	153.26
810.231	243.37
810.411	206.5
810.59	249.51
810.769	151.21
810.948	259.75
811.127	206.5
811.306	165.54
811.485	136.87
811.664	161.45
811.843	200.36
812.022	136.87
812.201	132.78
812.38	136.87
812.559	132.78
812.737	194.22
812.916	108.2
813.095	188.07
813.274	120.49
813.453	69.29
813.632	143.02
813.811	173.74
813.989	71.34
814.168	247.46
814.347	89.77
814.526	161.45
814.704	206.5
814.883	177.83
815.062	145.06
815.24	138.92
815.419	63.15
815.598	138.92
815.776	126.63
815.955	79.53
816.133	120.49
816.312	177.83
816.49	155.3
816.669	194.22
816.847	112.3
817.026	231.08
817.204	149.16
817.383	147.11
817.561	97.96
817.74	157.35
817.918	136.87
818.097	179.88
818.275	81.58
818.453	120.49
818.632	169.64
818.81	132.78
818.988	175.78
819.167	28.33
819.345	112.3
819.523	106.15
819.701	52.91
819.879	110.25
820.058	104.11
820.236	85.67
820.414	83.63
820.592	196.26
820.77	79.53
820.948	91.82
821.127	220.84
821.305	163.5
821.483	100.01
821.661	169.64
821.839	155.3
822.017	95.91
822.195	140.97
822.373	151.21
822.551	161.45
822.729	157.35
822.907	145.06
823.085	108.2
823.262	-0.34
823.44	54.95
823.618	65.19
823.796	169.64
823.974	140.97
824.152	118.44
824.329	77.48
824.507	122.54
824.685	132.78
824.863	95.91
825.04	77.48
825.218	83.63
825.396	16.04
825.574	145.06
825.751	54.95
825.929	130.73
826.107	124.58
826.284	85.67
826.462	116.39
826.639	83.63
826.817	42.67
826.994	34.47
827.172	71.34
827.349	114.34
827.527	54.95
827.704	93.87
827.882	75.43
828.059	67.24
828.237	75.43
828.414	106.15
828.591	32.43
828.769	204.46
828.946	42.67
829.124	26.28
829.301	77.48
829.478	81.58
829.655	46.76
829.833	63.15
830.01	91.82
830.187	79.53
830.364	87.72
830.542	97.96
830.719	163.5
830.896	138.92
831.073	114.34
831.25	106.15
831.427	130.73
831.604	134.82
831.782	54.95
831.959	73.39
832.136	159.4
832.313	120.49
832.49	87.72
832.667	145.06
832.844	61.1
833.021	87.72
833.198	89.77
833.374	95.91
833.551	157.35
833.728	7.85
833.905	114.34
834.082	30.38
834.259	36.52
834.436	122.54
834.612	71.34
834.789	110.25
834.966	83.63
835.143	85.67
835.319	83.63
835.496	120.49
835.673	110.25
835.85	63.15
836.026	18.09
836.203	204.46
836.38	75.43
836.556	83.63
836.733	13.99
836.909	104.11
837.086	22.19
837.262	11.95
837.439	18.09
837.616	54.95
837.792	73.39
837.968	93.87
838.145	91.82
838.321	91.82
838.498	52.91
838.674	63.15
838.851	-8.53
839.027	52.91
839.203	75.43
839.38	136.87
839.556	85.67
839.732	57
839.909	59.05
840.085	114.34
840.261	81.58
840.437	100.01
840.614	102.06
840.79	73.39
840.966	38.57
841.142	26.28
841.318	89.77
841.494	34.47
841.671	-10.58
841.847	61.1
842.023	40.62
842.199	38.57
842.375	13.99
842.551	24.23
842.727	-12.63
842.903	42.67
843.079	57
843.255	120.49
843.431	52.91
843.607	122.54
843.783	34.47
843.959	89.77
844.134	59.05
844.31	136.87
844.486	63.15
844.662	83.63
844.838	65.19
845.013	112.3
845.189	-39.25
845.365	67.24
845.541	120.49
845.716	114.34
845.892	57
846.068	52.91
846.244	22.19
846.419	44.71
846.595	44.71
846.77	50.86
846.946	63.15
847.122	26.28
847.297	102.06
847.473	85.67
847.648	-2.39
847.824	13.99
847.999	-55.64
848.175	69.29
848.35	97.96
848.526	59.05
848.701	-2.39
848.876	108.2
849.052	-14.68
849.227	28.33
849.403	22.19
849.578	-12.63
849.753	38.57
849.929	89.77
850.104	-35.16
850.279	87.72
850.454	63.15
850.63	-16.73
850.805	3.75
850.98	22.19
851.155	112.3
851.33	50.86
851.505	9.9
851.681	-4.44
851.856	24.23
852.031	42.67
852.206	81.58
852.381	44.71
852.556	-29.01
852.731	42.67
852.906	69.29
853.081	13.99
853.256	93.87
853.431	93.87
853.606	26.28
853.781	40.62
853.956	5.8
854.131	42.67
854.305	83.63
854.48	100.01
854.655	-4.44
854.83	65.19
855.005	79.53
855.18	89.77
855.354	69.29
855.529	11.95
855.704	57
855.879	-4.44
856.053	36.52
856.228	-43.35
856.403	-39.25
856.577	97.96
856.752	-2.39
856.926	85.67
857.101	13.99
857.276	52.91
857.45	110.25
857.625	-24.92
857.799	7.85
857.974	28.33
858.148	16.04
858.323	46.76
858.497	46.76
858.672	11.95
858.846	32.43
859.02	-57.68
859.195	-33.11
859.369	95.91
859.543	24.23
859.718	-6.49
859.892	63.15
860.066	20.14
860.241	44.71
860.415	34.47
860.589	93.87
860.763	-4.44
860.938	-2.39
861.112	52.91
861.286	-8.53
861.46	110.25
861.634	44.71
861.808	9.9
861.982	28.33
862.157	-8.53
862.331	34.47
862.505	34.47
862.679	-0.34
862.853	61.1
863.027	-51.54
863.201	73.39
863.375	77.48
863.549	-41.3
863.722	57
863.896	81.58
864.07	61.1
864.244	-4.44
864.418	-8.53
864.592	85.67
864.766	13.99
864.939	-47.44
865.113	7.85
865.287	48.81
865.461	9.9
865.634	40.62
865.808	-12.63
865.982	5.8
866.156	-24.92
866.329	13.99
866.503	114.34
866.676	63.15
866.85	34.47
867.024	-43.35
867.197	65.19
867.371	63.15
867.544	26.28
867.718	-12.63
867.891	42.67
868.065	-10.58
868.238	28.33
868.412	28.33
868.585	34.47
868.759	79.53
868.932	-22.87
869.105	-57.68
869.279	28.33
869.452	46.76
869.625	-8.53
869.799	79.53
869.972	-41.3
870.145	22.19
870.319	46.76
870.492	81.58
870.665	11.95
870.838	52.91
871.011	-2.39
871.185	20.14
871.358	32.43
871.531	28.33
871.704	9.9
871.877	-39.25
872.05	42.67
872.223	26.28
872.396	50.86
872.569	7.85
872.742	50.86
872.915	11.95
873.088	40.62
873.261	54.95
873.434	40.62
873.607	5.8
873.78	81.58
873.953	79.53
874.126	7.85
874.299	52.91
874.471	57
874.644	87.72
874.817	-4.44
874.99	36.52
875.163	32.43
875.335	46.76
875.508	7.85
875.681	9.9
875.853	-14.68
876.026	-29.01
876.199	38.57
876.371	44.71
876.544	-37.2
876.717	38.57
876.889	89.77
877.062	67.24
877.234	-16.73
877.407	97.96
877.579	22.19
877.752	24.23
877.924	26.28
878.097	16.04
878.269	91.82
878.442	-16.73
878.614	-49.49
878.786	5.8
878.959	40.62
879.131	61.1
879.303	-47.44
879.476	-88.4
879.648	30.38
879.82	18.09
879.993	36.52
880.165	110.25
880.337	11.95
880.509	28.33
880.681	42.67
880.854	42.67
881.026	69.29
881.198	132.78
881.37	28.33
881.542	57
881.714	28.33
881.886	20.14
882.058	63.15
882.23	26.28
882.402	124.58
882.574	9.9
882.746	5.8
882.918	34.47
883.09	42.67
883.262	63.15
883.434	11.95
883.606	-88.4
883.778	-6.49
883.95	46.76
884.122	-4.44
884.293	30.38
884.465	-10.58
884.637	28.33
884.809	81.58
884.98	59.05
885.152	-24.92
885.324	-63.83
885.496	-22.87
885.667	46.76
885.839	44.71
886.011	28.33
886.182	26.28
886.354	-20.82
886.525	32.43
886.697	110.25
886.869	-10.58
887.04	5.8
887.212	69.29
887.383	46.76
887.555	-41.3
887.726	16.04
887.897	3.75
888.069	87.72
888.24	-8.53
888.412	7.85
888.583	65.19
888.754	-0.34
888.926	18.09
889.097	-33.11
889.268	26.28
889.44	-12.63
889.611	-16.73
889.782	9.9
889.953	71.34
890.125	-10.58
890.296	3.75
890.467	-18.77
890.638	83.63
890.809	46.76
890.98	7.85
891.151	52.91
891.323	-2.39
891.494	95.91
891.665	83.63
891.836	-12.63
892.007	1.71
892.178	63.15
892.349	-16.73
892.52	87.72
892.691	22.19
892.862	-4.44
893.032	-12.63
893.203	-2.39
893.374	40.62
893.545	40.62
893.716	57
893.887	40.62
894.057	28.33
894.228	-2.39
894.399	-31.06
894.57	5.8
894.74	-47.44
894.911	26.28
895.082	69.29
895.253	-10.58
895.423	-12.63
895.594	77.48
895.764	16.04
895.935	36.52
896.106	1.71
896.276	65.19
896.447	40.62
896.617	42.67
896.788	-6.49
896.958	61.1
897.129	-82.26
897.299	22.19
897.47	65.19
897.64	65.19
897.81	-76.12
897.981	-0.34
898.151	-10.58
898.322	48.81
898.492	-29.01
898.662	-6.49
898.832	-16.73
899.003	5.8
899.173	-37.2
899.343	57
899.513	38.57
