Data from USB4F104151__23__12-00-31-114.txt Node

Date: Fri Mar 14 12:00:31 EDT 2025
User: louis
Spectrometer: USB4F10415
Trigger mode: 4
Integration Time (sec): 2.000000E-2
Scans to average: 1
Electric dark correction enabled: true
Nonlinearity correction enabled: false
Boxcar width: 0
XAxis mode: Wavelengths
Number of Pixels in Spectrum: 3648
>>>>>Begin Spectral Data<<<<<
178.204	-91.31
178.424	-91.31
178.644	-91.31
178.864	-162.98
179.084	-87.21
179.304	31.57
179.524	43.86
179.744	-74.92
179.964	15.19
180.184	-48.3
180.404	-15.53
180.624	21.33
180.844	47.96
181.064	-7.34
181.283	23.38
181.503	-54.44
181.723	17.24
181.943	-5.29
182.163	80.72
182.383	-13.48
182.602	70.48
182.822	29.52
183.042	11.09
183.262	-74.92
183.482	27.48
183.701	13.14
183.921	15.19
184.141	-9.39
184.361	-68.78
184.58	9.05
184.8	-50.35
185.02	-3.24
185.239	13.14
185.459	29.52
185.679	21.33
185.898	27.48
186.118	-11.43
186.338	-36.01
186.557	-29.87
186.777	-52.39
186.997	72.53
187.216	15.19
187.436	31.57
187.655	21.33
187.875	43.86
188.095	-54.44
188.314	88.92
188.534	-62.63
188.753	17.24
188.973	19.29
189.192	17.24
189.412	11.09
189.631	31.57
189.851	97.11
190.07	76.63
190.29	-31.91
190.509	-7.34
190.729	17.24
190.948	-25.77
191.168	17.24
191.387	15.19
191.607	-13.48
191.826	-21.67
192.045	-9.39
192.265	-54.44
192.484	29.52
192.704	-23.72
192.923	-11.43
193.142	54.1
193.362	19.29
193.581	50
193.8	-13.48
194.02	17.24
194.239	-1.19
194.458	29.52
194.678	-33.96
194.897	-56.49
195.116	-17.58
195.335	-48.3
195.555	29.52
195.774	-52.39
195.993	0.85
196.212	19.29
196.432	43.86
196.651	-25.77
196.87	-48.3
197.089	27.48
197.308	54.1
197.528	35.67
197.747	19.29
197.966	15.19
198.185	-38.06
198.404	64.34
198.623	-3.24
198.842	37.72
199.062	9.05
199.281	23.38
199.5	-7.34
199.719	-46.25
199.938	35.67
200.157	19.29
200.376	-5.29
200.595	-25.77
200.814	0.85
201.033	58.2
201.252	58.2
201.471	0.85
201.69	80.72
201.909	7
202.128	-1.19
202.347	-17.58
202.566	17.24
202.785	19.29
203.004	-68.78
203.223	33.62
203.442	-38.06
203.661	33.62
203.879	29.52
204.098	-15.53
204.317	-74.92
204.536	23.38
204.755	-5.29
204.974	21.33
205.193	54.1
205.411	23.38
205.63	37.72
205.849	74.58
206.068	29.52
206.287	4.95
206.505	25.43
206.724	-21.67
206.943	66.39
207.162	-9.39
207.381	-7.34
207.599	-5.29
207.818	-7.34
208.037	-66.73
208.255	-13.48
208.474	64.34
208.693	-29.87
208.911	54.1
209.13	-52.39
209.349	-1.19
209.567	-31.91
209.786	9.05
210.005	19.29
210.223	27.48
210.442	-1.19
210.661	13.14
210.879	-11.43
211.098	2.9
211.316	17.24
211.535	11.09
211.753	-11.43
211.972	19.29
212.191	-1.19
212.409	31.57
212.628	-11.43
212.846	-25.77
213.065	-15.53
213.283	78.68
213.502	-62.63
213.72	15.19
213.938	9.05
214.157	15.19
214.375	23.38
214.594	43.86
214.812	-60.59
215.031	23.38
215.249	-36.01
215.467	-3.24
215.686	19.29
215.904	31.57
216.122	35.67
216.341	25.43
216.559	-33.96
216.778	64.34
216.996	-29.87
217.214	-11.43
217.432	17.24
217.651	27.48
217.869	74.58
218.087	-27.82
218.306	45.91
218.524	27.48
218.742	-42.15
218.96	54.1
219.179	-50.35
219.397	97.11
219.615	64.34
219.833	27.48
220.051	-46.25
220.27	-21.67
220.488	37.72
220.706	15.19
220.924	-31.91
221.142	-38.06
221.36	31.57
221.578	-23.72
221.796	-11.43
222.015	70.48
222.233	-5.29
222.451	95.06
222.669	-19.63
222.887	19.29
223.105	-50.35
223.323	11.09
223.541	-128.17
223.759	-13.48
223.977	-23.72
224.195	56.15
224.413	15.19
224.631	4.95
224.849	-21.67
225.067	15.19
225.285	-42.15
225.503	9.05
225.721	-25.77
225.939	27.48
226.157	-5.29
226.375	54.1
226.592	-17.58
226.81	-7.34
227.028	-17.58
227.246	50
227.464	-38.06
227.682	-9.39
227.9	39.76
228.117	-23.72
228.335	-29.87
228.553	-17.58
228.771	-15.53
228.989	-31.91
229.206	-36.01
229.424	-3.24
229.642	-33.96
229.86	60.24
230.077	0.85
230.295	-17.58
230.513	11.09
230.731	50
230.948	45.91
231.166	29.52
231.384	19.29
231.601	7
231.819	-3.24
232.037	9.05
232.254	19.29
232.472	-62.63
232.689	-79.02
232.907	43.86
233.125	17.24
233.342	31.57
233.56	17.24
233.777	-1.19
233.995	58.2
234.213	19.29
234.43	-21.67
234.648	-60.59
234.865	-36.01
235.083	37.72
235.3	11.09
235.518	-31.91
235.735	15.19
235.953	21.33
236.17	-5.29
236.388	15.19
236.605	15.19
236.822	47.96
237.04	21.33
237.257	-25.77
237.475	31.57
237.692	23.38
237.909	19.29
238.127	15.19
238.344	-1.19
238.562	37.72
238.779	-31.91
238.996	-40.11
239.214	-23.72
239.431	72.53
239.648	-85.16
239.865	7
240.083	27.48
240.3	-11.43
240.517	-17.58
240.735	13.14
240.952	52.05
241.169	13.14
241.386	82.77
241.603	7
241.821	35.67
242.038	31.57
242.255	-3.24
242.472	-19.63
242.689	13.14
242.907	58.2
243.124	9.05
243.341	2.9
243.558	45.91
243.775	-50.35
243.992	-46.25
244.209	29.52
244.426	60.24
244.643	25.43
244.86	-29.87
245.078	-36.01
245.295	0.85
245.512	-38.06
245.729	2.9
245.946	-21.67
246.163	56.15
246.38	31.57
246.597	-21.67
246.814	-74.92
247.031	68.44
247.248	68.44
247.464	45.91
247.681	-29.87
247.898	13.14
248.115	-13.48
248.332	-44.2
248.549	43.86
248.766	19.29
248.983	-5.29
249.2	-11.43
249.417	15.19
249.633	52.05
249.85	72.53
250.067	-15.53
250.284	21.33
250.501	23.38
250.717	27.48
250.934	23.38
251.151	17.24
251.368	17.24
251.585	-21.67
251.801	23.38
252.018	29.52
252.235	21.33
252.451	2.9
252.668	15.19
252.885	-3.24
253.102	37.72
253.318	43.86
253.535	-42.15
253.752	-9.39
253.968	15.19
254.185	11.09
254.401	23.38
254.618	27.48
254.835	23.38
255.051	-13.48
255.268	66.39
255.484	45.91
255.701	27.48
255.917	-1.19
256.134	76.63
256.351	25.43
256.567	-17.58
256.784	45.91
257	35.67
257.217	23.38
257.433	-15.53
257.65	11.09
257.866	64.34
258.082	4.95
258.299	2.9
258.515	70.48
258.732	52.05
258.948	39.76
259.165	64.34
259.381	-7.34
259.597	64.34
259.814	31.57
260.03	-7.34
260.246	29.52
260.463	35.67
260.679	-5.29
260.895	-44.2
261.112	25.43
261.328	-54.44
261.544	-76.97
261.761	-5.29
261.977	-25.77
262.193	-48.3
262.409	31.57
262.626	15.19
262.842	-58.54
263.058	31.57
263.274	45.91
263.49	-21.67
263.707	11.09
263.923	13.14
264.139	-31.91
264.355	33.62
264.571	-58.54
264.787	-21.67
265.004	45.91
265.22	25.43
265.436	23.38
265.652	15.19
265.868	45.91
266.084	27.48
266.3	0.85
266.516	4.95
266.732	25.43
266.948	9.05
267.164	4.95
267.38	31.57
267.596	35.67
267.812	-13.48
268.028	9.05
268.244	-15.53
268.46	-44.2
268.676	27.48
268.892	25.43
269.108	-29.87
269.324	23.38
269.54	-76.97
269.756	72.53
269.972	19.29
270.188	-17.58
270.403	54.1
270.619	33.62
270.835	11.09
271.051	4.95
271.267	11.09
271.483	27.48
271.698	29.52
271.914	86.87
272.13	19.29
272.346	0.85
272.562	-60.59
272.777	29.52
272.993	-25.77
273.209	54.1
273.425	-68.78
273.64	0.85
273.856	62.29
274.072	-103.59
274.287	27.48
274.503	23.38
274.719	64.34
274.934	0.85
275.15	-60.59
275.366	13.14
275.581	-52.39
275.797	25.43
276.012	-7.34
276.228	11.09
276.444	29.52
276.659	37.72
276.875	60.24
277.09	-52.39
277.306	-58.54
277.521	2.9
277.737	-44.2
277.952	50
278.168	-29.87
278.383	-19.63
278.599	-11.43
278.814	-13.48
279.03	21.33
279.245	19.29
279.461	27.48
279.676	21.33
279.892	39.76
280.107	25.43
280.322	-36.01
280.538	60.24
280.753	50
280.969	-31.91
281.184	-5.29
281.399	-40.11
281.615	-25.77
281.83	23.38
282.045	-68.78
282.26	47.96
282.476	41.81
282.691	35.67
282.906	-15.53
283.122	21.33
283.337	-58.54
283.552	105.3
283.767	11.09
283.983	47.96
284.198	27.48
284.413	17.24
284.628	-7.34
284.843	-42.15
285.058	-25.77
285.274	-17.58
285.489	-62.63
285.704	2.9
285.919	50
286.134	27.48
286.349	-5.29
286.564	-64.68
286.779	60.24
286.995	-9.39
287.21	-42.15
287.425	70.48
287.64	9.05
287.855	-58.54
288.07	-31.91
288.285	-23.72
288.5	9.05
288.715	21.33
288.93	82.77
289.145	39.76
289.36	2.9
289.575	-11.43
289.79	86.87
290.004	50
290.219	-29.87
290.434	111.44
290.649	56.15
290.864	23.38
291.079	23.38
291.294	-33.96
291.509	-9.39
291.724	50
291.938	27.48
292.153	-5.29
292.368	7
292.583	9.05
292.798	37.72
293.012	-7.34
293.227	-1.19
293.442	35.67
293.657	13.14
293.871	-7.34
294.086	25.43
294.301	78.68
294.516	-13.48
294.73	-27.82
294.945	31.57
295.16	-5.29
295.374	31.57
295.589	35.67
295.804	-21.67
296.018	-19.63
296.233	19.29
296.447	56.15
296.662	-68.78
296.877	9.05
297.091	11.09
297.306	-56.49
297.52	31.57
297.735	7
297.949	9.05
298.164	-1.19
298.378	13.14
298.593	25.43
298.807	25.43
299.022	90.96
299.236	41.81
299.451	-11.43
299.665	39.76
299.88	111.44
300.094	52.05
300.309	84.82
300.523	21.33
300.737	-3.24
300.952	-29.87
301.166	11.09
301.381	-21.67
301.595	0.85
301.809	-7.34
302.024	7
302.238	35.67
302.452	39.76
302.667	-79.02
302.881	29.52
303.095	-13.48
303.309	-13.48
303.524	-19.63
303.738	-36.01
303.952	9.05
304.166	-17.58
304.381	-44.2
304.595	27.48
304.809	80.72
305.023	-7.34
305.237	-31.91
305.452	0.85
305.666	66.39
305.88	7
306.094	-11.43
306.308	4.95
306.522	47.96
306.736	4.95
306.95	9.05
307.164	15.19
307.379	-29.87
307.593	72.53
307.807	-1.19
308.021	0.85
308.235	0.85
308.449	-7.34
308.663	-42.15
308.877	72.53
309.091	-3.24
309.305	35.67
309.519	93.01
309.733	-17.58
309.947	27.48
310.161	37.72
310.374	74.58
310.588	-29.87
310.802	-62.63
311.016	52.05
311.23	-19.63
311.444	17.24
311.658	47.96
311.872	-31.91
312.085	15.19
312.299	27.48
312.513	41.81
312.727	9.05
312.941	11.09
313.154	-36.01
313.368	62.29
313.582	-7.34
313.796	60.24
314.009	52.05
314.223	-38.06
314.437	25.43
314.651	64.34
314.864	-19.63
315.078	66.39
315.292	-9.39
315.505	-23.72
315.719	-50.35
315.933	-3.24
316.146	-11.43
316.36	35.67
316.573	70.48
316.787	11.09
317.001	15.19
317.214	47.96
317.428	111.44
317.641	15.19
317.855	-3.24
318.068	27.48
318.282	31.57
318.495	56.15
318.709	54.1
318.922	-7.34
319.136	84.82
319.349	103.25
319.563	0.85
319.776	29.52
319.99	-33.96
320.203	-9.39
320.417	29.52
320.63	-1.19
320.843	54.1
321.057	-13.48
321.27	19.29
321.483	66.39
321.697	4.95
321.91	-9.39
322.124	15.19
322.337	11.09
322.55	-5.29
322.763	-31.91
322.977	21.33
323.19	62.29
323.403	-7.34
323.617	-7.34
323.83	52.05
324.043	21.33
324.256	41.81
324.469	-13.48
324.683	45.91
324.896	27.48
325.109	-72.87
325.322	-5.29
325.535	54.1
325.748	45.91
325.962	31.57
326.175	17.24
326.388	-23.72
326.601	25.43
326.814	-29.87
327.027	-25.77
327.24	66.39
327.453	-5.29
327.666	101.2
327.879	4.95
328.092	37.72
328.305	29.52
328.518	-13.48
328.731	15.19
328.944	64.34
329.157	21.33
329.37	21.33
329.583	15.19
329.796	39.76
330.009	39.76
330.222	31.57
330.435	60.24
330.648	9.05
330.861	-48.3
331.073	54.1
331.286	-27.82
331.499	72.53
331.712	-9.39
331.925	70.48
332.138	45.91
332.35	33.62
332.563	27.48
332.776	-3.24
332.989	31.57
333.202	45.91
333.414	2.9
333.627	29.52
333.84	78.68
334.053	27.48
334.265	-5.29
334.478	-36.01
334.691	103.25
334.903	13.14
335.116	41.81
335.329	37.72
335.541	19.29
335.754	76.63
335.966	29.52
336.179	19.29
336.392	-11.43
336.604	35.67
336.817	29.52
337.029	13.14
337.242	-11.43
337.454	-11.43
337.667	56.15
337.88	52.05
338.092	35.67
338.305	4.95
338.517	-15.53
338.729	50
338.942	31.57
339.154	-62.63
339.367	35.67
339.579	56.15
339.792	-9.39
340.004	37.72
340.217	60.24
340.429	41.81
340.641	-11.43
340.854	21.33
341.066	31.57
341.278	35.67
341.491	70.48
341.703	19.29
341.915	-15.53
342.128	35.67
342.34	107.35
342.552	-23.72
342.764	-85.16
342.977	17.24
343.189	-5.29
343.401	17.24
343.613	13.14
343.826	-23.72
344.038	25.43
344.25	13.14
344.462	-9.39
344.674	45.91
344.886	17.24
345.099	0.85
345.311	31.57
345.523	35.67
345.735	-27.82
345.947	0.85
346.159	9.05
346.371	54.1
346.583	17.24
346.795	45.91
347.007	-7.34
347.219	33.62
347.431	-9.39
347.643	23.38
347.855	23.38
348.067	17.24
348.279	37.72
348.491	47.96
348.703	78.68
348.915	27.48
349.127	-58.54
349.339	19.29
349.551	13.14
349.763	15.19
349.975	41.81
350.187	-13.48
350.399	37.72
350.61	15.19
350.822	17.24
351.034	33.62
351.246	27.48
351.458	43.86
351.669	-64.68
351.881	64.34
352.093	21.33
352.305	107.35
352.517	7
352.728	70.48
352.94	-27.82
353.152	52.05
353.363	31.57
353.575	52.05
353.787	27.48
353.999	-7.34
354.21	58.2
354.422	15.19
354.633	103.25
354.845	50
355.057	-25.77
355.268	35.67
355.48	93.01
355.692	7
355.903	93.01
356.115	52.05
356.326	33.62
356.538	78.68
356.749	4.95
356.961	68.44
357.172	-15.53
357.384	17.24
357.595	70.48
357.807	66.39
358.018	39.76
358.23	17.24
358.441	15.19
358.653	4.95
358.864	23.38
359.075	19.29
359.287	25.43
359.498	99.16
359.709	142.16
359.921	41.81
360.132	15.19
360.344	11.09
360.555	15.19
360.766	21.33
360.977	-5.29
361.189	109.4
361.4	68.44
361.611	4.95
361.823	60.24
362.034	-15.53
362.245	11.09
362.456	39.76
362.667	60.24
362.879	15.19
363.09	9.05
363.301	31.57
363.512	88.92
363.723	50
363.935	47.96
364.146	99.16
364.357	-31.91
364.568	39.76
364.779	7
364.99	33.62
365.201	27.48
365.412	99.16
365.623	-19.63
365.834	27.48
366.045	-27.82
366.256	31.57
366.467	-44.2
366.678	-25.77
366.889	-9.39
367.1	56.15
367.311	-21.67
367.522	33.62
367.733	58.2
367.944	58.2
368.155	-27.82
368.366	15.19
368.577	62.29
368.788	-31.91
368.999	45.91
369.209	11.09
369.42	70.48
369.631	15.19
369.842	-7.34
370.053	2.9
370.264	9.05
370.474	31.57
370.685	43.86
370.896	-70.83
371.107	64.34
371.317	31.57
371.528	35.67
371.739	93.01
371.95	7
372.16	9.05
372.371	62.29
372.582	-3.24
372.792	9.05
373.003	33.62
373.214	-19.63
373.424	43.86
373.635	9.05
373.846	11.09
374.056	90.96
374.267	11.09
374.477	41.81
374.688	39.76
374.898	-13.48
375.109	33.62
375.319	11.09
375.53	-3.24
375.74	76.63
375.951	-15.53
376.161	25.43
376.372	39.76
376.582	33.62
376.793	76.63
377.003	43.86
377.214	33.62
377.424	0.85
377.635	27.48
377.845	-1.19
378.055	109.4
378.266	74.58
378.476	27.48
378.686	7
378.897	-7.34
379.107	-31.91
379.317	84.82
379.528	-42.15
379.738	17.24
379.948	-21.67
380.158	15.19
380.369	72.53
380.579	15.19
380.789	39.76
380.999	-1.19
381.21	74.58
381.42	-1.19
381.63	21.33
381.84	56.15
382.05	35.67
382.261	107.35
382.471	64.34
382.681	-5.29
382.891	0.85
383.101	19.29
383.311	-42.15
383.521	99.16
383.731	45.91
383.941	62.29
384.151	37.72
384.361	39.76
384.571	-21.67
384.781	58.2
384.991	39.76
385.201	41.81
385.411	82.77
385.621	111.44
385.831	19.29
386.041	11.09
386.251	-5.29
386.461	93.01
386.671	27.48
386.881	72.53
387.091	33.62
387.301	68.44
387.511	25.43
387.72	107.35
387.93	2.9
388.14	64.34
388.35	39.76
388.56	111.44
388.769	-17.58
388.979	52.05
389.189	37.72
389.399	62.29
389.609	17.24
389.818	-3.24
390.028	45.91
390.238	101.2
390.447	62.29
390.657	27.48
390.867	37.72
391.076	15.19
391.286	82.77
391.496	31.57
391.705	7
391.915	27.48
392.125	7
392.334	41.81
392.544	56.15
392.753	11.09
392.963	-3.24
393.172	50
393.382	-23.72
393.591	58.2
393.801	33.62
394.01	-5.29
394.22	86.87
394.429	52.05
394.639	66.39
394.848	62.29
395.058	119.64
395.267	13.14
395.477	50
395.686	86.87
395.895	125.78
396.105	105.3
396.314	2.9
396.524	52.05
396.733	54.1
396.942	152.4
397.152	23.38
397.361	54.1
397.57	90.96
397.78	121.68
397.989	31.57
398.198	131.92
398.407	127.83
398.617	97.11
398.826	43.86
399.035	146.26
399.244	86.87
399.453	179.03
399.663	66.39
399.872	148.31
400.081	93.01
400.29	193.36
400.499	111.44
400.708	109.4
400.917	39.76
401.127	107.35
401.336	146.26
401.545	121.68
401.754	121.68
401.963	76.63
402.172	136.02
402.381	136.02
402.59	107.35
402.799	78.68
403.008	185.17
403.217	74.58
403.426	152.4
403.635	90.96
403.844	121.68
404.053	142.16
404.262	111.44
404.471	90.96
404.68	187.22
404.888	133.97
405.097	176.98
405.306	191.31
405.515	111.44
405.724	172.88
405.933	195.41
406.142	133.97
406.35	164.69
406.559	217.94
406.768	136.02
406.977	215.89
407.185	213.84
407.394	226.13
407.603	211.79
407.812	179.03
408.02	201.55
408.229	193.36
408.438	254.8
408.646	252.75
408.855	219.99
409.064	295.76
409.272	303.95
409.481	344.91
409.69	228.18
409.898	285.52
410.107	209.75
410.315	346.96
410.524	365.39
410.733	426.83
410.941	281.43
411.15	357.2
411.358	394.06
411.567	486.22
411.775	443.21
411.984	385.87
412.192	383.82
412.401	488.27
412.609	521.04
412.818	541.52
413.026	541.52
413.234	518.99
413.443	488.27
413.651	549.71
413.86	498.51
414.068	650.06
414.276	656.2
414.485	709.45
414.693	652.11
414.901	684.87
415.11	830.28
415.318	758.6
415.526	762.7
415.734	869.19
415.943	846.66
416.151	959.3
416.359	885.58
416.567	936.78
416.776	973.64
416.984	1096.52
417.192	1041.22
417.4	1127.24
417.608	1008.45
417.817	1135.43
418.025	1180.48
418.233	1383.23
418.441	1342.27
418.649	1284.93
418.857	1303.36
419.065	1473.34
419.273	1385.28
419.481	1409.86
419.689	1600.32
419.897	1612.6
420.105	1715
420.313	1702.72
420.521	1819.45
420.729	1758.01
420.937	1821.5
421.145	1848.12
421.353	2132.79
421.561	2104.12
421.769	2212.66
421.977	2214.71
422.185	2241.33
422.393	2413.36
422.601	2489.14
422.809	2497.33
423.017	2478.9
423.224	2569.01
423.432	2800.43
423.64	2734.89
423.848	3087.14
424.056	2976.55
424.263	3248.93
424.471	3175.2
424.679	3281.7
424.887	3420.96
425.094	3380
425.302	3552.03
425.51	3640.09
425.718	3775.26
425.925	3986.2
426.133	3998.49
426.341	4154.13
426.548	4442.9
426.756	4393.75
426.964	4602.64
427.171	4819.72
427.379	4856.59
427.586	4969.23
427.794	5104.39
428.001	5448.45
428.209	5638.91
428.417	5434.11
428.624	5782.27
428.832	5847.8
429.039	5765.89
429.247	5694.21
429.454	6318.84
429.662	6722.29
429.869	6388.47
430.076	6703.86
430.284	6703.86
430.491	6941.42
430.699	7344.87
430.906	7129.83
431.114	7432.93
431.321	7617.25
431.528	7713.5
431.736	8508.12
431.943	8651.47
432.15	8542.93
432.358	8583.89
432.565	9149.13
432.772	8962.76
432.979	9585.35
433.187	9788.1
433.394	9728.7
433.601	10365.62
433.808	10347.19
434.016	10287.8
434.223	10654.39
434.43	11416.23
434.637	11104.94
434.844	12012.19
435.052	12321.43
435.259	12055.2
435.466	12456.6
435.673	12012.19
435.88	13019.79
436.087	13365.9
436.294	13492.87
436.501	13367.95
436.708	13476.49
436.915	14002.82
437.122	14699.13
437.329	14678.65
437.537	15186.54
437.743	15262.32
437.95	15272.56
438.157	16267.87
438.364	16443.99
438.571	16284.25
438.778	16472.67
438.985	17914.44
439.192	17402.44
439.399	18115.14
439.606	17650.25
439.813	18596.41
440.02	19819.05
440.227	19579.43
440.433	19386.93
440.64	19843.62
440.847	19800.62
441.054	20412.96
441.261	21146.13
441.467	21228.05
441.674	21895.69
441.881	22387.2
442.088	22514.17
442.294	22454.78
442.501	22731.26
442.708	23679.47
442.914	24361.44
443.121	25545.17
443.328	24809.95
443.534	26218.95
443.741	25651.66
443.948	25256.4
444.154	27193.78
444.361	27001.27
444.568	27048.38
444.774	27152.82
444.981	27361.72
445.187	28256.68
445.394	29231.51
445.6	29555.09
445.807	32014.7
446.013	30726.53
446.22	31209.85
446.426	32381.29
446.633	32835.94
446.839	33919.31
447.046	32375.14
447.252	34083.15
447.459	34494.79
447.665	34261.32
447.871	35713.33
448.078	36823.33
448.284	35356.99
448.491	35961.14
448.697	37523.74
448.903	38246.67
449.11	38285.58
449.316	37632.28
449.522	38410.51
449.728	39364.86
449.935	39913.72
450.141	39774.45
450.347	40552.68
450.553	39282.94
450.76	39878.9
450.966	41224.42
451.172	40524.01
451.378	41701.59
451.584	40870.12
451.791	41601.24
451.997	41621.72
452.203	42332.37
452.409	42139.86
452.615	41824.47
452.821	40458.48
453.027	39792.89
453.233	42227.92
453.44	40315.12
453.646	41220.32
453.852	40767.72
454.058	41709.78
454.264	40177.9
454.47	41232.61
454.676	40333.55
454.882	41216.22
455.088	37957.91
455.294	38512.91
455.5	38449.42
455.705	39407.87
455.911	37601.56
456.117	37130.53
456.323	36155.69
456.529	34562.37
456.735	36141.36
456.941	35125.57
457.147	34681.16
457.352	33141.08
457.558	32858.46
457.764	33169.76
457.97	32575.84
458.176	31779.18
458.381	31490.42
458.587	30173.58
458.793	30261.64
458.999	28570.02
459.204	30521.73
459.41	29295
459.616	27466.16
459.821	27879.85
460.027	27931.05
460.233	26964.41
460.438	25653.71
460.644	25995.72
460.85	24826.33
461.055	24377.83
461.261	24263.14
461.466	22604.28
461.672	21801.48
461.878	23673.32
462.083	21608.97
462.289	21740.04
462.494	20970.01
462.7	20421.15
462.905	19741.22
463.111	20400.67
463.316	20455.97
463.522	20083.23
463.727	20167.2
463.932	19843.62
464.138	19696.17
464.343	20120.1
464.549	19401.26
464.754	20085.28
464.959	19933.73
465.165	19573.29
465.37	18952.76
465.575	18377.28
465.781	19051.06
465.986	19081.78
466.191	18592.31
466.397	18199.1
466.602	17254.99
466.807	17830.47
467.012	17930.82
467.218	17705.54
467.423	17316.43
467.628	17562.19
467.833	18352.7
468.038	18004.55
468.244	17377.87
468.449	17932.87
468.654	17160.78
468.859	17295.95
469.064	17054.29
469.269	16396.89
469.474	16497.24
469.679	17033.81
469.885	16280.16
470.09	16884.31
470.295	16562.78
470.5	16335.45
470.705	16077.41
470.91	15843.94
471.115	15680.1
471.32	15997.54
471.525	15592.04
471.73	15268.46
471.935	15278.7
472.139	14746.23
472.344	14848.63
472.549	14957.17
472.754	14830.2
472.959	14314.11
473.164	13828.74
473.369	13568.65
473.574	14527.1
473.778	14287.48
473.983	14170.75
474.188	14035.58
474.393	13406.86
474.598	13544.07
474.802	13443.72
475.007	13304.46
475.212	13183.63
475.417	12640.92
475.621	12720.79
475.826	12974.74
476.031	12651.16
476.235	12444.31
476.44	12505.75
476.645	12354.2
476.849	12290.71
477.054	12042.91
477.259	12004
477.463	11817.63
477.668	11592.36
477.872	11803.3
478.077	11485.86
478.282	11246.25
478.486	11219.63
478.691	11260.59
478.895	11281.07
479.1	10920.62
479.304	11018.93
479.509	10732.21
479.713	10959.53
479.918	10595
480.122	10406.58
480.326	10736.31
480.531	10683.06
480.735	10347.19
480.94	10177.21
481.144	10676.91
481.348	10445.49
481.553	10513.08
481.757	10320.57
481.961	10384.05
482.166	10394.29
482.37	10590.9
482.574	10158.78
482.778	10341.05
482.983	10242.75
483.187	10160.83
483.391	10525.36
483.595	10136.25
483.8	9980.61
484.004	10255.03
484.208	10388.15
484.412	10169.02
484.616	10267.32
484.821	10250.94
485.025	10023.61
485.229	10263.22
485.433	10234.55
485.637	10126.01
485.841	10103.48
486.045	9990.84
486.249	10146.49
486.453	10232.51
486.657	10105.53
486.861	10275.51
487.065	9958.08
487.269	10040
487.473	9874.11
487.677	10375.86
487.881	10289.85
488.085	10298.04
488.289	10164.92
488.493	10117.82
488.697	10353.34
488.901	10187.45
489.105	10287.8
489.309	10248.89
489.512	10334.9
489.716	10193.59
489.92	10375.86
490.124	10451.64
490.328	10488.5
490.531	10433.21
490.735	10396.34
490.939	10625.72
491.143	10490.55
491.346	10388.15
491.55	10549.94
491.754	10644.15
491.958	10734.26
492.161	10781.36
492.365	10670.77
492.569	10640.05
492.772	10662.58
492.976	10709.68
493.18	10887.86
493.383	11059.88
493.587	11111.08
493.79	11186.86
493.994	10904.24
494.197	11047.6
494.401	11201.19
494.605	11094.7
494.808	11506.34
495.012	11205.29
495.215	11467.43
495.419	11637.41
495.622	11625.12
495.825	11793.06
496.029	11702.95
496.232	11917.98
496.436	11899.55
496.639	12157.6
496.843	12047.01
497.046	12212.89
497.249	12659.35
497.453	12583.57
497.656	12827.28
497.859	12794.51
498.063	12890.77
498.266	13206.16
498.469	13177.48
498.673	13091.47
498.876	13349.51
499.079	13621.89
499.282	13417.1
499.485	14041.73
499.689	13884.03
499.892	14074.49
500.095	14183.04
500.298	14373.5
500.501	14127.74
500.705	14824.05
500.908	14865.01
501.111	15155.82
501.314	15315.56
501.517	15252.08
501.72	15589.99
501.923	15377
502.126	15929.95
502.329	16149.09
502.532	16003.68
502.735	16173.66
502.938	16550.49
503.141	16624.22
503.344	17015.38
503.547	16646.74
503.75	17371.72
503.953	17379.92
504.156	17459.79
504.359	17877.57
504.562	17758.79
504.765	18051.65
504.968	18379.32
505.17	18336.32
505.373	18473.53
505.576	18889.27
505.779	19337.77
505.982	19161.65
506.185	19581.48
506.387	19374.64
506.59	19563.05
506.793	20001.32
506.996	19909.16
507.198	20410.91
507.401	20503.07
507.604	20601.37
507.807	21434.89
508.009	21162.51
508.212	21373.46
508.415	21625.36
508.617	21746.19
508.82	21973.51
509.022	21879.3
509.225	22858.23
509.428	22729.21
509.63	22835.7
509.833	22872.57
510.035	23210.48
510.238	23316.98
510.44	23826.92
510.643	24029.67
510.845	24072.68
511.048	24283.62
511.25	24451.55
511.453	24461.79
511.655	25469.39
511.858	25143.77
512.06	25442.77
512.262	25510.35
512.465	25684.43
512.667	26069.45
512.87	26268.1
513.072	26276.29
513.274	26753.47
513.477	27003.32
513.679	27210.17
513.881	27398.58
514.084	27990.44
514.286	27996.59
514.488	27752.88
514.69	28561.83
514.893	28451.24
515.095	28844.45
515.297	29297.05
515.499	29344.15
515.701	29555.09
515.904	29677.97
516.106	29983.12
516.308	30374.28
516.51	30724.48
516.712	30574.98
516.914	31191.42
517.116	31361.4
517.318	31250.81
517.52	31498.61
517.722	31727.99
517.925	32250.22
518.127	32461.16
518.329	32629.09
518.531	32235.88
518.733	33374.55
518.935	33597.78
519.136	33632.6
519.338	34001.23
519.54	34093.39
519.742	34566.47
519.944	34521.41
520.146	34779.46
520.348	35021.12
520.55	35412.28
520.752	35795.25
520.954	36051.25
521.155	35848.5
521.357	36403.5
521.559	36354.35
521.761	36596.01
521.963	36800.8
522.164	36895.01
522.366	37425.43
522.568	37628.18
522.77	37933.33
522.971	38406.41
523.173	37970.19
523.375	38273.29
523.576	38496.52
523.778	38152.46
523.98	39252.22
524.181	39622.9
524.383	39205.12
524.584	39594.23
524.786	39416.06
524.988	39311.61
525.189	40259.82
525.391	40098.03
525.592	40300.78
525.794	40579.31
525.995	40829.16
526.197	40542.44
526.398	40964.32
526.6	41162.98
526.801	41013.48
527.003	41539.8
527.204	41169.12
527.406	41351.39
527.607	41623.77
527.808	41988.31
528.01	41564.38
528.211	41586.91
528.412	42856.65
528.614	42445.01
528.815	41973.97
529.016	42766.54
529.218	42449.1
529.419	42246.35
529.62	42664.14
529.822	42561.74
530.023	42574.03
530.224	42688.71
530.425	42723.53
530.626	42459.34
530.828	42221.78
531.029	43292.86
531.23	42692.81
531.431	42709.19
531.632	43296.96
531.833	43288.77
532.035	43075.78
532.236	43118.79
532.437	42975.43
532.638	42983.62
532.839	43315.39
533.04	43532.48
533.241	43122.88
533.442	43626.68
533.643	42811.59
533.844	43217.09
534.045	43368.64
534.246	43137.22
534.447	43372.74
534.648	43327.68
534.849	43544.76
535.05	42690.76
535.251	43421.89
535.451	43634.88
535.652	43575.48
535.853	43186.37
536.054	43327.68
536.255	43237.57
536.456	43157.7
536.657	43673.79
536.857	43380.93
537.058	43229.38
537.259	43585.72
537.46	43546.81
537.66	43262.15
537.861	43335.87
538.062	43335.87
538.263	43520.19
538.463	43409.6
538.664	42940.61
538.865	43256
539.065	43706.55
539.266	42899.65
539.466	43794.62
539.667	42854.6
539.868	43540.67
540.068	42946.76
540.269	43301.06
540.469	43716.79
540.67	43088.07
540.87	43245.76
541.071	42959.05
541.271	43319.49
541.472	43077.83
541.672	43096.26
541.873	42854.6
542.073	42344.66
542.274	43505.85
542.474	43274.43
542.675	42791.11
542.875	42965.19
543.075	43296.96
543.276	42467.53
543.476	43589.82
543.676	42594.51
543.877	42879.18
544.077	42815.69
544.277	42897.61
544.478	43137.22
544.678	43366.59
544.878	42957
545.078	42918.09
545.279	42639.56
545.479	42471.63
545.679	43139.27
545.879	42862.79
546.079	42504.4
546.28	42756.3
546.48	42338.51
546.68	42868.94
546.88	42647.75
547.08	42596.56
547.28	42479.82
547.48	42410.19
547.68	42442.96
547.88	42496.2
548.081	42950.85
548.281	42668.23
548.481	42657.99
548.681	43094.21
548.881	42545.36
549.081	42617.04
549.28	42561.74
549.48	42610.89
549.68	42668.23
549.88	43108.55
550.08	42315.98
550.28	42426.57
550.48	42436.81
550.68	42782.92
550.88	42354.9
551.08	42402
551.279	42305.74
551.479	41947.35
551.679	42428.62
551.879	42295.5
552.079	42488.01
552.278	42135.76
552.478	42369.23
552.678	42189.01
552.878	42522.83
553.077	42223.83
553.277	42232.02
553.477	42551.5
553.676	41724.12
553.876	42348.75
554.076	42041.56
554.275	42121.43
554.475	41920.73
554.674	42148.05
554.874	42109.14
555.074	41738.46
555.273	42299.6
555.473	42193.11
555.672	41500.89
555.872	41865.43
556.071	41769.18
556.271	42100.95
556.47	41447.64
556.67	41345.25
556.869	41683.16
557.068	41947.35
557.268	41496.8
557.467	41736.41
557.667	41494.75
557.866	41572.57
558.065	41394.4
558.265	41220.32
558.464	41273.57
558.663	41541.85
558.863	41085.15
559.062	41613.53
559.261	41273.57
559.461	41253.09
559.66	40911.08
559.859	41310.43
560.058	40765.67
560.258	41140.45
560.457	40745.19
560.656	41232.61
560.855	40440.04
561.054	40808.68
561.253	40743.14
561.453	40679.66
561.652	40761.58
561.851	40949.99
562.05	40655.08
562.249	40349.93
562.448	40949.99
562.647	40274.16
562.846	40325.36
563.045	40679.66
563.244	40290.54
563.443	40716.52
563.642	40042.74
563.841	40106.23
564.04	39833.85
564.239	40421.61
564.438	39567.61
564.637	39805.17
564.836	39883
565.035	39547.13
565.234	39340.29
565.432	39522.55
565.631	39387.39
565.83	39436.54
566.029	39178.5
566.228	39194.88
566.427	39080.19
566.625	38803.72
566.824	38598.92
567.023	39155.97
567.222	38557.96
567.42	39188.74
567.619	38875.4
567.818	38678.79
568.016	38379.79
568.215	38504.71
568.414	38347.02
568.612	38535.43
568.811	38254.86
569.01	38201.61
569.208	38215.95
569.407	38316.3
569.605	37875.99
569.804	38048.02
570.002	37918.99
570.201	37835.03
570.4	37476.63
570.598	37599.51
570.797	37386.52
570.995	37599.51
571.193	37343.52
571.392	37890.32
571.59	37048.61
571.789	37314.84
571.987	36864.29
572.186	37191.97
572.384	36929.83
572.582	36684.07
572.781	37077.28
572.979	36620.58
573.177	36643.11
573.376	36757.8
573.574	36319.53
573.772	36397.35
573.971	36319.53
574.169	36118.83
574.367	36247.85
574.565	36612.39
574.763	36122.93
574.962	35592.5
575.16	35588.41
575.358	35985.71
575.556	35655.99
575.754	35952.94
575.952	35596.6
576.151	35625.27
576.349	35293.5
576.547	35258.68
576.745	35369.27
576.943	35338.55
577.141	35258.68
577.339	35236.16
577.537	34836.8
577.735	35060.03
577.933	34597.19
578.131	35211.58
578.329	34181.45
578.527	34388.3
578.725	34341.19
578.923	34926.91
579.121	34222.41
579.319	34091.34
579.516	34160.97
579.714	34142.54
579.912	33603.92
580.11	33812.82
580.308	34085.2
580.506	33806.67
580.704	33110.36
580.901	33417.56
581.099	33859.92
581.297	33610.07
581.495	33233.24
581.692	33491.29
581.89	32776.55
582.088	33177.95
582.285	33169.76
582.483	33038.69
582.681	33022.3
582.878	32401.77
583.076	32452.97
583.274	33175.9
583.471	32242.03
583.669	32473.45
583.866	32059.76
584.064	32455.01
584.262	32090.48
584.459	32237.93
584.657	31902.06
584.854	32649.57
585.052	31617.39
585.249	31865.2
585.447	31947.12
585.644	31463.8
585.841	31623.54
586.039	31764.85
586.236	31453.56
586.434	31103.35
586.631	31371.64
586.828	31029.63
587.026	30814.59
587.223	31291.77
587.42	30687.62
587.618	30939.52
587.815	30388.61
588.012	30591.36
588.21	30427.53
588.407	30552.45
588.604	30452.1
588.801	30390.66
588.999	30327.17
589.196	30173.58
589.393	30196.1
589.59	30079.37
589.787	29694.35
589.984	29890.96
590.182	29464.98
590.379	29686.16
590.576	29264.28
590.773	29538.71
590.97	29303.19
591.167	29239.7
591.364	29020.57
591.561	29217.18
591.758	28832.16
591.955	28826.01
592.152	29022.62
592.349	28746.14
592.546	28848.54
592.743	28811.68
592.94	28199.34
593.137	28570.02
593.334	28264.87
593.531	28035.5
593.727	28228.01
593.924	28494.24
594.121	27922.86
594.318	28320.17
594.515	27773.36
594.712	28066.22
594.908	27691.44
595.105	28043.69
595.302	27384.24
595.499	27498.93
595.696	27201.97
595.892	26900.92
596.089	27552.18
596.286	27075
596.482	27169.21
596.679	26993.08
596.876	26964.41
597.072	26655.17
597.269	26673.6
597.466	26845.63
597.662	26227.14
597.859	26765.76
598.055	26730.94
598.252	26403.27
598.448	26507.71
598.645	26415.55
598.841	26196.42
599.038	26280.39
599.234	26321.35
599.431	25616.85
599.627	25676.24
599.824	25692.62
600.02	25598.41
600.217	25594.32
600.413	25590.22
600.609	25385.43
600.806	25309.65
601.002	25432.53
601.198	24961.5
601.395	25063.89
601.591	24986.07
601.787	25024.98
601.984	24920.54
602.18	25190.87
602.376	24570.33
602.572	24506.85
602.769	24617.44
602.965	24318.43
603.161	24508.9
603.357	23957.99
603.553	24336.87
603.75	24107.49
603.946	24119.78
604.142	24033.77
604.338	23718.38
604.534	23921.13
604.73	23810.54
604.926	23620.08
605.122	23480.82
605.318	23871.98
605.514	23489.01
605.71	23398.9
605.906	23333.36
606.102	23372.27
606.298	23288.31
606.494	23359.98
606.69	23513.58
606.886	23538.16
607.082	22761.98
607.278	23276.02
607.474	22639.1
607.67	23091.7
607.866	22575.61
608.062	22966.77
608.257	22587.9
608.453	22725.11
608.649	22737.4
608.845	22589.95
609.041	22751.74
609.236	22718.97
609.432	22182.4
609.628	22471.17
609.824	22002.18
610.019	22159.88
610.215	22112.77
610.411	22268.42
610.606	22057.48
610.802	22141.44
610.998	22020.61
611.193	22008.33
611.389	21893.64
611.584	21805.58
611.78	21613.07
611.976	21912.07
612.171	21754.38
612.367	21598.73
612.562	21545.48
612.758	21383.7
612.953	21213.71
613.149	21834.25
613.344	21160.47
613.539	21842.44
613.735	21383.7
613.93	21426.7
614.126	21383.7
614.321	21500.43
614.517	21238.29
614.712	21178.9
614.907	20955.67
615.103	21244.43
615.298	21049.88
615.493	21072.4
615.688	20881.94
615.884	21275.15
616.079	20625.95
616.274	21031.44
616.47	20757.02
616.665	20759.06
616.86	20724.25
617.055	20853.27
617.25	20533.79
617.445	20501.02
617.641	20443.68
617.836	20757.02
618.031	20185.63
618.226	20427.29
618.421	19937.83
618.616	20703.77
618.811	20107.81
619.006	20171.3
619.201	19778.09
619.396	19831.33
619.591	19581.48
619.786	19685.93
619.981	19345.97
620.176	19649.07
620.371	19272.24
620.566	19300.91
620.761	19339.82
620.956	19423.79
621.151	19049.01
621.346	19034.67
621.541	18635.32
621.735	19014.2
621.93	18745.91
622.125	18692.66
622.32	18500.16
622.515	18459.2
622.709	18586.17
622.904	18215.49
623.099	18111.04
623.294	18489.92
623.488	17865.28
623.683	18088.51
623.878	17683.02
624.072	17746.5
624.267	17652.3
624.462	17660.49
624.656	17390.16
624.851	17369.68
625.046	17199.69
625.24	17156.69
625.435	17228.37
625.629	16921.17
625.824	16886.36
626.018	16996.95
626.213	16603.74
626.407	17009.23
626.602	16302.68
626.796	16585.3
626.991	16515.67
627.185	16267.87
627.38	16298.59
627.574	16177.76
627.768	15903.33
627.963	15923.81
628.157	15649.38
628.352	16026.21
628.546	15743.59
628.74	15794.79
628.935	15389.29
629.129	15577.7
629.323	15446.63
629.517	15262.32
629.712	15098.48
629.906	14983.79
630.1	14799.48
630.294	14994.03
630.489	14819.96
630.683	14873.2
630.877	14539.38
631.071	14602.87
631.265	14649.97
631.459	14420.6
631.653	14412.41
631.848	14359.16
632.042	14275.2
632.236	14238.33
632.43	14097.02
632.624	13906.56
632.818	13963.9
633.012	13970.05
633.206	13916.8
633.4	13722.24
633.594	13632.13
633.788	13546.12
633.982	13603.46
634.176	13605.51
634.369	13337.23
634.563	13365.9
634.757	13159.05
634.951	13308.55
635.145	13265.55
635.339	13066.89
635.533	12874.38
635.726	12952.21
635.92	12597.91
636.114	12814.99
636.308	12653.2
636.501	12886.67
636.695	12653.2
636.889	12413.59
637.083	12397.21
637.276	12319.39
637.47	12311.19
637.664	12128.92
637.857	12157.6
638.051	12327.58
638.244	12216.99
638.438	11881.12
638.632	11907.74
638.825	11680.42
639.019	11913.89
639.212	11700.9
639.406	11535.01
639.599	11553.45
639.793	11465.38
639.986	11377.32
640.18	11338.41
640.373	11317.93
640.567	11229.87
640.76	11076.27
640.954	11184.81
641.147	11256.49
641.34	10764.98
641.534	11012.78
641.727	10801.84
641.92	10891.95
642.114	10678.96
642.307	10560.18
642.5	10709.68
642.694	10443.45
642.887	10435.25
643.08	10535.6
643.273	10461.88
643.467	10496.69
643.66	10228.41
643.853	10173.11
644.046	10123.96
644.239	10437.3
644.432	10103.48
644.626	9992.89
644.819	9988.8
645.012	9841.34
645.205	9931.45
645.398	9851.58
645.591	9816.77
645.784	9947.84
645.977	9497.28
646.17	9759.42
646.363	9593.54
646.556	9401.03
646.749	9478.85
646.942	9489.09
647.135	9403.08
647.328	9237.19
647.521	9349.83
647.714	8985.29
647.907	9124.55
648.099	9093.83
648.292	9161.42
648.485	8985.29
648.678	8932.05
648.871	8999.63
649.064	8915.66
649.256	8975.05
649.449	8907.47
649.642	8698.58
649.835	8688.34
650.027	8536.79
650.22	8692.43
650.413	8352.47
650.605	8504.02
650.798	8590.03
650.991	8331.99
651.183	8542.93
651.376	8192.73
651.568	8288.98
651.761	8405.72
651.954	8190.68
652.146	8182.49
652.339	7985.88
652.531	8106.71
652.724	7899.87
652.916	7971.55
653.109	7961.31
653.301	7942.88
653.494	7875.29
653.686	7744.22
653.879	7940.83
654.071	7932.64
654.263	7803.61
654.456	7627.49
654.648	7588.58
654.84	7498.47
655.033	7523.04
655.225	7357.16
655.417	7473.89
655.61	7553.76
655.802	7371.49
655.994	7328.49
656.186	7215.85
656.379	7228.14
656.571	7187.18
656.763	7256.81
656.955	7224.04
657.148	7201.51
657.34	7158.5
657.532	7002.86
657.724	7009
657.916	6961.9
658.108	6933.23
658.3	6914.8
658.492	7000.81
658.684	6765.29
658.876	6697.71
659.068	6787.82
659.26	6763.25
659.452	6824.69
659.644	6712.05
659.836	6523.63
660.028	6652.66
660.22	6529.78
660.412	6554.35
660.604	6462.19
660.796	6441.72
660.988	6292.21
661.18	6279.93
661.372	6429.43
661.563	6253.3
661.755	6206.2
661.947	6187.77
662.139	6083.32
662.331	6040.31
662.522	6206.2
662.714	6175.48
662.906	6062.84
663.097	6060.79
663.289	5950.2
663.481	5839.61
663.673	5976.83
663.864	5856
664.056	6003.45
664.247	5946.11
664.439	5714.69
664.631	5753.6
664.822	5929.72
665.014	5808.89
665.205	5835.52
665.397	5714.69
665.588	5692.16
665.78	5636.86
665.971	5526.27
666.163	5550.85
666.354	5720.83
666.546	5552.9
666.737	5294.85
666.929	5575.42
667.12	5405.44
667.311	5319.43
667.503	5501.7
667.694	5358.34
667.885	5288.71
668.077	5370.63
668.268	5122.82
668.459	5323.52
668.651	5296.9
668.842	5190.41
669.033	5061.38
669.224	5217.03
669.416	5270.28
669.607	5133.06
669.798	5108.49
669.989	5171.97
670.18	4967.18
670.371	4961.03
670.563	4809.48
670.754	5075.72
670.945	4895.5
671.136	4934.41
671.327	4938.51
671.518	4733.71
671.709	4918.03
671.9	4834.06
672.091	4850.44
672.282	4789
672.473	4682.51
672.664	4789
672.855	4799.24
673.046	4713.23
673.237	4735.76
673.428	4694.8
673.619	4627.21
673.809	4748.04
674	4641.55
674.191	4616.97
674.382	4598.54
674.573	4467.47
674.764	4641.55
674.954	4549.39
675.145	4485.9
675.336	4530.96
675.527	4559.63
675.717	4414.23
675.908	4469.52
676.099	4502.29
676.289	4553.49
676.48	4485.9
676.671	4242.2
676.861	4348.69
677.052	4315.92
677.243	4360.98
677.433	4229.91
677.624	4526.86
677.814	4215.57
678.005	4295.44
678.195	4401.94
678.386	4354.83
678.576	4180.76
678.767	4293.4
678.957	4125.46
679.148	4311.83
679.338	4168.47
679.529	4166.42
679.719	4084.5
679.909	4266.77
680.1	4219.67
680.29	4158.23
680.481	4010.78
680.671	4221.72
680.861	4037.4
681.052	4164.37
681.242	4182.81
681.432	4064.02
681.622	3955.48
681.813	4107.03
682.003	3930.91
682.193	3990.3
682.383	3990.3
682.573	4098.84
682.764	4033.3
682.954	4027.16
683.144	3986.2
683.334	3834.65
683.524	4002.58
683.714	4029.21
683.904	3978.01
684.094	3871.51
684.284	3885.85
684.474	3937.05
684.664	3894.04
684.854	3787.55
685.044	3662.62
685.234	3773.21
685.424	3918.62
685.614	3732.25
685.804	3775.26
685.994	3656.48
686.184	3810.08
686.374	3664.67
686.564	3791.64
686.753	3740.44
686.943	3670.81
687.133	3683.1
687.323	3699.48
687.513	3722.01
687.702	3681.05
687.892	3650.33
688.082	3701.53
688.272	3580.7
688.461	3656.48
688.651	3525.41
688.841	3447.58
689.03	3455.78
689.22	3621.66
689.41	3509.02
689.599	3558.18
689.789	3621.66
689.979	3611.42
690.168	3480.35
690.358	3361.57
690.547	3445.54
690.737	3320.61
690.926	3308.32
691.116	3322.66
691.305	3328.8
691.495	3291.94
691.684	3298.08
691.874	3330.85
692.063	3203.88
692.252	3310.37
692.442	3253.03
692.631	3339.04
692.82	3253.03
693.01	3140.39
693.199	3128.1
693.388	3158.82
693.578	3046.18
693.767	3177.25
693.956	3064.61
694.146	2976.55
694.335	3095.33
694.524	3117.86
694.713	3134.25
694.902	3109.67
695.092	3150.63
695.281	2986.79
695.47	3007.27
695.659	3109.67
695.848	3015.46
696.037	3019.56
696.226	3054.37
696.415	3011.37
696.604	3148.58
696.793	3074.85
696.982	3044.13
697.171	3107.62
697.36	2945.83
697.549	2939.69
697.738	2945.83
697.927	2927.4
698.116	3040.04
698.305	2976.55
698.494	3009.32
698.683	2868.01
698.872	3005.22
699.061	2829.1
699.25	2872.11
699.438	2845.48
699.627	2908.97
699.816	2812.71
700.005	2994.98
700.193	2929.45
700.382	3013.42
700.571	2851.63
700.76	2894.63
700.948	2999.08
701.137	2804.52
701.326	2935.59
701.514	2841.39
701.703	2970.41
701.892	2925.35
702.08	2847.53
702.269	3017.51
702.457	2775.85
702.646	2927.4
702.834	2925.35
703.023	2894.63
703.212	2796.33
703.4	2941.74
703.589	2792.23
703.777	3035.94
703.965	2825
704.154	2825
704.342	2919.21
704.531	2847.53
704.719	2884.39
704.907	2814.76
705.096	2808.62
705.284	2925.35
705.472	2911.02
705.661	2810.67
705.849	2878.25
706.037	2876.2
706.226	2913.06
706.414	2919.21
706.602	2814.76
706.79	2929.45
706.979	2870.06
707.167	2816.81
707.355	2849.58
707.543	2994.98
707.731	2925.35
707.919	2890.54
708.107	2872.11
708.296	2851.63
708.484	2958.12
708.672	2925.35
708.86	2861.87
709.048	2820.91
709.236	2765.61
709.424	2831.15
709.612	2876.2
709.8	2841.39
709.988	2759.47
710.176	2855.72
710.364	2808.62
710.551	2902.83
710.739	2767.66
710.927	2888.49
711.115	2814.76
711.303	2878.25
711.491	2872.11
711.679	2814.76
711.866	2853.67
712.054	2886.44
712.242	2796.33
712.43	2911.02
712.617	2894.63
712.805	2659.12
712.993	2874.15
713.181	2755.37
713.368	2872.11
713.556	2749.23
713.744	2751.28
713.931	2837.29
714.119	2872.11
714.306	2843.43
714.494	2843.43
714.682	2849.58
714.869	2827.05
715.057	2796.33
715.244	2779.95
715.432	2906.92
715.619	2886.44
715.807	2708.27
715.994	2693.93
716.182	2784.04
716.369	2882.35
716.556	2886.44
716.744	2863.91
716.931	2777.9
717.119	2812.71
717.306	2861.87
717.493	2829.1
717.681	2868.01
717.868	2779.95
718.055	2865.96
718.242	2743.08
718.43	2749.23
718.617	2743.08
718.804	2810.67
718.991	2804.52
719.179	2796.33
719.366	2808.62
719.553	2829.1
719.74	2839.34
719.927	2816.81
720.114	2720.56
720.301	2781.99
720.488	2706.22
720.676	2765.61
720.863	2761.52
721.05	2722.6
721.237	2816.81
721.424	2898.73
721.611	2726.7
721.798	2732.84
721.985	2751.28
722.172	2681.64
722.358	2806.57
722.545	2798.38
722.732	2847.53
722.919	2872.11
723.106	2865.96
723.293	2784.04
723.48	2800.43
723.667	2581.29
723.853	2669.36
724.04	2609.97
724.227	2681.64
724.414	2695.98
724.6	2640.69
724.787	2769.71
724.974	2691.88
725.161	2628.4
725.347	2769.71
725.534	2781.99
725.72	2726.7
725.907	2550.57
726.094	2708.27
726.28	2698.03
726.467	2743.08
726.653	2583.34
726.84	2624.3
727.027	2675.5
727.213	2581.29
727.4	2681.64
727.586	2677.55
727.773	2667.31
727.959	2667.31
728.145	2657.07
728.332	2614.06
728.518	2677.55
728.705	2777.9
728.891	2538.29
729.077	2569.01
729.264	2712.36
729.45	2640.69
729.636	2743.08
729.823	2530.09
730.009	2673.45
730.195	2566.96
730.382	2585.39
730.568	2652.97
730.754	2732.84
730.94	2650.92
731.126	2700.08
731.313	2659.12
731.499	2624.3
731.685	2589.49
731.871	2673.45
732.057	2661.16
732.243	2593.58
732.429	2628.4
732.615	2587.44
732.801	2591.53
732.987	2585.39
733.173	2478.9
733.359	2521.9
733.545	2517.81
733.731	2497.33
733.917	2646.83
734.103	2624.3
734.289	2681.64
734.475	2609.97
734.661	2599.73
734.847	2546.48
735.033	2632.49
735.219	2452.27
735.404	2403.12
735.59	2485.04
735.776	2530.09
735.962	2579.25
736.148	2476.85
736.333	2554.67
736.519	2519.85
736.705	2507.57
736.89	2454.32
737.076	2509.62
737.262	2366.26
737.447	2394.93
737.633	2497.33
737.819	2466.61
738.004	2435.89
738.19	2442.03
738.375	2491.18
738.561	2298.67
738.747	2353.97
738.932	2521.9
739.118	2474.8
739.303	2388.78
739.489	2360.11
739.674	2435.89
739.859	2401.07
740.045	2421.55
740.23	2292.53
740.416	2396.98
740.601	2249.52
740.786	2331.44
740.972	2405.17
741.157	2347.83
741.342	2237.24
741.528	2370.35
741.713	2284.34
741.898	2233.14
742.084	2261.81
742.269	2190.13
742.454	2310.96
742.639	2353.97
742.824	2214.71
743.01	2083.64
743.195	2235.19
743.38	2222.9
743.565	2075.45
743.75	2235.19
743.935	2149.17
744.12	2204.47
744.305	2206.52
744.49	2163.51
744.675	2206.52
744.86	2097.97
745.045	2079.54
745.23	2104.12
745.415	2097.97
745.6	2116.41
745.785	2257.71
745.97	2204.47
746.155	2108.21
746.34	1995.57
746.525	2014.01
746.71	1971
746.895	2097.97
747.079	1956.66
747.264	1954.62
747.449	1991.48
747.634	1950.52
747.819	1936.18
748.003	1880.89
748.188	1887.03
748.373	1987.38
748.557	1995.57
748.742	1868.6
748.927	1831.74
749.111	1850.17
749.296	1794.87
749.481	1837.88
749.665	1958.71
749.85	1837.88
750.034	1776.44
750.219	1792.83
750.404	1751.87
750.588	1932.09
750.773	1655.61
750.957	1805.11
751.141	1815.35
751.326	1686.33
751.51	1758.01
751.695	1737.53
751.879	1723.2
752.064	1751.87
752.248	1598.27
752.432	1672
752.617	1729.34
752.801	1606.46
752.985	1579.84
753.17	1669.95
753.354	1633.08
753.538	1495.87
753.722	1604.41
753.907	1616.7
754.091	1483.58
754.275	1588.03
754.459	1573.69
754.643	1581.89
754.828	1510.21
755.012	1506.11
755.196	1428.29
755.38	1473.34
755.564	1440.58
755.748	1483.58
755.932	1383.23
756.116	1450.82
756.3	1411.9
756.484	1391.42
756.668	1377.09
756.852	1360.7
757.036	1477.44
757.22	1358.66
757.404	1323.84
757.588	1342.27
757.772	1319.75
757.956	1370.94
758.14	1305.41
758.323	1364.8
758.507	1346.37
758.691	1209.15
758.875	1250.11
759.059	1383.23
759.242	1203.01
759.426	1364.8
759.61	1268.55
759.794	1209.15
759.977	1205.06
760.161	1270.59
760.345	1170.24
760.528	1246.02
760.712	1379.14
760.895	1203.01
761.079	1237.83
761.263	1131.33
761.446	1069.89
761.63	1223.49
761.813	1188.68
761.997	1110.85
762.18	1160
762.364	1243.97
762.547	1110.85
762.731	1104.71
762.914	1160
763.098	1125.19
763.281	1071.94
763.464	1110.85
763.648	1155.91
763.831	1045.32
764.015	1037.13
764.198	1137.48
764.381	1059.65
764.564	1102.66
764.748	1035.08
764.931	1082.18
765.114	1045.32
765.297	1117
765.481	996.17
765.664	1026.89
765.847	1020.74
766.03	1076.04
766.213	1014.6
766.397	1086.28
766.58	963.4
766.763	1112.9
766.946	1024.84
767.129	985.93
767.312	983.88
767.495	951.11
767.678	1006.41
767.861	979.78
768.044	1004.36
768.227	893.77
768.41	1028.93
768.593	949.06
768.776	971.59
768.959	961.35
769.142	926.54
769.324	965.45
769.507	889.67
769.69	996.17
769.873	930.63
770.056	990.02
770.239	881.48
770.421	957.25
770.604	901.96
770.787	805.71
770.97	856.9
771.152	938.82
771.335	865.1
771.518	863.05
771.7	891.72
771.883	897.86
772.066	836.42
772.248	869.19
772.431	826.18
772.613	805.71
772.796	844.62
772.978	813.9
773.161	832.33
773.343	797.51
773.526	830.28
773.708	817.99
773.891	803.66
774.073	817.99
774.256	738.12
774.438	777.03
774.621	852.81
774.803	820.04
774.985	699.21
775.168	760.65
775.35	738.12
775.532	799.56
775.715	805.71
775.897	805.71
776.079	762.7
776.261	729.93
776.444	691.02
776.626	682.83
776.808	670.54
776.99	693.07
777.173	723.79
777.355	725.83
777.537	631.63
777.719	731.98
777.901	662.35
778.083	660.3
778.265	639.82
778.447	676.68
778.629	621.39
778.811	699.21
778.993	617.29
779.175	713.55
779.357	648.01
779.539	596.81
779.721	664.4
779.903	613.2
780.085	553.8
780.267	680.78
780.449	613.2
780.631	605
780.812	656.2
780.994	605
781.176	510.8
781.358	602.96
781.54	627.53
781.721	584.52
781.903	559.95
782.085	549.71
782.267	564.04
782.448	504.65
782.63	484.17
782.812	512.85
782.993	582.48
783.175	617.29
783.357	533.33
783.538	549.71
783.72	443.21
783.901	514.89
784.083	502.61
784.264	494.41
784.446	566.09
784.627	430.93
784.809	480.08
784.99	478.03
785.172	518.99
785.353	543.57
785.535	506.7
785.716	478.03
785.897	453.45
786.079	498.51
786.26	494.41
786.441	410.45
786.623	428.88
786.804	406.35
786.985	443.21
787.167	451.41
787.348	416.59
787.529	514.89
787.71	400.21
787.891	392.02
788.073	439.12
788.254	414.54
788.435	463.69
788.616	383.82
788.797	414.54
788.978	308.05
789.159	486.22
789.34	408.4
789.522	430.93
789.703	400.21
789.884	394.06
790.065	361.3
790.246	381.78
790.427	443.21
790.607	412.5
790.788	342.86
790.969	299.86
791.15	396.11
791.331	369.49
791.512	344.91
791.693	336.72
791.874	416.59
792.054	336.72
792.235	408.4
792.416	389.97
792.597	318.29
792.778	400.21
792.958	406.35
793.139	398.16
793.32	392.02
793.5	310.1
793.681	394.06
793.862	265.04
794.042	275.28
794.223	248.66
794.404	318.29
794.584	299.86
794.765	330.58
794.945	369.49
795.126	301.9
795.306	279.38
795.487	279.38
795.667	285.52
795.848	334.67
796.028	367.44
796.209	297.81
796.389	334.67
796.57	328.53
796.75	246.61
796.93	326.48
797.111	271.19
797.291	273.23
797.471	291.66
797.652	217.94
797.832	230.23
798.012	250.71
798.192	232.27
798.373	195.41
798.553	301.9
798.733	293.71
798.913	269.14
799.093	332.62
799.274	244.56
799.454	260.95
799.634	252.75
799.814	281.43
799.994	246.61
800.174	269.14
800.354	279.38
800.534	185.17
800.714	265.04
800.894	179.03
801.074	170.83
801.254	193.36
801.434	246.61
801.614	240.47
801.794	238.42
801.974	531.28
802.154	158.55
802.334	205.65
802.514	138.07
802.693	207.7
802.873	189.27
803.053	254.8
803.233	252.75
803.413	285.52
803.592	138.07
803.772	197.46
803.952	189.27
804.131	140.12
804.311	246.61
804.491	219.99
804.67	181.07
804.85	121.68
805.03	183.12
805.209	273.23
805.389	131.92
805.568	164.69
805.748	211.79
805.928	265.04
806.107	191.31
806.287	156.5
806.466	222.03
806.646	195.41
806.825	219.99
807.004	187.22
807.184	172.88
807.363	138.07
807.543	107.35
807.722	187.22
807.901	154.45
808.081	238.42
808.26	172.88
808.439	179.03
808.619	127.83
808.798	201.55
808.977	183.12
809.156	215.89
809.336	213.84
809.515	203.6
809.694	189.27
809.873	133.97
810.052	127.83
810.231	203.6
810.411	99.16
810.59	121.68
810.769	142.16
810.948	199.51
811.127	146.26
811.306	154.45
811.485	158.55
811.664	205.65
811.843	162.64
812.022	123.73
812.201	148.31
812.38	164.69
812.559	74.58
812.737	162.64
812.916	162.64
813.095	215.89
813.274	107.35
813.453	129.88
813.632	230.23
813.811	111.44
813.989	148.31
814.168	119.64
814.347	78.68
814.526	162.64
814.704	82.77
814.883	170.83
815.062	129.88
815.24	146.26
815.419	156.5
815.598	140.12
815.776	95.06
815.955	123.73
816.133	35.67
816.312	123.73
816.49	121.68
816.669	125.78
816.847	181.07
817.026	174.93
817.204	117.59
817.383	203.6
817.561	113.49
817.74	129.88
817.918	109.4
818.097	95.06
818.275	97.11
818.453	125.78
818.632	148.31
818.81	90.96
818.988	183.12
819.167	176.98
819.345	179.03
819.523	105.3
819.701	121.68
819.879	25.43
820.058	138.07
820.236	95.06
820.414	150.36
820.592	29.52
820.77	109.4
820.948	111.44
821.127	99.16
821.305	162.64
821.483	62.29
821.661	156.5
821.839	88.92
822.017	95.06
822.195	115.54
822.373	90.96
822.551	64.34
822.729	127.83
822.907	66.39
823.085	154.45
823.262	86.87
823.44	113.49
823.618	72.53
823.796	160.59
823.974	136.02
824.152	129.88
824.329	127.83
824.507	-48.3
824.685	80.72
824.863	76.63
825.04	39.76
825.218	185.17
825.396	80.72
825.574	80.72
825.751	109.4
825.929	72.53
826.107	7
826.284	80.72
826.462	68.44
826.639	70.48
826.817	76.63
826.994	80.72
827.172	84.82
827.349	117.59
827.527	86.87
827.704	168.79
827.882	113.49
828.059	88.92
828.237	70.48
828.414	76.63
828.591	80.72
828.769	62.29
828.946	4.95
829.124	72.53
829.301	113.49
829.478	76.63
829.655	127.83
829.833	113.49
830.01	80.72
830.187	37.72
830.364	64.34
830.542	33.62
830.719	133.97
830.896	62.29
831.073	74.58
831.25	105.3
831.427	-44.2
831.604	99.16
831.782	31.57
831.959	170.83
832.136	11.09
832.313	39.76
832.49	109.4
832.667	11.09
832.844	19.29
833.021	76.63
833.198	95.06
833.374	84.82
833.551	41.81
833.728	68.44
833.905	88.92
834.082	86.87
834.259	13.14
834.436	37.72
834.612	78.68
834.789	31.57
834.966	43.86
835.143	113.49
835.319	29.52
835.496	78.68
835.673	31.57
835.85	111.44
836.026	29.52
836.203	64.34
836.38	70.48
836.556	82.77
836.733	19.29
836.909	52.05
837.086	58.2
837.262	54.1
837.439	66.39
837.616	39.76
837.792	86.87
837.968	76.63
838.145	43.86
838.321	117.59
838.498	76.63
838.674	80.72
838.851	27.48
839.027	31.57
839.203	25.43
839.38	2.9
839.556	43.86
839.732	76.63
839.909	56.15
840.085	58.2
840.261	52.05
840.437	117.59
840.614	43.86
840.79	47.96
840.966	25.43
841.142	54.1
841.318	-29.87
841.494	56.15
841.671	43.86
841.847	47.96
842.023	21.33
842.199	33.62
842.375	107.35
842.551	31.57
842.727	76.63
842.903	74.58
843.079	70.48
843.255	136.02
843.431	-15.53
843.607	35.67
843.783	9.05
843.959	76.63
844.134	2.9
844.31	78.68
844.486	-27.82
844.662	-5.29
844.838	7
845.013	41.81
845.189	27.48
845.365	70.48
845.541	23.38
845.716	19.29
845.892	60.24
846.068	17.24
846.244	95.06
846.419	37.72
846.595	-13.48
846.77	39.76
846.946	19.29
847.122	33.62
847.297	-36.01
847.473	50
847.648	4.95
847.824	-25.77
847.999	-31.91
848.175	-13.48
848.35	-17.58
848.526	45.91
848.701	-15.53
848.876	-31.91
849.052	41.81
849.227	11.09
849.403	25.43
849.578	11.09
849.753	-48.3
849.929	80.72
850.104	9.05
850.279	86.87
850.454	52.05
850.63	58.2
850.805	60.24
850.98	-50.35
851.155	2.9
851.33	47.96
851.505	-7.34
851.681	41.81
851.856	45.91
852.031	-3.24
852.206	-31.91
852.381	43.86
852.556	2.9
852.731	-5.29
852.906	0.85
853.081	-3.24
853.256	35.67
853.431	17.24
853.606	-25.77
853.781	15.19
853.956	-3.24
854.131	-3.24
854.305	29.52
854.48	68.44
854.655	-31.91
854.83	117.59
855.005	58.2
855.18	-15.53
855.354	-13.48
855.529	-3.24
855.704	11.09
855.879	58.2
856.053	-76.97
856.228	21.33
856.403	-17.58
856.577	31.57
856.752	-31.91
856.926	43.86
857.101	74.58
857.276	72.53
857.45	-11.43
857.625	70.48
857.799	2.9
857.974	37.72
858.148	-66.73
858.323	33.62
858.497	-40.11
858.672	35.67
858.846	-31.91
859.02	-1.19
859.195	-11.43
859.369	-5.29
859.543	0.85
859.718	2.9
859.892	11.09
860.066	-11.43
860.241	37.72
860.415	-7.34
860.589	-3.24
860.763	19.29
860.938	-79.02
861.112	17.24
861.286	-19.63
861.46	43.86
861.634	-60.59
861.808	50
861.982	-46.25
862.157	-17.58
862.331	-9.39
862.505	54.1
862.679	13.14
862.853	-21.67
863.027	9.05
863.201	54.1
863.375	41.81
863.549	11.09
863.722	-21.67
863.896	72.53
864.07	11.09
864.244	-5.29
864.418	-29.87
864.592	68.44
864.766	-1.19
864.939	-31.91
865.113	-62.63
865.287	58.2
865.461	-9.39
865.634	11.09
865.808	-46.25
865.982	19.29
866.156	19.29
866.329	31.57
866.503	-3.24
866.676	-25.77
866.85	-72.87
867.024	-66.73
867.197	-36.01
867.371	2.9
867.544	13.14
867.718	-60.59
867.891	35.67
868.065	-64.68
868.238	-29.87
868.412	62.29
868.585	-23.72
868.759	0.85
868.932	15.19
869.105	7
869.279	-7.34
869.452	13.14
869.625	-44.2
869.799	-23.72
869.972	-79.02
870.145	66.39
870.319	29.52
870.492	-19.63
870.665	15.19
870.838	-5.29
871.011	-40.11
871.185	-11.43
871.358	43.86
871.531	27.48
871.704	-21.67
871.877	-21.67
872.05	29.52
872.223	15.19
872.396	-48.3
872.569	-13.48
872.742	25.43
872.915	56.15
873.088	-40.11
873.261	-5.29
873.434	41.81
873.607	-11.43
873.78	58.2
873.953	35.67
874.126	2.9
874.299	-27.82
874.471	-21.67
874.644	15.19
874.817	17.24
874.99	50
875.163	-36.01
875.335	31.57
875.508	-17.58
875.681	56.15
875.853	-54.44
876.026	2.9
876.199	-1.19
876.371	-13.48
876.544	-17.58
876.717	-13.48
876.889	45.91
877.062	58.2
877.234	-42.15
877.407	29.52
877.579	-42.15
877.752	-13.48
877.924	-11.43
878.097	-15.53
878.269	7
878.442	56.15
878.614	-31.91
878.786	-13.48
878.959	-21.67
879.131	105.3
879.303	-62.63
879.476	-19.63
879.648	-36.01
879.82	-58.54
879.993	88.92
880.165	29.52
880.337	-29.87
880.509	50
880.681	-144.55
880.854	-21.67
881.026	-3.24
881.198	-9.39
881.37	-23.72
881.542	15.19
881.714	15.19
881.886	47.96
882.058	-42.15
882.23	68.44
882.402	-19.63
882.574	47.96
882.746	-27.82
882.918	4.95
883.09	76.63
883.262	15.19
883.434	-29.87
883.606	-60.59
883.778	4.95
883.95	-17.58
884.122	45.91
884.293	-66.73
884.465	-38.06
884.637	0.85
884.809	-33.96
884.98	68.44
885.152	-7.34
885.324	-11.43
885.496	0.85
885.667	33.62
885.839	-7.34
886.011	-87.21
886.182	-48.3
886.354	-1.19
886.525	-81.07
886.697	-5.29
886.869	0.85
887.04	-7.34
887.212	-13.48
887.383	33.62
887.555	23.38
887.726	-62.63
887.897	-9.39
888.069	-68.78
888.24	-101.55
888.412	-46.25
888.583	-89.26
888.754	-15.53
888.926	13.14
889.097	31.57
889.268	-64.68
889.44	-64.68
889.611	-21.67
889.782	-50.35
889.953	-38.06
890.125	-46.25
890.296	-62.63
890.467	-7.34
890.638	-25.77
890.809	-25.77
890.98	-70.83
891.151	-7.34
891.323	9.05
891.494	-64.68
891.665	45.91
891.836	29.52
892.007	-7.34
892.178	-9.39
892.349	29.52
892.52	0.85
892.691	-56.49
892.862	37.72
893.032	-81.07
893.203	58.2
893.374	-5.29
893.545	-11.43
893.716	-42.15
893.887	4.95
894.057	-72.87
894.228	70.48
894.399	4.95
894.57	-27.82
894.74	-38.06
894.911	47.96
895.082	-76.97
895.253	-7.34
895.423	-15.53
895.594	-38.06
895.764	-87.21
895.935	-54.44
896.106	-74.92
896.276	13.14
896.447	45.91
896.617	-42.15
896.788	-76.97
896.958	-44.2
897.129	-17.58
897.299	-9.39
897.47	-13.48
897.64	-27.82
897.81	-21.67
897.981	-56.49
898.151	-27.82
898.322	4.95
898.492	25.43
898.662	9.05
898.832	-13.48
899.003	-29.87
899.173	35.67
899.343	11.09
899.513	-74.92
