Data from USB4F104151__24__12-00-31-572.txt Node

Date: Fri Mar 14 12:00:31 EDT 2025
User: louis
Spectrometer: USB4F10415
Trigger mode: 4
Integration Time (sec): 2.000000E-2
Scans to average: 1
Electric dark correction enabled: true
Nonlinearity correction enabled: false
Boxcar width: 0
XAxis mode: Wavelengths
Number of Pixels in Spectrum: 3648
>>>>>Begin Spectral Data<<<<<
178.204	-60.59
178.424	-60.59
178.644	-60.59
178.864	-122.02
179.084	-46.25
179.304	-44.2
179.524	15.19
179.744	9.05
179.964	47.96
180.184	2.9
180.404	15.19
180.624	-50.35
180.844	-3.24
181.064	-117.93
181.283	88.92
181.503	-5.29
181.723	41.81
181.943	-58.54
182.163	99.16
182.383	19.29
182.602	45.91
182.822	74.58
183.042	2.9
183.262	35.67
183.482	-21.67
183.701	101.2
183.921	-17.58
184.141	27.48
184.361	66.39
184.58	-36.01
184.8	45.91
185.02	-5.29
185.239	33.62
185.459	-46.25
185.679	4.95
185.898	4.95
186.118	39.76
186.338	9.05
186.557	39.76
186.777	35.67
186.997	-21.67
187.216	-72.87
187.436	43.86
187.655	25.43
187.875	23.38
188.095	21.33
188.314	31.57
188.534	50
188.753	-7.34
188.973	25.43
189.192	95.06
189.412	19.29
189.631	64.34
189.851	-11.43
190.07	90.96
190.29	-7.34
190.509	-38.06
190.729	17.24
190.948	43.86
191.168	123.73
191.387	37.72
191.607	-19.63
191.826	9.05
192.045	27.48
192.265	84.82
192.484	-33.96
192.704	25.43
192.923	-13.48
193.142	88.92
193.362	-27.82
193.581	29.52
193.8	31.57
194.02	37.72
194.239	17.24
194.458	17.24
194.678	90.96
194.897	-19.63
195.116	80.72
195.335	27.48
195.555	-7.34
195.774	-5.29
195.993	101.2
196.212	25.43
196.432	-31.91
196.651	7
196.87	-46.25
197.089	-5.29
197.308	50
197.528	52.05
197.747	-5.29
197.966	47.96
198.185	41.81
198.404	-103.59
198.623	-5.29
198.842	54.1
199.062	-38.06
199.281	66.39
199.5	47.96
199.719	72.53
199.938	-9.39
200.157	19.29
200.376	-7.34
200.595	39.76
200.814	62.29
201.033	11.09
201.252	-9.39
201.471	13.14
201.69	64.34
201.909	4.95
202.128	21.33
202.347	19.29
202.566	-15.53
202.785	21.33
203.004	7
203.223	-21.67
203.442	35.67
203.661	15.19
203.879	7
204.098	82.77
204.317	-29.87
204.536	15.19
204.755	27.48
204.974	43.86
205.193	-9.39
205.411	43.86
205.63	72.53
205.849	-13.48
206.068	33.62
206.287	35.67
206.505	29.52
206.724	-11.43
206.943	-27.82
207.162	4.95
207.381	-19.63
207.599	-7.34
207.818	-7.34
208.037	13.14
208.255	70.48
208.474	11.09
208.693	-64.68
208.911	4.95
209.13	50
209.349	17.24
209.567	-1.19
209.786	37.72
210.005	19.29
210.223	25.43
210.442	-5.29
210.661	-13.48
210.879	29.52
211.098	7
211.316	21.33
211.535	103.25
211.753	9.05
211.972	11.09
212.191	19.29
212.409	-17.58
212.628	-33.96
212.846	60.24
213.065	-25.77
213.283	52.05
213.502	-1.19
213.72	19.29
213.938	-93.35
214.157	39.76
214.375	-5.29
214.594	19.29
214.812	-3.24
215.031	-13.48
215.249	19.29
215.467	7
215.686	39.76
215.904	-5.29
216.122	-11.43
216.341	45.91
216.559	37.72
216.778	31.57
216.996	64.34
217.214	17.24
217.432	33.62
217.651	15.19
217.869	25.43
218.087	13.14
218.306	56.15
218.524	-25.77
218.742	23.38
218.96	31.57
219.179	15.19
219.397	-5.29
219.615	-9.39
219.833	-3.24
220.051	-29.87
220.27	-15.53
220.488	37.72
220.706	-23.72
220.924	2.9
221.142	35.67
221.36	70.48
221.578	19.29
221.796	-7.34
222.015	0.85
222.233	88.92
222.451	52.05
222.669	15.19
222.887	-66.73
223.105	23.38
223.323	52.05
223.541	41.81
223.759	19.29
223.977	-29.87
224.195	68.44
224.413	-29.87
224.631	37.72
224.849	17.24
225.067	35.67
225.285	-5.29
225.503	0.85
225.721	-76.97
225.939	43.86
226.157	72.53
226.375	54.1
226.592	-29.87
226.81	29.52
227.028	0.85
227.246	23.38
227.464	15.19
227.682	41.81
227.9	74.58
228.117	-15.53
228.335	21.33
228.553	47.96
228.771	50
228.989	35.67
229.206	-7.34
229.424	-15.53
229.642	-38.06
229.86	-31.91
230.077	9.05
230.295	78.68
230.513	11.09
230.731	-17.58
230.948	47.96
231.166	33.62
231.384	19.29
231.601	-99.5
231.819	101.2
232.037	27.48
232.254	-29.87
232.472	21.33
232.689	56.15
232.907	47.96
233.125	68.44
233.342	4.95
233.56	43.86
233.777	27.48
233.995	-7.34
234.213	2.9
234.43	35.67
234.648	19.29
234.865	-42.15
235.083	35.67
235.3	11.09
235.518	-11.43
235.735	-7.34
235.953	82.77
236.17	-31.91
236.388	13.14
236.605	-11.43
236.822	35.67
237.04	93.01
237.257	15.19
237.475	-9.39
237.692	62.29
237.909	-25.77
238.127	27.48
238.344	-66.73
238.562	62.29
238.779	13.14
238.996	25.43
239.214	78.68
239.431	25.43
239.648	52.05
239.865	19.29
240.083	25.43
240.3	41.81
240.517	23.38
240.735	33.62
240.952	25.43
241.169	58.2
241.386	27.48
241.603	-13.48
241.821	-9.39
242.038	-1.19
242.255	27.48
242.472	-29.87
242.689	-44.2
242.907	-5.29
243.124	68.44
243.341	-5.29
243.558	-11.43
243.775	19.29
243.992	43.86
244.209	-13.48
244.426	35.67
244.643	7
244.86	21.33
245.078	-40.11
245.295	-33.96
245.512	21.33
245.729	2.9
245.946	50
246.163	-9.39
246.38	62.29
246.597	15.19
246.814	29.52
247.031	-48.3
247.248	86.87
247.464	47.96
247.681	17.24
247.898	-3.24
248.115	25.43
248.332	-19.63
248.549	84.82
248.766	72.53
248.983	43.86
249.2	27.48
249.417	33.62
249.633	7
249.85	15.19
250.067	-33.96
250.284	68.44
250.501	4.95
250.717	62.29
250.934	-27.82
251.151	68.44
251.368	29.52
251.585	2.9
251.801	-1.19
252.018	11.09
252.235	62.29
252.451	-23.72
252.668	37.72
252.885	-7.34
253.102	47.96
253.318	11.09
253.535	-50.35
253.752	58.2
253.968	2.9
254.185	37.72
254.401	7
254.618	9.05
254.835	13.14
255.051	56.15
255.268	11.09
255.484	45.91
255.701	43.86
255.917	17.24
256.134	-5.29
256.351	13.14
256.567	-25.77
256.784	11.09
257	-21.67
257.217	86.87
257.433	17.24
257.65	31.57
257.866	19.29
258.082	2.9
258.299	27.48
258.515	80.72
258.732	-21.67
258.948	-9.39
259.165	17.24
259.381	4.95
259.597	-17.58
259.814	39.76
260.03	-25.77
260.246	27.48
260.463	39.76
260.679	-7.34
260.895	-27.82
261.112	43.86
261.328	35.67
261.544	2.9
261.761	68.44
261.977	-29.87
262.193	58.2
262.409	74.58
262.626	70.48
262.842	4.95
263.058	64.34
263.274	43.86
263.49	-5.29
263.707	-38.06
263.923	25.43
264.139	-42.15
264.355	-13.48
264.571	-31.91
264.787	-23.72
265.004	64.34
265.22	-21.67
265.436	56.15
265.652	7
265.868	84.82
266.084	-58.54
266.3	97.11
266.516	-5.29
266.732	-62.63
266.948	29.52
267.164	47.96
267.38	15.19
267.596	82.77
267.812	47.96
268.028	54.1
268.244	-56.49
268.46	99.16
268.676	-21.67
268.892	4.95
269.108	-60.59
269.324	27.48
269.54	33.62
269.756	23.38
269.972	-38.06
270.188	7
270.403	-15.53
270.619	11.09
270.835	-13.48
271.051	54.1
271.267	-91.31
271.483	74.58
271.698	88.92
271.914	23.38
272.13	72.53
272.346	-5.29
272.562	-9.39
272.777	11.09
272.993	0.85
273.209	-9.39
273.425	21.33
273.64	4.95
273.856	35.67
274.072	-9.39
274.287	15.19
274.503	-13.48
274.719	82.77
274.934	113.49
275.15	-62.63
275.366	39.76
275.581	-31.91
275.797	11.09
276.012	54.1
276.228	-60.59
276.444	15.19
276.659	19.29
276.875	-29.87
277.09	58.2
277.306	-11.43
277.521	52.05
277.737	54.1
277.952	56.15
278.168	-27.82
278.383	17.24
278.599	33.62
278.814	41.81
279.03	-7.34
279.245	68.44
279.461	31.57
279.676	-1.19
279.892	21.33
280.107	-23.72
280.322	86.87
280.538	4.95
280.753	-62.63
280.969	68.44
281.184	-13.48
281.399	-36.01
281.615	-21.67
281.83	-21.67
282.045	-38.06
282.26	39.76
282.476	43.86
282.691	15.19
282.906	35.67
283.122	56.15
283.337	-23.72
283.552	121.68
283.767	-3.24
283.983	27.48
284.198	86.87
284.413	17.24
284.628	0.85
284.843	31.57
285.058	27.48
285.274	54.1
285.489	19.29
285.704	13.14
285.919	31.57
286.134	9.05
286.349	31.57
286.564	7
286.779	43.86
286.995	60.24
287.21	-33.96
287.425	17.24
287.64	-5.29
287.855	-46.25
288.07	-56.49
288.285	78.68
288.5	101.2
288.715	60.24
288.93	4.95
289.145	17.24
289.36	93.01
289.575	-9.39
289.79	25.43
290.004	0.85
290.219	29.52
290.434	4.95
290.649	21.33
290.864	-68.78
291.079	43.86
291.294	45.91
291.509	-13.48
291.724	-56.49
291.938	15.19
292.153	-29.87
292.368	62.29
292.583	101.2
292.798	41.81
293.012	2.9
293.227	-3.24
293.442	70.48
293.657	47.96
293.871	117.59
294.086	17.24
294.301	2.9
294.516	-9.39
294.73	13.14
294.945	0.85
295.16	7
295.374	78.68
295.589	27.48
295.804	64.34
296.018	-42.15
296.233	103.25
296.447	-81.07
296.662	-7.34
296.877	37.72
297.091	43.86
297.306	-17.58
297.52	-15.53
297.735	39.76
297.949	-31.91
298.164	47.96
298.378	-1.19
298.593	62.29
298.807	47.96
299.022	56.15
299.236	72.53
299.451	-19.63
299.665	-52.39
299.88	27.48
300.094	25.43
300.309	-3.24
300.523	68.44
300.737	60.24
300.952	-9.39
301.166	68.44
301.381	9.05
301.595	-33.96
301.809	31.57
302.024	-5.29
302.238	29.52
302.452	43.86
302.667	-17.58
302.881	111.44
303.095	-15.53
303.309	56.15
303.524	45.91
303.738	27.48
303.952	33.62
304.166	27.48
304.381	-31.91
304.595	39.76
304.809	31.57
305.023	-68.78
305.237	-27.82
305.452	23.38
305.666	41.81
305.88	-48.3
306.094	15.19
306.308	64.34
306.522	35.67
306.736	13.14
306.95	25.43
307.164	-13.48
307.379	95.06
307.593	50
307.807	11.09
308.021	27.48
308.235	-29.87
308.449	93.01
308.663	-3.24
308.877	4.95
309.091	52.05
309.305	0.85
309.519	15.19
309.733	47.96
309.947	-23.72
310.161	123.73
310.374	41.81
310.588	64.34
310.802	9.05
311.016	105.3
311.23	74.58
311.444	21.33
311.658	9.05
311.872	-5.29
312.085	-54.44
312.299	142.16
312.513	-3.24
312.727	72.53
312.941	13.14
313.154	41.81
313.368	-9.39
313.582	45.91
313.796	21.33
314.009	15.19
314.223	-56.49
314.437	52.05
314.651	64.34
314.864	43.86
315.078	80.72
315.292	2.9
315.505	23.38
315.719	54.1
315.933	82.77
316.146	111.44
316.36	-7.34
316.573	80.72
316.787	-29.87
317.001	13.14
317.214	-13.48
317.428	13.14
317.641	-9.39
317.855	37.72
318.068	-33.96
318.282	90.96
318.495	-17.58
318.709	19.29
318.922	60.24
319.136	33.62
319.349	68.44
319.563	0.85
319.776	27.48
319.99	4.95
320.203	-1.19
320.417	-11.43
320.63	70.48
320.843	64.34
321.057	140.12
321.27	15.19
321.483	76.63
321.697	25.43
321.91	4.95
322.124	56.15
322.337	23.38
322.55	11.09
322.763	2.9
322.977	33.62
323.19	-58.54
323.403	45.91
323.617	-9.39
323.83	58.2
324.043	66.39
324.256	62.29
324.469	37.72
324.683	41.81
324.896	9.05
325.109	31.57
325.322	-54.44
325.535	33.62
325.748	-52.39
325.962	17.24
326.175	82.77
326.388	56.15
326.601	50
326.814	45.91
327.027	68.44
327.24	84.82
327.453	-58.54
327.666	107.35
327.879	-1.19
328.092	7
328.305	27.48
328.518	7
328.731	-29.87
328.944	19.29
329.157	19.29
329.37	13.14
329.583	93.01
329.796	-50.35
330.009	17.24
330.222	29.52
330.435	56.15
330.648	47.96
330.861	21.33
331.073	41.81
331.286	47.96
331.499	9.05
331.712	-25.77
331.925	52.05
332.138	41.81
332.35	-1.19
332.563	-1.19
332.776	68.44
332.989	15.19
333.202	17.24
333.414	19.29
333.627	19.29
333.84	66.39
334.053	88.92
334.265	23.38
334.478	-1.19
334.691	31.57
334.903	-36.01
335.116	33.62
335.329	62.29
335.541	27.48
335.754	27.48
335.966	-21.67
336.179	33.62
336.392	15.19
336.604	-19.63
336.817	52.05
337.029	11.09
337.242	82.77
337.454	19.29
337.667	-13.48
337.88	86.87
338.092	4.95
338.305	39.76
338.517	17.24
338.729	7
338.942	27.48
339.154	-13.48
339.367	35.67
339.579	78.68
339.792	23.38
340.004	41.81
340.217	-33.96
340.429	72.53
340.641	7
340.854	62.29
341.066	-7.34
341.278	41.81
341.491	25.43
341.703	47.96
341.915	47.96
342.128	-50.35
342.34	21.33
342.552	19.29
342.764	21.33
342.977	43.86
343.189	7
343.401	160.59
343.613	-48.3
343.826	-7.34
344.038	47.96
344.25	37.72
344.462	80.72
344.674	23.38
344.886	58.2
345.099	76.63
345.311	70.48
345.523	-5.29
345.735	-5.29
345.947	88.92
346.159	23.38
346.371	76.63
346.583	111.44
346.795	68.44
347.007	54.1
347.219	70.48
347.431	70.48
347.643	17.24
347.855	2.9
348.067	58.2
348.279	47.96
348.491	33.62
348.703	35.67
348.915	60.24
349.127	35.67
349.339	-64.68
349.551	-15.53
349.763	66.39
349.975	39.76
350.187	70.48
350.399	47.96
350.61	58.2
350.822	-56.49
351.034	58.2
351.246	-17.58
351.458	129.88
351.669	45.91
351.881	78.68
352.093	68.44
352.305	109.4
352.517	58.2
352.728	119.64
352.94	25.43
353.152	107.35
353.363	39.76
353.575	-7.34
353.787	74.58
353.999	74.58
354.21	19.29
354.422	35.67
354.633	107.35
354.845	107.35
355.057	105.3
355.268	45.91
355.48	97.11
355.692	2.9
355.903	101.2
356.115	25.43
356.326	7
356.538	95.06
356.749	84.82
356.961	23.38
357.172	80.72
357.384	-15.53
357.595	70.48
357.807	88.92
358.018	62.29
358.23	64.34
358.441	43.86
358.653	99.16
358.864	27.48
359.075	88.92
359.287	56.15
359.498	103.25
359.709	7
359.921	29.52
360.132	47.96
360.344	-9.39
360.555	95.06
360.766	76.63
360.977	82.77
361.189	25.43
361.4	60.24
361.611	-7.34
361.823	80.72
362.034	9.05
362.245	19.29
362.456	35.67
362.667	35.67
362.879	47.96
363.09	56.15
363.301	-11.43
363.512	-17.58
363.723	41.81
363.935	72.53
364.146	66.39
364.357	25.43
364.568	99.16
364.779	33.62
364.99	129.88
365.201	-15.53
365.412	17.24
365.623	60.24
365.834	66.39
366.045	25.43
366.256	39.76
366.467	50
366.678	25.43
366.889	-1.19
367.1	0.85
367.311	33.62
367.522	27.48
367.733	111.44
367.944	-25.77
368.155	70.48
368.366	43.86
368.577	45.91
368.788	17.24
368.999	50
369.209	43.86
369.42	52.05
369.631	109.4
369.842	70.48
370.053	37.72
370.264	68.44
370.474	21.33
370.685	19.29
370.896	39.76
371.107	47.96
371.317	9.05
371.528	39.76
371.739	117.59
371.95	-11.43
372.16	99.16
372.371	13.14
372.582	52.05
372.792	31.57
373.003	37.72
373.214	15.19
373.424	35.67
373.635	68.44
373.846	131.92
374.056	27.48
374.267	33.62
374.477	58.2
374.688	21.33
374.898	54.1
375.109	121.68
375.319	21.33
375.53	84.82
375.74	97.11
375.951	41.81
376.161	103.25
376.372	29.52
376.582	27.48
376.793	43.86
377.003	35.67
377.214	80.72
377.424	47.96
377.635	15.19
377.845	21.33
378.055	140.12
378.266	2.9
378.476	25.43
378.686	103.25
378.897	43.86
379.107	39.76
379.317	90.96
379.528	58.2
379.738	93.01
379.948	15.19
380.158	113.49
380.369	58.2
380.579	88.92
380.789	-5.29
380.999	17.24
381.21	0.85
381.42	41.81
381.63	78.68
381.84	56.15
382.05	43.86
382.261	13.14
382.471	25.43
382.681	31.57
382.891	90.96
383.101	76.63
383.311	25.43
383.521	76.63
383.731	58.2
383.941	123.73
384.151	25.43
384.361	31.57
384.571	52.05
384.781	45.91
384.991	27.48
385.201	76.63
385.411	17.24
385.621	60.24
385.831	39.76
386.041	21.33
386.251	64.34
386.461	82.77
386.671	9.05
386.881	33.62
387.091	95.06
387.301	60.24
387.511	64.34
387.72	115.54
387.93	70.48
388.14	131.92
388.35	66.39
388.56	84.82
388.769	125.78
388.979	58.2
389.189	56.15
389.399	58.2
389.609	129.88
389.818	66.39
390.028	56.15
390.238	-7.34
390.447	-36.01
390.657	37.72
390.867	56.15
391.076	52.05
391.286	41.81
391.496	60.24
391.705	-7.34
391.915	101.2
392.125	31.57
392.334	76.63
392.544	82.77
392.753	74.58
392.963	-1.19
393.172	111.44
393.382	45.91
393.591	66.39
393.801	115.54
394.01	80.72
394.22	68.44
394.429	111.44
394.639	136.02
394.848	117.59
395.058	160.59
395.267	-19.63
395.477	35.67
395.686	93.01
395.895	109.4
396.105	144.21
396.314	86.87
396.524	-11.43
396.733	142.16
396.942	142.16
397.152	62.29
397.361	160.59
397.57	15.19
397.78	78.68
397.989	99.16
398.198	125.78
398.407	82.77
398.617	62.29
398.826	129.88
399.035	101.2
399.244	90.96
399.453	60.24
399.663	113.49
399.872	125.78
400.081	95.06
400.29	123.73
400.499	56.15
400.708	131.92
400.917	113.49
401.127	119.64
401.336	125.78
401.545	109.4
401.754	140.12
401.963	140.12
402.172	76.63
402.381	90.96
402.59	164.69
402.799	152.4
403.008	197.46
403.217	181.07
403.426	101.2
403.635	154.45
403.844	41.81
404.053	105.3
404.262	95.06
404.471	123.73
404.68	181.07
404.888	142.16
405.097	148.31
405.306	281.43
405.515	138.07
405.724	207.7
405.933	258.9
406.142	250.71
406.35	217.94
406.559	199.51
406.768	238.42
406.977	207.7
407.185	230.23
407.394	185.17
407.603	172.88
407.812	191.31
408.02	250.71
408.229	226.13
408.438	269.14
408.646	230.23
408.855	269.14
409.064	215.89
409.272	289.62
409.481	252.75
409.69	326.48
409.898	271.19
410.107	293.71
410.315	283.47
410.524	262.99
410.733	332.62
410.941	334.67
411.15	379.73
411.358	437.07
411.567	449.36
411.775	443.21
411.984	498.51
412.192	461.65
412.401	453.45
412.609	547.66
412.818	541.52
413.026	471.89
413.234	518.99
413.443	633.68
413.651	578.38
413.86	688.97
414.068	613.2
414.276	684.87
414.485	600.91
414.693	703.31
414.901	744.27
415.11	758.6
415.318	748.36
415.526	809.8
415.734	908.1
415.943	930.63
416.151	781.13
416.359	920.39
416.567	1000.26
416.776	1030.98
416.984	1110.85
417.192	1139.52
417.4	1069.89
417.608	1063.75
417.817	1110.85
418.025	1207.11
418.233	1372.99
418.441	1252.16
418.649	1291.07
418.857	1407.81
419.065	1495.87
419.273	1399.62
419.481	1434.43
419.689	1473.34
419.897	1590.08
420.105	1563.45
420.313	1653.56
420.521	1758.01
420.729	1903.42
420.937	1897.27
421.145	1944.38
421.353	2114.36
421.561	2116.41
421.769	2147.12
421.977	2327.35
422.185	2267.95
422.393	2401.07
422.601	2566.96
422.809	2519.85
423.017	2534.19
423.224	2640.69
423.432	2771.76
423.64	2845.48
423.848	2992.94
424.056	2986.79
424.263	3169.06
424.471	3210.02
424.679	3361.57
424.887	3511.07
425.094	3414.82
425.302	3580.7
425.51	3750.68
425.718	3848.99
425.925	3871.51
426.133	3900.19
426.341	4166.42
426.548	4508.43
426.756	4504.34
426.964	4580.11
427.171	4850.44
427.379	4821.77
427.586	4975.37
427.794	5161.73
428.001	5270.28
428.209	5657.34
428.417	5561.09
428.624	5880.57
428.832	5806.84
429.039	5843.71
429.247	5974.78
429.454	6449.91
429.662	6808.3
429.869	6275.83
430.076	6791.92
430.284	6497.01
430.491	6931.18
430.699	7568.1
430.906	7422.69
431.114	7383.78
431.321	7564
431.528	7891.68
431.736	8325.85
431.943	8788.69
432.15	8553.17
432.358	8669.91
432.565	8997.58
432.772	9063.12
432.979	9634.5
433.187	9677.51
433.394	9804.48
433.601	10396.34
433.808	10543.8
434.016	10478.26
434.223	10711.73
434.43	11582.12
434.637	11197.1
434.844	12106.4
435.052	12190.36
435.259	12034.72
435.466	12120.73
435.673	12282.52
435.88	12874.38
436.087	13732.48
436.294	13648.52
436.501	13445.77
436.708	13636.23
436.915	13978.24
437.122	14807.67
437.329	14637.69
437.537	15170.16
437.743	15270.51
437.95	15243.88
438.157	15944.29
438.364	16427.61
438.571	16616.02
438.778	16775.77
438.985	18549.31
439.192	17334.86
439.399	17949.25
439.606	17482.31
439.813	18854.45
440.02	19837.48
440.227	19577.39
440.433	19360.3
440.64	19997.22
440.847	19829.29
441.054	20509.21
441.261	22219.27
441.467	21471.76
441.674	21662.22
441.881	22749.69
442.088	22516.22
442.294	22499.84
442.501	23089.65
442.708	23572.97
442.914	24433.12
443.121	25504.21
443.328	24732.12
443.534	26429.89
443.741	25666
443.948	25299.41
444.154	27210.17
444.361	27093.43
444.568	27265.46
444.774	27365.81
444.981	27668.91
445.187	28613.02
445.394	29729.17
445.6	29223.32
445.807	32078.19
446.013	31160.7
446.22	31326.58
446.426	32469.35
446.633	32983.39
446.839	33644.88
447.046	32717.15
447.252	34333
447.459	34640.2
447.665	33982.8
447.871	35436.86
448.078	37427.48
448.284	35735.86
448.491	36706.6
448.697	37890.32
448.903	38656.26
449.11	38777.09
449.316	37921.04
449.522	38973.7
449.728	39364.86
449.935	39659.77
450.141	40075.51
450.347	40626.41
450.553	39459.07
450.76	39745.78
450.966	41246.94
451.172	40700.14
451.378	42139.86
451.584	40775.91
451.791	41898.2
451.997	41644.25
452.203	42207.44
452.409	42506.44
452.615	41879.77
452.821	40554.73
453.027	40257.78
453.233	42520.78
453.44	40800.49
453.646	41105.63
453.852	41384.16
454.058	41726.17
454.264	40323.31
454.47	41427.17
454.676	40124.66
454.882	41459.93
455.088	38041.87
455.294	38631.69
455.5	39254.27
455.705	39119.1
455.911	37841.17
456.117	37237.02
456.323	36288.81
456.529	34881.86
456.735	36571.43
456.941	35197.24
457.147	34761.03
457.352	33470.81
457.558	33096.03
457.764	33190.23
457.97	32303.46
458.176	31770.99
458.381	31744.37
458.587	30179.72
458.793	30460.29
458.999	28746.14
459.204	30695.81
459.41	29714.83
459.616	27931.05
459.821	27967.91
460.027	27599.28
460.233	27034.04
460.438	25694.67
460.644	26177.99
460.85	24809.95
461.055	24476.13
461.261	24594.91
461.466	22338.05
461.672	22012.42
461.878	23341.55
462.083	22114.82
462.289	21559.82
462.494	21150.23
462.7	20220.45
462.905	19647.02
463.111	20556.32
463.316	20697.63
463.522	20300.32
463.727	20552.22
463.932	20152.87
464.138	19864.1
464.343	20077.09
464.549	19554.86
464.754	20044.32
464.959	19857.96
465.165	19853.86
465.37	19003.96
465.575	18496.06
465.781	19212.85
465.986	19386.93
466.191	18362.94
466.397	17965.64
466.602	17019.47
466.807	18008.64
467.012	18121.28
467.218	17984.07
467.423	17717.83
467.628	17793.61
467.833	18252.35
468.038	18041.41
468.244	17429.07
468.449	18147.9
468.654	17154.64
468.859	17152.59
469.064	17064.53
469.269	16423.51
469.474	16722.52
469.679	17134.16
469.885	16263.77
470.09	16806.48
470.295	16544.34
470.5	16249.44
470.705	16177.76
470.91	15901.28
471.115	15635.05
471.32	16071.26
471.525	15786.6
471.73	15661.67
471.935	15422.06
472.139	14953.07
472.344	15116.91
472.549	14858.87
472.754	14570.1
472.959	14518.9
473.164	14027.39
473.369	13988.48
473.574	14613.11
473.778	14131.84
473.983	14271.1
474.188	14162.56
474.393	13392.52
474.598	13519.5
474.802	13429.38
475.007	13234.83
475.212	13410.95
475.417	12767.89
475.621	12872.34
475.826	13052.56
476.031	12661.4
476.235	12186.27
476.44	12663.44
476.645	12198.56
476.849	12331.67
477.054	12272.28
477.259	12149.4
477.463	12065.44
477.668	11518.63
477.872	11729.57
478.077	11360.94
478.282	11258.54
478.486	11285.16
478.691	11045.55
478.895	11016.88
479.1	11020.97
479.304	11078.32
479.509	10689.2
479.713	10990.25
479.918	10635.96
480.122	10570.42
480.326	10574.52
480.531	10914.48
480.735	10603.19
480.94	10535.6
481.144	10750.64
481.348	10343.1
481.553	10633.91
481.757	10121.91
481.961	10117.82
482.166	10687.15
482.37	10484.41
482.574	10185.4
482.778	10304.18
482.983	10418.87
483.187	10392.25
483.391	10273.46
483.595	10312.38
483.8	10111.68
484.004	10242.75
484.208	10336.95
484.412	10259.13
484.616	10130.11
484.821	10232.51
485.025	9910.97
485.229	10425.01
485.433	10207.93
485.637	10130.11
485.841	10218.17
486.045	10357.43
486.249	10138.3
486.453	10177.21
486.657	10201.79
486.861	10273.46
487.065	10091.2
487.269	10117.82
487.473	10105.53
487.677	10250.94
487.881	10472.12
488.085	10265.27
488.289	10361.53
488.493	10048.19
488.697	10470.07
488.901	10216.12
489.105	10226.36
489.309	10406.58
489.512	10171.07
489.716	10205.88
489.92	10304.18
490.124	10277.56
490.328	10404.53
490.531	10304.18
490.735	10566.32
490.939	10541.75
491.143	10390.2
491.346	10285.75
491.55	10672.82
491.754	10672.82
491.958	10764.98
492.161	10539.7
492.365	10826.42
492.569	10681.01
492.772	10699.44
492.976	10838.7
493.18	10850.99
493.383	10973.87
493.587	11025.07
493.79	11188.91
493.994	11121.32
494.197	11004.59
494.401	11117.23
494.605	11297.45
494.808	11694.75
495.012	11606.69
495.215	11496.1
495.419	11494.05
495.622	11672.23
495.825	11889.31
496.029	11829.92
496.232	12061.34
496.436	11926.18
496.639	12317.34
496.843	12163.74
497.046	12413.59
497.249	12671.64
497.453	12745.36
497.656	12556.95
497.859	12796.56
498.063	13048.46
498.266	13261.45
498.469	13056.65
498.673	13202.06
498.876	13718.15
499.079	13533.83
499.282	13585.03
499.485	13896.32
499.689	13994.62
499.892	14162.56
500.095	14340.73
500.298	14512.76
500.501	14703.22
500.705	14811.76
500.908	14809.72
501.111	14926.45
501.314	15323.76
501.517	15358.57
501.72	15776.36
501.923	15452.78
502.126	15972.96
502.329	16159.33
502.532	16292.44
502.735	16317.02
502.938	16556.63
503.141	16841.3
503.344	16857.68
503.547	17070.67
503.75	17177.17
503.953	17349.2
504.156	17594.95
504.359	17873.48
504.562	17715.78
504.765	18518.59
504.968	18408
505.17	18727.48
505.373	18471.48
505.576	18985.52
505.779	19098.16
505.982	19417.65
506.185	19743.27
506.387	19393.07
506.59	19704.36
506.793	20288.03
506.996	20105.76
507.198	20513.31
507.401	20607.51
507.604	20736.54
507.807	21277.2
508.009	21060.12
508.212	21641.74
508.415	21828.1
508.617	21844.49
508.82	21918.21
509.022	21971.46
509.225	22718.97
509.428	22725.11
509.63	23212.53
509.833	22731.26
510.035	23583.21
510.238	23304.69
510.44	23556.59
510.643	24087.01
510.845	23910.89
511.048	23720.43
511.25	24775.13
511.453	24855
511.655	25553.36
511.858	24816.09
512.06	25240.02
512.262	25729.48
512.465	25551.31
512.667	26083.78
512.87	26413.51
513.072	26606.02
513.274	27185.59
513.477	26997.18
513.679	27607.47
513.881	27584.94
514.084	27941.29
514.286	27804.08
514.488	28244.39
514.69	28897.69
514.893	28469.67
515.095	29045.15
515.297	29290.9
515.499	29069.72
515.701	29700.5
515.904	30089.61
516.106	29927.82
516.308	30656.9
516.51	30853.5
516.712	31039.87
516.914	31269.24
517.116	31486.32
517.318	31656.31
517.52	32010.6
517.722	31932.78
517.925	32387.43
518.127	32969.05
518.329	33042.78
518.531	32907.62
518.733	33235.29
518.935	33876.3
519.136	33198.43
519.338	34136.4
519.54	34091.34
519.742	34652.48
519.944	34961.73
520.146	35225.92
520.348	35035.45
520.55	35746.1
520.752	35348.79
520.954	36423.98
521.155	35938.61
521.357	36350.25
521.559	36372.78
521.761	36878.63
521.963	37036.32
522.164	37189.92
522.366	37159.2
522.568	37826.84
522.77	38109.46
522.971	38510.86
523.173	38328.59
523.375	38822.15
523.576	38689.03
523.778	38873.35
523.98	39510.27
524.181	39452.92
524.383	39356.67
524.584	39731.45
524.786	39850.23
524.988	39971.06
525.189	39856.37
525.391	41056.48
525.592	40329.45
525.794	41052.39
525.995	40687.85
526.197	40681.7
526.398	41136.35
526.6	41416.93
526.801	41224.42
527.003	41126.11
527.204	41345.25
527.406	41851.09
527.607	41816.28
527.808	41877.72
528.01	41814.23
528.211	41961.69
528.412	42830.02
528.614	42500.3
528.815	42156.24
529.016	42819.78
529.218	42162.39
529.419	42756.3
529.62	42727.63
529.822	42637.51
530.023	42541.26
530.224	42608.84
530.425	42567.88
530.626	42875.08
530.828	42498.25
531.029	43462.85
531.23	42926.28
531.431	42758.34
531.632	43053.25
531.833	43344.06
532.035	43169.99
532.236	43049.16
532.437	43086.02
532.638	43063.49
532.839	43483.33
533.04	43716.79
533.241	43010.25
533.442	44023.99
533.643	43325.63
533.844	43296.96
534.045	43466.94
534.246	43460.8
534.447	43684.03
534.648	43219.14
534.849	43935.93
535.05	43493.57
535.251	43157.7
535.451	43546.81
535.652	43452.61
535.853	43567.29
536.054	43448.51
536.255	43696.31
536.456	43342.02
536.657	43667.64
536.857	43524.29
537.058	43563.2
537.259	43950.26
537.46	43864.25
537.66	43419.84
537.861	43815.1
538.062	43415.74
538.263	43993.27
538.463	43206.85
538.664	43401.41
538.865	43704.51
539.065	43794.62
539.266	43260.1
539.466	43765.95
539.667	43094.21
539.868	43714.75
540.068	43487.42
540.269	43190.47
540.469	43737.27
540.67	43137.22
540.87	43483.33
541.071	43598.01
541.271	43258.05
541.472	43122.88
541.672	43110.6
541.873	43239.62
542.073	42692.81
542.274	43466.94
542.474	43145.41
542.675	43114.69
542.875	43516.09
543.075	42868.94
543.276	42600.65
543.476	43557.05
543.676	43147.46
543.877	43075.78
544.077	43239.62
544.277	43100.36
544.478	43000.01
544.678	43051.2
544.878	43043.01
545.078	43006.15
545.279	42512.59
545.479	43022.53
545.679	43000.01
545.879	42723.53
546.079	43016.39
546.28	42805.45
546.48	42803.4
546.68	42877.13
546.88	43151.55
547.08	43253.95
547.28	42723.53
547.48	42793.16
547.68	42750.15
547.88	42100.95
548.081	42793.16
548.281	42768.58
548.481	42627.27
548.681	42619.08
548.881	42526.92
549.081	42543.31
549.28	42440.91
549.48	42934.47
549.68	42684.62
549.88	42948.81
550.08	42399.95
550.28	42811.59
550.48	42469.58
550.68	43157.7
550.88	42541.26
551.08	42447.05
551.279	42881.22
551.479	42545.36
551.679	42549.45
551.879	42500.3
552.079	42942.66
552.278	42195.15
552.478	42463.44
552.678	42342.61
552.878	42625.23
553.077	42072.28
553.277	42197.2
553.477	42647.75
553.676	42260.69
553.876	42133.71
554.076	42313.94
554.275	42148.05
554.475	41926.87
554.674	42236.11
554.874	42340.56
555.074	41713.88
555.273	42379.47
555.473	42580.17
555.672	42055.89
555.872	42438.86
556.071	42328.27
556.271	42205.39
556.47	41961.69
556.67	41597.15
556.869	41685.21
557.068	42035.41
557.268	41756.89
557.467	41744.6
557.667	41803.99
557.866	41605.34
558.065	41832.66
558.265	41509.08
558.464	41148.64
558.663	41957.59
558.863	41152.74
559.062	42139.86
559.261	40788.2
559.461	41631.96
559.66	40917.22
559.859	41203.94
560.058	41040.1
560.258	41335.01
560.457	40792.29
560.656	41435.36
560.855	40648.94
561.054	41038.05
561.253	41044.2
561.453	40741.1
561.652	40902.89
561.851	40896.74
562.05	40546.54
562.249	40315.12
562.448	40673.51
562.647	40866.02
562.846	40354.03
563.045	40579.31
563.244	39903.48
563.443	40237.3
563.642	39932.15
563.841	39991.54
564.04	40114.42
564.239	40304.88
564.438	39530.75
564.637	39913.72
564.836	39792.89
565.035	39321.85
565.234	39792.89
565.432	39796.98
565.631	39491.83
565.83	39766.26
566.029	39241.98
566.228	39284.99
566.427	39403.77
566.625	39246.08
566.824	38930.69
567.023	39463.16
567.222	38238.48
567.42	39241.98
567.619	38947.08
567.818	39147.78
568.016	38750.47
568.215	38916.36
568.414	38469.9
568.612	38811.91
568.811	38209.81
569.01	38633.74
569.208	37996.82
569.407	38351.12
569.605	38166.8
569.804	38791.43
570.002	37732.63
570.201	37959.95
570.4	37484.83
570.598	37847.32
570.797	37781.78
570.995	37798.16
571.193	37320.99
571.392	37495.07
571.59	37185.82
571.789	37554.46
571.987	37493.02
572.186	37212.45
572.384	36888.87
572.582	37486.87
572.781	36940.07
572.979	36583.72
573.177	37202.21
573.376	37265.69
573.574	36571.43
573.772	36548.9
573.971	36401.45
574.169	36567.34
574.367	36217.13
574.565	36262.19
574.763	36208.94
574.962	36430.12
575.16	36096.3
575.358	36180.27
575.556	35549.49
575.754	36477.22
575.952	35682.61
576.151	35985.71
576.349	35193.15
576.547	35408.19
576.745	35256.64
576.943	35545.4
577.141	35199.29
577.339	34789.7
577.537	34883.91
577.735	34812.23
577.933	34754.88
578.131	35096.89
578.329	34578.76
578.527	34517.32
578.725	34830.66
578.923	34912.58
579.121	34152.78
579.319	34599.24
579.516	34552.13
579.714	34447.69
579.912	34001.23
580.11	33962.32
580.308	33868.11
580.506	34054.48
580.704	33450.33
580.901	33759.57
581.099	33976.65
581.297	33384.79
581.495	33171.8
581.692	33648.98
581.89	33233.24
582.088	33208.67
582.285	33096.03
582.483	33177.95
582.681	32991.58
582.878	32895.33
583.076	32436.58
583.274	33089.88
583.471	32428.39
583.669	32739.68
583.866	32436.58
584.064	32405.86
584.262	32014.7
584.459	32192.87
584.657	32106.86
584.854	32049.52
585.052	31504.76
585.249	32024.94
585.447	32184.68
585.644	31578.48
585.841	31459.7
586.039	32016.75
586.236	31199.61
586.434	31218.04
586.631	31156.6
586.828	31373.69
587.026	31322.49
587.223	31191.42
587.42	30790.02
587.618	31250.81
587.815	30468.48
588.012	30667.14
588.21	30609.79
588.407	30839.17
588.604	30509.44
588.801	30306.69
588.999	30466.44
589.196	30421.38
589.393	30288.26
589.59	30030.22
589.787	30036.36
589.984	29944.2
590.182	29884.81
590.379	29802.89
590.576	29766.03
590.773	29532.56
590.97	29153.69
591.167	29499.8
591.364	29299.09
591.561	29415.83
591.758	29200.79
591.955	28889.5
592.152	29276.57
592.349	28881.31
592.546	28551.59
592.743	28838.3
592.94	28397.99
593.137	28696.99
593.334	28813.73
593.531	28504.48
593.727	28328.36
593.924	28223.91
594.121	28025.26
594.318	28230.05
594.515	27828.65
594.712	28119.46
594.908	27922.86
595.105	28119.46
595.302	27412.92
595.499	27730.35
595.696	27374
595.892	27517.36
596.089	27247.03
596.286	27470.26
596.482	27328.95
596.679	27132.34
596.876	26958.27
597.072	26900.92
597.269	26982.84
597.466	26599.87
597.662	26810.81
597.859	26671.55
598.055	26798.52
598.252	26300.87
598.448	26417.6
598.645	26421.7
598.841	26005.96
599.038	26415.55
599.234	26018.25
599.431	25711.05
599.627	25860.55
599.824	25934.28
600.02	25303.51
600.217	25797.07
600.413	25645.52
600.609	25475.54
600.806	25555.41
601.002	25465.3
601.198	25043.42
601.395	25131.48
601.591	25041.37
601.787	25254.36
601.984	24779.23
602.18	25131.48
602.376	24697.31
602.572	24844.76
602.769	24764.89
602.965	24484.32
603.161	24517.09
603.357	24699.36
603.553	24408.54
603.75	24592.86
603.946	24228.32
604.142	24027.62
604.338	23730.67
604.534	24359.39
604.73	24054.25
604.926	23939.56
605.122	23841.26
605.318	23767.53
605.514	23523.82
605.71	23491.05
605.906	23532.01
606.102	23622.12
606.298	23605.74
606.494	23359.98
606.69	23200.24
606.886	23296.5
607.082	22888.95
607.278	23316.98
607.474	22991.35
607.67	23337.46
607.866	23015.93
608.062	23081.46
608.257	22950.39
608.453	22684.16
608.649	22847.99
608.845	22675.96
609.041	22559.23
609.236	22741.5
609.432	22622.72
609.628	22419.97
609.824	22338.05
610.019	22438.4
610.215	22235.65
610.411	22211.07
610.606	22247.94
610.802	22276.61
610.998	21998.09
611.193	21772.81
611.389	21959.17
611.584	21946.89
611.78	21666.31
611.976	21783.05
612.171	21930.5
612.367	22034.95
612.562	21520.91
612.758	21506.57
612.953	21748.23
613.149	21748.23
613.344	21568.01
613.539	21797.38
613.735	21586.44
613.93	21453.33
614.126	21246.48
614.321	21611.02
614.517	21418.51
614.712	21410.32
614.907	20824.6
615.103	21234.19
615.298	21072.4
615.493	21105.17
615.688	20904.47
615.884	21404.17
616.079	21015.06
616.274	21152.27
616.47	20720.15
616.665	20912.66
616.86	21086.74
617.055	20761.11
617.25	20570.65
617.445	20834.84
617.641	20288.03
617.836	20687.39
618.031	20179.49
618.226	20279.84
618.421	20230.69
618.616	20496.92
618.811	19946.02
619.006	20275.74
619.201	20240.93
619.396	19982.88
619.591	19706.41
619.786	19716.65
619.981	19644.97
620.176	19989.03
620.371	19675.69
620.566	19507.76
620.761	19329.58
620.956	19448.36
621.151	19079.73
621.346	19270.19
621.541	18805.3
621.735	19112.5
621.93	18879.03
622.125	19098.16
622.32	18559.55
622.515	18956.85
622.709	18543.16
622.904	18680.38
623.099	18344.51
623.294	18414.14
623.488	17840.71
623.683	18086.47
623.878	17787.46
624.072	17633.86
624.267	17957.44
624.462	17834.57
624.656	17607.24
624.851	17525.32
625.046	17248.85
625.24	17263.18
625.435	17218.13
625.629	16925.27
625.824	17291.85
626.018	16882.26
626.213	16781.91
626.407	16953.94
626.602	16515.67
626.796	16798.29
626.991	16433.75
627.185	16288.35
627.38	16353.88
627.574	16188
627.768	16153.18
627.963	16101.98
628.157	15866.47
628.352	15925.86
628.546	15802.98
628.74	15649.38
628.935	15716.97
629.129	15381.1
629.323	15297.13
629.517	15180.4
629.712	15303.28
629.906	15133.29
630.1	14918.26
630.294	14779
630.489	14787.19
630.683	14983.79
630.877	14555.77
631.071	14715.51
631.265	14455.42
631.459	14457.46
631.653	14383.74
631.848	14299.77
632.042	14097.02
632.236	14269.05
632.43	14193.28
632.624	14379.64
632.818	13968
633.012	13890.18
633.206	13867.65
633.4	13722.24
633.594	13800.07
633.788	13752.96
633.982	13681.28
634.176	13490.82
634.369	13277.83
634.563	13382.28
634.757	13281.93
634.951	13353.61
635.145	12925.58
635.339	13271.69
635.533	12991.12
635.726	13046.41
635.92	12782.23
636.114	12677.78
636.308	12581.53
636.501	12694.16
636.695	12591.77
636.889	12507.8
637.083	12464.79
637.276	12425.88
637.47	12161.69
637.664	12173.98
637.857	12249.75
638.051	12448.41
638.244	12106.4
638.438	11922.08
638.632	11864.74
638.825	11874.98
639.019	11739.81
639.212	11745.95
639.406	11557.54
639.599	11506.34
639.793	11750.05
639.986	11686.56
640.18	11127.47
640.373	11481.77
640.567	11223.72
640.76	11199.15
640.954	10977.97
641.147	11074.22
641.34	11176.62
641.534	11053.74
641.727	10947.25
641.92	10850.99
642.114	10793.65
642.307	10629.81
642.5	10797.74
642.694	10597.04
642.887	10488.5
643.08	10732.21
643.273	10646.19
643.467	10701.49
643.66	10343.1
643.853	10070.72
644.046	10164.92
644.239	10341.05
644.432	10085.05
644.626	10201.79
644.819	9992.89
645.012	9908.93
645.205	9853.63
645.398	9876.16
645.591	9763.52
645.784	9790.14
645.977	9700.03
646.17	9857.73
646.363	9595.59
646.556	9452.23
646.749	9505.48
646.942	9550.53
647.135	9530.05
647.328	9206.47
647.521	9294.54
647.714	8999.63
647.907	9188.04
648.099	9300.68
648.292	8944.33
648.485	9024.2
648.678	9063.12
648.871	9095.88
649.064	8973
649.256	8913.61
649.449	8901.33
649.642	8839.89
649.835	8739.54
650.027	8516.31
650.22	8792.78
650.413	8530.64
650.605	8616.66
650.798	8538.84
650.991	8299.22
651.183	8463.06
651.376	8260.31
651.568	8366.81
651.761	8196.82
651.954	8256.22
652.146	8272.6
652.339	8162.01
652.531	8127.19
652.724	8135.39
652.916	7824.09
653.109	7914.2
653.301	8045.27
653.494	7959.26
653.686	7641.82
653.879	7928.54
654.071	7865.05
654.263	7762.65
654.456	7617.25
654.648	7670.5
654.84	7449.32
655.033	7449.32
655.225	7627.49
655.417	7422.69
655.61	7537.38
655.802	7357.16
655.994	7385.83
656.186	7332.58
656.379	7414.5
656.571	7287.53
656.763	7078.63
656.955	7183.08
657.148	7160.55
657.34	7011.05
657.532	6922.99
657.724	6912.75
657.916	7248.61
658.108	6918.89
658.3	6789.87
658.492	6990.57
658.684	6945.52
658.876	6814.45
659.068	6814.45
659.26	6660.85
659.452	6869.74
659.644	6664.94
659.836	6550.26
660.028	6628.08
660.22	6517.49
660.412	6540.02
660.604	6386.42
660.796	6503.15
660.988	6357.75
661.18	6214.39
661.372	6257.4
661.563	6390.52
661.755	6146.81
661.947	6273.78
662.139	6333.17
662.331	5991.16
662.522	6103.8
662.714	6204.15
662.906	6226.68
663.097	6105.85
663.289	5978.87
663.481	5946.11
663.673	5847.8
663.864	6071.03
664.056	5806.84
664.247	5909.24
664.439	5907.2
664.631	5952.25
664.822	5784.32
665.014	5903.1
665.205	5710.59
665.397	5708.54
665.588	5901.05
665.78	5544.7
665.971	5675.77
666.163	5612.29
666.354	5542.66
666.546	5565.18
666.737	5554.94
666.929	5464.83
667.12	5565.18
667.311	5440.26
667.503	5434.11
667.694	5358.34
667.885	5327.62
668.077	5311.24
668.268	5319.43
668.459	5268.23
668.651	5200.65
668.842	5438.21
669.033	5063.43
669.224	5200.65
669.416	5200.65
669.607	5184.26
669.798	5104.39
669.989	5057.29
670.18	5081.86
670.371	5088.01
670.563	5114.63
670.754	5114.63
670.945	5026.57
671.136	5085.96
671.327	4897.55
671.518	4795.15
671.709	4791.05
671.9	4958.99
672.091	4838.16
672.282	4772.62
672.473	4819.72
672.664	4791.05
672.855	4795.15
673.046	4754.19
673.237	4877.07
673.428	4651.79
673.619	4705.04
673.809	4606.74
674	4680.46
674.191	4594.45
674.382	4690.7
674.573	4438.8
674.764	4594.45
674.954	4436.75
675.145	4401.94
675.336	4471.57
675.527	4412.18
675.717	4582.16
675.908	4496.14
676.099	4360.98
676.289	4516.62
676.48	4565.78
676.671	4377.36
676.861	4436.75
677.052	4426.51
677.243	4434.71
677.433	4406.03
677.624	4238.1
677.814	4498.19
678.005	4244.24
678.195	4295.44
678.386	4234
678.576	4260.63
678.767	4356.88
678.957	4258.58
679.148	4471.57
679.338	4258.58
679.529	4248.34
679.719	4205.33
679.909	4272.92
680.1	4172.57
680.29	4158.23
680.481	4162.33
680.671	4252.44
680.861	4215.57
681.052	4180.76
681.242	4006.68
681.432	4109.08
681.622	4070.17
681.813	3959.58
682.003	3980.06
682.193	4045.59
682.383	4041.5
682.573	4098.84
682.764	4184.85
682.954	3992.34
683.144	4188.95
683.334	3994.39
683.524	4215.57
683.714	3859.23
683.904	3812.12
684.094	3969.82
684.284	3973.91
684.474	3971.86
684.664	3842.84
684.854	3959.58
685.044	3826.46
685.234	3824.41
685.424	3894.04
685.614	3889.95
685.804	3887.9
685.994	3676.96
686.184	3828.51
686.374	3889.95
686.564	3648.29
686.753	3779.36
686.943	3650.33
687.133	3631.9
687.323	3695.39
687.513	3660.57
687.702	3715.87
687.892	3601.18
688.082	3681.05
688.272	3619.61
688.461	3525.41
688.651	3638.05
688.841	3627.81
689.03	3572.51
689.22	3531.55
689.41	3541.79
689.599	3549.98
689.789	3433.25
689.979	3572.51
690.168	3478.3
690.358	3402.53
690.547	3386.15
690.737	3425.06
690.926	3457.82
691.116	3461.92
691.305	3586.85
691.495	3324.71
691.684	3341.09
691.874	3193.64
692.063	3320.61
692.252	3373.86
692.442	3275.56
692.631	3148.58
692.82	3169.06
693.01	3224.36
693.199	3210.02
693.388	3199.78
693.578	3029.8
693.767	3081
693.956	3124.01
694.146	3150.63
694.335	3111.72
694.524	3121.96
694.713	3064.61
694.902	3132.2
695.092	3152.68
695.281	3017.51
695.47	3019.56
695.659	3210.02
695.848	3128.1
696.037	3003.18
696.226	3062.57
696.415	3099.43
696.604	3072.81
696.793	2988.84
696.982	3017.51
697.171	2958.12
697.36	3093.29
697.549	3017.51
697.738	3040.04
697.927	2980.65
698.116	2988.84
698.305	3025.7
698.494	2872.11
698.683	2898.73
698.872	3013.42
699.061	2906.92
699.25	3062.57
699.438	2937.64
699.627	2966.31
699.816	3001.13
700.005	2980.65
700.193	3031.85
700.382	2929.45
700.571	2874.15
700.76	3025.7
700.948	3060.52
701.137	2892.59
701.326	2970.41
701.514	2982.7
701.703	2958.12
701.892	2908.97
702.08	2954.02
702.269	2960.17
702.457	2884.39
702.646	2945.83
702.834	2763.56
703.023	2933.54
703.212	2956.07
703.4	2992.94
703.589	3040.04
703.777	2917.16
703.965	2859.82
704.154	2915.11
704.342	2859.82
704.531	2835.24
704.719	2863.91
704.907	2853.67
705.096	2790.19
705.284	2927.4
705.472	2917.16
705.661	2816.81
705.849	2999.08
706.037	2978.6
706.226	2892.59
706.414	2970.41
706.602	2888.49
706.79	2947.88
706.979	2894.63
707.167	2923.3
707.355	2890.54
707.543	2704.17
707.731	2960.17
707.919	2749.23
708.107	2923.3
708.296	2917.16
708.484	2896.68
708.672	2966.31
708.86	2872.11
709.048	2786.09
709.236	2857.77
709.424	2775.85
709.612	2755.37
709.8	2865.96
709.988	2814.76
710.176	2947.88
710.364	2810.67
710.551	2902.83
710.739	2908.97
710.927	2857.77
711.115	2816.81
711.303	2874.15
711.491	2872.11
711.679	2865.96
711.866	2855.72
712.054	2902.83
712.242	2917.16
712.43	2847.53
712.617	2849.58
712.805	2814.76
712.993	2917.16
713.181	2736.94
713.368	2876.2
713.556	2888.49
713.744	2767.66
713.931	2988.84
714.119	2786.09
714.306	2917.16
714.494	2951.98
714.682	2741.04
714.869	2788.14
715.057	2814.76
715.244	2827.05
715.432	2843.43
715.619	2935.59
715.807	2722.6
715.994	2992.94
716.182	2794.28
716.369	2870.06
716.556	2829.1
716.744	2812.71
716.931	2843.43
717.119	2820.91
717.306	2798.38
717.493	2878.25
717.681	2784.04
717.868	2837.29
718.055	2769.71
718.242	2741.04
718.43	2835.24
718.617	2872.11
718.804	2790.19
718.991	2851.63
719.179	2794.28
719.366	2831.15
719.553	2788.14
719.74	2738.99
719.927	2904.87
720.114	2767.66
720.301	2843.43
720.488	2755.37
720.676	2827.05
720.863	2786.09
721.05	2904.87
721.237	2859.82
721.424	2753.32
721.611	2759.47
721.798	2736.94
721.985	2810.67
722.172	2704.17
722.358	2755.37
722.545	2730.8
722.732	2749.23
722.919	2784.04
723.106	2792.23
723.293	2874.15
723.48	2646.83
723.667	2655.02
723.853	2687.79
724.04	2661.16
724.227	2628.4
724.414	2763.56
724.6	2763.56
724.787	2710.32
724.974	2700.08
725.161	2720.56
725.347	2681.64
725.534	2728.75
725.72	2618.16
725.907	2769.71
726.094	2683.69
726.28	2732.84
726.467	2695.98
726.653	2722.6
726.84	2730.8
727.027	2749.23
727.213	2655.02
727.4	2743.08
727.586	2741.04
727.773	2708.27
727.959	2687.79
728.145	2722.6
728.332	2681.64
728.518	2675.5
728.705	2698.03
728.891	2747.18
729.077	2732.84
729.264	2743.08
729.45	2671.4
729.636	2767.66
729.823	2722.6
730.009	2626.35
730.195	2636.59
730.382	2687.79
730.568	2749.23
730.754	2667.31
730.94	2691.88
731.126	2747.18
731.313	2665.26
731.499	2661.16
731.685	2618.16
731.871	2681.64
732.057	2718.51
732.243	2685.74
732.429	2616.11
732.615	2685.74
732.801	2681.64
732.987	2538.29
733.173	2618.16
733.359	2536.24
733.545	2607.92
733.731	2552.62
733.917	2675.5
734.103	2581.29
734.289	2591.53
734.475	2630.45
734.661	2462.51
734.847	2609.97
735.033	2548.53
735.219	2458.42
735.404	2626.35
735.59	2618.16
735.776	2550.57
735.962	2607.92
736.148	2581.29
736.333	2554.67
736.519	2556.72
736.705	2546.48
736.89	2435.89
737.076	2376.5
737.262	2536.24
737.447	2560.81
737.633	2521.9
737.819	2511.66
738.004	2460.46
738.19	2489.14
738.375	2413.36
738.561	2566.96
738.747	2511.66
738.932	2374.45
739.118	2452.27
739.303	2538.29
739.489	2489.14
739.674	2376.5
739.859	2433.84
740.045	2439.98
740.23	2396.98
740.416	2247.48
740.601	2396.98
740.786	2380.59
740.972	2173.75
741.157	2270
741.342	2290.48
741.528	2267.95
741.713	2251.57
741.898	2286.39
742.084	2353.97
742.269	2302.77
742.454	2343.73
742.639	2427.7
742.824	2263.86
743.01	2294.58
743.195	2296.63
743.38	2214.71
743.565	2280.24
743.75	2261.81
743.935	2229.04
744.12	2233.14
744.305	2102.07
744.49	2171.7
744.675	2177.84
744.86	2136.88
745.045	2212.66
745.23	2124.6
745.415	2155.32
745.6	2202.42
745.785	2028.34
745.97	2063.16
746.155	2124.6
746.34	2167.6
746.525	2061.11
746.71	2110.26
746.895	2110.26
747.079	2042.68
747.264	2016.05
747.449	2102.07
747.634	2003.77
747.819	1973.05
748.003	1975.1
748.188	1878.84
748.373	1889.08
748.557	1985.34
748.742	1913.66
748.927	1927.99
749.111	1909.56
749.296	1868.6
749.481	1968.95
749.665	1946.42
749.85	1858.36
750.034	1850.17
750.219	1766.2
750.404	1833.79
750.588	1848.12
750.773	1745.72
750.957	1735.48
751.141	1688.38
751.326	1766.2
751.51	1696.57
751.695	1653.56
751.879	1706.81
752.064	1745.72
752.248	1672
752.432	1790.78
752.617	1612.6
752.801	1733.43
752.985	1643.32
753.17	1622.84
753.354	1577.79
753.538	1585.98
753.722	1567.55
753.907	1495.87
754.091	1536.83
754.275	1585.98
754.459	1538.88
754.643	1547.07
754.828	1532.73
755.012	1557.31
755.196	1450.82
755.38	1440.58
755.564	1481.53
755.748	1463.1
755.932	1499.97
756.116	1424.19
756.3	1370.94
756.484	1418.05
756.668	1336.13
756.852	1407.81
757.036	1377.09
757.22	1311.55
757.404	1356.61
757.588	1352.51
757.772	1321.79
757.956	1426.24
758.14	1334.08
758.323	1350.46
758.507	1272.64
758.691	1364.8
758.875	1332.03
759.059	1395.52
759.242	1282.88
759.426	1289.03
759.61	1233.73
759.794	1362.75
759.977	1342.27
760.161	1327.94
760.345	1276.74
760.528	1317.7
760.712	1168.2
760.895	1184.58
761.079	1252.16
761.263	1203.01
761.446	1268.55
761.63	1162.05
761.813	1319.75
761.997	1141.57
762.18	1100.61
762.364	1157.96
762.547	1231.68
762.731	1143.62
762.914	1131.33
763.098	1203.01
763.281	1084.23
763.464	1121.09
763.648	1065.8
763.831	1131.33
764.015	1088.32
764.198	1196.87
764.381	1041.22
764.564	1035.08
764.748	1121.09
764.931	1133.38
765.114	1010.5
765.297	1016.65
765.481	1106.76
765.664	1119.04
765.847	1004.36
766.03	1006.41
766.213	1002.31
766.397	1033.03
766.58	985.93
766.763	1108.8
766.946	1004.36
767.129	858.95
767.312	1057.61
767.495	1047.37
767.678	947.01
767.861	994.12
768.044	1061.7
768.227	985.93
768.41	924.49
768.593	1016.65
768.776	977.73
768.959	1024.84
769.142	942.92
769.324	850.76
769.507	987.97
769.69	967.49
769.873	971.59
770.056	930.63
770.239	906.06
770.421	957.25
770.604	1008.45
770.787	1041.22
770.97	922.44
771.152	928.58
771.335	901.96
771.518	858.95
771.7	883.53
771.883	981.83
772.066	949.06
772.248	826.18
772.431	977.73
772.613	904.01
772.796	893.77
772.978	885.58
773.161	914.25
773.343	856.9
773.526	901.96
773.708	865.1
773.891	811.85
774.073	799.56
774.256	770.89
774.438	834.38
774.621	772.94
774.803	803.66
774.985	707.4
775.168	830.28
775.35	721.74
775.532	785.23
775.715	713.55
775.897	834.38
776.079	750.41
776.261	813.9
776.444	678.73
776.626	809.8
776.808	738.12
776.99	740.17
777.173	703.31
777.355	764.75
777.537	793.42
777.719	768.84
777.901	723.79
778.083	641.87
778.265	727.88
778.447	648.01
778.629	588.62
778.811	574.28
778.993	717.64
779.175	707.4
779.357	635.72
779.539	525.13
779.721	662.35
779.903	719.69
780.085	613.2
780.267	686.92
780.449	709.45
780.631	543.57
780.812	615.24
780.994	609.1
781.176	639.82
781.358	594.76
781.54	551.76
781.721	605
781.903	613.2
782.085	623.44
782.267	592.72
782.448	543.57
782.63	553.8
782.812	498.51
782.993	549.71
783.175	609.1
783.357	543.57
783.538	475.98
783.72	557.9
783.901	502.61
784.083	529.23
784.264	535.37
784.446	523.09
784.627	455.5
784.809	582.48
784.99	504.65
785.172	535.37
785.353	486.22
785.535	521.04
785.716	437.07
785.897	435.02
786.079	451.41
786.26	447.31
786.441	473.93
786.623	471.89
786.804	410.45
786.985	406.35
787.167	500.56
787.348	449.36
787.529	412.5
787.71	461.65
787.891	467.79
788.073	351.06
788.254	385.87
788.435	371.54
788.616	410.45
788.797	338.77
788.978	504.65
789.159	430.93
789.34	451.41
789.522	420.69
789.703	357.2
789.884	410.45
790.065	394.06
790.246	394.06
790.427	371.54
790.607	406.35
790.788	471.89
790.969	371.54
791.15	377.68
791.331	400.21
791.512	361.3
791.693	328.53
791.874	326.48
792.054	387.92
792.235	385.87
792.416	291.66
792.597	353.1
792.778	340.82
792.958	355.15
793.139	273.23
793.32	396.11
793.5	256.85
793.681	387.92
793.862	346.96
794.042	281.43
794.223	277.33
794.404	379.73
794.584	326.48
794.765	344.91
794.945	344.91
795.126	385.87
795.306	310.1
795.487	254.8
795.667	310.1
795.848	308.05
796.028	273.23
796.209	322.38
796.389	332.62
796.57	254.8
796.75	326.48
796.93	314.19
797.111	295.76
797.291	289.62
797.471	312.14
797.652	285.52
797.832	256.85
798.012	287.57
798.192	265.04
798.373	283.47
798.553	316.24
798.733	248.66
798.913	181.07
799.093	291.66
799.274	310.1
799.454	291.66
799.634	277.33
799.814	252.75
799.994	234.32
800.174	256.85
800.354	303.95
800.534	205.65
800.714	318.29
800.894	242.51
801.074	246.61
801.254	316.24
801.434	310.1
801.614	213.84
801.794	279.38
801.974	684.87
802.154	199.51
802.334	291.66
802.514	301.9
802.693	273.23
802.873	195.41
803.053	269.14
803.233	248.66
803.413	265.04
803.592	181.07
803.772	205.65
803.952	230.23
804.131	195.41
804.311	185.17
804.491	260.95
804.67	222.03
804.85	215.89
805.03	252.75
805.209	256.85
805.389	230.23
805.568	246.61
805.748	289.62
805.928	269.14
806.107	256.85
806.287	199.51
806.466	148.31
806.646	219.99
806.825	162.64
807.004	219.99
807.184	129.88
807.363	207.7
807.543	211.79
807.722	107.35
807.901	166.74
808.081	158.55
808.26	179.03
808.439	275.28
808.619	179.03
808.798	158.55
808.977	195.41
809.156	154.45
809.336	203.6
809.515	183.12
809.694	136.02
809.873	166.74
810.052	189.27
810.231	160.59
810.411	156.5
810.59	164.69
810.769	158.55
810.948	207.7
811.127	129.88
811.306	170.83
811.485	117.59
811.664	152.4
811.843	187.22
812.022	129.88
812.201	113.49
812.38	117.59
812.559	113.49
812.737	119.64
812.916	152.4
813.095	133.97
813.274	172.88
813.453	185.17
813.632	215.89
813.811	213.84
813.989	103.25
814.168	168.79
814.347	138.07
814.526	174.93
814.704	111.44
814.883	176.98
815.062	181.07
815.24	164.69
815.419	115.54
815.598	158.55
815.776	162.64
815.955	99.16
816.133	72.53
816.312	211.79
816.49	103.25
816.669	138.07
816.847	152.4
817.026	160.59
817.204	123.73
817.383	181.07
817.561	119.64
817.74	129.88
817.918	158.55
818.097	158.55
818.275	70.48
818.453	76.63
818.632	156.5
818.81	93.01
818.988	54.1
819.167	136.02
819.345	111.44
819.523	150.36
819.701	189.27
819.879	176.98
820.058	101.2
820.236	162.64
820.414	43.86
820.592	164.69
820.77	76.63
820.948	99.16
821.127	121.68
821.305	93.01
821.483	127.83
821.661	160.59
821.839	88.92
822.017	133.97
822.195	179.03
822.373	150.36
822.551	97.11
822.729	101.2
822.907	123.73
823.085	160.59
823.262	136.02
823.44	82.77
823.618	146.26
823.796	93.01
823.974	78.68
824.152	25.43
824.329	58.2
824.507	136.02
824.685	129.88
824.863	117.59
825.04	103.25
825.218	113.49
825.396	95.06
825.574	82.77
825.751	88.92
825.929	115.54
826.107	54.1
826.284	84.82
826.462	119.64
826.639	39.76
826.817	84.82
826.994	131.92
827.172	99.16
827.349	174.93
827.527	125.78
827.704	123.73
827.882	154.45
828.059	115.54
828.237	103.25
828.414	50
828.591	54.1
828.769	39.76
828.946	27.48
829.124	80.72
829.301	97.11
829.478	52.05
829.655	60.24
829.833	80.72
830.01	76.63
830.187	74.58
830.364	93.01
830.542	119.64
830.719	154.45
830.896	119.64
831.073	29.52
831.25	86.87
831.427	47.96
831.604	99.16
831.782	90.96
831.959	170.83
832.136	138.07
832.313	80.72
832.49	146.26
832.667	84.82
832.844	13.14
833.021	82.77
833.198	11.09
833.374	7
833.551	101.2
833.728	84.82
833.905	70.48
834.082	88.92
834.259	43.86
834.436	82.77
834.612	58.2
834.789	109.4
834.966	103.25
835.143	33.62
835.319	35.67
835.496	125.78
835.673	29.52
835.85	54.1
836.026	84.82
836.203	27.48
836.38	109.4
836.556	39.76
836.733	23.38
836.909	37.72
837.086	103.25
837.262	58.2
837.439	95.06
837.616	-9.39
837.792	52.05
837.968	78.68
838.145	4.95
838.321	76.63
838.498	107.35
838.674	103.25
838.851	80.72
839.027	60.24
839.203	78.68
839.38	56.15
839.556	103.25
839.732	133.97
839.909	37.72
840.085	54.1
840.261	25.43
840.437	17.24
840.614	58.2
840.79	70.48
840.966	41.81
841.142	82.77
841.318	13.14
841.494	-3.24
841.671	127.83
841.847	21.33
842.023	35.67
842.199	35.67
842.375	68.44
842.551	-1.19
842.727	4.95
842.903	103.25
843.079	23.38
843.255	82.77
843.431	107.35
843.607	115.54
843.783	-19.63
843.959	25.43
844.134	41.81
844.31	52.05
844.486	19.29
844.662	-1.19
844.838	-7.34
845.013	78.68
845.189	82.77
845.365	76.63
845.541	-52.39
845.716	62.29
845.892	99.16
846.068	41.81
846.244	84.82
846.419	62.29
846.595	-13.48
846.77	-36.01
846.946	52.05
847.122	109.4
847.297	39.76
847.473	60.24
847.648	25.43
847.824	4.95
847.999	-25.77
848.175	11.09
848.35	97.11
848.526	72.53
848.701	27.48
848.876	13.14
849.052	23.38
849.227	43.86
849.403	58.2
849.578	19.29
849.753	43.86
849.929	41.81
850.104	-17.58
850.279	39.76
850.454	19.29
850.63	68.44
850.805	37.72
850.98	25.43
851.155	60.24
851.33	37.72
851.505	31.57
851.681	19.29
851.856	39.76
852.031	56.15
852.206	-23.72
852.381	-23.72
852.556	50
852.731	4.95
852.906	103.25
853.081	47.96
853.256	17.24
853.431	52.05
853.606	-3.24
853.781	-58.54
853.956	47.96
854.131	-62.63
854.305	33.62
854.48	-52.39
854.655	37.72
854.83	33.62
855.005	-11.43
855.18	-60.59
855.354	21.33
855.529	2.9
855.704	0.85
855.879	74.58
856.053	-7.34
856.228	29.52
856.403	-56.49
856.577	54.1
856.752	47.96
856.926	43.86
857.101	2.9
857.276	72.53
857.45	72.53
857.625	66.39
857.799	56.15
857.974	52.05
858.148	41.81
858.323	-9.39
858.497	11.09
858.672	60.24
858.846	27.48
859.02	58.2
859.195	-21.67
859.369	11.09
859.543	-1.19
859.718	76.63
859.892	-1.19
860.066	33.62
860.241	11.09
860.415	62.29
860.589	-19.63
860.763	-17.58
860.938	11.09
861.112	50
861.286	70.48
861.46	29.52
861.634	21.33
861.808	82.77
861.982	-40.11
862.157	13.14
862.331	-11.43
862.505	23.38
862.679	-23.72
862.853	-68.78
863.027	15.19
863.201	50
863.375	11.09
863.549	90.96
863.722	23.38
863.896	9.05
864.07	-9.39
864.244	37.72
864.418	109.4
864.592	25.43
864.766	-36.01
864.939	27.48
865.113	-54.44
865.287	33.62
865.461	4.95
865.634	-19.63
865.808	-27.82
865.982	-7.34
866.156	2.9
866.329	17.24
866.503	37.72
866.676	-23.72
866.85	-17.58
867.024	-11.43
867.197	-27.82
867.371	35.67
867.544	17.24
867.718	2.9
867.891	80.72
868.065	-70.83
868.238	52.05
868.412	74.58
868.585	9.05
868.759	-19.63
868.932	7
869.105	-40.11
869.279	-33.96
869.452	-9.39
869.625	4.95
869.799	-5.29
869.972	-25.77
870.145	27.48
870.319	25.43
870.492	17.24
870.665	9.05
870.838	-7.34
871.011	-29.87
871.185	13.14
871.358	-33.96
871.531	35.67
871.704	41.81
871.877	-1.19
872.05	19.29
872.223	-44.2
872.396	31.57
872.569	23.38
872.742	25.43
872.915	39.76
873.088	60.24
873.261	-62.63
873.434	33.62
873.607	37.72
873.78	56.15
873.953	-17.58
874.126	-7.34
874.299	-87.21
874.471	-38.06
874.644	111.44
874.817	35.67
874.99	50
875.163	39.76
875.335	11.09
875.508	9.05
875.681	54.1
875.853	72.53
876.026	-31.91
876.199	35.67
876.371	-5.29
876.544	7
876.717	60.24
876.889	4.95
877.062	64.34
877.234	-74.92
877.407	35.67
877.579	-13.48
877.752	-1.19
877.924	90.96
878.097	15.19
878.269	13.14
878.442	-13.48
878.614	76.63
878.786	-33.96
878.959	37.72
879.131	-11.43
879.303	39.76
879.476	-13.48
879.648	23.38
879.82	-50.35
879.993	-13.48
880.165	68.44
880.337	7
880.509	31.57
880.681	-42.15
880.854	15.19
881.026	47.96
881.198	35.67
881.37	-85.16
881.542	-5.29
881.714	13.14
881.886	-48.3
882.058	-48.3
882.23	17.24
882.402	15.19
882.574	11.09
882.746	17.24
882.918	-17.58
883.09	58.2
883.262	54.1
883.434	-1.19
883.606	-19.63
883.778	-36.01
883.95	-1.19
884.122	-13.48
884.293	52.05
884.465	66.39
884.637	23.38
884.809	17.24
884.98	11.09
885.152	-15.53
885.324	-25.77
885.496	25.43
885.667	60.24
885.839	-54.44
886.011	-5.29
886.182	-91.31
886.354	19.29
886.525	-70.83
886.697	33.62
886.869	-13.48
887.04	-29.87
887.212	82.77
887.383	60.24
887.555	31.57
887.726	-42.15
887.897	43.86
888.069	-7.34
888.24	-42.15
888.412	25.43
888.583	52.05
888.754	-13.48
888.926	-13.48
889.097	66.39
889.268	7
889.44	21.33
889.611	-62.63
889.782	2.9
889.953	-25.77
890.125	62.29
890.296	0.85
890.467	-48.3
890.638	-54.44
890.809	43.86
890.98	-9.39
891.151	15.19
891.323	56.15
891.494	4.95
891.665	13.14
891.836	17.24
892.007	39.76
892.178	0.85
892.349	13.14
892.52	15.19
892.691	19.29
892.862	-66.73
893.032	-21.67
893.203	-70.83
893.374	17.24
893.545	25.43
893.716	-38.06
893.887	37.72
894.057	-29.87
894.228	9.05
894.399	29.52
894.57	19.29
894.74	60.24
894.911	15.19
895.082	-15.53
895.253	-64.68
895.423	64.34
895.594	39.76
895.764	-3.24
895.935	-5.29
896.106	-27.82
896.276	-48.3
896.447	2.9
896.617	33.62
896.788	-42.15
896.958	-54.44
897.129	-38.06
897.299	4.95
897.47	29.52
897.64	-3.24
897.81	21.33
897.981	-21.67
898.151	-74.92
898.322	4.95
898.492	7
898.662	-17.58
898.832	-83.11
899.003	41.81
899.173	33.62
899.343	11.09
899.513	-56.49
