Data from USB4F104151__56__12-01-44-329.txt Node

Date: Fri Mar 14 12:01:44 EDT 2025
User: louis
Spectrometer: USB4F10415
Trigger mode: 4
Integration Time (sec): 2.000000E-2
Scans to average: 1
Electric dark correction enabled: true
Nonlinearity correction enabled: false
Boxcar width: 0
XAxis mode: Wavelengths
Number of Pixels in Spectrum: 3648
>>>>>Begin Spectral Data<<<<<
178.204	-81.58
178.424	-81.58
178.644	-81.58
178.864	-50.86
179.084	-75.43
179.304	-1.71
179.524	24.92
179.744	-9.9
179.964	-3.75
180.184	8.53
180.404	-28.33
180.624	2.39
180.844	16.73
181.064	12.63
181.283	12.63
181.503	-24.23
181.723	-9.9
181.943	-73.39
182.163	29.01
182.383	90.45
182.602	90.45
182.822	69.97
183.042	63.83
183.262	2.39
183.482	-63.15
183.701	39.25
183.921	-13.99
184.141	61.78
184.361	20.82
184.58	8.53
184.8	-42.67
185.02	-3.75
185.239	59.73
185.459	39.25
185.679	33.11
185.898	14.68
186.118	14.68
186.338	41.3
186.557	86.36
186.777	74.07
186.997	33.11
187.216	35.16
187.436	12.63
187.655	29.01
187.875	49.49
188.095	-1.71
188.314	39.25
188.534	53.59
188.753	49.49
188.973	22.87
189.192	112.98
189.412	88.4
189.631	104.79
189.851	-1.71
190.07	45.4
190.29	29.01
190.509	72.02
190.729	-26.28
190.948	80.21
191.168	112.98
191.387	53.59
191.607	18.77
191.826	115.03
192.045	57.68
192.265	0.34
192.484	-40.62
192.704	63.83
192.923	12.63
193.142	115.03
193.362	41.3
193.581	51.54
193.8	29.01
194.02	74.07
194.239	65.88
194.458	86.36
194.678	22.87
194.897	29.01
195.116	-1.71
195.335	39.25
195.555	80.21
195.774	88.4
195.993	49.49
196.212	35.16
196.432	16.73
196.651	-13.99
196.87	78.16
197.089	35.16
197.308	84.31
197.528	37.2
197.747	-36.52
197.966	72.02
198.185	35.16
198.404	2.39
198.623	90.45
198.842	53.59
199.062	63.83
199.281	39.25
199.5	18.77
199.719	78.16
199.938	82.26
200.157	74.07
200.376	-1.71
200.595	35.16
200.814	51.54
201.033	33.11
201.252	65.88
201.471	74.07
201.69	84.31
201.909	2.39
202.128	-7.85
202.347	59.73
202.566	110.93
202.785	2.39
203.004	35.16
203.223	158.03
203.442	22.87
203.661	45.4
203.879	22.87
204.098	59.73
204.317	18.77
204.536	86.36
204.755	84.31
204.974	47.44
205.193	59.73
205.411	61.78
205.63	-16.04
205.849	63.83
206.068	-1.71
206.287	80.21
206.505	61.78
206.724	-7.85
206.943	26.96
207.162	20.82
207.381	53.59
207.599	65.88
207.818	33.11
208.037	-11.95
208.255	45.4
208.474	-16.04
208.693	82.26
208.911	59.73
209.13	61.78
209.349	121.17
209.567	41.3
209.786	106.84
210.005	92.5
210.223	20.82
210.442	14.68
210.661	6.49
210.879	51.54
211.098	14.68
211.316	61.78
211.535	29.01
211.753	57.68
211.972	51.54
212.191	65.88
212.409	59.73
212.628	100.69
212.846	65.88
213.065	49.49
213.283	106.84
213.502	51.54
213.72	-30.38
213.938	26.96
214.157	35.16
214.375	29.01
214.594	51.54
214.812	96.6
215.031	59.73
215.249	53.59
215.467	47.44
215.686	33.11
215.904	59.73
216.122	-26.28
216.341	-42.67
216.559	166.23
216.778	65.88
216.996	26.96
217.214	22.87
217.432	-26.28
217.651	2.39
217.869	59.73
218.087	2.39
218.306	69.97
218.524	55.64
218.742	41.3
218.96	61.78
219.179	53.59
219.397	88.4
219.615	98.64
219.833	55.64
220.051	16.73
220.27	84.31
220.488	2.39
220.706	37.2
220.924	57.68
221.142	45.4
221.36	-5.8
221.578	41.3
221.796	43.35
222.015	67.92
222.233	67.92
222.451	59.73
222.669	20.82
222.887	82.26
223.105	72.02
223.323	57.68
223.541	-30.38
223.759	92.5
223.977	-77.48
224.195	-24.23
224.413	100.69
224.631	45.4
224.849	22.87
225.067	63.83
225.285	47.44
225.503	6.49
225.721	-7.85
225.939	-50.86
226.157	90.45
226.375	90.45
226.592	16.73
226.81	141.65
227.028	49.49
227.246	127.32
227.464	59.73
227.682	37.2
227.9	26.96
228.117	153.94
228.335	16.73
228.553	-50.86
228.771	-5.8
228.989	135.51
229.206	37.2
229.424	39.25
229.642	8.53
229.86	51.54
230.077	47.44
230.295	59.73
230.513	96.6
230.731	65.88
230.948	45.4
231.166	59.73
231.384	12.63
231.601	-9.9
231.819	86.36
232.037	18.77
232.254	20.82
232.472	43.35
232.689	-52.91
232.907	14.68
233.125	86.36
233.342	24.92
233.56	43.35
233.777	78.16
233.995	78.16
234.213	24.92
234.43	65.88
234.648	51.54
234.865	37.2
235.083	108.88
235.3	-36.52
235.518	51.54
235.735	-5.8
235.953	43.35
236.17	72.02
236.388	43.35
236.605	-26.28
236.822	51.54
237.04	129.36
237.257	133.46
237.475	8.53
237.692	106.84
237.909	4.44
238.127	-3.75
238.344	35.16
238.562	106.84
238.779	49.49
238.996	76.12
239.214	51.54
239.431	74.07
239.648	-11.95
239.865	57.68
240.083	35.16
240.3	18.77
240.517	39.25
240.735	137.56
240.952	47.44
241.169	61.78
241.386	45.4
241.603	51.54
241.821	74.07
242.038	86.36
242.255	35.16
242.472	43.35
242.689	41.3
242.907	94.55
243.124	33.11
243.341	82.26
243.558	-5.8
243.775	86.36
243.992	57.68
244.209	127.32
244.426	51.54
244.643	12.63
244.86	-36.52
245.078	80.21
245.295	-3.75
245.512	0.34
245.729	29.01
245.946	55.64
246.163	43.35
246.38	100.69
246.597	57.68
246.814	123.22
247.031	6.49
247.248	94.55
247.464	24.92
247.681	112.98
247.898	59.73
248.115	51.54
248.332	4.44
248.549	-20.14
248.766	31.06
248.983	29.01
249.2	106.84
249.417	63.83
249.633	45.4
249.85	-1.71
250.067	10.58
250.284	24.92
250.501	37.2
250.717	57.68
250.934	59.73
251.151	53.59
251.368	-28.33
251.585	119.12
251.801	106.84
252.018	10.58
252.235	112.98
252.451	82.26
252.668	26.96
252.885	45.4
253.102	-20.14
253.318	-32.43
253.535	35.16
253.752	-32.43
253.968	41.3
254.185	84.31
254.401	84.31
254.618	55.64
254.835	43.35
255.051	67.92
255.268	151.89
255.484	82.26
255.701	20.82
255.917	115.03
256.134	33.11
256.351	31.06
256.567	45.4
256.784	94.55
257	12.63
257.217	143.7
257.433	90.45
257.65	49.49
257.866	51.54
258.082	-5.8
258.299	106.84
258.515	63.83
258.732	-5.8
258.948	51.54
259.165	-3.75
259.381	-16.04
259.597	39.25
259.814	16.73
260.03	0.34
260.246	57.68
260.463	6.49
260.679	41.3
260.895	41.3
261.112	-5.8
261.328	59.73
261.544	65.88
261.761	43.35
261.977	45.4
262.193	-28.33
262.409	59.73
262.626	51.54
262.842	78.16
263.058	8.53
263.274	102.74
263.49	18.77
263.707	-3.75
263.923	39.25
264.139	8.53
264.355	61.78
264.571	84.31
264.787	63.83
265.004	12.63
265.22	57.68
265.436	57.68
265.652	55.64
265.868	74.07
266.084	22.87
266.3	115.03
266.516	6.49
266.732	104.79
266.948	76.12
267.164	37.2
267.38	31.06
267.596	94.55
267.812	24.92
268.028	65.88
268.244	84.31
268.46	16.73
268.676	10.58
268.892	65.88
269.108	33.11
269.324	18.77
269.54	-24.23
269.756	123.22
269.972	2.39
270.188	98.64
270.403	12.63
270.619	96.6
270.835	53.59
271.051	4.44
271.267	29.01
271.483	6.49
271.698	8.53
271.914	49.49
272.13	96.6
272.346	65.88
272.562	16.73
272.777	41.3
272.993	65.88
273.209	45.4
273.425	35.16
273.64	82.26
273.856	80.21
274.072	0.34
274.287	-3.75
274.503	4.44
274.719	100.69
274.934	8.53
275.15	12.63
275.366	37.2
275.581	67.92
275.797	59.73
276.012	47.44
276.228	-9.9
276.444	69.97
276.659	63.83
276.875	123.22
277.09	69.97
277.306	96.6
277.521	102.74
277.737	63.83
277.952	115.03
278.168	76.12
278.383	86.36
278.599	-26.28
278.814	147.8
279.03	4.44
279.245	115.03
279.461	106.84
279.676	67.92
279.892	57.68
280.107	-13.99
280.322	37.2
280.538	18.77
280.753	4.44
280.969	51.54
281.184	47.44
281.399	158.03
281.615	24.92
281.83	69.97
282.045	61.78
282.26	2.39
282.476	18.77
282.691	76.12
282.906	-28.33
283.122	55.64
283.337	72.02
283.552	33.11
283.767	104.79
283.983	74.07
284.198	20.82
284.413	112.98
284.628	12.63
284.843	35.16
285.058	31.06
285.274	115.03
285.489	55.64
285.704	12.63
285.919	96.6
286.134	49.49
286.349	24.92
286.564	108.88
286.779	72.02
286.995	39.25
287.21	-9.9
287.425	-24.23
287.64	67.92
287.855	-13.99
288.07	35.16
288.285	57.68
288.5	84.31
288.715	57.68
288.93	35.16
289.145	92.5
289.36	37.2
289.575	84.31
289.79	115.03
290.004	24.92
290.219	78.16
290.434	-38.57
290.649	37.2
290.864	78.16
291.079	49.49
291.294	39.25
291.509	0.34
291.724	14.68
291.938	22.87
292.153	-38.57
292.368	65.88
292.583	43.35
292.798	84.31
293.012	8.53
293.227	37.2
293.442	41.3
293.657	63.83
293.871	115.03
294.086	63.83
294.301	115.03
294.516	106.84
294.73	-24.23
294.945	45.4
295.16	37.2
295.374	-5.8
295.589	98.64
295.804	16.73
296.018	96.6
296.233	61.78
296.447	72.02
296.662	18.77
296.877	76.12
297.091	84.31
297.306	59.73
297.52	129.36
297.735	43.35
297.949	29.01
298.164	-26.28
298.378	35.16
298.593	35.16
298.807	37.2
299.022	43.35
299.236	47.44
299.451	61.78
299.665	49.49
299.88	49.49
300.094	10.58
300.309	51.54
300.523	76.12
300.737	20.82
300.952	49.49
301.166	49.49
301.381	39.25
301.595	59.73
301.809	164.18
302.024	6.49
302.238	22.87
302.452	76.12
302.667	67.92
302.881	96.6
303.095	88.4
303.309	22.87
303.524	-1.71
303.738	94.55
303.952	-3.75
304.166	63.83
304.381	41.3
304.595	47.44
304.809	39.25
305.023	90.45
305.237	20.82
305.452	-7.85
305.666	110.93
305.88	-22.19
306.094	65.88
306.308	94.55
306.522	59.73
306.736	-11.95
306.95	4.44
307.164	26.96
307.379	98.64
307.593	10.58
307.807	145.75
308.021	84.31
308.235	59.73
308.449	-20.14
308.663	4.44
308.877	84.31
309.091	72.02
309.305	43.35
309.519	-63.15
309.733	35.16
309.947	6.49
310.161	74.07
310.374	18.77
310.588	49.49
310.802	6.49
311.016	0.34
311.23	0.34
311.444	18.77
311.658	26.96
311.872	69.97
312.085	141.65
312.299	37.2
312.513	147.8
312.727	59.73
312.941	16.73
313.154	82.26
313.368	33.11
313.582	74.07
313.796	-1.71
314.009	-18.09
314.223	37.2
314.437	-46.76
314.651	49.49
314.864	94.55
315.078	-7.85
315.292	14.68
315.505	-7.85
315.719	94.55
315.933	49.49
316.146	112.98
316.36	37.2
316.573	67.92
316.787	94.55
317.001	51.54
317.214	-3.75
317.428	49.49
317.641	39.25
317.855	88.4
318.068	96.6
318.282	26.96
318.495	110.93
318.709	51.54
318.922	86.36
319.136	201.04
319.349	47.44
319.563	-18.09
319.776	47.44
319.99	16.73
320.203	18.77
320.417	65.88
320.63	80.21
320.843	88.4
321.057	39.25
321.27	35.16
321.483	100.69
321.697	100.69
321.91	121.17
322.124	65.88
322.337	26.96
322.55	106.84
322.763	0.34
322.977	20.82
323.19	100.69
323.403	84.31
323.617	43.35
323.83	74.07
324.043	2.39
324.256	-36.52
324.469	78.16
324.683	-16.04
324.896	35.16
325.109	65.88
325.322	45.4
325.535	76.12
325.748	117.08
325.962	94.55
326.175	37.2
326.388	80.21
326.601	55.64
326.814	55.64
327.027	53.59
327.24	74.07
327.453	29.01
327.666	80.21
327.879	55.64
328.092	90.45
328.305	-11.95
328.518	74.07
328.731	63.83
328.944	-28.33
329.157	57.68
329.37	24.92
329.583	55.64
329.796	102.74
330.009	-16.04
330.222	47.44
330.435	98.64
330.648	110.93
330.861	45.4
331.073	141.65
331.286	92.5
331.499	74.07
331.712	-30.38
331.925	37.2
332.138	65.88
332.35	55.64
332.563	26.96
332.776	29.01
332.989	47.44
333.202	61.78
333.414	78.16
333.627	4.44
333.84	-3.75
334.053	61.78
334.265	117.08
334.478	59.73
334.691	108.88
334.903	102.74
335.116	110.93
335.329	8.53
335.541	72.02
335.754	82.26
335.966	20.82
336.179	37.2
336.392	29.01
336.604	67.92
336.817	104.79
337.029	31.06
337.242	92.5
337.454	33.11
337.667	31.06
337.88	100.69
338.092	43.35
338.305	76.12
338.517	4.44
338.729	35.16
338.942	72.02
339.154	-34.47
339.367	8.53
339.579	131.41
339.792	57.68
340.004	149.84
340.217	49.49
340.429	90.45
340.641	16.73
340.854	26.96
341.066	8.53
341.278	106.84
341.491	86.36
341.703	35.16
341.915	96.6
342.128	76.12
342.34	6.49
342.552	29.01
342.764	-22.19
342.977	47.44
343.189	31.06
343.401	49.49
343.613	-1.71
343.826	117.08
344.038	43.35
344.25	29.01
344.462	125.27
344.674	51.54
344.886	63.83
345.099	94.55
345.311	41.3
345.523	78.16
345.735	2.39
345.947	86.36
346.159	22.87
346.371	49.49
346.583	74.07
346.795	108.88
347.007	67.92
347.219	37.2
347.431	57.68
347.643	74.07
347.855	-9.9
348.067	84.31
348.279	6.49
348.491	104.79
348.703	57.68
348.915	92.5
349.127	-30.38
349.339	65.88
349.551	-30.38
349.763	51.54
349.975	47.44
350.187	55.64
350.399	72.02
350.61	69.97
350.822	14.68
351.034	10.58
351.246	92.5
351.458	26.96
351.669	29.01
351.881	96.6
352.093	90.45
352.305	61.78
352.517	37.2
352.728	100.69
352.94	92.5
353.152	63.83
353.363	72.02
353.575	121.17
353.787	88.4
353.999	112.98
354.21	35.16
354.422	63.83
354.633	22.87
354.845	51.54
355.057	121.17
355.268	12.63
355.48	47.44
355.692	35.16
355.903	39.25
356.115	69.97
356.326	0.34
356.538	57.68
356.749	63.83
356.961	76.12
357.172	82.26
357.384	67.92
357.595	121.17
357.807	59.73
358.018	31.06
358.23	43.35
358.441	76.12
358.653	57.68
358.864	37.2
359.075	12.63
359.287	90.45
359.498	106.84
359.709	35.16
359.921	59.73
360.132	84.31
360.344	63.83
360.555	49.49
360.766	84.31
360.977	84.31
361.189	33.11
361.4	94.55
361.611	106.84
361.823	84.31
362.034	90.45
362.245	84.31
362.456	2.39
362.667	72.02
362.879	141.65
363.09	18.77
363.301	43.35
363.512	59.73
363.723	45.4
363.935	65.88
364.146	78.16
364.357	55.64
364.568	82.26
364.779	65.88
364.99	63.83
365.201	14.68
365.412	37.2
365.623	-50.86
365.834	69.97
366.045	16.73
366.256	16.73
366.467	41.3
366.678	16.73
366.889	69.97
367.1	53.59
367.311	37.2
367.522	61.78
367.733	123.22
367.944	-1.71
368.155	41.3
368.366	53.59
368.577	39.25
368.788	110.93
368.999	65.88
369.209	35.16
369.42	131.41
369.631	67.92
369.842	37.2
370.053	92.5
370.264	37.2
370.474	125.27
370.685	110.93
370.896	51.54
371.107	35.16
371.317	72.02
371.528	-16.04
371.739	162.13
371.95	69.97
372.16	88.4
372.371	-9.9
372.582	0.34
372.792	55.64
373.003	49.49
373.214	80.21
373.424	31.06
373.635	104.79
373.846	149.84
374.056	166.23
374.267	104.79
374.477	164.18
374.688	41.3
374.898	74.07
375.109	49.49
375.319	69.97
375.53	145.75
375.74	35.16
375.951	33.11
376.161	59.73
376.372	137.56
376.582	72.02
376.793	24.92
377.003	78.16
377.214	39.25
377.424	100.69
377.635	61.78
377.845	26.96
378.055	90.45
378.266	59.73
378.476	2.39
378.686	74.07
378.897	14.68
379.107	63.83
379.317	47.44
379.528	74.07
379.738	133.46
379.948	43.35
380.158	43.35
380.369	88.4
380.579	119.12
380.789	115.03
380.999	45.4
381.21	18.77
381.42	149.84
381.63	43.35
381.84	67.92
382.05	102.74
382.261	72.02
382.471	100.69
382.681	102.74
382.891	76.12
383.101	117.08
383.311	26.96
383.521	121.17
383.731	151.89
383.941	86.36
384.151	108.88
384.361	86.36
384.571	84.31
384.781	20.82
384.991	65.88
385.201	78.16
385.411	53.59
385.621	92.5
385.831	8.53
386.041	96.6
386.251	61.78
386.461	112.98
386.671	41.3
386.881	59.73
387.091	72.02
387.301	100.69
387.511	67.92
387.72	76.12
387.93	61.78
388.14	45.4
388.35	100.69
388.56	145.75
388.769	57.68
388.979	84.31
389.189	4.44
389.399	137.56
389.609	78.16
389.818	108.88
390.028	45.4
390.238	69.97
390.447	108.88
390.657	102.74
390.867	57.68
391.076	123.22
391.286	55.64
391.496	106.84
391.705	80.21
391.915	45.4
392.125	39.25
392.334	92.5
392.544	96.6
392.753	86.36
392.963	125.27
393.172	100.69
393.382	12.63
393.591	176.47
393.801	72.02
394.01	162.13
394.22	20.82
394.429	112.98
394.639	45.4
394.848	174.42
395.058	117.08
395.267	76.12
395.477	123.22
395.686	129.36
395.895	141.65
396.105	164.18
396.314	115.03
396.524	121.17
396.733	43.35
396.942	141.65
397.152	106.84
397.361	112.98
397.57	174.42
397.78	24.92
397.989	172.37
398.198	115.03
398.407	131.41
398.617	106.84
398.826	100.69
399.035	135.51
399.244	115.03
399.453	174.42
399.663	76.12
399.872	45.4
400.081	98.64
400.29	164.18
400.499	78.16
400.708	129.36
400.917	153.94
401.127	53.59
401.336	139.6
401.545	174.42
401.754	172.37
401.963	182.61
402.172	160.08
402.381	145.75
402.59	117.08
402.799	125.27
403.008	145.75
403.217	96.6
403.426	129.36
403.635	135.51
403.844	110.93
404.053	180.56
404.262	160.08
404.471	162.13
404.68	174.42
404.888	131.41
405.097	178.51
405.306	139.6
405.515	172.37
405.724	149.84
405.933	172.37
406.142	198.99
406.35	215.38
406.559	147.8
406.768	270.67
406.977	278.87
407.185	219.47
407.394	268.63
407.603	170.32
407.812	237.91
408.02	211.28
408.229	248.15
408.438	192.85
408.646	231.76
408.855	264.53
409.064	276.82
409.272	268.63
409.481	176.47
409.69	250.19
409.898	293.2
410.107	348.5
410.315	317.78
410.524	332.11
410.733	317.78
410.941	309.58
411.15	379.22
411.358	393.55
411.567	409.94
411.775	344.4
411.984	430.41
412.192	448.85
412.401	442.7
412.609	481.61
412.818	545.1
413.026	506.19
413.234	487.76
413.443	495.95
413.651	530.77
413.86	545.1
414.068	598.35
414.276	586.06
414.485	637.26
414.693	598.35
414.901	647.5
415.11	715.08
415.318	751.95
415.526	708.94
415.734	737.61
415.943	784.71
416.151	758.09
416.359	872.78
416.567	784.71
416.776	962.89
416.984	952.65
417.192	981.32
417.4	1024.33
417.608	1028.42
417.817	1055.05
418.025	1128.77
418.233	1206.59
418.441	1100.1
418.649	1243.46
418.857	1323.33
419.065	1319.23
419.273	1278.27
419.481	1358.14
419.689	1438.02
419.897	1470.78
420.105	1483.07
420.313	1610.04
420.521	1644.86
420.729	1655.1
420.937	1788.22
421.145	1890.62
421.353	1907
421.561	1970.49
421.769	2019.64
421.977	2023.73
422.185	2072.89
422.393	2165.04
422.601	2296.11
422.809	2240.82
423.017	2351.41
423.224	2404.66
423.432	2468.14
423.64	2539.82
423.848	2730.28
424.056	2695.47
424.263	2996.52
424.471	2914.6
424.679	2789.67
424.887	3053.86
425.094	3141.93
425.302	3215.65
425.51	3354.91
425.718	3350.82
425.925	3508.51
426.133	3723.55
426.341	3803.42
426.548	4090.13
426.756	3850.52
426.964	4051.22
427.171	4305.17
427.379	4317.46
427.586	4337.94
427.794	4600.08
428.001	4753.68
428.209	4999.43
428.417	4862.22
428.624	5239.05
428.832	5206.28
429.039	5363.97
429.247	5196.04
429.454	5708.03
429.662	6162.68
429.869	5632.26
430.076	6084.86
430.284	6002.94
430.491	6129.91
430.699	6488.31
430.906	6521.07
431.114	6609.14
431.321	6908.14
431.528	7121.13
431.736	7395.56
431.943	7764.19
432.15	7489.76
432.358	7678.18
432.565	8214.74
432.772	8208.6
432.979	8509.65
433.187	8495.32
433.394	8521.94
433.601	9322.7
433.808	9369.8
434.016	9197.77
434.223	9584.84
434.43	10006.72
434.637	9953.47
434.844	10703.03
435.052	10748.08
435.259	10891.44
435.466	10664.11
435.673	10858.67
435.88	11643.04
436.087	12236.95
436.294	12093.6
436.501	11843.74
436.708	11923.62
436.915	12464.28
437.122	12953.74
437.329	12931.22
437.537	13406.34
437.743	13625.48
437.95	13453.45
438.157	14459
438.364	14602.36
438.571	14721.14
438.778	14825.59
438.985	16242.78
439.192	15163.5
439.399	15913.06
439.606	15736.93
439.813	16707.67
440.02	17393.74
440.227	17217.61
440.433	16840.79
440.64	17623.11
440.847	17457.23
441.054	18090.05
441.261	19093.55
441.467	18841.65
441.674	18958.39
441.881	19873.83
442.088	19781.67
442.294	19920.93
442.501	20256.8
442.708	20815.9
442.914	21657.61
443.121	22695.93
443.328	21856.26
443.534	23457.78
443.741	22568.96
443.948	22491.13
444.154	24143.84
444.361	23840.75
444.568	24207.33
444.774	23857.13
444.981	24737.76
445.187	25327.57
445.394	26052.55
445.6	25941.96
445.807	28469.15
446.013	27094.97
446.22	27721.65
446.426	29036.44
446.633	28768.16
446.839	29812.62
447.046	28798.88
447.252	30531.46
447.459	30300.04
447.665	30287.75
447.871	31903.6
448.078	33255.26
448.284	31328.12
448.491	32276.33
448.697	33261.4
448.903	33804.11
449.11	34127.69
449.316	33638.23
449.522	34277.19
449.728	35133.25
449.935	35012.42
450.141	35209.02
450.347	35807.03
450.553	35028.8
450.76	35413.82
450.966	36394.79
451.172	35987.25
451.378	36747.04
451.584	36200.24
451.791	36839.2
451.997	37052.19
452.203	37857.04
452.409	37633.82
452.615	37584.66
452.821	36208.43
453.027	35929.91
453.233	37738.26
453.44	36038.45
453.646	36222.76
453.852	36124.46
454.058	37277.47
454.264	35716.92
454.47	36851.49
454.676	35690.29
454.882	37314.33
455.088	33787.73
455.294	34273.1
455.5	34893.63
455.705	35284.79
455.911	33556.31
456.117	32890.72
456.323	32829.28
456.529	30865.28
456.735	31995.76
456.941	31336.31
457.147	31074.17
457.352	29835.15
457.558	29357.97
457.764	29327.25
457.97	29116.31
458.176	28489.63
458.381	28313.51
458.587	26984.38
458.793	27060.15
458.999	25868.23
459.204	27596.72
459.41	26900.41
459.616	24917.98
459.821	24860.63
460.027	24651.74
460.233	24416.22
460.438	23252.98
460.644	23283.7
460.85	22255.62
461.055	22077.44
461.261	21925.89
461.466	20140.07
461.672	19595.31
461.878	21131.28
462.083	19767.34
462.289	19148.85
462.494	18899
462.7	18153.54
462.905	17776.71
463.111	18434.11
463.316	18575.42
463.522	17934.4
463.727	18131.01
463.932	18083.91
464.138	17901.64
464.343	18012.23
464.549	17369.16
464.754	17856.58
464.959	17631.3
465.165	17500.23
465.37	17002.58
465.575	16427.1
465.781	17213.52
465.986	17279.05
466.191	16738.39
466.397	16291.93
466.602	15530.09
466.807	16195.68
467.012	16248.93
467.218	15919.2
467.423	15790.18
467.628	15956.07
467.833	16613.46
468.038	15941.73
468.244	15642.73
468.449	15990.88
468.654	15509.61
468.859	15587.43
469.064	15542.38
469.269	14895.22
469.474	14915.7
469.679	15210.61
469.885	14805.11
470.09	15245.42
470.295	15079.54
470.5	14389.37
470.705	14688.37
470.91	14014.59
471.115	14162.05
471.32	14631.03
471.525	14065.79
471.73	14000.26
471.935	13795.46
472.139	13295.75
472.344	13400.2
472.549	13697.16
472.754	13244.56
472.959	13031.57
473.164	12714.13
473.369	12548.25
473.574	12943.5
473.778	12892.3
473.983	12753.04
474.188	12562.58
474.393	12028.06
474.598	12232.86
474.802	12251.29
475.007	12193.95
475.212	11946.14
475.417	11536.55
475.621	11663.52
475.826	11655.33
476.031	11378.86
476.235	11311.27
476.44	11258.03
476.645	11106.48
476.849	11235.5
477.054	10905.77
477.259	11030.7
477.463	11036.84
477.668	10549.43
477.872	10602.68
478.077	10633.4
478.282	10455.22
478.486	10201.27
478.691	10100.92
478.895	10096.83
479.1	10027.2
479.304	10285.24
479.509	9523.4
479.713	10004.67
479.918	9756.86
480.122	9507.01
480.326	9607.36
480.531	9631.94
480.735	9590.98
480.94	9433.29
481.144	9672.9
481.348	9158.86
481.553	9543.88
481.757	9298.12
481.961	9545.92
482.166	9509.06
482.37	9318.6
482.574	9169.1
482.778	9337.03
482.983	9388.23
483.187	9187.53
483.391	9439.43
483.595	9230.54
483.8	9189.58
484.004	9150.67
484.208	9459.91
484.412	9242.82
484.616	9351.37
484.821	9339.08
485.025	9121.99
485.229	9486.53
485.433	9308.36
485.637	9328.84
485.841	9384.13
486.045	9191.63
486.249	9312.46
486.453	9404.61
486.657	9275.59
486.861	9357.51
487.065	8855.76
487.269	9326.79
487.473	8941.77
487.677	9359.56
487.881	9539.78
488.085	9199.82
488.289	9232.58
488.493	9406.66
488.697	9519.3
488.901	9124.04
489.105	9406.66
489.309	9248.97
489.512	9468.1
489.716	9349.32
489.92	9406.66
490.124	9349.32
490.328	9488.58
490.531	9316.55
490.735	9459.91
490.939	9568.45
491.143	9748.67
491.346	9511.11
491.55	9588.93
491.754	9429.19
491.958	9728.19
492.161	9732.29
492.365	9763.01
492.569	9554.12
492.772	9803.97
492.976	9828.54
493.18	9990.33
493.383	9851.07
493.587	10164.41
493.79	10258.62
493.994	10053.82
494.197	10139.83
494.401	10289.34
494.605	10254.52
494.808	10313.91
495.012	10582.2
495.215	10404.02
495.419	10606.77
495.622	10473.65
495.825	10651.83
496.029	10793.14
496.232	10893.49
496.436	11067.56
496.639	11104.43
496.843	11223.21
497.046	11372.71
497.249	11366.57
497.453	11479.21
497.656	11528.36
497.859	11661.48
498.063	11776.16
498.266	12073.12
498.469	12138.65
498.673	12019.87
498.876	12159.13
499.079	12341.4
499.282	12322.97
499.485	12554.39
499.689	12621.97
499.892	12943.5
500.095	12959.89
500.298	13160.59
500.501	12865.68
500.705	13551.75
500.908	13400.2
501.111	13594.76
501.314	13807.75
501.517	13856.9
501.72	14137.47
501.923	14037.12
502.126	14596.21
502.329	14684.28
502.532	14459
502.735	14825.59
502.938	15032.43
503.141	15200.37
503.344	15466.6
503.547	15374.44
503.75	15652.97
503.953	15810.66
504.156	15788.13
504.359	16185.44
504.562	16064.61
504.765	16412.76
504.968	16660.57
505.17	16879.7
505.373	16822.36
505.576	17457.23
505.779	17164.37
505.982	17303.63
506.185	17799.24
506.387	17590.34
506.59	17932.36
506.793	18358.33
506.996	18403.39
507.198	18477.12
507.401	18591.8
507.604	18907.19
507.807	19183.66
508.009	19130.42
508.212	19439.66
508.415	19685.42
508.617	19783.72
508.82	19935.27
509.022	19830.82
509.225	20232.22
509.428	20676.63
509.63	20832.28
509.833	20766.74
510.035	21041.17
510.238	21071.89
510.44	21108.76
510.643	21655.56
510.845	21694.47
511.048	21682.19
511.25	21954.57
511.453	22067.2
511.655	23070.71
511.858	22773.75
512.06	23232.5
512.262	23123.96
512.465	23392.24
512.667	23511.02
512.87	23656.43
513.072	23447.54
513.274	24389.6
513.477	24420.32
513.679	24475.62
513.881	24731.61
514.084	25073.62
514.286	25311.19
514.488	25348.05
514.69	25855.95
514.893	25970.63
515.095	25718.73
515.297	26267.59
515.499	26542.02
515.701	26748.86
515.904	27006.91
516.106	27168.69
516.308	27072.44
516.51	27547.57
516.712	27615.15
516.914	27944.87
517.116	28401.57
517.318	28491.68
517.52	28630.94
517.722	29132.7
517.925	29300.63
518.127	29239.19
518.329	29611.92
518.531	29296.53
518.733	29910.92
518.935	30414.73
519.136	30062.47
519.338	30609.28
519.54	30777.22
519.742	30900.09
519.944	30775.17
520.146	31371.13
520.348	31584.12
520.55	31543.16
520.752	31592.31
520.954	32343.91
521.155	31977.33
521.357	32477.03
521.559	33003.36
521.761	33404.76
521.963	33476.44
522.164	33339.22
522.366	33460.05
522.568	33912.66
522.77	34056.01
522.971	34389.83
523.173	34082.64
523.375	34393.93
523.576	34574.15
523.778	34561.86
523.98	34723.65
524.181	35215.16
524.383	34916.16
524.584	35528.5
524.786	35393.34
524.988	35602.23
525.189	35788.6
525.391	36126.51
525.592	36200.24
525.794	36286.25
525.995	36265.77
526.197	36333.35
526.398	36411.18
526.6	36472.62
526.801	37228.32
527.003	36955.94
527.204	37044
527.406	37338.91
527.607	37170.97
527.808	37543.7
528.01	37017.38
528.211	37191.45
528.412	38110.99
528.614	37357.34
528.815	37781.27
529.016	38207.25
529.218	37824.28
529.419	38059.79
529.62	37998.35
529.822	38051.6
530.023	38014.74
530.224	38301.45
530.425	37889.81
530.626	37881.62
530.828	38037.26
531.029	38487.82
531.23	38024.98
531.431	38547.21
531.632	38012.69
531.833	38592.26
532.035	38485.77
532.236	38166.29
532.437	38713.09
532.638	38317.84
532.839	38197.01
533.04	38651.66
533.241	38301.45
533.442	38899.46
533.643	38625.03
533.844	38547.21
534.045	38684.42
534.246	38305.55
534.447	38575.88
534.648	38602.5
534.849	38774.53
535.05	38487.82
535.251	38635.27
535.451	38625.03
535.652	38551.31
535.853	38635.27
536.054	38665.99
536.255	38870.79
536.456	38174.48
536.657	38745.86
536.857	38369.04
537.058	38504.2
537.259	38727.43
537.46	39089.92
537.66	38141.71
537.861	38901.51
538.062	38473.48
538.263	38600.46
538.463	38285.07
538.664	38379.28
538.865	38622.98
539.065	38964.99
539.266	38307.6
539.466	38792.97
539.667	38147.86
539.868	38848.26
540.068	38577.93
540.269	38100.75
540.469	38514.44
540.67	38002.45
540.87	38522.63
541.071	38467.34
541.271	38172.43
541.472	38311.69
541.672	38244.11
541.873	38321.93
542.073	37832.47
542.274	38444.81
542.474	38364.94
542.675	38108.94
542.875	38631.18
543.075	38168.33
543.276	37873.43
543.476	38430.47
543.676	37914.39
543.877	38487.82
544.077	38178.57
544.277	38104.85
544.478	37973.78
544.678	37953.3
544.878	37992.21
545.078	37750.55
545.279	37672.73
545.479	37881.62
545.679	38070.03
545.879	37795.6
546.079	37887.76
546.28	37748.5
546.48	37431.07
546.68	38012.69
546.88	38084.37
547.08	37803.8
547.28	37744.41
547.48	37289.76
547.68	37693.21
547.88	37629.72
548.081	37652.25
548.281	37568.28
548.481	37707.54
548.681	37945.11
548.881	37855
549.081	37474.07
549.28	37566.23
549.48	37789.46
549.68	37300
549.88	38168.33
550.08	37439.26
550.28	37797.65
550.48	37893.91
550.68	37807.89
550.88	37422.87
551.08	37633.82
551.279	37734.17
551.479	37218.08
551.679	37164.83
551.879	37265.18
552.079	37318.43
552.278	37478.17
552.478	37871.38
552.678	37627.67
552.878	37691.16
553.077	37512.98
553.277	37308.19
553.477	37584.66
553.676	37525.27
553.876	37599
554.076	37119.77
554.275	37113.63
554.475	37146.4
554.674	37250.84
554.874	37246.75
555.074	37445.4
555.273	37381.91
555.473	37218.08
555.672	37252.89
555.872	37109.54
556.071	36984.61
556.271	37025.57
556.47	37250.84
556.67	36626.21
556.869	36790.05
557.068	36927.27
557.268	36845.35
557.467	37046.05
557.667	36974.37
557.866	37041.95
558.065	36663.08
558.265	36407.08
558.464	36527.91
558.663	37576.47
558.863	36417.32
559.062	37111.58
559.261	36163.37
559.461	36706.09
559.66	36265.77
559.859	36259.63
560.058	36216.62
560.258	36366.12
560.457	35893.04
560.656	36364.07
560.855	36224.81
561.054	36218.67
561.253	35919.67
561.453	36343.59
561.652	36079.41
561.851	36337.45
562.05	36073.26
562.249	35864.37
562.448	35974.96
562.647	35776.31
562.846	36013.87
563.045	35934
563.244	35231.55
563.443	35755.83
563.642	35497.78
563.841	35305.27
564.04	35770.16
564.239	35663.67
564.438	35094.33
564.637	35692.34
564.836	35628.85
565.035	35104.57
565.234	35217.21
565.432	35307.32
565.631	34621.25
565.83	35266.36
566.029	34832.19
566.228	35004.22
566.427	35014.46
566.625	34547.53
566.824	34649.92
567.023	34873.15
567.222	34369.35
567.42	34717.51
567.619	34889.54
567.818	34629.44
568.016	34312.01
568.215	34568.01
568.414	34488.14
568.612	34754.37
568.811	34117.45
569.01	34283.34
569.208	34013.01
569.407	34146.12
569.605	33840.98
569.804	34240.33
570.002	33699.67
570.201	34000.72
570.4	33593.17
570.598	33482.58
570.797	33613.65
570.995	33761.11
571.193	33025.89
571.392	33337.18
571.59	33347.42
571.789	33429.34
571.987	33412.95
572.186	32923.49
572.384	33181.53
572.582	33460.05
572.781	32997.21
572.979	32661.35
573.177	32788.32
573.376	33122.14
573.574	32237.42
573.772	32825.18
573.971	32612.2
574.169	32485.22
574.367	32022.38
574.565	32491.37
574.763	32675.68
574.962	32411.49
575.16	32278.38
575.358	32202.6
575.556	32042.86
575.754	32190.31
575.952	31629.17
576.151	31786.86
576.349	31602.55
576.547	31580.02
576.745	31547.25
576.943	31833.97
577.141	31922.03
577.339	31657.84
577.537	31096.7
577.735	31692.66
577.933	31170.43
578.131	31192.95
578.329	31072.12
578.527	30840.7
578.725	30941.05
578.923	31188.86
579.121	31014.78
579.319	30703.49
579.516	30998.4
579.714	30801.79
579.912	30474.12
580.11	30861.18
580.308	30533.51
580.506	30422.92
580.704	30453.64
580.901	30394.25
581.099	30701.44
581.297	29720.46
581.495	29947.79
581.692	30039.95
581.89	29796.24
582.088	30242.7
582.285	29597.59
582.483	29769.62
582.681	29560.72
582.878	29880.21
583.076	29263.77
583.274	29622.16
583.471	29265.81
583.669	29544.34
583.866	29050.78
584.064	29224.86
584.262	28782.49
584.459	29736.85
584.657	29083.55
584.854	29190.04
585.052	28641.18
585.249	29114.27
585.447	28915.61
585.644	28874.65
585.841	28497.83
586.039	28839.84
586.236	28331.94
586.434	28266.41
586.631	28090.28
586.828	28290.98
587.026	27994.03
587.223	27979.69
587.42	27903.92
587.618	27891.63
587.815	27889.58
588.012	27447.22
588.21	27117.5
588.407	27809.71
588.604	27320.24
588.801	27422.64
588.999	27439.03
589.196	27275.19
589.393	27295.67
589.59	27054.01
589.787	26857.4
589.984	27144.12
590.182	26902.46
590.379	26900.41
590.576	26767.29
590.773	26535.87
590.97	26492.87
591.167	26695.61
591.364	26189.77
591.561	26664.89
591.758	26318.79
591.955	26050.5
592.152	26267.59
592.349	26146.76
592.546	26496.96
592.743	26200.01
592.94	25933.77
593.137	25987.02
593.334	25802.7
593.531	25427.92
593.727	25479.12
593.924	25698.25
594.121	25323.47
594.318	25364.43
594.515	25124.82
594.712	25362.39
594.908	25102.29
595.105	25323.47
595.302	25028.57
595.499	25085.91
595.696	24707.04
595.892	24772.57
596.089	25077.72
596.286	24819.67
596.482	24621.02
596.679	24844.25
596.876	24422.37
597.072	24678.36
597.269	24385.51
597.466	24584.16
597.662	24039.4
597.859	24358.88
598.055	24358.88
598.252	23902.18
598.448	24018.92
598.645	23820.27
598.841	23896.04
599.038	23920.62
599.234	23902.18
599.431	23711.72
599.627	23402.48
599.824	23543.79
600.02	23521.26
600.217	23281.65
600.413	23197.68
600.609	23058.42
600.806	23259.12
601.002	23443.44
601.198	22771.71
601.395	23037.94
601.591	22900.73
601.787	22927.35
601.984	22743.03
602.18	22931.45
602.376	22745.08
602.572	22679.55
602.769	22298.63
602.965	22300.67
603.161	22372.35
603.357	22540.29
603.553	22116.36
603.75	22474.75
603.946	22026.25
604.142	22130.69
604.338	21798.92
604.534	22077.44
604.73	21829.64
604.926	21723.15
605.122	21954.57
605.318	21635.08
605.514	21370.9
605.71	21501.97
605.906	21428.24
606.102	21299.22
606.298	21116.95
606.494	21874.7
606.69	21192.72
606.886	21311.5
607.082	20871.19
607.278	21217.3
607.474	20660.25
607.67	21125.14
607.866	20842.52
608.062	21143.57
608.257	20662.3
608.453	20805.66
608.649	20836.38
608.845	20602.91
609.041	20623.39
609.236	20539.42
609.432	20561.95
609.628	20729.88
609.824	20557.85
610.019	20367.39
610.215	20506.65
610.411	20473.88
610.606	20371.49
610.802	20484.12
610.998	20451.36
611.193	20295.71
611.389	20115.49
611.584	19943.46
611.78	20152.35
611.976	20115.49
612.171	20181.03
612.367	20221.98
612.562	20211.74
612.758	19527.72
612.953	19652.65
613.149	19961.89
613.344	19830.82
613.539	19836.97
613.735	19738.66
613.93	19742.76
614.126	19578.92
614.321	19787.82
614.517	19585.07
614.712	19576.87
614.907	19531.82
615.103	19802.15
615.298	19599.4
615.493	19638.31
615.688	18800.69
615.884	19556.39
616.079	19333.17
616.274	19187.76
616.47	19263.54
616.665	19042.35
616.86	19114.03
617.055	19216.43
617.25	19300.4
617.445	19204.14
617.641	18722.87
617.836	19099.7
618.031	18610.23
618.226	18833.46
618.421	18665.53
618.616	18714.68
618.811	18671.67
619.006	18718.78
619.201	18255.93
619.396	18481.21
619.591	18182.21
619.786	18423.87
619.981	17940.55
620.176	18288.7
620.371	18059.33
620.566	18114.62
620.761	18051.14
620.956	17854.53
621.151	17436.75
621.346	17825.86
621.541	17580.11
621.735	17580.11
621.93	17410.12
622.125	17625.16
622.32	17014.87
622.515	17227.85
622.709	17094.74
622.904	16965.71
623.099	16941.14
623.294	17102.93
623.488	16767.06
623.683	16801.88
623.878	16341.08
624.072	16500.83
624.267	16388.19
624.462	16230.49
624.656	16336.99
624.851	16380
625.046	16040.03
625.24	15781.99
625.435	15886.43
625.629	15702.12
625.824	15650.92
626.018	15851.62
626.213	15466.6
626.407	15417.45
626.602	15306.86
626.796	15444.07
626.991	15327.34
627.185	14887.03
627.38	14995.57
627.574	14753.91
627.768	15067.25
627.963	14964.85
628.157	14700.66
628.352	14581.88
628.546	14446.71
628.74	14547.06
628.935	14381.18
629.129	14372.99
629.323	14286.97
629.517	14073.98
629.712	14198.91
629.906	14102.65
630.1	13889.67
630.294	13897.86
630.489	13875.33
630.683	13817.99
630.877	13748.36
631.071	13580.42
631.265	13693.06
631.459	13371.53
631.653	13344.91
631.848	13246.6
632.042	13103.25
632.236	13496.46
632.43	13166.73
632.624	13009.04
632.818	13060.24
633.012	12660.88
633.206	12933.26
633.4	12939.41
633.594	12652.69
633.788	12710.04
633.982	12779.67
634.176	12685.46
634.369	12390.55
634.563	12529.81
634.757	12331.16
634.951	12365.98
635.145	12099.74
635.339	12286.11
635.533	12198.04
635.726	12130.46
635.92	11880.61
636.114	11999.39
636.308	11931.81
636.501	11874.46
636.695	11747.49
636.889	11819.17
637.083	11524.26
637.276	11511.97
637.47	11479.21
637.664	11350.18
637.857	11278.51
638.051	11401.38
638.244	11219.11
638.438	11303.08
638.632	11047.08
638.825	10977.45
639.019	11133.1
639.212	11045.04
639.406	10760.37
639.599	10760.37
639.793	10862.77
639.986	10731.7
640.18	10772.66
640.373	10582.2
640.567	10471.61
640.76	10553.52
640.954	10635.44
641.147	10393.78
641.34	10414.26
641.534	10328.25
641.727	10248.38
641.92	10141.88
642.114	10217.66
642.307	10037.44
642.5	10008.76
642.694	9803.97
642.887	9713.86
643.08	9969.85
643.273	9840.83
643.467	9822.4
643.66	9515.2
643.853	9576.64
644.046	9509.06
644.239	9486.53
644.432	9412.81
644.626	9470.15
644.819	9357.51
645.012	9201.86
645.205	9273.54
645.398	9296.07
645.591	9081.03
645.784	9398.47
645.977	9040.08
646.17	9234.63
646.363	9076.94
646.556	8825.04
646.749	8923.34
646.942	8761.55
647.135	8745.17
647.328	8632.53
647.521	8714.45
647.714	8452.31
647.907	8689.87
648.099	8394.97
648.292	8724.69
648.485	8470.74
648.678	8431.83
648.871	8356.05
649.064	8302.81
649.256	8368.34
649.449	8397.01
649.642	8222.94
649.835	8181.98
650.027	8171.74
650.22	8067.29
650.413	8036.57
650.605	7946.46
650.798	8114.39
650.991	7999.71
651.183	7885.02
651.376	7817.44
651.568	7739.62
651.761	7739.62
651.954	7760.09
652.146	7799.01
652.339	7674.08
652.531	7495.91
652.724	7610.59
652.916	7448.8
653.109	7368.93
653.301	7385.32
653.494	7461.09
653.686	7287.01
653.879	7250.15
654.071	7153.9
654.263	7235.81
654.456	7272.68
654.648	7287.01
654.84	7018.73
655.033	7002.35
655.225	7119.08
655.417	7108.84
655.61	7076.07
655.802	6885.61
655.994	7055.59
656.186	6844.65
656.379	6899.95
656.571	6781.17
656.763	6789.36
656.955	6791.41
657.148	6762.73
657.34	6799.6
657.532	6646
657.724	6471.92
657.916	6648.05
658.108	6541.55
658.3	6406.39
658.492	6510.83
658.684	6455.54
658.876	6392.05
659.068	6455.54
659.26	6269.17
659.452	6269.17
659.644	6152.44
659.836	6256.89
660.028	6115.58
660.22	6156.54
660.412	6154.49
660.604	6041.85
660.796	6076.66
660.988	5990.65
661.18	6082.81
661.372	5898.49
661.563	5943.55
661.755	6043.9
661.947	5925.11
662.139	5835
662.331	5818.62
662.522	5908.73
662.714	5779.71
662.906	5662.97
663.097	5613.82
663.289	5710.08
663.481	5574.91
663.673	5503.23
663.864	5517.57
664.056	5482.75
664.247	5421.31
664.439	5378.31
664.631	5480.71
664.822	5488.9
665.014	5355.78
665.205	5466.37
665.397	5353.73
665.588	5347.59
665.78	5447.94
665.971	5249.29
666.163	5202.18
666.354	5318.92
666.546	5148.93
666.737	5138.69
666.929	5128.46
667.12	5075.21
667.311	5077.26
667.503	5140.74
667.694	5019.91
667.885	5050.63
668.077	4972.81
668.268	4917.51
668.459	4827.4
668.651	5036.3
668.842	4860.17
669.033	4870.41
669.224	4960.52
669.416	4981
669.607	4743.44
669.798	4817.16
669.989	4860.17
670.18	4784.4
670.371	4647.18
670.563	4774.16
670.754	4593.94
670.945	4747.53
671.136	4755.72
671.327	4806.92
671.518	4641.04
671.709	4557.07
671.9	4483.34
672.091	4630.8
672.282	4604.18
672.473	4372.75
672.664	4589.84
672.855	4528.4
673.046	4606.22
673.237	4432.15
673.428	4430.1
673.619	4276.5
673.809	4483.34
674	4405.52
674.191	4342.04
674.382	4405.52
674.573	4303.12
674.764	4362.51
674.954	4335.89
675.145	4231.44
675.336	4272.4
675.527	4358.42
675.717	4215.06
675.908	4186.39
676.099	4313.36
676.289	4192.53
676.48	4200.73
676.671	4120.85
676.861	4165.91
677.052	4196.63
677.243	4137.24
677.433	4096.28
677.624	4100.37
677.814	4129.05
678.005	4147.48
678.195	4233.49
678.386	4047.13
678.576	4002.07
678.767	4174.1
678.957	3997.98
679.148	4112.66
679.338	4073.75
679.529	4024.6
679.719	4043.03
679.909	3946.78
680.1	4024.6
680.29	3991.83
680.481	3909.91
680.671	3813.66
680.861	3899.67
681.052	3883.29
681.242	3791.13
681.432	3991.83
681.622	3860.76
681.813	3875.1
682.003	3776.8
682.193	3770.65
682.383	3817.76
682.573	3713.31
682.764	3836.19
682.954	3604.77
683.144	3797.28
683.334	3641.63
683.524	3672.35
683.714	3766.56
683.904	3531.04
684.094	3617.05
684.284	3789.08
684.474	3666.21
684.664	3645.73
684.854	3633.44
685.044	3576.09
685.234	3582.24
685.424	3711.26
685.614	3457.31
685.804	3537.18
685.994	3473.7
686.184	3481.89
686.374	3508.51
686.564	3365.15
686.753	3479.84
686.943	3580.19
687.133	3541.28
687.323	3412.26
687.513	3432.74
687.702	3510.56
687.892	3399.97
688.082	3410.21
688.272	3371.3
688.461	3397.92
688.651	3383.59
688.841	3465.5
689.03	3299.62
689.22	3322.15
689.41	3291.43
689.599	3275.04
689.789	3264.8
689.979	3168.55
690.168	3275.04
690.358	3055.91
690.547	3127.59
690.737	3029.29
690.926	3146.02
691.116	3098.92
691.305	3086.63
691.495	3139.88
691.684	3076.39
691.874	3090.73
692.063	3086.63
692.252	2986.28
692.442	3094.82
692.631	2947.37
692.82	2982.18
693.01	2994.47
693.199	2984.23
693.388	2750.76
693.578	2900.27
693.767	2851.11
693.956	3031.34
694.146	2980.14
694.335	2973.99
694.524	2984.23
694.713	3103.01
694.902	2935.08
695.092	2826.54
695.281	2939.18
695.47	2812.2
695.659	2830.63
695.848	2877.74
696.037	2804.01
696.226	2916.65
696.415	2795.82
696.604	2789.67
696.793	2777.39
696.982	2785.58
697.171	2736.43
697.36	2916.65
697.549	2818.35
697.738	2857.26
697.927	2732.33
698.116	2793.77
698.305	2738.48
698.494	2785.58
698.683	2658.6
698.872	2707.76
699.061	2728.24
699.25	2797.87
699.438	2695.47
699.627	2763.05
699.816	2742.57
700.005	2607.41
700.193	2728.24
700.382	2742.57
700.571	2656.56
700.76	2574.64
700.948	2666.8
701.137	2781.48
701.326	2656.56
701.514	2812.2
701.703	2591.02
701.892	2634.03
702.08	2752.81
702.269	2646.32
702.457	2621.74
702.646	2705.71
702.834	2740.52
703.023	2539.82
703.212	2525.49
703.4	2754.86
703.589	2582.83
703.777	2707.76
703.965	2681.13
704.154	2711.85
704.342	2789.67
704.531	2726.19
704.719	2580.78
704.907	2656.56
705.096	2652.46
705.284	2631.98
705.472	2597.17
705.661	2591.02
705.849	2726.19
706.037	2662.7
706.226	2556.21
706.414	2664.75
706.602	2681.13
706.79	2572.59
706.979	2539.82
707.167	2648.36
707.355	2500.91
707.543	2699.56
707.731	2720.04
707.919	2668.84
708.107	2621.74
708.296	2709.8
708.484	2521.39
708.672	2615.6
708.86	2644.27
709.048	2597.17
709.236	2656.56
709.424	2758.96
709.612	2550.06
709.8	2607.41
709.988	2660.65
710.176	2558.25
710.364	2619.69
710.551	2664.75
710.739	2513.2
710.927	2601.26
711.115	2617.65
711.303	2674.99
711.491	2486.58
711.679	2681.13
711.866	2656.56
712.054	2572.59
712.242	2533.68
712.43	2543.92
712.617	2691.37
712.805	2621.74
712.993	2584.88
713.181	2550.06
713.368	2584.88
713.556	2644.27
713.744	2609.45
713.931	2662.7
714.119	2625.84
714.306	2531.63
714.494	2521.39
714.682	2574.64
714.869	2613.55
715.057	2679.08
715.244	2629.93
715.432	2550.06
715.619	2650.41
715.807	2578.73
715.994	2564.4
716.182	2681.13
716.369	2636.08
716.556	2623.79
716.744	2509.1
716.931	2498.86
717.119	2715.95
717.306	2648.36
717.493	2595.12
717.681	2560.3
717.868	2482.48
718.055	2564.4
718.242	2652.46
718.43	2515.25
718.617	2500.91
718.804	2586.93
718.991	2523.44
719.179	2615.6
719.366	2562.35
719.553	2523.44
719.74	2566.45
719.927	2574.64
720.114	2580.78
720.301	2560.3
720.488	2402.61
720.676	2595.12
720.863	2556.21
721.05	2484.53
721.237	2390.32
721.424	2601.26
721.611	2509.1
721.798	2464.05
721.985	2478.38
722.172	2500.91
722.358	2427.18
722.545	2525.49
722.732	2410.8
722.919	2478.38
723.106	2570.54
723.293	2582.83
723.48	2490.67
723.667	2459.95
723.853	2574.64
724.04	2468.14
724.227	2490.67
724.414	2468.14
724.6	2443.57
724.787	2527.53
724.974	2636.08
725.161	2429.23
725.347	2496.82
725.534	2568.49
725.72	2535.73
725.907	2455.86
726.094	2466.1
726.28	2431.28
726.467	2359.6
726.653	2384.18
726.84	2390.32
727.027	2482.48
727.213	2392.37
727.4	2416.94
727.586	2416.94
727.773	2496.82
727.959	2412.85
728.145	2341.17
728.332	2287.92
728.518	2431.28
728.705	2423.09
728.891	2337.07
729.077	2398.51
729.264	2451.76
729.45	2339.12
729.636	2382.13
729.823	2457.9
730.009	2337.07
730.195	2443.57
730.382	2398.51
730.568	2363.7
730.754	2345.27
730.94	2418.99
731.126	2369.84
731.313	2375.99
731.499	2285.87
731.685	2351.41
731.871	2373.94
732.057	2363.7
732.243	2443.57
732.429	2367.79
732.615	2384.18
732.801	2310.45
732.987	2279.73
733.173	2412.85
733.359	2273.59
733.545	2312.5
733.731	2296.11
733.917	2345.27
734.103	2310.45
734.289	2220.34
734.475	2206
734.661	2367.79
734.847	2345.27
735.033	2244.92
735.219	2255.15
735.404	2208.05
735.59	2201.91
735.776	2318.64
735.962	2349.36
736.148	2353.46
736.333	2253.11
736.519	2271.54
736.705	2251.06
736.89	2197.81
737.076	2249.01
737.262	2222.39
737.447	2191.67
737.633	2122.04
737.819	2304.31
738.004	2238.77
738.19	2267.44
738.375	2195.76
738.561	2257.2
738.747	2140.47
738.932	2111.8
739.118	2300.21
739.303	2146.61
739.489	2232.63
739.674	2160.95
739.859	2146.61
740.045	2146.61
740.23	2140.47
740.416	2050.36
740.601	2105.65
740.786	2160.95
740.972	2134.32
741.157	2117.94
741.342	2169.14
741.528	2095.41
741.713	2167.09
741.898	2109.75
742.084	2050.36
742.269	2111.8
742.454	2033.97
742.639	2126.13
742.824	2083.13
743.01	2060.6
743.195	2056.5
743.38	1952.06
743.565	2062.65
743.75	2017.59
743.935	1956.15
744.12	2023.73
744.305	2017.59
744.49	1909.05
744.675	1923.38
744.86	1890.62
745.045	1929.53
745.23	1853.75
745.415	1907
745.6	1800.51
745.785	1839.42
745.97	1943.86
746.155	1820.99
746.34	1859.9
746.525	1798.46
746.71	1913.14
746.895	1782.07
747.079	1767.74
747.264	1730.87
747.449	1722.68
747.634	1759.55
747.819	1788.22
748.003	1792.31
748.188	1888.57
748.373	1679.68
748.557	1751.35
748.742	1706.3
748.927	1698.11
749.111	1679.68
749.296	1739.07
749.481	1626.43
749.665	1704.25
749.85	1591.61
750.034	1667.39
750.219	1599.8
750.404	1620.28
750.588	1544.51
750.773	1630.52
750.957	1616.19
751.141	1581.37
751.326	1567.04
751.51	1548.61
751.695	1608
751.879	1511.74
752.064	1648.96
752.248	1636.67
752.432	1460.54
752.617	1483.07
752.801	1571.13
752.985	1431.87
753.17	1462.59
753.354	1366.34
753.538	1431.87
753.722	1429.82
753.907	1407.3
754.091	1401.15
754.275	1358.14
754.459	1341.76
754.643	1331.52
754.828	1421.63
755.012	1409.34
755.196	1268.03
755.38	1278.27
755.564	1280.32
755.748	1245.51
755.932	1302.85
756.116	1311.04
756.3	1311.04
756.484	1308.99
756.668	1313.09
756.852	1251.65
757.036	1241.41
757.22	1298.75
757.404	1270.08
757.588	1214.79
757.772	1161.54
757.956	1317.19
758.14	1222.98
758.323	1173.83
758.507	1179.97
758.691	1214.79
758.875	1116.48
759.059	1198.4
759.242	1159.49
759.426	1104.2
759.61	1118.53
759.794	1270.08
759.977	1169.73
760.161	1175.88
760.345	1163.59
760.528	1059.14
760.712	1122.63
760.895	1157.44
761.079	1116.48
761.263	1106.24
761.446	1055.05
761.63	1141.06
761.813	1050.95
761.997	1053
762.18	1120.58
762.364	1098.05
762.547	1067.33
762.731	1063.24
762.914	1083.72
763.098	1075.52
763.281	1007.94
763.464	1055.05
763.648	987.46
763.831	979.27
764.015	1087.81
764.198	1040.71
764.381	999.75
764.564	1071.43
764.748	995.65
764.931	1083.72
765.114	919.88
765.297	1007.94
765.481	887.11
765.664	981.32
765.847	854.34
766.03	964.93
766.213	956.74
766.397	915.78
766.58	987.46
766.763	864.58
766.946	901.45
767.129	977.22
767.312	880.97
767.495	907.59
767.678	969.03
767.861	940.36
768.044	911.69
768.227	952.65
768.41	876.87
768.593	940.36
768.776	954.69
768.959	926.02
769.142	899.4
769.324	921.93
769.507	883.02
769.69	921.93
769.873	788.81
770.056	899.4
770.239	801.1
770.421	856.39
770.604	866.63
770.787	868.68
770.97	784.71
771.152	846.15
771.335	897.35
771.518	825.67
771.7	766.28
771.883	856.39
772.066	805.19
772.248	739.66
772.431	792.91
772.613	762.19
772.796	827.72
772.978	758.09
773.161	751.95
773.343	801.1
773.526	780.62
773.708	784.71
773.891	661.84
774.073	760.14
774.256	760.14
774.438	811.34
774.621	745.8
774.803	768.33
774.985	678.22
775.168	655.69
775.35	749.9
775.532	739.66
775.715	651.6
775.897	704.84
776.079	760.14
776.261	665.93
776.444	674.12
776.626	674.12
776.808	764.23
776.99	686.41
777.173	686.41
777.355	674.12
777.537	663.88
777.719	604.49
777.901	670.03
778.083	665.93
778.265	672.08
778.447	620.88
778.629	590.16
778.811	674.12
778.993	614.73
779.175	592.2
779.357	674.12
779.539	661.84
779.721	688.46
779.903	631.12
780.085	651.6
780.267	606.54
780.449	561.48
780.631	532.81
780.812	610.64
780.994	475.47
781.176	661.84
781.358	479.57
781.54	555.34
781.721	579.92
781.903	567.63
782.085	563.53
782.267	516.43
782.448	606.54
782.63	536.91
782.812	510.29
782.993	524.62
783.175	530.77
783.357	493.9
783.538	504.14
783.72	352.59
783.901	514.38
784.083	498
784.264	612.68
784.446	450.89
784.627	385.36
784.809	416.08
784.99	454.99
785.172	469.33
785.353	430.41
785.535	481.61
785.716	465.23
785.897	438.61
786.079	516.43
786.26	461.13
786.441	465.23
786.623	475.47
786.804	393.55
786.985	424.27
787.167	446.8
787.348	487.76
787.529	508.24
787.71	418.13
787.891	434.51
788.073	350.54
788.254	444.75
788.435	481.61
788.616	305.49
788.797	368.98
788.978	356.69
789.159	403.79
789.34	393.55
789.522	442.7
789.703	348.5
789.884	295.25
790.065	358.74
790.246	381.26
790.427	356.69
790.607	360.78
790.788	418.13
790.969	375.12
791.15	379.22
791.331	342.35
791.512	291.15
791.693	332.11
791.874	305.49
792.054	409.94
792.235	368.98
792.416	348.5
792.597	340.3
792.778	350.54
792.958	371.02
793.139	229.71
793.32	358.74
793.5	352.59
793.681	358.74
793.862	371.02
794.042	315.73
794.223	299.34
794.404	303.44
794.584	323.92
794.765	321.87
794.945	254.29
795.126	403.79
795.306	315.73
795.487	260.43
795.667	266.58
795.848	350.54
796.028	250.19
796.209	297.3
796.389	338.26
796.57	328.02
796.75	274.77
796.93	348.5
797.111	295.25
797.291	325.97
797.471	282.96
797.652	299.34
797.832	242
798.012	311.63
798.192	223.57
798.373	258.39
798.553	254.29
798.733	276.82
798.913	295.25
799.093	237.91
799.274	328.02
799.454	256.34
799.634	235.86
799.814	371.02
799.994	282.96
800.174	215.38
800.354	201.04
800.534	192.85
800.714	248.15
800.894	190.8
801.074	268.63
801.254	209.23
801.434	233.81
801.614	151.89
801.794	252.24
801.974	598.35
802.154	250.19
802.334	235.86
802.514	246.1
802.693	242
802.873	213.33
803.053	295.25
803.233	205.14
803.413	176.47
803.592	235.86
803.772	160.08
803.952	229.71
804.131	184.66
804.311	231.76
804.491	219.47
804.67	151.89
804.85	166.23
805.03	246.1
805.209	242
805.389	190.8
805.568	239.95
805.748	239.95
805.928	237.91
806.107	229.71
806.287	194.9
806.466	229.71
806.646	233.81
806.825	178.51
807.004	217.43
807.184	258.39
807.363	223.57
807.543	182.61
807.722	213.33
807.901	209.23
808.081	268.63
808.26	76.12
808.439	176.47
808.619	170.32
808.798	158.03
808.977	246.1
809.156	239.95
809.336	223.57
809.515	172.37
809.694	223.57
809.873	274.77
810.052	178.51
810.231	219.47
810.411	198.99
810.59	213.33
810.769	215.38
810.948	88.4
811.127	158.03
811.306	178.51
811.485	166.23
811.664	182.61
811.843	250.19
812.022	190.8
812.201	176.47
812.38	225.62
812.559	213.33
812.737	211.28
812.916	106.84
813.095	207.19
813.274	207.19
813.453	227.67
813.632	131.41
813.811	190.8
813.989	211.28
814.168	237.91
814.347	219.47
814.526	141.65
814.704	92.5
814.883	248.15
815.062	121.17
815.24	133.46
815.419	141.65
815.598	188.75
815.776	141.65
815.955	155.99
816.133	119.12
816.312	229.71
816.49	139.6
816.669	168.27
816.847	133.46
817.026	211.28
817.204	172.37
817.383	178.51
817.561	115.03
817.74	178.51
817.918	86.36
818.097	112.98
818.275	78.16
818.453	125.27
818.632	123.22
818.81	155.99
818.988	106.84
819.167	151.89
819.345	104.79
819.523	170.32
819.701	131.41
819.879	192.85
820.058	166.23
820.236	192.85
820.414	196.95
820.592	190.8
820.77	162.13
820.948	149.84
821.127	65.88
821.305	90.45
821.483	100.69
821.661	112.98
821.839	164.18
822.017	139.6
822.195	127.32
822.373	149.84
822.551	135.51
822.729	84.31
822.907	121.17
823.085	170.32
823.262	149.84
823.44	139.6
823.618	147.8
823.796	108.88
823.974	102.74
824.152	96.6
824.329	125.27
824.507	72.02
824.685	80.21
824.863	110.93
825.04	78.16
825.218	110.93
825.396	131.41
825.574	65.88
825.751	96.6
825.929	145.75
826.107	92.5
826.284	65.88
826.462	137.56
826.639	69.97
826.817	125.27
826.994	69.97
827.172	74.07
827.349	174.42
827.527	59.73
827.704	49.49
827.882	145.75
828.059	86.36
828.237	-13.99
828.414	119.12
828.591	110.93
828.769	178.51
828.946	110.93
829.124	80.21
829.301	96.6
829.478	67.92
829.655	82.26
829.833	41.3
830.01	45.4
830.187	192.85
830.364	35.16
830.542	102.74
830.719	86.36
830.896	129.36
831.073	37.2
831.25	20.82
831.427	147.8
831.604	110.93
831.782	115.03
831.959	102.74
832.136	127.32
832.313	123.22
832.49	65.88
832.667	155.99
832.844	151.89
833.021	149.84
833.198	125.27
833.374	82.26
833.551	121.17
833.728	108.88
833.905	65.88
834.082	74.07
834.259	45.4
834.436	135.51
834.612	72.02
834.789	90.45
834.966	117.08
835.143	69.97
835.319	92.5
835.496	123.22
835.673	119.12
835.85	117.08
836.026	98.64
836.203	86.36
836.38	76.12
836.556	80.21
836.733	63.83
836.909	61.78
837.086	82.26
837.262	78.16
837.439	-5.8
837.616	117.08
837.792	100.69
837.968	67.92
838.145	90.45
838.321	123.22
838.498	43.35
838.674	29.01
838.851	90.45
839.027	94.55
839.203	-32.43
839.38	170.32
839.556	65.88
839.732	117.08
839.909	102.74
840.085	131.41
840.261	16.73
840.437	-18.09
840.614	43.35
840.79	100.69
840.966	125.27
841.142	35.16
841.318	57.68
841.494	102.74
841.671	88.4
841.847	41.3
842.023	45.4
842.199	72.02
842.375	127.32
842.551	84.31
842.727	51.54
842.903	37.2
843.079	80.21
843.255	67.92
843.431	78.16
843.607	88.4
843.783	20.82
843.959	90.45
844.134	45.4
844.31	57.68
844.486	57.68
844.662	106.84
844.838	96.6
845.013	98.64
845.189	100.69
845.365	67.92
845.541	78.16
845.716	86.36
845.892	110.93
846.068	86.36
846.244	39.25
846.419	98.64
846.595	18.77
846.77	26.96
846.946	22.87
847.122	67.92
847.297	106.84
847.473	119.12
847.648	24.92
847.824	104.79
847.999	6.49
848.175	43.35
848.35	88.4
848.526	47.44
848.701	94.55
848.876	82.26
849.052	106.84
849.227	100.69
849.403	82.26
849.578	47.44
849.753	-9.9
849.929	102.74
850.104	-9.9
850.279	41.3
850.454	43.35
850.63	123.22
850.805	43.35
850.98	59.73
851.155	39.25
851.33	6.49
851.505	59.73
851.681	82.26
851.856	-3.75
852.031	100.69
852.206	55.64
852.381	57.68
852.556	63.83
852.731	76.12
852.906	10.58
853.081	22.87
853.256	112.98
853.431	129.36
853.606	88.4
853.781	2.39
853.956	72.02
854.131	37.2
854.305	80.21
854.48	102.74
854.655	96.6
854.83	51.54
855.005	14.68
855.18	39.25
855.354	20.82
855.529	72.02
855.704	24.92
855.879	92.5
856.053	-52.91
856.228	102.74
856.403	119.12
856.577	37.2
856.752	47.44
856.926	43.35
857.101	72.02
857.276	74.07
857.45	-24.23
857.625	55.64
857.799	135.51
857.974	59.73
858.148	-3.75
858.323	2.39
858.497	16.73
858.672	45.4
858.846	82.26
859.02	100.69
859.195	39.25
859.369	35.16
859.543	35.16
859.718	37.2
859.892	96.6
860.066	-26.28
860.241	47.44
860.415	2.39
860.589	33.11
860.763	6.49
860.938	49.49
861.112	51.54
861.286	-38.57
861.46	37.2
861.634	57.68
861.808	127.32
861.982	86.36
862.157	0.34
862.331	-16.04
862.505	43.35
862.679	-9.9
862.853	102.74
863.027	100.69
863.201	90.45
863.375	-3.75
863.549	72.02
863.722	22.87
863.896	0.34
864.07	39.25
864.244	-63.15
864.418	45.4
864.592	26.96
864.766	18.77
864.939	-22.19
865.113	29.01
865.287	72.02
865.461	8.53
865.634	-9.9
865.808	41.3
865.982	16.73
866.156	16.73
866.329	22.87
866.503	4.44
866.676	35.16
866.85	88.4
867.024	47.44
867.197	26.96
867.371	6.49
867.544	90.45
867.718	76.12
867.891	31.06
868.065	45.4
868.238	51.54
868.412	47.44
868.585	-18.09
868.759	35.16
868.932	12.63
869.105	-7.85
869.279	59.73
869.452	43.35
869.625	33.11
869.799	14.68
869.972	18.77
870.145	74.07
870.319	39.25
870.492	41.3
870.665	98.64
870.838	-3.75
871.011	24.92
871.185	55.64
871.358	29.01
871.531	39.25
871.704	76.12
871.877	88.4
872.05	16.73
872.223	35.16
872.396	65.88
872.569	22.87
872.742	12.63
872.915	72.02
873.088	-30.38
873.261	-42.67
873.434	55.64
873.607	-44.71
873.78	6.49
873.953	80.21
874.126	47.44
874.299	53.59
874.471	-1.71
874.644	12.63
874.817	76.12
874.99	61.78
875.163	-30.38
875.335	43.35
875.508	0.34
875.681	10.58
875.853	-16.04
876.026	69.97
876.199	78.16
876.371	12.63
876.544	-38.57
876.717	47.44
876.889	39.25
877.062	98.64
877.234	55.64
877.407	20.82
877.579	67.92
877.752	-18.09
877.924	37.2
878.097	35.16
878.269	29.01
878.442	88.4
878.614	-18.09
878.786	82.26
878.959	88.4
879.131	37.2
879.303	4.44
879.476	18.77
879.648	29.01
879.82	102.74
879.993	-16.04
880.165	12.63
880.337	41.3
880.509	84.31
880.681	22.87
880.854	41.3
881.026	59.73
881.198	88.4
881.37	-3.75
881.542	57.68
881.714	45.4
881.886	69.97
882.058	-57
882.23	26.96
882.402	31.06
882.574	51.54
882.746	45.4
882.918	90.45
883.09	53.59
883.262	-34.47
883.434	33.11
883.606	82.26
883.778	-9.9
883.95	112.98
884.122	2.39
884.293	45.4
884.465	45.4
884.637	45.4
884.809	12.63
884.98	47.44
885.152	22.87
885.324	57.68
885.496	12.63
885.667	24.92
885.839	65.88
886.011	22.87
886.182	24.92
886.354	4.44
886.525	-26.28
886.697	45.4
886.869	67.92
887.04	22.87
887.212	65.88
887.383	2.39
887.555	-5.8
887.726	0.34
887.897	10.58
888.069	-13.99
888.24	26.96
888.412	-59.05
888.583	-54.95
888.754	55.64
888.926	-46.76
889.097	33.11
889.268	6.49
889.44	63.83
889.611	69.97
889.782	49.49
889.953	65.88
890.125	80.21
890.296	-69.29
890.467	18.77
890.638	2.39
890.809	31.06
890.98	16.73
891.151	82.26
891.323	74.07
891.494	4.44
891.665	8.53
891.836	39.25
892.007	20.82
892.178	63.83
892.349	-13.99
892.52	14.68
892.691	-63.15
892.862	-57
893.032	-24.23
893.203	61.78
893.374	-20.14
893.545	59.73
893.716	-13.99
893.887	98.64
894.057	-3.75
894.228	-9.9
894.399	6.49
894.57	110.93
894.74	108.88
894.911	49.49
895.082	86.36
895.253	0.34
895.423	-5.8
895.594	59.73
895.764	-38.57
895.935	37.2
896.106	-7.85
896.276	2.39
896.447	55.64
896.617	61.78
896.788	-16.04
896.958	63.83
897.129	-20.14
897.299	16.73
897.47	51.54
897.64	-16.04
897.81	0.34
897.981	72.02
898.151	84.31
898.322	104.79
898.492	-20.14
898.662	18.77
898.832	65.88
899.003	43.35
899.173	59.73
899.343	8.53
899.513	59.73
