Data from USB4F104151__95__12-02-36-763.txt Node

Date: Fri Mar 14 12:02:36 EDT 2025
User: louis
Spectrometer: USB4F10415
Trigger mode: 4
Integration Time (sec): 2.000000E-2
Scans to average: 1
Electric dark correction enabled: true
Nonlinearity correction enabled: false
Boxcar width: 0
XAxis mode: Wavelengths
Number of Pixels in Spectrum: 3648
>>>>>Begin Spectral Data<<<<<
178.204	-76.46
178.424	-76.46
178.644	-76.46
178.864	-76.46
179.084	-107.18
179.304	3.41
179.524	3.41
179.744	50.52
179.964	-27.31
180.184	19.8
180.404	58.71
180.624	-23.21
180.844	77.14
181.064	-51.88
181.283	-21.16
181.503	-68.27
181.723	-21.16
181.943	3.41
182.163	25.94
182.383	-15.02
182.602	40.28
182.822	27.99
183.042	23.89
183.262	-70.31
183.482	-0.68
183.701	9.56
183.921	38.23
184.141	-23.21
184.361	-4.78
184.58	38.23
184.8	34.13
185.02	-19.11
185.239	48.47
185.459	15.7
185.679	40.28
185.898	34.13
186.118	30.04
186.338	-98.99
186.557	68.95
186.777	73.04
186.997	62.8
187.216	36.18
187.436	58.71
187.655	9.56
187.875	25.94
188.095	-4.78
188.314	13.65
188.534	77.14
188.753	13.65
188.973	42.32
189.192	27.99
189.412	15.7
189.631	-17.07
189.851	-2.73
190.07	54.61
190.29	-17.07
190.509	30.04
190.729	-15.02
190.948	19.8
191.168	32.08
191.387	-21.16
191.607	-29.35
191.826	56.66
192.045	27.99
192.265	21.84
192.484	3.41
192.704	-21.16
192.923	-6.83
193.142	13.65
193.362	23.89
193.581	-25.26
193.8	54.61
194.02	27.99
194.239	-10.92
194.458	56.66
194.678	-6.83
194.897	36.18
195.116	30.04
195.335	19.8
195.555	-4.78
195.774	60.76
195.993	50.52
196.212	-21.16
196.432	-33.45
196.651	60.76
196.87	-55.98
197.089	36.18
197.308	50.52
197.528	75.09
197.747	-10.92
197.966	-12.97
198.185	97.62
198.404	38.23
198.623	1.37
198.842	46.42
199.062	23.89
199.281	1.37
199.5	7.51
199.719	27.99
199.938	40.28
200.157	101.72
200.376	38.23
200.595	44.37
200.814	21.84
201.033	68.95
201.252	46.42
201.471	25.94
201.69	-43.69
201.909	25.94
202.128	9.56
202.347	42.32
202.566	36.18
202.785	-31.4
203.004	-19.11
203.223	75.09
203.442	30.04
203.661	1.37
203.879	1.37
204.098	79.19
204.317	-29.35
204.536	1.37
204.755	-41.64
204.974	9.56
205.193	52.56
205.411	36.18
205.63	-29.35
205.849	-29.35
206.068	44.37
206.287	-10.92
206.505	13.65
206.724	-35.5
206.943	-2.73
207.162	21.84
207.381	54.61
207.599	34.13
207.818	-72.36
208.037	48.47
208.255	30.04
208.474	-25.26
208.693	77.14
208.911	60.76
209.13	-60.07
209.349	13.65
209.567	5.46
209.786	19.8
210.005	1.37
210.223	32.08
210.442	-2.73
210.661	58.71
210.879	11.61
211.098	19.8
211.316	7.51
211.535	11.61
211.753	-4.78
211.972	25.94
212.191	-35.5
212.409	71
212.628	-25.26
212.846	-62.12
213.065	54.61
213.283	58.71
213.502	114
213.72	-39.59
213.938	-15.02
214.157	64.85
214.375	-6.83
214.594	17.75
214.812	25.94
215.031	-19.11
215.249	-29.35
215.467	38.23
215.686	13.65
215.904	99.67
216.122	5.46
216.341	-4.78
216.559	93.52
216.778	-6.83
216.996	11.61
217.214	36.18
217.432	-17.07
217.651	36.18
217.869	71
218.087	11.61
218.306	81.24
218.524	17.75
218.742	-25.26
218.96	5.46
219.179	-6.83
219.397	9.56
219.615	60.76
219.833	71
220.051	7.51
220.27	83.28
220.488	7.51
220.706	21.84
220.924	-37.55
221.142	-39.59
221.36	9.56
221.578	3.41
221.796	-49.83
222.015	-29.35
222.233	62.8
222.451	91.48
222.669	-21.16
222.887	-51.88
223.105	17.75
223.323	-6.83
223.541	-19.11
223.759	25.94
223.977	-12.97
224.195	36.18
224.413	114
224.631	27.99
224.849	-23.21
225.067	25.94
225.285	15.7
225.503	-33.45
225.721	11.61
225.939	66.9
226.157	-29.35
226.375	101.72
226.592	-0.68
226.81	9.56
227.028	77.14
227.246	99.67
227.464	-25.26
227.682	46.42
227.9	17.75
228.117	23.89
228.335	54.61
228.553	30.04
228.771	44.37
228.989	-51.88
229.206	5.46
229.424	-60.07
229.642	-37.55
229.86	-0.68
230.077	-10.92
230.295	13.65
230.513	-17.07
230.731	68.95
230.948	62.8
231.166	66.9
231.384	21.84
231.601	19.8
231.819	62.8
232.037	21.84
232.254	-10.92
232.472	-25.26
232.689	-2.73
232.907	60.76
233.125	48.47
233.342	17.75
233.56	-10.92
233.777	3.41
233.995	54.61
234.213	97.62
234.43	-15.02
234.648	-2.73
234.865	23.89
235.083	11.61
235.3	54.61
235.518	-17.07
235.735	-4.78
235.953	25.94
236.17	1.37
236.388	32.08
236.605	1.37
236.822	68.95
237.04	109.91
237.257	42.32
237.475	-27.31
237.692	-6.83
237.909	91.48
238.127	50.52
238.344	-78.51
238.562	-39.59
238.779	-64.17
238.996	-51.88
239.214	11.61
239.431	3.41
239.648	52.56
239.865	58.71
240.083	-19.11
240.3	-27.31
240.517	111.96
240.735	-90.79
240.952	71
241.169	101.72
241.386	-17.07
241.603	32.08
241.821	17.75
242.038	50.52
242.255	13.65
242.472	1.37
242.689	38.23
242.907	21.84
243.124	7.51
243.341	5.46
243.558	17.75
243.775	-0.68
243.992	3.41
244.209	-41.64
244.426	99.67
244.643	83.28
244.86	58.71
245.078	91.48
245.295	48.47
245.512	64.85
245.729	-35.5
245.946	1.37
246.163	34.13
246.38	101.72
246.597	7.51
246.814	17.75
247.031	58.71
247.248	-0.68
247.464	79.19
247.681	62.8
247.898	54.61
248.115	-6.83
248.332	23.89
248.549	-21.16
248.766	52.56
248.983	30.04
249.2	77.14
249.417	13.65
249.633	-94.89
249.85	30.04
250.067	-80.55
250.284	68.95
250.501	75.09
250.717	56.66
250.934	-27.31
251.151	-4.78
251.368	40.28
251.585	25.94
251.801	38.23
252.018	-19.11
252.235	23.89
252.451	-12.97
252.668	79.19
252.885	17.75
253.102	5.46
253.318	42.32
253.535	17.75
253.752	9.56
253.968	-27.31
254.185	-51.88
254.401	30.04
254.618	32.08
254.835	-35.5
255.051	91.48
255.268	15.7
255.484	42.32
255.701	64.85
255.917	56.66
256.134	83.28
256.351	1.37
256.567	23.89
256.784	-15.02
257	5.46
257.217	44.37
257.433	-70.31
257.65	40.28
257.866	27.99
258.082	64.85
258.299	-23.21
258.515	46.42
258.732	30.04
258.948	60.76
259.165	27.99
259.381	7.51
259.597	32.08
259.814	75.09
260.03	-12.97
260.246	58.71
260.463	77.14
260.679	15.7
260.895	11.61
261.112	27.99
261.328	-21.16
261.544	25.94
261.761	25.94
261.977	5.46
262.193	-43.69
262.409	46.42
262.626	19.8
262.842	23.89
263.058	-45.74
263.274	21.84
263.49	56.66
263.707	7.51
263.923	58.71
264.139	-17.07
264.355	-0.68
264.571	48.47
264.787	36.18
265.004	54.61
265.22	-6.83
265.436	-2.73
265.652	23.89
265.868	7.51
266.084	13.65
266.3	68.95
266.516	-33.45
266.732	36.18
266.948	58.71
267.164	-0.68
267.38	30.04
267.596	-12.97
267.812	23.89
268.028	30.04
268.244	-35.5
268.46	58.71
268.676	13.65
268.892	77.14
269.108	-49.83
269.324	27.99
269.54	21.84
269.756	60.76
269.972	-2.73
270.188	-6.83
270.403	34.13
270.619	38.23
270.835	7.51
271.051	7.51
271.267	-12.97
271.483	60.76
271.698	46.42
271.914	-53.93
272.13	-53.93
272.346	-25.26
272.562	-6.83
272.777	42.32
272.993	38.23
273.209	-19.11
273.425	38.23
273.64	-2.73
273.856	11.61
274.072	42.32
274.287	23.89
274.503	87.38
274.719	5.46
274.934	73.04
275.15	11.61
275.366	-72.36
275.581	23.89
275.797	64.85
276.012	19.8
276.228	-37.55
276.444	68.95
276.659	-0.68
276.875	30.04
277.09	5.46
277.306	17.75
277.521	42.32
277.737	-37.55
277.952	77.14
278.168	-41.64
278.383	-2.73
278.599	-25.26
278.814	5.46
279.03	-19.11
279.245	73.04
279.461	60.76
279.676	46.42
279.892	-21.16
280.107	-37.55
280.322	1.37
280.538	23.89
280.753	54.61
280.969	68.95
281.184	-35.5
281.399	-25.26
281.615	-31.4
281.83	68.95
282.045	-47.79
282.26	-15.02
282.476	34.13
282.691	77.14
282.906	40.28
283.122	13.65
283.337	-4.78
283.552	46.42
283.767	-17.07
283.983	27.99
284.198	-43.69
284.413	-27.31
284.628	-2.73
284.843	36.18
285.058	7.51
285.274	83.28
285.489	-27.31
285.704	44.37
285.919	-64.17
286.134	58.71
286.349	9.56
286.564	25.94
286.779	40.28
286.995	30.04
287.21	-17.07
287.425	124.24
287.64	-31.4
287.855	66.9
288.07	-84.65
288.285	-51.88
288.5	-27.31
288.715	13.65
288.93	17.75
289.145	-12.97
289.36	-0.68
289.575	40.28
289.79	46.42
290.004	60.76
290.219	71
290.434	50.52
290.649	-17.07
290.864	7.51
291.079	-29.35
291.294	1.37
291.509	54.61
291.724	46.42
291.938	7.51
292.153	27.99
292.368	54.61
292.583	44.37
292.798	75.09
293.012	34.13
293.227	54.61
293.442	-10.92
293.657	21.84
293.871	21.84
294.086	46.42
294.301	101.72
294.516	11.61
294.73	58.71
294.945	36.18
295.16	83.28
295.374	11.61
295.589	62.8
295.804	60.76
296.018	-2.73
296.233	64.85
296.447	5.46
296.662	-35.5
296.877	19.8
297.091	-35.5
297.306	42.32
297.52	-4.78
297.735	56.66
297.949	17.75
298.164	17.75
298.378	62.8
298.593	42.32
298.807	32.08
299.022	36.18
299.236	62.8
299.451	-21.16
299.665	-58.03
299.88	25.94
300.094	71
300.309	-10.92
300.523	-4.78
300.737	-17.07
300.952	60.76
301.166	25.94
301.381	48.47
301.595	50.52
301.809	-21.16
302.024	-17.07
302.238	40.28
302.452	23.89
302.667	23.89
302.881	66.9
303.095	46.42
303.309	30.04
303.524	93.52
303.738	54.61
303.952	64.85
304.166	-19.11
304.381	-21.16
304.595	40.28
304.809	-25.26
305.023	1.37
305.237	54.61
305.452	-19.11
305.666	85.33
305.88	50.52
306.094	75.09
306.308	46.42
306.522	-10.92
306.736	-10.92
306.95	-35.5
307.164	-39.59
307.379	7.51
307.593	103.76
307.807	46.42
308.021	54.61
308.235	93.52
308.449	17.75
308.663	-27.31
308.877	62.8
309.091	5.46
309.305	81.24
309.519	7.51
309.733	36.18
309.947	13.65
310.161	56.66
310.374	38.23
310.588	114
310.802	-2.73
311.016	15.7
311.23	-10.92
311.444	25.94
311.658	73.04
311.872	68.95
312.085	25.94
312.299	58.71
312.513	15.7
312.727	13.65
312.941	54.61
313.154	34.13
313.368	-19.11
313.582	-80.55
313.796	5.46
314.009	21.84
314.223	75.09
314.437	15.7
314.651	50.52
314.864	56.66
315.078	30.04
315.292	-0.68
315.505	9.56
315.719	46.42
315.933	91.48
316.146	36.18
316.36	-12.97
316.573	15.7
316.787	17.75
317.001	11.61
317.214	40.28
317.428	23.89
317.641	38.23
317.855	99.67
318.068	-45.74
318.282	50.52
318.495	7.51
318.709	64.85
318.922	13.65
319.136	11.61
319.349	32.08
319.563	48.47
319.776	83.28
319.99	1.37
320.203	66.9
320.417	40.28
320.63	-55.98
320.843	52.56
321.057	32.08
321.27	-25.26
321.483	5.46
321.697	79.19
321.91	-8.87
322.124	7.51
322.337	38.23
322.55	-45.74
322.763	71
322.977	1.37
323.19	50.52
323.403	-25.26
323.617	11.61
323.83	73.04
324.043	-17.07
324.256	25.94
324.469	38.23
324.683	11.61
324.896	-12.97
325.109	71
325.322	30.04
325.535	77.14
325.748	-6.83
325.962	-15.02
326.175	93.52
326.388	-4.78
326.601	21.84
326.814	52.56
327.027	73.04
327.24	159.06
327.453	-2.73
327.666	-0.68
327.879	3.41
328.092	83.28
328.305	66.9
328.518	-8.87
328.731	3.41
328.944	-6.83
329.157	-12.97
329.37	-15.02
329.583	73.04
329.796	52.56
330.009	48.47
330.222	42.32
330.435	54.61
330.648	11.61
330.861	3.41
331.073	126.29
331.286	42.32
331.499	-2.73
331.712	48.47
331.925	17.75
332.138	-27.31
332.35	42.32
332.563	68.95
332.776	36.18
332.989	48.47
333.202	34.13
333.414	25.94
333.627	50.52
333.84	52.56
334.053	73.04
334.265	15.7
334.478	17.75
334.691	21.84
334.903	-21.16
335.116	58.71
335.329	56.66
335.541	25.94
335.754	3.41
335.966	3.41
336.179	77.14
336.392	5.46
336.604	48.47
336.817	-6.83
337.029	42.32
337.242	-0.68
337.454	60.76
337.667	21.84
337.88	46.42
338.092	23.89
338.305	46.42
338.517	79.19
338.729	52.56
338.942	91.48
339.154	9.56
339.367	13.65
339.579	89.43
339.792	32.08
340.004	19.8
340.217	56.66
340.429	62.8
340.641	42.32
340.854	-4.78
341.066	48.47
341.278	7.51
341.491	81.24
341.703	75.09
341.915	-10.92
342.128	17.75
342.34	48.47
342.552	64.85
342.764	64.85
342.977	66.9
343.189	-12.97
343.401	25.94
343.613	-8.87
343.826	21.84
344.038	15.7
344.25	25.94
344.462	-23.21
344.674	60.76
344.886	58.71
345.099	3.41
345.311	60.76
345.523	66.9
345.735	25.94
345.947	79.19
346.159	89.43
346.371	-10.92
346.583	62.8
346.795	42.32
347.007	42.32
347.219	101.72
347.431	81.24
347.643	-8.87
347.855	-37.55
348.067	42.32
348.279	19.8
348.491	58.71
348.703	-12.97
348.915	-4.78
349.127	52.56
349.339	75.09
349.551	15.7
349.763	77.14
349.975	-15.02
350.187	17.75
350.399	87.38
350.61	-10.92
350.822	-39.59
351.034	32.08
351.246	30.04
351.458	32.08
351.669	58.71
351.881	75.09
352.093	-10.92
352.305	15.7
352.517	73.04
352.728	109.91
352.94	68.95
353.152	71
353.363	48.47
353.575	60.76
353.787	89.43
353.999	38.23
354.21	83.28
354.422	56.66
354.633	38.23
354.845	48.47
355.057	11.61
355.268	79.19
355.48	-10.92
355.692	-21.16
355.903	7.51
356.115	-6.83
356.326	71
356.538	89.43
356.749	27.99
356.961	111.96
357.172	-2.73
357.384	-8.87
357.595	118.1
357.807	68.95
358.018	11.61
358.23	-6.83
358.441	136.53
358.653	40.28
358.864	-21.16
359.075	23.89
359.287	42.32
359.498	95.57
359.709	27.99
359.921	27.99
360.132	44.37
360.344	54.61
360.555	21.84
360.766	36.18
360.977	54.61
361.189	1.37
361.4	68.95
361.611	23.89
361.823	-23.21
362.034	58.71
362.245	-31.4
362.456	9.56
362.667	19.8
362.879	11.61
363.09	15.7
363.301	30.04
363.512	34.13
363.723	60.76
363.935	-0.68
364.146	89.43
364.357	44.37
364.568	5.46
364.779	-4.78
364.99	17.75
365.201	-10.92
365.412	66.9
365.623	23.89
365.834	124.24
366.045	34.13
366.256	87.38
366.467	25.94
366.678	11.61
366.889	30.04
367.1	54.61
367.311	-2.73
367.522	114
367.733	-2.73
367.944	13.65
368.155	75.09
368.366	79.19
368.577	40.28
368.788	25.94
368.999	9.56
369.209	122.2
369.42	44.37
369.631	32.08
369.842	30.04
370.053	1.37
370.264	68.95
370.474	25.94
370.685	25.94
370.896	27.99
371.107	32.08
371.317	99.67
371.528	83.28
371.739	124.24
371.95	30.04
372.16	21.84
372.371	52.56
372.582	54.61
372.792	46.42
373.003	-35.5
373.214	23.89
373.424	34.13
373.635	87.38
373.846	75.09
374.056	46.42
374.267	19.8
374.477	54.61
374.688	7.51
374.898	-17.07
375.109	9.56
375.319	36.18
375.53	42.32
375.74	75.09
375.951	21.84
376.161	-8.87
376.372	30.04
376.582	-27.31
376.793	52.56
377.003	1.37
377.214	15.7
377.424	58.71
377.635	68.95
377.845	7.51
378.055	75.09
378.266	32.08
378.476	30.04
378.686	-2.73
378.897	17.75
379.107	71
379.317	140.63
379.528	13.65
379.738	85.33
379.948	-33.45
380.158	48.47
380.369	-6.83
380.579	13.65
380.789	50.52
380.999	114
381.21	71
381.42	122.2
381.63	-0.68
381.84	-17.07
382.05	38.23
382.261	87.38
382.471	56.66
382.681	-35.5
382.891	56.66
383.101	32.08
383.311	3.41
383.521	30.04
383.731	7.51
383.941	114
384.151	17.75
384.361	52.56
384.571	42.32
384.781	64.85
384.991	9.56
385.201	36.18
385.411	75.09
385.621	9.56
385.831	-4.78
386.041	42.32
386.251	130.39
386.461	-29.35
386.671	-17.07
386.881	97.62
387.091	50.52
387.301	111.96
387.511	-2.73
387.72	66.9
387.93	66.9
388.14	13.65
388.35	38.23
388.56	50.52
388.769	13.65
388.979	101.72
389.189	-27.31
389.399	87.38
389.609	25.94
389.818	-17.07
390.028	3.41
390.238	30.04
390.447	17.75
390.657	64.85
390.867	83.28
391.076	-12.97
391.286	105.81
391.496	44.37
391.705	81.24
391.915	68.95
392.125	48.47
392.334	111.96
392.544	56.66
392.753	71
392.963	-17.07
393.172	58.71
393.382	105.81
393.591	93.52
393.801	42.32
394.01	27.99
394.22	58.71
394.429	44.37
394.639	38.23
394.848	128.34
395.058	83.28
395.267	11.61
395.477	36.18
395.686	95.57
395.895	89.43
396.105	183.63
396.314	32.08
396.524	17.75
396.733	54.61
396.942	114
397.152	116.05
397.361	89.43
397.57	71
397.78	56.66
397.989	99.67
398.198	120.15
398.407	109.91
398.617	62.8
398.826	169.3
399.035	118.1
399.244	99.67
399.453	85.33
399.663	95.57
399.872	138.58
400.081	81.24
400.29	99.67
400.499	97.62
400.708	120.15
400.917	77.14
401.127	157.01
401.336	109.91
401.545	87.38
401.754	95.57
401.963	85.33
402.172	161.11
402.381	50.52
402.59	122.2
402.799	134.48
403.008	118.1
403.217	93.52
403.426	66.9
403.635	40.28
403.844	126.29
404.053	226.64
404.262	85.33
404.471	140.63
404.68	136.53
404.888	38.23
405.097	75.09
405.306	126.29
405.515	71
405.724	206.16
405.933	142.68
406.142	230.74
406.35	232.79
406.559	187.73
406.768	157.01
406.977	204.11
407.185	128.34
407.394	173.39
407.603	126.29
407.812	243.03
408.02	247.12
408.229	300.37
408.438	273.75
408.646	251.22
408.855	232.79
409.064	245.07
409.272	290.13
409.481	326.99
409.69	267.6
409.898	304.46
410.107	337.23
410.315	316.75
410.524	308.56
410.733	367.95
410.941	343.38
411.15	378.19
411.358	347.47
411.567	482.64
411.775	488.78
411.984	402.77
412.192	464.21
412.401	478.54
412.609	478.54
412.818	531.79
413.026	468.3
413.234	537.93
413.443	550.22
413.651	544.08
413.86	660.81
414.068	662.86
414.276	677.19
414.485	669
414.693	703.82
414.901	720.2
415.11	714.06
415.318	732.49
415.526	810.31
415.734	804.17
415.943	843.08
416.151	818.5
416.359	918.86
416.567	961.86
416.776	959.81
416.984	1084.74
417.192	1023.3
417.4	1021.25
417.608	1070.4
417.817	1160.52
418.025	1144.13
418.233	1242.43
418.441	1150.28
418.649	1209.67
418.857	1355.07
419.065	1396.03
419.273	1348.93
419.481	1463.61
419.689	1592.64
419.897	1621.31
420.105	1582.4
420.313	1578.3
420.521	1740.09
420.729	1811.77
420.937	1867.06
421.145	1953.08
421.353	2014.52
421.561	2166.07
421.769	2071.86
421.977	2073.91
422.185	2284.85
422.393	2288.95
422.601	2405.68
422.809	2413.87
423.017	2471.22
423.224	2528.56
423.432	2727.21
423.64	2608.43
423.848	2987.3
424.056	2882.86
424.263	3003.69
424.471	2999.59
424.679	3108.13
424.887	3382.56
425.094	3310.88
425.302	3409.19
425.51	3554.59
425.718	3605.79
425.925	3808.54
426.133	3800.35
426.341	3882.27
426.548	4199.7
426.756	4224.28
426.964	4341.01
427.171	4527.38
427.379	4740.36
427.586	4799.76
427.794	4736.27
428.001	5178.63
428.209	5180.68
428.417	5063.94
428.624	5553.41
428.832	5633.28
429.039	5508.35
429.247	5618.94
429.454	6065.4
429.662	6423.8
429.869	6182.13
430.076	6497.52
430.284	6247.67
430.491	6579.44
430.699	6999.27
430.906	6915.31
431.114	7073
431.321	7292.13
431.528	7361.77
431.736	7888.09
431.943	8256.73
432.15	8076.51
432.358	8080.6
432.565	8588.5
432.772	8561.87
432.979	8891.6
433.187	9295.05
433.394	9225.42
433.601	9856.19
433.808	9993.4
434.016	9790.66
434.223	10247.35
434.43	10949.81
434.637	10540.21
434.844	11349.16
435.052	11551.91
435.259	11291.82
435.466	11465.89
435.673	11254.95
435.88	12467.35
436.087	12754.07
436.294	12840.08
436.501	12604.56
436.708	12766.35
436.915	13022.35
437.122	13749.38
437.329	13661.32
437.537	14230.65
437.743	14439.54
437.95	14314.62
438.157	15053.94
438.364	15246.44
438.571	15348.84
438.778	15565.93
438.985	17056.85
439.192	16317.53
439.399	17044.56
439.606	17003.6
439.813	17521.74
440.02	18560.06
440.227	18115.65
440.433	18111.55
440.64	18566.2
440.847	18510.91
441.054	19063.86
441.261	20290.59
441.467	19821.61
441.674	20419.61
441.881	21042.2
442.088	21287.95
442.294	20923.41
442.501	21300.24
442.708	21900.3
442.914	22498.3
443.121	23886.82
443.328	22993.91
443.534	24959.96
443.741	23774.19
443.948	23647.21
444.154	25322.45
444.361	25344.98
444.568	25463.76
444.774	25209.81
444.981	25793.48
445.187	26389.44
445.394	27366.32
445.6	27095.99
445.807	29584.27
446.013	28062.63
446.22	28920.73
446.426	29993.87
446.633	30380.93
446.839	31470.45
447.046	29907.85
447.252	31765.36
447.459	31847.28
447.665	31607.67
447.871	32975.71
448.078	34779.97
448.284	32684.9
448.491	33801.04
448.697	34917.18
448.903	35707.7
449.11	35615.54
449.316	34941.76
449.522	35832.63
449.728	36639.53
449.935	36926.24
450.141	36860.71
450.347	37434.14
450.553	36512.55
450.76	36789.03
450.966	38302.48
451.172	37669.65
451.378	38658.82
451.584	37708.57
451.791	38474.51
451.997	38341.39
452.203	39443.2
452.409	39490.3
452.615	39119.62
452.821	37208.86
453.027	36903.71
453.233	39109.38
453.44	37530.39
453.646	37944.08
453.852	38150.93
454.058	38591.24
454.264	37423.9
454.47	38419.21
454.676	37229.34
454.882	38460.17
455.088	35017.53
455.294	35681.08
455.5	35810.1
455.705	36494.12
455.911	35064.64
456.117	34321.23
456.323	33925.97
456.529	31886.19
456.735	33370.97
456.941	32754.53
457.147	32320.36
457.352	31148.92
457.558	30782.34
457.764	30647.17
457.97	29932.43
458.176	29627.28
458.381	29864.85
458.587	28046.25
458.793	28205.99
458.999	26426.31
459.204	28455.84
459.41	28031.91
459.616	25889.74
459.821	25854.92
460.027	25533.39
460.233	25025.5
460.438	24038.37
460.644	24271.84
460.85	23188.47
461.055	22680.57
461.261	22893.56
461.466	21144.59
461.672	20401.18
461.878	21617.68
462.083	20378.65
462.289	20251.68
462.494	19758.12
462.7	18928.69
462.905	18265.15
463.111	19049.52
463.316	19090.48
463.522	18783.29
463.727	18719.8
463.932	18664.5
464.138	18635.83
464.343	18558.01
464.549	18123.84
464.754	18748.47
464.959	18385.98
465.165	18332.73
465.37	17574.99
465.575	17007.7
465.781	17841.22
465.986	17863.75
466.191	17161.3
466.397	16792.66
466.602	16168.03
466.807	16727.13
467.012	16495.71
467.218	16622.68
467.423	16249.95
467.628	16489.56
467.833	17128.53
468.038	16192.61
468.244	16041.06
468.449	16399.45
468.654	16075.87
468.859	16063.58
469.064	15928.42
469.269	15162.48
469.474	15258.73
469.679	15570.02
469.885	15103.09
470.09	15467.63
470.295	15324.27
470.5	14847.09
470.705	14998.64
470.91	14707.83
471.115	14560.38
471.32	14967.92
471.525	14484.6
471.73	14328.95
471.935	14201.98
472.139	13778.05
472.344	14130.3
472.549	13882.5
472.754	13698.18
472.959	13384.84
473.164	13245.58
473.369	12891.28
473.574	13192.33
473.778	13347.98
473.983	13118.61
474.188	13087.89
474.393	12428.44
474.598	12582.04
474.802	12438.68
475.007	12506.26
475.212	12336.28
475.417	12080.28
475.621	11902.11
475.826	11834.53
476.031	11779.23
476.235	11713.7
476.44	11517.09
476.645	11308.2
476.849	11525.29
477.054	11297.96
477.259	11097.26
477.463	10888.37
477.668	10601.65
477.872	10966.19
478.077	10593.46
478.282	10636.47
478.486	10497.21
478.691	10542.26
478.895	10480.82
479.1	10286.26
479.304	10489.01
479.509	9927.87
479.713	10120.38
479.918	9843.9
480.122	9909.44
480.326	9944.25
480.531	9903.29
480.735	9704.64
480.94	9731.26
481.144	10054.84
481.348	9409.73
481.553	9821.38
481.757	9524.42
481.961	9882.81
482.166	9610.43
482.37	9780.42
482.574	9458.88
482.778	9553.09
482.983	9465.03
483.187	9518.28
483.391	9565.38
483.595	9411.78
483.8	9592
484.004	9462.98
484.208	9600.19
484.412	9372.87
484.616	9530.56
484.821	9549
485.025	9331.91
485.229	9524.42
485.433	9462.98
485.637	9684.16
485.841	9409.73
486.045	9426.12
486.249	9534.66
486.453	9108.68
486.657	9532.61
486.861	9565.38
487.065	9217.22
487.269	9374.92
487.473	9307.34
487.677	9346.25
487.881	9508.04
488.085	9393.35
488.289	9481.41
488.493	9477.32
488.697	9401.54
488.901	9594.05
489.105	9563.33
489.309	9626.82
489.512	9600.19
489.716	9524.42
489.92	9653.44
490.124	9503.94
490.328	9755.84
490.531	9610.43
490.735	9839.81
490.939	9891.01
491.143	9610.43
491.346	9751.74
491.55	9938.11
491.754	9845.95
491.958	9876.67
492.161	10081.47
492.365	10013.88
492.569	9899.2
492.772	10106.04
492.976	10228.92
493.18	10288.31
493.383	10044.6
493.587	10294.46
493.79	10431.67
493.994	10263.74
494.197	10339.51
494.401	10509.49
494.605	10538.16
494.808	10702
495.012	10837.17
495.215	10693.81
495.419	10951.85
495.622	10638.51
495.825	10890.42
496.029	10914.99
496.232	11257
496.436	11134.12
496.639	11437.22
496.843	11386.02
497.046	11529.38
497.249	11689.12
497.453	11818.14
497.656	11906.21
497.859	11773.09
498.063	12018.85
498.266	12125.34
498.469	12260.51
498.673	12278.94
498.876	12491.93
499.079	12680.34
499.282	12696.72
499.485	12897.42
499.689	13106.32
499.892	13366.41
500.095	13067.41
500.298	13550.73
500.501	13335.69
500.705	13673.6
500.908	13765.76
501.111	13851.78
501.314	14070.91
501.517	14247.04
501.72	14550.14
501.923	14515.32
502.126	14693.49
502.329	14900.34
502.532	15047.79
502.735	15367.27
502.938	15350.89
503.141	15453.29
503.344	15899.75
503.547	15545.45
503.75	16278.62
503.953	16331.87
504.156	16440.41
504.359	16368.73
504.562	16522.33
504.765	16862.29
504.968	17134.67
505.17	17255.5
505.373	17382.48
505.576	17884.23
505.779	17943.62
505.982	18127.94
506.185	18244.67
506.387	18222.14
506.59	18361.41
506.793	18809.91
506.996	18535.48
507.198	19174.45
507.401	19174.45
507.604	19625
507.807	19954.72
508.009	19717.16
508.212	19541.04
508.415	20016.16
508.617	20177.95
508.82	20677.66
509.022	20591.64
509.225	21089.3
509.428	20999.19
509.63	21668.87
509.833	21466.13
510.035	22086.66
510.238	21742.6
510.44	22193.15
510.643	22322.18
510.845	22686.72
511.048	22299.65
511.25	22854.65
511.453	22688.76
511.655	23481.33
511.858	23405.55
512.06	23655.4
512.262	23815.15
512.465	24134.63
512.667	24673.24
512.87	24384.48
513.072	24624.09
513.274	25338.83
513.477	25138.13
513.679	25353.17
513.881	25500.62
514.084	26137.54
514.286	26061.77
514.488	26256.32
514.69	26528.7
514.893	26731.45
515.095	26745.79
515.297	27552.69
515.499	27413.43
515.701	27462.58
515.904	27911.08
516.106	27904.94
516.308	28279.72
516.51	28693.41
516.712	28779.42
516.914	28797.85
517.116	28816.29
517.318	29254.55
517.52	29502.36
517.722	29473.68
517.925	30071.69
518.127	30362.5
518.329	30329.73
518.531	30520.2
518.733	30794.62
518.935	31374.2
519.136	30927.74
519.338	31822.7
519.54	31951.73
519.742	32078.7
519.944	32025.45
520.146	32637.8
520.348	32580.45
520.55	32815.97
520.752	33002.33
520.954	33751.89
521.155	33233.75
521.357	33520.47
521.559	34243.4
521.761	34202.44
521.963	34511.69
522.164	34284.36
522.366	34437.96
522.568	35201.85
522.77	35048.25
522.971	35566.39
523.173	35312.44
523.375	35507
523.576	35633.97
523.778	35973.94
523.98	36391.72
524.181	36301.61
524.383	36186.93
524.584	36832.04
524.786	36905.76
524.988	37260.06
525.189	37284.64
525.391	37503.77
525.592	37587.74
525.794	37620.5
525.995	37391.13
526.197	37579.54
526.398	37743.38
526.6	38454.03
526.801	37772.05
527.003	38013.71
527.204	38273.81
527.406	38677.26
527.607	38718.21
527.808	38789.89
528.01	38308.62
528.211	38761.22
528.412	39394.04
528.614	38824.71
528.815	38793.99
529.016	39574.27
529.218	39101.18
529.419	39639.8
529.62	39297.79
529.822	39379.71
530.023	39623.42
530.224	39348.99
530.425	39207.68
530.626	39363.32
530.828	39310.08
531.029	40159.98
531.23	39387.9
531.431	39441.15
531.632	39428.86
531.833	39461.63
532.035	39899.89
532.236	39910.13
532.437	40055.54
532.638	39475.96
532.839	40106.74
533.04	40143.6
533.241	39463.68
533.442	40383.21
533.643	39817.97
533.844	40170.22
534.045	40035.06
534.246	39332.61
534.447	40180.46
534.648	39502.59
534.849	39914.23
535.05	39682.81
535.251	39854.84
535.451	39781.11
535.652	40112.88
535.853	39623.42
536.054	39840.5
536.255	40192.75
536.456	39785.21
536.657	40573.67
536.857	39805.69
537.058	39529.21
537.259	40184.56
537.46	40000.24
537.66	39830.26
537.861	39570.17
538.062	39672.57
538.263	39359.23
538.463	39621.37
538.664	39781.11
538.865	40092.4
539.065	39955.19
539.266	39447.29
539.466	39824.12
539.667	39107.33
539.868	39979.76
540.068	39830.26
540.269	39496.44
540.469	39596.79
540.67	39230.21
540.87	39467.77
541.071	39586.55
541.271	39635.7
541.472	39701.24
541.672	39201.54
541.873	39131.9
542.073	38644.49
542.274	39576.31
542.474	39199.49
542.675	38953.73
542.875	39680.76
543.075	39006.98
543.276	39021.31
543.476	39547.64
543.676	38906.63
543.877	39136
544.077	39004.93
544.277	39256.83
544.478	39283.45
544.678	39117.57
544.878	39150.34
545.078	38910.72
545.279	39082.75
545.479	38767.37
545.679	38716.17
545.879	38869.76
546.079	39078.66
546.28	38884.1
546.48	38699.78
546.68	39072.51
546.88	38759.17
547.08	38798.09
547.28	39127.81
547.48	38562.57
547.68	38982.4
547.88	38441.74
548.081	38800.13
548.281	38759.17
548.481	38652.68
548.681	39002.88
548.881	38947.59
549.081	38556.42
549.28	38458.12
549.48	39009.03
549.68	38349.58
549.88	39109.38
550.08	38523.66
550.28	38912.77
550.48	38595.34
550.68	38793.99
550.88	38378.25
551.08	38159.12
551.279	38537.99
551.479	38062.86
551.679	38316.81
551.879	38499.08
552.079	38382.35
552.278	38325
552.478	38431.5
552.678	38396.68
552.878	38357.77
553.077	38333.2
553.277	38114.06
553.477	38710.02
553.676	38185.74
553.876	38132.5
554.076	37903.12
554.275	38161.17
554.475	37681.94
554.674	38128.4
554.874	38456.07
555.074	37751.57
555.273	37866.26
555.473	37755.67
555.672	37747.48
555.872	37903.12
556.071	37933.84
556.271	37929.75
556.47	37708.57
556.67	37311.26
556.869	37550.87
557.068	37759.77
557.268	37661.46
557.467	37329.69
557.667	37530.39
557.866	37395.23
558.065	37581.59
558.265	37395.23
558.464	37505.82
558.663	37505.82
558.863	37427.99
559.062	37819.16
559.261	36854.56
559.461	37468.95
559.66	36768.55
559.859	37157.66
560.058	36774.69
560.258	37194.53
560.457	36776.74
560.656	37450.52
560.855	36533.03
561.054	36875.04
561.253	36696.87
561.453	36674.34
561.652	36811.56
561.851	36447.02
562.05	36447.02
562.249	36629.29
562.448	36506.41
562.647	36614.95
562.846	36506.41
563.045	36254.51
563.244	35973.94
563.443	36617
563.642	35924.79
563.841	36344.62
564.04	35941.17
564.239	36166.45
564.438	36072.24
564.637	36131.63
564.836	36006.7
565.035	35507
565.234	35892.02
565.432	35474.23
565.631	35664.69
565.83	35545.91
566.029	35097.41
566.228	35836.72
566.427	35445.56
566.625	35154.75
566.824	35085.12
567.023	35564.34
567.222	34417.48
567.42	35615.54
567.619	35150.65
567.818	35115.84
568.016	34689.86
568.215	35076.93
568.414	34579.27
568.612	35398.46
568.811	34622.28
569.01	34804.55
569.208	34278.22
569.407	34509.64
569.605	34153.29
569.804	34589.51
570.002	34036.56
570.201	34372.42
570.4	34024.27
570.598	33934.16
570.797	33776.47
570.995	34171.72
571.193	33803.09
571.392	33811.28
571.59	33287
571.789	33598.29
571.987	33616.72
572.186	33444.69
572.384	33641.3
572.582	33461.08
572.781	33225.56
572.979	32926.56
573.177	33024.86
573.376	33305.43
573.574	32936.8
573.772	32830.3
573.971	32568.16
574.169	32615.27
574.367	32924.51
574.565	32637.8
574.763	32627.56
574.962	32381.8
575.16	32119.66
575.358	32211.82
575.556	32125.8
575.754	32682.85
575.952	31908.72
576.151	32281.45
576.349	31783.79
576.547	31970.16
576.745	31861.62
576.943	32172.91
577.141	31871.85
577.339	31763.31
577.537	31345.53
577.735	31757.17
577.933	31789.94
578.131	31517.56
578.329	31009.66
578.527	30940.03
578.725	31030.14
578.923	30940.03
579.121	30772.1
579.319	30968.7
579.516	31171.45
579.714	31105.91
579.912	30673.79
580.11	30546.82
580.308	30761.86
580.506	30516.1
580.704	30174.09
580.901	30460.8
581.099	30495.62
581.297	30196.62
581.495	30143.37
581.692	30258.06
581.89	30288.78
582.088	30096.27
582.285	29571.99
582.483	29834.13
582.681	29725.58
582.878	29674.38
583.076	29492.12
583.274	30104.46
583.471	29174.68
583.669	29483.92
583.866	29205.4
584.064	29313.94
584.262	29041.56
584.459	29559.7
584.657	28847.01
584.854	29275.03
585.052	28627.87
585.249	29045.66
585.447	28890.01
585.644	28507.04
585.841	28449.7
586.039	28873.63
586.236	28261.29
586.434	28629.92
586.631	28160.94
586.828	28380.07
587.026	28244.9
587.223	28132.26
587.42	28134.31
587.618	28058.54
587.815	27878.32
588.012	27872.17
588.21	27507.63
588.407	27921.32
588.604	27270.07
588.801	27284.4
588.999	27302.84
589.196	27481.01
589.393	27274.17
589.59	27098.04
589.787	27104.18
589.984	27022.26
590.182	26596.29
590.379	26926.01
590.576	26735.55
590.773	26788.8
590.97	26692.54
591.167	26880.96
591.364	26459.07
591.561	26723.26
591.758	26268.61
591.955	26452.93
592.152	26487.75
592.349	26196.93
592.546	26342.34
592.743	25930.7
592.94	25809.87
593.137	26045.38
593.334	26190.79
593.531	25527.25
593.727	25777.1
593.924	25781.2
594.121	25271.25
594.318	25762.76
594.515	25074.65
594.712	25318.35
594.908	25201.62
595.105	25496.53
595.302	25007.06
595.499	25115.61
595.696	25140.18
595.892	24734.68
596.089	24562.65
596.286	24730.59
596.482	24861.66
596.679	24681.44
596.876	24597.47
597.072	24390.63
597.269	24523.74
597.466	24433.63
597.662	24357.86
597.859	24177.64
598.055	24056.81
598.252	24208.36
598.448	23976.94
598.645	24257.51
598.841	23768.04
599.038	23735.28
599.234	23665.64
599.431	23759.85
599.627	23524.33
599.824	23626.73
600.02	23350.26
600.217	23411.7
600.413	23211
600.609	23294.96
600.806	22838.26
601.002	23260.15
601.198	23016.44
601.395	22588.41
601.591	22895.61
601.787	23008.25
601.984	22821.88
602.18	22889.46
602.376	22803.45
602.572	22623.23
602.769	22668.28
602.965	22334.46
603.161	22533.12
603.357	22135.81
603.553	21935.11
603.75	22268.93
603.946	22279.17
604.142	22332.42
604.338	21937.16
604.534	22074.37
604.73	21556.24
604.926	21658.63
605.122	21894.15
605.318	21765.13
605.514	21535.76
605.71	21564.43
605.906	21892.1
606.102	21341.2
606.298	21406.73
606.494	21212.18
606.69	21320.72
606.886	21441.55
607.082	21238.8
607.278	21427.21
607.474	21179.41
607.67	21093.4
607.866	20739.1
608.062	21206.03
608.257	20913.17
608.453	21015.57
608.649	20900.89
608.845	20818.97
609.041	20972.57
609.236	20712.47
609.432	20841.5
609.628	20743.19
609.824	20657.18
610.019	20319.26
610.215	20603.93
610.411	20442.14
610.606	20261.92
610.802	20343.84
610.998	20560.92
611.193	20227.1
611.389	20177.95
611.584	19878.95
611.78	20087.84
611.976	19708.97
612.171	20263.97
612.367	20081.7
612.562	19719.21
612.758	19713.06
612.953	19956.77
613.149	20016.16
613.344	19780.65
613.539	20034.6
613.735	19897.38
613.93	19768.36
614.126	19483.69
614.321	20263.97
614.517	19672.11
614.712	19555.37
614.907	19526.7
615.103	19549.23
615.298	19467.31
615.493	19289.13
615.688	19309.61
615.884	19897.38
616.079	18926.64
616.274	19305.52
616.47	19414.06
616.665	19459.12
616.86	19307.57
617.055	19528.75
617.25	19100.72
617.445	19280.94
617.641	18809.91
617.836	19264.56
618.031	18680.89
618.226	18752.57
618.421	18584.63
618.616	18983.99
618.811	18492.48
619.006	18590.78
619.201	18553.91
619.396	18535.48
619.591	18523.19
619.786	18478.14
619.981	18078.79
620.176	18281.53
620.371	17953.86
620.566	18082.88
620.761	18179.14
620.956	18000.96
621.151	17792.07
621.346	17693.77
621.541	17564.75
621.735	17710.15
621.93	17310.8
622.125	17355.85
622.32	17099.86
622.515	17378.38
622.709	17103.95
622.904	17079.38
623.099	16972.88
623.294	17089.62
623.488	16782.42
623.683	16929.88
623.878	16456.79
624.072	16847.96
624.267	16542.81
624.462	16282.72
624.656	16215.13
624.851	16395.36
625.046	16385.12
625.24	15944.8
625.435	15977.57
625.629	16071.78
625.824	15610.98
626.018	15707.24
626.213	15469.67
626.407	15678.57
626.602	15529.06
626.796	15545.45
626.991	15232.11
627.185	15090.8
627.38	14957.68
627.574	15332.46
627.768	15035.5
627.963	14748.79
628.157	14771.32
628.352	14630.01
628.546	14419.07
628.74	14656.63
628.935	14537.85
629.129	14414.97
629.323	14314.62
629.517	14316.67
629.712	14115.97
629.906	14005.38
630.1	13982.85
630.294	13943.94
630.489	13870.21
630.683	13890.69
630.877	13452.42
631.071	13606.02
631.265	13859.97
631.459	13427.85
631.653	13294.73
631.848	13124.75
632.042	13268.11
632.236	13347.98
632.43	13200.52
632.624	13132.94
632.818	13116.56
633.012	13026.45
633.206	12842.13
633.4	12805.27
633.594	12733.59
633.788	12747.92
633.982	12412.06
634.176	12704.92
634.369	12424.34
634.563	12551.32
634.757	12428.44
634.951	12395.67
635.145	12389.53
635.339	12338.33
635.533	11916.45
635.726	11988.13
635.92	12037.28
636.114	11904.16
636.308	11875.49
636.501	11721.89
636.695	11877.54
636.889	11566.24
637.083	11513
637.276	11457.7
637.47	11336.87
637.664	11480.23
637.857	11285.67
638.051	11177.13
638.244	11275.43
638.438	11048.11
638.632	11113.64
638.825	11080.88
639.019	11056.3
639.212	10867.89
639.406	10831.02
639.599	10908.85
639.793	10880.18
639.986	10663.09
640.18	10673.33
640.373	10527.92
640.567	10491.06
640.76	10351.8
640.954	10403
641.147	10419.38
641.34	10314.94
641.534	10448.05
641.727	10126.52
641.92	10175.67
642.114	9888.96
642.307	10257.59
642.5	9972.93
642.694	9755.84
642.887	9604.29
643.08	9655.49
643.273	9886.91
643.467	9764.03
643.66	9534.66
643.853	9569.48
644.046	9198.79
644.239	9544.9
644.432	9426.12
644.626	9233.61
644.819	9231.56
645.012	9262.28
645.205	9262.28
645.398	9262.28
645.591	9120.97
645.784	9112.78
645.977	9129.16
646.17	8973.52
646.363	8926.41
646.556	8922.32
646.749	8879.31
646.942	8787.15
647.135	8664.27
647.328	8475.86
647.521	8717.52
647.714	8563.92
647.907	8504.53
648.099	8547.54
648.292	8506.58
648.485	8563.92
648.678	8338.65
648.871	8338.65
649.064	8252.63
649.256	8301.78
649.449	8400.09
649.642	8277.21
649.835	8013.02
650.027	8064.22
650.22	8139.99
650.413	8027.35
650.605	8031.45
650.798	7886.04
650.991	7664.86
651.183	7714.02
651.376	7705.82
651.568	7836.89
651.761	7683.3
651.954	7634.14
652.146	7474.4
652.339	7554.27
652.531	7488.74
652.724	7509.22
652.916	7298.28
653.109	7245.03
653.301	7453.92
653.494	7226.6
653.686	7169.26
653.879	7193.83
654.071	7245.03
654.263	7210.22
654.456	7058.67
654.648	7212.26
654.84	6989.03
655.033	7142.63
655.225	7027.95
655.417	6890.73
655.61	7087.34
655.802	6915.31
655.994	6765.81
656.186	6849.77
656.379	6737.13
656.571	6636.78
656.763	6696.18
656.955	6561.01
657.148	6583.54
657.34	6534.39
657.532	6415.6
657.724	6538.48
657.916	6528.24
658.108	6374.64
658.3	6298.87
658.492	6350.07
658.684	6276.34
658.876	6286.58
659.068	6167.8
659.26	6323.44
659.452	6194.42
659.644	6225.14
659.836	6171.9
660.028	6186.23
660.22	6137.08
660.412	6075.64
660.604	5956.86
660.796	5981.43
660.988	6036.73
661.18	6044.92
661.372	5764.35
661.563	5801.21
661.755	5829.88
661.947	5862.65
662.139	5807.36
662.331	5657.85
662.522	5711.1
662.714	5571.84
662.906	5674.24
663.097	5537.02
663.289	5537.02
663.481	5463.3
663.673	5672.19
663.864	5463.3
664.056	5405.95
664.247	5461.25
664.439	5426.43
664.631	5336.32
664.822	5299.46
665.014	5289.22
665.205	5307.65
665.397	5256.45
665.588	5207.3
665.78	5213.45
665.971	5250.31
666.163	5186.82
666.354	5242.12
666.546	5115.14
666.737	4945.16
666.929	5125.38
667.12	5020.94
667.311	5078.28
667.503	4971.79
667.694	4992.27
667.885	4896.01
668.077	5004.55
668.268	4936.97
668.459	4922.63
668.651	4896.01
668.842	4867.34
669.033	4723.98
669.224	4789.52
669.416	4877.58
669.607	4738.32
669.798	4730.13
669.989	4762.89
670.18	4787.47
670.371	4648.21
670.563	4642.06
670.754	4617.49
670.945	4490.51
671.136	4599.06
671.327	4484.37
671.518	4529.42
671.709	4640.01
671.9	4570.38
672.091	4492.56
672.282	4416.79
672.473	4515.09
672.664	4470.03
672.855	4582.67
673.046	4316.44
673.237	4410.64
673.428	4310.29
673.619	4386.07
673.809	4347.15
674	4259.09
674.191	4214.04
674.382	4261.14
674.573	4326.68
674.764	4226.32
674.954	4375.83
675.145	4314.39
675.336	4275.48
675.527	4248.85
675.717	4136.21
675.908	4148.5
676.099	4234.52
676.289	4195.61
676.48	4179.22
676.671	4121.88
676.861	4085.01
677.052	4044.06
677.243	4074.78
677.433	3984.66
677.624	3990.81
677.814	3939.61
678.005	3962.14
678.195	3962.14
678.386	3970.33
678.576	4013.34
678.767	4044.06
678.957	3951.9
679.148	4042.01
679.338	3994.9
679.529	3783.96
679.719	4011.29
679.909	3921.18
680.1	3962.14
680.29	3980.57
680.481	3855.64
680.671	3853.59
680.861	3833.11
681.052	3980.57
681.242	3788.06
681.432	3904.79
681.622	3824.92
681.813	3730.72
682.003	3822.88
682.193	3605.79
682.383	3779.87
682.573	3652.89
682.764	3630.37
682.954	3738.91
683.144	3851.55
683.334	3753.24
683.524	3777.82
683.714	3775.77
683.904	3708.19
684.094	3616.03
684.284	3609.89
684.474	3667.23
684.664	3667.23
684.854	3642.65
685.044	3523.87
685.234	3517.73
685.424	3591.45
685.614	3521.82
685.804	3495.2
685.994	3595.55
686.184	3609.89
686.374	3527.97
686.564	3415.33
686.753	3505.44
686.943	3472.67
687.133	3423.52
687.323	3527.97
687.513	3525.92
687.702	3380.51
687.892	3429.66
688.082	3314.98
688.272	3421.47
688.461	3466.53
688.651	3366.18
688.841	3333.41
689.03	3302.69
689.22	3286.31
689.41	3378.47
689.599	3335.46
689.789	3372.32
689.979	3132.71
690.168	3208.48
690.358	3157.29
690.547	3298.6
690.737	3161.38
690.926	3188
691.116	3132.71
691.305	3087.65
691.495	3190.05
691.684	3063.08
691.874	3151.14
692.063	3095.85
692.252	2995.5
692.442	3011.88
692.631	3050.79
692.82	3071.27
693.01	2993.45
693.199	3018.02
693.388	2981.16
693.578	2972.97
693.767	2995.5
693.956	2997.54
694.146	2921.77
694.335	3032.36
694.524	2868.52
694.713	3132.71
694.902	3042.6
695.092	2886.95
695.281	2903.34
695.47	2856.23
695.659	3073.32
695.848	2993.45
696.037	2874.67
696.226	2966.82
696.415	2936.1
696.604	2950.44
696.793	2850.09
696.982	2968.87
697.171	2872.62
697.36	2845.99
697.549	2837.8
697.738	2852.14
697.927	2956.58
698.116	2848.04
698.305	2794.79
698.494	2813.23
698.683	2764.08
698.872	2940.2
699.061	2889
699.25	2870.57
699.438	2774.31
699.627	2874.67
699.816	2864.43
700.005	2829.61
700.193	2899.24
700.382	2927.91
700.571	2893.1
700.76	2776.36
700.948	2903.34
701.137	2815.27
701.326	2893.1
701.514	2866.47
701.703	3001.64
701.892	2684.2
702.08	2819.37
702.269	2897.19
702.457	2815.27
702.646	2749.74
702.834	2657.58
703.023	2835.75
703.212	2819.37
703.4	2907.43
703.589	2766.12
703.777	2932.01
703.965	2835.75
704.154	2745.64
704.342	2766.12
704.531	2757.93
704.719	2671.92
704.907	2749.74
705.096	2798.89
705.284	2755.88
705.472	2868.52
705.661	2778.41
705.849	2757.93
706.037	2815.27
706.226	2813.23
706.414	2682.16
706.602	2825.51
706.79	2817.32
706.979	2833.71
707.167	2815.27
707.355	2811.18
707.543	2727.21
707.731	2651.44
707.919	2782.51
708.107	2819.37
708.296	2784.55
708.484	2809.13
708.672	2759.98
708.86	2837.8
709.048	2864.43
709.236	2796.84
709.424	2845.99
709.612	2772.27
709.8	2768.17
709.988	2671.92
710.176	2823.47
710.364	2639.15
710.551	2841.9
710.739	2708.78
710.927	2768.17
711.115	2790.7
711.303	2727.21
711.491	2719.02
711.679	2766.12
711.866	2819.37
712.054	2817.32
712.242	2716.97
712.43	2727.21
712.617	2774.31
712.805	2712.88
712.993	2729.26
713.181	2725.16
713.368	2766.12
713.556	2819.37
713.744	2792.75
713.931	2729.26
714.119	2682.16
714.306	2688.3
714.494	2698.54
714.682	2723.12
714.869	2671.92
715.057	2800.94
715.244	2794.79
715.432	2800.94
715.619	2716.97
715.807	2678.06
715.994	2680.11
716.182	2626.86
716.369	2735.4
716.556	2802.99
716.744	2686.25
716.931	2604.33
717.119	2704.68
717.306	2712.88
717.493	2766.12
717.681	2600.24
717.868	2708.78
718.055	2647.34
718.242	2778.41
718.43	2667.82
718.617	2671.92
718.804	2714.92
718.991	2698.54
719.179	2725.16
719.366	2727.21
719.553	2729.26
719.74	2743.6
719.927	2581.81
720.114	2626.86
720.301	2673.96
720.488	2704.68
720.676	2635.05
720.863	2620.72
721.05	2753.84
721.237	2596.14
721.424	2512.17
721.611	2491.7
721.798	2551.09
721.985	2671.92
722.172	2626.86
722.358	2583.85
722.545	2643.24
722.732	2549.04
722.919	2669.87
723.106	2567.47
723.293	2688.3
723.48	2594.09
723.667	2575.66
723.853	2612.53
724.04	2546.99
724.227	2596.14
724.414	2530.61
724.6	2661.68
724.787	2555.18
724.974	2528.56
725.161	2635.05
725.347	2362.67
725.534	2428.21
725.72	2536.75
725.907	2600.24
726.094	2456.88
726.28	2516.27
726.467	2493.74
726.653	2432.3
726.84	2501.94
727.027	2530.61
727.213	2526.51
727.4	2549.04
727.586	2510.13
727.773	2563.37
727.959	2563.37
728.145	2487.6
728.332	2526.51
728.518	2385.2
728.705	2489.65
728.891	2471.22
729.077	2350.39
729.264	2467.12
729.45	2409.78
729.636	2442.54
729.823	2454.83
730.009	2307.38
730.195	2544.94
730.382	2497.84
730.568	2354.48
730.754	2436.4
730.94	2434.35
731.126	2434.35
731.313	2417.97
731.499	2368.82
731.685	2471.22
731.871	2460.98
732.057	2520.37
732.243	2436.4
732.429	2417.97
732.615	2403.63
732.801	2340.15
732.987	2342.19
733.173	2485.55
733.359	2436.4
733.545	2278.71
733.731	2323.76
733.917	2471.22
734.103	2352.43
734.289	2374.96
734.475	2309.43
734.661	2379.06
734.847	2374.96
735.033	2278.71
735.219	2319.67
735.404	2352.43
735.59	2276.66
735.776	2331.95
735.962	2348.34
736.148	2344.24
736.333	2336.05
736.519	2403.63
736.705	2381.1
736.89	2245.94
737.076	2305.33
737.262	2190.64
737.447	2166.07
737.633	2217.27
737.819	2252.08
738.004	2192.69
738.19	2198.84
738.375	2213.17
738.561	2276.66
738.747	2184.5
738.932	2217.27
739.118	2196.79
739.303	2250.03
739.489	2317.62
739.674	2041.14
739.859	2159.92
740.045	2256.18
740.23	2159.92
740.416	2039.09
740.601	2106.68
740.786	2061.62
740.972	2078.01
741.157	2114.87
741.342	2217.27
741.528	2071.86
741.713	2088.25
741.898	2121.01
742.084	2088.25
742.269	2018.61
742.454	2125.11
742.639	2061.62
742.824	2141.49
743.01	1979.7
743.195	2141.49
743.38	1891.64
743.565	1951.03
743.75	2075.96
743.935	2004.28
744.12	2000.18
744.305	2010.42
744.49	1957.18
744.675	1887.54
744.86	1965.37
745.045	1924.41
745.23	1862.97
745.415	1903.93
745.6	1932.6
745.785	1797.43
745.97	1846.59
746.155	1934.65
746.34	1844.54
746.525	1924.41
746.71	1842.49
746.895	1875.26
747.079	1828.15
747.264	1860.92
747.449	1764.67
747.634	1709.37
747.819	1789.24
748.003	1746.23
748.188	1676.6
748.373	1779
748.557	1754.43
748.742	1629.5
748.927	1639.74
749.111	1848.63
749.296	1666.36
749.481	1748.28
749.665	1635.64
749.85	1711.42
750.034	1701.18
750.219	1742.14
750.404	1500.48
750.588	1586.49
750.773	1516.86
750.957	1518.91
751.141	1592.64
751.326	1592.64
751.51	1520.96
751.695	1535.29
751.879	1531.2
752.064	1580.35
752.248	1514.81
752.432	1420.61
752.617	1523.01
752.801	1414.46
752.985	1436.99
753.17	1480
753.354	1365.31
753.538	1404.22
753.722	1400.13
753.907	1281.35
754.091	1426.75
754.275	1469.76
754.459	1359.17
754.643	1334.59
754.828	1402.18
755.012	1418.56
755.196	1363.26
755.38	1291.59
755.564	1258.82
755.748	1262.91
755.932	1371.46
756.116	1320.26
756.3	1303.87
756.484	1338.69
756.668	1203.52
756.852	1209.67
757.036	1246.53
757.22	1258.82
757.404	1221.95
757.588	1318.21
757.772	1262.91
757.956	1293.63
758.14	1199.43
758.323	1232.19
758.507	1140.04
758.691	1224
758.875	1224
759.059	1170.76
759.242	1125.7
759.426	1142.08
759.61	1154.37
759.794	1084.74
759.977	1164.61
760.161	1164.61
760.345	1123.65
760.528	1142.08
760.712	1047.88
760.895	1129.8
761.079	1178.95
761.263	1195.33
761.446	998.73
761.63	1033.54
761.813	1088.84
761.997	1013.06
762.18	1017.16
762.364	1068.36
762.547	959.81
762.731	982.34
762.914	959.81
763.098	1015.11
763.281	955.72
763.464	1041.73
763.648	1025.35
763.831	916.81
764.015	988.49
764.198	1019.21
764.381	945.48
764.564	994.63
764.748	888.14
764.931	974.15
765.114	1013.06
765.297	929.1
765.481	918.86
765.664	863.56
765.847	859.46
766.03	972.1
766.213	902.47
766.397	945.48
766.58	894.28
766.763	980.29
766.946	871.75
767.129	857.42
767.312	900.42
767.495	845.13
767.678	881.99
767.861	965.96
768.044	871.75
768.227	861.51
768.41	838.98
768.593	845.13
768.776	877.9
768.959	824.65
769.142	939.33
769.324	865.61
769.507	838.98
769.69	826.7
769.873	881.99
770.056	869.7
770.239	896.33
770.421	789.83
770.604	836.94
770.787	849.22
770.97	808.26
771.152	836.94
771.335	806.22
771.518	759.11
771.7	795.98
771.883	806.22
772.066	787.79
772.248	849.22
772.431	755.02
772.613	728.39
772.796	722.25
772.978	838.98
773.161	775.5
773.343	834.89
773.526	703.82
773.708	687.43
773.891	697.67
774.073	726.35
774.256	648.52
774.438	828.74
774.621	714.06
774.803	810.31
774.985	638.28
775.168	775.5
775.35	709.96
775.532	693.58
775.715	718.15
775.897	675.15
776.079	611.66
776.261	748.87
776.444	605.52
776.626	660.81
776.808	650.57
776.99	626
777.173	689.48
777.355	599.37
777.537	587.08
777.719	630.09
777.901	599.37
778.083	531.79
778.265	511.31
778.447	617.8
778.629	527.69
778.811	562.51
778.993	642.38
779.175	589.13
779.357	513.36
779.539	611.66
779.721	521.55
779.903	617.8
780.085	572.75
780.267	574.8
780.449	554.32
780.631	578.89
780.812	531.79
780.994	494.93
781.176	464.21
781.358	525.65
781.54	564.56
781.721	572.75
781.903	515.41
782.085	490.83
782.267	513.36
782.448	453.97
782.63	468.3
782.812	562.51
782.993	568.65
783.175	535.89
783.357	474.45
783.538	544.08
783.72	492.88
783.901	521.55
784.083	413.01
784.264	472.4
784.446	453.97
784.627	421.2
784.809	402.77
784.99	501.07
785.172	458.06
785.353	365.9
785.535	507.21
785.716	367.95
785.897	464.21
786.079	419.15
786.26	380.24
786.441	437.58
786.623	441.68
786.804	353.62
786.985	367.95
787.167	392.53
787.348	372.05
787.529	333.14
787.71	460.11
787.891	429.39
788.073	384.34
788.254	357.71
788.435	365.9
788.616	345.42
788.797	228.69
788.978	349.52
789.159	406.86
789.34	314.7
789.522	320.85
789.703	316.75
789.884	273.75
790.065	306.51
790.246	388.43
790.427	365.9
790.607	419.15
790.788	359.76
790.969	255.31
791.15	298.32
791.331	365.9
791.512	263.51
791.693	367.95
791.874	290.13
792.054	324.94
792.235	275.79
792.416	255.31
792.597	357.71
792.778	249.17
792.958	329.04
793.139	355.66
793.32	306.51
793.5	329.04
793.681	286.03
793.862	318.8
794.042	253.27
794.223	247.12
794.404	226.64
794.584	234.83
794.765	275.79
794.945	273.75
795.126	255.31
795.306	238.93
795.487	224.59
795.667	294.22
795.848	322.9
796.028	298.32
796.209	294.22
796.389	292.18
796.57	265.55
796.75	286.03
796.93	218.45
797.111	232.79
797.291	212.31
797.471	220.5
797.652	273.75
797.832	193.87
798.012	265.55
798.192	177.49
798.373	249.17
798.553	232.79
798.733	212.31
798.913	73.04
799.093	234.83
799.274	159.06
799.454	240.98
799.634	257.36
799.814	226.64
799.994	253.27
800.174	230.74
800.354	224.59
800.534	263.51
800.714	294.22
800.894	206.16
801.074	251.22
801.254	214.35
801.434	249.17
801.614	306.51
801.794	161.11
801.974	568.65
802.154	224.59
802.334	247.12
802.514	202.07
802.693	152.91
802.873	230.74
803.053	204.11
803.233	288.08
803.413	177.49
803.592	232.79
803.772	183.63
803.952	150.87
804.131	165.2
804.311	253.27
804.491	245.07
804.67	214.35
804.85	116.05
805.03	181.59
805.209	259.41
805.389	195.92
805.568	228.69
805.748	159.06
805.928	191.83
806.107	177.49
806.287	218.45
806.466	179.54
806.646	191.83
806.825	189.78
807.004	167.25
807.184	232.79
807.363	204.11
807.543	136.53
807.722	111.96
807.901	208.21
808.081	189.78
808.26	167.25
808.439	152.91
808.619	136.53
808.798	144.72
808.977	157.01
809.156	216.4
809.336	114
809.515	212.31
809.694	154.96
809.873	183.63
810.052	193.87
810.231	101.72
810.411	148.82
810.59	197.97
810.769	134.48
810.948	58.71
811.127	152.91
811.306	130.39
811.485	181.59
811.664	157.01
811.843	138.58
812.022	169.3
812.201	152.91
812.38	193.87
812.559	144.72
812.737	189.78
812.916	122.2
813.095	118.1
813.274	245.07
813.453	124.24
813.632	126.29
813.811	132.44
813.989	93.52
814.168	146.77
814.347	132.44
814.526	126.29
814.704	159.06
814.883	111.96
815.062	132.44
815.24	169.3
815.419	152.91
815.598	146.77
815.776	68.95
815.955	93.52
816.133	111.96
816.312	62.8
816.49	136.53
816.669	132.44
816.847	126.29
817.026	157.01
817.204	144.72
817.383	126.29
817.561	136.53
817.74	107.86
817.918	124.24
818.097	97.62
818.275	124.24
818.453	154.96
818.632	107.86
818.81	75.09
818.988	85.33
819.167	130.39
819.345	68.95
819.523	114
819.701	56.66
819.879	64.85
820.058	32.08
820.236	177.49
820.414	62.8
820.592	71
820.77	40.28
820.948	89.43
821.127	66.9
821.305	75.09
821.483	64.85
821.661	146.77
821.839	103.76
822.017	79.19
822.195	71
822.373	83.28
822.551	83.28
822.729	93.52
822.907	85.33
823.085	83.28
823.262	118.1
823.44	126.29
823.618	64.85
823.796	75.09
823.974	64.85
824.152	111.96
824.329	44.37
824.507	136.53
824.685	52.56
824.863	95.57
825.04	66.9
825.218	179.54
825.396	15.7
825.574	103.76
825.751	79.19
825.929	91.48
826.107	116.05
826.284	75.09
826.462	85.33
826.639	1.37
826.817	40.28
826.994	77.14
827.172	5.46
827.349	208.21
827.527	83.28
827.704	30.04
827.882	58.71
828.059	83.28
828.237	-10.92
828.414	89.43
828.591	111.96
828.769	95.57
828.946	-2.73
829.124	85.33
829.301	128.34
829.478	126.29
829.655	68.95
829.833	48.47
830.01	36.18
830.187	68.95
830.364	46.42
830.542	169.3
830.719	66.9
830.896	95.57
831.073	165.2
831.25	44.37
831.427	77.14
831.604	36.18
831.782	122.2
831.959	64.85
832.136	83.28
832.313	83.28
832.49	13.65
832.667	85.33
832.844	87.38
833.021	48.47
833.198	128.34
833.374	81.24
833.551	44.37
833.728	85.33
833.905	77.14
834.082	91.48
834.259	48.47
834.436	122.2
834.612	95.57
834.789	103.76
834.966	46.42
835.143	40.28
835.319	-27.31
835.496	89.43
835.673	77.14
835.85	1.37
836.026	42.32
836.203	66.9
836.38	36.18
836.556	-45.74
836.733	27.99
836.909	93.52
837.086	83.28
837.262	58.71
837.439	21.84
837.616	89.43
837.792	93.52
837.968	87.38
838.145	-17.07
838.321	77.14
838.498	-8.87
838.674	87.38
838.851	109.91
839.027	77.14
839.203	95.57
839.38	21.84
839.556	13.65
839.732	50.52
839.909	56.66
840.085	77.14
840.261	-12.97
840.437	17.75
840.614	-10.92
840.79	50.52
840.966	105.81
841.142	77.14
841.318	68.95
841.494	27.99
841.671	134.48
841.847	34.13
842.023	56.66
842.199	122.2
842.375	101.72
842.551	118.1
842.727	36.18
842.903	68.95
843.079	30.04
843.255	15.7
843.431	-10.92
843.607	73.04
843.783	-12.97
843.959	167.25
844.134	-43.69
844.31	116.05
844.486	25.94
844.662	30.04
844.838	-58.03
845.013	52.56
845.189	81.24
845.365	46.42
845.541	17.75
845.716	48.47
845.892	-8.87
846.068	-45.74
846.244	-12.97
846.419	40.28
846.595	-2.73
846.77	52.56
846.946	130.39
847.122	19.8
847.297	-27.31
847.473	36.18
847.648	44.37
847.824	48.47
847.999	-45.74
848.175	95.57
848.35	42.32
848.526	52.56
848.701	50.52
848.876	13.65
849.052	48.47
849.227	50.52
849.403	-19.11
849.578	83.28
849.753	50.52
849.929	58.71
850.104	-21.16
850.279	52.56
850.454	87.38
850.63	1.37
850.805	40.28
850.98	23.89
851.155	42.32
851.33	-0.68
851.505	-27.31
851.681	13.65
851.856	-53.93
852.031	-60.07
852.206	-4.78
852.381	71
852.556	62.8
852.731	44.37
852.906	-43.69
853.081	52.56
853.256	-21.16
853.431	-0.68
853.606	64.85
853.781	48.47
853.956	-31.4
854.131	34.13
854.305	11.61
854.48	-37.55
854.655	11.61
854.83	30.04
855.005	46.42
855.18	64.85
855.354	17.75
855.529	5.46
855.704	-8.87
855.879	13.65
856.053	-15.02
856.228	13.65
856.403	32.08
856.577	44.37
856.752	-64.17
856.926	48.47
857.101	1.37
857.276	25.94
857.45	-6.83
857.625	5.46
857.799	5.46
857.974	7.51
858.148	-29.35
858.323	116.05
858.497	42.32
858.672	77.14
858.846	19.8
859.02	40.28
859.195	52.56
859.369	-12.97
859.543	-35.5
859.718	-4.78
859.892	-92.84
860.066	3.41
860.241	34.13
860.415	7.51
860.589	5.46
860.763	44.37
860.938	-0.68
861.112	-21.16
861.286	-10.92
861.46	68.95
861.634	-0.68
861.808	21.84
861.982	-82.6
862.157	27.99
862.331	3.41
862.505	-12.97
862.679	64.85
862.853	-45.74
863.027	32.08
863.201	157.01
863.375	-43.69
863.549	-10.92
863.722	21.84
863.896	52.56
864.07	7.51
864.244	9.56
864.418	-15.02
864.592	-21.16
864.766	23.89
864.939	54.61
865.113	-72.36
865.287	-10.92
865.461	23.89
865.634	-10.92
865.808	5.46
865.982	11.61
866.156	-41.64
866.329	27.99
866.503	-19.11
866.676	36.18
866.85	32.08
867.024	19.8
867.197	1.37
867.371	-21.16
867.544	-8.87
867.718	-43.69
867.891	68.95
868.065	-8.87
868.238	38.23
868.412	87.38
868.585	23.89
868.759	-29.35
868.932	-27.31
869.105	-55.98
869.279	30.04
869.452	-33.45
869.625	-2.73
869.799	62.8
869.972	-49.83
870.145	50.52
870.319	-19.11
870.492	25.94
870.665	-51.88
870.838	-15.02
871.011	-51.88
871.185	-35.5
871.358	-17.07
871.531	9.56
871.704	50.52
871.877	-49.83
872.05	-49.83
872.223	-70.31
872.396	9.56
872.569	27.99
872.742	-8.87
872.915	5.46
873.088	34.13
873.261	-27.31
873.434	25.94
873.607	64.85
873.78	-10.92
873.953	-27.31
874.126	-51.88
874.299	19.8
874.471	-49.83
874.644	-62.12
874.817	-2.73
874.99	52.56
875.163	7.51
875.335	34.13
875.508	-15.02
875.681	64.85
875.853	-58.03
876.026	-6.83
876.199	-43.69
876.371	23.89
876.544	40.28
876.717	44.37
876.889	-29.35
877.062	-6.83
877.234	-51.88
877.407	27.99
877.579	-31.4
877.752	1.37
877.924	17.75
878.097	-33.45
878.269	-33.45
878.442	-8.87
878.614	-6.83
878.786	58.71
878.959	-68.27
879.131	23.89
879.303	-49.83
879.476	-29.35
879.648	-10.92
879.82	-0.68
879.993	-21.16
880.165	-45.74
880.337	-23.21
880.509	-15.02
880.681	17.75
880.854	-82.6
881.026	66.9
881.198	32.08
881.37	30.04
881.542	-39.59
881.714	-23.21
881.886	44.37
882.058	89.43
882.23	-10.92
882.402	-41.64
882.574	30.04
882.746	32.08
882.918	-15.02
883.09	-37.55
883.262	21.84
883.434	-15.02
883.606	11.61
883.778	-45.74
883.95	75.09
884.122	1.37
884.293	23.89
884.465	-8.87
884.637	73.04
884.809	3.41
884.98	25.94
885.152	40.28
885.324	-8.87
885.496	15.7
885.667	-25.26
885.839	-15.02
886.011	-0.68
886.182	19.8
886.354	-25.26
886.525	-33.45
886.697	-25.26
886.869	-64.17
887.04	38.23
887.212	-19.11
887.383	83.28
887.555	-51.88
887.726	-19.11
887.897	-8.87
888.069	5.46
888.24	-19.11
888.412	50.52
888.583	-72.36
888.754	40.28
888.926	30.04
889.097	7.51
889.268	-78.51
889.44	9.56
889.611	-4.78
889.782	-51.88
889.953	30.04
890.125	23.89
890.296	-15.02
890.467	19.8
890.638	-74.41
890.809	25.94
890.98	-6.83
891.151	66.9
891.323	9.56
891.494	-6.83
891.665	-25.26
891.836	34.13
892.007	44.37
892.178	50.52
892.349	-45.74
892.52	1.37
892.691	21.84
892.862	-43.69
893.032	-70.31
893.203	58.71
893.374	-29.35
893.545	-37.55
893.716	-33.45
893.887	27.99
894.057	-17.07
894.228	-21.16
894.399	-72.36
894.57	77.14
894.74	-80.55
894.911	44.37
895.082	-2.73
895.253	-21.16
895.423	-88.75
895.594	46.42
895.764	-2.73
895.935	13.65
896.106	13.65
896.276	-43.69
896.447	23.89
896.617	13.65
896.788	-31.4
896.958	3.41
897.129	-37.55
897.299	-2.73
897.47	38.23
897.64	21.84
897.81	-19.11
897.981	-39.59
898.151	-60.07
898.322	17.75
898.492	52.56
898.662	-33.45
898.832	3.41
899.003	-17.07
899.173	-2.73
899.343	11.61
899.513	-4.78
