Data from USB4F104151__82__12-02-15-845.txt Node

Date: Fri Mar 14 12:02:15 EDT 2025
User: louis
Spectrometer: USB4F10415
Trigger mode: 4
Integration Time (sec): 2.000000E-2
Scans to average: 1
Electric dark correction enabled: true
Nonlinearity correction enabled: false
Boxcar width: 0
XAxis mode: Wavelengths
Number of Pixels in Spectrum: 3648
>>>>>Begin Spectral Data<<<<<
178.204	-96.6
178.424	-96.6
178.644	-96.6
178.864	-57.68
179.084	-31.06
179.304	1.71
179.524	36.52
179.744	-94.55
179.964	38.57
180.184	20.14
180.404	3.75
180.624	11.95
180.844	-16.73
181.064	-24.92
181.283	18.09
181.503	-16.73
181.723	22.19
181.943	7.85
182.163	85.67
182.383	32.43
182.602	-14.68
182.822	-2.39
183.042	52.91
183.262	-24.92
183.482	38.57
183.701	11.95
183.921	34.47
184.141	26.28
184.361	95.91
184.58	50.86
184.8	87.72
185.02	50.86
185.239	34.47
185.459	9.9
185.679	44.71
185.898	13.99
186.118	116.39
186.338	40.62
186.557	63.15
186.777	44.71
186.997	18.09
187.216	-26.96
187.436	34.47
187.655	9.9
187.875	38.57
188.095	24.23
188.314	91.82
188.534	89.77
188.753	30.38
188.973	30.38
189.192	118.44
189.412	-31.06
189.631	32.43
189.851	32.43
190.07	122.54
190.29	-6.49
190.509	24.23
190.729	28.33
190.948	-8.53
191.168	118.44
191.387	77.48
191.607	-6.49
191.826	3.75
192.045	-18.77
192.265	36.52
192.484	87.72
192.704	36.52
192.923	-12.63
193.142	81.58
193.362	36.52
193.581	91.82
193.8	61.1
194.02	61.1
194.239	20.14
194.458	-10.58
194.678	1.71
194.897	-12.63
195.116	11.95
195.335	83.63
195.555	28.33
195.774	42.67
195.993	7.85
196.212	9.9
196.432	16.04
196.651	81.58
196.87	69.29
197.089	30.38
197.308	18.09
197.528	46.76
197.747	40.62
197.966	13.99
198.185	114.34
198.404	48.81
198.623	-8.53
198.842	40.62
199.062	50.86
199.281	28.33
199.5	83.63
199.719	42.67
199.938	46.76
200.157	69.29
200.376	73.39
200.595	30.38
200.814	89.77
201.033	26.28
201.252	83.63
201.471	28.33
201.69	63.15
201.909	104.11
202.128	69.29
202.347	44.71
202.566	-2.39
202.785	11.95
203.004	-4.44
203.223	40.62
203.442	16.04
203.661	44.71
203.879	91.82
204.098	-26.96
204.317	20.14
204.536	122.54
204.755	-2.39
204.974	32.43
205.193	16.04
205.411	118.44
205.63	67.24
205.849	75.43
206.068	30.38
206.287	-0.34
206.505	38.57
206.724	44.71
206.943	59.05
207.162	61.1
207.381	65.19
207.599	67.24
207.818	65.19
208.037	-49.49
208.255	48.81
208.474	95.91
208.693	18.09
208.911	26.28
209.13	73.39
209.349	-14.68
209.567	40.62
209.786	36.52
210.005	-2.39
210.223	24.23
210.442	48.81
210.661	44.71
210.879	-20.82
211.098	28.33
211.316	73.39
211.535	44.71
211.753	50.86
211.972	-12.63
212.191	46.76
212.409	13.99
212.628	102.06
212.846	22.19
213.065	143.02
213.283	79.53
213.502	24.23
213.72	42.67
213.938	11.95
214.157	69.29
214.375	28.33
214.594	13.99
214.812	100.01
215.031	81.58
215.249	36.52
215.467	13.99
215.686	-69.97
215.904	32.43
216.122	11.95
216.341	100.01
216.559	46.76
216.778	73.39
216.996	18.09
217.214	18.09
217.432	34.47
217.651	61.1
217.869	73.39
218.087	24.23
218.306	67.24
218.524	77.48
218.742	-4.44
218.96	34.47
219.179	67.24
219.397	83.63
219.615	48.81
219.833	71.34
220.051	65.19
220.27	22.19
220.488	24.23
220.706	124.58
220.924	32.43
221.142	20.14
221.36	57
221.578	28.33
221.796	16.04
222.015	30.38
222.233	-6.49
222.451	40.62
222.669	-22.87
222.887	91.82
223.105	-2.39
223.323	46.76
223.541	5.8
223.759	50.86
223.977	-12.63
224.195	18.09
224.413	36.52
224.631	95.91
224.849	26.28
225.067	69.29
225.285	77.48
225.503	30.38
225.721	20.14
225.939	44.71
226.157	79.53
226.375	67.24
226.592	42.67
226.81	22.19
227.028	73.39
227.246	108.2
227.464	-10.58
227.682	77.48
227.9	24.23
228.117	-8.53
228.335	13.99
228.553	59.05
228.771	5.8
228.989	97.96
229.206	-78.16
229.424	-10.58
229.642	54.95
229.86	7.85
230.077	57
230.295	52.91
230.513	63.15
230.731	-8.53
230.948	71.34
231.166	59.05
231.384	65.19
231.601	63.15
231.819	54.95
232.037	102.06
232.254	75.43
232.472	5.8
232.689	32.43
232.907	18.09
233.125	7.85
233.342	28.33
233.56	3.75
233.777	16.04
233.995	57
234.213	79.53
234.43	52.91
234.648	-2.39
234.865	97.96
235.083	38.57
235.3	32.43
235.518	13.99
235.735	71.34
235.953	52.91
236.17	28.33
236.388	54.95
236.605	36.52
236.822	52.91
237.04	61.1
237.257	1.71
237.475	16.04
237.692	5.8
237.909	83.63
238.127	32.43
238.344	26.28
238.562	54.95
238.779	20.14
238.996	73.39
239.214	104.11
239.431	50.86
239.648	24.23
239.865	97.96
240.083	110.25
240.3	69.29
240.517	75.43
240.735	-16.73
240.952	102.06
241.169	124.58
241.386	44.71
241.603	77.48
241.821	42.67
242.038	67.24
242.255	57
242.472	30.38
242.689	81.58
242.907	57
243.124	69.29
243.341	5.8
243.558	-29.01
243.775	20.14
243.992	89.77
244.209	128.68
244.426	5.8
244.643	42.67
244.86	59.05
245.078	7.85
245.295	61.1
245.512	-2.39
245.729	34.47
245.946	34.47
246.163	44.71
246.38	85.67
246.597	1.71
246.814	-8.53
247.031	59.05
247.248	91.82
247.464	-2.39
247.681	38.57
247.898	71.34
248.115	36.52
248.332	118.44
248.549	26.28
248.766	108.2
248.983	54.95
249.2	85.67
249.417	69.29
249.633	22.19
249.85	36.52
250.067	18.09
250.284	52.91
250.501	3.75
250.717	28.33
250.934	11.95
251.151	-12.63
251.368	73.39
251.585	59.05
251.801	81.58
252.018	83.63
252.235	114.34
252.451	42.67
252.668	93.87
252.885	32.43
253.102	44.71
253.318	124.58
253.535	91.82
253.752	-8.53
253.968	-14.68
254.185	-14.68
254.401	54.95
254.618	112.3
254.835	20.14
255.051	89.77
255.268	85.67
255.484	59.05
255.701	75.43
255.917	32.43
256.134	81.58
256.351	69.29
256.567	79.53
256.784	52.91
257	24.23
257.217	75.43
257.433	75.43
257.65	71.34
257.866	13.99
258.082	59.05
258.299	44.71
258.515	40.62
258.732	26.28
258.948	1.71
259.165	24.23
259.381	122.54
259.597	40.62
259.814	-72.02
260.03	-63.83
260.246	71.34
260.463	91.82
260.679	-16.73
260.895	22.19
261.112	9.9
261.328	38.57
261.544	20.14
261.761	73.39
261.977	1.71
262.193	61.1
262.409	5.8
262.626	65.19
262.842	120.49
263.058	20.14
263.274	104.11
263.49	75.43
263.707	11.95
263.923	44.71
264.139	-20.82
264.355	13.99
264.571	22.19
264.787	85.67
265.004	57
265.22	3.75
265.436	95.91
265.652	16.04
265.868	91.82
266.084	48.81
266.3	18.09
266.516	32.43
266.732	95.91
266.948	52.91
267.164	52.91
267.38	79.53
267.596	124.58
267.812	134.82
268.028	44.71
268.244	1.71
268.46	44.71
268.676	73.39
268.892	11.95
269.108	34.47
269.324	42.67
269.54	22.19
269.756	77.48
269.972	7.85
270.188	93.87
270.403	3.75
270.619	85.67
270.835	79.53
271.051	5.8
271.267	87.72
271.483	26.28
271.698	61.1
271.914	48.81
272.13	26.28
272.346	132.78
272.562	20.14
272.777	40.62
272.993	34.47
273.209	79.53
273.425	7.85
273.64	20.14
273.856	-0.34
274.072	-6.49
274.287	102.06
274.503	54.95
274.719	5.8
274.934	71.34
275.15	7.85
275.366	59.05
275.581	5.8
275.797	32.43
276.012	116.39
276.228	46.76
276.444	48.81
276.659	124.58
276.875	38.57
277.09	95.91
277.306	26.28
277.521	91.82
277.737	40.62
277.952	120.49
278.168	50.86
278.383	122.54
278.599	30.38
278.814	71.34
279.03	22.19
279.245	-0.34
279.461	46.76
279.676	-22.87
279.892	-31.06
280.107	69.29
280.322	-59.73
280.538	22.19
280.753	57
280.969	42.67
281.184	42.67
281.399	116.39
281.615	-0.34
281.83	71.34
282.045	3.75
282.26	44.71
282.476	22.19
282.691	44.71
282.906	24.23
283.122	42.67
283.337	32.43
283.552	44.71
283.767	-26.96
283.983	100.01
284.198	38.57
284.413	-24.92
284.628	1.71
284.843	85.67
285.058	89.77
285.274	63.15
285.489	57
285.704	93.87
285.919	50.86
286.134	30.38
286.349	87.72
286.564	73.39
286.779	52.91
286.995	71.34
287.21	-12.63
287.425	48.81
287.64	22.19
287.855	48.81
288.07	38.57
288.285	102.06
288.5	26.28
288.715	38.57
288.93	-35.16
289.145	30.38
289.36	42.67
289.575	36.52
289.79	87.72
290.004	100.01
290.219	5.8
290.434	79.53
290.649	63.15
290.864	59.05
291.079	3.75
291.294	34.47
291.509	79.53
291.724	24.23
291.938	38.57
292.153	69.29
292.368	97.96
292.583	75.43
292.798	114.34
293.012	95.91
293.227	79.53
293.442	106.15
293.657	81.58
293.871	97.96
294.086	38.57
294.301	42.67
294.516	38.57
294.73	91.82
294.945	-2.39
295.16	11.95
295.374	63.15
295.589	116.39
295.804	54.95
296.018	81.58
296.233	81.58
296.447	97.96
296.662	22.19
296.877	54.95
297.091	79.53
297.306	30.38
297.52	38.57
297.735	48.81
297.949	73.39
298.164	32.43
298.378	79.53
298.593	11.95
298.807	69.29
299.022	57
299.236	63.15
299.451	110.25
299.665	38.57
299.88	59.05
300.094	48.81
300.309	81.58
300.523	18.09
300.737	38.57
300.952	46.76
301.166	89.77
301.381	30.38
301.595	24.23
301.809	50.86
302.024	75.43
302.238	46.76
302.452	36.52
302.667	9.9
302.881	71.34
303.095	30.38
303.309	116.39
303.524	116.39
303.738	48.81
303.952	52.91
304.166	112.3
304.381	-4.44
304.595	36.52
304.809	95.91
305.023	24.23
305.237	40.62
305.452	24.23
305.666	65.19
305.88	110.25
306.094	54.95
306.308	85.67
306.522	5.8
306.736	48.81
306.95	-24.92
307.164	120.49
307.379	46.76
307.593	93.87
307.807	114.34
308.021	83.63
308.235	42.67
308.449	-47.44
308.663	11.95
308.877	124.58
309.091	112.3
309.305	42.67
309.519	75.43
309.733	126.63
309.947	-20.82
310.161	30.38
310.374	114.34
310.588	22.19
310.802	46.76
311.016	61.1
311.23	79.53
311.444	71.34
311.658	57
311.872	79.53
312.085	-6.49
312.299	157.35
312.513	87.72
312.727	9.9
312.941	7.85
313.154	120.49
313.368	18.09
313.582	77.48
313.796	38.57
314.009	71.34
314.223	1.71
314.437	7.85
314.651	110.25
314.864	59.05
315.078	11.95
315.292	28.33
315.505	44.71
315.719	26.28
315.933	32.43
316.146	22.19
316.36	67.24
316.573	126.63
316.787	61.1
317.001	71.34
317.214	-35.16
317.428	93.87
317.641	89.77
317.855	59.05
318.068	83.63
318.282	50.86
318.495	120.49
318.709	57
318.922	18.09
319.136	50.86
319.349	93.87
319.563	9.9
319.776	57
319.99	13.99
320.203	52.91
320.417	52.91
320.63	24.23
320.843	83.63
321.057	50.86
321.27	46.76
321.483	73.39
321.697	46.76
321.91	87.72
322.124	44.71
322.337	9.9
322.55	59.05
322.763	61.1
322.977	34.47
323.19	67.24
323.403	138.92
323.617	85.67
323.83	75.43
324.043	67.24
324.256	81.58
324.469	20.14
324.683	59.05
324.896	77.48
325.109	79.53
325.322	106.15
325.535	104.11
325.748	151.21
325.962	18.09
326.175	71.34
326.388	75.43
326.601	30.38
326.814	24.23
327.027	77.48
327.24	93.87
327.453	54.95
327.666	102.06
327.879	108.2
328.092	30.38
328.305	42.67
328.518	26.28
328.731	16.04
328.944	36.52
329.157	44.71
329.37	26.28
329.583	102.06
329.796	100.01
330.009	36.52
330.222	42.67
330.435	5.8
330.648	36.52
330.861	57
331.073	61.1
331.286	63.15
331.499	1.71
331.712	73.39
331.925	34.47
332.138	50.86
332.35	77.48
332.563	52.91
332.776	71.34
332.989	59.05
333.202	59.05
333.414	-2.39
333.627	73.39
333.84	67.24
334.053	38.57
334.265	9.9
334.478	22.19
334.691	67.24
334.903	24.23
335.116	-24.92
335.329	116.39
335.541	-10.58
335.754	67.24
335.966	32.43
336.179	54.95
336.392	40.62
336.604	13.99
336.817	36.52
337.029	67.24
337.242	44.71
337.454	100.01
337.667	9.9
337.88	89.77
338.092	85.67
338.305	5.8
338.517	36.52
338.729	118.44
338.942	61.1
339.154	57
339.367	20.14
339.579	116.39
339.792	42.67
340.004	143.02
340.217	104.11
340.429	85.67
340.641	61.1
340.854	28.33
341.066	22.19
341.278	173.74
341.491	122.54
341.703	126.63
341.915	-26.96
342.128	120.49
342.34	57
342.552	104.11
342.764	9.9
342.977	7.85
343.189	81.58
343.401	106.15
343.613	13.99
343.826	24.23
344.038	7.85
344.25	30.38
344.462	38.57
344.674	120.49
344.886	97.96
345.099	-8.53
345.311	50.86
345.523	77.48
345.735	87.72
345.947	126.63
346.159	83.63
346.371	30.38
346.583	65.19
346.795	20.14
347.007	50.86
347.219	50.86
347.431	85.67
347.643	95.91
347.855	57
348.067	42.67
348.279	-18.77
348.491	65.19
348.703	73.39
348.915	130.73
349.127	122.54
349.339	102.06
349.551	-18.77
349.763	18.09
349.975	18.09
350.187	52.91
350.399	48.81
350.61	93.87
350.822	118.44
351.034	26.28
351.246	36.52
351.458	81.58
351.669	46.76
351.881	149.16
352.093	106.15
352.305	71.34
352.517	112.3
352.728	9.9
352.94	36.52
353.152	11.95
353.363	100.01
353.575	-24.92
353.787	75.43
353.999	52.91
354.21	114.34
354.422	93.87
354.633	-14.68
354.845	57
355.057	42.67
355.268	-14.68
355.48	77.48
355.692	95.91
355.903	38.57
356.115	40.62
356.326	93.87
356.538	30.38
356.749	97.96
356.961	132.78
357.172	38.57
357.384	16.04
357.595	79.53
357.807	34.47
358.018	38.57
358.23	44.71
358.441	54.95
358.653	85.67
358.864	134.82
359.075	26.28
359.287	81.58
359.498	97.96
359.709	61.1
359.921	79.53
360.132	75.43
360.344	83.63
360.555	9.9
360.766	85.67
360.977	40.62
361.189	114.34
361.4	85.67
361.611	122.54
361.823	83.63
362.034	100.01
362.245	24.23
362.456	83.63
362.667	91.82
362.879	38.57
363.09	79.53
363.301	83.63
363.512	85.67
363.723	112.3
363.935	104.11
364.146	44.71
364.357	44.71
364.568	22.19
364.779	83.63
364.99	136.87
365.201	32.43
365.412	134.82
365.623	11.95
365.834	67.24
366.045	5.8
366.256	122.54
366.467	87.72
366.678	-16.73
366.889	71.34
367.1	108.2
367.311	50.86
367.522	20.14
367.733	108.2
367.944	93.87
368.155	91.82
368.366	77.48
368.577	20.14
368.788	114.34
368.999	69.29
369.209	89.77
369.42	124.58
369.631	204.46
369.842	102.06
370.053	130.73
370.264	132.78
370.474	132.78
370.685	102.06
370.896	85.67
371.107	81.58
371.317	75.43
371.528	77.48
371.739	91.82
371.95	71.34
372.16	71.34
372.371	-10.58
372.582	-33.11
372.792	40.62
373.003	200.36
373.214	153.26
373.424	44.71
373.635	34.47
373.846	108.2
374.056	30.38
374.267	110.25
374.477	75.43
374.688	22.19
374.898	93.87
375.109	-31.06
375.319	69.29
375.53	48.81
375.74	26.28
375.951	75.43
376.161	118.44
376.372	108.2
376.582	108.2
376.793	114.34
377.003	100.01
377.214	89.77
377.424	32.43
377.635	79.53
377.845	42.67
378.055	93.87
378.266	65.19
378.476	40.62
378.686	26.28
378.897	114.34
379.107	97.96
379.317	57
379.528	59.05
379.738	116.39
379.948	63.15
380.158	83.63
380.369	106.15
380.579	114.34
380.789	118.44
380.999	87.72
381.21	122.54
381.42	134.82
381.63	57
381.84	65.19
382.05	169.64
382.261	89.77
382.471	-8.53
382.681	87.72
382.891	130.73
383.101	120.49
383.311	24.23
383.521	97.96
383.731	118.44
383.941	75.43
384.151	77.48
384.361	100.01
384.571	75.43
384.781	110.25
384.991	73.39
385.201	100.01
385.411	38.57
385.621	40.62
385.831	93.87
386.041	61.1
386.251	65.19
386.461	61.1
386.671	59.05
386.881	118.44
387.091	120.49
387.301	153.26
387.511	132.78
387.72	77.48
387.93	140.97
388.14	69.29
388.35	48.81
388.56	100.01
388.769	126.63
388.979	112.3
389.189	18.09
389.399	13.99
389.609	83.63
389.818	97.96
390.028	100.01
390.238	93.87
390.447	91.82
390.657	48.81
390.867	87.72
391.076	69.29
391.286	89.77
391.496	63.15
391.705	136.87
391.915	147.11
392.125	106.15
392.334	122.54
392.544	85.67
392.753	118.44
392.963	126.63
393.172	102.06
393.382	73.39
393.591	118.44
393.801	73.39
394.01	114.34
394.22	79.53
394.429	151.21
394.639	108.2
394.848	134.82
395.058	71.34
395.267	149.16
395.477	157.35
395.686	122.54
395.895	177.83
396.105	155.3
396.314	108.2
396.524	134.82
396.733	124.58
396.942	102.06
397.152	149.16
397.361	95.91
397.57	104.11
397.78	126.63
397.989	81.58
398.198	145.06
398.407	91.82
398.617	190.12
398.826	183.98
399.035	155.3
399.244	124.58
399.453	132.78
399.663	169.64
399.872	173.74
400.081	163.5
400.29	220.84
400.499	171.69
400.708	239.27
400.917	179.88
401.127	134.82
401.336	112.3
401.545	206.5
401.754	249.51
401.963	179.88
402.172	136.87
402.381	143.02
402.59	173.74
402.799	200.36
403.008	208.55
403.217	175.78
403.426	247.46
403.635	181.93
403.844	179.88
404.053	196.26
404.262	147.11
404.471	177.83
404.68	265.89
404.888	175.78
405.097	218.79
405.306	255.65
405.515	206.5
405.724	247.46
405.933	229.03
406.142	286.37
406.35	308.9
406.559	235.18
406.768	231.08
406.977	245.41
407.185	304.81
407.394	310.95
407.603	239.27
407.812	313
408.02	333.48
408.229	294.57
408.438	325.29
408.646	249.51
408.855	351.91
409.064	429.73
409.272	380.58
409.481	419.49
409.69	480.93
409.898	317.09
410.107	480.93
410.315	454.31
410.524	538.27
410.733	493.22
410.941	476.84
411.15	540.32
411.358	474.79
411.567	566.95
411.775	556.71
411.984	593.57
412.192	562.85
412.401	671.39
412.609	646.82
412.818	661.15
413.026	732.83
413.234	683.68
413.443	667.3
413.651	736.93
413.86	781.98
414.068	847.52
414.276	947.87
414.485	880.29
414.693	960.16
414.901	1044.12
415.11	990.88
415.318	1013.4
415.526	1025.69
415.734	1074.84
415.943	1117.85
416.151	1095.32
416.359	1121.95
416.567	1224.34
416.776	1324.69
416.984	1318.55
417.192	1355.41
417.4	1410.71
417.608	1400.47
417.817	1572.5
418.025	1562.26
418.233	1711.76
418.441	1687.18
418.649	1621.65
418.857	1889.93
419.065	1820.3
419.273	1824.4
419.481	1982.09
419.689	2021
419.897	2174.6
420.105	2215.56
420.313	2113.16
420.521	2363.01
420.729	2373.25
420.937	2563.72
421.145	2604.67
421.353	2725.51
421.561	2795.14
421.769	2864.77
421.977	2995.84
422.185	2924.16
422.393	3055.23
422.601	3372.66
422.809	3343.99
423.017	3364.47
423.224	3559.03
423.432	3518.07
423.64	3624.56
423.848	3985.01
424.056	3913.33
424.263	4216.43
424.471	4232.81
424.679	4298.35
424.887	4580.96
425.094	4517.48
425.302	4769.38
425.51	4744.8
425.718	5054.05
425.925	5049.95
426.133	5207.64
426.341	5496.41
426.548	5629.52
426.756	5844.56
426.964	5826.13
427.171	6086.22
427.379	6323.79
427.586	6338.12
427.794	6688.32
428.001	6889.03
428.209	7372.35
428.417	7042.62
428.624	7573.05
428.832	7718.45
429.039	7605.81
429.247	7495.22
429.454	8189.49
429.662	9016.87
429.869	8140.33
430.076	8969.76
430.284	8580.65
430.491	9057.82
430.699	9696.79
430.906	9565.72
431.114	9651.74
431.321	9895.44
431.528	10155.54
431.736	10800.65
431.943	11265.53
432.15	10944
432.358	11243.01
432.565	11582.97
432.772	11822.58
432.979	12221.94
433.187	12508.65
433.394	12529.13
433.601	13430.24
433.808	13477.34
434.016	13409.76
434.223	14018
434.43	14808.52
434.637	14472.65
434.844	15359.42
435.052	15826.36
435.259	15558.08
435.466	15707.58
435.673	15752.63
435.88	16700.84
436.087	17378.72
436.294	17573.28
436.501	16911.78
436.708	17491.36
436.915	17755.55
437.122	18730.38
437.329	18580.88
437.537	19248.52
437.743	19699.07
437.95	19512.7
438.157	20499.83
438.364	21144.94
438.571	21063.02
438.778	21120.36
438.985	23301.45
439.192	22375.77
439.399	23176.52
439.606	22482.26
439.813	23588.16
440.02	25156.91
440.227	24833.33
440.433	24413.49
440.64	25240.87
440.847	25017.64
441.054	25341.22
441.261	27366.67
441.467	27165.96
441.674	27618.57
441.881	28734.71
442.088	28357.88
442.294	28361.98
442.501	29170.93
442.708	29580.52
442.914	30465.24
443.121	31976.64
443.328	31241.42
443.534	33572.01
443.741	32357.56
443.948	32134.34
444.154	34593.95
444.361	34002.08
444.568	34106.53
444.774	34391.2
444.981	34632.86
445.187	35529.87
445.394	37338.22
445.6	36850.81
445.807	40012.87
446.013	38411.36
446.22	39373.91
446.426	40469.57
446.633	41274.42
446.839	42290.21
447.046	40526.91
447.252	43152.41
447.459	43162.65
447.665	42845.21
447.871	44575.75
448.078	46517.22
448.284	44258.31
448.491	45396.98
448.697	46836.7
448.903	47780.82
449.11	47889.36
449.316	47109.08
449.522	48341.96
449.728	48692.16
449.935	49658.8
450.141	49720.24
450.347	50641.83
450.553	49177.53
450.76	49226.68
450.966	51092.38
451.172	50641.83
451.378	51332
451.584	50611.11
451.791	51805.08
451.997	52114.32
452.203	52179.85
452.409	52274.06
452.615	51934.1
452.821	50377.64
453.027	49710
453.233	52333.45
453.44	50484.14
453.646	51090.34
453.852	51139.49
454.058	51737.49
454.264	50496.42
454.47	51393.43
454.676	49961.9
454.882	51575.7
455.088	47559.64
455.294	48153.55
455.5	49048.51
455.705	48878.53
455.911	47043.55
456.117	46154.73
456.323	45661.17
456.529	43475.99
456.735	45198.33
456.941	44061.71
457.147	43058.2
457.352	41767.98
457.558	41487.41
457.764	41450.55
457.97	40559.68
458.176	39947.34
458.381	39615.57
458.587	37882.98
458.793	37944.42
458.999	35902.6
459.204	38777.95
459.41	37762.15
459.616	35140.75
459.821	34653.34
460.027	34923.67
460.233	34192.54
460.438	32464.06
460.644	33057.97
460.85	31376.59
461.055	30682.33
461.261	30891.22
461.466	28497.14
461.672	27602.18
461.878	29510.89
462.083	27458.82
462.289	27327.75
462.494	26791.19
462.7	25634.08
462.905	25115.95
463.111	25941.28
463.316	26025.25
463.522	25300.26
463.727	25275.69
463.932	25294.12
464.138	25183.53
464.343	25281.83
464.549	24290.62
464.754	25271.59
464.959	24849.71
465.165	24792.37
465.37	23790.91
465.575	23270.73
465.781	24317.24
465.986	24147.26
466.191	23229.77
466.397	22707.54
466.602	22025.56
466.807	22521.17
467.012	22750.54
467.218	22752.59
467.423	22248.79
467.628	22328.66
467.833	23180.62
468.038	22455.64
468.244	21908.83
468.449	22459.73
468.654	21859.68
468.859	21865.82
469.064	21562.72
469.269	20876.65
469.474	21073.26
469.679	21208.42
469.885	20688.24
470.09	21142.89
470.295	20862.32
470.5	20434.29
470.705	20710.77
470.91	20012.41
471.115	19944.83
471.32	20229.49
471.525	20049.27
471.73	19600.77
471.935	19336.58
472.139	18664.85
472.344	19015.05
472.549	19119.49
472.754	18664.85
472.959	18576.78
473.164	17954.2
473.369	17737.12
473.574	18349.46
473.778	18120.09
473.983	18021.78
474.188	18181.53
474.393	16952.74
474.598	17485.22
474.802	16829.87
475.007	16868.78
475.212	16932.26
475.417	16178.61
475.621	16276.91
475.826	16625.07
476.031	16033.21
476.235	15775.16
476.44	16014.77
476.645	15654.33
476.849	15742.39
477.054	15406.53
477.259	15265.22
477.463	15050.18
477.668	15111.62
477.872	15123.91
478.077	14622.16
478.282	14407.12
478.486	14370.26
478.691	14450.13
478.895	14214.61
479.1	14167.51
479.304	14185.94
479.509	13719
479.713	13962.71
479.918	13549.02
480.122	13524.44
480.326	13573.6
480.531	13735.39
480.735	13510.11
480.94	13622.75
481.144	13782.49
481.348	13409.76
481.553	13518.3
481.757	13225.44
481.961	13233.63
482.166	13262.3
482.37	13219.3
482.574	12860.9
482.778	13164
482.983	13274.59
483.187	13211.11
483.391	13346.27
483.595	12996.07
483.8	12967.4
484.004	13182.43
484.208	13123.04
484.412	13190.63
484.616	13012.45
484.821	13065.7
485.025	12895.72
485.229	13307.36
485.433	13118.95
485.637	13186.53
485.841	13075.94
486.045	12946.92
486.249	13037.03
486.453	13239.78
486.657	13143.52
486.861	13057.51
487.065	12723.69
487.269	13245.92
487.473	12795.37
487.677	12957.16
487.881	13241.82
488.085	13008.36
488.289	13116.9
488.493	13071.84
488.697	13155.81
488.901	13125.09
489.105	13080.04
489.309	13196.77
489.512	13116.9
489.716	13370.85
489.92	13237.73
490.124	13270.5
490.328	13473.25
490.531	13055.46
490.735	13428.19
490.939	13512.16
491.143	13118.95
491.346	13596.12
491.55	13682.14
491.754	13460.96
491.958	13880.79
492.161	13458.91
492.365	13530.59
492.569	13811.16
492.772	13737.43
492.976	13886.93
493.18	14087.64
493.383	14185.94
493.587	14052.82
493.79	14423.5
493.994	14200.27
494.197	14247.38
494.401	14378.45
494.605	14638.54
494.808	14474.7
495.012	14923.21
495.215	14765.51
495.419	14773.71
495.622	14781.9
495.825	15160.77
496.029	15044.04
496.232	15500.73
496.436	15259.07
496.639	15769.02
496.843	15740.35
497.046	16143.8
497.249	16086.45
497.453	16350.64
497.656	16565.68
497.859	16680.36
498.063	16737.71
498.266	16981.42
498.469	16965.03
498.673	17071.53
498.876	17520.03
499.079	17485.22
499.282	17610.14
499.485	17870.23
499.689	18124.18
499.892	18417.04
500.095	18384.27
500.298	18949.51
500.501	18754.96
500.705	19340.68
500.908	19453.31
501.111	19742.08
501.314	19692.93
501.517	19815.8
501.72	20204.92
501.923	19838.33
502.126	20659.57
502.329	20786.54
502.532	20927.85
502.735	21259.62
502.938	21409.12
503.141	21677.41
503.344	21878.11
503.547	21966.17
503.75	22439.25
503.953	22768.98
504.156	22746.45
504.359	22861.13
504.562	23178.57
504.765	23512.39
504.968	23797.06
505.17	24124.73
505.373	24186.17
505.576	24583.48
505.779	24481.08
505.982	24519.99
506.185	25453.86
506.387	25726.24
506.59	25672.99
506.793	26023.2
506.996	25830.69
507.198	26633.49
507.401	26799.38
507.604	26897.68
507.807	27512.07
508.009	27632.9
508.212	27872.51
508.415	28095.74
508.617	28495.1
508.82	28122.37
509.022	28501.24
509.225	29234.41
509.428	29615.33
509.63	29959.39
509.833	29783.27
510.035	30631.13
510.238	30473.43
510.44	30588.12
510.643	31210.7
510.845	31417.55
511.048	31249.61
511.25	32076.99
511.453	32060.61
511.655	32937.14
511.858	32736.44
512.06	32740.54
512.262	33320.11
512.465	33596.59
512.667	33881.25
512.87	34542.75
513.072	34157.73
513.274	34987.16
513.477	35089.56
513.679	35368.08
513.881	35961.99
514.084	36430.97
514.286	36299.9
514.488	36449.41
514.69	37823.59
514.893	37266.55
515.095	37203.06
515.297	38114.41
515.499	38245.48
515.701	38507.62
515.904	38888.54
516.106	38696.03
516.308	39068.76
516.51	39570.51
516.712	40176.71
516.914	40342.6
517.116	41129.02
517.318	40905.79
517.52	41061.43
517.722	40989.75
517.925	41858.09
518.127	42460.19
518.329	42619.94
518.531	42251.3
518.733	43621.39
518.935	43387.92
519.136	43412.5
519.338	44373
519.54	44360.71
519.742	44700.67
519.944	44936.19
520.146	45616.11
520.348	45347.83
520.55	45972.46
520.752	46199.79
520.954	46844.9
521.155	46447.59
521.357	47100.89
521.559	47295.45
521.761	48182.22
521.963	47834.06
522.164	48161.74
522.366	48618.44
522.568	48788.42
522.77	48831.43
522.971	49324.99
523.173	49138.62
523.375	49570.74
523.576	49619.89
523.778	49806.26
523.98	50359.21
524.181	50109.36
524.383	50633.64
524.584	51364.76
524.786	51032.99
524.988	51028.9
525.189	51850.13
525.391	52249.49
525.592	51909.52
525.794	52179.85
525.995	51934.1
526.197	52444.04
526.398	52204.43
526.6	52882.31
526.801	52827.01
527.003	53230.46
527.204	53320.57
527.406	53519.23
527.607	53562.23
527.808	53584.76
528.01	52700.04
528.211	53447.55
528.412	54477.68
528.614	53926.77
528.815	54043.51
529.016	54676.33
529.218	53971.83
529.419	54166.38
529.62	54539.11
529.822	54147.95
530.023	54666.09
530.224	54543.21
530.425	54565.74
530.626	54408.04
530.828	54188.91
531.029	55044.96
531.23	54872.93
531.431	54688.62
531.632	54917.99
531.833	55012.2
532.035	54889.32
532.236	54829.93
532.437	55235.42
532.638	55026.53
532.839	55030.63
533.04	55407.45
533.241	54864.74
533.442	55501.66
533.643	55298.91
533.844	54834.02
534.045	55173.98
534.246	54956.9
534.447	55649.11
534.648	55149.41
534.849	55075.68
535.05	54635.37
535.251	55092.07
535.451	54778.73
535.652	55313.25
535.853	55096.16
536.054	54985.57
536.255	55126.88
536.456	54469.48
536.657	55522.14
536.857	55305.05
537.058	54584.17
537.259	55026.53
537.46	55075.68
537.66	54674.28
537.861	55077.73
538.062	55116.64
538.263	55141.22
538.463	54629.23
538.664	54643.56
538.865	54848.36
539.065	54969.19
539.266	54494.06
539.466	54924.13
539.667	54068.08
539.868	55112.55
540.068	54477.68
540.269	54756.2
540.469	54657.9
540.67	54590.31
540.87	54702.95
541.071	54553.45
541.271	54406
541.472	54272.88
541.672	54201.2
541.873	54229.87
542.073	53939.06
542.274	54668.14
542.474	53650.3
542.675	54072.18
542.875	54313.84
543.075	54231.92
543.276	53695.35
543.476	54502.25
543.676	53531.51
543.877	54709.1
544.077	54082.42
544.277	53967.73
544.478	54096.75
544.678	54231.92
544.878	53873.52
545.078	54096.75
545.279	53879.67
545.479	53212.03
545.679	53900.15
545.879	53717.88
546.079	53748.6
546.28	53681.02
546.48	53169.02
546.68	53420.92
546.88	53953.4
547.08	53478.27
547.28	53334.91
547.48	52824.96
547.68	53652.34
547.88	52745.09
548.081	53631.86
548.281	53470.07
548.481	53029.76
548.681	53879.67
548.881	53095.3
549.081	53007.23
549.28	53134.21
549.48	53019.52
549.68	52697.99
549.88	53660.54
550.08	52851.59
550.28	53181.31
550.48	53083.01
550.68	53545.85
550.88	52734.85
551.08	52962.18
551.279	52896.64
551.479	52759.43
551.679	52994.95
551.879	52261.77
552.079	53017.47
552.278	52741
552.478	52478.86
552.678	52337.55
552.878	53203.84
553.077	52716.42
553.277	52663.18
553.477	53134.21
553.676	52394.89
553.876	52601.74
554.076	52315.02
554.275	52237.2
554.475	51635.09
554.674	52276.11
554.874	52716.42
555.074	52050.83
555.273	52386.7
555.473	52462.47
555.672	51987.35
555.872	51577.75
556.071	51852.18
556.271	52093.84
556.47	51518.36
556.67	51336.09
556.869	51563.42
557.068	51788.69
557.268	51565.46
557.467	51633.05
557.667	51573.66
557.866	51686.29
558.065	51243.93
558.265	51405.72
558.464	50787.24
558.663	51610.52
558.863	51149.73
559.062	51493.78
559.261	50934.69
559.461	51694.49
559.66	50731.94
559.859	50893.73
560.058	50512.81
560.258	50750.37
560.457	50351.02
560.656	50914.21
560.855	50488.23
561.054	50901.92
561.253	50107.31
561.453	50527.14
561.652	50717.6
561.851	50400.17
562.05	49843.12
562.249	50357.16
562.448	50213.8
562.647	50121.65
562.846	50033.58
563.045	50017.2
563.244	49310.65
563.443	50158.51
563.642	49236.92
563.841	49806.26
564.04	49236.92
564.239	49744.82
564.438	49472.44
564.637	49497.02
564.836	49632.18
565.035	48991.17
565.234	49259.45
565.432	49157.05
565.631	49050.56
565.83	49390.52
566.029	48812.99
566.228	48544.71
566.427	48569.29
566.625	48618.44
566.824	47989.71
567.023	48493.51
567.222	48028.62
567.42	48356.3
567.619	48008.14
567.818	48227.27
568.016	47850.45
568.215	48217.03
568.414	47903.7
568.612	48501.7
568.811	47358.94
569.01	47461.33
569.208	46965.73
569.407	47399.9
569.605	47236.06
569.804	48010.19
570.002	47016.93
570.201	47250.39
570.4	46844.9
570.598	46765.03
570.797	46691.3
570.995	46482.41
571.193	45650.93
571.392	46611.43
571.59	46074.86
571.789	46343.14
571.987	46459.88
572.186	46580.71
572.384	46230.51
572.582	46195.69
572.781	46054.38
572.979	45192.19
573.177	45814.77
573.376	45722.61
573.574	45646.83
573.772	45575.16
573.971	45067.26
574.169	45093.88
574.367	44891.13
574.565	45091.83
574.763	44692.48
574.962	44663.81
575.16	44426.24
575.358	44598.27
575.556	44127.24
575.754	44524.55
575.952	43781.13
576.151	44012.56
576.349	43605.01
576.547	43725.84
576.745	43656.21
576.943	43955.21
577.141	43648.02
577.339	43813.9
577.537	43136.02
577.735	43133.98
577.933	42806.3
578.131	43115.54
578.329	43050.01
578.527	42777.63
578.725	42923.04
578.923	42767.39
579.121	42562.59
579.319	42357.8
579.516	42777.63
579.714	42255.4
579.912	42437.67
580.11	42112.04
580.308	42263.59
580.506	42079.27
580.704	41135.16
580.901	41948.2
581.099	42101.8
581.297	41276.47
581.495	41147.45
581.692	41495.6
581.89	41016.38
582.088	41305.14
582.285	40746.04
582.483	41161.78
582.681	41106.49
582.878	40680.51
583.076	40361.03
583.274	41202.74
583.471	39894.09
583.669	40207.43
583.866	40096.84
584.064	40338.5
584.262	39599.18
584.459	40201.29
584.657	39394.39
584.854	40043.59
585.052	39183.44
585.249	39883.85
585.447	39466.06
585.644	39011.42
585.841	39079
586.039	39236.69
586.236	38954.07
586.434	38874.2
586.631	38689.88
586.828	38607.97
587.026	38894.68
587.223	38581.34
587.42	38192.23
587.618	38462.56
587.815	37753.96
588.012	37835.88
588.21	37770.35
588.407	38169.7
588.604	37512.3
588.801	37143.67
588.999	37940.33
589.196	37237.87
589.393	37250.16
589.59	37262.45
589.787	37303.41
589.984	36856.95
590.182	36662.4
590.379	36736.12
590.576	36584.57
590.773	36365.44
590.97	36369.54
591.167	36738.17
591.364	36035.72
591.561	36279.43
591.758	35968.13
591.955	35812.49
592.152	36215.94
592.349	35654.79
592.546	35822.73
592.743	36062.34
592.94	35218.58
593.137	35284.11
593.334	35431.57
593.531	35069.08
593.727	35263.63
593.924	35148.95
594.121	34624.67
594.318	34720.92
594.515	34176.16
594.712	34948.25
594.908	34624.67
595.105	34573.47
595.302	34210.98
595.499	34008.23
595.696	33907.88
595.892	33731.75
596.089	34018.47
596.286	34063.52
596.482	33705.13
596.679	33756.33
596.876	33402.03
597.072	33662.12
597.269	33574.06
597.466	32924.85
597.662	33367.21
597.859	32941.24
598.055	32996.53
598.252	32400.57
598.448	32953.52
598.645	32621.75
598.841	32261.31
599.038	32666.81
599.234	32298.17
599.431	31896.77
599.627	32072.9
599.824	31902.92
600.02	31653.06
600.217	32117.95
600.413	31880.39
600.609	31673.54
600.806	31345.87
601.002	31814.85
601.198	31182.03
601.395	31132.88
601.591	30985.43
601.787	31139.02
601.984	30651.61
602.18	31134.93
602.376	30651.61
602.572	30837.97
602.769	30434.52
602.965	30487.77
603.161	30315.74
603.357	30342.36
603.553	30010.59
603.75	30360.8
603.946	29977.83
604.142	30362.84
604.338	29553.9
604.534	29975.78
604.73	29287.66
604.926	29562.09
605.122	29664.49
605.318	29297.9
605.514	28955.89
605.71	29215.98
605.906	29101.29
606.102	29289.71
606.298	28542.2
606.494	29062.38
606.69	28681.46
606.886	29218.03
607.082	28232.96
607.278	28689.65
607.474	28531.96
607.67	28224.76
607.866	28159.23
608.062	28779.76
608.257	28394.75
608.453	28116.22
608.649	28130.56
608.845	27997.44
609.041	27827.46
609.236	27858.18
609.432	27788.55
609.628	27901.18
609.824	27849.99
610.019	27657.48
610.215	27426.06
610.411	27788.55
610.606	27573.51
610.802	27600.13
610.998	27307.27
611.193	27749.64
611.389	27260.17
611.584	26932.5
611.78	27073.81
611.976	26971.41
612.171	27102.48
612.367	27518.21
612.562	27233.55
612.758	26629.4
612.953	26694.93
613.149	26875.15
613.344	26613.01
613.539	26946.83
613.735	26799.38
613.93	26465.56
614.126	26518.81
614.321	26817.81
614.517	26481.94
614.712	26590.48
614.907	26105.12
615.103	26477.85
615.298	26129.69
615.493	26527
615.688	25955.61
615.884	26522.9
616.079	25734.43
616.274	25910.56
616.47	25838.88
616.665	26043.68
616.86	25883.94
617.055	25529.64
617.25	25564.45
617.445	25808.16
617.641	25197.87
617.836	25933.09
618.031	25226.54
618.226	25316.65
618.421	25343.27
618.616	25644.32
618.811	24964.4
619.006	25232.68
619.201	24780.08
619.396	24810.8
619.591	24624.43
619.786	25029.93
619.981	24218.94
620.176	24767.79
620.371	24433.97
620.566	24356.15
620.761	24151.35
620.956	24431.93
621.151	23799.1
621.346	24163.64
621.541	23573.83
621.735	23913.79
621.93	23344.45
622.125	23915.84
622.32	23270.73
622.515	23141.71
622.709	22963.53
622.904	23061.83
623.099	22898
623.294	23018.83
623.488	22768.98
623.683	22785.36
623.878	22308.18
624.072	22406.48
624.267	22250.84
624.462	22295.89
624.656	21931.36
624.851	22117.72
625.046	21753.18
625.24	21697.89
625.435	21855.58
625.629	21433.7
625.824	21079.4
626.018	21157.22
626.213	20702.57
626.407	21028.2
626.602	20786.54
626.796	20782.45
626.991	20893.04
627.185	20475.25
627.38	20667.76
627.574	20241.78
627.768	20063.61
627.963	19864.96
628.157	19774.84
628.352	20045.18
628.546	19365.25
628.74	19918.2
628.935	19621.25
629.129	19348.87
629.323	19420.55
629.517	19322.24
629.712	19293.57
629.906	18836.88
630.1	18705.81
630.294	18945.42
630.489	18732.43
630.683	18642.32
630.877	18355.6
631.071	18404.75
631.265	18601.36
631.459	18218.39
631.653	18251.16
631.848	17792.41
632.042	17855.9
632.236	17839.51
632.43	17819.03
632.624	17810.84
632.818	17712.54
633.012	17522.08
633.206	17149.35
633.4	17499.55
633.594	17286.56
633.788	17372.58
633.982	17296.8
634.176	17044.9
634.369	16874.92
634.563	16809.39
634.757	16893.35
634.951	16930.22
635.145	16530.86
635.339	16405.94
635.533	16262.58
635.726	16432.56
635.92	16215.48
636.114	16057.78
636.308	16047.54
636.501	16086.45
636.695	15959.48
636.889	15816.12
637.083	15828.41
637.276	15711.67
637.47	15506.88
637.664	15633.85
637.857	15412.67
638.051	15457.73
638.244	15228.35
638.438	15035.85
638.632	15271.36
638.825	14927.3
639.019	14915.02
639.212	14812.62
639.406	14863.82
639.599	14720.46
639.793	14691.79
639.986	14558.67
640.18	14360.02
640.373	14659.02
640.567	14388.69
640.76	14448.08
640.954	14101.97
641.147	14071.25
641.34	13958.61
641.534	14028.24
641.727	13903.32
641.92	13843.93
642.114	13917.65
642.307	13573.6
642.5	13407.71
642.694	13456.86
642.887	13223.39
643.08	13540.83
643.273	13110.75
643.467	13237.73
643.66	13243.87
643.853	12981.73
644.046	12869.09
644.239	12928.49
644.432	12766.7
644.626	12789.22
644.819	12756.46
645.012	12750.31
645.205	12615.15
645.398	12430.83
645.591	12486.12
645.784	12512.75
645.977	12391.92
646.17	12295.66
646.363	12303.85
646.556	12066.29
646.749	11957.75
646.942	12119.54
647.135	11910.64
647.328	11980.28
647.521	11939.32
647.714	11714.04
647.907	11830.77
648.099	11744.76
648.292	11632.12
648.485	11763.19
648.678	11447.8
648.871	11369.98
649.064	11296.25
649.256	11728.38
649.449	11134.46
649.642	11136.51
649.835	11142.66
650.027	10890.76
650.22	10898.95
650.413	10628.62
650.605	10780.17
650.798	10868.23
650.991	10604.04
651.183	10622.47
651.376	10499.59
651.568	10649.1
651.761	10475.02
651.954	10186.26
652.146	10362.38
652.339	10319.37
652.531	10454.54
652.724	10481.16
652.916	10167.82
653.109	10114.58
653.301	10069.52
653.494	10130.96
653.686	9977.36
653.879	10055.19
654.071	9870.87
654.263	9819.67
654.456	9895.44
654.648	10102.29
654.84	9526.81
655.033	9766.42
655.225	9547.29
655.417	9639.45
655.61	9322.01
655.802	9596.44
655.994	9463.32
656.186	9428.51
656.379	9248.29
656.571	9379.36
656.763	9244.19
656.955	9270.81
657.148	9096.74
657.34	9111.07
657.532	8928.8
657.724	9129.5
657.916	8943.14
658.108	8988.19
658.3	9041.44
658.492	8832.55
658.684	8701.48
658.876	8609.32
659.068	8525.35
659.26	8588.84
659.452	8674.85
659.644	8568.36
659.836	8461.87
660.028	8486.44
660.22	8359.47
660.412	8508.97
660.604	8320.56
660.796	8433.19
660.988	7999.02
661.18	8242.73
661.372	8224.3
661.563	8113.71
661.755	7978.54
661.947	7986.74
662.139	7935.54
662.331	8050.22
662.522	7812.66
662.714	7814.71
662.906	7853.62
663.097	7820.85
663.289	7675.45
663.481	7677.49
663.673	7661.11
663.864	7505.46
664.056	7519.8
664.247	7495.22
664.439	7349.82
664.631	7591.48
664.822	7423.55
665.014	7276.09
665.205	7259.71
665.397	7243.32
665.588	7204.41
665.78	7329.34
665.971	7042.62
666.163	7136.83
666.354	7073.34
666.546	7376.44
666.737	7179.84
666.929	6921.79
667.12	7106.11
667.311	6850.11
667.503	7061.05
667.694	6901.31
667.885	6817.35
668.077	6950.46
668.268	6770.24
668.459	6747.72
668.651	6782.53
668.842	6712.9
669.033	6739.52
669.224	6780.48
669.416	6725.19
669.607	6465.1
669.798	6458.95
669.989	6604.36
670.18	6598.21
670.371	6504.01
670.563	6108.75
670.754	6420.04
670.945	6352.46
671.136	6266.44
671.327	6233.68
671.518	6207.05
671.709	6188.62
671.9	6295.11
672.091	6211.15
672.282	6243.92
672.473	6215.24
672.664	6129.23
672.855	6016.59
673.046	6086.22
673.237	6147.66
673.428	6125.13
673.619	6032.97
673.809	5906
674	5869.14
674.191	6045.26
674.382	5846.61
674.573	5944.91
674.764	5789.27
674.954	5877.33
675.145	5813.84
675.336	5576.28
675.527	5754.45
675.717	5725.78
675.908	5676.63
676.099	5750.35
676.289	5598.81
676.48	5740.12
676.671	5652.05
676.861	5684.82
677.052	5410.39
677.243	5600.85
677.433	5674.58
677.624	5500.5
677.814	5506.65
678.005	5623.38
678.195	5396.06
678.386	5547.61
678.576	5416.54
678.767	5473.88
678.957	5359.19
679.148	5244.51
679.338	5291.61
679.529	5379.67
679.719	5293.66
679.909	5369.43
680.1	5340.76
680.29	5334.62
680.481	5246.55
680.671	5254.75
680.861	5181.02
681.052	5289.56
681.242	5092.96
681.432	5211.74
681.622	5105.24
681.813	5076.57
682.003	5013.09
682.193	5021.28
682.383	4988.51
682.573	5088.86
682.764	5004.89
682.954	4961.89
683.144	4986.46
683.334	4914.78
683.524	4953.7
683.714	4892.26
683.904	4949.6
684.094	4900.45
684.284	4949.6
684.474	4810.34
684.664	4787.81
684.854	4867.68
685.044	4793.95
685.234	4740.71
685.424	4843.1
685.614	4681.32
685.804	4666.98
685.994	4759.14
686.184	4761.19
686.374	4773.47
686.564	4630.12
686.753	4572.77
686.943	4441.7
687.133	4556.39
687.323	4636.26
687.513	4572.77
687.702	4505.19
687.892	4456.04
688.082	4568.68
688.272	4560.49
688.461	4474.47
688.651	4376.17
688.841	4312.68
689.03	4484.71
689.22	4187.75
689.41	4458.09
689.599	4310.63
689.789	4296.3
689.979	4281.96
690.168	4249.19
690.358	4269.67
690.547	4312.68
690.737	4439.65
690.926	4152.94
691.116	4189.8
691.305	4187.75
691.495	4173.42
691.684	4025.97
691.874	4228.71
692.063	4185.71
692.252	4036.21
692.442	4124.27
692.631	3966.57
692.82	4124.27
693.01	4036.21
693.199	4099.69
693.388	3966.57
693.578	3929.71
693.767	4007.53
693.956	3976.81
694.146	3890.8
694.335	3901.04
694.524	4003.44
694.713	3999.34
694.902	3950.19
695.092	3866.22
695.281	3817.07
695.47	3884.66
695.659	3896.94
695.848	3794.54
696.037	3776.11
696.226	3810.93
696.415	3749.49
696.604	3784.3
696.793	3790.45
696.982	3886.7
697.171	3782.26
697.36	3692.15
697.549	3630.71
697.738	3610.23
697.927	3718.77
698.116	3673.71
698.305	3516.02
698.494	3683.95
698.683	3552.88
698.872	3737.2
699.061	3579.51
699.25	3530.36
699.438	3606.13
699.627	3636.85
699.816	3630.71
700.005	3614.32
700.193	3692.15
700.382	3587.7
700.571	3696.24
700.76	3579.51
700.948	3587.7
701.137	3632.76
701.326	3671.67
701.514	3456.63
701.703	3573.36
701.892	3444.34
702.08	3585.65
702.269	3567.22
702.457	3567.22
702.646	3544.69
702.834	3366.52
703.023	3552.88
703.212	3593.84
703.4	3571.32
703.589	3507.83
703.777	3491.45
703.965	3401.33
704.154	3413.62
704.342	3423.86
704.531	3401.33
704.719	3382.9
704.907	3556.98
705.096	3427.96
705.284	3446.39
705.472	3473.01
705.661	3294.84
705.849	3409.53
706.037	3411.57
706.226	3395.19
706.414	3425.91
706.602	3325.56
706.79	3331.7
706.979	3233.4
707.167	3323.51
707.355	3417.72
707.543	3362.42
707.731	3477.11
707.919	3241.59
708.107	3380.86
708.296	3333.75
708.484	3348.09
708.672	3343.99
708.86	3313.27
709.048	3198.59
709.236	3300.98
709.424	3192.44
709.612	3169.91
709.8	3317.37
709.988	3286.65
710.176	3305.08
710.364	3243.64
710.551	3272.31
710.739	3319.42
710.927	3114.62
711.115	3286.65
711.303	3149.43
711.491	3128.95
711.679	3245.69
711.866	3102.33
712.054	3104.38
712.242	3305.08
712.43	3090.04
712.617	3147.39
712.805	2975.36
712.993	3053.18
713.181	3198.59
713.368	3081.85
713.556	3255.93
713.744	3004.03
713.931	3255.93
714.119	3092.09
714.306	3221.11
714.494	3186.3
714.682	3028.6
714.869	3073.66
715.057	3085.95
715.244	2979.45
715.432	3065.47
715.619	3061.37
715.807	2852.48
715.994	3061.37
716.182	2969.21
716.369	3122.81
716.556	2946.69
716.744	3069.56
716.931	2911.87
717.119	2958.97
717.306	3024.51
717.493	2989.69
717.681	2897.53
717.868	2985.6
718.055	2909.82
718.242	2936.45
718.43	2975.36
718.617	2875.01
718.804	2954.88
718.991	2864.77
719.179	2981.5
719.366	2934.4
719.553	2901.63
719.74	2930.3
719.927	2887.29
720.114	2911.87
720.301	2895.49
720.488	2967.17
720.676	2817.66
720.863	2895.49
721.05	2936.45
721.237	2842.24
721.424	2852.48
721.611	2760.32
721.798	2756.22
721.985	2713.22
722.172	2717.31
722.358	2717.31
722.545	2823.81
722.732	2713.22
722.919	2729.6
723.106	2698.88
723.293	2745.98
723.48	2696.83
723.667	2705.03
723.853	2729.6
724.04	2684.55
724.227	2696.83
724.414	2625.15
724.6	2533
724.787	2641.54
724.974	2768.51
725.161	2702.98
725.347	2512.52
725.534	2680.45
725.72	2668.16
725.907	2643.59
726.094	2553.48
726.28	2621.06
726.467	2688.64
726.653	2657.92
726.84	2768.51
727.027	2782.85
727.213	2612.87
727.4	2647.68
727.586	2721.41
727.773	2557.57
727.959	2424.45
728.145	2567.81
728.332	2711.17
728.518	2610.82
728.705	2569.86
728.891	2535.04
729.077	2565.76
729.264	2530.95
729.45	2451.08
729.636	2524.8
729.823	2487.94
730.009	2557.57
730.195	2502.28
730.382	2483.84
730.568	2512.52
730.754	2625.15
730.94	2465.41
731.126	2479.75
731.313	2498.18
731.499	2367.11
731.685	2467.46
731.871	2408.07
732.057	2412.17
732.243	2453.13
732.429	2381.45
732.615	2440.84
732.801	2403.97
732.987	2373.25
733.173	2403.97
733.359	2387.59
733.545	2289.29
733.731	2399.88
733.917	2373.25
734.103	2383.49
734.289	2367.11
734.475	2342.53
734.661	2387.59
734.847	2350.73
735.033	2330.25
735.219	2383.49
735.404	2287.24
735.59	2274.95
735.776	2420.36
735.962	2346.63
736.148	2301.58
736.333	2391.69
736.519	2367.11
736.705	2338.44
736.89	2223.75
737.076	2281.1
737.262	2195.08
737.447	2188.94
737.633	2240.14
737.819	2242.18
738.004	2119.31
738.19	2254.47
738.375	2223.75
738.561	2219.66
738.747	2268.81
738.932	2127.5
739.118	2135.69
739.303	2109.07
739.489	2219.66
739.674	2158.22
739.859	2188.94
740.045	2064.01
740.23	2100.87
740.416	1928.85
740.601	2154.12
740.786	2115.21
740.972	2156.17
741.157	2156.17
741.342	1947.28
741.528	2064.01
741.713	2016.91
741.898	1939.09
742.084	2008.72
742.269	2047.63
742.454	2006.67
742.639	2139.79
742.824	2000.52
743.01	2076.3
743.195	2025.1
743.38	2057.87
743.565	2014.86
743.75	2037.39
743.935	1818.25
744.12	1992.33
744.305	1937.04
744.49	1867.41
744.675	1861.26
744.86	1846.93
745.045	1883.79
745.23	1875.6
745.415	1937.04
745.6	1971.85
745.785	1678.99
745.97	1803.92
746.155	1746.58
746.34	1861.26
746.525	1803.92
746.71	1781.39
746.895	1762.96
747.079	1799.82
747.264	1707.66
747.449	1834.64
747.634	1678.99
747.819	1740.43
748.003	1588.88
748.188	1592.98
748.373	1732.24
748.557	1631.89
748.742	1678.99
748.927	1668.75
749.111	1633.94
749.296	1545.88
749.481	1517.2
749.665	1644.18
749.85	1631.89
750.034	1613.46
750.219	1615.51
750.404	1603.22
750.588	1617.55
750.773	1463.96
750.957	1494.68
751.141	1556.11
751.326	1523.35
751.51	1588.88
751.695	1494.68
751.879	1533.59
752.064	1457.81
752.248	1517.2
752.432	1457.81
752.617	1377.94
752.801	1482.39
752.985	1455.76
753.17	1388.18
753.354	1371.8
753.538	1404.57
753.722	1349.27
753.907	1410.71
754.091	1359.51
754.275	1324.69
754.459	1336.98
754.643	1285.78
754.828	1414.81
755.012	1232.54
755.196	1242.78
755.38	1316.5
755.564	1187.48
755.748	1226.39
755.932	1259.16
756.116	1240.73
756.3	1296.02
756.484	1285.78
756.668	1220.25
756.852	1214.1
757.036	1265.3
757.22	1207.96
757.404	1218.2
757.588	1218.2
757.772	1234.58
757.956	1109.66
758.14	1099.42
758.323	1132.19
758.507	1062.55
758.691	1091.23
758.875	1144.47
759.059	1107.61
759.242	1072.79
759.426	1095.32
759.61	1076.89
759.794	1101.47
759.977	1123.99
760.161	1107.61
760.345	1138.33
760.528	1087.13
760.712	982.68
760.895	1066.65
761.079	1091.23
761.263	1064.6
761.446	951.96
761.63	1027.74
761.813	1040.03
761.997	956.06
762.18	917.15
762.364	1046.17
762.547	990.88
762.731	978.59
762.914	956.06
763.098	968.35
763.281	1042.07
763.464	945.82
763.648	1001.12
763.831	976.54
764.015	1048.22
764.198	915.1
764.381	1005.21
764.564	1048.22
764.748	933.53
764.931	894.62
765.114	894.62
765.297	1001.12
765.481	943.77
765.664	915.1
765.847	908.96
766.03	954.01
766.213	966.3
766.397	915.1
766.58	853.66
766.763	882.33
766.946	894.62
767.129	884.38
767.312	890.53
767.495	863.9
767.678	908.96
767.861	894.62
768.044	878.24
768.227	831.13
768.41	814.75
768.593	880.29
768.776	915.1
768.959	898.72
769.142	902.81
769.324	884.38
769.507	800.41
769.69	929.44
769.873	816.8
770.056	908.96
770.239	843.42
770.421	878.24
770.604	861.85
770.787	781.98
770.97	843.42
771.152	810.65
771.335	837.28
771.518	749.22
771.7	796.32
771.883	728.74
772.066	747.17
772.248	806.56
772.431	843.42
772.613	753.31
772.796	685.73
772.978	743.07
773.161	786.08
773.343	796.32
773.526	788.13
773.708	757.41
773.891	765.6
774.073	704.16
774.256	685.73
774.438	732.83
774.621	730.78
774.803	767.65
774.985	683.68
775.168	734.88
775.35	689.82
775.532	763.55
775.715	667.3
775.897	618.15
776.079	644.77
776.261	710.3
776.444	695.97
776.626	652.96
776.808	718.5
776.99	585.38
777.173	689.82
777.355	632.48
777.537	593.57
777.719	597.67
777.901	661.15
778.083	634.53
778.265	542.37
778.447	655.01
778.629	575.14
778.811	624.29
778.993	562.85
779.175	593.57
779.357	536.23
779.539	558.75
779.721	640.67
779.903	609.95
780.085	534.18
780.267	562.85
780.449	544.42
780.631	552.61
780.812	566.95
780.994	624.29
781.176	521.89
781.358	562.85
781.54	405.16
781.721	515.75
781.903	511.65
782.085	437.92
782.267	501.41
782.448	568.99
782.63	472.74
782.812	540.32
782.993	538.27
783.175	507.55
783.357	456.36
783.538	499.36
783.72	437.92
783.901	495.27
784.083	497.32
784.264	439.97
784.446	493.22
784.627	452.26
784.809	497.32
784.99	476.84
785.172	450.21
785.353	450.21
785.535	491.17
785.716	505.51
785.897	489.12
786.079	472.74
786.26	390.82
786.441	437.92
786.623	341.67
786.804	429.73
786.985	388.77
787.167	419.49
787.348	372.39
787.529	411.3
787.71	485.03
787.891	390.82
788.073	433.83
788.254	376.48
788.435	405.16
788.616	419.49
788.797	427.68
788.978	403.11
789.159	319.14
789.34	308.9
789.522	378.53
789.703	435.88
789.884	276.13
790.065	337.57
790.246	396.96
790.427	358.05
790.607	456.36
790.788	333.48
790.969	319.14
791.15	284.33
791.331	380.58
791.512	286.37
791.693	370.34
791.874	290.47
792.054	411.3
792.235	356.01
792.416	306.85
792.597	327.33
792.778	308.9
792.958	272.04
793.139	245.41
793.32	261.8
793.5	315.05
793.681	313
793.862	241.32
794.042	278.18
794.223	306.85
794.404	280.23
794.584	349.86
794.765	239.27
794.945	319.14
795.126	313
795.306	364.2
795.487	249.51
795.667	331.43
795.848	247.46
796.028	265.89
796.209	278.18
796.389	308.9
796.57	308.9
796.75	255.65
796.93	231.08
797.111	267.94
797.291	204.46
797.471	298.66
797.652	290.47
797.832	216.74
798.012	274.09
798.192	241.32
798.373	247.46
798.553	231.08
798.733	171.69
798.913	208.55
799.093	155.3
799.274	304.81
799.454	284.33
799.634	259.75
799.814	290.47
799.994	259.75
800.174	263.85
800.354	241.32
800.534	294.57
800.714	292.52
800.894	233.13
801.074	241.32
801.254	241.32
801.434	192.17
801.614	222.89
801.794	210.6
801.974	640.67
802.154	216.74
802.334	198.31
802.514	190.12
802.693	208.55
802.873	157.35
803.053	239.27
803.233	222.89
803.413	257.7
803.592	181.93
803.772	200.36
803.952	272.04
804.131	226.98
804.311	224.94
804.491	245.41
804.67	210.6
804.85	251.56
805.03	269.99
805.209	257.7
805.389	233.13
805.568	169.64
805.748	157.35
805.928	231.08
806.107	196.26
806.287	204.46
806.466	157.35
806.646	147.11
806.825	169.64
807.004	200.36
807.184	231.08
807.363	274.09
807.543	149.16
807.722	186.02
807.901	140.97
808.081	196.26
808.26	145.06
808.439	161.45
808.619	231.08
808.798	151.21
808.977	177.83
809.156	192.17
809.336	177.83
809.515	157.35
809.694	196.26
809.873	100.01
810.052	126.63
810.231	97.96
810.411	149.16
810.59	214.7
810.769	200.36
810.948	165.54
811.127	63.15
811.306	77.48
811.485	155.3
811.664	226.98
811.843	210.6
812.022	196.26
812.201	177.83
812.38	159.4
812.559	200.36
812.737	138.92
812.916	206.5
813.095	214.7
813.274	210.6
813.453	83.63
813.632	188.07
813.811	206.5
813.989	204.46
814.168	171.69
814.347	83.63
814.526	198.31
814.704	188.07
814.883	239.27
815.062	163.5
815.24	112.3
815.419	149.16
815.598	143.02
815.776	112.3
815.955	138.92
816.133	110.25
816.312	173.74
816.49	126.63
816.669	143.02
816.847	143.02
817.026	208.55
817.204	186.02
817.383	89.77
817.561	63.15
817.74	104.11
817.918	173.74
818.097	145.06
818.275	169.64
818.453	224.94
818.632	136.87
818.81	132.78
818.988	192.17
819.167	134.82
819.345	87.72
819.523	61.1
819.701	102.06
819.879	108.2
820.058	83.63
820.236	75.43
820.414	183.98
820.592	81.58
820.77	134.82
820.948	73.39
821.127	112.3
821.305	149.16
821.483	100.01
821.661	181.93
821.839	114.34
822.017	50.86
822.195	112.3
822.373	95.91
822.551	159.4
822.729	77.48
822.907	108.2
823.085	108.2
823.262	65.19
823.44	149.16
823.618	102.06
823.796	161.45
823.974	42.67
824.152	132.78
824.329	85.67
824.507	132.78
824.685	114.34
824.863	85.67
825.04	126.63
825.218	52.91
825.396	57
825.574	124.58
825.751	5.8
825.929	79.53
826.107	85.67
826.284	104.11
826.462	38.57
826.639	28.33
826.817	140.97
826.994	85.67
827.172	36.52
827.349	206.5
827.527	77.48
827.704	122.54
827.882	116.39
828.059	140.97
828.237	81.58
828.414	89.77
828.591	130.73
828.769	108.2
828.946	87.72
829.124	120.49
829.301	97.96
829.478	104.11
829.655	114.34
829.833	22.19
830.01	52.91
830.187	110.25
830.364	81.58
830.542	85.67
830.719	163.5
830.896	54.95
831.073	116.39
831.25	116.39
831.427	122.54
831.604	83.63
831.782	95.91
831.959	42.67
832.136	46.76
832.313	18.09
832.49	83.63
832.667	136.87
832.844	57
833.021	134.82
833.198	93.87
833.374	1.71
833.551	38.57
833.728	126.63
833.905	-4.44
834.082	69.29
834.259	54.95
834.436	155.3
834.612	-0.34
834.789	138.92
834.966	42.67
835.143	110.25
835.319	63.15
835.496	104.11
835.673	28.33
835.85	-4.44
836.026	48.81
836.203	73.39
836.38	26.28
836.556	50.86
836.733	77.48
836.909	71.34
837.086	48.81
837.262	52.91
837.439	83.63
837.616	81.58
837.792	36.52
837.968	9.9
838.145	28.33
838.321	71.34
838.498	79.53
838.674	122.54
838.851	32.43
839.027	136.87
839.203	26.28
839.38	13.99
839.556	87.72
839.732	87.72
839.909	28.33
840.085	171.69
840.261	32.43
840.437	97.96
840.614	79.53
840.79	71.34
840.966	100.01
841.142	89.77
841.318	-26.96
841.494	97.96
841.671	87.72
841.847	3.75
842.023	87.72
842.199	87.72
842.375	13.99
842.551	-31.06
842.727	79.53
842.903	97.96
843.079	7.85
843.255	50.86
843.431	108.2
843.607	143.02
843.783	26.28
843.959	52.91
844.134	52.91
844.31	147.11
844.486	118.44
844.662	24.23
844.838	73.39
845.013	57
845.189	95.91
845.365	32.43
845.541	77.48
845.716	7.85
845.892	50.86
846.068	71.34
846.244	-20.82
846.419	44.71
846.595	48.81
846.77	34.47
846.946	42.67
847.122	48.81
847.297	95.91
847.473	28.33
847.648	67.24
847.824	110.25
847.999	-45.4
848.175	20.14
848.35	7.85
848.526	-2.39
848.701	28.33
848.876	-18.77
849.052	122.54
849.227	77.48
849.403	54.95
849.578	34.47
849.753	81.58
849.929	11.95
850.104	-33.11
850.279	36.52
850.454	67.24
850.63	65.19
850.805	128.68
850.98	83.63
851.155	-2.39
851.33	83.63
851.505	24.23
851.681	65.19
851.856	13.99
852.031	91.82
852.206	7.85
852.381	-14.68
852.556	-10.58
852.731	97.96
852.906	16.04
853.081	22.19
853.256	108.2
853.431	34.47
853.606	22.19
853.781	71.34
853.956	59.05
854.131	89.77
854.305	128.68
854.48	71.34
854.655	-18.77
854.83	46.76
855.005	9.9
855.18	32.43
855.354	65.19
855.529	95.91
855.704	11.95
855.879	104.11
856.053	-45.4
856.228	61.1
856.403	30.38
856.577	46.76
856.752	44.71
856.926	34.47
857.101	48.81
857.276	26.28
857.45	46.76
857.625	85.67
857.799	38.57
857.974	18.09
858.148	9.9
858.323	18.09
858.497	26.28
858.672	13.99
858.846	13.99
859.02	52.91
859.195	26.28
859.369	26.28
859.543	44.71
859.718	59.05
859.892	-16.73
860.066	9.9
860.241	75.43
860.415	54.95
860.589	7.85
860.763	89.77
860.938	-20.82
861.112	13.99
861.286	50.86
861.46	77.48
861.634	36.52
861.808	118.44
861.982	3.75
862.157	67.24
862.331	-4.44
862.505	-8.53
862.679	-12.63
862.853	52.91
863.027	59.05
863.201	59.05
863.375	20.14
863.549	87.72
863.722	54.95
863.896	65.19
864.07	-12.63
864.244	3.75
864.418	48.81
864.592	20.14
864.766	46.76
864.939	16.04
865.113	-6.49
865.287	26.28
865.461	77.48
865.634	22.19
865.808	-16.73
865.982	28.33
866.156	-12.63
866.329	-4.44
866.503	42.67
866.676	22.19
866.85	-39.25
867.024	9.9
867.197	79.53
867.371	32.43
867.544	34.47
867.718	-33.11
867.891	26.28
868.065	-2.39
868.238	46.76
868.412	57
868.585	44.71
868.759	52.91
868.932	34.47
869.105	5.8
869.279	46.76
869.452	3.75
869.625	-22.87
869.799	20.14
869.972	-16.73
870.145	22.19
870.319	52.91
870.492	75.43
870.665	38.57
870.838	9.9
871.011	-20.82
871.185	-16.73
871.358	63.15
871.531	30.38
871.704	40.62
871.877	36.52
872.05	-22.87
872.223	38.57
872.396	73.39
872.569	63.15
872.742	-39.25
872.915	42.67
873.088	32.43
873.261	59.05
873.434	26.28
873.607	-14.68
873.78	13.99
873.953	20.14
874.126	59.05
874.299	13.99
874.471	71.34
874.644	-22.87
874.817	-14.68
874.99	30.38
875.163	3.75
875.335	13.99
875.508	44.71
875.681	79.53
875.853	36.52
876.026	13.99
876.199	-6.49
876.371	28.33
876.544	7.85
876.717	-41.3
876.889	-26.96
877.062	-18.77
877.234	-57.68
877.407	26.28
877.579	36.52
877.752	13.99
877.924	24.23
878.097	67.24
878.269	16.04
878.442	26.28
878.614	-57.68
878.786	32.43
878.959	20.14
879.131	42.67
879.303	3.75
879.476	20.14
879.648	28.33
879.82	26.28
879.993	-8.53
880.165	3.75
880.337	32.43
880.509	22.19
880.681	36.52
880.854	40.62
881.026	71.34
881.198	91.82
881.37	-61.78
881.542	54.95
881.714	50.86
881.886	9.9
882.058	-63.83
882.23	40.62
882.402	18.09
882.574	73.39
882.746	34.47
882.918	102.06
883.09	118.44
883.262	-4.44
883.434	-4.44
883.606	57
883.778	20.14
883.95	36.52
884.122	40.62
884.293	36.52
884.465	97.96
884.637	61.1
884.809	44.71
884.98	36.52
885.152	36.52
885.324	61.1
885.496	38.57
885.667	-39.25
885.839	20.14
886.011	120.49
886.182	1.71
886.354	65.19
886.525	-24.92
886.697	52.91
886.869	30.38
887.04	18.09
887.212	42.67
887.383	106.15
887.555	61.1
887.726	71.34
887.897	26.28
888.069	-10.58
888.24	18.09
888.412	40.62
888.583	28.33
888.754	-31.06
888.926	28.33
889.097	40.62
889.268	22.19
889.44	91.82
889.611	-0.34
889.782	32.43
889.953	50.86
890.125	36.52
890.296	-10.58
890.467	-29.01
890.638	-8.53
890.809	50.86
890.98	71.34
891.151	26.28
891.323	95.91
891.494	16.04
891.665	-55.64
891.836	-0.34
892.007	71.34
892.178	9.9
892.349	52.91
892.52	11.95
892.691	-29.01
892.862	57
893.032	26.28
893.203	-6.49
893.374	54.95
893.545	9.9
893.716	-39.25
893.887	-16.73
894.057	36.52
894.228	5.8
894.399	9.9
894.57	61.1
894.74	34.47
894.911	44.71
895.082	-24.92
895.253	81.58
895.423	18.09
895.594	-29.01
895.764	-10.58
895.935	104.11
896.106	-84.31
896.276	1.71
896.447	54.95
896.617	1.71
896.788	-31.06
896.958	-2.39
897.129	1.71
897.299	20.14
897.47	18.09
897.64	57
897.81	-4.44
897.981	40.62
898.151	5.8
898.322	63.15
898.492	-33.11
898.662	20.14
898.832	30.38
899.003	73.39
899.173	44.71
899.343	-4.44
899.513	-24.92
