Data from USB4F104151__42__12-00-54-570.txt Node

Date: Fri Mar 14 12:00:54 EDT 2025
User: louis
Spectrometer: USB4F10415
Trigger mode: 4
Integration Time (sec): 2.000000E-2
Scans to average: 1
Electric dark correction enabled: true
Nonlinearity correction enabled: false
Boxcar width: 0
XAxis mode: Wavelengths
Number of Pixels in Spectrum: 3648
>>>>>Begin Spectral Data<<<<<
178.204	-80.72
178.424	-80.72
178.644	-80.72
178.864	-25.43
179.084	-25.43
179.304	42.15
179.524	-0.85
179.744	-4.95
179.964	31.91
180.184	-25.43
180.404	44.2
180.624	-47.96
180.844	29.87
181.064	-54.1
181.283	29.87
181.503	-43.86
181.723	-0.85
181.943	-35.67
182.163	15.53
182.383	66.73
182.602	31.91
182.822	91.31
183.042	50.35
183.262	-4.95
183.482	-0.85
183.701	62.63
183.921	-25.43
184.141	7.34
184.361	-13.14
184.58	11.43
184.8	15.53
185.02	11.43
185.239	91.31
185.459	70.83
185.679	52.39
185.898	23.72
186.118	-31.57
186.338	79.02
186.557	58.54
186.777	25.77
186.997	-11.09
187.216	-15.19
187.436	60.59
187.655	11.43
187.875	54.44
188.095	33.96
188.314	48.3
188.534	-25.43
188.753	-0.85
188.973	44.2
189.192	25.77
189.412	-35.67
189.631	15.53
189.851	64.68
190.07	38.06
190.29	-15.19
190.509	19.63
190.729	50.35
190.948	60.59
191.168	117.93
191.387	79.02
191.607	9.39
191.826	1.19
192.045	52.39
192.265	5.29
192.484	-0.85
192.704	5.29
192.923	33.96
193.142	122.02
193.362	-31.57
193.581	79.02
193.8	-11.09
194.02	44.2
194.239	27.82
194.458	11.43
194.678	46.25
194.897	76.97
195.116	19.63
195.335	5.29
195.555	11.43
195.774	27.82
195.993	19.63
196.212	-43.86
196.432	5.29
196.651	-52.05
196.87	83.11
197.089	68.78
197.308	5.29
197.528	68.78
197.747	-19.29
197.966	46.25
198.185	58.54
198.404	15.53
198.623	58.54
198.842	9.39
199.062	52.39
199.281	66.73
199.5	38.06
199.719	-9.05
199.938	13.48
200.157	50.35
200.376	-17.24
200.595	64.68
200.814	38.06
201.033	70.83
201.252	33.96
201.471	48.3
201.69	17.58
201.909	7.34
202.128	-19.29
202.347	44.2
202.566	-64.34
202.785	5.29
203.004	31.91
203.223	42.15
203.442	-50
203.661	74.92
203.879	76.97
204.098	1.19
204.317	-15.19
204.536	1.19
204.755	36.01
204.974	46.25
205.193	72.87
205.411	103.59
205.63	21.67
205.849	72.87
206.068	40.11
206.287	3.24
206.505	54.44
206.724	46.25
206.943	-29.52
207.162	54.44
207.381	81.07
207.599	15.53
207.818	68.78
208.037	54.44
208.255	23.72
208.474	21.67
208.693	9.39
208.911	15.53
209.13	74.92
209.349	-2.9
209.567	9.39
209.786	15.53
210.005	27.82
210.223	9.39
210.442	-25.43
210.661	105.64
210.879	70.83
211.098	68.78
211.316	1.19
211.535	93.35
211.753	-0.85
211.972	40.11
212.191	56.49
212.409	64.68
212.628	3.24
212.846	52.39
213.065	46.25
213.283	50.35
213.502	-23.38
213.72	48.3
213.938	15.53
214.157	1.19
214.375	50.35
214.594	-60.24
214.812	48.3
215.031	-41.81
215.249	42.15
215.467	3.24
215.686	-64.34
215.904	74.92
216.122	-27.48
216.341	54.44
216.559	-0.85
216.778	89.26
216.996	25.77
217.214	15.53
217.432	19.63
217.651	-9.05
217.869	3.24
218.087	68.78
218.306	9.39
218.524	66.73
218.742	17.58
218.96	54.44
219.179	68.78
219.397	27.82
219.615	97.45
219.833	91.31
220.051	-31.57
220.27	33.96
220.488	-31.57
220.706	66.73
220.924	-0.85
221.142	-13.14
221.36	-9.05
221.578	-21.33
221.796	89.26
222.015	9.39
222.233	-35.67
222.451	99.5
222.669	40.11
222.887	-0.85
223.105	31.91
223.323	33.96
223.541	46.25
223.759	81.07
223.977	-58.2
224.195	54.44
224.413	21.67
224.631	9.39
224.849	23.72
225.067	150.7
225.285	19.63
225.503	-23.38
225.721	42.15
225.939	42.15
226.157	74.92
226.375	70.83
226.592	46.25
226.81	52.39
227.028	44.2
227.246	130.22
227.464	36.01
227.682	33.96
227.9	60.59
228.117	44.2
228.335	44.2
228.553	-0.85
228.771	29.87
228.989	66.73
229.206	42.15
229.424	-15.19
229.642	-29.52
229.86	-4.95
230.077	38.06
230.295	33.96
230.513	79.02
230.731	68.78
230.948	44.2
231.166	15.53
231.384	-39.76
231.601	29.87
231.819	-2.9
232.037	9.39
232.254	-41.81
232.472	64.68
232.689	56.49
232.907	44.2
233.125	54.44
233.342	-19.29
233.56	62.63
233.777	38.06
233.995	83.11
234.213	11.43
234.43	5.29
234.648	70.83
234.865	44.2
235.083	38.06
235.3	81.07
235.518	105.64
235.735	23.72
235.953	64.68
236.17	101.55
236.388	13.48
236.605	-37.72
236.822	83.11
237.04	25.77
237.257	42.15
237.475	31.91
237.692	68.78
237.909	58.54
238.127	-29.52
238.344	3.24
238.562	-62.29
238.779	48.3
238.996	44.2
239.214	19.63
239.431	15.53
239.648	70.83
239.865	-11.09
240.083	17.58
240.3	25.77
240.517	-15.19
240.735	15.53
240.952	74.92
241.169	48.3
241.386	-9.05
241.603	23.72
241.821	-29.52
242.038	79.02
242.255	66.73
242.472	21.67
242.689	-13.14
242.907	15.53
243.124	-13.14
243.341	-43.86
243.558	25.77
243.775	-27.48
243.992	-17.24
244.209	89.26
244.426	64.68
244.643	58.54
244.86	44.2
245.078	44.2
245.295	42.15
245.512	21.67
245.729	76.97
245.946	52.39
246.163	23.72
246.38	21.67
246.597	3.24
246.814	64.68
247.031	38.06
247.248	-4.95
247.464	-19.29
247.681	72.87
247.898	25.77
248.115	52.39
248.332	5.29
248.549	62.63
248.766	42.15
248.983	15.53
249.2	52.39
249.417	64.68
249.633	70.83
249.85	36.01
250.067	58.54
250.284	-0.85
250.501	81.07
250.717	109.74
250.934	44.2
251.151	-37.72
251.368	33.96
251.585	29.87
251.801	38.06
252.018	-4.95
252.235	27.82
252.451	-2.9
252.668	38.06
252.885	3.24
253.102	-11.09
253.318	56.49
253.535	-4.95
253.752	54.44
253.968	48.3
254.185	-2.9
254.401	38.06
254.618	-4.95
254.835	5.29
255.051	89.26
255.268	-25.43
255.484	-23.38
255.701	-35.67
255.917	89.26
256.134	7.34
256.351	66.73
256.567	-23.38
256.784	50.35
257	-47.96
257.217	38.06
257.433	95.4
257.65	105.64
257.866	52.39
258.082	122.02
258.299	44.2
258.515	56.49
258.732	-7
258.948	-2.9
259.165	56.49
259.381	46.25
259.597	36.01
259.814	64.68
260.03	17.58
260.246	31.91
260.463	-0.85
260.679	15.53
260.895	81.07
261.112	48.3
261.328	25.77
261.544	17.58
261.761	97.45
261.977	-2.9
262.193	11.43
262.409	105.64
262.626	1.19
262.842	13.48
263.058	-9.05
263.274	74.92
263.49	93.35
263.707	31.91
263.923	-37.72
264.139	33.96
264.355	-21.33
264.571	95.4
264.787	115.88
265.004	70.83
265.22	23.72
265.436	85.16
265.652	64.68
265.868	79.02
266.084	56.49
266.3	103.59
266.516	11.43
266.732	89.26
266.948	11.43
267.164	27.82
267.38	66.73
267.596	58.54
267.812	50.35
268.028	7.34
268.244	11.43
268.46	64.68
268.676	9.39
268.892	17.58
269.108	-33.62
269.324	42.15
269.54	7.34
269.756	72.87
269.972	27.82
270.188	38.06
270.403	64.68
270.619	-29.52
270.835	36.01
271.051	5.29
271.267	101.55
271.483	19.63
271.698	52.39
271.914	27.82
272.13	-4.95
272.346	-58.2
272.562	46.25
272.777	27.82
272.993	103.59
273.209	29.87
273.425	44.2
273.64	33.96
273.856	44.2
274.072	128.17
274.287	-9.05
274.503	54.44
274.719	-56.15
274.934	111.78
275.15	-23.38
275.366	66.73
275.581	81.07
275.797	74.92
276.012	50.35
276.228	70.83
276.444	23.72
276.659	150.7
276.875	-7
277.09	38.06
277.306	-21.33
277.521	-23.38
277.737	99.5
277.952	33.96
278.168	70.83
278.383	56.49
278.599	76.97
278.814	23.72
279.03	-2.9
279.245	70.83
279.461	-19.29
279.676	101.55
279.892	-82.77
280.107	3.24
280.322	64.68
280.538	68.78
280.753	-37.72
280.969	-7
281.184	-4.95
281.399	103.59
281.615	66.73
281.83	-4.95
282.045	-33.62
282.26	5.29
282.476	17.58
282.691	93.35
282.906	-17.24
283.122	72.87
283.337	33.96
283.552	50.35
283.767	-39.76
283.983	7.34
284.198	36.01
284.413	44.2
284.628	13.48
284.843	79.02
285.058	36.01
285.274	54.44
285.489	62.63
285.704	7.34
285.919	-7
286.134	68.78
286.349	29.87
286.564	31.91
286.779	-7
286.995	66.73
287.21	17.58
287.425	56.49
287.64	89.26
287.855	83.11
288.07	68.78
288.285	29.87
288.5	3.24
288.715	66.73
288.93	-39.76
289.145	95.4
289.36	66.73
289.575	19.63
289.79	-17.24
290.004	68.78
290.219	113.83
290.434	-7
290.649	5.29
290.864	52.39
291.079	40.11
291.294	54.44
291.509	46.25
291.724	40.11
291.938	54.44
292.153	58.54
292.368	3.24
292.583	33.96
292.798	70.83
293.012	42.15
293.227	50.35
293.442	-9.05
293.657	25.77
293.871	60.59
294.086	52.39
294.301	56.49
294.516	52.39
294.73	64.68
294.945	17.58
295.16	21.67
295.374	21.67
295.589	81.07
295.804	29.87
296.018	50.35
296.233	107.69
296.447	46.25
296.662	27.82
296.877	68.78
297.091	113.83
297.306	72.87
297.52	31.91
297.735	64.68
297.949	54.44
298.164	74.92
298.378	31.91
298.593	42.15
298.807	36.01
299.022	17.58
299.236	68.78
299.451	42.15
299.665	33.96
299.88	72.87
300.094	-11.09
300.309	-7
300.523	9.39
300.737	52.39
300.952	19.63
301.166	44.2
301.381	9.39
301.595	11.43
301.809	64.68
302.024	58.54
302.238	23.72
302.452	42.15
302.667	9.39
302.881	89.26
303.095	23.72
303.309	76.97
303.524	19.63
303.738	40.11
303.952	54.44
304.166	72.87
304.381	83.11
304.595	62.63
304.809	40.11
305.023	42.15
305.237	9.39
305.452	27.82
305.666	44.2
305.88	93.35
306.094	81.07
306.308	81.07
306.522	46.25
306.736	115.88
306.95	-23.38
307.164	-11.09
307.379	-33.62
307.593	33.96
307.807	62.63
308.021	9.39
308.235	17.58
308.449	-4.95
308.663	33.96
308.877	91.31
309.091	72.87
309.305	48.3
309.519	-2.9
309.733	31.91
309.947	-39.76
310.161	107.69
310.374	48.3
310.588	62.63
310.802	-0.85
311.016	70.83
311.23	21.67
311.444	17.58
311.658	44.2
311.872	42.15
312.085	27.82
312.299	56.49
312.513	58.54
312.727	56.49
312.941	50.35
313.154	19.63
313.368	44.2
313.582	25.77
313.796	-2.9
314.009	-19.29
314.223	74.92
314.437	54.44
314.651	29.87
314.864	21.67
315.078	31.91
315.292	-4.95
315.505	46.25
315.719	66.73
315.933	119.98
316.146	13.48
316.36	54.44
316.573	79.02
316.787	42.15
317.001	36.01
317.214	9.39
317.428	64.68
317.641	-13.14
317.855	36.01
318.068	122.02
318.282	89.26
318.495	79.02
318.709	56.49
318.922	76.97
319.136	9.39
319.349	109.74
319.563	117.93
319.776	-13.14
319.99	9.39
320.203	103.59
320.417	72.87
320.63	46.25
320.843	113.83
321.057	60.59
321.27	3.24
321.483	42.15
321.697	29.87
321.91	38.06
322.124	-23.38
322.337	13.48
322.55	111.78
322.763	107.69
322.977	117.93
323.19	81.07
323.403	15.53
323.617	36.01
323.83	68.78
324.043	-2.9
324.256	-21.33
324.469	-29.52
324.683	21.67
324.896	62.63
325.109	103.59
325.322	60.59
325.535	52.39
325.748	117.93
325.962	60.59
326.175	-2.9
326.388	29.87
326.601	36.01
326.814	93.35
327.027	113.83
327.24	64.68
327.453	70.83
327.666	19.63
327.879	-31.57
328.092	62.63
328.305	50.35
328.518	91.31
328.731	-4.95
328.944	87.21
329.157	89.26
329.37	21.67
329.583	-7
329.796	74.92
330.009	-0.85
330.222	7.34
330.435	33.96
330.648	91.31
330.861	122.02
331.073	62.63
331.286	27.82
331.499	-11.09
331.712	46.25
331.925	-4.95
332.138	31.91
332.35	-37.72
332.563	25.77
332.776	105.64
332.989	56.49
333.202	66.73
333.414	93.35
333.627	-39.76
333.84	27.82
334.053	119.98
334.265	33.96
334.478	93.35
334.691	62.63
334.903	56.49
335.116	29.87
335.329	48.3
335.541	122.02
335.754	64.68
335.966	103.59
336.179	38.06
336.392	23.72
336.604	7.34
336.817	33.96
337.029	9.39
337.242	81.07
337.454	-19.29
337.667	97.45
337.88	76.97
338.092	74.92
338.305	89.26
338.517	103.59
338.729	72.87
338.942	54.44
339.154	40.11
339.367	-29.52
339.579	81.07
339.792	54.44
340.004	95.4
340.217	56.49
340.429	81.07
340.641	64.68
340.854	7.34
341.066	52.39
341.278	44.2
341.491	40.11
341.703	19.63
341.915	-25.43
342.128	46.25
342.34	130.22
342.552	44.2
342.764	19.63
342.977	21.67
343.189	91.31
343.401	74.92
343.613	11.43
343.826	46.25
344.038	36.01
344.25	42.15
344.462	15.53
344.674	95.4
344.886	38.06
345.099	111.78
345.311	7.34
345.523	117.93
345.735	48.3
345.947	19.63
346.159	103.59
346.371	3.24
346.583	109.74
346.795	105.64
347.007	31.91
347.219	113.83
347.431	64.68
347.643	42.15
347.855	52.39
348.067	95.4
348.279	-2.9
348.491	76.97
348.703	124.07
348.915	58.54
349.127	66.73
349.339	56.49
349.551	29.87
349.763	48.3
349.975	56.49
350.187	76.97
350.399	25.77
350.61	109.74
350.822	85.16
351.034	70.83
351.246	81.07
351.458	25.77
351.669	89.26
351.881	68.78
352.093	36.01
352.305	48.3
352.517	21.67
352.728	74.92
352.94	60.59
353.152	33.96
353.363	46.25
353.575	105.64
353.787	107.69
353.999	29.87
354.21	95.4
354.422	21.67
354.633	33.96
354.845	36.01
355.057	5.29
355.268	33.96
355.48	79.02
355.692	54.44
355.903	5.29
356.115	44.2
356.326	46.25
356.538	9.39
356.749	76.97
356.961	40.11
357.172	46.25
357.384	89.26
357.595	142.5
357.807	-11.09
358.018	72.87
358.23	42.15
358.441	52.39
358.653	42.15
358.864	66.73
359.075	9.39
359.287	44.2
359.498	33.96
359.709	91.31
359.921	27.82
360.132	83.11
360.344	48.3
360.555	91.31
360.766	79.02
360.977	23.72
361.189	146.6
361.4	-9.05
361.611	52.39
361.823	27.82
362.034	29.87
362.245	54.44
362.456	19.63
362.667	58.54
362.879	79.02
363.09	19.63
363.301	29.87
363.512	46.25
363.723	11.43
363.935	42.15
364.146	93.35
364.357	46.25
364.568	60.59
364.779	1.19
364.99	89.26
365.201	23.72
365.412	89.26
365.623	-19.29
365.834	91.31
366.045	60.59
366.256	25.77
366.467	103.59
366.678	113.83
366.889	83.11
367.1	122.02
367.311	85.16
367.522	46.25
367.733	87.21
367.944	25.77
368.155	74.92
368.366	11.43
368.577	79.02
368.788	31.91
368.999	44.2
369.209	62.63
369.42	44.2
369.631	15.53
369.842	42.15
370.053	13.48
370.264	21.67
370.474	44.2
370.685	38.06
370.896	-25.43
371.107	19.63
371.317	17.58
371.528	56.49
371.739	44.2
371.95	83.11
372.16	62.63
372.371	27.82
372.582	31.91
372.792	111.78
373.003	-0.85
373.214	85.16
373.424	25.77
373.635	25.77
373.846	52.39
374.056	56.49
374.267	42.15
374.477	99.5
374.688	27.82
374.898	19.63
375.109	31.91
375.319	60.59
375.53	113.83
375.74	101.55
375.951	-19.29
376.161	19.63
376.372	91.31
376.582	64.68
376.793	70.83
377.003	27.82
377.214	89.26
377.424	97.45
377.635	126.12
377.845	40.11
378.055	83.11
378.266	-0.85
378.476	89.26
378.686	38.06
378.897	7.34
379.107	60.59
379.317	117.93
379.528	9.39
379.738	-29.52
379.948	58.54
380.158	31.91
380.369	33.96
380.579	85.16
380.789	52.39
380.999	68.78
381.21	42.15
381.42	83.11
381.63	109.74
381.84	3.24
382.05	130.22
382.261	146.6
382.471	115.88
382.681	9.39
382.891	70.83
383.101	101.55
383.311	9.39
383.521	44.2
383.731	54.44
383.941	40.11
384.151	40.11
384.361	-23.38
384.571	58.54
384.781	85.16
384.991	87.21
385.201	62.63
385.411	76.97
385.621	50.35
385.831	21.67
386.041	48.3
386.251	52.39
386.461	76.97
386.671	13.48
386.881	76.97
387.091	27.82
387.301	154.79
387.511	48.3
387.72	72.87
387.93	58.54
388.14	52.39
388.35	5.29
388.56	95.4
388.769	128.17
388.979	89.26
389.189	29.87
389.399	68.78
389.609	95.4
389.818	115.88
390.028	-0.85
390.238	-15.19
390.447	62.63
390.657	113.83
390.867	23.72
391.076	11.43
391.286	115.88
391.496	115.88
391.705	54.44
391.915	105.64
392.125	60.59
392.334	42.15
392.544	144.55
392.753	79.02
392.963	111.78
393.172	83.11
393.382	33.96
393.591	79.02
393.801	113.83
394.01	89.26
394.22	46.25
394.429	158.89
394.639	113.83
394.848	117.93
395.058	83.11
395.267	25.77
395.477	91.31
395.686	62.63
395.895	44.2
396.105	119.98
396.314	87.21
396.524	93.35
396.733	89.26
396.942	158.89
397.152	74.92
397.361	158.89
397.57	101.55
397.78	85.16
397.989	107.69
398.198	119.98
398.407	60.59
398.617	81.07
398.826	152.74
399.035	138.41
399.244	126.12
399.453	103.59
399.663	152.74
399.872	140.46
400.081	126.12
400.29	62.63
400.499	79.02
400.708	195.75
400.917	38.06
401.127	89.26
401.336	15.53
401.545	179.37
401.754	199.85
401.963	162.98
402.172	124.07
402.381	74.92
402.59	148.65
402.799	152.74
403.008	119.98
403.217	152.74
403.426	177.32
403.635	111.78
403.844	93.35
404.053	136.36
404.262	95.4
404.471	154.79
404.68	107.69
404.888	175.27
405.097	76.97
405.306	152.74
405.515	205.99
405.724	212.14
405.933	68.78
406.142	234.66
406.35	150.7
406.559	210.09
406.768	251.05
406.977	150.7
407.185	187.56
407.394	187.56
407.603	165.03
407.812	251.05
408.02	261.29
408.229	236.71
408.438	232.62
408.646	255.14
408.855	187.56
409.064	253.09
409.272	226.47
409.481	310.44
409.69	234.66
409.898	214.18
410.107	283.81
410.315	296.1
410.524	312.49
410.733	378.02
410.941	298.15
411.15	392.36
411.358	361.64
411.567	375.97
411.775	378.02
411.984	361.64
412.192	402.6
412.401	412.84
412.609	484.52
412.818	513.19
413.026	453.8
413.234	484.52
413.443	494.76
413.651	476.32
413.86	545.95
414.068	572.58
414.276	642.21
414.485	599.2
414.693	650.4
414.901	695.46
415.11	644.26
415.318	615.59
415.526	752.8
415.734	810.14
415.943	754.85
416.151	822.43
416.359	758.94
416.567	873.63
416.776	892.06
416.984	922.78
417.192	900.25
417.4	980.12
417.608	879.77
417.817	990.36
418.025	1092.76
418.233	1090.71
418.441	1025.18
418.649	1148.06
418.857	1264.79
419.065	1260.7
419.273	1193.11
419.481	1365.14
419.689	1359
419.897	1342.61
420.105	1397.91
420.313	1420.44
420.521	1602.71
420.729	1539.22
420.937	1598.61
421.145	1729.68
421.353	1809.55
421.561	1893.52
421.769	1922.19
421.977	1889.42
422.185	1821.84
422.393	2049.16
422.601	2251.91
422.809	2184.33
423.017	2141.32
423.224	2315.4
423.432	2284.68
423.64	2342.02
423.848	2608.26
424.056	2520.2
424.263	2671.75
424.471	2718.85
424.679	2724.99
424.887	2946.17
425.094	2976.89
425.302	3028.09
425.51	3155.07
425.718	3232.89
425.925	3300.47
426.133	3343.48
426.341	3605.62
426.548	3738.74
426.756	3763.31
426.964	3632.24
427.171	4009.07
427.379	4156.52
427.586	4025.45
427.794	4230.25
428.001	4523.11
428.209	4433
428.417	4525.16
428.624	4959.33
428.832	4768.87
429.039	4846.69
429.247	4852.83
429.454	5330.01
429.662	5661.78
429.869	5323.87
430.076	5733.46
430.284	5631.06
430.491	5762.13
430.699	6214.73
430.906	6069.33
431.114	6343.75
431.321	6407.24
431.528	6669.38
431.736	6874.18
431.943	7369.79
432.15	7144.51
432.358	7216.19
432.565	7564.34
432.772	7713.84
432.979	7838.77
433.187	8068.14
433.394	8182.83
433.601	8803.36
433.808	8764.45
434.016	8639.53
434.223	8993.83
434.43	9679.89
434.637	9464.86
434.844	10034.19
435.052	10101.78
435.259	10118.16
435.466	10372.11
435.673	9946.13
435.88	10851.33
436.087	11344.89
436.294	11510.78
436.501	10945.54
436.708	10937.35
436.915	11613.18
437.122	12372.97
437.329	12286.96
437.537	12594.15
437.743	12801
437.95	12669.93
438.157	13159.39
438.364	13802.46
438.571	13865.94
438.778	13945.81
438.985	15195.07
439.192	14453.71
439.399	14894.02
439.606	14871.5
439.813	15588.28
440.02	16378.8
440.227	16200.63
440.433	16094.13
440.64	16481.2
440.847	16505.77
441.054	16845.74
441.261	18033.56
441.467	17843.1
441.674	18113.43
441.881	18801.55
442.088	18504.59
442.294	18383.76
442.501	19118.98
442.708	19626.88
442.914	20007.8
443.121	21199.72
443.328	20577.14
443.534	22184.79
443.741	21322.6
443.948	20861.8
444.154	22610.77
444.361	22403.92
444.568	22487.89
444.774	22506.32
444.981	22852.43
445.187	23323.46
445.394	24539.96
445.6	24308.54
445.807	26495.77
446.013	25305.9
446.22	25776.93
446.426	26723.09
446.633	27044.62
446.839	28160.76
447.046	27149.07
447.252	28232.44
447.459	28521.21
447.665	28596.98
447.871	29123.31
448.078	30923.47
448.284	29149.93
448.491	30292.7
448.697	30991.06
448.903	31771.33
449.11	31851.2
449.316	31374.03
449.522	31957.7
449.728	32699.06
449.935	32938.68
450.141	32869.05
450.347	33503.92
450.553	32914.1
450.76	32770.74
450.966	34157.22
451.172	33843.88
451.378	34863.77
451.584	33583.79
451.791	34937.49
451.997	34495.13
452.203	35263.12
452.409	35019.41
452.615	34859.67
452.821	33821.35
453.027	33286.83
453.233	34501.28
453.44	33778.34
453.646	33890.98
453.852	34228.9
454.058	34773.66
454.264	33530.54
454.47	34108.07
454.676	33276.59
454.882	34087.59
455.088	31482.57
455.294	31990.47
455.5	32133.82
455.705	32567.99
455.911	31423.18
456.117	30683.86
456.323	30063.33
456.529	28695.28
456.735	30190.3
456.941	29094.64
457.147	28670.71
457.352	27984.64
457.558	27587.33
457.764	27874.05
457.97	27003.66
458.176	26307.35
458.381	26307.35
458.587	25090.86
458.793	25164.59
458.999	23685.95
459.204	25342.76
459.41	24869.68
459.616	23298.89
459.821	22985.55
460.027	23126.86
460.233	22578
460.438	21492.58
460.644	21728.1
460.85	20427.63
461.055	20562.8
461.261	20181.88
461.466	18490.26
461.672	18267.03
461.878	19518.34
462.083	18269.08
462.289	18025.37
462.494	17587.1
462.7	16958.38
462.905	16642.99
463.111	17138.6
463.316	16913.32
463.522	16618.41
463.727	16753.58
463.932	16636.84
464.138	16264.11
464.343	16649.13
464.549	16120.76
464.754	16737.2
464.959	16645.04
465.165	16395.18
465.37	15530.94
465.575	15508.41
465.781	15770.55
465.986	15852.47
466.191	15565.76
466.397	15068.1
466.602	14478.29
466.807	14885.83
467.012	15084.48
467.218	14891.98
467.423	14482.38
467.628	14541.77
467.833	15180.74
468.038	14599.12
468.244	14158.8
468.449	15125.44
468.654	14531.53
468.859	14238.67
469.064	14375.89
469.269	13679.58
469.474	13804.5
469.679	14259.15
469.885	13655
470.09	13890.52
470.295	13753.3
470.5	13331.42
470.705	13525.98
470.91	13296.61
471.115	12991.46
471.32	13343.71
471.525	12897.25
471.73	12669.93
471.935	12747.75
472.139	12276.72
472.344	12432.36
472.549	12338.16
472.754	12233.71
472.959	11977.72
473.164	11701.24
473.369	11465.72
473.574	11856.89
473.778	11918.32
473.983	11854.84
474.188	11934.71
474.393	11080.71
474.598	11219.97
474.802	11199.49
475.007	11074.56
475.212	10877.96
475.417	10607.62
475.621	10638.34
475.826	10923.01
476.031	10435.6
476.235	10208.27
476.44	10314.77
476.645	10105.87
476.849	10480.65
477.054	10255.37
477.259	9780.25
477.463	9858.07
477.668	9589.78
477.872	9835.54
478.077	9378.84
478.282	9382.94
478.486	9411.61
478.691	9292.83
478.895	9354.27
479.1	9208.86
479.304	9133.09
479.509	8956.96
479.713	9137.18
479.918	9053.22
480.122	8707.11
480.326	9016.35
480.531	8954.91
480.735	8817.7
480.94	8617
481.144	8819.75
481.348	8547.37
481.553	8612.9
481.757	8404.01
481.961	8684.58
482.166	8619.05
482.37	8729.64
482.574	8453.16
482.778	8645.67
482.983	8676.39
483.187	8404.01
483.391	8623.14
483.595	8477.74
483.8	8483.88
484.004	8418.35
484.208	8594.47
484.412	8547.37
484.616	8621.1
484.821	8590.38
485.025	8410.15
485.229	8598.57
485.433	8469.55
485.637	8600.62
485.841	8287.28
486.045	8479.79
486.249	8506.41
486.453	8399.91
486.657	8516.65
486.861	8606.76
487.065	8356.91
487.269	8326.19
487.473	8447.02
487.677	8393.77
487.881	8500.26
488.085	8567.85
488.289	8510.5
488.493	8426.54
488.697	8784.93
488.901	8619.05
489.105	8473.64
489.309	8692.77
489.512	8741.93
489.716	8508.46
489.92	8592.42
490.124	8694.82
490.328	8627.24
490.531	8660.01
490.735	8877.09
490.939	8676.39
491.143	8608.81
491.346	8721.45
491.55	8961.06
491.754	8895.52
491.958	8954.91
492.161	8637.48
492.365	9065.5
492.569	8918.05
492.772	8850.47
492.976	9155.61
493.18	9014.31
493.383	9184.29
493.587	9165.85
493.79	9384.99
493.994	9243.68
494.197	9317.4
494.401	9176.09
494.605	9348.12
494.808	9645.08
495.012	9626.65
495.215	9714.71
495.419	9708.57
495.622	9616.41
495.825	9792.53
496.029	9546.78
496.232	9942.03
496.436	10112.02
496.639	10402.83
496.843	10099.73
497.046	10425.36
497.249	10636.3
497.453	10669.06
497.656	10781.7
497.859	10542.09
498.063	10785.8
498.266	10951.68
498.469	10763.27
498.673	11121.66
498.876	11138.05
499.079	11293.69
499.282	11389.95
499.485	11641.85
499.689	11584.51
499.892	11756.54
500.095	11910.13
500.298	12094.45
500.501	12202.99
500.705	12266.48
500.908	12219.38
501.111	12643.31
501.314	12579.82
501.517	12788.71
501.72	12817.38
501.923	13050.85
502.126	13280.22
502.329	13558.75
502.532	13540.32
502.735	13542.36
502.938	14083.03
503.141	13642.71
503.344	13988.82
503.547	14007.25
503.75	14416.85
503.953	14527.44
504.156	14742.47
504.359	14908.36
504.562	14867.4
504.765	15223.75
504.968	15170.5
505.17	15305.67
505.373	15571.9
505.576	15608.76
505.779	15846.33
505.982	16110.52
506.185	16456.62
506.387	16194.48
506.59	16339.89
506.793	16636.84
506.996	16655.28
507.198	17345.44
507.401	17064.87
507.604	17320.87
507.807	17886.11
508.009	17660.83
508.212	17593.25
508.415	18066.33
508.617	18142.1
508.82	18008.98
509.022	18258.84
509.225	18678.67
509.428	18893.71
509.63	18979.72
509.833	19069.83
510.035	19667.84
510.238	19524.48
510.44	19809.15
510.643	19972.99
510.845	20050.81
511.048	20263.8
511.25	20392.82
511.453	20388.72
511.655	21320.55
511.858	21052.27
512.06	21066.6
512.262	21209.96
512.465	21279.59
512.667	21826.4
512.87	21691.23
513.072	22100.83
513.274	22381.4
513.477	22799.18
513.679	22647.63
513.881	23126.86
514.084	23247.69
514.286	23061.32
514.488	23225.16
514.69	23925.57
514.893	23628.61
515.095	23968.57
515.297	24097.59
515.499	24073.02
515.701	24292.15
515.904	25148.2
516.106	24908.59
516.308	25285.42
516.51	25504.55
516.712	25010.99
516.914	25760.55
517.116	26129.18
517.318	26073.88
517.52	25991.97
517.722	26491.67
517.925	26702.61
518.127	26972.94
518.329	27194.12
518.531	26882.83
518.733	27529.99
518.935	27759.36
519.136	27681.54
519.338	28345.08
519.54	28091.13
519.742	28476.15
519.944	28447.48
520.146	29008.62
520.348	29043.44
520.55	29246.19
520.752	29321.96
520.954	29696.74
521.155	29553.38
521.357	29962.98
521.559	30427.87
521.761	30395.1
521.963	30595.8
522.164	30630.62
522.366	30696.15
522.568	31122.13
522.77	31161.04
522.971	31437.51
523.173	31474.38
523.375	31720.13
523.576	31630.02
523.778	31802.05
523.98	31998.66
524.181	32199.36
524.383	32436.92
524.584	32756.41
524.786	32600.76
524.988	32533.18
525.189	33249.97
525.391	33209.01
525.592	33426.09
525.794	33395.37
525.995	33657.51
526.197	33532.59
526.398	33536.68
526.6	33847.97
526.801	34042.53
527.003	34155.17
527.204	33833.64
527.406	34792.09
527.607	34243.23
527.808	34458.27
528.01	34116.26
528.211	34409.12
528.412	35023.51
528.614	34831
528.815	34761.37
529.016	35054.23
529.218	34595.48
529.419	34935.45
529.62	35269.26
529.822	34990.74
530.023	34790.04
530.224	34910.87
530.425	35091.09
530.626	34853.53
530.828	34853.53
531.029	35719.82
531.23	35203.73
531.431	35011.22
531.632	35256.98
531.833	35410.57
532.035	35685
532.236	35388.05
532.437	35648.14
532.638	35480.21
532.839	36035.2
533.04	35881.61
533.241	35328.66
533.442	36272.77
533.643	35748.49
533.844	35639.95
534.045	35881.61
534.246	35615.37
534.447	35644.04
534.648	35515.02
534.849	35555.98
535.05	35711.63
535.251	35668.62
535.451	35283.6
535.652	35705.48
535.853	35525.26
536.054	35476.11
536.255	35791.5
536.456	35367.57
536.657	36029.06
536.857	35639.95
537.058	35429.01
537.259	35840.65
537.46	35594.89
537.66	35553.93
537.861	35578.51
538.062	35373.71
538.263	35795.59
538.463	35377.81
538.664	35523.21
538.865	35541.64
539.065	35752.59
539.266	35103.38
539.466	35715.72
539.667	35353.23
539.868	35955.33
540.068	35261.07
540.269	35390.09
540.469	35529.36
540.67	35211.92
540.87	35160.72
541.071	35408.53
541.271	35541.64
541.472	35359.38
541.672	35246.74
541.873	35439.25
542.073	34857.62
542.274	35322.51
542.474	35388.05
542.675	35093.14
542.875	35451.53
543.075	35451.53
543.276	34857.62
543.476	35435.15
543.676	35070.61
543.877	35213.97
544.077	34865.81
544.277	35076.76
544.478	34906.77
544.678	35158.67
544.878	35173.01
545.078	35222.16
545.279	34785.94
545.479	34876.05
545.679	35093.14
545.879	35201.68
546.079	34890.39
546.28	34886.29
546.48	34642.59
546.68	35156.63
546.88	35017.36
547.08	34568.86
547.28	34874.01
547.48	34388.64
547.68	34835.1
547.88	34581.15
548.081	34923.16
548.281	34808.47
548.481	34771.61
548.681	35078.8
548.881	34546.33
549.081	34564.76
549.28	34575
549.48	34910.87
549.68	34757.27
549.88	34980.5
550.08	34595.48
550.28	34738.84
550.48	34753.18
550.68	35123.86
550.88	34820.76
551.08	34398.88
551.279	34671.26
551.479	34396.83
551.679	34749.08
551.879	34370.21
552.079	34853.53
552.278	34888.34
552.478	34540.19
552.678	34310.82
552.878	34732.7
553.077	34165.41
553.277	34382.49
553.477	34976.4
553.676	34499.23
553.876	34388.64
554.076	34093.73
554.275	34210.46
554.475	33802.92
554.674	34247.33
554.874	34099.87
555.074	33878.69
555.273	34189.98
555.473	34411.17
555.672	34247.33
555.872	34181.79
556.071	34054.82
556.271	34269.86
556.47	34124.45
556.67	33714.86
556.869	33811.11
557.068	34126.5
557.268	33880.74
557.467	33985.19
557.667	33833.64
557.866	34022.05
558.065	33979.04
558.265	33886.89
558.464	33516.2
558.663	33821.35
558.863	33663.66
559.062	34187.94
559.261	33256.11
559.461	33686.18
559.66	33305.26
559.859	33565.35
560.058	33444.52
560.258	33288.88
560.457	33229.49
560.656	33209.01
560.855	33063.6
561.054	33180.34
561.253	33098.42
561.453	33137.33
561.652	33057.46
561.851	33104.56
562.05	32985.78
562.249	32756.41
562.448	33002.16
562.647	32965.3
562.846	32912.05
563.045	32961.2
563.244	32758.45
563.443	33065.65
563.642	32248.51
563.841	32391.87
564.04	32465.6
564.239	32977.59
564.438	32393.92
564.637	32559.8
564.836	32488.12
565.035	32056
565.234	32428.73
565.432	32285.37
565.631	31849.16
565.83	32246.46
566.029	31652.55
566.228	32015.04
566.427	31642.31
566.625	31867.59
566.824	31521.48
567.023	32416.44
567.222	31118.03
567.42	31830.72
567.619	31642.31
567.818	31580.87
568.016	31165.14
568.215	31572.68
568.414	31531.72
568.612	31673.03
568.811	30903
569.01	31130.32
569.208	31136.46
569.407	31236.81
569.605	31048.4
569.804	31195.85
570.002	30888.66
570.201	31177.42
570.4	31042.26
570.598	30425.82
570.797	30356.19
570.995	30335.71
571.193	30577.37
571.392	30792.4
571.59	30223.07
571.789	30094.05
571.987	30323.42
572.186	30139.1
572.384	30126.81
572.582	30020.32
572.781	30264.03
572.979	29850.34
573.177	30005.98
573.376	29846.24
573.574	29397.74
573.772	29780.71
573.971	29436.65
574.169	29266.67
574.367	29211.37
574.565	29780.71
574.763	29278.96
574.962	29522.66
575.16	28928.75
575.358	29369.07
575.556	28832.5
575.754	29235.95
575.952	28883.7
576.151	29299.44
576.349	28742.39
576.547	28437.24
576.745	28463.86
576.943	28377.85
577.141	28422.9
577.339	28769.01
577.537	28265.21
577.735	28228.35
577.933	28162.81
578.131	28275.45
578.329	28308.22
578.527	27935.49
578.725	28203.77
578.923	28310.27
579.121	28119.81
579.319	27759.36
579.516	28070.65
579.714	27826.95
579.912	27659.01
580.11	27587.33
580.308	27646.72
580.506	27747.08
580.704	27112.2
580.901	27429.64
581.099	27489.03
581.297	27431.69
581.495	27032.33
581.692	27480.84
581.89	27204.36
582.088	27329.29
582.285	26907.41
582.483	27370.25
582.681	26854.16
582.878	26899.22
583.076	26729.23
583.274	26632.98
583.471	26389.27
583.669	26628.88
583.866	26477.33
584.064	26336.02
584.262	26147.61
584.459	26589.97
584.657	26145.56
584.854	26565.4
585.052	25783.07
585.249	26055.45
585.447	26340.12
585.644	25762.59
585.841	25989.92
586.039	25924.38
586.236	25387.82
586.434	25443.11
586.631	25475.88
586.828	25590.56
587.026	25434.92
587.223	25334.57
587.42	25410.34
587.618	25185.07
587.815	24922.93
588.012	24982.32
588.21	24722.23
588.407	25019.18
588.604	24763.18
588.801	24927.02
588.999	24724.27
589.196	24810.29
589.393	24765.23
589.59	24501.04
589.787	24255.29
589.984	24240.95
590.182	24083.26
590.379	24519.48
590.576	24167.23
590.773	24359.73
590.97	24025.92
591.167	23931.71
591.364	23886.65
591.561	24087.36
591.758	23292.74
591.955	23731.01
592.152	23536.45
592.349	23593.79
592.546	23761.73
592.743	23587.65
592.94	23151.43
593.137	23343.94
593.334	23526.21
593.531	23118.67
593.727	23247.69
593.924	23165.77
594.121	22704.98
594.318	23245.64
594.515	22823.76
594.712	22829.9
594.908	22688.59
595.105	22864.72
595.302	22573.91
595.499	22760.27
595.696	22391.64
595.892	21975.9
596.089	22326.1
596.286	22076.25
596.482	22156.12
596.679	22080.35
596.876	22170.46
597.072	22303.57
597.269	21977.95
597.466	22178.65
597.662	21660.51
597.859	21799.77
598.055	21828.45
598.252	21607.26
598.448	21672.8
598.645	21898.08
598.841	21310.31
599.038	21496.67
599.234	21164.9
599.431	21154.66
599.627	20839.28
599.824	20951.91
600.02	21046.12
600.217	21089.13
600.413	20855.66
600.609	20826.99
600.806	20751.21
601.002	20831.08
601.198	20714.35
601.395	20460.4
601.591	20650.86
601.787	20906.86
601.984	20527.99
602.18	20472.69
602.376	20149.11
602.572	20216.69
602.769	20335.48
602.965	20253.56
603.161	20228.98
603.357	20018.04
603.553	19897.21
603.75	20009.85
603.946	19690.37
604.142	19946.36
604.338	19807.1
604.534	19864.44
604.73	19495.81
604.926	19540.86
605.122	19346.31
605.318	19434.37
605.514	19207.05
605.71	19356.55
605.906	19442.56
606.102	19391.36
606.298	19221.38
606.494	19272.58
606.69	19166.09
606.886	19131.27
607.082	18674.57
607.278	19377.03
607.474	18598.8
607.67	18762.64
607.866	18629.52
608.062	18852.75
608.257	18772.88
608.453	18729.87
608.649	18699.15
608.845	18412.43
609.041	18553.74
609.236	18678.67
609.432	18455.44
609.628	18357.14
609.824	18447.25
610.019	18254.74
610.215	18234.26
610.411	18469.78
610.606	18254.74
610.802	18240.4
610.998	18254.74
611.193	18295.7
611.389	17984.41
611.584	18019.22
611.78	17996.7
611.976	18258.84
612.171	18049.94
612.367	17906.59
612.562	18056.09
612.758	17845.15
612.953	17785.76
613.149	18047.9
613.344	17427.36
613.539	17863.58
613.735	17783.71
613.93	17826.71
614.126	17734.56
614.321	17949.59
614.517	17650.59
614.712	17603.49
614.907	17470.37
615.103	17544.09
615.298	17470.37
615.493	17593.25
615.688	17370.02
615.884	17607.58
616.079	17302.43
616.274	17410.98
616.47	17263.52
616.665	17152.93
616.86	17255.33
617.055	17200.04
617.25	17071.01
617.445	17159.08
617.641	16774.06
617.836	16987.05
618.031	16774.06
618.226	16901.03
618.421	16903.08
618.616	17019.81
618.811	16624.56
619.006	16772.01
619.201	16473.01
619.396	16470.96
619.591	16055.22
619.786	16507.82
619.981	16155.57
620.176	16280.5
620.371	15993.78
620.566	16122.8
620.761	15819.71
620.956	16120.76
621.151	15965.11
621.346	15979.45
621.541	15627.2
621.735	15629.24
621.93	15481.79
622.125	15561.66
622.32	15195.07
622.515	15356.86
622.709	15168.45
622.904	15123.4
623.099	15047.62
623.294	15100.87
623.488	14840.78
623.683	14828.49
623.878	14994.37
624.072	14533.58
624.267	14771.15
624.462	14588.88
624.656	14312.4
624.851	14339.02
625.046	14537.68
625.24	14447.57
625.435	14226.39
625.629	14416.85
625.824	14015.44
626.018	14398.41
626.213	13800.41
626.407	13630.43
626.602	13564.89
626.796	13947.86
626.991	13671.39
627.185	13560.8
627.38	13575.13
627.574	13495.26
627.768	13476.83
627.963	13153.25
628.157	12864.49
628.352	13247.46
628.546	12950.5
628.74	12856.29
628.935	12921.83
629.129	13075.43
629.323	12661.74
629.517	12817.38
629.712	12626.92
629.906	12385.26
630.1	12499.95
630.294	12540.91
630.489	12342.25
630.683	12428.27
630.877	12055.54
631.071	12155.89
631.265	12012.53
631.459	12137.46
631.653	12053.49
631.848	12155.89
632.042	11717.62
632.236	11889.65
632.43	11803.64
632.624	11711.48
632.818	11817.97
633.012	11439.1
633.206	11453.44
633.4	11478.01
633.594	11394.04
633.788	11398.14
633.982	11312.13
634.176	11363.33
634.369	11287.55
634.563	11052.03
634.757	10982.4
634.951	10980.36
635.145	10923.01
635.339	10875.91
635.533	10800.13
635.726	10638.34
635.92	10624.01
636.114	10736.65
636.308	10628.1
636.501	10593.29
636.695	10556.43
636.889	10216.46
637.083	10279.95
637.276	10138.64
637.47	10159.12
637.664	10222.61
637.857	10208.27
638.051	10191.89
638.244	10085.39
638.438	10161.17
638.632	9915.41
638.825	9741.33
639.019	9894.93
639.212	9778.2
639.406	9702.42
639.599	9610.26
639.793	9653.27
639.986	9626.65
640.18	9471
640.373	9356.32
640.567	9403.42
640.76	9323.55
640.954	9231.39
641.147	9303.07
641.34	9092.13
641.534	9258.01
641.727	8995.87
641.92	8899.62
642.114	8993.83
642.307	8918.05
642.5	8829.99
642.694	8729.64
642.887	8768.55
643.08	8950.82
643.273	8746.02
643.467	8584.23
643.66	8674.34
643.853	8461.35
644.046	8578.09
644.239	8500.26
644.432	8524.84
644.626	8410.15
644.819	8447.02
645.012	8522.79
645.205	8301.61
645.398	8389.67
645.591	8154.16
645.784	8145.97
645.977	8039.47
646.17	8119.34
646.363	7996.46
646.556	7900.21
646.749	8010.8
646.942	8129.58
647.135	7740.47
647.328	7898.16
647.521	7705.65
647.714	7660.6
647.907	7871.54
648.099	7652.41
648.292	7711.8
648.485	7468.09
648.678	7482.42
648.871	7371.83
649.064	7492.66
649.256	7566.39
649.449	7345.21
649.642	7386.17
649.835	7132.22
650.027	7232.57
650.22	7205.95
650.413	7228.48
650.605	7109.69
650.798	7015.49
650.991	6968.38
651.183	7169.09
651.376	7025.73
651.568	7009.34
651.761	6913.09
651.954	7126.08
652.146	6782.02
652.339	6747.2
652.531	6788.16
652.724	6722.63
652.916	6679.62
653.109	6663.24
653.301	6833.22
653.494	6470.73
653.686	6552.65
653.879	6601.8
654.071	6646.85
654.263	6390.86
654.456	6411.34
654.648	6513.74
654.84	6265.93
655.033	6317.13
655.225	6423.62
655.417	6302.79
655.61	6280.27
655.802	6196.3
655.994	6202.44
656.186	6116.43
656.379	6233.16
656.571	6093.9
656.763	5960.78
656.955	5938.26
657.148	6057.04
657.34	6024.27
657.532	5870.67
657.724	5774.42
657.916	5790.8
658.108	5925.97
658.3	5751.89
658.492	5817.43
658.684	5637.2
658.876	5655.64
659.068	5571.67
659.26	5629.01
659.452	5481.56
659.644	5594.2
659.836	5581.91
660.028	5540.95
660.22	5626.96
660.412	5448.79
660.604	5440.6
660.796	5440.6
660.988	5440.6
661.18	5370.97
661.372	5241.95
661.563	5360.73
661.755	5213.28
661.947	5227.61
662.139	5200.99
662.331	5141.6
662.522	5092.44
662.714	5196.89
662.906	5162.08
663.097	5082.21
663.289	4994.14
663.481	5045.34
663.673	4985.95
663.864	4944.99
664.056	4834.4
664.247	5039.2
664.439	4832.35
664.631	4938.85
664.822	4922.46
665.014	4965.47
665.205	4826.21
665.397	4725.86
665.588	4652.13
665.78	4652.13
665.971	4711.52
666.163	4701.28
666.354	4533.35
666.546	4670.56
666.737	4807.78
666.929	4516.97
667.12	4580.45
667.311	4631.65
667.503	4514.92
667.694	4625.51
667.885	4541.54
668.077	4400.23
668.268	4404.33
668.459	4363.37
668.651	4422.76
668.842	4449.38
669.033	4269.16
669.224	4306.02
669.416	4441.19
669.607	4291.69
669.798	4236.39
669.989	4297.83
670.18	4168.81
670.371	4240.49
670.563	4250.73
670.754	4269.16
670.945	4168.81
671.136	4240.49
671.327	4156.52
671.518	4154.48
671.709	4119.66
671.9	4093.04
672.091	4084.84
672.282	4045.93
672.473	4052.08
672.664	4148.33
672.855	4121.71
673.046	4009.07
673.237	4019.31
673.428	3980.4
673.619	3916.91
673.809	3982.45
674	3822.7
674.191	3806.32
674.382	3972.21
674.573	3966.06
674.764	3834.99
674.954	3859.57
675.145	3765.36
675.336	3953.77
675.527	4000.88
675.717	3841.14
675.908	3853.42
676.099	3822.7
676.289	3810.42
676.48	3742.83
676.671	3759.22
676.861	3722.35
677.052	3638.39
677.243	3648.63
677.433	3579
677.624	3626.1
677.814	3783.79
678.005	3634.29
678.195	3662.96
678.386	3716.21
678.576	3622
678.767	3746.93
678.957	3658.87
679.148	3542.13
679.338	3517.56
679.529	3515.51
679.719	3478.65
679.909	3615.86
680.1	3484.79
680.29	3581.04
680.481	3587.19
680.671	3583.09
680.861	3613.81
681.052	3611.76
681.242	3398.77
681.432	3474.55
681.622	3544.18
681.813	3398.77
682.003	3484.79
682.193	3421.3
682.383	3495.03
682.573	3374.2
682.764	3429.49
682.954	3507.32
683.144	3343.48
683.334	3372.15
683.524	3417.21
683.714	3443.83
683.904	3433.59
684.094	3335.29
684.284	3392.63
684.474	3292.28
684.664	3347.58
684.854	3290.23
685.044	3263.61
685.234	3361.91
685.424	3275.9
685.614	3206.27
685.804	3273.85
685.994	3275.9
686.184	3187.83
686.374	3155.07
686.564	3202.17
686.753	3130.49
686.943	3101.82
687.133	3161.21
687.323	3169.4
687.513	3114.11
687.702	3212.41
687.892	3181.69
688.082	3003.52
688.272	3071.1
688.461	3046.52
688.651	3042.43
688.841	3181.69
689.03	2964.61
689.22	2985.09
689.41	2946.17
689.599	2964.61
689.789	2958.46
689.979	2942.08
690.168	2952.32
690.358	3046.52
690.547	2849.92
690.737	2868.35
690.926	2856.06
691.116	2780.29
691.305	2837.63
691.495	2833.54
691.684	2739.33
691.874	2854.02
692.063	2827.39
692.252	2813.06
692.442	2845.82
692.631	2733.18
692.82	2792.58
693.01	2776.19
693.199	2770.05
693.388	2612.35
693.578	2784.38
693.767	2763.9
693.956	2702.47
694.146	2702.47
694.335	2679.94
694.524	2722.95
694.713	2759.81
694.902	2677.89
695.092	2649.22
695.281	2651.27
695.47	2516.1
695.659	2647.17
695.848	2526.34
696.037	2540.68
696.226	2641.03
696.415	2647.17
696.604	2645.12
696.793	2690.18
696.982	2571.4
697.171	2651.27
697.36	2608.26
697.549	2626.69
697.738	2526.34
697.927	2583.68
698.116	2602.11
698.305	2505.86
698.494	2546.82
698.683	2520.2
698.872	2653.31
699.061	2561.16
699.25	2636.93
699.438	2718.85
699.627	2477.19
699.816	2606.21
700.005	2548.87
700.193	2557.06
700.382	2612.35
700.571	2522.24
700.76	2499.72
700.948	2458.76
701.137	2477.19
701.326	2571.4
701.514	2522.24
701.703	2589.83
701.892	2581.64
702.08	2608.26
702.269	2548.87
702.457	2512
702.646	2552.96
702.834	2471.04
703.023	2497.67
703.212	2528.39
703.4	2595.97
703.589	2415.75
703.777	2473.09
703.965	2589.83
704.154	2600.07
704.342	2585.73
704.531	2471.04
704.719	2446.47
704.907	2598.02
705.096	2522.24
705.284	2598.02
705.472	2489.48
705.661	2526.34
705.849	2571.4
706.037	2561.16
706.226	2655.36
706.414	2571.4
706.602	2489.48
706.79	2604.16
706.979	2466.95
707.167	2561.16
707.355	2464.9
707.543	2579.59
707.731	2587.78
707.919	2585.73
708.107	2397.32
708.296	2393.22
708.484	2380.93
708.672	2518.15
708.86	2477.19
709.048	2446.47
709.236	2469
709.424	2542.72
709.612	2501.76
709.8	2481.28
709.988	2583.68
710.176	2663.55
710.364	2585.73
710.551	2387.08
710.739	2462.85
710.927	2417.8
711.115	2561.16
711.303	2559.11
711.491	2536.58
711.679	2591.88
711.866	2413.7
712.054	2612.35
712.242	2516.1
712.43	2479.24
712.617	2602.11
712.805	2505.86
712.993	2604.16
713.181	2430.09
713.368	2471.04
713.556	2534.53
713.744	2452.61
713.931	2557.06
714.119	2499.72
714.306	2505.86
714.494	2630.79
714.682	2585.73
714.869	2489.48
715.057	2569.35
715.244	2573.44
715.432	2647.17
715.619	2569.35
715.807	2552.96
715.994	2456.71
716.182	2507.91
716.369	2514.05
716.556	2598.02
716.744	2481.28
716.931	2598.02
717.119	2542.72
717.306	2516.1
717.493	2479.24
717.681	2501.76
717.868	2452.61
718.055	2491.52
718.242	2469
718.43	2524.29
718.617	2397.32
718.804	2550.92
718.991	2518.15
719.179	2518.15
719.366	2462.85
719.553	2462.85
719.74	2522.24
719.927	2567.3
720.114	2485.38
720.301	2555.01
720.488	2397.32
720.676	2483.33
720.863	2501.76
721.05	2632.83
721.237	2501.76
721.424	2565.25
721.611	2524.29
721.798	2464.9
721.985	2440.33
722.172	2503.81
722.358	2522.24
722.545	2563.2
722.732	2395.27
722.919	2536.58
723.106	2512
723.293	2583.68
723.48	2362.5
723.667	2458.76
723.853	2286.73
724.04	2501.76
724.227	2499.72
724.414	2380.93
724.6	2555.01
724.787	2512
724.974	2516.1
725.161	2385.03
725.347	2466.95
725.534	2585.73
725.72	2454.66
725.907	2399.37
726.094	2423.94
726.28	2374.79
726.467	2315.4
726.653	2372.74
726.84	2407.56
727.027	2489.48
727.213	2358.41
727.4	2393.22
727.586	2471.04
727.773	2344.07
727.959	2432.13
728.145	2491.52
728.332	2387.08
728.518	2399.37
728.705	2327.69
728.891	2477.19
729.077	2354.31
729.264	2362.5
729.45	2487.43
729.636	2477.19
729.823	2452.61
730.009	2491.52
730.195	2421.89
730.382	2374.79
730.568	2344.07
730.754	2434.18
730.94	2407.56
731.126	2385.03
731.313	2444.42
731.499	2368.65
731.685	2397.32
731.871	2311.3
732.057	2393.22
732.243	2339.97
732.429	2339.97
732.615	2374.79
732.801	2331.78
732.987	2407.56
733.173	2413.7
733.359	2327.69
733.545	2364.55
733.731	2411.65
733.917	2301.06
734.103	2337.93
734.289	2342.02
734.475	2266.25
734.661	2413.7
734.847	2350.21
735.033	2299.02
735.219	2370.69
735.404	2270.34
735.59	2411.65
735.776	2280.58
735.962	2294.92
736.148	2356.36
736.333	2256.01
736.519	2217.1
736.705	2415.75
736.89	2253.96
737.076	2335.88
737.262	2176.14
737.447	2290.82
737.633	2215.05
737.819	2364.55
738.004	2276.49
738.19	2331.78
738.375	2227.34
738.561	2174.09
738.747	2227.34
738.932	2165.9
739.118	2268.3
739.303	2112.65
739.489	2104.46
739.674	2178.19
739.859	2159.75
740.045	2237.58
740.23	2206.86
740.416	2145.42
740.601	2284.68
740.786	2069.64
740.972	2073.74
741.157	2129.03
741.342	2217.1
741.528	2075.79
741.713	2145.42
741.898	2118.79
742.084	2073.74
742.269	2108.55
742.454	2151.56
742.639	2075.79
742.824	2063.5
743.01	2083.98
743.195	2077.83
743.38	2055.31
743.565	2059.4
743.75	2163.85
743.935	1930.38
744.12	2077.83
744.305	1995.92
744.49	2038.92
744.675	2022.54
744.86	2016.4
745.045	1893.52
745.23	1950.86
745.415	1873.04
745.6	2002.06
745.785	1979.53
745.97	1967.24
746.155	1934.48
746.34	1907.85
746.525	1809.55
746.71	1901.71
746.895	1811.6
747.079	1787.02
747.264	1852.56
747.449	1942.67
747.634	1954.96
747.819	1741.97
748.003	1789.07
748.188	1748.11
748.373	1774.74
748.557	1787.02
748.742	1719.44
748.927	1723.54
749.111	1698.96
749.296	1703.06
749.481	1662.1
749.665	1639.57
749.85	1643.67
750.034	1619.09
750.219	1658
750.404	1635.47
750.588	1633.43
750.773	1592.47
750.957	1594.51
751.141	1551.51
751.326	1561.75
751.51	1571.99
751.695	1580.18
751.879	1514.64
752.064	1514.64
752.248	1518.74
752.432	1567.89
752.617	1561.75
752.801	1490.07
752.985	1496.21
753.17	1397.91
753.354	1502.36
753.538	1434.77
753.722	1475.73
753.907	1440.92
754.091	1436.82
754.275	1473.68
754.459	1344.66
754.643	1465.49
754.828	1363.09
755.012	1465.49
755.196	1393.81
755.38	1363.09
755.564	1467.54
755.748	1279.13
755.932	1303.7
756.116	1266.84
756.3	1322.13
756.484	1225.88
756.668	1313.94
756.852	1201.3
757.036	1207.45
757.22	1264.79
757.404	1221.78
757.588	1318.04
757.772	1309.85
757.956	1277.08
758.14	1176.73
758.323	1172.63
758.507	1227.93
758.691	1287.32
758.875	1223.83
759.059	1207.45
759.242	1141.91
759.426	1137.82
759.61	1184.92
759.794	1121.43
759.977	1072.28
760.161	1152.15
760.345	1193.11
760.528	1064.09
760.712	1092.76
760.895	1135.77
761.079	1201.3
761.263	1150.11
761.446	1053.85
761.63	1098.91
761.813	1059.99
761.997	1074.33
762.18	1143.96
762.364	1100.95
762.547	1006.75
762.731	1059.99
762.914	1035.42
763.098	994.46
763.281	928.92
763.464	1006.75
763.648	1021.08
763.831	1119.39
764.015	1107.1
764.198	1016.99
764.381	1010.84
764.564	1000.6
764.748	894.11
764.931	984.22
765.114	867.49
765.297	1023.13
765.481	894.11
765.664	1039.51
765.847	976.03
766.03	904.35
766.213	961.69
766.397	939.16
766.58	865.44
766.763	957.6
766.946	902.3
767.129	892.06
767.312	953.5
767.495	949.4
767.678	982.17
767.861	978.08
768.044	943.26
768.227	980.12
768.41	947.36
768.593	937.12
768.776	900.25
768.959	918.68
769.142	933.02
769.324	824.48
769.507	859.29
769.69	826.53
769.873	822.43
770.056	963.74
770.239	783.52
770.421	904.35
770.604	857.25
770.787	814.24
770.97	908.44
771.152	867.49
771.335	797.85
771.518	787.61
771.7	818.33
771.883	820.38
772.066	822.43
772.248	816.29
772.431	832.67
772.613	810.14
772.796	726.18
772.978	769.18
773.161	760.99
773.343	834.72
773.526	793.76
773.708	834.72
773.891	709.79
774.073	695.46
774.256	767.13
774.438	799.9
774.621	681.12
774.803	816.29
774.985	746.66
775.168	801.95
775.35	746.66
775.532	726.18
775.715	758.94
775.897	664.74
776.079	652.45
776.261	709.79
776.444	662.69
776.626	613.54
776.808	717.98
776.99	564.39
777.173	681.12
777.355	715.94
777.537	597.15
777.719	687.26
777.901	654.5
778.083	644.26
778.265	629.92
778.447	697.5
778.629	568.48
778.811	597.15
778.993	619.68
779.175	722.08
779.357	599.2
779.539	607.39
779.721	615.59
779.903	570.53
780.085	623.78
780.267	613.54
780.449	543.91
780.631	593.06
780.812	672.93
780.994	572.58
781.176	455.84
781.358	533.67
781.54	519.33
781.721	566.43
781.903	593.06
782.085	523.43
782.267	545.95
782.448	486.56
782.63	535.71
782.812	484.52
782.993	447.65
783.175	513.19
783.357	494.76
783.538	562.34
783.72	595.11
783.901	529.57
784.083	445.6
784.264	513.19
784.446	482.47
784.627	388.26
784.809	490.66
784.99	437.41
785.172	433.32
785.353	341.16
785.535	416.93
785.716	445.6
785.897	427.17
786.079	472.23
786.26	435.36
786.441	439.46
786.623	423.08
786.804	402.6
786.985	390.31
787.167	437.41
787.348	431.27
787.529	402.6
787.71	468.13
787.891	386.21
788.073	449.7
788.254	392.36
788.435	388.26
788.616	384.16
788.797	431.27
788.978	351.4
789.159	398.5
789.34	380.07
789.522	400.55
789.703	357.54
789.884	363.69
790.065	412.84
790.246	386.21
790.427	332.97
790.607	406.69
790.788	388.26
790.969	355.49
791.15	355.49
791.331	355.49
791.512	287.91
791.693	351.4
791.874	335.01
792.054	414.88
792.235	259.24
792.416	306.34
792.597	343.21
792.778	320.68
792.958	318.63
793.139	330.92
793.32	226.47
793.5	275.62
793.681	355.49
793.862	281.77
794.042	300.2
794.223	273.57
794.404	281.77
794.584	318.63
794.765	304.29
794.945	296.1
795.126	339.11
795.306	304.29
795.487	273.57
795.667	332.97
795.848	242.85
796.028	294.05
796.209	265.38
796.389	302.25
796.57	224.42
796.75	240.81
796.93	314.53
797.111	296.1
797.291	279.72
797.471	294.05
797.652	292.01
797.832	281.77
798.012	259.24
798.192	285.86
798.373	294.05
798.553	267.43
798.733	273.57
798.913	275.62
799.093	242.85
799.274	326.82
799.454	308.39
799.634	218.28
799.814	273.57
799.994	228.52
800.174	265.38
800.354	234.66
800.534	240.81
800.714	179.37
800.894	228.52
801.074	148.65
801.254	193.7
801.434	292.01
801.614	187.56
801.794	197.8
801.974	623.78
802.154	187.56
802.334	230.57
802.514	175.27
802.693	265.38
802.873	107.69
803.053	220.33
803.233	263.33
803.413	191.66
803.592	162.98
803.772	236.71
803.952	257.19
804.131	162.98
804.311	146.6
804.491	259.24
804.67	269.48
804.85	201.9
805.03	249
805.209	193.7
805.389	232.62
805.568	195.75
805.748	189.61
805.928	226.47
806.107	185.51
806.287	171.18
806.466	279.72
806.646	218.28
806.825	169.13
807.004	177.32
807.184	156.84
807.363	218.28
807.543	144.55
807.722	179.37
807.901	183.46
808.081	216.23
808.26	171.18
808.439	214.18
808.619	205.99
808.798	261.29
808.977	128.17
809.156	187.56
809.336	169.13
809.515	205.99
809.694	224.42
809.873	214.18
810.052	236.71
810.231	162.98
810.411	175.27
810.59	173.22
810.769	193.7
810.948	244.9
811.127	85.16
811.306	124.07
811.485	150.7
811.664	203.94
811.843	167.08
812.022	203.94
812.201	115.88
812.38	218.28
812.559	99.5
812.737	142.5
812.916	154.79
813.095	152.74
813.274	150.7
813.453	249
813.632	232.62
813.811	136.36
813.989	85.16
814.168	156.84
814.347	124.07
814.526	154.79
814.704	203.94
814.883	179.37
815.062	140.46
815.24	136.36
815.419	128.17
815.598	85.16
815.776	150.7
815.955	128.17
816.133	60.59
816.312	255.14
816.49	105.64
816.669	140.46
816.847	85.16
817.026	230.57
817.204	175.27
817.383	201.9
817.561	167.08
817.74	146.6
817.918	150.7
818.097	162.98
818.275	109.74
818.453	136.36
818.632	68.78
818.81	70.83
818.988	171.18
819.167	205.99
819.345	72.87
819.523	87.21
819.701	132.26
819.879	162.98
820.058	142.5
820.236	140.46
820.414	195.75
820.592	128.17
820.77	130.22
820.948	119.98
821.127	83.11
821.305	162.98
821.483	179.37
821.661	134.31
821.839	167.08
822.017	162.98
822.195	76.97
822.373	128.17
822.551	103.59
822.729	122.02
822.907	79.02
823.085	72.87
823.262	105.64
823.44	126.12
823.618	99.5
823.796	99.5
823.974	122.02
824.152	103.59
824.329	70.83
824.507	119.98
824.685	93.35
824.863	56.49
825.04	160.94
825.218	142.5
825.396	95.4
825.574	95.4
825.751	150.7
825.929	79.02
826.107	113.83
826.284	158.89
826.462	89.26
826.639	85.16
826.817	95.4
826.994	128.17
827.172	70.83
827.349	144.55
827.527	111.78
827.704	179.37
827.882	101.55
828.059	89.26
828.237	79.02
828.414	115.88
828.591	95.4
828.769	134.31
828.946	-0.85
829.124	54.44
829.301	154.79
829.478	83.11
829.655	97.45
829.833	54.44
830.01	81.07
830.187	97.45
830.364	52.39
830.542	107.69
830.719	33.96
830.896	144.55
831.073	142.5
831.25	62.63
831.427	74.92
831.604	107.69
831.782	113.83
831.959	117.93
832.136	95.4
832.313	97.45
832.49	93.35
832.667	126.12
832.844	48.3
833.021	128.17
833.198	60.59
833.374	1.19
833.551	66.73
833.728	132.26
833.905	109.74
834.082	52.39
834.259	128.17
834.436	162.98
834.612	27.82
834.789	126.12
834.966	19.63
835.143	95.4
835.319	54.44
835.496	111.78
835.673	48.3
835.85	83.11
836.026	97.45
836.203	101.55
836.38	68.78
836.556	93.35
836.733	81.07
836.909	54.44
837.086	64.68
837.262	52.39
837.439	126.12
837.616	54.44
837.792	13.48
837.968	15.53
838.145	31.91
838.321	-27.48
838.498	54.44
838.674	40.11
838.851	99.5
839.027	25.77
839.203	85.16
839.38	103.59
839.556	48.3
839.732	109.74
839.909	40.11
840.085	50.35
840.261	44.2
840.437	134.31
840.614	-31.57
840.79	62.63
840.966	64.68
841.142	58.54
841.318	60.59
841.494	76.97
841.671	130.22
841.847	38.06
842.023	58.54
842.199	68.78
842.375	124.07
842.551	64.68
842.727	66.73
842.903	13.48
843.079	40.11
843.255	58.54
843.431	95.4
843.607	101.55
843.783	7.34
843.959	66.73
844.134	74.92
844.31	107.69
844.486	42.15
844.662	58.54
844.838	132.26
845.013	54.44
845.189	83.11
845.365	95.4
845.541	1.19
845.716	91.31
845.892	72.87
846.068	29.87
846.244	31.91
846.419	40.11
846.595	36.01
846.77	101.55
846.946	72.87
847.122	60.59
847.297	109.74
847.473	48.3
847.648	19.63
847.824	9.39
847.999	27.82
848.175	21.67
848.35	74.92
848.526	126.12
848.701	42.15
848.876	66.73
849.052	19.63
849.227	70.83
849.403	66.73
849.578	91.31
849.753	46.25
849.929	103.59
850.104	76.97
850.279	52.39
850.454	29.87
850.63	83.11
850.805	115.88
850.98	21.67
851.155	11.43
851.33	54.44
851.505	31.91
851.681	105.64
851.856	-4.95
852.031	29.87
852.206	46.25
852.381	5.29
852.556	40.11
852.731	60.59
852.906	3.24
853.081	66.73
853.256	52.39
853.431	38.06
853.606	-31.57
853.781	13.48
853.956	-15.19
854.131	83.11
854.305	-0.85
854.48	50.35
854.655	38.06
854.83	9.39
855.005	-25.43
855.18	-0.85
855.354	33.96
855.529	79.02
855.704	93.35
855.879	27.82
856.053	21.67
856.228	66.73
856.403	-23.38
856.577	60.59
856.752	11.43
856.926	64.68
857.101	103.59
857.276	17.58
857.45	64.68
857.625	46.25
857.799	-35.67
857.974	7.34
858.148	27.82
858.323	72.87
858.497	33.96
858.672	27.82
858.846	27.82
859.02	62.63
859.195	74.92
859.369	85.16
859.543	9.39
859.718	13.48
859.892	25.77
860.066	23.72
860.241	5.29
860.415	-7
860.589	33.96
860.763	44.2
860.938	-4.95
861.112	33.96
861.286	68.78
861.46	52.39
861.634	85.16
861.808	31.91
861.982	70.83
862.157	91.31
862.331	62.63
862.505	27.82
862.679	9.39
862.853	60.59
863.027	33.96
863.201	62.63
863.375	40.11
863.549	19.63
863.722	95.4
863.896	-11.09
864.07	-23.38
864.244	-2.9
864.418	3.24
864.592	19.63
864.766	-13.14
864.939	9.39
865.113	19.63
865.287	40.11
865.461	40.11
865.634	36.01
865.808	-2.9
865.982	40.11
866.156	-0.85
866.329	21.67
866.503	29.87
866.676	60.59
866.85	7.34
867.024	56.49
867.197	54.44
867.371	29.87
867.544	33.96
867.718	72.87
867.891	-50
868.065	11.43
868.238	38.06
868.412	52.39
868.585	-13.14
868.759	40.11
868.932	-0.85
869.105	-9.05
869.279	40.11
869.452	-19.29
869.625	3.24
869.799	56.49
869.972	15.53
870.145	5.29
870.319	40.11
870.492	13.48
870.665	3.24
870.838	-19.29
871.011	-50
871.185	25.77
871.358	46.25
871.531	50.35
871.704	15.53
871.877	-43.86
872.05	60.59
872.223	56.49
872.396	70.83
872.569	48.3
872.742	38.06
872.915	29.87
873.088	-2.9
873.261	56.49
873.434	50.35
873.607	66.73
873.78	5.29
873.953	48.3
874.126	40.11
874.299	-11.09
874.471	-52.05
874.644	52.39
874.817	42.15
874.99	13.48
875.163	-9.05
875.335	27.82
875.508	97.45
875.681	-17.24
875.853	3.24
876.026	19.63
876.199	56.49
876.371	13.48
876.544	60.59
876.717	-19.29
876.889	-21.33
877.062	-15.19
877.234	-31.57
877.407	81.07
877.579	13.48
877.752	27.82
877.924	-0.85
878.097	36.01
878.269	-23.38
878.442	50.35
878.614	87.21
878.786	46.25
878.959	-0.85
879.131	97.45
879.303	-45.91
879.476	7.34
879.648	-7
879.82	23.72
879.993	13.48
880.165	3.24
880.337	54.44
880.509	-2.9
880.681	64.68
880.854	1.19
881.026	52.39
881.198	-11.09
881.37	27.82
881.542	66.73
881.714	54.44
881.886	42.15
882.058	-31.57
882.23	1.19
882.402	-23.38
882.574	93.35
882.746	68.78
882.918	113.83
883.09	11.43
883.262	31.91
883.434	3.24
883.606	-25.43
883.778	33.96
883.95	48.3
884.122	42.15
884.293	140.46
884.465	64.68
884.637	50.35
884.809	-17.24
884.98	17.58
885.152	27.82
885.324	7.34
885.496	76.97
885.667	11.43
885.839	19.63
886.011	9.39
886.182	3.24
886.354	25.77
886.525	-7
886.697	-19.29
886.869	44.2
887.04	-27.48
887.212	72.87
887.383	99.5
887.555	-9.05
887.726	17.58
887.897	33.96
888.069	-19.29
888.24	42.15
888.412	83.11
888.583	-0.85
888.754	15.53
888.926	31.91
889.097	-39.76
889.268	25.77
889.44	70.83
889.611	-47.96
889.782	-54.1
889.953	-37.72
890.125	23.72
890.296	-13.14
890.467	50.35
890.638	76.97
890.809	1.19
890.98	25.77
891.151	52.39
891.323	44.2
891.494	7.34
891.665	-17.24
891.836	58.54
892.007	52.39
892.178	-0.85
892.349	33.96
892.52	-43.86
892.691	9.39
892.862	36.01
893.032	3.24
893.203	105.64
893.374	21.67
893.545	52.39
893.716	19.63
893.887	60.59
894.057	-2.9
894.228	44.2
894.399	-45.91
894.57	74.92
894.74	64.68
894.911	25.77
895.082	-31.57
895.253	31.91
895.423	29.87
895.594	13.48
895.764	36.01
895.935	42.15
896.106	29.87
896.276	31.91
896.447	-13.14
896.617	62.63
896.788	-25.43
896.958	79.02
897.129	-21.33
897.299	72.87
897.47	-35.67
897.64	81.07
897.81	23.72
897.981	36.01
898.151	46.25
898.322	-17.24
898.492	87.21
898.662	56.49
898.832	27.82
899.003	68.78
899.173	46.25
899.343	3.24
899.513	-70.48
