Data from USB4F104151__84__12-02-16-625.txt Node

Date: Fri Mar 14 12:02:16 EDT 2025
User: louis
Spectrometer: USB4F10415
Trigger mode: 4
Integration Time (sec): 2.000000E-2
Scans to average: 1
Electric dark correction enabled: true
Nonlinearity correction enabled: false
Boxcar width: 0
XAxis mode: Wavelengths
Number of Pixels in Spectrum: 3648
>>>>>Begin Spectral Data<<<<<
178.204	-129.88
178.424	-129.88
178.644	-129.88
178.864	-35.67
179.084	-105.3
179.304	11.43
179.524	42.15
179.744	7.34
179.964	36.01
180.184	-43.86
180.404	-86.87
180.624	9.39
180.844	-31.57
181.064	62.63
181.283	-45.91
181.503	-17.24
181.723	56.49
181.943	-21.33
182.163	9.39
182.383	36.01
182.602	72.87
182.822	31.91
183.042	31.91
183.262	19.63
183.482	50.35
183.701	-13.14
183.921	36.01
184.141	-7
184.361	-58.2
184.58	-78.68
184.8	46.25
185.02	15.53
185.239	33.96
185.459	60.59
185.679	9.39
185.898	23.72
186.118	48.3
186.338	81.07
186.557	66.73
186.777	15.53
186.997	48.3
187.216	13.48
187.436	99.5
187.655	21.67
187.875	23.72
188.095	70.83
188.314	56.49
188.534	68.78
188.753	79.02
188.973	5.29
189.192	79.02
189.412	83.11
189.631	21.67
189.851	-23.38
190.07	83.11
190.29	48.3
190.509	66.73
190.729	21.67
190.948	83.11
191.168	46.25
191.387	62.63
191.607	74.92
191.826	56.49
192.045	58.54
192.265	40.11
192.484	-4.95
192.704	91.31
192.923	21.67
193.142	48.3
193.362	36.01
193.581	72.87
193.8	29.87
194.02	9.39
194.239	93.35
194.458	23.72
194.678	58.54
194.897	48.3
195.116	15.53
195.335	93.35
195.555	64.68
195.774	11.43
195.993	50.35
196.212	50.35
196.432	-41.81
196.651	1.19
196.87	95.4
197.089	70.83
197.308	76.97
197.528	76.97
197.747	-105.3
197.966	95.4
198.185	169.13
198.404	27.82
198.623	42.15
198.842	95.4
199.062	66.73
199.281	79.02
199.5	44.2
199.719	56.49
199.938	38.06
200.157	27.82
200.376	89.26
200.595	83.11
200.814	97.45
201.033	79.02
201.252	109.74
201.471	62.63
201.69	29.87
201.909	11.43
202.128	25.77
202.347	58.54
202.566	31.91
202.785	21.67
203.004	11.43
203.223	54.44
203.442	58.54
203.661	66.73
203.879	74.92
204.098	56.49
204.317	48.3
204.536	66.73
204.755	21.67
204.974	40.11
205.193	13.48
205.411	76.97
205.63	85.16
205.849	81.07
206.068	7.34
206.287	38.06
206.505	44.2
206.724	42.15
206.943	11.43
207.162	36.01
207.381	7.34
207.599	93.35
207.818	11.43
208.037	17.58
208.255	23.72
208.474	42.15
208.693	25.77
208.911	-9.05
209.13	38.06
209.349	27.82
209.567	85.16
209.786	48.3
210.005	5.29
210.223	17.58
210.442	56.49
210.661	107.69
210.879	9.39
211.098	-0.85
211.316	58.54
211.535	95.4
211.753	91.31
211.972	128.17
212.191	91.31
212.409	74.92
212.628	-13.14
212.846	23.72
213.065	50.35
213.283	152.74
213.502	72.87
213.72	-2.9
213.938	21.67
214.157	46.25
214.375	33.96
214.594	46.25
214.812	76.97
215.031	44.2
215.249	33.96
215.467	62.63
215.686	1.19
215.904	56.49
216.122	72.87
216.341	3.24
216.559	42.15
216.778	74.92
216.996	72.87
217.214	36.01
217.432	62.63
217.651	38.06
217.869	93.35
218.087	87.21
218.306	50.35
218.524	66.73
218.742	89.26
218.96	21.67
219.179	21.67
219.397	68.78
219.615	79.02
219.833	58.54
220.051	158.89
220.27	109.74
220.488	27.82
220.706	83.11
220.924	31.91
221.142	72.87
221.36	33.96
221.578	42.15
221.796	89.26
222.015	31.91
222.233	40.11
222.451	60.59
222.669	11.43
222.887	42.15
223.105	50.35
223.323	17.58
223.541	74.92
223.759	66.73
223.977	-31.57
224.195	85.16
224.413	31.91
224.631	89.26
224.849	128.17
225.067	103.59
225.285	-9.05
225.503	-35.67
225.721	46.25
225.939	50.35
226.157	70.83
226.375	97.45
226.592	-31.57
226.81	36.01
227.028	42.15
227.246	44.2
227.464	97.45
227.682	46.25
227.9	62.63
228.117	111.78
228.335	1.19
228.553	-41.81
228.771	56.49
228.989	76.97
229.206	136.36
229.424	-41.81
229.642	48.3
229.86	40.11
230.077	50.35
230.295	40.11
230.513	52.39
230.731	105.64
230.948	23.72
231.166	15.53
231.384	38.06
231.601	13.48
231.819	109.74
232.037	15.53
232.254	33.96
232.472	85.16
232.689	91.31
232.907	81.07
233.125	54.44
233.342	-0.85
233.56	25.77
233.777	117.93
233.995	76.97
234.213	146.6
234.43	21.67
234.648	5.29
234.865	-7
235.083	62.63
235.3	40.11
235.518	76.97
235.735	79.02
235.953	93.35
236.17	46.25
236.388	111.78
236.605	66.73
236.822	56.49
237.04	64.68
237.257	56.49
237.475	-4.95
237.692	38.06
237.909	79.02
238.127	-43.86
238.344	81.07
238.562	87.21
238.779	27.82
238.996	81.07
239.214	-25.43
239.431	42.15
239.648	56.49
239.865	85.16
240.083	154.79
240.3	81.07
240.517	33.96
240.735	74.92
240.952	21.67
241.169	62.63
241.386	99.5
241.603	76.97
241.821	48.3
242.038	74.92
242.255	103.59
242.472	44.2
242.689	68.78
242.907	89.26
243.124	60.59
243.341	27.82
243.558	-13.14
243.775	42.15
243.992	66.73
244.209	68.78
244.426	91.31
244.643	99.5
244.86	15.53
245.078	44.2
245.295	60.59
245.512	76.97
245.729	17.58
245.946	42.15
246.163	48.3
246.38	-11.09
246.597	60.59
246.814	140.46
247.031	25.77
247.248	85.16
247.464	103.59
247.681	23.72
247.898	105.64
248.115	130.22
248.332	38.06
248.549	46.25
248.766	99.5
248.983	48.3
249.2	54.44
249.417	56.49
249.633	-15.19
249.85	89.26
250.067	-7
250.284	-23.38
250.501	111.78
250.717	74.92
250.934	27.82
251.151	50.35
251.368	36.01
251.585	11.43
251.801	9.39
252.018	25.77
252.235	31.91
252.451	19.63
252.668	13.48
252.885	79.02
253.102	66.73
253.318	132.26
253.535	44.2
253.752	72.87
253.968	50.35
254.185	-4.95
254.401	70.83
254.618	56.49
254.835	119.98
255.051	58.54
255.268	9.39
255.484	62.63
255.701	70.83
255.917	48.3
256.134	-11.09
256.351	-9.05
256.567	66.73
256.784	25.77
257	76.97
257.217	36.01
257.433	58.54
257.65	42.15
257.866	89.26
258.082	-37.72
258.299	38.06
258.515	54.44
258.732	99.5
258.948	38.06
259.165	83.11
259.381	-0.85
259.597	29.87
259.814	101.55
260.03	25.77
260.246	130.22
260.463	160.94
260.679	79.02
260.895	70.83
261.112	91.31
261.328	7.34
261.544	38.06
261.761	101.55
261.977	56.49
262.193	87.21
262.409	105.64
262.626	21.67
262.842	15.53
263.058	109.74
263.274	23.72
263.49	23.72
263.707	25.77
263.923	9.39
264.139	27.82
264.355	115.88
264.571	44.2
264.787	99.5
265.004	85.16
265.22	11.43
265.436	36.01
265.652	117.93
265.868	25.77
266.084	76.97
266.3	21.67
266.516	54.44
266.732	91.31
266.948	38.06
267.164	101.55
267.38	58.54
267.596	44.2
267.812	122.02
268.028	42.15
268.244	68.78
268.46	70.83
268.676	1.19
268.892	122.02
269.108	-11.09
269.324	44.2
269.54	-0.85
269.756	13.48
269.972	46.25
270.188	11.43
270.403	29.87
270.619	19.63
270.835	97.45
271.051	9.39
271.267	29.87
271.483	64.68
271.698	62.63
271.914	56.49
272.13	25.77
272.346	72.87
272.562	-4.95
272.777	81.07
272.993	54.44
273.209	13.48
273.425	48.3
273.64	19.63
273.856	111.78
274.072	54.44
274.287	105.64
274.503	81.07
274.719	70.83
274.934	56.49
275.15	13.48
275.366	23.72
275.581	3.24
275.797	13.48
276.012	56.49
276.228	64.68
276.444	48.3
276.659	158.89
276.875	58.54
277.09	89.26
277.306	62.63
277.521	89.26
277.737	44.2
277.952	128.17
278.168	74.92
278.383	58.54
278.599	-25.43
278.814	58.54
279.03	115.88
279.245	56.49
279.461	62.63
279.676	107.69
279.892	1.19
280.107	101.55
280.322	66.73
280.538	36.01
280.753	87.21
280.969	95.4
281.184	21.67
281.399	27.82
281.615	72.87
281.83	95.4
282.045	-11.09
282.26	76.97
282.476	27.82
282.691	103.59
282.906	11.43
283.122	109.74
283.337	25.77
283.552	87.21
283.767	48.3
283.983	52.39
284.198	31.91
284.413	128.17
284.628	27.82
284.843	52.39
285.058	54.44
285.274	103.59
285.489	48.3
285.704	68.78
285.919	42.15
286.134	173.22
286.349	13.48
286.564	9.39
286.779	99.5
286.995	13.48
287.21	68.78
287.425	72.87
287.64	38.06
287.855	52.39
288.07	44.2
288.285	64.68
288.5	107.69
288.715	60.59
288.93	31.91
289.145	-56.15
289.36	91.31
289.575	46.25
289.79	85.16
290.004	36.01
290.219	81.07
290.434	74.92
290.649	-74.58
290.864	148.65
291.079	13.48
291.294	138.41
291.509	74.92
291.724	38.06
291.938	36.01
292.153	99.5
292.368	44.2
292.583	60.59
292.798	50.35
293.012	27.82
293.227	64.68
293.442	48.3
293.657	79.02
293.871	68.78
294.086	-7
294.301	48.3
294.516	40.11
294.73	56.49
294.945	42.15
295.16	105.64
295.374	93.35
295.589	60.59
295.804	64.68
296.018	74.92
296.233	70.83
296.447	66.73
296.662	-19.29
296.877	89.26
297.091	105.64
297.306	83.11
297.52	72.87
297.735	44.2
297.949	52.39
298.164	40.11
298.378	46.25
298.593	109.74
298.807	27.82
299.022	44.2
299.236	89.26
299.451	140.46
299.665	66.73
299.88	66.73
300.094	85.16
300.309	89.26
300.523	31.91
300.737	31.91
300.952	68.78
301.166	72.87
301.381	36.01
301.595	48.3
301.809	46.25
302.024	74.92
302.238	1.19
302.452	60.59
302.667	27.82
302.881	136.36
303.095	85.16
303.309	136.36
303.524	62.63
303.738	58.54
303.952	64.68
304.166	62.63
304.381	31.91
304.595	119.98
304.809	-27.48
305.023	130.22
305.237	140.46
305.452	103.59
305.666	62.63
305.88	79.02
306.094	-13.14
306.308	79.02
306.522	130.22
306.736	62.63
306.95	29.87
307.164	93.35
307.379	40.11
307.593	68.78
307.807	62.63
308.021	103.59
308.235	74.92
308.449	-7
308.663	-13.14
308.877	119.98
309.091	31.91
309.305	44.2
309.519	36.01
309.733	64.68
309.947	46.25
310.161	33.96
310.374	117.93
310.588	126.12
310.802	74.92
311.016	48.3
311.23	58.54
311.444	95.4
311.658	83.11
311.872	60.59
312.085	60.59
312.299	54.44
312.513	105.64
312.727	126.12
312.941	68.78
313.154	117.93
313.368	72.87
313.582	111.78
313.796	76.97
314.009	103.59
314.223	171.18
314.437	109.74
314.651	46.25
314.864	76.97
315.078	27.82
315.292	27.82
315.505	83.11
315.719	105.64
315.933	11.43
316.146	72.87
316.36	5.29
316.573	89.26
316.787	64.68
317.001	81.07
317.214	60.59
317.428	17.58
317.641	66.73
317.855	11.43
318.068	85.16
318.282	-7
318.495	87.21
318.709	62.63
318.922	44.2
319.136	58.54
319.349	-7
319.563	83.11
319.776	-4.95
319.99	36.01
320.203	113.83
320.417	56.49
320.63	74.92
320.843	89.26
321.057	105.64
321.27	76.97
321.483	81.07
321.697	152.74
321.91	146.6
322.124	13.48
322.337	81.07
322.55	111.78
322.763	17.58
322.977	85.16
323.19	38.06
323.403	111.78
323.617	74.92
323.83	48.3
324.043	29.87
324.256	42.15
324.469	72.87
324.683	117.93
324.896	33.96
325.109	60.59
325.322	66.73
325.535	158.89
325.748	-0.85
325.962	46.25
326.175	91.31
326.388	74.92
326.601	91.31
326.814	60.59
327.027	27.82
327.24	89.26
327.453	154.79
327.666	42.15
327.879	54.44
328.092	146.6
328.305	89.26
328.518	15.53
328.731	134.31
328.944	81.07
329.157	70.83
329.37	36.01
329.583	107.69
329.796	179.37
330.009	105.64
330.222	111.78
330.435	31.91
330.648	91.31
330.861	58.54
331.073	58.54
331.286	70.83
331.499	48.3
331.712	74.92
331.925	44.2
332.138	17.58
332.35	74.92
332.563	54.44
332.776	97.45
332.989	-2.9
333.202	-13.14
333.414	72.87
333.627	97.45
333.84	158.89
334.053	25.77
334.265	-45.91
334.478	50.35
334.691	76.97
334.903	50.35
335.116	52.39
335.329	101.55
335.541	40.11
335.754	74.92
335.966	1.19
336.179	70.83
336.392	15.53
336.604	33.96
336.817	66.73
337.029	-13.14
337.242	64.68
337.454	136.36
337.667	103.59
337.88	60.59
338.092	11.43
338.305	76.97
338.517	50.35
338.729	140.46
338.942	122.02
339.154	46.25
339.367	27.82
339.579	-39.76
339.792	-13.14
340.004	3.24
340.217	79.02
340.429	42.15
340.641	21.67
340.854	21.67
341.066	95.4
341.278	113.83
341.491	79.02
341.703	124.07
341.915	83.11
342.128	119.98
342.34	95.4
342.552	70.83
342.764	91.31
342.977	83.11
343.189	87.21
343.401	124.07
343.613	42.15
343.826	124.07
344.038	122.02
344.25	15.53
344.462	97.45
344.674	56.49
344.886	40.11
345.099	89.26
345.311	111.78
345.523	83.11
345.735	105.64
345.947	58.54
346.159	85.16
346.371	36.01
346.583	97.45
346.795	85.16
347.007	72.87
347.219	119.98
347.431	60.59
347.643	38.06
347.855	-11.09
348.067	171.18
348.279	68.78
348.491	60.59
348.703	107.69
348.915	56.49
349.127	97.45
349.339	64.68
349.551	54.44
349.763	36.01
349.975	60.59
350.187	113.83
350.399	56.49
350.61	1.19
350.822	113.83
351.034	101.55
351.246	136.36
351.458	44.2
351.669	29.87
351.881	23.72
352.093	97.45
352.305	95.4
352.517	46.25
352.728	-27.48
352.94	115.88
353.152	97.45
353.363	21.67
353.575	76.97
353.787	85.16
353.999	144.55
354.21	-29.52
354.422	42.15
354.633	58.54
354.845	64.68
355.057	27.82
355.268	54.44
355.48	64.68
355.692	42.15
355.903	85.16
356.115	-0.85
356.326	13.48
356.538	93.35
356.749	42.15
356.961	81.07
357.172	31.91
357.384	50.35
357.595	36.01
357.807	74.92
358.018	72.87
358.23	138.41
358.441	136.36
358.653	48.3
358.864	122.02
359.075	44.2
359.287	99.5
359.498	76.97
359.709	91.31
359.921	62.63
360.132	36.01
360.344	83.11
360.555	70.83
360.766	177.32
360.977	89.26
361.189	60.59
361.4	29.87
361.611	81.07
361.823	25.77
362.034	93.35
362.245	138.41
362.456	52.39
362.667	5.29
362.879	68.78
363.09	-2.9
363.301	132.26
363.512	115.88
363.723	130.22
363.935	89.26
364.146	89.26
364.357	93.35
364.568	165.03
364.779	1.19
364.99	158.89
365.201	44.2
365.412	68.78
365.623	56.49
365.834	132.26
366.045	128.17
366.256	95.4
366.467	142.5
366.678	177.32
366.889	50.35
367.1	44.2
367.311	124.07
367.522	91.31
367.733	124.07
367.944	85.16
368.155	83.11
368.366	103.59
368.577	115.88
368.788	122.02
368.999	99.5
369.209	66.73
369.42	44.2
369.631	124.07
369.842	1.19
370.053	38.06
370.264	38.06
370.474	97.45
370.685	105.64
370.896	101.55
371.107	152.74
371.317	107.69
371.528	87.21
371.739	99.5
371.95	169.13
372.16	119.98
372.371	42.15
372.582	91.31
372.792	54.44
373.003	134.31
373.214	50.35
373.424	19.63
373.635	95.4
373.846	130.22
374.056	38.06
374.267	113.83
374.477	99.5
374.688	19.63
374.898	38.06
375.109	44.2
375.319	58.54
375.53	160.94
375.74	50.35
375.951	62.63
376.161	62.63
376.372	148.65
376.582	87.21
376.793	111.78
377.003	68.78
377.214	93.35
377.424	76.97
377.635	74.92
377.845	89.26
378.055	148.65
378.266	70.83
378.476	74.92
378.686	130.22
378.897	126.12
379.107	148.65
379.317	72.87
379.528	134.31
379.738	76.97
379.948	-9.05
380.158	31.91
380.369	109.74
380.579	97.45
380.789	48.3
380.999	36.01
381.21	52.39
381.42	105.64
381.63	42.15
381.84	162.98
382.05	126.12
382.261	101.55
382.471	119.98
382.681	13.48
382.891	95.4
383.101	105.64
383.311	85.16
383.521	-50
383.731	56.49
383.941	154.79
384.151	154.79
384.361	158.89
384.571	144.55
384.781	105.64
384.991	99.5
385.201	83.11
385.411	138.41
385.621	79.02
385.831	52.39
386.041	122.02
386.251	72.87
386.461	72.87
386.671	42.15
386.881	101.55
387.091	183.46
387.301	113.83
387.511	50.35
387.72	68.78
387.93	89.26
388.14	31.91
388.35	115.88
388.56	97.45
388.769	50.35
388.979	62.63
389.189	52.39
389.399	85.16
389.609	38.06
389.818	74.92
390.028	130.22
390.238	173.22
390.447	97.45
390.657	109.74
390.867	130.22
391.076	74.92
391.286	142.5
391.496	177.32
391.705	101.55
391.915	214.18
392.125	42.15
392.334	162.98
392.544	185.51
392.753	87.21
392.963	95.4
393.172	91.31
393.382	56.49
393.591	162.98
393.801	122.02
394.01	130.22
394.22	109.74
394.429	87.21
394.639	99.5
394.848	91.31
395.058	109.74
395.267	68.78
395.477	138.41
395.686	140.46
395.895	99.5
396.105	117.93
396.314	111.78
396.524	105.64
396.733	124.07
396.942	142.5
397.152	158.89
397.361	205.99
397.57	134.31
397.78	93.35
397.989	105.64
398.198	208.04
398.407	83.11
398.617	169.13
398.826	93.35
399.035	124.07
399.244	115.88
399.453	175.27
399.663	150.7
399.872	208.04
400.081	201.9
400.29	191.66
400.499	128.17
400.708	191.66
400.917	117.93
401.127	171.18
401.336	212.14
401.545	195.75
401.754	165.03
401.963	142.5
402.172	107.69
402.381	195.75
402.59	220.33
402.799	162.98
403.008	148.65
403.217	218.28
403.426	220.33
403.635	109.74
403.844	138.41
404.053	195.75
404.262	197.8
404.471	210.09
404.68	160.94
404.888	337.06
405.097	173.22
405.306	257.19
405.515	220.33
405.724	226.47
405.933	257.19
406.142	191.66
406.35	154.79
406.559	253.09
406.768	283.81
406.977	201.9
407.185	322.73
407.394	292.01
407.603	322.73
407.812	384.16
408.02	308.39
408.229	273.57
408.438	386.21
408.646	328.87
408.855	316.58
409.064	296.1
409.272	390.31
409.481	443.56
409.69	308.39
409.898	322.73
410.107	410.79
410.315	451.75
410.524	545.95
410.733	474.28
410.941	466.08
411.15	548
411.358	601.25
411.567	572.58
411.775	591.01
411.984	552.1
412.192	611.49
412.401	568.48
412.609	648.35
412.818	713.89
413.026	709.79
413.234	787.61
413.443	736.42
413.651	769.18
413.86	842.91
414.068	867.49
414.276	910.49
414.485	879.77
414.693	957.6
414.901	951.45
415.11	947.36
415.318	998.56
415.526	1082.52
415.734	1103
415.943	1098.91
416.151	1201.3
416.359	1260.7
416.567	1297.56
416.776	1326.23
416.984	1377.43
417.192	1399.96
417.4	1367.19
417.608	1328.28
417.817	1543.32
418.025	1551.51
418.233	1692.82
418.441	1561.75
418.649	1758.35
418.857	1784.98
419.065	1911.95
419.273	1854.61
419.481	1914
419.689	2077.83
419.897	2221.19
420.105	2204.81
420.313	2309.26
420.521	2335.88
420.729	2479.24
420.937	2507.91
421.145	2598.02
421.353	2712.71
421.561	2743.42
421.769	2862.21
421.977	2991.23
422.185	3054.72
422.393	3060.86
422.601	3394.68
422.809	3261.56
423.017	3388.53
423.224	3507.32
423.432	3626.1
423.64	3665.01
423.848	3855.47
424.056	3941.49
424.263	4105.32
424.471	4234.35
424.679	4177
424.887	4326.5
425.094	4744.29
425.302	4684.9
425.51	4877.41
425.718	4947.04
425.925	5076.06
426.133	5055.58
426.341	5428.31
426.548	5735.51
426.756	5794.9
426.964	5958.74
427.171	6048.85
427.379	6233.16
427.586	6419.53
427.794	6521.93
428.001	7027.78
428.209	7248.96
428.417	7042.11
428.624	7621.69
428.832	7492.66
429.039	7330.87
429.247	7466.04
429.454	8381.48
429.662	8731.69
429.869	8234.03
430.076	8899.62
430.284	8633.38
430.491	8895.52
430.699	9589.78
430.906	9436.19
431.114	9522.2
431.321	10048.53
431.528	10460.17
431.736	10736.65
431.943	11265.02
432.15	11041.79
432.358	11162.62
432.565	11871.22
432.772	11602.94
432.979	12305.39
433.187	12454.89
433.394	12438.51
433.601	13272.03
433.808	13419.49
434.016	13411.29
434.223	13978.58
434.43	14756.81
434.637	14427.09
434.844	15252.42
435.052	15641.53
435.259	15582.14
435.466	15774.65
435.673	15416.26
435.88	16542.64
436.087	17693.6
436.294	17505.18
436.501	17038.25
436.708	17357.73
436.915	17961.88
437.122	18934.67
437.329	18561.94
437.537	19315.59
437.743	19549.06
437.95	19473.28
438.157	20654.96
438.364	21269.35
438.571	21093.22
438.778	21242.73
438.985	23192.39
439.192	22481.75
439.399	23239.5
439.606	22541.14
439.813	23806.78
440.02	25236.27
440.227	24720.18
440.433	24515.38
440.64	25316.14
440.847	25158.44
441.054	25750.31
441.261	27712.26
441.467	26958.61
441.674	27372.3
441.881	28400.38
442.088	28572.41
442.294	28072.7
442.501	29264.62
442.708	29940.45
442.914	30581.46
443.121	32301.76
443.328	31234.77
443.534	33802.92
443.741	32705.21
443.948	31783.62
444.154	34167.46
444.361	34075.3
444.568	34511.52
444.774	34421.41
444.981	34675.35
445.187	35381.9
445.394	37167.73
445.6	36184.71
445.807	40473.15
446.013	38793.82
446.22	39055.96
446.426	40772.16
446.633	41048.63
446.839	42228.26
447.046	40561.22
447.252	42900
447.459	43227.67
447.665	42992.15
447.871	44057.1
448.078	46741.99
448.284	44218.89
448.491	45300.22
448.697	47018.46
448.903	47677.91
449.11	47778.26
449.316	47049.18
449.522	47974.86
449.728	49439.16
449.935	49144.25
450.141	49525.17
450.347	50674.09
450.553	49240.51
450.76	49502.65
450.966	51063.2
451.172	50790.82
451.378	51880.34
451.584	50727.33
451.791	51669.4
451.997	51947.92
452.203	52629.9
452.409	52533.64
452.615	52318.6
452.821	50596.26
453.027	49928.62
453.233	52597.13
453.44	50217.39
453.646	51206.56
453.852	51229.08
454.058	51800.47
454.264	50502.06
454.47	51558.81
454.676	50196.91
454.882	52025.74
455.088	47366.62
455.294	47886.8
455.5	48925.12
455.705	49435.06
455.911	47249.88
456.117	46371.3
456.323	45441.53
456.529	43297.3
456.735	45267.45
456.941	44012.04
457.147	43407.89
457.352	41894.44
457.558	41607.73
457.764	41488.95
457.97	40682.05
458.176	39922.25
458.381	39830.09
458.587	37755.5
458.793	38277.73
458.999	36385.41
459.204	38468.19
459.41	37542.51
459.616	35082.9
459.821	34853.53
460.027	35003.03
460.233	34241.18
460.438	32479.93
460.644	32991.92
460.85	31122.13
461.055	30796.5
461.261	30823.12
461.466	28685.04
461.672	27308.81
461.878	29754.08
462.083	27732.74
462.289	26995.47
462.494	26960.66
462.7	25856.8
462.905	24742.71
463.111	25895.71
463.316	25987.87
463.522	25490.21
463.727	25625.38
463.932	25531.17
464.138	25318.18
464.343	25140.01
464.549	24490.8
464.754	25383.72
464.959	24826.67
465.165	24785.71
465.37	24011.58
465.575	23663.43
465.781	24355.64
465.986	24331.06
466.191	23530.31
466.397	22979.4
466.602	21797.73
466.807	22772.56
467.012	22375.25
467.218	22715.22
467.423	22182.74
467.628	22836.05
467.833	23417.67
468.038	22494.04
468.244	21936.99
468.449	22743.89
468.654	21953.37
468.859	21549.92
469.064	21812.06
469.269	20757.36
469.474	21119.85
469.679	21304.17
469.885	20736.88
470.09	21013.35
470.295	21035.88
470.5	20351.86
470.705	20566.9
470.91	19999.61
471.115	19977.08
471.32	20032.38
471.525	20163.45
471.73	19598.21
471.935	19434.37
472.139	18834.32
472.344	19028.87
472.549	18877.32
472.754	18613.13
472.959	18451.35
473.164	17828.76
473.369	17701.79
473.574	18328.47
473.778	18314.13
473.983	17685.4
474.188	17775.52
474.393	17124.26
474.598	17304.48
474.802	16888.74
475.007	16927.66
475.212	17046.44
475.417	16321.46
475.621	16098.23
475.826	16272.31
476.031	15895.48
476.235	15731.64
476.44	16063.41
476.645	15754.17
476.849	15655.87
477.054	15418.3
477.259	15225.79
477.463	14951.37
477.668	14715.85
477.872	14994.37
478.077	14662.6
478.282	14341.07
478.486	14474.19
478.691	14226.39
478.895	14253.01
479.1	14095.32
479.304	14212.05
479.509	13691.87
479.713	13837.27
479.918	13675.48
480.122	13394.91
480.326	13818.84
480.531	13732.83
480.735	13452.25
480.94	13704.15
481.144	13933.53
481.348	13257.7
481.553	13151.2
481.757	13116.39
481.961	13304.8
482.166	13237.22
482.37	13220.83
482.574	12956.64
482.778	13134.82
482.983	13296.61
483.187	13116.39
483.391	13179.87
483.595	12927.97
483.8	12977.12
484.004	13200.35
484.208	13263.84
484.412	12948.45
484.616	13116.39
484.821	13239.26
485.025	12977.12
485.229	13100
485.433	13040.61
485.637	13110.24
485.841	12776.42
486.045	13034.47
486.249	12979.17
486.453	13057
486.657	13130.72
486.861	13122.53
487.065	12966.88
487.269	13102.05
487.473	12915.69
487.677	12991.46
487.881	13147.11
488.085	13038.56
488.289	13210.59
488.493	13073.38
488.697	12981.22
488.901	13102.05
489.105	13255.65
489.309	13284.32
489.512	13269.98
489.716	13169.63
489.92	13491.16
490.124	13134.82
490.328	13452.25
490.531	13444.06
490.735	13353.95
490.939	13577.18
491.143	13376.48
491.346	13376.48
491.55	13624.28
491.754	13442.01
491.958	13800.41
492.161	13730.78
492.365	13937.62
492.569	13585.37
492.772	13917.14
492.976	13927.38
493.18	14052.31
493.383	14107.6
493.587	14574.54
493.79	14285.78
493.994	14283.73
494.197	14535.63
494.401	14455.76
494.605	14535.63
494.808	14687.18
495.012	14859.21
495.215	14808.01
495.419	14986.18
495.622	14906.31
495.825	15301.57
496.029	15221.7
496.232	15487.93
496.436	15520.7
496.639	16022.45
496.843	15623.1
497.046	15940.54
497.249	16128.95
497.453	16321.46
497.656	16300.98
497.859	16415.66
498.063	16628.65
498.266	17079.21
498.469	17066.92
498.673	17019.81
498.876	17413.02
499.079	17732.51
499.282	17519.52
499.485	18295.7
499.689	18045.85
499.892	18199.44
500.095	18776.97
500.298	18854.79
500.501	18588.56
500.705	19243.91
500.908	19452.8
501.111	19209.09
501.314	19657.6
501.517	19848.06
501.72	20218.74
501.923	20050.81
502.126	20702.06
502.329	20870
502.532	20880.24
502.735	21199.72
502.938	21461.86
503.141	21701.47
503.344	21871.45
503.547	21939.04
503.75	22352.73
503.953	22369.11
504.156	22934.35
504.359	22958.92
504.562	23221.06
504.765	23751.49
504.968	23688
505.17	24267.58
505.373	23935.81
505.576	24363.83
505.779	24462.13
505.982	24939.31
506.185	25615.14
506.387	25563.94
506.59	25692.96
506.793	26360.6
506.996	26045.21
507.198	27065.1
507.401	26712.85
507.604	27202.32
507.807	27532.04
508.009	27632.39
508.212	28115.71
508.415	28128
508.617	28570.36
508.82	28437.24
509.022	28486.39
509.225	29127.41
509.428	29178.61
509.63	29580.01
509.833	29956.83
510.035	30700.25
510.238	30571.22
510.44	30638.81
510.643	31058.64
510.845	31361.74
511.048	31226.57
511.25	31759.05
511.453	31990.47
511.655	33559.21
511.858	32584.38
512.06	33163.95
512.262	33598.12
512.465	33057.46
512.667	34077.35
512.87	34507.42
513.072	34370.21
513.274	34953.88
513.477	35336.85
513.679	35828.36
513.881	35811.98
514.084	36174.47
514.286	36121.22
514.488	36430.46
514.69	37556.85
514.893	37452.4
515.095	37526.13
515.297	38070.89
515.499	38308.45
515.701	38589.02
515.904	39025.24
516.106	39195.22
516.308	39357.01
516.51	39625.29
516.712	39973.45
516.914	40530.5
517.116	40815.16
517.318	41032.25
517.52	41030.2
517.722	41873.96
517.925	42158.63
518.127	42695.2
518.329	42646.05
518.531	42437.16
518.733	43389.46
518.935	43375.12
519.136	43764.24
519.338	44167.69
519.54	43919.88
519.742	44757.5
519.944	44704.26
520.146	45455.86
520.348	45421.05
520.55	45556.21
520.752	46268.9
520.954	46514.66
521.155	46180.84
521.357	46926.3
521.559	47133.15
521.761	47725.01
521.963	47448.53
522.164	47921.62
522.366	48331.21
522.568	48603.59
522.77	48855.49
522.971	49519.03
523.173	49365.43
523.375	49951.15
523.576	49758.64
523.778	49729.97
523.98	50370.99
524.181	50717.09
524.383	50344.36
524.584	51603.86
524.786	50997.66
524.988	51020.19
525.189	51956.11
525.391	51954.07
525.592	52023.7
525.794	51947.92
525.995	52144.53
526.197	52228.49
526.398	52480.39
526.6	52722.05
526.801	52627.85
527.003	53311.87
527.204	52945.28
527.406	53344.64
527.607	53275.01
527.808	53590.39
528.01	52906.37
528.211	53531
528.412	54065.52
528.614	54200.69
528.815	53987.7
529.016	54536.55
529.218	54100.34
529.419	54466.92
529.62	54335.85
529.822	54057.33
530.023	54382.96
530.224	54712.68
530.425	54356.33
530.626	54415.72
530.828	54372.72
531.029	55433.56
531.23	54634.86
531.431	54901.09
531.632	54786.41
531.833	55185.76
532.035	54737.26
532.236	54681.96
532.437	55466.33
532.638	55030.11
532.839	55318.88
533.04	55144.8
533.241	54763.88
533.442	55918.93
533.643	55179.62
533.844	55218.53
534.045	54874.47
534.246	54475.12
534.447	55527.77
534.648	55187.81
534.849	55208.29
535.05	54837.61
535.251	55155.04
535.451	54872.42
535.652	55531.87
535.853	54909.28
536.054	55189.86
536.255	55122.27
536.456	54909.28
536.657	55482.72
536.857	54788.45
537.058	54634.86
537.259	55130.47
537.46	55060.83
537.66	54798.69
537.861	54872.42
538.062	54770.02
538.263	54876.52
538.463	54575.47
538.664	54684.01
538.865	55032.16
539.065	55400.8
539.266	54139.25
539.466	54892.9
539.667	54145.39
539.868	55132.51
540.068	54614.38
540.269	54477.16
540.469	54722.92
540.67	54462.83
540.87	54559.08
541.071	54325.61
541.271	54839.65
541.472	54456.68
541.672	54296.94
541.873	54118.77
542.073	53385.6
542.274	54866.28
542.474	54036.85
542.675	54092.15
542.875	54573.42
543.075	54174.06
543.276	53905.78
543.476	54714.73
543.676	54002.03
543.877	53934.45
544.077	53866.87
544.277	54028.66
544.478	53922.16
544.678	53903.73
544.878	53977.46
545.078	53645.69
545.279	53449.08
545.479	53852.53
545.679	53676.41
545.879	53430.65
546.079	53467.51
546.28	53516.67
546.48	53592.44
546.68	53645.69
546.88	53782.9
547.08	53444.99
547.28	53633.4
547.48	53418.36
547.68	53510.52
547.88	53361.02
548.081	53322.11
548.281	53512.57
548.481	52914.56
548.681	53467.51
548.881	53385.6
549.081	53186.94
549.28	53057.92
549.48	53504.38
549.68	53025.15
549.88	53741.94
550.08	52699.53
550.28	53313.92
550.48	52801.92
550.68	53631.35
550.88	52914.56
551.08	53221.76
551.279	53045.63
551.479	52795.78
551.679	53234.05
551.879	52922.76
552.079	53168.51
552.278	52879.75
552.478	52511.11
552.678	52289.93
552.878	52912.52
553.077	52418.95
553.277	52052.37
553.477	52769.16
553.676	52572.55
553.876	52445.58
554.076	52042.13
554.275	52212.11
554.475	51896.72
554.674	52160.91
554.874	52332.94
555.074	51988.88
555.273	52017.55
555.473	52758.92
555.672	52105.62
555.872	51779.99
556.071	52212.11
556.271	51972.5
556.47	51677.59
556.67	51521.94
556.869	51450.27
557.068	52138.38
557.268	51173.79
557.467	51523.99
557.667	51405.21
557.866	51331.48
558.065	51837.33
558.265	51311
558.464	51005.86
558.663	51444.12
558.863	50870.69
559.062	51241.37
559.261	50923.94
559.461	51573.14
559.66	50575.78
559.859	50981.28
560.058	50721.19
560.258	51413.4
560.457	50682.28
560.656	50837.92
560.855	51009.95
561.054	50917.79
561.253	50182.57
561.453	50352.55
561.652	50893.22
561.851	50629.03
562.05	50141.61
562.249	49904.05
562.448	50209.2
562.647	50264.49
562.846	49938.86
563.045	50051.5
563.244	49729.97
563.443	50715.04
563.642	49482.17
563.841	49535.41
564.04	49349.05
564.239	49899.95
564.438	49279.42
564.637	49060.29
564.836	49418.68
565.035	49115.58
565.234	49217.98
565.432	48933.31
565.631	48681.41
565.83	48888.26
566.029	48550.34
566.228	48687.56
566.427	48519.62
566.625	48296.39
566.824	47864.27
567.023	48650.69
567.222	47765.97
567.42	48114.12
567.619	47927.76
567.818	47770.07
568.016	48150.99
568.215	47997.39
568.414	48052.69
568.612	47815.12
568.811	47239.64
569.01	47804.88
569.208	47299.03
569.407	47778.26
569.605	47055.32
569.804	47501.78
570.002	46705.12
570.201	47364.57
570.4	46678.5
570.598	46739.94
570.797	46604.77
570.995	46463.46
571.193	46008.81
571.392	46811.62
571.59	46465.51
571.789	45980.14
571.987	45916.65
572.186	46301.67
572.384	45941.23
572.582	45836.78
572.781	45711.86
572.979	45318.65
573.177	46051.82
573.376	45615.6
573.574	45517.3
573.772	45394.42
573.971	44773.89
574.169	45165.05
574.367	44802.56
574.565	45148.67
574.763	44980.73
574.962	44694.02
575.16	43979.28
575.358	44988.92
575.556	44276.23
575.754	44247.56
575.952	44038.67
576.151	44726.78
576.349	44061.19
576.547	43528.72
576.745	43504.15
576.943	43704.85
577.141	43444.76
577.339	43729.42
577.537	43446.8
577.735	43604.5
577.933	42713.63
578.131	43457.04
578.329	42955.29
578.527	42168.87
578.725	42523.17
578.923	43268.63
579.121	42730.01
579.319	42478.11
579.516	42846.75
579.714	42283.56
579.912	42084.9
580.11	42138.15
580.308	42084.9
580.506	41560.62
580.704	41376.31
580.901	41949.74
581.099	41992.75
581.297	41499.19
581.495	41230.9
581.692	41011.77
581.89	40985.15
582.088	41468.47
582.285	41169.46
582.483	41247.29
582.681	40731.2
582.878	40864.32
583.076	40274.5
583.274	41050.68
583.471	39993.93
583.669	40544.83
583.866	40356.42
584.064	40337.99
584.262	39602.77
584.459	40053.32
584.657	39873.1
584.854	40010.31
585.052	39608.91
585.249	39240.28
585.447	39426.64
585.644	39004.76
585.841	39496.27
586.039	39578.19
586.236	39019.1
586.434	38845.02
586.631	38384.22
586.828	38820.44
587.026	38892.12
587.223	38593.12
587.42	38232.68
587.618	38490.72
587.815	38066.79
588.012	37626.48
588.21	37698.16
588.407	37933.67
588.604	37876.33
588.801	37513.84
588.999	37151.35
589.196	37497.45
589.393	37759.59
589.59	37177.97
589.787	37046.9
589.984	37100.15
590.182	36831.86
590.379	36975.22
590.576	36573.82
590.773	36831.86
590.97	36467.33
591.167	36258.43
591.364	36207.23
591.561	36346.5
591.758	35773.06
591.955	35674.76
592.152	36067.97
592.349	35654.28
592.546	35515.02
592.743	35732.11
592.94	34925.21
593.137	35535.5
593.334	35293.84
593.531	35078.8
593.727	35140.24
593.924	35367.57
594.121	34609.82
594.318	34794.14
594.515	34413.21
594.712	34847.38
594.908	34142.88
595.105	34321.05
595.302	34007.72
595.499	34529.95
595.696	34241.18
595.892	33962.66
596.089	34007.72
596.286	34028.2
596.482	33729.19
596.679	33436.33
596.876	33780.39
597.072	33225.39
597.269	33915.56
597.466	32819.89
597.662	33260.21
597.859	33168.05
598.055	33188.53
598.252	32725.69
598.448	32817.85
598.645	32496.31
598.841	32697.02
599.038	32316.09
599.234	32389.82
599.431	32256.7
599.627	32135.87
599.824	32217.79
600.02	31773.38
600.217	32107.2
600.413	31488.71
600.609	31476.43
600.806	31800.01
601.002	31316.68
601.198	31060.69
601.395	31245.01
601.591	31283.92
601.787	30946
601.984	30864.08
602.18	31134.42
602.376	30882.52
602.572	30735.06
602.769	30890.71
602.965	30388.95
603.161	30612.18
603.357	30563.03
603.553	30094.05
603.75	30304.99
603.946	29768.42
604.142	29930.21
604.338	29623.01
604.534	29989.6
604.73	29524.71
604.926	29369.07
605.122	29569.77
605.318	29463.27
605.514	29033.2
605.71	29113.07
605.906	29221.61
606.102	29397.74
606.298	28916.47
606.494	29217.52
606.69	29197.04
606.886	29014.77
607.082	28431.1
607.278	28678.9
607.474	28418.81
607.67	28764.92
607.866	27988.74
608.062	28381.95
608.257	28326.65
608.453	28369.66
608.649	28304.12
608.845	28211.96
609.041	28046.08
609.236	28218.11
609.432	27826.95
609.628	27968.26
609.824	27550.47
610.019	27605.77
610.215	27450.12
610.411	27927.3
610.606	27511.56
610.802	27771.65
610.998	27564.81
611.193	27333.39
611.389	27161.36
611.584	27386.63
611.78	27163.4
611.976	27128.59
612.171	27132.68
612.367	27204.36
612.562	27104.01
612.758	26731.28
612.953	26645.27
613.149	27194.12
613.344	26594.07
613.539	27120.4
613.735	26696.47
613.93	26766.1
614.126	26215.19
614.321	26635.03
614.517	26628.88
614.712	26272.54
614.907	26219.29
615.103	26538.77
615.298	26204.95
615.493	26452.76
615.688	26118.94
615.884	26608.4
616.079	25707.3
616.274	25983.77
616.47	26069.79
616.665	26112.8
616.86	25813.79
617.055	25781.03
617.25	26075.93
617.445	25723.68
617.641	25490.21
617.836	25666.34
618.031	25291.56
618.226	25776.93
618.421	25303.85
618.616	25156.39
618.811	24904.49
619.006	25246.51
619.201	24656.69
619.396	24904.49
619.591	24816.43
619.786	24484.66
619.981	24365.88
620.176	24914.73
620.371	24019.77
620.566	24349.5
620.761	24245.05
620.956	24361.78
621.151	23790.4
621.346	24079.16
621.541	23817.02
621.735	23878.46
621.93	23624.51
622.125	23481.16
622.32	22930.25
622.515	23378.76
622.709	22790.99
622.904	23157.58
623.099	22598.48
623.294	22774.61
623.488	22457.17
623.683	22907.73
623.878	22231.9
624.072	22352.73
624.267	22127.45
624.462	22115.16
624.656	21836.64
624.851	21930.84
625.046	21908.32
625.24	21807.97
625.435	21308.26
625.629	21576.55
625.824	21195.62
626.018	21384.04
626.213	20880.24
626.407	20976.49
626.602	20704.11
626.796	20859.76
626.991	20636.53
627.185	20511.6
627.38	20548.47
627.574	20290.42
627.768	20015.99
627.963	20343.67
628.157	19833.72
628.352	20011.9
628.546	19749.76
628.74	19819.39
628.935	19708.8
629.129	19413.89
629.323	19147.65
629.517	19325.83
629.712	19110.79
629.906	18983.82
630.1	18600.85
630.294	18856.84
630.489	18793.36
630.683	18783.12
630.877	18469.78
631.071	18322.32
631.265	18486.16
631.459	18537.36
631.653	18217.88
631.848	18058.14
632.042	17628.06
632.236	18058.14
632.43	17765.28
632.624	17591.2
632.818	17599.39
633.012	17390.5
633.206	17327.01
633.4	17632.16
633.594	17286.05
633.788	17456.03
633.982	17114.02
634.176	16935.85
634.369	16726.96
634.563	16946.09
634.757	16608.17
634.951	16757.67
635.145	16769.96
635.339	16765.87
635.533	16444.34
635.726	16362.42
635.92	16120.76
636.114	16227.25
636.308	16022.45
636.501	16176.05
636.695	16102.32
636.889	15731.64
637.083	15709.11
637.276	15459.26
637.47	15455.17
637.664	15576
637.857	15446.97
638.051	15489.98
638.244	15186.88
638.438	15008.71
638.632	15041.48
638.825	15152.07
639.019	15023.05
639.212	14644.17
639.406	14838.73
639.599	14855.11
639.793	14660.55
639.986	14375.89
640.18	14433.23
640.373	14549.96
640.567	14199.76
640.76	14248.91
640.954	13908.95
641.147	13796.31
641.34	14056.4
641.534	13923.29
641.727	13976.53
641.92	13679.58
642.114	13747.16
642.307	13829.08
642.5	13554.65
642.694	13562.84
642.887	13233.12
643.08	13517.79
643.273	13394.91
643.467	13280.22
643.66	13179.87
643.853	13226.98
644.046	13022.18
644.239	12850.15
644.432	12981.22
644.626	12485.61
644.819	12655.59
645.012	12620.78
645.205	12635.11
645.398	12358.64
645.591	12413.93
645.784	12399.6
645.977	12121.07
646.17	12389.36
646.363	12067.83
646.556	12241.9
646.749	12073.97
646.942	12139.51
647.135	12045.3
647.328	12055.54
647.521	11928.56
647.714	11981.81
647.907	11697.14
648.099	11453.44
648.292	11650.04
648.485	11656.18
648.678	11619.32
648.871	11332.61
649.064	11174.91
649.256	11105.28
649.449	11084.8
649.642	11111.43
649.835	11002.88
650.027	11105.28
650.22	11131.9
650.413	10849.29
650.605	10886.15
650.798	10816.52
650.991	10673.16
651.183	10628.1
651.376	10660.87
651.568	10695.69
651.761	10572.81
651.954	10529.8
652.146	10365.96
652.339	10236.94
652.531	10232.85
652.724	10175.5
652.916	9989.14
653.109	10034.19
653.301	10120.21
653.494	10241.04
653.686	9894.93
653.879	10032.15
654.071	9606.17
654.263	9655.32
654.456	10140.69
654.648	9810.96
654.84	9579.54
655.033	9729.05
655.225	9395.23
655.417	9483.29
655.61	9530.39
655.802	9360.41
655.994	9270.3
656.186	9649.18
656.379	9301.02
656.571	9194.53
656.763	9149.47
656.955	9102.37
657.148	9286.68
657.34	9241.63
657.532	8932.39
657.724	8881.19
657.916	9118.75
658.108	8746.02
658.3	8813.6
658.492	8692.77
658.684	8649.77
658.876	8715.3
659.068	8602.66
659.26	8375.34
659.452	8569.9
659.644	8680.49
659.836	8453.16
660.028	8547.37
660.22	8246.32
660.412	8268.84
660.604	8315.95
660.796	8102.96
660.988	8170.54
661.18	8150.06
661.372	8178.73
661.563	8145.97
661.755	7986.22
661.947	7781.43
662.139	7918.64
662.331	8049.71
662.522	7875.63
662.714	7953.46
662.906	7689.27
663.097	7887.92
663.289	7734.32
663.481	7662.65
663.673	7652.41
663.864	7578.68
664.056	7492.66
664.247	7670.84
664.439	7515.19
664.631	7359.55
664.822	7357.5
665.014	7644.21
665.205	7271.48
665.397	7228.48
665.588	7283.77
665.78	7318.59
665.971	7345.21
666.163	7279.68
666.354	7191.61
666.546	6972.48
666.737	7132.22
666.929	7048.26
667.12	6966.34
667.311	6816.83
667.503	6763.59
667.694	6865.99
667.885	6775.88
668.077	6661.19
668.268	6751.3
668.459	6722.63
668.651	6624.33
668.842	6650.95
669.033	6906.95
669.224	6618.18
669.416	6626.37
669.607	6523.98
669.798	6683.72
669.989	6521.93
670.18	6374.47
670.371	6431.82
670.563	6425.67
670.754	6466.63
670.945	6407.24
671.136	6495.3
671.327	6181.96
671.518	6294.6
671.709	6085.71
671.9	6335.56
672.091	6085.71
672.282	6132.81
672.473	6157.39
672.664	6126.67
672.855	6003.79
673.046	6059.09
673.237	5997.65
673.428	5958.74
673.619	5973.07
673.809	6005.84
674	5983.31
674.191	5950.54
674.382	5749.84
674.573	5852.24
674.764	5878.86
674.954	5862.48
675.145	5686.36
675.336	5817.43
675.527	5819.47
675.717	5827.67
675.908	5586.01
676.099	5651.54
676.289	5680.21
676.48	5545.05
676.671	5680.21
676.861	5659.73
677.052	5534.81
677.243	5348.44
677.433	5475.42
677.624	5479.51
677.814	5473.37
678.005	5454.94
678.195	5528.66
678.386	5346.39
678.576	5401.69
678.767	5502.04
678.957	5456.98
679.148	5360.73
679.338	5370.97
679.529	5336.15
679.719	5293.15
679.909	5268.57
680.1	5282.91
680.29	5284.95
680.481	5334.11
680.671	5266.52
680.861	5196.89
681.052	5205.08
681.242	5352.54
681.432	5180.51
681.622	5166.17
681.813	5088.35
682.003	5323.87
682.193	5088.35
682.383	5037.15
682.573	5047.39
682.764	5131.36
682.954	5149.79
683.144	4981.85
683.334	5049.44
683.524	4967.52
683.714	5010.53
683.904	4883.55
684.094	5035.1
684.284	4885.6
684.474	5022.81
684.664	4858.98
684.854	4998.24
685.044	4727.91
685.234	4723.81
685.424	4992.09
685.614	4891.74
685.804	4699.23
685.994	4768.87
686.184	4723.81
686.374	4633.7
686.564	4625.51
686.753	4666.47
686.943	4523.11
687.133	4586.6
687.323	4572.26
687.513	4562.02
687.702	4570.21
687.892	4576.36
688.082	4500.58
688.272	4648.04
688.461	4596.84
688.651	4437.09
688.841	4441.19
689.03	4537.45
689.22	4408.42
689.41	4279.4
689.599	4435.05
689.789	4420.71
689.979	4445.29
690.168	4322.41
690.358	4279.4
690.547	4291.69
690.737	4373.61
690.926	4254.83
691.116	4248.68
691.305	4211.82
691.495	4199.53
691.684	4279.4
691.874	4177
692.063	4105.32
692.252	4170.86
692.442	4056.17
692.631	4136.04
692.82	4230.25
693.01	4004.97
693.199	4056.17
693.388	4064.36
693.578	4121.71
693.767	3892.34
693.956	3988.59
694.146	3949.68
694.335	3855.47
694.524	3894.38
694.713	3943.53
694.902	3841.14
695.092	3740.79
695.281	3773.55
695.47	4000.88
695.659	3802.22
695.848	3851.38
696.037	3730.55
696.226	3886.19
696.415	3730.55
696.604	3742.83
696.793	3708.02
696.982	3812.46
697.171	3839.09
697.36	3908.72
697.549	3720.31
697.738	3599.48
697.927	3826.8
698.116	3716.21
698.305	3669.11
698.494	3773.55
698.683	3742.83
698.872	3785.84
699.061	3767.41
699.25	3662.96
699.438	3714.16
699.627	3755.12
699.816	3677.3
700.005	3630.2
700.193	3662.96
700.382	3656.82
700.571	3564.66
700.76	3677.3
700.948	3574.9
701.137	3699.83
701.326	3544.18
701.514	3595.38
701.703	3589.24
701.892	3566.71
702.08	3660.91
702.269	3660.91
702.457	3521.65
702.646	3622
702.834	3529.84
703.023	3646.58
703.212	3615.86
703.4	3568.76
703.589	3527.8
703.777	3624.05
703.965	3599.48
704.154	3531.89
704.342	3480.69
704.531	3593.33
704.719	3396.73
704.907	3468.41
705.096	3439.73
705.284	3423.35
705.472	3456.12
705.661	3374.2
705.849	3351.67
706.037	3486.84
706.226	3378.3
706.414	3396.73
706.602	3488.89
706.79	3515.51
706.979	3390.58
707.167	3310.71
707.355	3361.91
707.543	3368.06
707.731	3384.44
707.919	3345.53
708.107	3435.64
708.296	3458.17
708.484	3380.34
708.672	3325.05
708.86	3316.86
709.048	3196.03
709.236	3312.76
709.424	3347.58
709.612	3284.09
709.8	3142.78
709.988	3374.2
710.176	3402.87
710.364	3353.72
710.551	3206.27
710.739	3261.56
710.927	3210.36
711.115	3124.35
711.303	3380.34
711.491	3214.46
711.679	3273.85
711.866	3267.7
712.054	3191.93
712.242	3142.78
712.43	3253.37
712.617	3144.83
712.805	3089.53
712.993	3116.16
713.181	3146.87
713.368	3062.91
713.556	3157.11
713.744	3097.72
713.931	3058.81
714.119	3277.94
714.306	3048.57
714.494	3222.65
714.682	3130.49
714.869	3097.72
715.057	3124.35
715.244	3009.66
715.432	3150.97
715.619	3067
715.807	3060.86
715.994	3017.85
716.182	2978.94
716.369	3093.63
716.556	3062.91
716.744	3019.9
716.931	2962.56
717.119	3015.8
717.306	2925.69
717.493	2909.31
717.681	2880.64
717.868	2888.83
718.055	2995.32
718.242	2991.23
718.43	2983.04
718.617	3081.34
718.804	2899.07
718.991	2931.84
719.179	3005.56
719.366	2948.22
719.553	2862.21
719.74	2935.93
719.927	2884.73
720.114	2839.68
720.301	2890.88
720.488	2874.49
720.676	2901.12
720.863	2864.25
721.05	2806.91
721.237	2954.37
721.424	2792.58
721.611	2784.38
721.798	2831.49
721.985	2897.02
722.172	2806.91
722.358	2890.88
722.545	2718.85
722.732	2722.95
722.919	2870.4
723.106	2743.42
723.293	2768
723.48	2800.77
723.667	2675.84
723.853	2714.75
724.04	2770.05
724.227	2788.48
724.414	2626.69
724.6	2708.61
724.787	2772.1
724.974	2747.52
725.161	2632.83
725.347	2624.64
725.534	2563.2
725.72	2600.07
725.907	2589.83
726.094	2512
726.28	2696.32
726.467	2530.44
726.653	2665.6
726.84	2645.12
727.027	2757.76
727.213	2677.89
727.4	2614.4
727.586	2753.66
727.773	2649.22
727.959	2555.01
728.145	2571.4
728.332	2477.19
728.518	2634.88
728.705	2485.38
728.891	2491.52
729.077	2516.1
729.264	2593.92
729.45	2454.66
729.636	2512
729.823	2485.38
730.009	2557.06
730.195	2440.33
730.382	2532.48
730.568	2469
730.754	2536.58
730.94	2542.72
731.126	2567.3
731.313	2477.19
731.499	2405.51
731.685	2319.5
731.871	2509.96
732.057	2284.68
732.243	2421.89
732.429	2456.71
732.615	2356.36
732.801	2440.33
732.987	2401.41
733.173	2348.17
733.359	2391.17
733.545	2303.11
733.731	2436.23
733.917	2524.29
734.103	2362.5
734.289	2473.09
734.475	2372.74
734.661	2372.74
734.847	2335.88
735.033	2358.41
735.219	2344.07
735.404	2337.93
735.59	2249.86
735.776	2307.21
735.962	2356.36
736.148	2317.45
736.333	2309.26
736.519	2243.72
736.705	2206.86
736.89	2243.72
737.076	2210.95
737.262	2286.73
737.447	2245.77
737.633	2133.13
737.819	2233.48
738.004	2200.71
738.19	2253.96
738.375	2229.38
738.561	2268.3
738.747	2073.74
738.932	2139.27
739.118	2305.16
739.303	2163.85
739.489	2176.14
739.674	2122.89
739.859	2190.47
740.045	2225.29
740.23	2184.33
740.416	2094.22
740.601	2026.64
740.786	2147.47
740.972	2018.44
741.157	2034.83
741.342	2169.99
741.528	1957
741.713	1997.96
741.898	2059.4
742.084	2065.55
742.269	1993.87
742.454	2106.51
742.639	2090.12
742.824	1993.87
743.01	2000.01
743.195	2024.59
743.38	1979.53
743.565	1967.24
743.75	2024.59
743.935	2045.07
744.12	1971.34
744.305	1895.57
744.49	1891.47
744.675	1856.65
744.86	1821.84
745.045	1877.13
745.23	1901.71
745.415	1866.89
745.6	1924.24
745.785	1795.22
745.97	1754.26
746.155	1911.95
746.34	1836.17
746.525	1846.41
746.71	1832.08
746.895	1727.63
747.079	1748.11
747.264	1850.51
747.449	1758.35
747.634	1768.59
747.819	1807.5
748.003	1606.8
748.188	1533.08
748.373	1692.82
748.557	1674.39
748.742	1719.44
748.927	1711.25
749.111	1586.32
749.296	1606.8
749.481	1721.49
749.665	1594.51
749.85	1598.61
750.034	1676.43
750.219	1512.6
750.404	1574.03
750.588	1670.29
750.773	1528.98
750.957	1586.32
751.141	1500.31
751.326	1539.22
751.51	1555.6
751.695	1633.43
751.879	1485.97
752.064	1606.8
752.248	1455.25
752.432	1485.97
752.617	1336.47
752.801	1557.65
752.985	1309.85
753.17	1463.44
753.354	1447.06
753.538	1449.11
753.722	1469.59
753.907	1397.91
754.091	1344.66
754.275	1332.37
754.459	1418.39
754.643	1307.8
754.828	1397.91
755.012	1379.48
755.196	1344.66
755.38	1324.18
755.564	1322.13
755.748	1307.8
755.932	1340.57
756.116	1359
756.3	1285.27
756.484	1279.13
756.668	1326.23
756.852	1109.15
757.036	1168.54
757.22	1203.35
757.404	1258.65
757.588	1166.49
757.772	1404.05
757.956	1189.02
758.14	1203.35
758.323	1217.69
758.507	1236.12
758.691	1150.11
758.875	1109.15
759.059	1186.97
759.242	1160.34
759.426	1115.29
759.61	1148.06
759.794	1082.52
759.977	1088.67
760.161	1117.34
760.345	1115.29
760.528	1131.67
760.712	1107.1
760.895	1025.18
761.079	1129.63
761.263	1055.9
761.446	937.12
761.63	1047.71
761.813	1068.19
761.997	1125.53
762.18	1037.47
762.364	1086.62
762.547	1080.47
762.731	998.56
762.914	1021.08
763.098	994.46
763.281	1094.81
763.464	988.32
763.648	945.31
763.831	961.69
764.015	951.45
764.198	1051.8
764.381	1014.94
764.564	1035.42
764.748	971.93
764.931	1041.56
765.114	916.64
765.297	898.2
765.481	969.88
765.664	906.4
765.847	890.01
766.03	894.11
766.213	937.12
766.397	896.16
766.58	924.83
766.763	961.69
766.946	849.05
767.129	937.12
767.312	875.68
767.495	965.79
767.678	900.25
767.861	933.02
768.044	961.69
768.227	892.06
768.41	935.07
768.593	869.53
768.776	838.81
768.959	838.81
769.142	857.25
769.324	851.1
769.507	849.05
769.69	834.72
769.873	797.85
770.056	853.15
770.239	877.73
770.421	820.38
770.604	810.14
770.787	832.67
770.97	777.37
771.152	732.32
771.335	732.32
771.518	763.04
771.7	844.96
771.883	924.83
772.066	777.37
772.248	773.28
772.431	832.67
772.613	720.03
772.796	765.09
772.978	806.05
773.161	836.77
773.343	670.88
773.526	744.61
773.708	720.03
773.891	666.78
774.073	646.3
774.256	726.18
774.438	797.85
774.621	722.08
774.803	672.93
774.985	652.45
775.168	793.76
775.35	670.88
775.532	738.46
775.715	715.94
775.897	760.99
776.079	656.54
776.261	738.46
776.444	789.66
776.626	685.22
776.808	613.54
776.99	611.49
777.173	597.15
777.355	666.78
777.537	621.73
777.719	650.4
777.901	607.39
778.083	726.18
778.265	558.24
778.447	638.11
778.629	638.11
778.811	623.78
778.993	625.83
779.175	644.26
779.357	601.25
779.539	584.87
779.721	634.02
779.903	584.87
780.085	629.92
780.267	511.14
780.449	634.02
780.631	562.34
780.812	562.34
780.994	502.95
781.176	541.86
781.358	566.43
781.54	492.71
781.721	545.95
781.903	523.43
782.085	457.89
782.267	515.23
782.448	519.33
782.63	511.14
782.812	480.42
782.993	496.8
783.175	556.19
783.357	468.13
783.538	562.34
783.72	453.8
783.901	504.99
784.083	468.13
784.264	500.9
784.446	449.7
784.627	441.51
784.809	488.61
784.99	490.66
785.172	474.28
785.353	496.8
785.535	449.7
785.716	466.08
785.897	449.7
786.079	439.46
786.26	507.04
786.441	441.51
786.623	431.27
786.804	394.4
786.985	390.31
787.167	429.22
787.348	353.45
787.529	382.12
787.71	394.4
787.891	367.78
788.073	406.69
788.254	302.25
788.435	427.17
788.616	445.6
788.797	335.01
788.978	423.08
789.159	425.12
789.34	361.64
789.522	316.58
789.703	363.69
789.884	402.6
790.065	388.26
790.246	398.5
790.427	355.49
790.607	418.98
790.788	375.97
790.969	296.1
791.15	347.3
791.331	324.77
791.512	378.02
791.693	330.92
791.874	320.68
792.054	308.39
792.235	388.26
792.416	314.53
792.597	300.2
792.778	328.87
792.958	369.83
793.139	294.05
793.32	339.11
793.5	275.62
793.681	406.69
793.862	285.86
794.042	388.26
794.223	287.91
794.404	357.54
794.584	265.38
794.765	306.34
794.945	302.25
795.126	335.01
795.306	316.58
795.487	361.64
795.667	220.33
795.848	261.29
796.028	257.19
796.209	326.82
796.389	296.1
796.57	224.42
796.75	328.87
796.93	332.97
797.111	224.42
797.291	312.49
797.471	283.81
797.652	279.72
797.832	234.66
798.012	294.05
798.192	136.36
798.373	265.38
798.553	298.15
798.733	369.83
798.913	310.44
799.093	261.29
799.274	285.86
799.454	287.91
799.634	312.49
799.814	232.62
799.994	246.95
800.174	296.1
800.354	263.33
800.534	279.72
800.714	201.9
800.894	165.03
801.074	171.18
801.254	205.99
801.434	332.97
801.614	218.28
801.794	228.52
801.974	599.2
802.154	210.09
802.334	253.09
802.514	187.56
802.693	277.67
802.873	210.09
803.053	203.94
803.233	208.04
803.413	222.38
803.592	300.2
803.772	191.66
803.952	165.03
804.131	214.18
804.311	265.38
804.491	249
804.67	253.09
804.85	226.47
805.03	255.14
805.209	246.95
805.389	183.46
805.568	240.81
805.748	214.18
805.928	165.03
806.107	240.81
806.287	244.9
806.466	181.42
806.646	251.05
806.825	183.46
807.004	158.89
807.184	210.09
807.363	244.9
807.543	197.8
807.722	171.18
807.901	306.34
808.081	232.62
808.26	119.98
808.439	191.66
808.619	165.03
808.798	205.99
808.977	302.25
809.156	263.33
809.336	101.55
809.515	259.24
809.694	197.8
809.873	257.19
810.052	244.9
810.231	212.14
810.411	203.94
810.59	238.76
810.769	197.8
810.948	179.37
811.127	160.94
811.306	132.26
811.485	144.55
811.664	216.23
811.843	158.89
812.022	236.71
812.201	130.22
812.38	203.94
812.559	177.32
812.737	224.42
812.916	203.94
813.095	185.51
813.274	140.46
813.453	119.98
813.632	167.08
813.811	117.93
813.989	105.64
814.168	175.27
814.347	132.26
814.526	107.69
814.704	193.7
814.883	210.09
815.062	138.41
815.24	210.09
815.419	132.26
815.598	140.46
815.776	132.26
815.955	144.55
816.133	79.02
816.312	179.37
816.49	103.59
816.669	142.5
816.847	126.12
817.026	150.7
817.204	136.36
817.383	130.22
817.561	122.02
817.74	181.42
817.918	187.56
818.097	162.98
818.275	162.98
818.453	93.35
818.632	87.21
818.81	146.6
818.988	152.74
819.167	220.33
819.345	130.22
819.523	132.26
819.701	156.84
819.879	173.22
820.058	181.42
820.236	177.32
820.414	165.03
820.592	156.84
820.77	189.61
820.948	148.65
821.127	70.83
821.305	113.83
821.483	62.63
821.661	216.23
821.839	111.78
822.017	185.51
822.195	87.21
822.373	99.5
822.551	126.12
822.729	132.26
822.907	87.21
823.085	144.55
823.262	128.17
823.44	144.55
823.618	154.79
823.796	146.6
823.974	111.78
824.152	167.08
824.329	99.5
824.507	162.98
824.685	158.89
824.863	117.93
825.04	74.92
825.218	113.83
825.396	134.31
825.574	171.18
825.751	136.36
825.929	167.08
826.107	68.78
826.284	126.12
826.462	134.31
826.639	21.67
826.817	128.17
826.994	138.41
827.172	85.16
827.349	144.55
827.527	103.59
827.704	95.4
827.882	79.02
828.059	95.4
828.237	111.78
828.414	183.46
828.591	70.83
828.769	146.6
828.946	99.5
829.124	119.98
829.301	195.75
829.478	130.22
829.655	93.35
829.833	140.46
830.01	122.02
830.187	142.5
830.364	62.63
830.542	148.65
830.719	154.79
830.896	115.88
831.073	103.59
831.25	138.41
831.427	103.59
831.604	124.07
831.782	60.59
831.959	136.36
832.136	124.07
832.313	132.26
832.49	48.3
832.667	74.92
832.844	-2.9
833.021	148.65
833.198	87.21
833.374	87.21
833.551	36.01
833.728	68.78
833.905	109.74
834.082	99.5
834.259	103.59
834.436	115.88
834.612	70.83
834.789	111.78
834.966	68.78
835.143	99.5
835.319	66.73
835.496	124.07
835.673	46.25
835.85	126.12
836.026	128.17
836.203	138.41
836.38	74.92
836.556	29.87
836.733	70.83
836.909	89.26
837.086	44.2
837.262	111.78
837.439	117.93
837.616	58.54
837.792	66.73
837.968	140.46
838.145	-4.95
838.321	124.07
838.498	60.59
838.674	132.26
838.851	152.74
839.027	101.55
839.203	99.5
839.38	126.12
839.556	103.59
839.732	142.5
839.909	-9.05
840.085	-9.05
840.261	79.02
840.437	109.74
840.614	89.26
840.79	101.55
840.966	66.73
841.142	79.02
841.318	60.59
841.494	107.69
841.671	122.02
841.847	56.49
842.023	72.87
842.199	89.26
842.375	107.69
842.551	74.92
842.727	76.97
842.903	54.44
843.079	68.78
843.255	146.6
843.431	56.49
843.607	31.91
843.783	83.11
843.959	97.45
844.134	62.63
844.31	105.64
844.486	9.39
844.662	62.63
844.838	54.44
845.013	64.68
845.189	89.26
845.365	50.35
845.541	-0.85
845.716	-15.19
845.892	111.78
846.068	21.67
846.244	64.68
846.419	103.59
846.595	66.73
846.77	21.67
846.946	5.29
847.122	62.63
847.297	62.63
847.473	150.7
847.648	87.21
847.824	103.59
847.999	15.53
848.175	91.31
848.35	-2.9
848.526	87.21
848.701	48.3
848.876	130.22
849.052	-45.91
849.227	72.87
849.403	79.02
849.578	115.88
849.753	46.25
849.929	91.31
850.104	-7
850.279	97.45
850.454	74.92
850.63	138.41
850.805	68.78
850.98	79.02
851.155	-9.05
851.33	36.01
851.505	1.19
851.681	99.5
851.856	64.68
852.031	3.24
852.206	60.59
852.381	-11.09
852.556	72.87
852.731	17.58
852.906	64.68
853.081	27.82
853.256	33.96
853.431	81.07
853.606	62.63
853.781	-17.24
853.956	81.07
854.131	52.39
854.305	5.29
854.48	40.11
854.655	50.35
854.83	27.82
855.005	93.35
855.18	-0.85
855.354	54.44
855.529	97.45
855.704	124.07
855.879	60.59
856.053	31.91
856.228	87.21
856.403	-21.33
856.577	9.39
856.752	87.21
856.926	66.73
857.101	40.11
857.276	21.67
857.45	36.01
857.625	62.63
857.799	23.72
857.974	111.78
858.148	54.44
858.323	79.02
858.497	64.68
858.672	74.92
858.846	83.11
859.02	56.49
859.195	52.39
859.369	23.72
859.543	52.39
859.718	66.73
859.892	68.78
860.066	5.29
860.241	38.06
860.415	-37.72
860.589	44.2
860.763	46.25
860.938	93.35
861.112	-7
861.286	31.91
861.46	-37.72
861.634	15.53
861.808	15.53
861.982	50.35
862.157	46.25
862.331	62.63
862.505	68.78
862.679	89.26
862.853	99.5
863.027	29.87
863.201	15.53
863.375	52.39
863.549	105.64
863.722	42.15
863.896	31.91
864.07	27.82
864.244	74.92
864.418	56.49
864.592	52.39
864.766	11.43
864.939	87.21
865.113	9.39
865.287	46.25
865.461	-0.85
865.634	101.55
865.808	56.49
865.982	-0.85
866.156	38.06
866.329	-0.85
866.503	64.68
866.676	7.34
866.85	58.54
867.024	-31.57
867.197	31.91
867.371	-0.85
867.544	101.55
867.718	36.01
867.891	29.87
868.065	93.35
868.238	7.34
868.412	25.77
868.585	-31.57
868.759	40.11
868.932	21.67
869.105	101.55
869.279	60.59
869.452	44.2
869.625	58.54
869.799	36.01
869.972	93.35
870.145	1.19
870.319	79.02
870.492	44.2
870.665	5.29
870.838	89.26
871.011	9.39
871.185	27.82
871.358	52.39
871.531	74.92
871.704	21.67
871.877	72.87
872.05	52.39
872.223	36.01
872.396	109.74
872.569	83.11
872.742	27.82
872.915	-66.39
873.088	36.01
873.261	-7
873.434	70.83
873.607	-19.29
873.78	58.54
873.953	46.25
874.126	38.06
874.299	31.91
874.471	-2.9
874.644	1.19
874.817	87.21
874.99	44.2
875.163	74.92
875.335	40.11
875.508	117.93
875.681	48.3
875.853	-2.9
876.026	42.15
876.199	50.35
876.371	50.35
876.544	-0.85
876.717	60.59
876.889	52.39
877.062	29.87
877.234	15.53
877.407	1.19
877.579	87.21
877.752	58.54
877.924	-60.24
878.097	-39.76
878.269	36.01
878.442	138.41
878.614	89.26
878.786	36.01
878.959	62.63
879.131	29.87
879.303	-17.24
879.476	-15.19
879.648	46.25
879.82	38.06
879.993	-9.05
880.165	36.01
880.337	33.96
880.509	-45.91
880.681	9.39
880.854	-23.38
881.026	115.88
881.198	9.39
881.37	-4.95
881.542	107.69
881.714	27.82
881.886	68.78
882.058	-2.9
882.23	29.87
882.402	7.34
882.574	58.54
882.746	44.2
882.918	50.35
883.09	66.73
883.262	42.15
883.434	-15.19
883.606	9.39
883.778	62.63
883.95	93.35
884.122	19.63
884.293	62.63
884.465	21.67
884.637	76.97
884.809	-31.57
884.98	58.54
885.152	25.77
885.324	-17.24
885.496	19.63
885.667	13.48
885.839	-47.96
886.011	56.49
886.182	13.48
886.354	15.53
886.525	52.39
886.697	-35.67
886.869	-29.52
887.04	3.24
887.212	95.4
887.383	3.24
887.555	68.78
887.726	40.11
887.897	21.67
888.069	107.69
888.24	79.02
888.412	44.2
888.583	7.34
888.754	-41.81
888.926	46.25
889.097	38.06
889.268	-2.9
889.44	29.87
889.611	62.63
889.782	-7
889.953	17.58
890.125	58.54
890.296	-68.44
890.467	29.87
890.638	27.82
890.809	29.87
890.98	19.63
891.151	17.58
891.323	25.77
891.494	11.43
891.665	105.64
891.836	-2.9
892.007	33.96
892.178	56.49
892.349	52.39
892.52	-9.05
892.691	19.63
892.862	33.96
893.032	56.49
893.203	-9.05
893.374	48.3
893.545	83.11
893.716	52.39
893.887	56.49
894.057	-27.48
894.228	56.49
894.399	-76.63
894.57	72.87
894.74	23.72
894.911	-7
895.082	46.25
895.253	27.82
895.423	46.25
895.594	136.36
895.764	48.3
895.935	-19.29
896.106	-11.09
896.276	31.91
896.447	1.19
896.617	31.91
896.788	5.29
896.958	25.77
897.129	-50
897.299	42.15
897.47	50.35
897.64	85.16
897.81	13.48
897.981	-27.48
898.151	21.67
898.322	70.83
898.492	27.82
898.662	25.77
898.832	-0.85
899.003	48.3
899.173	17.58
899.343	17.58
899.513	-23.38
