Data from USB4F104151__41__12-00-54-050.txt Node

Date: Fri Mar 14 12:00:54 EDT 2025
User: louis
Spectrometer: USB4F10415
Trigger mode: 4
Integration Time (sec): 2.000000E-2
Scans to average: 1
Electric dark correction enabled: true
Nonlinearity correction enabled: false
Boxcar width: 0
XAxis mode: Wavelengths
Number of Pixels in Spectrum: 3648
>>>>>Begin Spectral Data<<<<<
178.204	-131.07
178.424	-131.07
178.644	-131.07
178.864	-149.5
179.084	-108.54
179.304	-43.01
179.524	-30.72
179.744	-47.1
179.964	100.35
180.184	53.25
180.404	-75.77
180.624	20.48
180.844	-34.82
181.064	16.38
181.283	36.86
181.503	4.1
181.723	-0
181.943	-45.06
182.163	47.1
182.383	4.1
182.602	8.19
182.822	-38.91
183.042	-8.19
183.262	-28.67
183.482	4.1
183.701	24.58
183.921	6.14
184.141	-81.92
184.361	-63.49
184.58	-10.24
184.8	38.91
185.02	32.77
185.239	108.54
185.459	-30.72
185.679	51.2
185.898	-49.15
186.118	-18.43
186.338	-32.77
186.557	20.48
186.777	-10.24
186.997	18.43
187.216	-20.48
187.436	114.69
187.655	20.48
187.875	-20.48
188.095	-71.68
188.314	79.87
188.534	69.63
188.753	-24.58
188.973	79.87
189.192	43.01
189.412	-6.14
189.631	16.38
189.851	73.73
190.07	-6.14
190.29	2.05
190.509	-63.49
190.729	-12.29
190.948	61.44
191.168	18.43
191.387	-57.34
191.607	-8.19
191.826	14.34
192.045	24.58
192.265	32.77
192.484	26.62
192.704	34.82
192.923	-32.77
193.142	28.67
193.362	69.63
193.581	28.67
193.8	53.25
194.02	-8.19
194.239	55.3
194.458	-2.05
194.678	57.34
194.897	6.14
195.116	79.87
195.335	53.25
195.555	-71.68
195.774	24.58
195.993	45.06
196.212	-26.62
196.432	-30.72
196.651	-63.49
196.87	-6.14
197.089	49.15
197.308	4.1
197.528	-24.58
197.747	-6.14
197.966	32.77
198.185	57.34
198.404	36.86
198.623	102.4
198.842	10.24
199.062	-22.53
199.281	63.49
199.5	16.38
199.719	22.53
199.938	71.68
200.157	71.68
200.376	34.82
200.595	38.91
200.814	-28.67
201.033	59.39
201.252	-20.48
201.471	6.14
201.69	36.86
201.909	6.14
202.128	30.72
202.347	57.34
202.566	-49.15
202.785	-30.72
203.004	-16.38
203.223	92.16
203.442	-14.34
203.661	2.05
203.879	-45.06
204.098	-2.05
204.317	-6.14
204.536	-18.43
204.755	-22.53
204.974	-8.19
205.193	-12.29
205.411	26.62
205.63	-20.48
205.849	45.06
206.068	28.67
206.287	28.67
206.505	26.62
206.724	49.15
206.943	-22.53
207.162	-32.77
207.381	-20.48
207.599	4.1
207.818	-73.73
208.037	-28.67
208.255	61.44
208.474	22.53
208.693	-2.05
208.911	-16.38
209.13	-4.1
209.349	18.43
209.567	28.67
209.786	69.63
210.005	-53.25
210.223	49.15
210.442	8.19
210.661	2.05
210.879	10.24
211.098	-12.29
211.316	38.91
211.535	12.29
211.753	71.68
211.972	-0
212.191	4.1
212.409	24.58
212.628	22.53
212.846	28.67
213.065	8.19
213.283	-12.29
213.502	-24.58
213.72	8.19
213.938	-67.58
214.157	2.05
214.375	-10.24
214.594	-40.96
214.812	81.92
215.031	4.1
215.249	-14.34
215.467	-18.43
215.686	-10.24
215.904	38.91
216.122	83.97
216.341	-24.58
216.559	-20.48
216.778	-12.29
216.996	51.2
217.214	16.38
217.432	-0
217.651	22.53
217.869	-10.24
218.087	59.39
218.306	4.1
218.524	40.96
218.742	53.25
218.96	-20.48
219.179	63.49
219.397	4.1
219.615	47.1
219.833	-26.62
220.051	73.73
220.27	16.38
220.488	77.82
220.706	-34.82
220.924	-81.92
221.142	75.77
221.36	20.48
221.578	83.97
221.796	20.48
222.015	32.77
222.233	-2.05
222.451	73.73
222.669	-30.72
222.887	110.59
223.105	-4.1
223.323	14.34
223.541	16.38
223.759	55.3
223.977	-36.86
224.195	43.01
224.413	14.34
224.631	-45.06
224.849	-43.01
225.067	12.29
225.285	18.43
225.503	-6.14
225.721	-14.34
225.939	-2.05
226.157	-2.05
226.375	104.45
226.592	-34.82
226.81	22.53
227.028	18.43
227.246	24.58
227.464	16.38
227.682	18.43
227.9	6.14
228.117	-57.34
228.335	-53.25
228.553	94.21
228.771	-18.43
228.989	49.15
229.206	-40.96
229.424	20.48
229.642	47.1
229.86	-40.96
230.077	26.62
230.295	26.62
230.513	10.24
230.731	6.14
230.948	28.67
231.166	10.24
231.384	-0
231.601	-16.38
231.819	18.43
232.037	-26.62
232.254	-59.39
232.472	75.77
232.689	-28.67
232.907	8.19
233.125	10.24
233.342	20.48
233.56	-61.44
233.777	-12.29
233.995	40.96
234.213	47.1
234.43	20.48
234.648	34.82
234.865	6.14
235.083	-8.19
235.3	-10.24
235.518	-12.29
235.735	-67.58
235.953	-8.19
236.17	53.25
236.388	34.82
236.605	-28.67
236.822	-28.67
237.04	16.38
237.257	86.01
237.475	24.58
237.692	71.68
237.909	8.19
238.127	63.49
238.344	2.05
238.562	47.1
238.779	-22.53
238.996	20.48
239.214	12.29
239.431	-8.19
239.648	-47.1
239.865	10.24
240.083	24.58
240.3	-14.34
240.517	-36.86
240.735	34.82
240.952	94.21
241.169	6.14
241.386	16.38
241.603	26.62
241.821	-32.77
242.038	-16.38
242.255	26.62
242.472	57.34
242.689	71.68
242.907	63.49
243.124	-0
243.341	51.2
243.558	-75.77
243.775	-8.19
243.992	43.01
244.209	-12.29
244.426	6.14
244.643	24.58
244.86	-22.53
245.078	55.3
245.295	63.49
245.512	-61.44
245.729	-36.86
245.946	4.1
246.163	36.86
246.38	6.14
246.597	45.06
246.814	45.06
247.031	12.29
247.248	77.82
247.464	53.25
247.681	40.96
247.898	12.29
248.115	30.72
248.332	-2.05
248.549	47.1
248.766	14.34
248.983	59.39
249.2	8.19
249.417	47.1
249.633	-22.53
249.85	18.43
250.067	-0
250.284	26.62
250.501	38.91
250.717	-49.15
250.934	2.05
251.151	26.62
251.368	-40.96
251.585	51.2
251.801	6.14
252.018	4.1
252.235	26.62
252.451	-63.49
252.668	-63.49
252.885	18.43
253.102	20.48
253.318	38.91
253.535	24.58
253.752	12.29
253.968	10.24
254.185	6.14
254.401	61.44
254.618	28.67
254.835	-14.34
255.051	61.44
255.268	-10.24
255.484	34.82
255.701	-16.38
255.917	-45.06
256.134	69.63
256.351	4.1
256.567	-47.1
256.784	-10.24
257	-53.25
257.217	-0
257.433	43.01
257.65	24.58
257.866	32.77
258.082	20.48
258.299	63.49
258.515	-0
258.732	-45.06
258.948	63.49
259.165	10.24
259.381	20.48
259.597	83.97
259.814	8.19
260.03	-36.86
260.246	49.15
260.463	65.53
260.679	38.91
260.895	40.96
261.112	-26.62
261.328	-10.24
261.544	14.34
261.761	122.88
261.977	22.53
262.193	-16.38
262.409	26.62
262.626	18.43
262.842	59.39
263.058	22.53
263.274	65.53
263.49	-2.05
263.707	73.73
263.923	24.58
264.139	12.29
264.355	24.58
264.571	55.3
264.787	-86.01
265.004	-28.67
265.22	-28.67
265.436	47.1
265.652	22.53
265.868	67.58
266.084	63.49
266.3	14.34
266.516	-14.34
266.732	16.38
266.948	30.72
267.164	-43.01
267.38	88.06
267.596	26.62
267.812	2.05
268.028	43.01
268.244	-18.43
268.46	26.62
268.676	-16.38
268.892	18.43
269.108	-10.24
269.324	-51.2
269.54	-22.53
269.756	57.34
269.972	6.14
270.188	51.2
270.403	-4.1
270.619	-8.19
270.835	-4.1
271.051	40.96
271.267	-26.62
271.483	51.2
271.698	73.73
271.914	-2.05
272.13	40.96
272.346	63.49
272.562	28.67
272.777	30.72
272.993	40.96
273.209	38.91
273.425	-22.53
273.64	8.19
273.856	10.24
274.072	2.05
274.287	-34.82
274.503	79.87
274.719	20.48
274.934	6.14
275.15	-16.38
275.366	26.62
275.581	-12.29
275.797	32.77
276.012	28.67
276.228	88.06
276.444	16.38
276.659	12.29
276.875	45.06
277.09	-55.3
277.306	24.58
277.521	34.82
277.737	-8.19
277.952	-57.34
278.168	63.49
278.383	8.19
278.599	65.53
278.814	28.67
279.03	-38.91
279.245	32.77
279.461	67.58
279.676	-18.43
279.892	-10.24
280.107	69.63
280.322	22.53
280.538	118.78
280.753	-12.29
280.969	40.96
281.184	-0
281.399	-10.24
281.615	-10.24
281.83	-36.86
282.045	-53.25
282.26	8.19
282.476	4.1
282.691	26.62
282.906	79.87
283.122	69.63
283.337	6.14
283.552	-43.01
283.767	-22.53
283.983	-18.43
284.198	-6.14
284.413	-32.77
284.628	36.86
284.843	67.58
285.058	4.1
285.274	55.3
285.489	-20.48
285.704	47.1
285.919	-88.06
286.134	53.25
286.349	-47.1
286.564	63.49
286.779	34.82
286.995	71.68
287.21	10.24
287.425	-20.48
287.64	-10.24
287.855	114.69
288.07	-22.53
288.285	6.14
288.5	26.62
288.715	4.1
288.93	12.29
289.145	-26.62
289.36	61.44
289.575	65.53
289.79	6.14
290.004	-0
290.219	2.05
290.434	12.29
290.649	10.24
290.864	-47.1
291.079	4.1
291.294	10.24
291.509	-10.24
291.724	-22.53
291.938	32.77
292.153	10.24
292.368	-28.67
292.583	-26.62
292.798	4.1
293.012	-38.91
293.227	-18.43
293.442	120.83
293.657	-8.19
293.871	69.63
294.086	-12.29
294.301	10.24
294.516	24.58
294.73	61.44
294.945	-40.96
295.16	-28.67
295.374	55.3
295.589	45.06
295.804	83.97
296.018	-8.19
296.233	20.48
296.447	53.25
296.662	6.14
296.877	16.38
297.091	-0
297.306	55.3
297.52	-20.48
297.735	-49.15
297.949	38.91
298.164	-22.53
298.378	40.96
298.593	-0
298.807	-16.38
299.022	47.1
299.236	-36.86
299.451	51.2
299.665	16.38
299.88	-65.54
300.094	-20.48
300.309	32.77
300.523	20.48
300.737	-6.14
300.952	14.34
301.166	94.21
301.381	-16.38
301.595	-8.19
301.809	38.91
302.024	55.3
302.238	-59.39
302.452	12.29
302.667	18.43
302.881	18.43
303.095	28.67
303.309	79.87
303.524	6.14
303.738	75.77
303.952	18.43
304.166	92.16
304.381	-43.01
304.595	32.77
304.809	-20.48
305.023	40.96
305.237	40.96
305.452	40.96
305.666	26.62
305.88	-18.43
306.094	-4.1
306.308	-8.19
306.522	2.05
306.736	4.1
306.95	-4.1
307.164	71.68
307.379	-38.91
307.593	88.06
307.807	22.53
308.021	90.11
308.235	43.01
308.449	-36.86
308.663	-6.14
308.877	104.45
309.091	63.49
309.305	55.3
309.519	28.67
309.733	92.16
309.947	38.91
310.161	20.48
310.374	18.43
310.588	43.01
310.802	10.24
311.016	-0
311.23	43.01
311.444	-40.96
311.658	61.44
311.872	22.53
312.085	4.1
312.299	-6.14
312.513	12.29
312.727	-20.48
312.941	14.34
313.154	43.01
313.368	18.43
313.582	-0
313.796	30.72
314.009	-12.29
314.223	32.77
314.437	36.86
314.651	-22.53
314.864	40.96
315.078	-20.48
315.292	38.91
315.505	73.73
315.719	-12.29
315.933	20.48
316.146	34.82
316.36	-30.72
316.573	2.05
316.787	51.2
317.001	-22.53
317.214	-73.73
317.428	63.49
317.641	-4.1
317.855	30.72
318.068	-40.96
318.282	4.1
318.495	-8.19
318.709	112.64
318.922	59.39
319.136	18.43
319.349	4.1
319.563	53.25
319.776	53.25
319.99	-16.38
320.203	49.15
320.417	16.38
320.63	71.68
320.843	47.1
321.057	40.96
321.27	-8.19
321.483	40.96
321.697	61.44
321.91	-0
322.124	34.82
322.337	-2.05
322.55	24.58
322.763	59.39
322.977	18.43
323.19	-4.1
323.403	83.97
323.617	-8.19
323.83	71.68
324.043	47.1
324.256	51.2
324.469	-10.24
324.683	30.72
324.896	24.58
325.109	18.43
325.322	6.14
325.535	83.97
325.748	24.58
325.962	32.77
326.175	36.86
326.388	20.48
326.601	69.63
326.814	8.19
327.027	10.24
327.24	96.25
327.453	-32.77
327.666	88.06
327.879	10.24
328.092	36.86
328.305	40.96
328.518	116.73
328.731	6.14
328.944	75.77
329.157	-24.58
329.37	-4.1
329.583	55.3
329.796	-10.24
330.009	-77.82
330.222	102.4
330.435	28.67
330.648	28.67
330.861	114.69
331.073	-12.29
331.286	63.49
331.499	73.73
331.712	-12.29
331.925	18.43
332.138	-47.1
332.35	59.39
332.563	14.34
332.776	-22.53
332.989	-12.29
333.202	28.67
333.414	-36.86
333.627	51.2
333.84	2.05
334.053	16.38
334.265	-38.91
334.478	45.06
334.691	16.38
334.903	-2.05
335.116	12.29
335.329	-20.48
335.541	51.2
335.754	71.68
335.966	-30.72
336.179	108.54
336.392	55.3
336.604	51.2
336.817	12.29
337.029	-65.54
337.242	47.1
337.454	149.5
337.667	-51.2
337.88	6.14
338.092	18.43
338.305	-10.24
338.517	-0
338.729	67.58
338.942	4.1
339.154	-30.72
339.367	-12.29
339.579	-30.72
339.792	65.53
340.004	6.14
340.217	55.3
340.429	77.82
340.641	88.06
340.854	53.25
341.066	51.2
341.278	92.16
341.491	49.15
341.703	-16.38
341.915	51.2
342.128	-2.05
342.34	18.43
342.552	-6.14
342.764	14.34
342.977	49.15
343.189	2.05
343.401	22.53
343.613	14.34
343.826	-10.24
344.038	-4.1
344.25	53.25
344.462	-71.68
344.674	-28.67
344.886	69.63
345.099	51.2
345.311	-0
345.523	32.77
345.735	18.43
345.947	65.53
346.159	-71.68
346.371	79.87
346.583	22.53
346.795	59.39
347.007	8.19
347.219	40.96
347.431	38.91
347.643	-26.62
347.855	-30.72
348.067	94.21
348.279	-2.05
348.491	26.62
348.703	53.25
348.915	-24.58
349.127	-4.1
349.339	49.15
349.551	24.58
349.763	83.97
349.975	40.96
350.187	71.68
350.399	34.82
350.61	57.34
350.822	-14.34
351.034	73.73
351.246	59.39
351.458	30.72
351.669	-16.38
351.881	94.21
352.093	-2.05
352.305	100.35
352.517	-20.48
352.728	10.24
352.94	10.24
353.152	36.86
353.363	8.19
353.575	57.34
353.787	43.01
353.999	4.1
354.21	43.01
354.422	-2.05
354.633	-32.77
354.845	-2.05
355.057	-6.14
355.268	38.91
355.48	-6.14
355.692	16.38
355.903	-36.86
356.115	10.24
356.326	-6.14
356.538	73.73
356.749	38.91
356.961	34.82
357.172	-20.48
357.384	-36.86
357.595	100.35
357.807	61.44
358.018	2.05
358.23	-0
358.441	8.19
358.653	10.24
358.864	24.58
359.075	71.68
359.287	40.96
359.498	67.58
359.709	28.67
359.921	6.14
360.132	69.63
360.344	12.29
360.555	2.05
360.766	55.3
360.977	34.82
361.189	47.1
361.4	88.06
361.611	65.53
361.823	22.53
362.034	69.63
362.245	-2.05
362.456	81.92
362.667	43.01
362.879	79.87
363.09	30.72
363.301	16.38
363.512	53.25
363.723	40.96
363.935	12.29
364.146	-12.29
364.357	26.62
364.568	106.49
364.779	-38.91
364.99	122.88
365.201	22.53
365.412	61.44
365.623	-71.68
365.834	10.24
366.045	43.01
366.256	-61.44
366.467	12.29
366.678	16.38
366.889	12.29
367.1	-4.1
367.311	47.1
367.522	-14.34
367.733	-43.01
367.944	112.64
368.155	14.34
368.366	8.19
368.577	20.48
368.788	40.96
368.999	-18.43
369.209	12.29
369.42	124.93
369.631	8.19
369.842	61.44
370.053	24.58
370.264	-16.38
370.474	-40.96
370.685	32.77
370.896	75.77
371.107	36.86
371.317	-0
371.528	-24.58
371.739	53.25
371.95	40.96
372.16	108.54
372.371	40.96
372.582	114.69
372.792	100.35
373.003	-2.05
373.214	24.58
373.424	-14.34
373.635	-12.29
373.846	26.62
374.056	67.58
374.267	-12.29
374.477	71.68
374.688	49.15
374.898	-18.43
375.109	40.96
375.319	43.01
375.53	81.92
375.74	20.48
375.951	57.34
376.161	28.67
376.372	14.34
376.582	18.43
376.793	112.64
377.003	10.24
377.214	45.06
377.424	26.62
377.635	18.43
377.845	2.05
378.055	-4.1
378.266	53.25
378.476	43.01
378.686	47.1
378.897	55.3
379.107	118.78
379.317	22.53
379.528	88.06
379.738	100.35
379.948	38.91
380.158	83.97
380.369	36.86
380.579	-24.58
380.789	-2.05
380.999	92.16
381.21	81.92
381.42	51.2
381.63	8.19
381.84	69.63
382.05	8.19
382.261	90.11
382.471	24.58
382.681	65.53
382.891	47.1
383.101	34.82
383.311	-2.05
383.521	20.48
383.731	69.63
383.941	10.24
384.151	-36.86
384.361	49.15
384.571	-2.05
384.781	18.43
384.991	6.14
385.201	57.34
385.411	30.72
385.621	57.34
385.831	106.49
386.041	34.82
386.251	4.1
386.461	57.34
386.671	-18.43
386.881	43.01
387.091	36.86
387.301	18.43
387.511	69.63
387.72	28.67
387.93	-6.14
388.14	40.96
388.35	51.2
388.56	122.88
388.769	4.1
388.979	28.67
389.189	-2.05
389.399	43.01
389.609	83.97
389.818	145.41
390.028	106.49
390.238	-0
390.447	14.34
390.657	88.06
390.867	57.34
391.076	53.25
391.286	24.58
391.496	16.38
391.705	-8.19
391.915	118.78
392.125	71.68
392.334	10.24
392.544	18.43
392.753	139.26
392.963	-6.14
393.172	53.25
393.382	30.72
393.591	36.86
393.801	43.01
394.01	79.87
394.22	16.38
394.429	24.58
394.639	81.92
394.848	116.73
395.058	98.3
395.267	88.06
395.477	77.82
395.686	47.1
395.895	47.1
396.105	139.26
396.314	59.39
396.524	69.63
396.733	73.73
396.942	135.17
397.152	67.58
397.361	73.73
397.57	45.06
397.78	8.19
397.989	88.06
398.198	104.45
398.407	65.53
398.617	20.48
398.826	36.86
399.035	2.05
399.244	55.3
399.453	110.59
399.663	71.68
399.872	92.16
400.081	34.82
400.29	157.69
400.499	10.24
400.708	139.26
400.917	98.3
401.127	206.84
401.336	55.3
401.545	102.4
401.754	38.91
401.963	61.44
402.172	69.63
402.381	6.14
402.59	88.06
402.799	75.77
403.008	73.73
403.217	149.5
403.426	124.93
403.635	116.73
403.844	182.27
404.053	137.21
404.262	83.97
404.471	163.84
404.68	65.53
404.888	135.17
405.097	96.25
405.306	67.58
405.515	131.07
405.724	131.07
405.933	167.93
406.142	100.35
406.35	147.45
406.559	139.26
406.768	167.93
406.977	192.51
407.185	196.6
407.394	112.64
407.603	124.93
407.812	239.61
408.02	245.76
408.229	215.04
408.438	206.84
408.646	204.8
408.855	159.74
409.064	225.28
409.272	202.75
409.481	274.43
409.69	206.84
409.898	239.61
410.107	290.81
410.315	380.92
410.524	266.24
410.733	280.57
410.941	272.38
411.15	366.59
411.358	350.2
411.567	380.92
411.775	346.11
411.984	385.02
412.192	360.44
412.401	335.87
412.609	389.11
412.818	460.79
413.026	462.84
413.234	444.41
413.443	452.6
413.651	466.94
413.86	485.37
414.068	501.75
414.276	626.68
414.485	561.14
414.693	548.86
414.901	655.35
415.11	677.88
415.318	690.17
415.526	649.21
415.734	772.08
415.943	710.65
416.151	712.69
416.359	720.88
416.567	749.56
416.776	874.48
416.984	882.67
417.192	983.02
417.4	835.57
417.608	1015.79
417.817	956.4
418.025	987.12
418.233	1110
418.441	1028.08
418.649	1110
418.857	1210.35
419.065	1247.21
419.273	1112.05
419.481	1282.03
419.689	1499.11
419.897	1427.43
420.105	1439.72
420.313	1372.14
420.521	1513.45
420.729	1538.02
420.937	1585.13
421.145	1658.85
421.353	1708.01
421.561	1769.44
421.769	1873.89
421.977	1900.51
422.185	1953.76
422.393	2041.82
422.601	2043.87
422.809	2090.98
423.017	2136.03
423.224	2279.39
423.432	2363.36
423.64	2306.01
423.848	2514.91
424.056	2555.86
424.263	2584.54
424.471	2662.36
424.679	2791.38
424.887	2877.4
425.094	2940.88
425.302	2899.92
425.51	3088.34
425.718	3153.87
425.925	3223.5
426.133	3514.31
426.341	3465.16
426.548	3749.83
426.756	3620.81
426.964	3735.49
427.171	3958.72
427.379	4011.97
427.586	4091.84
427.794	4241.34
428.001	4364.22
428.209	4616.12
428.417	4599.74
428.624	4872.12
428.832	4767.67
429.039	4820.92
429.247	4937.65
429.454	5394.35
429.662	5670.83
429.869	5377.97
430.076	5597.1
430.284	5527.47
430.491	5853.09
430.699	6199.2
430.906	6197.15
431.114	6236.06
431.321	6500.25
431.528	6748.06
431.736	7051.16
431.943	7401.36
432.15	7024.53
432.358	7233.43
432.565	7559.05
432.772	7464.85
432.979	7907.21
433.187	8142.72
433.394	8025.99
433.601	8628.09
433.808	8734.59
434.016	8386.43
434.223	8859.51
434.43	9547.63
434.637	9416.56
434.844	9815.91
435.052	10147.69
435.259	10108.77
435.466	10123.11
435.673	10162.02
435.88	10712.92
436.087	11259.73
436.294	11360.08
436.501	10911.58
436.708	11204.44
436.915	11392.85
437.122	12093.26
437.329	12324.68
437.537	12508.99
437.743	12664.64
437.95	12576.58
438.157	13412.15
438.364	13649.71
438.571	13827.89
438.778	13584.18
438.985	15247.13
439.192	14667.55
439.399	15044.38
439.606	14659.36
439.813	15318.81
440.02	16535.3
440.227	15990.54
440.433	16199.43
440.64	16383.75
440.847	16254.73
441.054	16678.66
441.261	17893.1
441.467	17680.11
441.674	18284.26
441.881	18790.11
442.088	18638.56
442.294	18325.22
442.501	18822.88
442.708	19336.92
442.914	20045.52
443.121	20809.41
443.328	20686.53
443.534	21821.11
443.741	21253.82
443.948	20817.6
444.154	22703.78
444.361	22507.18
444.568	22585
444.774	22316.72
444.981	22838.95
445.187	23201.44
445.394	24501.9
445.6	24266.38
445.807	26410.6
446.013	25372.28
446.22	25505.4
446.426	26977.89
446.633	27178.59
446.839	27885.14
447.046	26938.98
447.252	28421.71
447.459	27993.68
447.665	28290.64
447.871	29623.87
448.078	30778.92
448.284	29251.14
448.491	29947.45
448.697	31288.87
448.903	31817.24
449.11	31712.8
449.316	31075.88
449.522	32073.24
449.728	32605.71
449.935	32800.27
450.141	32818.7
450.347	33701.37
450.553	32294.42
450.76	33021.45
450.966	33928.7
451.172	33527.3
451.378	34493.94
451.584	33566.21
451.791	34622.96
451.997	34510.32
452.203	35003.88
452.409	35007.98
452.615	35001.83
452.821	33465.86
453.027	33367.55
453.233	34989.55
453.44	33738.24
453.646	33865.21
453.852	34217.46
454.058	34491.89
454.264	33385.99
454.47	34239.99
454.676	33084.94
454.882	34344.44
455.088	31292.96
455.294	31819.29
455.5	32200.21
455.705	32531.98
455.911	31360.55
456.117	30629.42
456.323	30271.03
456.529	28724.81
456.735	29953.59
456.941	29056.58
457.147	28663.37
457.352	27461.21
457.558	27467.36
457.764	27577.95
457.97	27115.11
458.176	26426.99
458.381	26285.68
458.587	24925.83
458.793	25052.8
458.999	23590.55
459.204	25032.32
459.41	24770.18
459.616	22898.34
459.821	23375.52
460.027	22740.64
460.233	22634.15
460.438	21464.76
460.644	21456.57
460.85	20518.6
461.055	20109.01
461.261	20256.46
461.466	18786.02
461.672	18048.75
461.878	19439.32
462.083	18200.3
462.289	17829.62
462.494	17919.73
462.7	16828.16
462.905	16246.54
463.111	17004.28
463.316	16690.95
463.522	16797.44
463.727	16924.41
463.932	16787.2
464.138	16422.66
464.343	16465.67
464.549	15974.16
464.754	16606.98
464.959	16586.5
465.165	16211.72
465.37	15539.99
465.575	15027.99
465.781	15724.3
465.986	15996.68
466.191	15453.97
466.397	15030.04
466.602	14513.95
466.807	14722.85
467.012	14765.85
467.218	14653.22
467.423	14577.44
467.628	14772
467.833	15353.62
468.038	14837.53
468.244	14290.73
468.449	14876.44
468.654	14276.39
468.859	14341.93
469.064	14173.99
469.269	13453.11
469.474	13610.8
469.679	14038.83
469.885	13516.59
470.09	13905.71
470.295	13516.59
470.5	13383.48
470.705	13340.47
470.91	13137.72
471.115	13084.47
471.32	13170.49
471.525	12992.31
471.73	12767.04
471.935	12738.37
472.139	12359.49
472.344	12470.08
472.549	12377.92
472.754	12322.63
472.959	12015.43
473.164	11861.83
473.369	11609.93
473.574	11810.64
473.778	11794.25
473.983	11898.7
474.188	11741
474.393	11061.08
474.598	11134.81
474.802	11038.55
475.007	11036.5
475.212	10825.56
475.417	10614.62
475.621	10631.01
475.826	10698.59
476.031	10522.46
476.235	10127.21
476.44	10434.4
476.645	10162.02
476.849	10223.46
477.054	10207.08
477.259	9881.45
477.463	9840.49
477.668	9623.41
477.872	9779.05
478.077	9547.63
478.282	9344.88
478.486	9516.91
478.691	9443.18
478.895	9234.29
479.1	9133.94
479.304	9144.18
479.509	8947.58
479.713	8972.15
479.918	8824.7
480.122	8693.63
480.326	8959.86
480.531	8888.18
480.735	8839.03
480.94	8771.45
481.144	9072.5
481.348	8636.28
481.553	8646.52
481.757	8423.3
481.961	8791.93
482.166	8777.59
482.37	8705.92
482.574	8376.19
482.778	8511.36
482.983	8574.85
483.187	8458.11
483.391	8542.08
483.595	8335.23
483.8	8351.62
484.004	8447.87
484.208	8599.42
484.412	8656.76
484.616	8568.7
484.821	8566.65
485.025	8355.71
485.229	8507.26
485.433	8458.11
485.637	8464.25
485.841	8388.48
486.045	8404.86
486.249	8566.65
486.453	8472.45
486.657	8472.45
486.861	8513.41
487.065	8257.41
487.269	8234.88
487.473	8468.35
487.677	8544.13
487.881	8601.47
488.085	8462.21
488.289	8540.03
488.493	8327.04
488.697	8644.48
488.901	8431.49
489.105	8374.14
489.309	8634.24
489.512	8564.61
489.716	8548.22
489.92	8624
490.124	8671.1
490.328	8728.44
490.531	8572.8
490.735	8722.3
490.939	8634.24
491.143	8607.61
491.346	8624
491.55	8851.32
491.754	8769.4
491.958	9021.3
492.161	8877.94
492.365	8884.09
492.569	8812.41
492.772	8800.12
492.976	9078.65
493.18	9082.74
493.383	9138.04
493.587	9166.71
493.79	9068.41
493.994	9082.74
494.197	9518.96
494.401	9179
494.605	9222
494.808	9521.01
495.012	9498.48
495.215	9539.44
495.419	9525.1
495.622	9566.06
495.825	9727.85
496.029	9856.87
496.232	9965.42
496.436	10059.62
496.639	10288.99
496.843	10014.57
497.046	10528.61
497.249	10461.02
497.453	10291.04
497.656	10665.82
497.859	10495.84
498.063	10706.78
498.266	10975.06
498.469	10788.7
498.673	11091.8
498.876	11298.64
499.079	11210.58
499.282	11274.07
499.485	11509.58
499.689	11630.41
499.892	11650.89
500.095	11595.6
500.298	11947.85
500.501	12013.38
500.705	12556.1
500.908	12513.09
501.111	12390.21
501.314	12533.57
501.517	12932.92
501.72	13018.94
501.923	12814.14
502.126	13363
502.329	13369.14
502.532	13569.84
502.735	13498.16
502.938	14061.35
503.141	13864.75
503.344	14149.42
503.547	14110.5
503.75	13975.34
503.953	14561.06
504.156	14837.53
504.359	14677.79
504.562	14675.74
504.765	15042.33
504.968	15030.04
505.17	15335.19
505.373	15421.2
505.576	15558.42
505.779	15808.27
505.982	16049.93
506.185	16142.09
506.387	16090.89
506.59	16262.92
506.793	16559.88
506.996	16533.25
507.198	17153.79
507.401	17049.34
507.604	17164.03
507.807	17653.49
508.009	17692.4
508.212	17815.28
508.415	17905.39
508.617	18136.81
508.82	18126.57
509.022	18069.23
509.225	18597.6
509.428	18761.44
509.63	18822.88
509.833	18757.35
510.035	19701.46
510.238	19189.47
510.44	19357.4
510.643	19900.11
510.845	20000.46
511.048	19746.51
511.25	20141.77
511.453	20307.66
511.655	20975.3
511.858	20944.58
512.06	21227.2
512.262	20913.86
512.465	21151.42
512.667	21448.38
512.87	21710.52
513.072	21741.24
513.274	22206.13
513.477	22306.48
513.679	22474.41
513.881	22757.03
514.084	22904.48
514.286	23154.33
514.488	23191.2
514.69	23979.67
514.893	23774.87
515.095	23690.9
515.297	24241.81
515.499	24272.53
515.701	24467.08
515.904	24770.18
516.106	24618.63
516.308	25058.95
516.51	25513.59
516.712	25300.61
516.914	25579.13
517.116	26207.86
517.318	25945.72
517.52	26375.79
517.722	26367.6
517.925	26195.57
518.127	26865.25
518.329	26824.29
518.531	27129.44
518.733	27651.67
518.935	27557.47
519.136	27567.71
519.338	27956.82
519.54	28104.28
519.742	28431.95
519.944	28270.16
520.146	29081.16
520.348	28948.04
520.55	29130.31
520.752	29423.17
520.954	29386.3
521.155	29242.95
521.357	30027.32
521.559	30092.85
521.761	30484.01
521.963	30445.1
522.164	30588.46
522.366	30660.14
522.568	30557.74
522.77	30965.29
522.971	31329.83
523.173	31276.58
523.375	31712.8
523.576	31462.94
523.778	31344.16
523.98	32374.29
524.181	32192.02
524.383	32312.85
524.584	32634.38
524.786	32644.62
524.988	32450.06
525.189	32974.34
525.391	33279.49
525.592	33041.93
525.794	33246.72
525.995	33457.67
526.197	33146.37
526.398	33465.86
526.6	34043.38
526.801	33709.57
527.003	33592.83
527.204	33934.84
527.406	34053.62
527.607	34041.34
527.808	34469.36
528.01	34291.19
528.211	34246.13
528.412	34999.79
528.614	34602.48
528.815	34891.24
529.016	35077.61
529.218	34465.27
529.419	34565.62
529.62	34792.94
529.822	35245.54
530.023	35042.79
530.224	34905.58
530.425	34721.26
530.626	34545.14
530.828	34911.72
531.029	35894.75
531.23	35040.75
531.431	34911.72
531.632	35263.97
531.833	35354.08
532.035	35526.11
532.236	35257.83
532.437	35546.59
532.638	35331.56
532.839	35569.12
533.04	35810.78
533.241	35044.84
533.442	36101.59
533.643	35495.39
533.844	35610.08
534.045	35567.07
534.246	35648.99
534.447	35663.33
534.648	35405.28
534.849	35614.18
535.05	35266.02
535.251	35442.15
535.451	35401.19
535.652	35448.29
535.853	35110.38
536.054	35655.14
536.255	35640.8
536.456	35231.21
536.657	35710.43
536.857	35696.1
537.058	35089.9
537.259	35929.56
537.46	35610.08
537.66	35436
537.861	35349.99
538.062	35450.34
538.263	35472.87
538.463	35372.52
538.664	35356.13
538.865	35710.43
539.065	35689.95
539.266	35005.93
539.466	35735.01
539.667	34926.06
539.868	35671.52
540.068	35337.7
540.269	35020.27
540.469	35454.43
540.67	34706.93
540.87	35018.22
541.071	35438.05
541.271	35253.73
541.472	35028.46
541.672	35630.56
541.873	34956.78
542.073	34731.5
542.274	35573.22
542.474	35118.57
542.675	34983.4
542.875	35669.47
543.075	34856.43
543.276	34708.97
543.476	35476.96
543.676	35003.88
543.877	34835.95
544.077	34821.61
544.277	34905.58
544.478	34797.04
544.678	35171.82
544.878	34805.23
545.078	34817.52
545.279	34708.97
545.479	35065.32
545.679	34958.83
545.879	34692.59
546.079	34938.35
546.28	34758.13
546.48	34373.11
546.68	34862.57
546.88	34807.28
547.08	34909.68
547.28	34670.06
547.48	34541.04
547.68	34661.87
547.88	34500.08
548.081	35270.12
548.281	34975.21
548.481	34389.49
548.681	35091.94
548.881	34719.21
549.081	34801.13
549.28	34377.2
549.48	34881
549.68	34706.93
549.88	34919.92
550.08	34219.51
550.28	34942.44
550.48	34115.06
550.68	34745.84
550.88	35038.7
551.08	34756.08
551.279	34797.04
551.479	34242.04
551.679	34385.4
551.879	34614.77
552.079	34633.2
552.278	34395.64
552.478	34270.71
552.678	34371.06
552.878	34614.77
553.077	34270.71
553.277	34063.86
553.477	34455.03
553.676	34086.39
553.876	34194.93
554.076	33877.5
554.275	34389.49
554.475	34076.15
554.674	34131.45
554.874	34350.58
555.074	34123.26
555.273	34104.82
555.473	34156.02
555.672	34035.19
555.872	33525.25
556.071	34143.73
556.271	34465.27
556.47	33693.18
556.67	33435.14
556.869	33799.68
557.068	34235.89
557.268	33973.75
557.467	33943.03
557.667	33508.86
557.866	33484.29
558.065	33656.32
558.265	33598.98
558.464	33232.39
558.663	33840.64
558.863	33177.09
559.062	33861.12
559.261	33175.05
559.461	33797.63
559.66	33144.33
559.859	33779.2
560.058	32689.68
560.258	33611.26
560.457	33166.85
560.656	33402.37
560.855	33015.3
561.054	33191.43
561.253	32863.75
561.453	33072.65
561.652	33422.85
561.851	33564.16
562.05	32843.27
562.249	32316.95
562.448	32863.75
562.647	33033.74
562.846	32996.87
563.045	32519.7
563.244	32325.14
563.443	33342.98
563.642	32116.25
563.841	32589.33
564.04	32452.11
564.239	32624.14
564.438	32249.36
564.637	32538.13
564.836	32505.36
565.035	32185.88
565.234	32337.43
565.432	31995.42
565.631	32134.68
565.83	32116.25
566.029	31970.84
566.228	31886.87
566.427	31897.11
566.625	31821.34
566.824	31378.98
567.023	31577.63
567.222	31329.83
567.42	31708.7
567.619	31727.13
567.818	31231.52
568.016	31495.71
568.215	31501.86
568.414	31286.82
568.612	31462.94
568.811	31125.03
569.01	31508
569.208	31120.93
569.407	30963.24
569.605	30553.65
569.804	30998.05
570.002	30522.93
570.201	31104.55
570.4	30326.32
570.598	30311.99
570.797	30418.48
570.995	30725.68
571.193	30152.24
571.392	30623.28
571.59	30113.33
571.789	30385.71
571.987	30010.93
572.186	30363.18
572.384	29908.54
572.582	30338.61
572.781	30398
572.979	29738.55
573.177	30105.14
573.376	30133.81
573.574	29779.51
573.772	30090.8
573.971	29697.59
574.169	29058.63
574.367	29228.61
574.565	29439.55
574.763	29406.78
574.962	29292.1
575.16	28982.85
575.358	29445.69
575.556	28513.87
575.754	29355.58
575.952	28847.69
576.151	29150.79
576.349	28415.57
576.547	28782.15
576.745	28573.26
576.943	28532.3
577.141	28474.96
577.339	28675.66
577.537	28282.45
577.735	28366.42
577.933	28302.93
578.131	28272.21
578.329	28229.2
578.527	28053.08
578.725	28046.93
578.923	28235.35
579.121	27672.15
579.319	27960.92
579.516	27983.44
579.714	27670.11
579.912	27383.39
580.11	27514.46
580.308	27618.91
580.506	27545.18
580.704	27170.4
580.901	27287.14
581.099	27512.41
581.297	27278.94
581.495	26988.13
581.692	27209.31
581.89	27076.19
582.088	26902.12
582.285	27106.91
582.483	27291.23
582.681	27012.71
582.878	26779.24
583.076	26541.67
583.274	26740.33
583.471	26003.06
583.669	26232.43
583.866	26478.19
584.064	26257.01
584.262	26185.33
584.459	26351.21
584.657	26199.66
584.854	26193.52
585.052	25808.5
585.249	26068.59
585.447	25675.38
585.644	25687.67
585.841	25411.2
586.039	25755.25
586.236	25441.92
586.434	25532.03
586.631	25392.76
586.828	25247.36
587.026	25464.44
587.223	25417.34
587.42	25437.82
587.618	25124.48
587.815	25071.23
588.012	24977.03
588.21	24909.44
588.407	25020.03
588.604	24739.46
588.801	24616.58
588.999	24561.29
589.196	24704.65
589.393	24587.91
589.59	24319.63
589.787	24221.33
589.984	24266.38
590.182	23873.17
590.379	24540.81
590.576	23821.97
590.773	24204.94
590.97	23809.68
591.167	24198.8
591.364	23459.48
591.561	23756.44
591.758	23563.93
591.955	23623.32
592.152	23713.43
592.349	23350.94
592.546	23234.21
592.743	23604.89
592.94	23127.71
593.137	23113.38
593.334	23223.97
593.531	22750.88
593.727	22820.52
593.924	22988.45
594.121	22671.01
594.318	23107.23
594.515	22488.74
594.712	22961.83
594.908	22599.34
595.105	23004.83
595.302	22544.04
595.499	22503.08
595.696	22478.5
595.892	22267.56
596.089	22175.41
596.286	22392.49
596.482	22333.1
596.679	22148.78
596.876	22116.01
597.072	21655.22
597.269	21905.07
597.466	21501.62
597.662	21382.84
597.859	21798.58
598.055	21792.44
598.252	21497.53
598.448	21739.19
598.645	21597.88
598.841	21470.9
599.038	21229.24
599.234	21604.02
599.431	20909.76
599.627	20940.48
599.824	21073.6
600.02	20905.66
600.217	21106.37
600.413	20872.9
600.609	20862.66
600.806	20891.33
601.002	21026.5
601.198	20532.93
601.395	20598.47
601.591	20405.96
601.787	20479.69
601.984	20426.44
602.18	20575.94
602.376	20285.13
602.572	20319.95
602.769	20170.44
602.965	20203.21
603.161	20080.33
603.357	19873.49
603.553	20068.05
603.75	19766.99
603.946	19664.6
604.142	19691.22
604.338	19689.17
604.534	19748.56
604.73	19715.8
604.926	19726.03
605.122	19515.09
605.318	19334.87
605.514	19363.54
605.71	19009.25
605.906	19156.7
606.102	19273.43
606.298	19218.14
606.494	18984.67
606.69	19193.56
606.886	18966.24
607.082	18607.84
607.278	19115.74
607.474	18620.13
607.67	18808.54
607.866	18679.52
608.062	18808.54
608.257	18661.09
608.453	18695.91
608.649	18499.3
608.845	18448.1
609.041	18501.35
609.236	18468.58
609.432	18267.88
609.628	18405.1
609.824	18208.49
610.019	18065.13
610.215	18380.52
610.411	18296.55
610.606	18071.28
610.802	18118.38
610.998	18153.19
611.193	17929.97
611.389	18255.59
611.584	17839.86
611.78	17993.45
611.976	18071.28
612.171	17833.71
612.367	18085.61
612.562	17784.56
612.758	17671.92
612.953	17741.55
613.149	17766.13
613.344	17835.76
613.539	17688.31
613.735	17534.71
613.93	17854.19
614.126	17467.13
614.321	17549.04
614.517	17606.39
614.712	17360.63
614.907	17118.97
615.103	17442.55
615.298	17424.12
615.493	17450.74
615.688	17172.22
615.884	17590
616.079	16948.99
616.274	17475.32
616.47	17237.75
616.665	16914.17
616.86	16985.85
617.055	16928.51
617.25	16996.09
617.445	17198.84
617.641	16666.37
617.836	16885.5
618.031	16729.86
618.226	16744.19
618.421	16566.02
618.616	16697.09
618.811	16488.2
619.006	16750.34
619.201	16480
619.396	16297.74
619.591	16203.53
619.786	16484.1
619.981	16035.6
620.176	16170.76
620.371	15726.35
620.566	16367.37
620.761	15703.82
620.956	16090.89
621.151	15490.84
621.346	15818.51
621.541	15449.88
621.735	15669.01
621.93	15554.32
622.125	15677.2
622.32	15259.42
622.515	15312.66
622.709	15298.33
622.904	15402.77
623.099	15111.96
623.294	15218.46
623.488	14935.84
623.683	15091.48
623.878	14683.94
624.072	14868.25
624.267	14728.99
624.462	14405.41
624.656	14405.41
624.851	14454.56
625.046	14245.67
625.24	14079.79
625.435	14026.54
625.629	14208.81
625.824	14063.4
626.018	14071.59
626.213	13559.6
626.407	13907.76
626.602	13618.99
626.796	13782.83
626.991	13487.92
627.185	13584.18
627.38	13469.49
627.574	13199.16
627.768	13363
627.963	13410.1
628.157	13000.51
628.352	13111.1
628.546	12857.15
628.74	12930.87
628.935	13018.94
629.129	12744.51
629.323	12730.17
629.517	12705.6
629.712	12535.62
629.906	12525.38
630.1	12341.06
630.294	12523.33
630.489	12377.92
630.683	12281.67
630.877	12078.92
631.071	12123.98
631.265	12089.16
631.459	11962.19
631.653	12056.39
631.848	11925.32
632.042	11796.3
632.236	11802.44
632.43	11568.98
632.624	11691.85
632.818	11525.97
633.012	11423.57
633.206	11323.22
633.4	11480.91
633.594	11362.13
633.788	11231.06
633.982	11231.06
634.176	11104.09
634.369	11036.5
634.563	11136.85
634.757	11116.37
634.951	11056.98
635.145	10893.15
635.339	10776.41
635.533	10674.01
635.726	10608.48
635.92	10680.16
636.114	10710.88
636.308	10493.79
636.501	10458.98
636.695	10487.65
636.889	10329.95
637.083	10305.38
637.276	10248.04
637.47	10102.63
637.664	10198.88
637.857	10174.31
638.051	10000.23
638.244	10030.95
638.438	9875.31
638.632	10018.66
638.825	9934.7
639.019	9883.5
639.212	9647.98
639.406	9652.08
639.599	9518.96
639.793	10004.33
639.986	9353.07
640.18	9555.82
640.373	9445.23
640.567	9344.88
640.76	9344.88
640.954	9359.22
641.147	9164.66
641.34	9133.94
641.534	8978.3
641.727	9088.89
641.92	8986.49
642.114	8855.42
642.307	9082.74
642.5	8925.05
642.694	8687.48
642.887	8703.87
643.08	8648.57
643.273	8728.44
643.467	8728.44
643.66	8331.14
643.853	8552.32
644.046	8597.37
644.239	8447.87
644.432	8400.77
644.626	8271.75
644.819	8191.87
645.012	8198.02
645.205	8232.83
645.398	8206.21
645.591	8011.65
645.784	8155.01
645.977	8019.85
646.17	7849.86
646.363	7929.73
646.556	7853.96
646.749	7813
646.942	7753.61
647.135	7753.61
647.328	7767.95
647.521	7632.78
647.714	7415.69
647.907	7776.14
648.099	7610.25
648.292	7890.82
648.485	7460.75
648.678	7503.76
648.871	7372.69
649.064	7202.71
649.256	7561.1
649.449	7227.28
649.642	7274.38
649.835	7311.25
650.027	7270.29
650.22	7241.62
650.413	7262.1
650.605	7260.05
650.798	7122.84
650.991	7075.73
651.183	7075.73
651.376	6803.35
651.568	7128.98
651.761	6803.35
651.954	6870.94
652.146	6844.31
652.339	6772.63
652.531	6809.5
652.724	6764.44
652.916	6606.75
653.109	6551.45
653.301	6825.88
653.494	6600.6
653.686	6342.56
653.879	6514.59
654.071	6332.32
654.263	6346.66
654.456	6258.59
654.648	6457.25
654.84	6248.35
655.033	6356.89
655.225	6211.49
655.417	6166.43
655.61	6363.04
655.802	6158.24
655.994	6041.51
656.186	6320.03
656.379	6092.71
656.571	5980.07
656.763	5922.73
656.955	5941.16
657.148	5873.57
657.34	5853.09
657.532	5932.97
657.724	5783.46
657.916	5742.5
658.108	5785.51
658.3	5670.83
658.492	5746.6
658.684	5636.01
658.876	5597.1
659.068	5599.15
659.26	5572.52
659.452	5541.8
659.644	5609.39
659.836	5480.36
660.028	5445.55
660.22	5230.51
660.412	5414.83
660.604	5472.17
660.796	5429.17
660.988	5353.39
661.18	5279.66
661.372	5203.89
661.563	5171.12
661.755	5214.13
661.947	5394.35
662.139	5171.12
662.331	5132.21
662.522	5121.97
662.714	5021.62
662.906	4968.37
663.097	5062.58
663.289	4964.28
663.481	4949.94
663.673	4970.42
663.864	4906.93
664.056	4933.56
664.247	4972.47
664.439	4906.93
664.631	4810.68
664.822	4755.38
665.014	4765.62
665.205	4777.91
665.397	4612.03
665.588	4759.48
665.78	4628.41
665.971	4673.46
666.163	4724.66
666.354	4767.67
666.546	4599.74
666.737	4566.97
666.929	4693.94
667.12	4409.28
667.311	4632.51
667.503	4546.49
667.694	4612.03
667.885	4276.16
668.077	4401.08
668.268	4341.69
668.459	4472.76
668.651	4370.37
668.842	4401.08
669.033	4333.5
669.224	4261.82
669.416	4192.19
669.607	4179.9
669.798	4417.47
669.989	4255.68
670.18	4167.62
670.371	4165.57
670.563	4151.23
670.754	4235.2
670.945	4175.81
671.136	4233.15
671.327	4034.5
671.518	4134.85
671.709	4194.24
671.9	3930.05
672.091	4063.17
672.282	4077.51
672.473	4061.12
672.664	4016.07
672.855	4036.55
673.046	3964.87
673.237	4061.12
673.428	3928
673.619	3874.76
673.809	3952.58
674	3780.55
674.191	3837.89
674.382	3921.86
674.573	3876.8
674.764	3801.03
674.954	3764.17
675.145	3715.02
675.336	3811.27
675.527	3719.11
675.717	3743.69
675.908	3657.67
676.099	3766.21
676.289	3768.26
676.48	3657.67
676.671	3749.83
676.861	3680.2
677.052	3721.16
677.243	3647.43
677.433	3710.92
677.624	3743.69
677.814	3596.23
678.005	3516.36
678.195	3715.02
678.386	3637.19
678.576	3499.98
678.767	3647.43
678.957	3672.01
679.148	3657.67
679.338	3665.86
679.529	3479.5
679.719	3416.01
679.909	3508.17
680.1	3456.97
680.29	3516.36
680.481	3448.78
680.671	3557.32
680.861	3465.16
681.052	3495.88
681.242	3528.65
681.432	3514.31
681.622	3362.76
681.813	3444.68
682.003	3483.59
682.193	3340.24
682.383	3463.12
682.573	3479.5
682.764	3344.33
682.954	3467.21
683.144	3456.97
683.334	3444.68
683.524	3305.42
683.714	3383.24
683.904	3227.6
684.094	3317.71
684.284	3385.29
684.474	3387.34
684.664	3268.56
684.854	3217.36
685.044	3250.13
685.234	3168.21
685.424	3125.2
685.614	3117.01
685.804	3295.18
685.994	3172.3
686.184	3168.21
686.374	3184.59
686.564	3119.06
686.753	3094.48
686.943	3194.83
687.133	3016.66
687.323	2987.99
687.513	3127.25
687.702	3014.61
687.892	3141.58
688.082	3098.58
688.272	3188.69
688.461	3053.52
688.651	3004.37
688.841	2881.49
689.03	2818
689.22	2891.73
689.41	2977.75
689.599	2881.49
689.789	2940.88
689.979	2869.2
690.168	2926.55
690.358	2969.55
690.547	2801.62
690.737	2799.57
690.926	2799.57
691.116	2813.91
691.305	2715.61
691.495	2875.35
691.684	2785.24
691.874	2688.98
692.063	2746.33
692.252	2734.04
692.442	2748.37
692.631	2727.89
692.82	2711.51
693.01	2699.22
693.199	2711.51
693.388	2674.65
693.578	2777.05
693.767	2648.02
693.956	2623.45
694.146	2562.01
694.335	2639.83
694.524	2564.06
694.713	2674.65
694.902	2551.77
695.092	2506.71
695.281	2615.26
695.47	2580.44
695.659	2572.25
695.848	2498.52
696.037	2539.48
696.226	2498.52
696.415	2686.93
696.604	2475.99
696.793	2547.67
696.982	2602.97
697.171	2611.16
697.36	2525.15
697.549	2564.06
697.738	2435.03
697.927	2553.82
698.116	2576.34
698.305	2531.29
698.494	2500.57
698.683	2566.1
698.872	2445.27
699.061	2572.25
699.25	2602.97
699.438	2533.34
699.627	2527.19
699.816	2469.85
700.005	2598.87
700.193	2426.84
700.382	2516.95
700.571	2484.19
700.76	2508.76
700.948	2504.67
701.137	2437.08
701.326	2494.43
701.514	2428.89
701.703	2545.63
701.892	2510.81
702.08	2545.63
702.269	2377.69
702.457	2504.67
702.646	2512.86
702.834	2410.46
703.023	2467.8
703.212	2580.44
703.4	2475.99
703.589	2461.66
703.777	2619.35
703.965	2447.32
704.154	2496.47
704.342	2435.03
704.531	2424.79
704.719	2510.81
704.907	2531.29
705.096	2416.6
705.284	2496.47
705.472	2478.04
705.661	2523.1
705.849	2641.88
706.037	2480.09
706.226	2475.99
706.414	2478.04
706.602	2416.6
706.79	2500.57
706.979	2471.9
707.167	2400.22
707.355	2443.23
707.543	2383.84
707.731	2506.71
707.919	2469.85
708.107	2363.36
708.296	2508.76
708.484	2475.99
708.672	2402.27
708.86	2537.43
709.048	2394.08
709.236	2475.99
709.424	2451.42
709.612	2486.23
709.8	2519
709.988	2574.3
710.176	2592.73
710.364	2553.82
710.551	2426.84
710.739	2490.33
710.927	2498.52
711.115	2439.13
711.303	2478.04
711.491	2512.86
711.679	2449.37
711.866	2437.08
712.054	2490.33
712.242	2353.12
712.43	2414.56
712.617	2504.67
712.805	2473.95
712.993	2541.53
713.181	2377.69
713.368	2564.06
713.556	2527.19
713.744	2437.08
713.931	2635.74
714.119	2463.71
714.306	2394.08
714.494	2652.12
714.682	2502.62
714.869	2512.86
715.057	2492.38
715.244	2475.99
715.432	2545.63
715.619	2475.99
715.807	2447.32
715.994	2510.81
716.182	2463.71
716.369	2525.15
716.556	2465.75
716.744	2514.91
716.931	2435.03
717.119	2514.91
717.306	2480.09
717.493	2482.14
717.681	2576.34
717.868	2475.99
718.055	2445.27
718.242	2385.88
718.43	2482.14
718.617	2410.46
718.804	2473.95
718.991	2443.23
719.179	2549.72
719.366	2559.96
719.553	2537.43
719.74	2465.75
719.927	2443.23
720.114	2447.32
720.301	2490.33
720.488	2510.81
720.676	2523.1
720.863	2525.15
721.05	2523.1
721.237	2584.54
721.424	2461.66
721.611	2512.86
721.798	2459.61
721.985	2387.93
722.172	2545.63
722.358	2441.18
722.545	2473.95
722.732	2426.84
722.919	2508.76
723.106	2494.43
723.293	2422.75
723.48	2463.71
723.667	2519
723.853	2303.96
724.04	2404.32
724.227	2371.55
724.414	2381.79
724.6	2342.88
724.787	2435.03
724.974	2533.34
725.161	2396.12
725.347	2408.41
725.534	2379.74
725.72	2385.88
725.907	2418.65
726.094	2336.73
726.28	2342.88
726.467	2424.79
726.653	2387.93
726.84	2394.08
727.027	2551.77
727.213	2428.89
727.4	2392.03
727.586	2365.4
727.773	2306.01
727.959	2359.26
728.145	2353.12
728.332	2490.33
728.518	2432.99
728.705	2408.41
728.891	2383.84
729.077	2246.62
729.264	2496.47
729.45	2424.79
729.636	2404.32
729.823	2265.05
730.009	2385.88
730.195	2316.25
730.382	2365.4
730.568	2408.41
730.754	2224.09
730.94	2389.98
731.126	2377.69
731.313	2238.43
731.499	2285.53
731.685	2369.5
731.871	2269.15
732.057	2418.65
732.243	2371.55
732.429	2256.86
732.615	2375.64
732.801	2389.98
732.987	2260.96
733.173	2220
733.359	2250.72
733.545	2285.53
733.731	2220
733.917	2422.75
734.103	2320.35
734.289	2303.96
734.475	2418.65
734.661	2346.97
734.847	2224.09
735.033	2271.2
735.219	2258.91
735.404	2267.1
735.59	2199.52
735.776	2109.41
735.962	2195.42
736.148	2211.81
736.333	2222.05
736.519	2297.82
736.705	2203.61
736.89	2238.43
737.076	2146.27
737.262	2176.99
737.447	2213.85
737.633	2252.77
737.819	2181.09
738.004	2205.66
738.19	2226.14
738.375	2129.89
738.561	2234.33
738.747	2164.7
738.932	2158.56
739.118	2170.85
739.303	2201.57
739.489	2129.89
739.674	2172.89
739.859	2074.59
740.045	2144.22
740.23	2115.55
740.416	2047.97
740.601	2162.65
740.786	2029.54
740.972	2179.04
741.157	1974.24
741.342	2011.11
741.528	2201.57
741.713	2111.46
741.898	2101.22
742.084	2050.02
742.269	2199.52
742.454	2099.17
742.639	2125.79
742.824	1955.81
743.01	2052.06
743.195	2004.96
743.38	1949.67
743.565	2045.92
743.75	1994.72
743.935	2002.91
744.12	2035.68
744.305	2031.58
744.49	1882.08
744.675	1957.86
744.86	1828.84
745.045	1845.22
745.23	1910.75
745.415	1832.93
745.6	1861.6
745.785	1906.66
745.97	1837.03
746.155	1837.03
746.34	1845.22
746.525	1757.16
746.71	1822.69
746.895	1916.9
747.079	1884.13
747.264	1853.41
747.449	1796.07
747.634	1777.64
747.819	1724.39
748.003	1765.35
748.188	1769.44
748.373	1714.15
748.557	1683.43
748.742	1646.57
748.927	1744.87
749.111	1759.21
749.296	1619.94
749.481	1595.37
749.665	1687.53
749.85	1665
750.034	1648.61
750.219	1560.55
750.404	1624.04
750.588	1611.75
750.773	1546.22
750.957	1529.83
751.141	1548.26
751.326	1597.42
751.51	1519.59
751.695	1578.98
751.879	1449.96
752.064	1566.7
752.248	1597.42
752.432	1513.45
752.617	1476.59
752.801	1460.2
752.985	1452.01
753.17	1425.39
753.354	1486.83
753.538	1359.85
753.722	1357.8
753.907	1409
754.091	1314.8
754.275	1433.58
754.459	1390.57
754.643	1339.37
754.828	1378.28
755.012	1302.51
755.196	1271.79
755.38	1310.7
755.564	1288.17
755.748	1298.41
755.932	1386.47
756.116	1380.33
756.3	1277.93
756.484	1337.32
756.668	1335.28
756.852	1320.94
757.036	1286.12
757.22	1234.93
757.404	1286.12
757.588	1245.16
757.772	1128.43
757.956	1228.78
758.14	1200.11
758.323	1167.34
758.507	1085.42
758.691	1232.88
758.875	1134.57
759.059	1153.01
759.242	1165.29
759.426	1116.14
759.61	1091.57
759.794	1097.71
759.977	1171.44
760.161	1134.57
760.345	1136.62
760.528	1138.67
760.712	1105.9
760.895	1122.29
761.079	1116.14
761.263	1085.42
761.446	1079.28
761.63	1081.33
761.813	1075.18
761.997	1073.14
762.18	1023.98
762.364	1056.75
762.547	1019.89
762.731	1005.55
762.914	1023.98
763.098	950.26
763.281	987.12
763.464	991.22
763.648	1003.5
763.831	1038.32
764.015	976.88
764.198	1003.5
764.381	964.59
764.564	1007.6
764.748	958.45
764.931	1007.6
765.114	933.87
765.297	993.26
765.481	897.01
765.664	962.55
765.847	927.73
766.03	899.06
766.213	909.3
766.397	940.02
766.58	966.64
766.763	1023.98
766.946	964.59
767.129	864.24
767.312	864.24
767.495	915.44
767.678	899.06
767.861	968.69
768.044	911.35
768.227	808.95
768.41	862.19
768.593	993.26
768.776	765.94
768.959	903.15
769.142	899.06
769.324	884.72
769.507	823.28
769.69	845.81
769.873	751.6
770.056	854
770.239	780.28
770.421	917.49
770.604	874.48
770.787	780.28
770.97	782.32
771.152	843.76
771.335	839.67
771.518	796.66
771.7	819.19
771.883	763.89
772.066	784.37
772.248	731.12
772.431	794.61
772.613	868.34
772.796	749.56
772.978	792.56
773.161	747.51
773.343	737.27
773.526	708.6
773.708	686.07
773.891	741.36
774.073	755.7
774.256	710.65
774.438	731.12
774.621	638.97
774.803	649.21
774.985	669.69
775.168	669.69
775.35	749.56
775.532	704.5
775.715	675.83
775.897	638.97
776.079	622.58
776.261	651.25
776.444	696.31
776.626	677.88
776.808	665.59
776.99	675.83
777.173	638.97
777.355	704.5
777.537	634.87
777.719	604.15
777.901	563.19
778.083	657.4
778.265	636.92
778.447	688.12
778.629	620.53
778.811	544.76
778.993	626.68
779.175	536.57
779.357	641.01
779.539	604.15
779.721	649.21
779.903	557.05
780.085	573.43
780.267	532.47
780.449	544.76
780.631	559.1
780.812	604.15
780.994	550.9
781.176	532.47
781.358	524.28
781.54	614.39
781.721	548.86
781.903	516.09
782.085	487.42
782.267	583.67
782.448	499.7
782.63	528.38
782.812	565.24
782.993	454.65
783.175	516.09
783.357	503.8
783.538	526.33
783.72	432.12
783.901	428.03
784.083	468.98
784.264	491.51
784.446	393.21
784.627	454.65
784.809	432.12
784.99	403.45
785.172	473.08
785.353	495.61
785.535	464.89
785.716	409.59
785.897	438.27
786.079	387.07
786.26	436.22
786.441	364.54
786.623	417.79
786.804	387.07
786.985	428.03
787.167	387.07
787.348	397.31
787.529	444.41
787.71	460.79
787.891	430.07
788.073	432.12
788.254	323.58
788.435	364.54
788.616	356.35
788.797	303.1
788.978	399.35
789.159	387.07
789.34	417.79
789.522	382.97
789.703	317.44
789.884	321.53
790.065	294.91
790.246	368.63
790.427	321.53
790.607	321.53
790.788	419.83
790.969	292.86
791.15	354.3
791.331	376.83
791.512	280.57
791.693	251.9
791.874	325.63
792.054	415.74
792.235	385.02
792.416	348.15
792.597	286.72
792.778	305.15
792.958	288.76
793.139	323.58
793.32	327.67
793.5	344.06
793.681	311.29
793.862	270.33
794.042	368.63
794.223	249.85
794.404	296.96
794.584	253.95
794.765	296.96
794.945	352.25
795.126	276.48
795.306	282.62
795.487	282.62
795.667	286.72
795.848	339.96
796.028	204.8
796.209	299
796.389	337.91
796.57	198.65
796.75	270.33
796.93	229.37
797.111	176.13
797.291	245.76
797.471	309.24
797.652	299
797.832	182.27
798.012	245.76
798.192	208.89
798.373	194.56
798.553	286.72
798.733	217.08
798.913	167.93
799.093	274.43
799.274	159.74
799.454	219.13
799.634	270.33
799.814	190.46
799.994	292.86
800.174	233.47
800.354	151.55
800.534	200.7
800.714	299
800.894	184.32
801.074	149.5
801.254	190.46
801.434	337.91
801.614	194.56
801.794	106.49
801.974	575.48
802.154	286.72
802.334	221.18
802.514	305.15
802.693	229.37
802.873	227.32
803.053	262.14
803.233	186.37
803.413	215.04
803.592	215.04
803.772	282.62
803.952	165.89
804.131	202.75
804.311	251.9
804.491	284.67
804.67	153.6
804.85	114.69
805.03	196.6
805.209	200.7
805.389	190.46
805.568	129.02
805.748	202.75
805.928	165.89
806.107	223.23
806.287	143.36
806.466	147.45
806.646	194.56
806.825	110.59
807.004	253.95
807.184	186.37
807.363	249.85
807.543	221.18
807.722	186.37
807.901	151.55
808.081	155.65
808.26	122.88
808.439	202.75
808.619	165.89
808.798	100.35
808.977	149.5
809.156	137.21
809.336	153.6
809.515	180.22
809.694	81.92
809.873	137.21
810.052	135.17
810.231	155.65
810.411	155.65
810.59	186.37
810.769	221.18
810.948	139.26
811.127	196.6
811.306	163.84
811.485	124.93
811.664	167.93
811.843	143.36
812.022	129.02
812.201	182.27
812.38	215.04
812.559	147.45
812.737	165.89
812.916	98.3
813.095	129.02
813.274	172.03
813.453	108.54
813.632	165.89
813.811	122.88
813.989	178.17
814.168	120.83
814.347	102.4
814.526	149.5
814.704	88.06
814.883	122.88
815.062	129.02
815.24	96.25
815.419	178.17
815.598	210.94
815.776	131.07
815.955	108.54
816.133	147.45
816.312	196.6
816.49	108.54
816.669	137.21
816.847	81.92
817.026	151.55
817.204	59.39
817.383	104.45
817.561	81.92
817.74	174.08
817.918	90.11
818.097	135.17
818.275	100.35
818.453	147.45
818.632	147.45
818.81	18.43
818.988	96.25
819.167	106.49
819.345	116.73
819.523	104.45
819.701	102.4
819.879	167.93
820.058	114.69
820.236	139.26
820.414	92.16
820.592	106.49
820.77	118.78
820.948	51.2
821.127	83.97
821.305	98.3
821.483	61.44
821.661	153.6
821.839	112.64
822.017	53.25
822.195	4.1
822.373	161.79
822.551	157.69
822.729	114.69
822.907	116.73
823.085	135.17
823.262	106.49
823.44	112.64
823.618	47.1
823.796	92.16
823.974	92.16
824.152	92.16
824.329	67.58
824.507	112.64
824.685	122.88
824.863	55.3
825.04	81.92
825.218	96.25
825.396	26.62
825.574	94.21
825.751	108.54
825.929	94.21
826.107	57.34
826.284	120.83
826.462	47.1
826.639	100.35
826.817	88.06
826.994	79.87
827.172	49.15
827.349	49.15
827.527	90.11
827.704	135.17
827.882	69.63
828.059	79.87
828.237	110.59
828.414	79.87
828.591	-40.96
828.769	126.97
828.946	51.2
829.124	73.73
829.301	81.92
829.478	49.15
829.655	38.91
829.833	73.73
830.01	102.4
830.187	63.49
830.364	75.77
830.542	40.96
830.719	-2.05
830.896	108.54
831.073	38.91
831.25	129.02
831.427	38.91
831.604	32.77
831.782	47.1
831.959	106.49
832.136	53.25
832.313	65.53
832.49	30.72
832.667	57.34
832.844	67.58
833.021	147.45
833.198	47.1
833.374	71.68
833.551	63.49
833.728	112.64
833.905	122.88
834.082	36.86
834.259	-6.14
834.436	47.1
834.612	43.01
834.789	43.01
834.966	61.44
835.143	61.44
835.319	36.86
835.496	141.31
835.673	-24.58
835.85	32.77
836.026	55.3
836.203	34.82
836.38	45.06
836.556	73.73
836.733	16.38
836.909	73.73
837.086	-20.48
837.262	67.58
837.439	32.77
837.616	75.77
837.792	12.29
837.968	51.2
838.145	-16.38
838.321	-22.53
838.498	43.01
838.674	71.68
838.851	20.48
839.027	67.58
839.203	43.01
839.38	24.58
839.556	77.82
839.732	75.77
839.909	51.2
840.085	116.73
840.261	51.2
840.437	51.2
840.614	32.77
840.79	120.83
840.966	26.62
841.142	32.77
841.318	-30.72
841.494	-24.58
841.671	73.73
841.847	-24.58
842.023	90.11
842.199	88.06
842.375	104.45
842.551	28.67
842.727	-69.63
842.903	14.34
843.079	43.01
843.255	34.82
843.431	-18.43
843.607	53.25
843.783	-14.34
843.959	77.82
844.134	-2.05
844.31	102.4
844.486	20.48
844.662	94.21
844.838	-20.48
845.013	75.77
845.189	51.2
845.365	-24.58
845.541	55.3
845.716	57.34
845.892	47.1
846.068	26.62
846.244	-8.19
846.419	14.34
846.595	14.34
846.77	53.25
846.946	83.97
847.122	36.86
847.297	106.49
847.473	26.62
847.648	-6.14
847.824	49.15
847.999	6.14
848.175	20.48
848.35	79.87
848.526	43.01
848.701	-8.19
848.876	22.53
849.052	96.25
849.227	69.63
849.403	-14.34
849.578	63.49
849.753	75.77
849.929	2.05
850.104	26.62
850.279	-18.43
850.454	-43.01
850.63	18.43
850.805	18.43
850.98	69.63
851.155	30.72
851.33	16.38
851.505	8.19
851.681	88.06
851.856	34.82
852.031	55.3
852.206	36.86
852.381	-14.34
852.556	-53.25
852.731	16.38
852.906	108.54
853.081	-0
853.256	59.39
853.431	6.14
853.606	-34.82
853.781	10.24
853.956	-45.06
854.131	-0
854.305	61.44
854.48	47.1
854.655	55.3
854.83	-4.1
855.005	47.1
855.18	32.77
855.354	49.15
855.529	71.68
855.704	-4.1
855.879	59.39
856.053	-14.34
856.228	14.34
856.403	-14.34
856.577	77.82
856.752	-71.68
856.926	18.43
857.101	-2.05
857.276	-4.1
857.45	-24.58
857.625	147.45
857.799	-8.19
857.974	18.43
858.148	-20.48
858.323	86.01
858.497	63.49
858.672	-8.19
858.846	10.24
859.02	-18.43
859.195	-22.53
859.369	-2.05
859.543	-0
859.718	20.48
859.892	-12.29
860.066	10.24
860.241	30.72
860.415	-61.44
860.589	12.29
860.763	49.15
860.938	-22.53
861.112	36.86
861.286	57.34
861.46	-63.49
861.634	59.39
861.808	-40.96
861.982	38.91
862.157	6.14
862.331	34.82
862.505	14.34
862.679	-57.34
862.853	65.53
863.027	12.29
863.201	10.24
863.375	30.72
863.549	45.06
863.722	32.77
863.896	-43.01
864.07	8.19
864.244	14.34
864.418	16.38
864.592	18.43
864.766	45.06
864.939	16.38
865.113	-8.19
865.287	75.77
865.461	14.34
865.634	-43.01
865.808	6.14
865.982	-2.05
866.156	-10.24
866.329	-61.44
866.503	32.77
866.676	20.48
866.85	34.82
867.024	4.1
867.197	8.19
867.371	69.63
867.544	16.38
867.718	26.62
867.891	-16.38
868.065	12.29
868.238	-40.96
868.412	53.25
868.585	22.53
868.759	16.38
868.932	14.34
869.105	20.48
869.279	2.05
869.452	81.92
869.625	2.05
869.799	16.38
869.972	-36.86
870.145	-34.82
870.319	-40.96
870.492	-38.91
870.665	-0
870.838	-16.38
871.011	-24.58
871.185	14.34
871.358	-24.58
871.531	67.58
871.704	-4.1
871.877	-8.19
872.05	-38.91
872.223	-45.06
872.396	26.62
872.569	32.77
872.742	26.62
872.915	22.53
873.088	51.2
873.261	26.62
873.434	34.82
873.607	40.96
873.78	61.44
873.953	53.25
874.126	32.77
874.299	-38.91
874.471	-90.11
874.644	-47.1
874.817	96.25
874.99	81.92
875.163	22.53
875.335	45.06
875.508	51.2
875.681	100.35
875.853	-14.34
876.026	43.01
876.199	65.53
876.371	51.2
876.544	36.86
876.717	-6.14
876.889	-22.53
877.062	18.43
877.234	61.44
877.407	-45.06
877.579	-53.25
877.752	32.77
877.924	-47.1
878.097	-16.38
878.269	-34.82
878.442	-6.14
878.614	18.43
878.786	-22.53
878.959	2.05
879.131	10.24
879.303	55.3
879.476	-43.01
879.648	16.38
879.82	26.62
879.993	-8.19
880.165	-40.96
880.337	-40.96
880.509	-40.96
880.681	-22.53
880.854	-98.3
881.026	20.48
881.198	77.82
881.37	-26.62
881.542	-18.43
881.714	-20.48
881.886	36.86
882.058	26.62
882.23	38.91
882.402	22.53
882.574	-12.29
882.746	-24.58
882.918	34.82
883.09	-61.44
883.262	32.77
883.434	-6.14
883.606	-8.19
883.778	-47.1
883.95	-6.14
884.122	12.29
884.293	-6.14
884.465	16.38
884.637	30.72
884.809	-14.34
884.98	14.34
885.152	24.58
885.324	65.53
885.496	-12.29
885.667	4.1
885.839	14.34
886.011	51.2
886.182	16.38
886.354	22.53
886.525	-71.68
886.697	-2.05
886.869	-26.62
887.04	-14.34
887.212	10.24
887.383	14.34
887.555	-55.3
887.726	8.19
887.897	-141.31
888.069	28.67
888.24	53.25
888.412	24.58
888.583	34.82
888.754	24.58
888.926	-38.91
889.097	34.82
889.268	-116.73
889.44	24.58
889.611	-59.39
889.782	18.43
889.953	-18.43
890.125	47.1
890.296	16.38
890.467	28.67
890.638	-4.1
890.809	-47.1
890.98	10.24
891.151	63.49
891.323	-16.38
891.494	14.34
891.665	16.38
891.836	8.19
892.007	-6.14
892.178	-45.06
892.349	43.01
892.52	10.24
892.691	-36.86
892.862	-30.72
893.032	-69.63
893.203	47.1
893.374	-38.91
893.545	-10.24
893.716	12.29
893.887	18.43
894.057	6.14
894.228	8.19
894.399	-14.34
894.57	-18.43
894.74	-8.19
894.911	-4.1
895.082	22.53
895.253	-18.43
895.423	-26.62
895.594	12.29
895.764	24.58
895.935	22.53
896.106	36.86
896.276	-14.34
896.447	-4.1
896.617	-57.34
896.788	-45.06
896.958	-30.72
897.129	16.38
897.299	16.38
897.47	36.86
897.64	12.29
897.81	-14.34
897.981	24.58
898.151	49.15
898.322	-4.1
898.492	36.86
898.662	-16.38
898.832	-53.25
899.003	-28.67
899.173	53.25
899.343	43.01
899.513	-4.1
