Data from USB4F104151__21__12-00-30-154.txt Node

Date: Fri Mar 14 12:00:30 EDT 2025
User: louis
Spectrometer: USB4F10415
Trigger mode: 4
Integration Time (sec): 2.000000E-2
Scans to average: 1
Electric dark correction enabled: true
Nonlinearity correction enabled: false
Boxcar width: 0
XAxis mode: Wavelengths
Number of Pixels in Spectrum: 3648
>>>>>Begin Spectral Data<<<<<
178.204	-118.44
178.424	-118.44
178.644	-118.44
178.864	-46.76
179.084	-46.76
179.304	4.44
179.524	-81.58
179.744	-36.52
179.964	80.21
180.184	-1.71
180.404	-3.75
180.624	2.39
180.844	65.88
181.064	-57
181.283	-1.71
181.503	-36.52
181.723	65.88
181.943	6.49
182.163	53.59
182.383	43.35
182.602	94.55
182.822	-20.14
183.042	-52.91
183.262	57.68
183.482	45.4
183.701	-24.23
183.921	47.44
184.141	-32.43
184.361	53.59
184.58	63.83
184.8	92.5
185.02	-9.9
185.239	55.64
185.459	0.34
185.679	51.54
185.898	-28.33
186.118	-13.99
186.338	18.77
186.557	57.68
186.777	4.44
186.997	69.97
187.216	10.58
187.436	123.22
187.655	59.73
187.875	145.75
188.095	-9.9
188.314	6.49
188.534	33.11
188.753	-9.9
188.973	80.21
189.192	110.93
189.412	-16.04
189.631	63.83
189.851	59.73
190.07	100.69
190.29	-54.95
190.509	16.73
190.729	-1.71
190.948	0.34
191.168	86.36
191.387	127.32
191.607	49.49
191.826	-13.99
192.045	33.11
192.265	2.39
192.484	41.3
192.704	20.82
192.923	37.2
193.142	16.73
193.362	63.83
193.581	55.64
193.8	-16.04
194.02	51.54
194.239	16.73
194.458	59.73
194.678	-1.71
194.897	37.2
195.116	8.53
195.335	37.2
195.555	55.64
195.774	72.02
195.993	80.21
196.212	-38.57
196.432	39.25
196.651	67.92
196.87	33.11
197.089	117.08
197.308	104.79
197.528	6.49
197.747	33.11
197.966	29.01
198.185	37.2
198.404	31.06
198.623	51.54
198.842	45.4
199.062	43.35
199.281	76.12
199.5	-3.75
199.719	14.68
199.938	84.31
200.157	96.6
200.376	92.5
200.595	82.26
200.814	51.54
201.033	10.58
201.252	55.64
201.471	51.54
201.69	45.4
201.909	57.68
202.128	51.54
202.347	61.78
202.566	49.49
202.785	53.59
203.004	4.44
203.223	106.84
203.442	72.02
203.661	4.44
203.879	20.82
204.098	92.5
204.317	16.73
204.536	72.02
204.755	8.53
204.974	24.92
205.193	39.25
205.411	-20.14
205.63	67.92
205.849	24.92
206.068	78.16
206.287	88.4
206.505	6.49
206.724	10.58
206.943	14.68
207.162	16.73
207.381	67.92
207.599	22.87
207.818	88.4
208.037	26.96
208.255	55.64
208.474	14.68
208.693	-7.85
208.911	55.64
209.13	16.73
209.349	69.97
209.567	26.96
209.786	2.39
210.005	-18.09
210.223	65.88
210.442	-9.9
210.661	41.3
210.879	37.2
211.098	14.68
211.316	8.53
211.535	117.08
211.753	-11.95
211.972	53.59
212.191	-20.14
212.409	26.96
212.628	49.49
212.846	82.26
213.065	16.73
213.283	86.36
213.502	18.77
213.72	78.16
213.938	-1.71
214.157	61.78
214.375	47.44
214.594	53.59
214.812	110.93
215.031	2.39
215.249	20.82
215.467	12.63
215.686	22.87
215.904	65.88
216.122	74.07
216.341	20.82
216.559	65.88
216.778	2.39
216.996	49.49
217.214	49.49
217.432	39.25
217.651	-22.19
217.869	-34.47
218.087	102.74
218.306	35.16
218.524	76.12
218.742	-11.95
218.96	22.87
219.179	47.44
219.397	-18.09
219.615	37.2
219.833	88.4
220.051	51.54
220.27	67.92
220.488	94.55
220.706	49.49
220.924	33.11
221.142	26.96
221.36	61.78
221.578	72.02
221.796	14.68
222.015	49.49
222.233	55.64
222.451	12.63
222.669	8.53
222.887	4.44
223.105	0.34
223.323	45.4
223.541	37.2
223.759	-28.33
223.977	37.2
224.195	4.44
224.413	94.55
224.631	61.78
224.849	43.35
225.067	63.83
225.285	20.82
225.503	24.92
225.721	-7.85
225.939	22.87
226.157	-13.99
226.375	133.46
226.592	47.44
226.81	-3.75
227.028	29.01
227.246	63.83
227.464	53.59
227.682	88.4
227.9	16.73
228.117	20.82
228.335	82.26
228.553	16.73
228.771	6.49
228.989	-24.23
229.206	43.35
229.424	8.53
229.642	-7.85
229.86	49.49
230.077	74.07
230.295	57.68
230.513	92.5
230.731	18.77
230.948	-22.19
231.166	49.49
231.384	-34.47
231.601	63.83
231.819	72.02
232.037	53.59
232.254	-7.85
232.472	45.4
232.689	-18.09
232.907	2.39
233.125	-40.62
233.342	76.12
233.56	-30.38
233.777	45.4
233.995	-1.71
234.213	51.54
234.43	8.53
234.648	74.07
234.865	84.31
235.083	49.49
235.3	112.98
235.518	67.92
235.735	43.35
235.953	2.39
236.17	57.68
236.388	14.68
236.605	22.87
236.822	63.83
237.04	61.78
237.257	69.97
237.475	67.92
237.692	61.78
237.909	41.3
238.127	18.77
238.344	24.92
238.562	123.22
238.779	2.39
238.996	57.68
239.214	20.82
239.431	53.59
239.648	41.3
239.865	20.82
240.083	49.49
240.3	12.63
240.517	53.59
240.735	20.82
240.952	4.44
241.169	55.64
241.386	61.78
241.603	12.63
241.821	20.82
242.038	63.83
242.255	-1.71
242.472	12.63
242.689	2.39
242.907	10.58
243.124	53.59
243.341	49.49
243.558	51.54
243.775	-3.75
243.992	4.44
244.209	-1.71
244.426	96.6
244.643	47.44
244.86	43.35
245.078	12.63
245.295	10.58
245.512	104.79
245.729	26.96
245.946	18.77
246.163	26.96
246.38	69.97
246.597	-7.85
246.814	4.44
247.031	22.87
247.248	39.25
247.464	74.07
247.681	131.41
247.898	63.83
248.115	16.73
248.332	55.64
248.549	135.51
248.766	69.97
248.983	80.21
249.2	47.44
249.417	35.16
249.633	-22.19
249.85	12.63
250.067	31.06
250.284	24.92
250.501	-13.99
250.717	29.01
250.934	2.39
251.151	41.3
251.368	98.64
251.585	67.92
251.801	22.87
252.018	61.78
252.235	49.49
252.451	35.16
252.668	14.68
252.885	76.12
253.102	-13.99
253.318	59.73
253.535	63.83
253.752	86.36
253.968	4.44
254.185	-20.14
254.401	10.58
254.618	61.78
254.835	-1.71
255.051	96.6
255.268	2.39
255.484	78.16
255.701	-46.76
255.917	72.02
256.134	-11.95
256.351	37.2
256.567	-20.14
256.784	4.44
257	-71.34
257.217	24.92
257.433	110.93
257.65	47.44
257.866	55.64
258.082	24.92
258.299	33.11
258.515	80.21
258.732	-13.99
258.948	69.97
259.165	90.45
259.381	6.49
259.597	51.54
259.814	8.53
260.03	59.73
260.246	22.87
260.463	55.64
260.679	53.59
260.895	-7.85
261.112	72.02
261.328	-5.8
261.544	55.64
261.761	49.49
261.977	8.53
262.193	16.73
262.409	112.98
262.626	86.36
262.842	31.06
263.058	39.25
263.274	-3.75
263.49	-1.71
263.707	67.92
263.923	-69.29
264.139	8.53
264.355	-57
264.571	59.73
264.787	-13.99
265.004	47.44
265.22	4.44
265.436	22.87
265.652	47.44
265.868	35.16
266.084	57.68
266.3	0.34
266.516	33.11
266.732	29.01
266.948	65.88
267.164	51.54
267.38	-5.8
267.596	35.16
267.812	88.4
268.028	96.6
268.244	86.36
268.46	6.49
268.676	-1.71
268.892	16.73
269.108	35.16
269.324	43.35
269.54	-7.85
269.756	41.3
269.972	-5.8
270.188	41.3
270.403	-36.52
270.619	43.35
270.835	84.31
271.051	8.53
271.267	43.35
271.483	22.87
271.698	35.16
271.914	45.4
272.13	119.12
272.346	39.25
272.562	39.25
272.777	-24.23
272.993	-20.14
273.209	26.96
273.425	59.73
273.64	45.4
273.856	96.6
274.072	57.68
274.287	-11.95
274.503	39.25
274.719	22.87
274.934	102.74
275.15	0.34
275.366	37.2
275.581	59.73
275.797	112.98
276.012	41.3
276.228	22.87
276.444	53.59
276.659	72.02
276.875	-40.62
277.09	-42.67
277.306	6.49
277.521	92.5
277.737	4.44
277.952	0.34
278.168	4.44
278.383	20.82
278.599	65.88
278.814	45.4
279.03	-18.09
279.245	57.68
279.461	16.73
279.676	33.11
279.892	-3.75
280.107	-3.75
280.322	37.2
280.538	55.64
280.753	24.92
280.969	20.82
281.184	55.64
281.399	45.4
281.615	72.02
281.83	76.12
282.045	10.58
282.26	10.58
282.476	102.74
282.691	18.77
282.906	18.77
283.122	108.88
283.337	61.78
283.552	6.49
283.767	18.77
283.983	59.73
284.198	33.11
284.413	59.73
284.628	57.68
284.843	31.06
285.058	16.73
285.274	6.49
285.489	37.2
285.704	104.79
285.919	-3.75
286.134	10.58
286.349	90.45
286.564	88.4
286.779	53.59
286.995	55.64
287.21	18.77
287.425	20.82
287.64	78.16
287.855	33.11
288.07	16.73
288.285	2.39
288.5	55.64
288.715	18.77
288.93	61.78
289.145	-3.75
289.36	35.16
289.575	31.06
289.79	39.25
290.004	43.35
290.219	49.49
290.434	6.49
290.649	-28.33
290.864	76.12
291.079	51.54
291.294	53.59
291.509	-36.52
291.724	-16.04
291.938	-5.8
292.153	4.44
292.368	53.59
292.583	39.25
292.798	80.21
293.012	57.68
293.227	33.11
293.442	76.12
293.657	47.44
293.871	131.41
294.086	-3.75
294.301	100.69
294.516	33.11
294.73	37.2
294.945	-13.99
295.16	47.44
295.374	49.49
295.589	29.01
295.804	112.98
296.018	8.53
296.233	137.56
296.447	29.01
296.662	2.39
296.877	55.64
297.091	12.63
297.306	29.01
297.52	-11.95
297.735	67.92
297.949	37.2
298.164	57.68
298.378	33.11
298.593	20.82
298.807	14.68
299.022	-26.28
299.236	92.5
299.451	57.68
299.665	-30.38
299.88	72.02
300.094	49.49
300.309	43.35
300.523	84.31
300.737	-83.63
300.952	22.87
301.166	98.64
301.381	-20.14
301.595	43.35
301.809	47.44
302.024	84.31
302.238	-1.71
302.452	35.16
302.667	53.59
302.881	47.44
303.095	18.77
303.309	41.3
303.524	33.11
303.738	67.92
303.952	8.53
304.166	92.5
304.381	41.3
304.595	80.21
304.809	4.44
305.023	72.02
305.237	121.17
305.452	98.64
305.666	49.49
305.88	6.49
306.094	33.11
306.308	100.69
306.522	84.31
306.736	-1.71
306.95	90.45
307.164	33.11
307.379	59.73
307.593	65.88
307.807	2.39
308.021	12.63
308.235	84.31
308.449	4.44
308.663	14.68
308.877	82.26
309.091	41.3
309.305	-11.95
309.519	-3.75
309.733	67.92
309.947	10.58
310.161	112.98
310.374	82.26
310.588	45.4
310.802	-48.81
311.016	33.11
311.23	14.68
311.444	37.2
311.658	45.4
311.872	67.92
312.085	117.08
312.299	63.83
312.513	76.12
312.727	72.02
312.941	-1.71
313.154	108.88
313.368	39.25
313.582	78.16
313.796	53.59
314.009	49.49
314.223	2.39
314.437	51.54
314.651	8.53
314.864	18.77
315.078	39.25
315.292	43.35
315.505	24.92
315.719	112.98
315.933	65.88
316.146	37.2
316.36	31.06
316.573	80.21
316.787	26.96
317.001	115.03
317.214	29.01
317.428	92.5
317.641	-22.19
317.855	61.78
318.068	-26.28
318.282	33.11
318.495	74.07
318.709	61.78
318.922	72.02
319.136	61.78
319.349	90.45
319.563	-7.85
319.776	74.07
319.99	-38.57
320.203	31.06
320.417	67.92
320.63	-32.43
320.843	31.06
321.057	18.77
321.27	92.5
321.483	31.06
321.697	61.78
321.91	51.54
322.124	45.4
322.337	26.96
322.55	8.53
322.763	18.77
322.977	31.06
323.19	43.35
323.403	67.92
323.617	61.78
323.83	41.3
324.043	82.26
324.256	69.97
324.469	24.92
324.683	72.02
324.896	20.82
325.109	80.21
325.322	84.31
325.535	90.45
325.748	0.34
325.962	37.2
326.175	35.16
326.388	102.74
326.601	88.4
326.814	12.63
327.027	35.16
327.24	26.96
327.453	-100.01
327.666	6.49
327.879	63.83
328.092	86.36
328.305	55.64
328.518	-5.8
328.731	18.77
328.944	53.59
329.157	61.78
329.37	37.2
329.583	39.25
329.796	72.02
330.009	24.92
330.222	117.08
330.435	26.96
330.648	47.44
330.861	49.49
331.073	10.58
331.286	86.36
331.499	92.5
331.712	94.55
331.925	-3.75
332.138	51.54
332.35	51.54
332.563	110.93
332.776	86.36
332.989	4.44
333.202	92.5
333.414	18.77
333.627	20.82
333.84	18.77
334.053	76.12
334.265	12.63
334.478	-32.43
334.691	72.02
334.903	51.54
335.116	-38.57
335.329	65.88
335.541	51.54
335.754	110.93
335.966	8.53
336.179	53.59
336.392	-54.95
336.604	8.53
336.817	100.69
337.029	55.64
337.242	24.92
337.454	90.45
337.667	43.35
337.88	100.69
338.092	35.16
338.305	104.79
338.517	12.63
338.729	65.88
338.942	100.69
339.154	12.63
339.367	53.59
339.579	-18.09
339.792	110.93
340.004	98.64
340.217	-5.8
340.429	82.26
340.641	51.54
340.854	16.73
341.066	-26.28
341.278	26.96
341.491	127.32
341.703	86.36
341.915	-40.62
342.128	61.78
342.34	33.11
342.552	2.39
342.764	57.68
342.977	55.64
343.189	57.68
343.401	80.21
343.613	39.25
343.826	106.84
344.038	-13.99
344.25	-9.9
344.462	37.2
344.674	88.4
344.886	55.64
345.099	57.68
345.311	96.6
345.523	80.21
345.735	8.53
345.947	29.01
346.159	-22.19
346.371	4.44
346.583	49.49
346.795	121.17
347.007	110.93
347.219	117.08
347.431	45.4
347.643	49.49
347.855	-52.91
348.067	100.69
348.279	41.3
348.491	55.64
348.703	69.97
348.915	135.51
349.127	47.44
349.339	112.98
349.551	108.88
349.763	20.82
349.975	74.07
350.187	53.59
350.399	57.68
350.61	59.73
350.822	37.2
351.034	57.68
351.246	10.58
351.458	86.36
351.669	37.2
351.881	20.82
352.093	67.92
352.305	168.27
352.517	24.92
352.728	35.16
352.94	59.73
353.152	57.68
353.363	8.53
353.575	47.44
353.787	18.77
353.999	137.56
354.21	39.25
354.422	47.44
354.633	106.84
354.845	57.68
355.057	78.16
355.268	41.3
355.48	119.12
355.692	108.88
355.903	65.88
356.115	84.31
356.326	26.96
356.538	78.16
356.749	33.11
356.961	100.69
357.172	92.5
357.384	39.25
357.595	115.03
357.807	102.74
358.018	53.59
358.23	31.06
358.441	-9.9
358.653	131.41
358.864	41.3
359.075	133.46
359.287	8.53
359.498	18.77
359.709	72.02
359.921	94.55
360.132	63.83
360.344	88.4
360.555	31.06
360.766	98.64
360.977	16.73
361.189	92.5
361.4	43.35
361.611	49.49
361.823	104.79
362.034	53.59
362.245	39.25
362.456	76.12
362.667	45.4
362.879	18.77
363.09	61.78
363.301	100.69
363.512	26.96
363.723	84.31
363.935	76.12
364.146	82.26
364.357	-7.85
364.568	65.88
364.779	24.92
364.99	143.7
365.201	104.79
365.412	84.31
365.623	53.59
365.834	86.36
366.045	123.22
366.256	74.07
366.467	72.02
366.678	74.07
366.889	106.84
367.1	63.83
367.311	92.5
367.522	80.21
367.733	-9.9
367.944	59.73
368.155	10.58
368.366	74.07
368.577	43.35
368.788	51.54
368.999	39.25
369.209	74.07
369.42	112.98
369.631	55.64
369.842	31.06
370.053	6.49
370.264	45.4
370.474	69.97
370.685	41.3
370.896	78.16
371.107	155.99
371.317	92.5
371.528	37.2
371.739	82.26
371.95	110.93
372.16	84.31
372.371	-30.38
372.582	12.63
372.792	24.92
373.003	121.17
373.214	22.87
373.424	86.36
373.635	24.92
373.846	69.97
374.056	57.68
374.267	-11.95
374.477	74.07
374.688	20.82
374.898	61.78
375.109	117.08
375.319	108.88
375.53	162.13
375.74	76.12
375.951	92.5
376.161	88.4
376.372	24.92
376.582	45.4
376.793	33.11
377.003	63.83
377.214	51.54
377.424	59.73
377.635	37.2
377.845	14.68
378.055	100.69
378.266	49.49
378.476	0.34
378.686	51.54
378.897	61.78
379.107	88.4
379.317	67.92
379.528	37.2
379.738	51.54
379.948	6.49
380.158	86.36
380.369	12.63
380.579	121.17
380.789	133.46
380.999	139.6
381.21	39.25
381.42	94.55
381.63	-13.99
381.84	108.88
382.05	43.35
382.261	119.12
382.471	43.35
382.681	96.6
382.891	51.54
383.101	96.6
383.311	22.87
383.521	29.01
383.731	57.68
383.941	69.97
384.151	41.3
384.361	29.01
384.571	57.68
384.781	158.03
384.991	129.36
385.201	61.78
385.411	90.45
385.621	45.4
385.831	90.45
386.041	121.17
386.251	-7.85
386.461	90.45
386.671	43.35
386.881	119.12
387.091	49.49
387.301	139.6
387.511	131.41
387.72	117.08
387.93	61.78
388.14	29.01
388.35	35.16
388.56	35.16
388.769	22.87
388.979	18.77
389.189	92.5
389.399	88.4
389.609	86.36
389.818	69.97
390.028	63.83
390.238	127.32
390.447	65.88
390.657	65.88
390.867	-11.95
391.076	76.12
391.286	39.25
391.496	45.4
391.705	125.27
391.915	106.84
392.125	131.41
392.334	67.92
392.544	80.21
392.753	137.56
392.963	55.64
393.172	92.5
393.382	-28.33
393.591	65.88
393.801	139.6
394.01	49.49
394.22	72.02
394.429	-7.85
394.639	106.84
394.848	63.83
395.058	82.26
395.267	145.75
395.477	137.56
395.686	80.21
395.895	131.41
396.105	94.55
396.314	117.08
396.524	104.79
396.733	57.68
396.942	86.36
397.152	139.6
397.361	151.89
397.57	43.35
397.78	67.92
397.989	172.37
398.198	194.9
398.407	131.41
398.617	63.83
398.826	186.71
399.035	115.03
399.244	149.84
399.453	74.07
399.663	151.89
399.872	143.7
400.081	31.06
400.29	100.69
400.499	149.84
400.708	141.65
400.917	151.89
401.127	131.41
401.336	155.99
401.545	205.14
401.754	158.03
401.963	67.92
402.172	108.88
402.381	184.66
402.59	119.12
402.799	141.65
403.008	162.13
403.217	131.41
403.426	158.03
403.635	96.6
403.844	149.84
404.053	180.56
404.262	158.03
404.471	147.8
404.68	123.22
404.888	172.37
405.097	108.88
405.306	201.04
405.515	205.14
405.724	211.28
405.933	201.04
406.142	160.08
406.35	192.85
406.559	188.75
406.768	262.48
406.977	209.23
407.185	211.28
407.394	188.75
407.603	176.47
407.812	246.1
408.02	379.22
408.229	209.23
408.438	188.75
408.646	309.58
408.855	291.15
409.064	377.17
409.272	313.68
409.481	297.3
409.69	293.2
409.898	334.16
410.107	371.02
410.315	360.78
410.524	346.45
410.733	336.21
410.941	422.22
411.15	436.56
411.358	463.18
411.567	481.61
411.775	487.76
411.984	450.89
412.192	479.57
412.401	409.94
412.609	504.14
412.818	596.3
413.026	598.35
413.234	553.29
413.443	600.4
413.651	606.54
413.86	631.12
414.068	651.6
414.276	637.26
414.485	674.12
414.693	729.42
414.901	731.47
415.11	727.37
415.318	743.75
415.526	797
415.734	891.21
415.943	940.36
416.151	905.54
416.359	1030.47
416.567	1005.89
416.776	985.41
416.984	1104.2
417.192	1067.33
417.4	1134.92
417.608	1077.57
417.817	1229.12
418.025	1096
418.233	1395.01
418.441	1308.99
418.649	1360.19
418.857	1417.54
419.065	1499.45
419.273	1419.58
419.481	1403.2
419.689	1687.87
419.897	1683.77
420.105	1655.1
420.313	1792.31
420.521	1866.04
420.729	1839.42
420.937	1927.48
421.145	1896.76
421.353	2115.89
421.561	2144.56
421.769	2146.61
421.977	2373.94
422.185	2281.78
422.393	2457.9
422.601	2582.83
422.809	2519.34
423.017	2679.08
423.224	2646.32
423.432	2777.39
423.64	2797.87
423.848	3045.67
424.056	2924.84
424.263	3227.94
424.471	3256.61
424.679	3346.72
424.887	3393.83
425.094	3533.09
425.302	3619.1
425.51	3776.8
425.718	3813.66
425.925	3805.47
426.133	4004.12
426.341	4176.15
426.548	4327.7
426.756	4395.28
426.964	4483.34
427.171	4706.57
427.379	4780.3
427.586	5058.82
427.794	5026.06
428.001	5304.58
428.209	5533.95
428.417	5527.81
428.624	5847.29
428.832	5943.55
429.039	5783.81
429.247	5871.87
429.454	6512.88
429.662	6633.71
429.869	6185.21
430.076	6967.53
430.284	6738.16
430.491	7043.31
430.699	7481.57
430.906	7360.74
431.114	7526.63
431.321	7760.09
431.528	7962.84
431.736	8425.68
431.943	8800.46
432.15	8712.4
432.358	8620.24
432.565	9162.95
432.772	8939.72
432.979	9521.35
433.187	9668.8
433.394	9793.73
433.601	10442.93
433.808	10428.6
434.016	10520.76
434.223	10770.61
434.43	11403.43
434.637	11417.77
434.844	12011.68
435.052	12167.32
435.259	11950.24
435.466	12089.5
435.673	12226.71
435.88	12880.02
436.087	13568.13
436.294	13596.81
436.501	13404.3
436.708	13705.35
436.915	13938.82
437.122	14645.37
437.329	14598.26
437.537	15097.97
437.743	15382.63
437.95	15356.01
438.157	15911.01
438.364	16590.94
438.571	16476.25
438.778	16652.38
438.985	18284.61
439.192	17555.53
439.399	18247.74
439.606	17791.05
439.813	18731.06
440.02	19664.94
440.227	19687.46
440.433	19437.61
440.64	19920.93
440.847	19843.11
441.054	20414.49
441.261	21454.86
441.467	21188.63
441.674	22079.49
441.881	22800.38
442.088	22661.12
442.294	22265.86
442.501	23207.92
442.708	23410.67
442.914	24510.43
443.121	25208.79
443.328	24713.18
443.534	26683.33
443.741	25888.71
443.948	25464.78
444.154	27559.86
444.361	26976.19
444.568	27654.06
444.774	27269.05
444.981	27613.1
445.187	28397.48
445.394	29452.18
445.6	29503.38
445.807	32149.35
446.013	30662.53
446.22	31270.78
446.426	32530.28
446.633	32685.92
446.839	33705.81
447.046	32778.08
447.252	34148.17
447.459	34445.13
447.665	34158.41
447.871	35958.58
448.078	37091.1
448.284	35403.58
448.491	36316.97
448.697	38131.47
448.903	38334.22
449.11	38498.06
449.316	38094.61
449.522	38700.81
449.728	39610.1
449.935	39907.06
450.141	39835.38
450.347	40658.66
450.553	39438.08
450.76	40224.5
450.966	41510.62
451.172	40648.43
451.378	42082
451.584	40531.69
451.791	42014.42
451.997	41479.9
452.203	42235.6
452.409	42573.52
452.615	42094.29
452.821	41125.6
453.027	39986.93
453.233	42622.67
453.44	40691.43
453.646	40972
453.852	41176.8
454.058	42229.46
454.264	40648.43
454.47	41219.81
454.676	40511.21
454.882	41709.27
455.088	38059.79
455.294	38401.8
455.5	39210.75
455.705	39560.95
455.911	37646.1
456.117	36865.83
456.323	36450.09
456.529	34793.28
456.735	36183.85
456.941	35356.47
457.147	34950.98
457.352	33851.22
457.558	32974.69
457.764	33371.99
457.97	32468.84
458.176	31750
458.381	31981.42
458.587	30273.42
458.793	30328.71
458.999	28573.6
459.204	30445.44
459.41	30017.42
459.616	28065.71
459.821	27994.03
460.027	27905.96
460.233	27377.59
460.438	25898.95
460.644	26234.82
460.85	24920.03
461.055	24711.13
461.261	24387.55
461.466	22478.85
461.672	21899.27
461.878	23375.86
462.083	21772.3
462.289	21760.01
462.494	21254.16
462.7	20441.12
462.905	19740.71
463.111	20541.47
463.316	20807.7
463.522	20035.62
463.727	20086.82
463.932	19992.61
464.138	20217.89
464.343	19965.99
464.549	19130.42
464.754	20260.9
464.959	19992.61
465.165	19513.39
465.37	19355.69
465.575	18307.13
465.781	19345.45
465.986	19353.65
466.191	18538.55
466.397	18264.13
466.602	17438.8
466.807	18012.23
467.012	17952.84
467.218	17823.81
467.423	17604.68
467.628	17582.15
467.833	18626.62
468.038	17709.13
468.244	17311.82
468.449	18161.73
468.654	17180.75
468.859	17037.39
469.064	17416.27
469.269	16668.76
469.474	16943.19
469.679	16934.99
469.885	16302.17
470.09	16427.1
470.295	16646.23
470.5	16132.19
470.705	16263.26
470.91	16068.7
471.115	15407.21
471.32	15997.03
471.525	15843.43
471.73	15558.76
471.935	15423.59
472.139	15016.05
472.344	15022.19
472.549	14954.61
472.754	15040.62
472.959	14604.41
473.164	14119.04
473.369	13996.16
473.574	14485.62
473.778	14237.82
473.983	14200.96
474.188	14291.07
474.393	13389.96
474.598	13617.29
474.802	13512.84
475.007	13336.71
475.212	13428.87
475.417	12757.14
475.621	12949.65
475.826	12963.98
476.031	12648.6
476.235	12363.93
476.44	12529.81
476.645	12322.97
476.849	12253.34
477.054	12126.36
477.259	11978.91
477.463	11958.43
477.668	11618.47
477.872	11909.28
478.077	11471.01
478.282	11165.87
478.486	11260.07
478.691	11102.38
478.895	11262.12
479.1	11069.61
479.304	11258.03
479.509	10795.18
479.713	11069.61
479.918	10629.3
480.122	10635.44
480.326	10825.9
480.531	10719.41
480.735	10752.18
480.94	10457.27
481.144	10789.04
481.348	10172.6
481.553	10371.26
481.757	10242.23
481.961	10401.97
482.166	10424.5
482.37	10416.31
482.574	10277.05
482.778	10387.64
482.983	10453.17
483.187	10318.01
483.391	10414.26
483.595	10293.43
483.8	10459.32
484.004	10244.28
484.208	10354.87
484.412	10256.57
484.616	10510.52
484.821	10453.17
485.025	10145.98
485.229	10367.16
485.433	10121.4
485.637	10197.18
485.841	10162.36
486.045	10109.12
486.249	10315.96
486.453	10299.58
486.657	10320.06
486.861	10330.3
487.065	10154.17
487.269	10293.43
487.473	10053.82
487.677	10238.14
487.881	10385.59
488.085	10156.22
488.289	10342.58
488.493	10172.6
488.697	10336.44
488.901	10432.69
489.105	10162.36
489.309	10436.79
489.512	10426.55
489.716	10277.05
489.92	10217.66
490.124	10215.61
490.328	10565.81
490.531	10483.89
490.735	10490.04
490.939	10610.87
491.143	10356.92
491.346	10535.09
491.55	10819.76
491.754	10553.52
491.958	10793.14
492.161	10670.26
492.365	10576.05
492.569	10594.48
492.772	10580.15
492.976	10780.85
493.18	10709.17
493.383	10975.41
493.587	11040.94
493.79	11133.1
493.994	10989.74
494.197	11071.66
494.401	11415.72
494.605	11255.98
494.808	11542.69
495.012	11456.68
495.215	11524.26
495.419	11632.8
495.622	11317.42
495.825	11993.25
496.029	11733.15
496.232	11913.38
496.436	12056.73
496.639	12228.76
496.843	12308.63
497.046	12513.43
497.249	12550.29
497.453	12902.54
497.656	12974.22
497.859	12798.1
498.063	13211.79
498.266	13201.55
498.469	13136.01
498.673	13170.83
498.876	13537.41
499.079	13912.19
499.282	13527.17
499.485	14053.5
499.689	14123.13
499.892	14266.49
500.095	14340.22
500.298	14612.6
500.501	14334.07
500.705	14917.75
500.908	14970.99
501.111	15030.38
501.314	15384.68
501.517	15347.82
501.72	15745.13
501.923	15429.74
502.126	15968.35
502.329	16353.37
502.532	16068.7
502.735	16472.15
502.938	16582.74
503.141	16580.7
503.344	17129.55
503.547	17021.01
503.75	17526.86
503.953	17487.95
504.156	17735.75
504.359	17872.96
504.562	18151.49
504.765	18139.2
504.968	18358.33
505.17	18778.17
505.373	18653.24
505.576	18968.63
505.779	19318.83
505.982	19300.4
506.185	19574.83
506.387	19564.59
506.59	20160.55
506.793	20103.2
506.996	20052
507.198	20881.43
507.401	20637.72
507.604	21196.82
507.807	21153.81
508.009	21356.56
508.212	21362.7
508.415	21647.37
508.617	21807.11
508.82	22157.32
509.022	22099.97
509.225	22753.27
509.428	22528
509.63	23099.38
509.833	22908.92
510.035	23486.45
510.238	23201.78
510.44	23801.83
510.643	24197.09
510.845	24115.17
511.048	23973.86
511.25	24680.41
511.453	24567.77
511.655	25597.9
511.858	25010.14
512.06	25487.31
512.262	25425.87
512.465	25786.32
512.667	26283.97
512.87	26312.64
513.072	26458.05
513.274	27060.15
513.477	27381.68
513.679	27865
513.881	27498.42
514.084	27795.37
514.286	27844.52
514.488	28180.39
514.69	28911.52
514.893	28641.18
515.095	28770.21
515.297	29319.06
515.499	29321.11
515.701	29759.38
515.904	30166.92
516.106	29943.69
516.308	30773.12
516.51	30760.83
516.712	30732.16
516.914	31041.4
517.116	31659.89
517.318	31991.66
517.52	31582.07
517.722	32038.76
517.925	32601.96
518.127	32647.01
518.329	32712.55
518.531	32806.75
518.733	33519.45
518.935	33775.44
519.136	33562.45
519.338	34160.46
519.54	34213.71
519.742	34498.37
519.944	34541.38
520.146	34924.35
520.348	35288.89
520.55	35598.13
520.752	35727.16
520.954	36132.65
521.155	36192.05
521.357	36331.31
521.559	36665.13
521.761	37050.14
521.963	36816.68
522.164	37465.88
522.366	37066.53
522.568	37635.86
522.77	37828.37
522.971	38643.46
523.173	38323.98
523.375	38448.91
523.576	38389.52
523.778	38442.76
523.98	39212.8
524.181	39388.92
524.383	39028.48
524.584	39657.21
524.786	39855.86
524.988	39698.17
525.189	39978.74
525.391	40693.48
525.592	40689.38
525.794	40613.61
525.995	40933.09
526.197	40781.54
526.398	40599.27
526.6	41082.59
526.801	41139.94
527.003	41608.92
527.204	41320.16
527.406	41746.14
527.607	41836.25
527.808	42071.76
528.01	41711.32
528.211	42172.11
528.412	42911.43
528.614	42405.58
528.815	42452.69
529.016	42950.34
529.218	42532.56
529.419	42792.65
529.62	42561.23
529.822	42467.02
530.023	42831.56
530.224	42794.7
530.425	42624.71
530.626	42401.49
530.828	42516.17
531.029	43589.31
531.23	42708.68
531.431	42911.43
531.632	43165.38
531.833	43142.85
532.035	43073.22
532.236	43329.22
532.437	43245.25
532.638	43288.26
532.839	43804.34
533.04	43488.96
533.241	42956.49
533.442	43902.65
533.643	43187.91
533.844	43282.11
534.045	43568.83
534.246	43482.81
534.447	43540.16
534.648	43230.91
534.849	43763.39
535.05	43345.6
535.251	43226.82
535.451	43273.92
535.652	44005.05
535.853	43198.15
536.054	43830.97
536.255	43957.94
536.456	43370.18
536.657	43986.61
536.857	43747
537.058	43693.75
537.259	43968.18
537.46	43822.78
537.66	43439.81
537.861	43790.01
538.062	43656.89
538.263	43898.55
538.463	43404.99
538.664	43384.51
538.865	43734.71
539.065	43595.45
539.266	43226.82
539.466	43568.83
539.667	42882.76
539.868	43683.51
540.068	43579.07
540.269	43308.74
540.469	43443.9
540.67	43388.61
540.87	43620.03
541.071	43243.2
541.271	43648.7
541.472	43687.61
541.672	43108.04
541.873	42757.83
542.073	42878.66
542.274	44263.09
542.474	42972.87
542.675	42909.38
542.875	43501.25
543.075	43222.72
543.276	42751.69
543.476	43534.01
543.676	42987.21
543.877	43613.88
544.077	43228.87
544.277	42882.76
544.478	43251.39
544.678	42903.24
544.878	42958.53
545.078	43159.23
545.279	42929.86
545.479	42639.05
545.679	42841.8
545.879	43372.22
546.079	42979.01
546.28	42981.06
546.48	42655.43
546.68	43189.95
546.88	42901.19
547.08	43204.29
547.28	43124.42
547.48	42585.8
547.68	42690.25
547.88	42342.1
548.081	43108.04
548.281	42893
548.481	42559.18
548.681	43144.9
548.881	42690.25
549.081	42731.21
549.28	42546.89
549.48	42647.24
549.68	42770.12
549.88	42911.43
550.08	42340.05
550.28	42690.25
550.48	42008.28
550.68	42874.57
550.88	42421.97
551.08	42268.37
551.279	42694.35
551.479	41969.36
551.679	42610.38
551.879	42510.03
552.079	42575.56
552.278	42532.56
552.478	42567.37
552.678	42223.31
552.878	42249.94
553.077	42215.12
553.277	41998.04
553.477	42860.23
553.676	42575.56
553.876	42358.48
554.076	42350.29
554.275	42079.96
554.475	42034.9
554.674	41897.69
554.874	41873.11
555.074	41789.14
555.273	42528.46
555.473	42618.57
555.672	41914.07
555.872	41762.52
556.071	41928.41
556.271	41903.83
556.47	41803.48
556.67	41678.55
556.869	41739.99
557.068	41895.64
557.268	41785.05
557.467	41527
557.667	41821.91
557.866	41631.45
558.065	41502.43
558.265	41230.05
558.464	41455.32
558.663	42024.66
558.863	41191.14
559.062	41721.56
559.261	41473.76
559.461	41672.41
559.66	41117.41
559.859	41266.91
560.058	40906.47
560.258	41141.99
560.457	40636.14
560.656	41408.22
560.855	40417
561.054	41133.79
561.253	40578.79
561.453	40965.86
561.652	41273.06
561.851	40754.92
562.05	40453.87
562.249	40550.12
562.448	41109.22
562.647	40306.41
562.846	40509.16
563.045	40535.79
563.244	40374
563.443	40892.13
563.642	39763.7
563.841	39745.27
564.04	39952.12
564.239	40302.32
564.438	39728.89
564.637	39958.26
564.836	40163.06
565.035	39468.8
565.234	39612.15
565.432	39526.14
565.631	39603.96
565.83	39403.26
566.029	39448.32
566.228	39509.75
566.427	39356.16
566.625	38831.88
566.824	38711.05
567.023	39151.36
567.222	38459.15
567.42	39319.29
567.619	38780.68
567.818	38733.57
568.016	38618.89
568.215	39251.71
568.414	38676.23
568.612	39343.87
568.811	38618.89
569.01	38305.55
569.208	37926.67
569.407	38500.11
569.605	38024.98
569.804	38694.66
570.002	37719.83
570.201	38063.89
570.4	38029.07
570.598	38012.69
570.797	37646.1
570.995	37918.48
571.193	36953.89
571.392	37969.68
571.59	37158.69
571.789	37365.53
571.987	37603.1
572.186	37125.92
572.384	37156.64
572.582	37140.25
572.781	37310.24
572.979	36611.88
573.177	36701.99
573.376	36984.61
573.574	36673.32
573.772	36755.24
573.971	36513.58
574.169	36400.94
574.367	35909.43
574.565	36470.57
574.763	36118.32
574.962	36001.58
575.16	35753.78
575.358	36054.83
575.556	35460.92
575.754	35979.06
575.952	35237.69
576.151	35923.76
576.349	35202.88
576.547	35356.47
576.745	35501.88
576.943	35204.92
577.141	34907.97
577.339	35258.17
577.537	35012.42
577.735	34819.91
577.933	34871.11
578.131	34932.54
578.329	34705.22
578.527	34502.47
578.725	34742.08
578.923	34484.04
579.121	34424.65
579.319	34342.73
579.516	34539.33
579.714	34203.47
579.912	34086.73
580.11	34170.7
580.308	34264.91
580.506	33896.27
580.704	33322.84
580.901	34029.39
581.099	33963.86
581.297	33648.47
581.495	33449.81
581.692	33503.06
581.89	32966.49
582.088	33417.05
582.285	33152.86
582.483	33152.86
582.681	33001.31
582.878	32956.25
583.076	32540.52
583.274	32958.3
583.471	32323.43
583.669	32522.09
583.866	32491.37
584.064	32728.93
584.262	31954.8
584.459	32513.89
584.657	31965.04
584.854	32653.16
585.052	31858.54
585.249	31870.83
585.447	32098.16
585.644	31551.35
585.841	31508.34
586.039	32196.46
586.236	31438.71
586.434	31360.89
586.631	31158.14
586.828	31125.37
587.026	31043.45
587.223	31078.27
587.42	30801.79
587.618	30957.44
587.815	30719.87
588.012	30648.19
588.21	30844.8
588.407	30574.47
588.604	30654.34
588.801	30220.17
588.999	30617.47
589.196	30320.52
589.393	30318.47
589.59	30152.59
589.787	29599.63
589.984	29878.16
590.182	29616.02
590.379	29853.58
590.576	29605.78
590.773	29554.58
590.97	29583.25
591.167	29413.27
591.364	29036.44
591.561	29374.36
591.758	29134.74
591.955	29149.08
592.152	29294.49
592.349	28899.23
592.546	28940.19
592.743	28934.04
592.94	28319.65
593.137	28665.76
593.334	28536.74
593.531	27996.07
593.727	28422.05
593.924	28196.78
594.121	27885.48
594.318	28635.04
594.515	27762.61
594.712	27891.63
594.908	27676.59
595.105	27723.69
595.302	27672.5
595.499	27815.85
595.696	27355.06
595.892	27443.12
596.089	27514.8
596.286	27004.86
596.482	27242.42
596.679	27269.05
596.876	26957.75
597.072	26978.23
597.269	26879.93
597.466	26484.67
597.662	26900.41
597.859	26609.6
598.055	26736.57
598.252	26564.54
598.448	26601.41
598.645	26212.29
598.841	25817.04
599.038	26189.77
599.234	26152.9
599.431	25956.3
599.627	26005.45
599.824	25903.05
600.02	25749.45
600.217	25714.64
600.413	25536.46
600.609	25487.31
600.806	25372.63
601.002	25569.23
601.198	25429.97
601.395	25255.89
601.591	25216.98
601.787	25227.22
601.984	24877.02
602.18	25296.85
602.376	24854.49
602.572	24965.08
602.769	24494.05
602.965	24432.61
603.161	24795.1
603.357	24387.55
603.553	24176.61
603.75	24233.96
603.946	23869.42
604.142	24311.78
604.338	23842.79
604.534	24305.63
604.73	23728.11
604.926	23781.35
605.122	23934.95
605.318	23392.24
605.514	23394.29
605.71	23554.03
605.906	23322.61
606.102	23420.91
606.298	23775.21
606.494	23523.31
606.69	23324.66
606.886	23474.16
607.082	22966.26
607.278	23209.97
607.474	22804.47
607.67	22956.02
607.866	22872.06
608.062	22861.82
608.257	22831.1
608.453	22792.19
608.649	22763.51
608.845	22798.33
609.041	22519.81
609.236	22833.14
609.432	22364.16
609.628	22700.03
609.824	22259.71
610.019	22491.13
610.215	22364.16
610.411	22290.43
610.606	22063.11
610.802	22120.45
610.998	22071.3
611.193	22097.92
611.389	22048.77
611.584	22009.86
611.78	21878.79
611.976	21979.14
612.171	21592.08
612.367	21661.71
612.562	21753.87
612.758	21489.68
612.953	21544.97
613.149	21524.49
613.344	21530.64
613.539	21829.64
613.735	21594.12
613.93	21579.79
614.126	21274.64
614.321	21624.84
614.517	21471.25
614.712	21403.66
614.907	21393.42
615.103	21250.07
615.298	21020.69
615.493	21243.92
615.688	21024.79
615.884	21413.9
616.079	20928.53
616.274	20908.05
616.47	20752.41
616.665	20819.99
616.86	20791.32
617.055	20531.23
617.25	20488.22
617.445	20541.47
617.641	20404.25
617.836	20580.38
618.031	20232.22
618.226	20377.63
618.421	20240.42
618.616	20645.91
618.811	20025.38
619.006	20480.03
619.201	20015.14
619.396	20043.81
619.591	19666.99
619.786	19728.42
619.981	19720.23
620.176	19978.28
620.371	19673.13
620.566	19759.14
620.761	19415.09
620.956	19603.5
621.151	19187.76
621.346	19140.66
621.541	18993.2
621.735	18810.93
621.93	18845.75
622.125	18890.81
622.32	18571.32
622.515	18604.09
622.709	18364.48
622.904	18573.37
623.099	18235.46
623.294	18559.03
623.488	18131.01
623.683	18055.23
623.878	17733.7
624.072	17838.15
624.267	17817.67
624.462	17721.41
624.656	17457.23
624.851	17422.41
625.046	17104.98
625.24	17352.78
625.435	17025.11
625.629	17358.92
625.824	17006.67
626.018	16914.52
626.213	16605.27
626.407	16875.6
626.602	16375.9
626.796	16496.73
626.991	16392.28
627.185	16326.75
627.38	16285.79
627.574	16056.42
627.768	16164.96
627.963	15954.02
628.157	15974.5
628.352	15761.51
628.546	15673.45
628.74	16072.8
628.935	15536.23
629.129	15605.86
629.323	15362.15
629.517	15270
629.712	15296.62
629.906	15286.38
630.1	15001.71
630.294	14901.36
630.489	14956.66
630.683	14954.61
630.877	14772.34
631.071	14782.58
631.265	14635.13
631.459	14383.23
631.653	14502.01
631.848	14456.95
632.042	14387.32
632.236	14301.31
632.43	14139.52
632.624	14272.64
632.818	13942.91
633.012	13871.23
633.206	13809.79
633.4	13879.43
633.594	13392.01
633.788	13895.81
633.982	13660.29
634.176	13625.48
634.369	13455.5
634.563	13342.86
634.757	13437.06
634.951	13123.73
635.145	13185.16
635.339	13156.49
635.533	13072.53
635.726	12898.45
635.92	12763.28
636.114	12744.85
636.308	12728.47
636.501	12484.76
636.695	12568.73
636.889	12707.99
637.083	12564.63
637.276	12478.61
637.47	12222.62
637.664	12079.26
637.857	12365.98
638.051	12087.45
638.244	11925.66
638.438	11903.14
638.632	11948.19
638.825	11860.13
639.019	11892.9
639.212	11714.72
639.406	11641
639.599	11636.9
639.793	11712.67
639.986	11454.63
640.18	11448.49
640.373	11440.29
640.567	11260.07
640.76	11542.69
640.954	11133.1
641.147	10963.12
641.34	11094.19
641.534	10956.97
641.727	10772.66
641.92	10961.07
642.114	10725.55
642.307	10963.12
642.5	10780.85
642.694	10541.24
642.887	10700.98
643.08	10520.76
643.273	10563.76
643.467	10365.11
643.66	10248.38
643.853	10438.84
644.046	10258.62
644.239	10211.51
644.432	10193.08
644.626	10088.64
644.819	10211.51
645.012	9984.19
645.205	9990.33
645.398	9967.81
645.591	9658.56
645.784	9996.48
645.977	9568.45
646.17	9511.11
646.363	9586.88
646.556	9150.67
646.749	9777.34
646.942	9595.07
647.135	9382.09
647.328	9251.02
647.521	9291.98
647.714	9197.77
647.907	9263.3
648.099	9103.56
648.292	9111.75
648.485	9156.81
648.678	9117.9
648.871	9072.84
649.064	8888.53
649.256	8843.47
649.449	8843.47
649.642	8829.13
649.835	8599.76
650.027	8745.17
650.22	8710.35
650.413	8571.09
650.605	8546.51
650.798	8589.52
650.991	8560.85
651.183	8632.53
651.376	8489.17
651.568	8476.88
651.761	8253.66
651.954	8292.57
652.146	8288.47
652.339	8216.79
652.531	8155.35
652.724	7977.18
652.916	7907.55
653.109	8032.47
653.301	8087.77
653.494	8138.97
653.686	7821.53
653.879	7823.58
654.071	7880.93
654.263	7764.19
654.456	7635.17
654.648	7719.14
654.84	7715.04
655.033	7391.46
655.225	7495.91
655.417	7401.7
655.61	7448.8
655.802	7352.55
655.994	7338.21
656.186	7327.97
656.379	7205.1
656.571	7366.88
656.763	7233.77
656.955	7123.18
657.148	7117.03
657.34	7014.63
657.532	7117.03
657.724	6988.01
657.916	7112.94
658.108	6977.77
658.3	7010.54
658.492	7022.83
658.684	6787.31
658.876	6826.22
659.068	6834.41
659.26	6783.21
659.452	6799.6
659.644	6797.55
659.836	6580.46
660.028	6820.08
660.22	6586.61
660.412	6650.1
660.604	6492.4
660.796	6648.05
660.988	6363.38
661.18	6314.23
661.372	6328.56
661.563	6324.47
661.755	6383.86
661.947	6152.44
662.139	6084.86
662.331	6121.72
662.522	6066.42
662.714	6189.3
662.906	6091
663.097	5906.68
663.289	5939.45
663.481	5961.98
663.673	6187.25
663.864	5818.62
664.056	5822.72
664.247	5894.4
664.439	5634.3
664.631	5812.48
664.822	5832.96
665.014	5798.14
665.205	5798.14
665.397	5615.87
665.588	5861.63
665.78	5708.03
665.971	5529.86
666.163	5613.82
666.354	5449.99
666.546	5519.62
666.737	5486.85
666.929	5662.97
667.12	5599.49
667.311	5370.12
667.503	5523.71
667.694	5310.72
667.885	5370.12
668.077	5306.63
668.268	5355.78
668.459	5302.53
668.651	5382.4
668.842	5173.51
669.033	5214.47
669.224	5159.17
669.416	5153.03
669.607	5181.7
669.798	5093.64
669.989	5193.99
670.18	5089.54
670.371	5079.3
670.563	5054.73
670.754	5216.52
670.945	4989.19
671.136	5015.82
671.327	4909.32
671.518	4866.32
671.709	4952.33
671.9	4927.75
672.091	4972.81
672.282	4778.25
672.473	4776.2
672.664	4813.07
672.855	4780.3
673.046	4804.88
673.237	4733.2
673.428	4782.35
673.619	4643.09
673.809	4649.23
674	4708.62
674.191	4864.27
674.382	4675.85
674.573	4808.97
674.764	4616.46
674.954	4526.35
675.145	4491.54
675.336	4561.17
675.527	4598.03
675.717	4458.77
675.908	4542.74
676.099	4440.34
676.289	4495.63
676.48	4497.68
676.671	4413.71
676.861	4473.11
677.052	4518.16
677.243	4317.46
677.433	4335.89
677.624	4264.21
677.814	4417.81
678.005	4362.51
678.195	4426
678.386	4280.6
678.576	4315.41
678.767	4131.09
678.957	4239.64
679.148	4247.83
679.338	4280.6
679.529	4354.32
679.719	4264.21
679.909	4131.09
680.1	4198.68
680.29	4106.52
680.481	4145.43
680.671	4047.13
680.861	4192.53
681.052	4157.72
681.242	4098.33
681.432	4083.99
681.622	4180.25
681.813	4069.66
682.003	4161.81
682.193	4122.9
682.383	4133.14
682.573	4063.51
682.764	4153.62
682.954	4016.41
683.144	4006.17
683.334	4135.19
683.524	3918.11
683.714	3883.29
683.904	3959.06
684.094	3926.3
684.284	3997.98
684.474	3944.73
684.664	3766.56
684.854	3799.32
685.044	3827.99
685.234	3768.6
685.424	4067.61
685.614	3766.56
685.804	3922.2
685.994	3875.1
686.184	3854.62
686.374	3825.95
686.564	3729.69
686.753	3776.8
686.943	3625.25
687.133	3711.26
687.323	3565.85
687.513	3592.48
687.702	3651.87
687.892	3649.82
688.082	3606.81
688.272	3594.53
688.461	3694.88
688.651	3778.84
688.841	3703.07
689.03	3541.28
689.22	3551.52
689.41	3637.53
689.599	3496.22
689.789	3500.32
689.979	3438.88
690.168	3473.7
690.358	3418.4
690.547	3307.81
690.737	3500.32
690.926	3275.04
691.116	3359.01
691.305	3445.02
691.495	3182.88
691.684	3250.47
691.874	3322.15
692.063	3383.59
692.252	3291.43
692.442	3326.24
692.631	3246.37
692.82	3336.48
693.01	3189.03
693.199	3229.99
693.388	3199.27
693.578	3211.56
693.767	3115.3
693.956	3199.27
694.146	3162.41
694.335	3191.08
694.524	3076.39
694.713	3137.83
694.902	3021.1
695.092	3141.93
695.281	3084.58
695.47	3141.93
695.659	3086.63
695.848	3012.9
696.037	3049.77
696.226	3092.77
696.415	3051.81
696.604	3049.77
696.793	3092.77
696.982	3012.9
697.171	2902.31
697.36	3002.66
697.549	3053.86
697.738	3029.29
697.927	2998.57
698.116	3027.24
698.305	3098.92
698.494	3017
698.683	3010.86
698.872	3000.62
699.061	2939.18
699.25	2988.33
699.438	2955.56
699.627	3023.14
699.816	2976.04
700.005	3006.76
700.193	2947.37
700.382	3055.91
700.571	2810.15
700.76	2826.54
700.948	2990.38
701.137	2795.82
701.326	2955.56
701.514	2928.94
701.703	2980.14
701.892	2785.58
702.08	2935.08
702.269	2963.75
702.457	2930.98
702.646	2945.32
702.834	2877.74
703.023	2937.13
703.212	2847.02
703.4	2920.74
703.589	2908.46
703.777	3008.81
703.965	2861.35
704.154	2824.49
704.342	2828.59
704.531	2869.55
704.719	2789.67
704.907	2824.49
705.096	2842.92
705.284	2896.17
705.472	2922.79
705.661	2914.6
705.849	2918.7
706.037	2961.7
706.226	2744.62
706.414	2982.18
706.602	2904.36
706.79	2857.26
706.979	2718
707.167	2849.07
707.355	2773.29
707.543	2851.11
707.731	2871.59
707.919	2777.39
708.107	2847.02
708.296	2836.78
708.484	2830.63
708.672	2863.4
708.86	2795.82
709.048	2787.63
709.236	2808.11
709.424	2949.42
709.612	2826.54
709.8	2742.57
709.988	2890.03
710.176	2877.74
710.364	2935.08
710.551	2834.73
710.739	2795.82
710.927	2849.07
711.115	2898.22
711.303	2896.17
711.491	2853.16
711.679	2851.11
711.866	2844.97
712.054	2941.22
712.242	2887.98
712.43	2853.16
712.617	2849.07
712.805	2867.5
712.993	2910.5
713.181	2781.48
713.368	2746.67
713.556	2881.83
713.744	2740.52
713.931	2801.96
714.119	2822.44
714.306	2914.6
714.494	2748.72
714.682	2818.35
714.869	2808.11
715.057	2873.64
715.244	2916.65
715.432	2904.36
715.619	2840.87
715.807	2812.2
715.994	2808.11
716.182	2785.58
716.369	2722.09
716.556	2754.86
716.744	2806.06
716.931	2797.87
717.119	2703.66
717.306	2730.28
717.493	2859.31
717.681	2672.94
717.868	2855.21
718.055	2844.97
718.242	2916.65
718.43	2779.43
718.617	2804.01
718.804	2822.44
718.991	2799.91
719.179	2894.12
719.366	2785.58
719.553	2902.31
719.74	2701.61
719.927	2834.73
720.114	2789.67
720.301	2812.2
720.488	2588.97
720.676	2765.1
720.863	2801.96
721.05	2842.92
721.237	2767.15
721.424	2777.39
721.611	2840.87
721.798	2806.06
721.985	2775.34
722.172	2758.96
722.358	2781.48
722.545	2814.25
722.732	2644.27
722.919	2674.99
723.106	2656.56
723.293	2795.82
723.48	2638.13
723.667	2677.04
723.853	2656.56
724.04	2705.71
724.227	2742.57
724.414	2728.24
724.6	2791.72
724.787	2728.24
724.974	2718
725.161	2634.03
725.347	2789.67
725.534	2752.81
725.72	2859.31
725.907	2867.5
726.094	2656.56
726.28	2668.84
726.467	2775.34
726.653	2691.37
726.84	2830.63
727.027	2662.7
727.213	2674.99
727.4	2801.96
727.586	2748.72
727.773	2617.65
727.959	2672.94
728.145	2761
728.332	2697.52
728.518	2627.89
728.705	2715.95
728.891	2580.78
729.077	2595.12
729.264	2625.84
729.45	2672.94
729.636	2726.19
729.823	2580.78
730.009	2691.37
730.195	2595.12
730.382	2711.85
730.568	2644.27
730.754	2664.75
730.94	2726.19
731.126	2687.28
731.313	2658.6
731.499	2687.28
731.685	2801.96
731.871	2511.15
732.057	2668.84
732.243	2615.6
732.429	2556.21
732.615	2617.65
732.801	2556.21
732.987	2625.84
733.173	2611.5
733.359	2636.08
733.545	2693.42
733.731	2588.97
733.917	2521.39
734.103	2562.35
734.289	2566.45
734.475	2595.12
734.661	2502.96
734.847	2572.59
735.033	2562.35
735.219	2631.98
735.404	2535.73
735.59	2519.34
735.776	2535.73
735.962	2543.92
736.148	2521.39
736.333	2640.17
736.519	2437.42
736.705	2533.68
736.89	2470.19
737.076	2531.63
737.262	2425.14
737.447	2498.86
737.633	2484.53
737.819	2609.45
738.004	2402.61
738.19	2462
738.375	2400.56
738.561	2408.75
738.747	2402.61
738.932	2443.57
739.118	2494.77
739.303	2408.75
739.489	2484.53
739.674	2449.71
739.859	2429.23
740.045	2492.72
740.23	2400.56
740.416	2435.38
740.601	2320.69
740.786	2337.07
740.972	2398.51
741.157	2269.49
741.342	2199.86
741.528	2318.64
741.713	2390.32
741.898	2437.42
742.084	2167.09
742.269	2330.93
742.454	2296.11
742.639	2199.86
742.824	2269.49
743.01	2265.39
743.195	2289.97
743.38	2203.96
743.565	2249.01
743.75	2173.24
743.935	2144.56
744.12	2298.16
744.305	2165.04
744.49	2271.54
744.675	2175.28
744.86	2150.71
745.045	2169.14
745.23	2044.21
745.415	2015.54
745.6	2122.04
745.785	2099.51
745.97	2183.48
746.155	2038.07
746.34	2036.02
746.525	2064.69
746.71	2015.54
746.895	2017.59
747.079	2017.59
747.264	1974.58
747.449	1947.96
747.634	2038.07
747.819	1972.54
748.003	1896.76
748.188	1919.29
748.373	1960.25
748.557	1943.86
748.742	1802.55
748.927	1820.99
749.111	1976.63
749.296	1990.97
749.481	1968.44
749.665	1816.89
749.85	1866.04
750.034	1835.32
750.219	1859.9
750.404	1796.41
750.588	1859.9
750.773	1702.2
750.957	1769.79
751.141	1771.83
751.326	1812.79
751.51	1671.48
751.695	1739.07
751.879	1700.16
752.064	1651
752.248	1753.4
752.432	1675.58
752.617	1638.72
752.801	1663.29
752.985	1691.96
753.17	1653.05
753.354	1626.43
753.538	1552.7
753.722	1501.5
753.907	1560.89
754.091	1481.02
754.275	1536.32
754.459	1571.13
754.643	1450.3
754.828	1517.89
755.012	1493.31
755.196	1524.03
755.38	1505.6
755.564	1407.3
755.748	1427.78
755.932	1397.06
756.116	1460.54
756.3	1464.64
756.484	1446.21
756.668	1390.91
756.852	1352
757.036	1427.78
757.22	1352
757.404	1349.95
757.588	1356.1
757.772	1429.82
757.956	1302.85
758.14	1339.71
758.323	1319.23
758.507	1343.81
758.691	1354.05
758.875	1302.85
759.059	1397.06
759.242	1345.86
759.426	1335.62
759.61	1222.98
759.794	1225.03
759.977	1222.98
760.161	1298.75
760.345	1157.44
760.528	1243.46
760.712	1218.88
760.895	1171.78
761.079	1182.02
761.263	1165.64
761.446	1210.69
761.63	1145.16
761.813	1190.21
761.997	1179.97
762.18	1132.87
762.364	1214.79
762.547	1128.77
762.731	1102.15
762.914	1087.81
763.098	1126.72
763.281	1083.72
763.464	1198.4
763.648	1165.64
763.831	1079.62
764.015	1130.82
764.198	1087.81
764.381	1042.76
764.564	1089.86
764.748	1069.38
764.931	1136.96
765.114	1120.58
765.297	1104.2
765.481	1128.77
765.664	1089.86
765.847	1059.14
766.03	981.32
766.213	1050.95
766.397	1067.33
766.58	1022.28
766.763	1073.48
766.946	1075.52
767.129	1024.33
767.312	926.02
767.495	1032.52
767.678	1061.19
767.861	1042.76
768.044	1061.19
768.227	981.32
768.41	985.41
768.593	1061.19
768.776	936.26
768.959	905.54
769.142	973.13
769.324	1059.14
769.507	993.61
769.69	969.03
769.873	948.55
770.056	913.74
770.239	893.26
770.421	960.84
770.604	901.45
770.787	944.45
770.97	913.74
771.152	901.45
771.335	999.75
771.518	891.21
771.7	1003.85
771.883	878.92
772.066	897.35
772.248	934.22
772.431	921.93
772.613	825.67
772.796	889.16
772.978	897.35
773.161	889.16
773.343	850.25
773.526	852.3
773.708	844.1
773.891	850.25
774.073	815.43
774.256	708.94
774.438	842.06
774.621	823.62
774.803	797
774.985	829.77
775.168	778.57
775.35	823.62
775.532	837.96
775.715	917.83
775.897	827.72
776.079	790.86
776.261	708.94
776.444	790.86
776.626	835.91
776.808	762.19
776.99	719.18
777.173	739.66
777.355	731.47
777.537	790.86
777.719	715.08
777.901	747.85
778.083	708.94
778.265	743.75
778.447	676.17
778.629	651.6
778.811	655.69
778.993	729.42
779.175	743.75
779.357	663.88
779.539	678.22
779.721	629.07
779.903	635.21
780.085	647.5
780.267	606.54
780.449	586.06
780.631	674.12
780.812	647.5
780.994	610.64
781.176	614.73
781.358	629.07
781.54	588.11
781.721	649.55
781.903	516.43
782.085	657.74
782.267	641.36
782.448	569.68
782.63	526.67
782.812	588.11
782.993	555.34
783.175	612.68
783.357	536.91
783.538	530.77
783.72	534.86
783.901	557.39
784.083	569.68
784.264	592.2
784.446	563.53
784.627	493.9
784.809	553.29
784.99	569.68
785.172	563.53
785.353	553.29
785.535	465.23
785.716	473.42
785.897	473.42
786.079	495.95
786.26	575.82
786.441	508.24
786.623	549.2
786.804	399.7
786.985	493.9
787.167	407.89
787.348	467.28
787.529	440.65
787.71	483.66
787.891	485.71
788.073	371.02
788.254	336.21
788.435	510.29
788.616	411.98
788.797	426.32
788.978	399.7
789.159	377.17
789.34	405.84
789.522	364.88
789.703	471.37
789.884	434.51
790.065	366.93
790.246	399.7
790.427	395.6
790.607	399.7
790.788	426.32
790.969	450.89
791.15	446.8
791.331	385.36
791.512	430.41
791.693	375.12
791.874	364.88
792.054	467.28
792.235	375.12
792.416	307.54
792.597	291.15
792.778	375.12
792.958	379.22
793.139	297.3
793.32	319.82
793.5	348.5
793.681	373.07
793.862	309.58
794.042	334.16
794.223	317.78
794.404	368.98
794.584	262.48
794.765	323.92
794.945	348.5
795.126	291.15
795.306	332.11
795.487	342.35
795.667	291.15
795.848	305.49
796.028	270.67
796.209	317.78
796.389	285.01
796.57	293.2
796.75	338.26
796.93	321.87
797.111	319.82
797.291	362.83
797.471	297.3
797.652	268.63
797.832	248.15
798.012	295.25
798.192	246.1
798.373	262.48
798.553	252.24
798.733	303.44
798.913	321.87
799.093	297.3
799.274	313.68
799.454	301.39
799.634	282.96
799.814	319.82
799.994	278.87
800.174	319.82
800.354	348.5
800.534	260.43
800.714	237.91
800.894	276.82
801.074	244.05
801.254	258.39
801.434	246.1
801.614	227.67
801.794	192.85
801.974	557.39
802.154	242
802.334	223.57
802.514	198.99
802.693	223.57
802.873	287.06
803.053	289.1
803.233	176.47
803.413	221.52
803.592	147.8
803.772	262.48
803.952	303.44
804.131	209.23
804.311	287.06
804.491	223.57
804.67	215.38
804.85	223.57
805.03	252.24
805.209	291.15
805.389	178.51
805.568	252.24
805.748	233.81
805.928	223.57
806.107	303.44
806.287	287.06
806.466	215.38
806.646	233.81
806.825	131.41
807.004	129.36
807.184	162.13
807.363	231.76
807.543	201.04
807.722	203.09
807.901	233.81
808.081	178.51
808.26	235.86
808.439	198.99
808.619	190.8
808.798	166.23
808.977	201.04
809.156	190.8
809.336	264.53
809.515	207.19
809.694	180.56
809.873	242
810.052	203.09
810.231	258.39
810.411	155.99
810.59	239.95
810.769	242
810.948	164.18
811.127	41.3
811.306	166.23
811.485	217.43
811.664	162.13
811.843	252.24
812.022	198.99
812.201	160.08
812.38	133.46
812.559	190.8
812.737	178.51
812.916	135.51
813.095	178.51
813.274	170.32
813.453	174.42
813.632	160.08
813.811	190.8
813.989	119.12
814.168	170.32
814.347	180.56
814.526	127.32
814.704	205.14
814.883	242
815.062	127.32
815.24	192.85
815.419	184.66
815.598	192.85
815.776	178.51
815.955	131.41
816.133	196.95
816.312	190.8
816.49	158.03
816.669	188.75
816.847	63.83
817.026	190.8
817.204	153.94
817.383	184.66
817.561	143.7
817.74	147.8
817.918	170.32
818.097	90.45
818.275	121.17
818.453	137.56
818.632	147.8
818.81	201.04
818.988	153.94
819.167	172.37
819.345	104.79
819.523	147.8
819.701	170.32
819.879	192.85
820.058	90.45
820.236	198.99
820.414	65.88
820.592	182.61
820.77	90.45
820.948	158.03
821.127	78.16
821.305	119.12
821.483	139.6
821.661	164.18
821.839	155.99
822.017	143.7
822.195	166.23
822.373	178.51
822.551	133.46
822.729	151.89
822.907	123.22
823.085	176.47
823.262	182.61
823.44	166.23
823.618	104.79
823.796	160.08
823.974	115.03
824.152	117.08
824.329	108.88
824.507	137.56
824.685	139.6
824.863	133.46
825.04	180.56
825.218	196.95
825.396	100.69
825.574	86.36
825.751	88.4
825.929	127.32
826.107	108.88
826.284	123.22
826.462	47.44
826.639	4.44
826.817	96.6
826.994	117.08
827.172	84.31
827.349	86.36
827.527	119.12
827.704	184.66
827.882	131.41
828.059	51.54
828.237	108.88
828.414	164.18
828.591	74.07
828.769	61.78
828.946	117.08
829.124	72.02
829.301	162.13
829.478	137.56
829.655	76.12
829.833	108.88
830.01	104.79
830.187	147.8
830.364	51.54
830.542	98.64
830.719	104.79
830.896	96.6
831.073	57.68
831.25	94.55
831.427	74.07
831.604	104.79
831.782	45.4
831.959	131.41
832.136	102.74
832.313	82.26
832.49	94.55
832.667	78.16
832.844	78.16
833.021	153.94
833.198	100.69
833.374	139.6
833.551	86.36
833.728	88.4
833.905	205.14
834.082	72.02
834.259	86.36
834.436	131.41
834.612	63.83
834.789	155.99
834.966	86.36
835.143	125.27
835.319	90.45
835.496	133.46
835.673	100.69
835.85	112.98
836.026	102.74
836.203	98.64
836.38	43.35
836.556	14.68
836.733	80.21
836.909	90.45
837.086	49.49
837.262	45.4
837.439	63.83
837.616	53.59
837.792	133.46
837.968	127.32
838.145	133.46
838.321	104.79
838.498	51.54
838.674	51.54
838.851	88.4
839.027	47.44
839.203	102.74
839.38	31.06
839.556	-28.33
839.732	72.02
839.909	53.59
840.085	61.78
840.261	0.34
840.437	45.4
840.614	74.07
840.79	61.78
840.966	61.78
841.142	57.68
841.318	72.02
841.494	76.12
841.671	14.68
841.847	41.3
842.023	41.3
842.199	57.68
842.375	162.13
842.551	-26.28
842.727	35.16
842.903	104.79
843.079	76.12
843.255	108.88
843.431	45.4
843.607	67.92
843.783	22.87
843.959	65.88
844.134	67.92
844.31	98.64
844.486	-5.8
844.662	51.54
844.838	119.12
845.013	121.17
845.189	69.97
845.365	51.54
845.541	72.02
845.716	135.51
845.892	39.25
846.068	31.06
846.244	112.98
846.419	74.07
846.595	37.2
846.77	16.73
846.946	72.02
847.122	-32.43
847.297	51.54
847.473	59.73
847.648	-32.43
847.824	14.68
847.999	29.01
848.175	94.55
848.35	59.73
848.526	100.69
848.701	-5.8
848.876	86.36
849.052	63.83
849.227	59.73
849.403	35.16
849.578	55.64
849.753	8.53
849.929	22.87
850.104	20.82
850.279	78.16
850.454	74.07
850.63	49.49
850.805	67.92
850.98	96.6
851.155	51.54
851.33	65.88
851.505	8.53
851.681	35.16
851.856	14.68
852.031	76.12
852.206	53.59
852.381	10.58
852.556	31.06
852.731	35.16
852.906	35.16
853.081	14.68
853.256	45.4
853.431	4.44
853.606	-3.75
853.781	-22.19
853.956	12.63
854.131	20.82
854.305	39.25
854.48	-13.99
854.655	0.34
854.83	-20.14
855.005	-1.71
855.18	72.02
855.354	-16.04
855.529	133.46
855.704	20.82
855.879	-1.71
856.053	-9.9
856.228	-5.8
856.403	-30.38
856.577	162.13
856.752	-32.43
856.926	72.02
857.101	-7.85
857.276	-3.75
857.45	76.12
857.625	-9.9
857.799	84.31
857.974	37.2
858.148	-3.75
858.323	2.39
858.497	2.39
858.672	37.2
858.846	43.35
859.02	80.21
859.195	-20.14
859.369	45.4
859.543	45.4
859.718	61.78
859.892	117.08
860.066	26.96
860.241	53.59
860.415	-16.04
860.589	29.01
860.763	78.16
860.938	-5.8
861.112	61.78
861.286	53.59
861.46	-32.43
861.634	51.54
861.808	-42.67
861.982	-11.95
862.157	90.45
862.331	-50.86
862.505	53.59
862.679	55.64
862.853	39.25
863.027	-11.95
863.201	-26.28
863.375	129.36
863.549	45.4
863.722	-32.43
863.896	74.07
864.07	-28.33
864.244	80.21
864.418	24.92
864.592	18.77
864.766	26.96
864.939	100.69
865.113	-20.14
865.287	-1.71
865.461	76.12
865.634	24.92
865.808	-61.1
865.982	29.01
866.156	51.54
866.329	16.73
866.503	55.64
866.676	16.73
866.85	31.06
867.024	29.01
867.197	-5.8
867.371	74.07
867.544	63.83
867.718	2.39
867.891	98.64
868.065	41.3
868.238	22.87
868.412	76.12
868.585	20.82
868.759	31.06
868.932	22.87
869.105	-69.29
869.279	8.53
869.452	72.02
869.625	61.78
869.799	53.59
869.972	-34.47
870.145	35.16
870.319	49.49
870.492	29.01
870.665	22.87
870.838	2.39
871.011	-11.95
871.185	31.06
871.358	78.16
871.531	162.13
871.704	-20.14
871.877	61.78
872.05	0.34
872.223	-5.8
872.396	43.35
872.569	-1.71
872.742	-7.85
872.915	-30.38
873.088	-22.19
873.261	-18.09
873.434	8.53
873.607	-5.8
873.78	84.31
873.953	78.16
874.126	57.68
874.299	45.4
874.471	29.01
874.644	106.84
874.817	-13.99
874.99	82.26
875.163	-7.85
875.335	14.68
875.508	43.35
875.681	12.63
875.853	8.53
876.026	-13.99
876.199	53.59
876.371	31.06
876.544	26.96
876.717	-9.9
876.889	-63.15
877.062	0.34
877.234	51.54
877.407	-38.57
877.579	-7.85
877.752	20.82
877.924	65.88
878.097	-1.71
878.269	31.06
878.442	76.12
878.614	22.87
878.786	39.25
878.959	29.01
879.131	-22.19
879.303	-40.62
879.476	78.16
879.648	-3.75
879.82	8.53
879.993	47.44
880.165	37.2
880.337	33.11
880.509	41.3
880.681	20.82
880.854	12.63
881.026	33.11
881.198	57.68
881.37	63.83
881.542	-59.05
881.714	12.63
881.886	86.36
882.058	-3.75
882.23	24.92
882.402	-7.85
882.574	24.92
882.746	-24.23
882.918	26.96
883.09	-32.43
883.262	-11.95
883.434	-24.23
883.606	0.34
883.778	39.25
883.95	110.93
884.122	-20.14
884.293	10.58
884.465	-48.81
884.637	29.01
884.809	26.96
884.98	18.77
885.152	61.78
885.324	119.12
885.496	65.88
885.667	51.54
885.839	-32.43
886.011	18.77
886.182	-40.62
886.354	121.17
886.525	51.54
886.697	59.73
886.869	8.53
887.04	41.3
887.212	86.36
887.383	18.77
887.555	76.12
887.726	37.2
887.897	20.82
888.069	-13.99
888.24	22.87
888.412	65.88
888.583	-1.71
888.754	41.3
888.926	20.82
889.097	4.44
889.268	-38.57
889.44	39.25
889.611	6.49
889.782	16.73
889.953	67.92
890.125	10.58
890.296	-11.95
890.467	4.44
890.638	49.49
890.809	24.92
890.98	-13.99
891.151	82.26
891.323	53.59
891.494	67.92
891.665	-20.14
891.836	41.3
892.007	47.44
892.178	-9.9
892.349	51.54
892.52	-13.99
892.691	-69.29
892.862	4.44
893.032	45.4
893.203	37.2
893.374	24.92
893.545	41.3
893.716	24.92
893.887	-73.39
894.057	-5.8
894.228	-16.04
894.399	-46.76
894.57	88.4
894.74	33.11
894.911	61.78
895.082	-20.14
895.253	18.77
895.423	90.45
895.594	24.92
895.764	22.87
895.935	-30.38
896.106	53.59
896.276	33.11
896.447	20.82
896.617	65.88
896.788	-22.19
896.958	14.68
897.129	-81.58
897.299	-36.52
897.47	74.07
897.64	35.16
897.81	-32.43
897.981	-3.75
898.151	-36.52
898.322	41.3
898.492	-79.53
898.662	33.11
898.832	74.07
899.003	69.97
899.173	-24.23
899.343	41.3
899.513	10.58
