Data from USB4F104151__47__12-01-31-990.txt Node

Date: Fri Mar 14 12:01:31 EDT 2025
User: louis
Spectrometer: USB4F10415
Trigger mode: 4
Integration Time (sec): 2.000000E-2
Scans to average: 1
Electric dark correction enabled: true
Nonlinearity correction enabled: false
Boxcar width: 0
XAxis mode: Wavelengths
Number of Pixels in Spectrum: 3648
>>>>>Begin Spectral Data<<<<<
178.204	-53.59
178.424	-53.59
178.644	-53.59
178.864	-84.31
179.084	-37.2
179.304	-22.87
179.524	65.19
179.744	-69.97
179.964	44.71
180.184	-10.58
180.404	-24.92
180.624	-2.39
180.844	1.71
181.064	-20.82
181.283	-39.25
181.503	30.38
181.723	48.81
181.943	20.14
182.163	40.62
182.383	-6.49
182.602	22.19
182.822	22.19
183.042	20.14
183.262	30.38
183.482	71.34
183.701	34.47
183.921	20.14
184.141	-26.96
184.361	59.05
184.58	-18.77
184.8	-24.92
185.02	57
185.239	34.47
185.459	46.76
185.679	54.95
185.898	-10.58
186.118	95.91
186.338	-20.82
186.557	38.57
186.777	7.85
186.997	75.43
187.216	87.72
187.436	50.86
187.655	24.23
187.875	48.81
188.095	5.8
188.314	36.52
188.534	42.67
188.753	38.57
188.973	-10.58
189.192	100.01
189.412	65.19
189.631	50.86
189.851	61.1
190.07	52.91
190.29	93.87
190.509	-65.88
190.729	-24.92
190.948	57
191.168	110.25
191.387	-4.44
191.607	20.14
191.826	57
192.045	48.81
192.265	85.67
192.484	52.91
192.704	-33.11
192.923	-14.68
193.142	87.72
193.362	50.86
193.581	22.19
193.8	-18.77
194.02	22.19
194.239	18.09
194.458	20.14
194.678	-29.01
194.897	89.77
195.116	40.62
195.335	91.82
195.555	3.75
195.774	57
195.993	36.52
196.212	54.95
196.432	102.06
196.651	7.85
196.87	48.81
197.089	-0.34
197.308	52.91
197.528	42.67
197.747	-51.54
197.966	40.62
198.185	50.86
198.404	83.63
198.623	46.76
198.842	36.52
199.062	110.25
199.281	110.25
199.5	26.28
199.719	18.09
199.938	34.47
200.157	11.95
200.376	46.76
200.595	13.99
200.814	120.49
201.033	-12.63
201.252	34.47
201.471	-51.54
201.69	87.72
201.909	13.99
202.128	18.09
202.347	30.38
202.566	-37.2
202.785	67.24
203.004	11.95
203.223	77.48
203.442	-22.87
203.661	40.62
203.879	16.04
204.098	-35.16
204.317	3.75
204.536	11.95
204.755	16.04
204.974	22.19
205.193	44.71
205.411	54.95
205.63	46.76
205.849	-10.58
206.068	85.67
206.287	-0.34
206.505	-37.2
206.724	22.19
206.943	44.71
207.162	-0.34
207.381	87.72
207.599	-33.11
207.818	-14.68
208.037	-0.34
208.255	87.72
208.474	30.38
208.693	40.62
208.911	1.71
209.13	75.43
209.349	30.38
209.567	-45.4
209.786	50.86
210.005	77.48
210.223	46.76
210.442	32.43
210.661	-6.49
210.879	-12.63
211.098	3.75
211.316	24.23
211.535	-8.53
211.753	7.85
211.972	44.71
212.191	-57.68
212.409	-47.44
212.628	18.09
212.846	1.71
213.065	-16.73
213.283	40.62
213.502	5.8
213.72	20.14
213.938	42.67
214.157	-4.44
214.375	36.52
214.594	97.96
214.812	81.58
215.031	-20.82
215.249	-6.49
215.467	67.24
215.686	69.29
215.904	22.19
216.122	-18.77
216.341	112.3
216.559	-10.58
216.778	46.76
216.996	-4.44
217.214	81.58
217.432	-72.02
217.651	-31.06
217.869	42.67
218.087	-33.11
218.306	59.05
218.524	67.24
218.742	57
218.96	26.28
219.179	26.28
219.397	46.76
219.615	20.14
219.833	97.96
220.051	20.14
220.27	75.43
220.488	-33.11
220.706	79.53
220.924	73.39
221.142	18.09
221.36	20.14
221.578	-24.92
221.796	24.23
222.015	1.71
222.233	30.38
222.451	63.15
222.669	-12.63
222.887	46.76
223.105	-24.92
223.323	67.24
223.541	38.57
223.759	36.52
223.977	28.33
224.195	34.47
224.413	11.95
224.631	46.76
224.849	24.23
225.067	65.19
225.285	-8.53
225.503	71.34
225.721	-22.87
225.939	61.1
226.157	54.95
226.375	44.71
226.592	63.15
226.81	-16.73
227.028	-14.68
227.246	40.62
227.464	50.86
227.682	7.85
227.9	36.52
228.117	69.29
228.335	54.95
228.553	42.67
228.771	36.52
228.989	30.38
229.206	63.15
229.424	24.23
229.642	11.95
229.86	11.95
230.077	1.71
230.295	7.85
230.513	93.87
230.731	11.95
230.948	110.25
231.166	93.87
231.384	93.87
231.601	30.38
231.819	108.2
232.037	91.82
232.254	54.95
232.472	9.9
232.689	-22.87
232.907	50.86
233.125	54.95
233.342	7.85
233.56	91.82
233.777	44.71
233.995	-8.53
234.213	87.72
234.43	36.52
234.648	67.24
234.865	54.95
235.083	30.38
235.3	79.53
235.518	22.19
235.735	67.24
235.953	112.3
236.17	-26.96
236.388	85.67
236.605	57
236.822	77.48
237.04	110.25
237.257	81.58
237.475	-2.39
237.692	32.43
237.909	59.05
238.127	50.86
238.344	30.38
238.562	110.25
238.779	93.87
238.996	97.96
239.214	-31.06
239.431	50.86
239.648	63.15
239.865	22.19
240.083	83.63
240.3	134.82
240.517	130.73
240.735	36.52
240.952	50.86
241.169	52.91
241.386	65.19
241.603	-22.87
241.821	-20.82
242.038	97.96
242.255	38.57
242.472	36.52
242.689	118.44
242.907	36.52
243.124	22.19
243.341	7.85
243.558	7.85
243.775	-8.53
243.992	67.24
244.209	26.28
244.426	65.19
244.643	97.96
244.86	57
245.078	28.33
245.295	71.34
245.512	59.05
245.729	-12.63
245.946	61.1
246.163	11.95
246.38	81.58
246.597	44.71
246.814	-8.53
247.031	77.48
247.248	-8.53
247.464	-12.63
247.681	118.44
247.898	-18.77
248.115	22.19
248.332	50.86
248.549	38.57
248.766	132.78
248.983	67.24
249.2	3.75
249.417	9.9
249.633	46.76
249.85	18.09
250.067	38.57
250.284	52.91
250.501	26.28
250.717	46.76
250.934	-12.63
251.151	7.85
251.368	11.95
251.585	32.43
251.801	89.77
252.018	13.99
252.235	7.85
252.451	63.15
252.668	93.87
252.885	26.28
253.102	36.52
253.318	13.99
253.535	5.8
253.752	69.29
253.968	87.72
254.185	-12.63
254.401	22.19
254.618	40.62
254.835	57
255.051	7.85
255.268	59.05
255.484	79.53
255.701	-2.39
255.917	18.09
256.134	63.15
256.351	-37.2
256.567	20.14
256.784	128.68
257	11.95
257.217	104.11
257.433	-6.49
257.65	-0.34
257.866	57
258.082	5.8
258.299	26.28
258.515	71.34
258.732	50.86
258.948	24.23
259.165	59.05
259.381	16.04
259.597	-2.39
259.814	36.52
260.03	22.19
260.246	40.62
260.463	-22.87
260.679	89.77
260.895	22.19
261.112	3.75
261.328	22.19
261.544	-10.58
261.761	32.43
261.977	143.02
262.193	-12.63
262.409	52.91
262.626	81.58
262.842	52.91
263.058	57
263.274	-2.39
263.49	-6.49
263.707	63.15
263.923	83.63
264.139	44.71
264.355	95.91
264.571	104.11
264.787	57
265.004	67.24
265.22	28.33
265.436	34.47
265.652	46.76
265.868	40.62
266.084	57
266.3	46.76
266.516	93.87
266.732	36.52
266.948	13.99
267.164	36.52
267.38	16.04
267.596	59.05
267.812	71.34
268.028	63.15
268.244	-37.2
268.46	46.76
268.676	3.75
268.892	48.81
269.108	-0.34
269.324	59.05
269.54	-8.53
269.756	79.53
269.972	3.75
270.188	-18.77
270.403	30.38
270.619	3.75
270.835	34.47
271.051	116.39
271.267	44.71
271.483	59.05
271.698	95.91
271.914	46.76
272.13	116.39
272.346	36.52
272.562	63.15
272.777	38.57
272.993	-12.63
273.209	24.23
273.425	57
273.64	44.71
273.856	-12.63
274.072	42.67
274.287	34.47
274.503	50.86
274.719	-8.53
274.934	44.71
275.15	34.47
275.366	-4.44
275.581	42.67
275.797	7.85
276.012	38.57
276.228	40.62
276.444	75.43
276.659	-10.58
276.875	-24.92
277.09	26.28
277.306	44.71
277.521	26.28
277.737	-24.92
277.952	63.15
278.168	18.09
278.383	48.81
278.599	73.39
278.814	11.95
279.03	50.86
279.245	71.34
279.461	40.62
279.676	-2.39
279.892	18.09
280.107	46.76
280.322	-16.73
280.538	57
280.753	34.47
280.969	20.14
281.184	77.48
281.399	81.58
281.615	59.05
281.83	75.43
282.045	52.91
282.26	81.58
282.476	57
282.691	13.99
282.906	69.29
283.122	5.8
283.337	48.81
283.552	63.15
283.767	63.15
283.983	140.97
284.198	83.63
284.413	57
284.628	20.14
284.843	97.96
285.058	75.43
285.274	11.95
285.489	18.09
285.704	81.58
285.919	-20.82
286.134	100.01
286.349	40.62
286.564	42.67
286.779	83.63
286.995	22.19
287.21	-31.06
287.425	18.09
287.64	44.71
287.855	61.1
288.07	16.04
288.285	54.95
288.5	57
288.715	114.34
288.93	32.43
289.145	120.49
289.36	93.87
289.575	-53.59
289.79	95.91
290.004	-43.35
290.219	1.71
290.434	-14.68
290.649	48.81
290.864	-31.06
291.079	91.82
291.294	38.57
291.509	44.71
291.724	81.58
291.938	63.15
292.153	67.24
292.368	54.95
292.583	7.85
292.798	75.43
293.012	24.23
293.227	18.09
293.442	7.85
293.657	34.47
293.871	81.58
294.086	48.81
294.301	44.71
294.516	112.3
294.73	50.86
294.945	36.52
295.16	65.19
295.374	93.87
295.589	3.75
295.804	3.75
296.018	3.75
296.233	85.67
296.447	16.04
296.662	50.86
296.877	44.71
297.091	87.72
297.306	-22.87
297.52	69.29
297.735	7.85
297.949	24.23
298.164	73.39
298.378	9.9
298.593	-26.96
298.807	71.34
299.022	18.09
299.236	73.39
299.451	7.85
299.665	71.34
299.88	-12.63
300.094	50.86
300.309	91.82
300.523	9.9
300.737	30.38
300.952	28.33
301.166	93.87
301.381	-12.63
301.595	5.8
301.809	20.14
302.024	24.23
302.238	1.71
302.452	9.9
302.667	22.19
302.881	81.58
303.095	48.81
303.309	61.1
303.524	46.76
303.738	61.1
303.952	-18.77
304.166	-14.68
304.381	48.81
304.595	128.68
304.809	32.43
305.023	18.09
305.237	13.99
305.452	36.52
305.666	48.81
305.88	52.91
306.094	36.52
306.308	85.67
306.522	44.71
306.736	28.33
306.95	91.82
307.164	9.9
307.379	-18.77
307.593	65.19
307.807	36.52
308.021	40.62
308.235	13.99
308.449	24.23
308.663	26.28
308.877	54.95
309.091	44.71
309.305	-26.96
309.519	-8.53
309.733	28.33
309.947	-14.68
310.161	52.91
310.374	28.33
310.588	83.63
310.802	40.62
311.016	128.68
311.23	71.34
311.444	46.76
311.658	7.85
311.872	91.82
312.085	124.58
312.299	83.63
312.513	112.3
312.727	50.86
312.941	32.43
313.154	97.96
313.368	71.34
313.582	9.9
313.796	71.34
314.009	67.24
314.223	81.58
314.437	89.77
314.651	57
314.864	20.14
315.078	7.85
315.292	40.62
315.505	3.75
315.719	63.15
315.933	16.04
316.146	59.05
316.36	59.05
316.573	32.43
316.787	46.76
317.001	-10.58
317.214	57
317.428	75.43
317.641	-31.06
317.855	104.11
318.068	77.48
318.282	5.8
318.495	52.91
318.709	59.05
318.922	28.33
319.136	87.72
319.349	32.43
319.563	95.91
319.776	67.24
319.99	5.8
320.203	65.19
320.417	52.91
320.63	71.34
320.843	85.67
321.057	118.44
321.27	-10.58
321.483	-69.97
321.697	138.92
321.91	-31.06
322.124	36.52
322.337	85.67
322.55	75.43
322.763	28.33
322.977	163.5
323.19	71.34
323.403	3.75
323.617	73.39
323.83	79.53
324.043	87.72
324.256	32.43
324.469	130.73
324.683	83.63
324.896	36.52
325.109	16.04
325.322	3.75
325.535	81.58
325.748	59.05
325.962	155.3
326.175	30.38
326.388	97.96
326.601	65.19
326.814	67.24
327.027	24.23
327.24	9.9
327.453	71.34
327.666	69.29
327.879	30.38
328.092	63.15
328.305	-2.39
328.518	42.67
328.731	59.05
328.944	59.05
329.157	75.43
329.37	63.15
329.583	16.04
329.796	5.8
330.009	73.39
330.222	11.95
330.435	40.62
330.648	57
330.861	16.04
331.073	81.58
331.286	-31.06
331.499	54.95
331.712	38.57
331.925	104.11
332.138	-33.11
332.35	61.1
332.563	81.58
332.776	112.3
332.989	34.47
333.202	65.19
333.414	124.58
333.627	65.19
333.84	46.76
334.053	63.15
334.265	54.95
334.478	102.06
334.691	81.58
334.903	13.99
335.116	-4.44
335.329	97.96
335.541	75.43
335.754	97.96
335.966	36.52
336.179	61.1
336.392	85.67
336.604	36.52
336.817	9.9
337.029	83.63
337.242	16.04
337.454	7.85
337.667	3.75
337.88	46.76
338.092	95.91
338.305	89.77
338.517	79.53
338.729	24.23
338.942	61.1
339.154	85.67
339.367	24.23
339.579	18.09
339.792	73.39
340.004	73.39
340.217	16.04
340.429	42.67
340.641	-8.53
340.854	34.47
341.066	34.47
341.278	118.44
341.491	77.48
341.703	57
341.915	-47.44
342.128	34.47
342.34	85.67
342.552	28.33
342.764	120.49
342.977	24.23
343.189	81.58
343.401	104.11
343.613	7.85
343.826	48.81
344.038	20.14
344.25	89.77
344.462	67.24
344.674	75.43
344.886	16.04
345.099	87.72
345.311	83.63
345.523	63.15
345.735	-22.87
345.947	-22.87
346.159	24.23
346.371	97.96
346.583	48.81
346.795	126.63
347.007	52.91
347.219	24.23
347.431	7.85
347.643	28.33
347.855	-22.87
348.067	79.53
348.279	54.95
348.491	63.15
348.703	89.77
348.915	40.62
349.127	-41.3
349.339	61.1
349.551	-2.39
349.763	57
349.975	95.91
350.187	85.67
350.399	79.53
350.61	24.23
350.822	65.19
351.034	114.34
351.246	75.43
351.458	77.48
351.669	93.87
351.881	71.34
352.093	77.48
352.305	5.8
352.517	71.34
352.728	18.09
352.94	11.95
353.152	61.1
353.363	112.3
353.575	91.82
353.787	120.49
353.999	63.15
354.21	106.15
354.422	22.19
354.633	36.52
354.845	50.86
355.057	44.71
355.268	22.19
355.48	89.77
355.692	1.71
355.903	63.15
356.115	54.95
356.326	-31.06
356.538	95.91
356.749	61.1
356.961	120.49
357.172	36.52
357.384	32.43
357.595	13.99
357.807	-29.01
358.018	83.63
358.23	114.34
358.441	161.45
358.653	91.82
358.864	7.85
359.075	77.48
359.287	57
359.498	67.24
359.709	22.19
359.921	83.63
360.132	-8.53
360.344	100.01
360.555	1.71
360.766	79.53
360.977	36.52
361.189	134.82
361.4	95.91
361.611	89.77
361.823	57
362.034	67.24
362.245	-0.34
362.456	34.47
362.667	-4.44
362.879	85.67
363.09	38.57
363.301	26.28
363.512	65.19
363.723	67.24
363.935	75.43
364.146	118.44
364.357	9.9
364.568	34.47
364.779	-16.73
364.99	100.01
365.201	22.19
365.412	69.29
365.623	28.33
365.834	97.96
366.045	52.91
366.256	67.24
366.467	93.87
366.678	50.86
366.889	130.73
367.1	89.77
367.311	81.58
367.522	83.63
367.733	130.73
367.944	28.33
368.155	63.15
368.366	28.33
368.577	75.43
368.788	112.3
368.999	-35.16
369.209	40.62
369.42	79.53
369.631	147.11
369.842	18.09
370.053	57
370.264	106.15
370.474	83.63
370.685	89.77
370.896	40.62
371.107	85.67
371.317	122.54
371.528	52.91
371.739	79.53
371.95	42.67
372.16	149.16
372.371	16.04
372.582	34.47
372.792	34.47
373.003	106.15
373.214	26.28
373.424	112.3
373.635	95.91
373.846	173.74
374.056	83.63
374.267	138.92
374.477	100.01
374.688	132.78
374.898	34.47
375.109	97.96
375.319	3.75
375.53	138.92
375.74	106.15
375.951	59.05
376.161	91.82
376.372	114.34
376.582	16.04
376.793	81.58
377.003	104.11
377.214	69.29
377.424	20.14
377.635	40.62
377.845	11.95
378.055	97.96
378.266	75.43
378.476	54.95
378.686	93.87
378.897	50.86
379.107	52.91
379.317	54.95
379.528	34.47
379.738	100.01
379.948	-16.73
380.158	120.49
380.369	108.2
380.579	79.53
380.789	73.39
380.999	38.57
381.21	38.57
381.42	75.43
381.63	93.87
381.84	36.52
382.05	175.78
382.261	42.67
382.471	122.54
382.681	93.87
382.891	54.95
383.101	81.58
383.311	59.05
383.521	120.49
383.731	112.3
383.941	61.1
384.151	69.29
384.361	79.53
384.571	75.43
384.781	32.43
384.991	143.02
385.201	91.82
385.411	73.39
385.621	100.01
385.831	95.91
386.041	106.15
386.251	24.23
386.461	89.77
386.671	69.29
386.881	81.58
387.091	38.57
387.301	81.58
387.511	73.39
387.72	40.62
387.93	85.67
388.14	120.49
388.35	30.38
388.56	134.82
388.769	30.38
388.979	20.14
389.189	-24.92
389.399	138.92
389.609	114.34
389.818	95.91
390.028	65.19
390.238	118.44
390.447	87.72
390.657	102.06
390.867	50.86
391.076	65.19
391.286	89.77
391.496	110.25
391.705	102.06
391.915	89.77
392.125	132.78
392.334	130.73
392.544	85.67
392.753	71.34
392.963	126.63
393.172	73.39
393.382	124.58
393.591	126.63
393.801	54.95
394.01	186.02
394.22	134.82
394.429	116.39
394.639	75.43
394.848	87.72
395.058	79.53
395.267	163.5
395.477	186.02
395.686	114.34
395.895	110.25
396.105	147.11
396.314	106.15
396.524	128.68
396.733	106.15
396.942	73.39
397.152	128.68
397.361	147.11
397.57	126.63
397.78	145.06
397.989	93.87
398.198	145.06
398.407	120.49
398.617	153.26
398.826	159.4
399.035	140.97
399.244	192.17
399.453	97.96
399.663	95.91
399.872	186.02
400.081	126.63
400.29	249.51
400.499	159.4
400.708	163.5
400.917	130.73
401.127	112.3
401.336	143.02
401.545	155.3
401.754	151.21
401.963	161.45
402.172	208.55
402.381	132.78
402.59	52.91
402.799	153.26
403.008	169.64
403.217	196.26
403.426	136.87
403.635	120.49
403.844	165.54
404.053	159.4
404.262	196.26
404.471	265.89
404.68	161.45
404.888	161.45
405.097	171.69
405.306	194.22
405.515	229.03
405.724	188.07
405.933	239.27
406.142	259.75
406.35	280.23
406.559	186.02
406.768	241.32
406.977	286.37
407.185	196.26
407.394	288.42
407.603	243.37
407.812	292.52
408.02	304.81
408.229	327.33
408.438	276.13
408.646	319.14
408.855	280.23
409.064	304.81
409.272	372.39
409.481	325.29
409.69	429.73
409.898	323.24
410.107	343.72
410.315	462.5
410.524	476.84
410.733	384.68
410.941	433.83
411.15	489.12
411.358	462.5
411.567	519.84
411.775	505.51
411.984	499.36
412.192	573.09
412.401	564.9
412.609	614.05
412.818	667.3
413.026	607.91
413.234	679.58
413.443	693.92
413.651	693.92
413.86	698.02
414.068	779.93
414.276	810.65
414.485	732.83
414.693	904.86
414.901	888.48
415.11	896.67
415.318	908.96
415.526	917.15
415.734	1052.31
415.943	1058.46
416.151	1072.79
416.359	1115.8
416.567	1244.82
416.776	1158.81
416.984	1371.8
417.192	1312.41
417.4	1351.32
417.608	1273.5
417.817	1369.75
418.025	1457.81
418.233	1509.01
418.441	1539.73
418.649	1564.31
418.857	1750.67
419.065	1678.99
419.273	1685.14
419.481	1722
419.689	1934.99
419.897	1906.32
420.105	2047.63
420.313	2078.35
420.521	2158.22
420.729	2123.4
420.937	2270.86
421.145	2270.86
421.353	2449.03
421.561	2643.59
421.769	2653.83
421.977	2719.36
422.185	2739.84
422.393	2829.95
422.601	3149.43
422.809	3180.15
423.017	3096.19
423.224	3321.46
423.432	3335.8
423.64	3280.5
423.848	3620.47
424.056	3595.89
424.263	3833.46
424.471	3794.54
424.679	3860.08
424.887	4210.28
425.094	4267.63
425.302	4234.86
425.51	4501.09
425.718	4554.34
425.925	4689.51
426.133	4732.51
426.341	5070.43
426.548	5389.91
426.756	5410.39
426.964	5455.45
427.171	5670.48
427.379	5899.86
427.586	6067.79
427.794	6184.52
428.001	6403.66
428.209	6757.96
428.417	6669.89
428.624	7065.15
428.832	7130.69
429.039	7210.56
429.247	7079.49
429.454	7630.39
429.662	8322.6
429.869	7548.47
430.076	8400.43
430.284	8244.78
430.491	8455.72
430.699	8764.96
430.906	8773.16
431.114	8932.9
431.321	9248.29
431.528	9541.15
431.736	10028.56
431.943	10608.14
432.15	10198.54
432.358	10456.59
432.565	11044.35
432.772	10978.82
432.979	11572.73
433.187	11595.26
433.394	11951.6
433.601	12596.71
433.808	12627.43
434.016	12455.4
434.223	12989.92
434.43	13825.5
434.637	13637.08
434.844	14489.04
435.052	14546.38
435.259	14667.21
435.466	14945.73
435.673	14446.03
435.88	15613.37
436.087	16426.42
436.294	16356.79
436.501	15963.58
436.708	16309.68
436.915	16971.18
437.122	17812.89
437.329	17692.06
437.537	18384.27
437.743	18302.36
437.95	18529.68
438.157	19420.55
438.364	19983.74
438.571	20010.36
438.778	20084.09
438.985	21882.2
439.192	21075.31
439.399	22011.23
439.606	21161.32
439.813	22478.16
440.02	23790.91
440.227	23424.33
440.433	23262.54
440.64	23708.99
440.847	23819.58
441.054	24356.15
441.261	26031.39
441.467	25859.36
441.674	26420.5
441.881	27108.62
442.088	27063.57
442.294	26846.48
442.501	27444.49
442.708	28171.52
442.914	29101.29
443.121	30354.65
443.328	29723.88
443.534	31671.5
443.741	30842.07
443.948	30158.05
444.154	32611.51
444.361	32453.82
444.568	32613.56
444.774	32421.05
444.981	33019.06
445.187	34055.33
445.394	35241.1
445.6	35167.38
445.807	38364.26
446.013	36725.88
446.22	37758.06
446.426	38659.16
446.633	39087.19
446.839	40260.68
447.046	38925.4
447.252	40688.7
447.459	40625.21
447.665	40686.65
447.871	42748.96
448.078	43586.58
448.284	42095.66
448.491	43111.45
448.697	44565.51
448.903	45278.2
449.11	45452.28
449.316	45177.85
449.522	45794.29
449.728	47094.75
449.935	47252.44
450.141	47059.93
450.347	48090.06
450.553	46736.35
450.76	47289.31
450.966	48825.28
451.172	48368.58
451.378	49408.95
451.584	48223.18
451.791	49337.27
451.997	49095.61
452.203	50199.47
452.409	50252.72
452.615	49492.92
452.821	48403.4
453.027	47682.52
453.233	49400.76
453.44	47854.54
453.646	48464.84
453.852	48757.7
454.058	49159.1
454.264	47481.81
454.47	48823.23
454.676	47819.73
454.882	49042.37
455.088	45102.07
455.294	45415.41
455.5	46111.72
455.705	46355.43
455.911	44532.74
456.117	43922.44
456.323	43418.64
456.529	41301.04
456.735	42376.23
456.941	41776.17
457.147	40746.04
457.352	39740.49
457.558	39189.59
457.764	39715.92
457.97	38556.77
458.176	38093.93
458.381	37989.48
458.587	35849.35
458.793	35689.61
458.999	33963.17
459.204	36428.93
459.41	35456.14
459.616	32611.51
459.821	33125.55
460.027	32672.95
460.233	32212.16
460.438	30676.18
460.644	30854.36
460.85	29875.43
461.055	29179.12
461.261	28959.98
461.466	26969.36
461.672	25980.19
461.878	28103.93
462.083	26432.79
462.289	25570.6
462.494	25255.21
462.7	23997.76
462.905	23344.45
463.111	24182.07
463.316	24235.32
463.522	23958.85
463.727	23940.41
463.932	23930.17
464.138	23786.82
464.343	23944.51
464.549	23117.13
464.754	23647.55
464.959	23700.8
465.165	23379.27
465.37	22365.53
465.575	21894.49
465.781	22861.13
465.986	23004.49
466.191	22097.24
466.397	21554.53
466.602	20610.42
466.807	21388.64
467.012	21247.33
467.218	21200.23
467.423	20901.23
467.628	21067.11
467.833	21992.8
468.038	21103.98
468.244	20530.55
468.449	21626.21
468.654	20690.29
468.859	20428.15
469.064	20372.85
469.269	19584.38
469.474	19527.04
469.679	20174.2
469.885	19582.34
470.09	19662.21
470.295	19928.44
470.5	18988.42
470.705	19441.03
470.91	19029.38
471.115	18791.82
471.32	18847.12
471.525	18787.72
471.73	18357.65
471.935	18460.05
472.139	17757.6
472.344	17804.7
472.549	17571.23
472.754	17696.16
472.959	17221.03
473.164	16922.02
473.369	16541.1
473.574	16997.8
473.778	16971.18
473.983	16799.15
474.188	16641.45
474.393	16127.41
474.598	15977.91
474.802	15742.39
475.007	15719.87
475.212	15881.66
475.417	15171.01
475.621	15252.93
475.826	15150.53
476.031	14906.82
476.235	14763.47
476.44	14775.75
476.645	14661.07
476.849	14679.5
477.054	14233.04
477.259	14212.56
477.463	14394.83
477.668	13762.01
477.872	14065.11
478.077	13829.59
478.282	13422.05
478.486	13217.25
478.691	13630.94
478.895	13503.96
479.1	13286.88
479.304	13258.21
479.509	12840.42
479.713	12996.07
479.918	12557.8
480.122	12434.92
480.326	12723.69
480.531	12672.49
480.735	12568.04
480.94	12334.57
481.144	12752.36
481.348	12084.72
481.553	12422.64
481.757	12158.45
481.961	12428.78
482.166	12277.23
482.37	12389.87
482.574	11836.92
482.778	12105.2
482.983	12467.69
483.187	11959.8
483.391	12260.85
483.595	12217.84
483.8	11802.1
484.004	12080.63
484.208	12156.4
484.412	12119.54
484.616	11963.89
484.821	12199.41
485.025	11941.36
485.229	12234.22
485.433	11972.08
485.637	12193.26
485.841	12008.95
486.045	11976.18
486.249	12160.5
486.453	12238.32
486.657	12172.78
486.861	12172.78
487.065	11959.8
487.269	12109.3
487.473	11795.96
487.677	12183.02
487.881	12248.56
488.085	11937.27
488.289	12170.74
488.493	12037.62
488.697	12207.6
488.901	12211.7
489.105	12140.02
489.309	12226.03
489.512	12375.53
489.716	12236.27
489.92	12156.4
490.124	12086.77
490.328	12621.29
490.531	12281.33
490.735	12291.57
490.939	12436.97
491.143	12430.83
491.346	12205.55
491.55	12688.87
491.754	12387.82
491.958	12701.16
492.161	12553.71
492.365	12541.42
492.569	12645.87
492.772	12635.63
492.976	12828.13
493.18	12533.23
493.383	13045.22
493.587	12844.52
493.79	13141.47
493.994	12965.35
494.197	13262.3
494.401	13336.03
494.605	13243.87
494.808	13528.54
495.012	13368.8
495.215	13469.15
495.419	13618.65
495.622	13645.27
495.825	13893.08
496.029	13987.29
496.232	14196.18
496.436	14077.4
496.639	14470.61
496.843	14288.34
497.046	14769.61
497.249	14609.87
497.453	14904.78
497.656	15242.69
497.859	15166.92
498.063	15377.86
498.266	15488.45
498.469	15322.56
498.673	15730.11
498.876	15732.15
499.079	15775.16
499.282	15607.23
499.485	16369.07
499.689	16354.74
499.892	16698.8
500.095	16811.43
500.298	17106.34
500.501	17085.86
500.705	17540.51
500.908	17751.45
501.111	17771.93
501.314	17706.4
501.517	18167.19
501.72	18351.51
501.923	18070.93
502.126	18668.94
502.329	19088.78
502.532	18863.5
502.735	19033.48
502.938	19422.59
503.141	19690.88
503.344	20020.6
503.547	19967.35
503.75	20131.19
503.953	20481.39
504.156	20563.31
504.359	20665.71
504.562	20866.41
504.765	21300.58
504.968	21491.04
505.17	21667.17
505.373	21841.25
505.576	22218.07
505.779	22402.39
505.982	22185.3
506.185	22732.11
506.387	22969.68
506.59	23346.5
506.793	23844.16
506.996	23354.69
507.198	24200.51
507.401	24059.2
507.604	24354.1
507.807	24864.05
508.009	24919.34
508.212	25316.65
508.415	25247.02
508.617	25410.85
508.82	25609.51
509.022	25853.22
509.225	26461.46
509.428	26670.36
509.63	26719.51
509.833	27016.46
510.035	27548.93
510.238	27211.02
510.44	27481.35
510.643	28105.98
510.845	28275.96
511.048	27925.76
511.25	28796.15
511.453	28564.73
511.655	29709.54
511.858	29326.57
512.06	29644.01
512.262	29746.4
512.465	29818.08
512.667	30297.31
512.87	30598.36
513.072	30557.4
513.274	31460.55
513.477	31392.97
513.679	31726.79
513.881	32005.31
514.084	32160.96
514.286	32353.47
514.488	32419
514.69	33461.42
514.893	33545.39
515.095	33643.69
515.297	34112.67
515.499	34100.39
515.701	34286.75
515.904	34790.55
516.106	35232.91
516.308	35103.89
516.51	35769.48
516.712	35462.29
516.914	36344.96
517.116	36902.01
517.318	36971.64
517.52	36947.06
517.722	37164.15
517.925	36912.25
518.127	37932.14
518.329	38069.35
518.531	37670
518.733	38630.49
518.935	38945.88
519.136	39142.49
519.338	39734.35
519.54	39564.37
519.742	40100.93
519.944	40070.22
520.146	40664.13
520.348	40741.95
520.55	40838.2
520.752	41217.08
520.954	42320.93
521.155	41116.73
521.357	42175.53
521.559	42339.36
521.761	43328.53
521.963	43070.49
522.164	43070.49
522.366	43365.4
522.568	43480.08
522.77	43453.46
522.971	44243.98
523.173	43844.62
523.375	44391.43
523.576	44190.73
523.778	44178.44
523.98	45030.4
524.181	45251.58
524.383	45413.37
524.584	45976.56
524.786	46115.82
524.988	45603.83
525.189	46511.08
525.391	46384.1
525.592	46830.56
525.794	46805.98
525.995	47066.08
526.197	47172.57
526.398	47186.91
526.6	46986.21
526.801	47727.57
527.003	47719.38
527.204	47799.25
527.406	47850.45
527.607	47913.94
527.808	48649.16
528.01	47528.92
528.211	48034.77
528.412	48708.55
528.614	48384.97
528.815	48602.05
529.016	49103.81
529.218	48323.53
529.419	49109.95
529.62	49304.51
529.822	48837.57
530.023	49185.72
530.224	49175.48
530.425	48630.72
530.626	48600.01
530.828	49021.89
531.029	50037.68
531.23	49251.26
531.431	49206.2
531.632	49335.23
531.833	49769.4
532.035	49482.68
532.236	49638.33
532.437	49750.96
532.638	49927.09
532.839	49927.09
533.04	49916.85
533.241	49081.28
533.442	50303.92
533.643	49574.84
533.844	49548.21
534.045	50418.6
534.246	49324.99
534.447	49939.38
534.648	49896.37
534.849	49886.13
535.05	49656.76
535.251	49867.7
535.451	49628.09
535.652	50617.25
535.853	49769.4
536.054	50119.6
536.255	49830.83
536.456	49433.53
536.657	50217.9
536.857	49871.79
537.058	49904.56
537.259	50205.61
537.46	49818.55
537.66	49902.51
537.861	49894.32
538.062	49617.85
538.263	49882.03
538.463	49609.65
538.664	49171.39
538.865	50086.83
539.065	50043.82
539.266	49322.94
539.466	49845.17
539.667	49124.29
539.868	49710
540.068	49667
540.269	49443.77
540.469	49599.41
540.67	49568.69
540.87	49703.86
541.071	49322.94
541.271	49140.67
541.472	49343.42
541.672	49224.64
541.873	49433.53
542.073	49050.56
542.274	49345.47
542.474	49189.82
542.675	49009.6
542.875	49458.1
543.075	49214.4
543.276	48763.84
543.476	49511.35
543.676	48835.52
543.877	49361.85
544.077	49208.25
544.277	48909.25
544.478	49079.23
544.678	49085.37
544.878	48935.87
545.078	48806.85
545.279	48557
545.479	48358.34
545.679	48956.35
545.879	49017.79
546.079	49212.35
546.28	49169.34
546.48	48331.72
546.68	48849.86
546.88	49025.98
547.08	49073.09
547.28	48788.42
547.48	48704.45
547.68	48673.73
547.88	48182.22
548.081	48761.79
548.281	48421.83
548.481	48645.06
548.681	49224.64
548.881	48784.32
549.081	48346.06
549.28	48604.1
549.48	48757.7
549.68	48524.23
549.88	49296.31
550.08	48094.16
550.28	48479.17
550.48	48331.72
550.68	48907.2
550.88	48141.26
551.08	47967.18
551.279	48460.74
551.479	48169.93
551.679	48563.14
551.879	48452.55
552.079	48624.58
552.278	48491.46
552.478	48497.61
552.678	48442.31
552.878	48667.59
553.077	48090.06
553.277	47928.27
553.477	48468.94
553.676	48341.96
553.876	48333.77
554.076	47979.47
554.275	47619.03
554.475	48055.25
554.674	47829.97
554.874	48030.67
555.074	47821.78
555.273	48012.24
555.473	47907.79
555.672	47444.95
555.872	47530.97
556.071	47922.13
556.271	48169.93
556.47	47692.75
556.67	47221.72
556.869	47549.4
557.068	47958.99
557.268	47000.54
557.467	47449.05
557.667	47784.91
557.866	47522.77
558.065	47297.5
558.265	47199.19
558.464	47141.85
558.663	47526.87
558.863	46537.7
559.062	47553.49
559.261	47111.13
559.461	47440.85
559.66	46361.58
559.859	47111.13
560.058	46738.4
560.258	46472.17
560.457	46283.75
560.656	46928.86
560.855	46605.28
561.054	46793.7
561.253	46298.09
561.453	46693.35
561.652	46873.57
561.851	46734.31
562.05	46117.87
562.249	46126.06
562.448	46482.41
562.647	46181.35
562.846	46216.17
563.045	46027.76
563.244	45859.82
563.443	46463.97
563.642	45790.19
563.841	46162.92
564.04	45624.31
564.239	46160.87
564.438	45433.85
564.637	45622.26
564.836	46025.71
565.035	44975.1
565.234	45261.82
565.432	45177.85
565.631	44934.14
565.83	45751.28
566.029	45140.99
566.228	44628.99
566.427	44858.37
566.625	44858.37
566.824	44446.72
567.023	45116.41
567.222	44407.81
567.42	44792.83
567.619	44483.59
567.818	44286.98
568.016	44651.52
568.215	44809.21
568.414	44151.82
568.612	44913.66
568.811	44020.75
569.01	44100.62
569.208	43512.85
569.407	43713.55
569.605	43336.73
569.804	43959.31
570.002	43525.14
570.201	43373.59
570.4	43238.42
570.598	43068.44
570.797	43154.46
570.995	43379.73
571.193	42460.19
571.392	43113.5
571.59	42648.61
571.789	42845.21
571.987	43275.29
572.186	42896.41
572.384	42423.33
572.582	42501.15
572.781	42871.84
572.979	41948.2
573.177	41956.39
573.376	42218.53
573.574	41958.44
573.772	42241.06
573.971	41759.79
574.169	41948.2
574.367	41729.07
574.565	41921.58
574.763	41684.01
574.962	41335.86
575.16	41014.33
575.358	41385.01
575.556	41045.05
575.754	41538.61
575.952	40862.78
576.151	41280.56
576.349	40612.93
576.547	40754.24
576.745	40725.57
576.943	40467.52
577.141	40481.86
577.339	40682.56
577.537	39910.47
577.735	40299.59
577.933	40131.65
578.131	40356.93
578.329	39709.77
578.527	39707.72
578.725	39840.84
578.923	39930.95
579.121	39726.16
579.319	39378
579.516	39908.43
579.714	39695.44
579.912	39431.25
580.11	39351.38
580.308	39341.14
580.506	38855.77
580.704	38501.47
580.901	39156.82
581.099	39648.33
581.297	38820.95
581.495	38378.59
581.692	38845.53
581.89	38333.54
582.088	38661.21
582.285	38095.97
582.483	38753.37
582.681	38147.17
582.878	37897.32
583.076	37665.9
583.274	37635.18
583.471	37360.75
583.669	37686.38
583.866	37272.69
584.064	37811.31
584.262	37145.72
584.459	37479.53
584.657	36985.97
584.854	37274.74
585.052	36766.84
585.249	37131.38
585.447	36813.94
585.644	36574.33
585.841	36514.94
586.039	37594.22
586.236	36205.7
586.434	36584.57
586.631	35923.08
586.828	36353.15
587.026	36062.34
587.223	36039.81
587.42	35744.91
587.618	36164.74
587.815	35132.56
588.012	35665.03
588.21	35290.26
588.407	35974.28
588.604	35257.49
588.801	35034.26
588.999	35239.06
589.196	34874.52
589.393	35030.16
589.59	34782.36
589.787	34684.06
589.984	34387.1
590.182	34182.31
590.379	34475.16
590.576	34120.87
590.773	34129.06
590.97	33852.58
591.167	34364.57
591.364	33524.91
591.561	34133.15
591.758	33696.94
591.955	33658.03
592.152	33928.36
592.349	33404.08
592.546	33318.06
592.743	32978.1
592.94	32900.28
593.137	33256.62
593.334	33293.49
593.531	32283.84
593.727	32781.49
593.924	32709.82
594.121	32523.45
594.318	32433.34
594.515	32466.11
594.712	32662.71
594.908	32214.21
595.105	32150.72
595.302	31925.44
595.499	32076.99
595.696	31743.17
595.892	31734.98
596.089	31276.24
596.286	31706.31
596.482	31366.35
596.679	31470.79
596.876	31616.2
597.072	31653.06
597.269	31298.77
597.466	30893.27
597.662	31171.79
597.859	30860.5
598.055	30844.12
598.252	30551.26
598.448	30196.96
598.645	30711
598.841	29904.1
599.038	30244.06
599.234	30299.36
599.431	29947.11
599.627	30121.18
599.824	29742.31
600.02	29660.39
600.217	29719.78
600.413	29590.76
600.609	29465.83
600.806	29398.25
601.002	29183.21
601.198	29177.07
601.395	29326.57
601.591	28978.42
601.787	29365.48
601.984	28628.21
602.18	28972.27
602.376	28644.6
602.572	28685.56
602.769	28771.57
602.965	28173.56
603.161	28601.59
603.357	28222.72
603.553	27987.2
603.75	28083.45
603.946	28138.75
604.142	27991.3
604.338	27774.21
604.534	27700.48
604.73	27254.03
604.926	27876.61
605.122	27626.76
605.318	27419.91
605.514	27254.03
605.71	26993.93
605.906	27301.13
606.102	27127.05
606.298	27163.92
606.494	26826
606.69	26856.72
606.886	26977.55
607.082	26742.03
607.278	26774.8
607.474	26330.39
607.67	26674.45
607.866	26017.05
608.062	26725.65
608.257	26588.44
608.453	26176.8
608.649	26035.49
608.845	25849.12
609.041	26156.32
609.236	26010.91
609.432	26187.04
609.628	26207.51
609.824	25793.83
610.019	25963.81
610.215	25791.78
610.411	25941.28
610.606	25738.53
610.802	25593.12
610.998	25423.14
611.193	25818.4
611.389	25103.66
611.584	25423.14
611.78	25107.76
611.976	25388.33
612.171	25304.36
612.367	25255.21
612.562	25242.92
612.758	24610.1
612.953	24728.88
613.149	25208.11
613.344	24739.12
613.539	25107.76
613.735	24843.57
613.93	24907.05
614.126	24476.98
614.321	24812.85
614.517	24601.91
614.712	24618.29
614.907	24546.61
615.103	24681.78
615.298	24519.99
615.493	24628.53
615.688	24016.19
615.884	24833.33
616.079	24048.96
616.274	24298.81
616.47	24227.13
616.665	24116.54
616.86	24032.57
617.055	24032.57
617.25	23969.08
617.445	24040.76
617.641	23446.85
617.836	23788.86
618.031	23295.3
618.226	23674.18
618.421	23514.44
618.616	23778.62
618.811	23127.37
619.006	23530.82
619.201	23076.17
619.396	23192.9
619.591	22795.6
619.786	23151.95
619.981	22693.2
620.176	22742.35
620.371	22469.97
620.566	22539.6
620.761	22433.11
620.956	22398.29
621.151	22101.34
621.346	22367.57
621.541	21790.05
621.735	22027.61
621.93	21362.02
622.125	21962.08
622.32	21390.69
622.515	21638.5
622.709	21337.45
622.904	21226.85
623.099	20804.97
623.294	21054.83
623.488	20669.81
623.683	21077.35
623.878	20213.11
624.072	20678
624.267	20575.6
624.462	20630.9
624.656	20055.42
624.851	20131.19
625.046	19885.44
625.24	19889.53
625.435	19684.73
625.629	19725.69
625.824	19639.68
626.018	19594.62
626.213	19211.65
626.407	19424.64
626.602	18933.13
626.796	19082.63
626.991	18826.64
627.185	18511.25
627.38	18638.22
627.574	18578.83
627.768	18484.62
627.963	18353.55
628.157	18109.85
628.352	18326.93
628.546	17993.11
628.74	18066.84
628.935	17657.25
629.129	17880.47
629.323	17364.39
629.517	17704.35
629.712	17644.96
629.906	17462.69
630.1	17194.4
630.294	17122.73
630.489	17247.65
630.683	17423.78
630.877	16971.18
631.071	16948.65
631.265	16942.5
631.459	16815.53
631.653	16743.85
631.848	16725.42
632.042	16416.18
632.236	16534.96
632.43	16516.53
632.624	16115.12
632.818	16233.91
633.012	16035.25
633.206	15799.74
633.4	15879.61
633.594	15777.21
633.788	15732.15
633.982	15717.82
634.176	15553.98
634.369	15437.25
634.563	15478.21
634.757	15152.58
634.951	15150.53
635.145	15123.91
635.339	15148.48
635.533	14910.92
635.726	14835.14
635.92	14917.06
636.114	14763.47
636.308	14575.05
636.501	14656.97
636.695	14894.54
636.889	14482.89
637.083	14265.81
637.276	13987.29
637.47	14286.29
637.664	14085.59
637.857	13997.53
638.051	14022.1
638.244	13731.29
638.438	13594.08
638.632	13628.89
638.825	13688.28
639.019	13557.21
639.212	13495.77
639.406	13344.22
639.599	13243.87
639.793	13542.88
639.986	12977.64
640.18	13391.33
640.373	13209.06
640.567	12963.3
640.76	12897.77
640.954	12738.02
641.147	12635.63
641.34	12664.3
641.534	12570.09
641.727	12492.27
641.92	12408.3
642.114	12361.2
642.307	12357.1
642.5	12340.72
642.694	12129.78
642.887	12097.01
643.08	12203.5
643.273	12021.24
643.467	11898.36
643.66	11820.53
643.853	11763.19
644.046	11593.21
644.239	11740.66
644.432	11501.05
644.626	11572.73
644.819	11675.13
645.012	11648.5
645.205	11496.96
645.398	11240.96
645.591	11384.32
645.784	11138.56
645.977	11083.27
646.17	11177.47
646.363	10993.15
646.556	10929.67
646.749	10800.65
646.942	10780.17
647.135	10794.5
647.328	10802.69
647.521	10745.35
647.714	10509.83
647.907	10417.68
648.099	10432.01
648.292	10690.06
648.485	10399.24
648.678	10253.84
648.871	10333.71
649.064	10403.34
649.256	10067.47
649.449	10028.56
649.642	10173.97
649.835	9926.16
650.027	10087.95
650.22	9934.36
650.413	9821.72
650.605	9848.34
650.798	9747.99
650.991	9717.27
651.183	9795.09
651.376	9487.9
651.568	9518.62
651.761	9578.01
651.954	9379.36
652.146	9344.54
652.339	9469.47
652.531	9344.54
652.724	9350.68
652.916	9127.46
653.109	9244.19
653.301	9135.65
653.494	9078.3
653.686	8961.57
653.879	9319.96
654.071	8961.57
654.263	8654.37
654.456	8975.91
654.648	8857.12
654.84	8787.49
655.033	8599.08
655.225	8738.34
655.417	8576.55
655.61	8576.55
655.802	8465.96
655.994	8580.65
656.186	8580.65
656.379	8396.33
656.571	8338.99
656.763	8148.53
656.955	8212.01
657.148	8322.6
657.34	8117.81
657.532	7972.4
657.724	7958.07
657.916	7917.11
658.108	8044.08
658.3	7804.47
658.492	7841.33
658.684	7878.19
658.876	7917.11
659.068	7710.26
659.26	7675.45
659.452	7591.48
659.644	7740.98
659.836	7648.82
660.028	7812.66
660.22	7507.51
660.412	7480.89
660.604	7368.25
660.796	7446.07
660.988	7269.95
661.18	7243.32
661.372	7030.34
661.563	7306.81
661.755	7185.98
661.947	7157.31
662.139	7083.58
662.331	7157.31
662.522	7108.16
662.714	6895.17
662.906	6788.68
663.097	6882.88
663.289	6782.53
663.481	6958.66
663.673	6817.35
663.864	6723.14
664.056	6714.95
664.247	6735.43
664.439	6495.82
664.631	6663.75
664.822	6653.51
665.014	6555.21
665.205	6583.88
665.397	6522.44
665.588	6315.59
665.78	6604.36
665.971	6444.62
666.163	6424.14
666.354	6340.17
666.546	6399.56
666.737	6278.73
666.929	6166.09
667.12	6184.52
667.311	6073.93
667.503	6059.6
667.694	6063.69
667.885	6098.51
668.077	6065.74
668.268	6051.41
668.459	6084.17
668.651	5910.1
668.842	6067.79
669.033	5940.82
669.224	5971.54
669.416	5908.05
669.607	5627.48
669.798	5768.79
669.989	5854.8
670.18	5627.48
670.371	5615.19
670.563	5590.61
670.754	5590.61
670.945	5650
671.136	5555.8
671.327	5629.52
671.518	5600.85
671.709	5494.36
671.9	5443.16
672.091	5652.05
672.282	5467.74
672.473	5359.19
672.664	5531.22
672.855	5279.32
673.046	5430.87
673.237	5467.74
673.428	5303.9
673.619	5305.95
673.809	5287.51
674	5185.12
674.191	5314.14
674.382	5144.16
674.573	5152.35
674.764	5170.78
674.954	5133.92
675.145	5172.83
675.336	5113.44
675.527	5246.55
675.717	4982.37
675.908	5135.96
676.099	5133.92
676.289	4994.65
676.48	4902.5
676.671	4742.75
676.861	5045.85
677.052	4877.92
677.243	4961.89
677.433	5004.89
677.624	4920.93
677.814	4812.39
678.005	4843.1
678.195	4857.44
678.386	4820.58
678.576	4691.56
678.767	4796
678.957	4759.14
679.148	4716.13
679.338	4841.06
679.529	4697.7
679.719	4781.67
679.909	4712.03
680.1	4634.21
680.29	4767.33
680.481	4634.21
680.671	4712.03
680.861	4636.26
681.052	4560.49
681.242	4449.89
681.432	4535.91
681.622	4390.5
681.813	4458.09
682.003	4501.09
682.193	4449.89
682.383	4494.95
682.573	4499.05
682.764	4484.71
682.954	4427.37
683.144	4501.09
683.334	4472.42
683.524	4435.56
683.714	4472.42
683.904	4437.61
684.094	4298.35
684.284	4408.94
684.474	4380.26
684.664	4294.25
684.854	4382.31
685.044	4206.19
685.234	4320.87
685.424	4140.65
685.614	4398.7
685.804	4152.94
685.994	4173.42
686.184	4284.01
686.374	4230.76
686.564	4071.02
686.753	4136.56
686.943	4040.3
687.133	3901.04
687.323	4128.36
687.513	3972.72
687.702	4056.68
687.892	4042.35
688.082	4062.83
688.272	3948.14
688.461	3993.2
688.651	4030.06
688.841	3860.08
689.03	3819.12
689.22	3931.76
689.41	3878.51
689.599	3909.23
689.789	3802.74
689.979	3827.31
690.168	3792.5
690.358	3800.69
690.547	3651.19
690.737	3720.82
690.926	3870.32
691.116	3683.95
691.305	3739.25
691.495	3647.09
691.684	3618.42
691.874	3720.82
692.063	3577.46
692.252	3638.9
692.442	3589.75
692.631	3501.69
692.82	3632.76
693.01	3516.02
693.199	3409.53
693.388	3497.59
693.578	3460.73
693.767	3524.21
693.956	3491.45
694.146	3405.43
694.335	3384.95
694.524	3401.33
694.713	3454.58
694.902	3513.97
695.092	3438.2
695.281	3331.7
695.47	3333.75
695.659	3317.37
695.848	3333.75
696.037	3346.04
696.226	3253.88
696.415	3327.61
696.604	3341.94
696.793	3206.78
696.982	3262.07
697.171	3341.94
697.36	3325.56
697.549	3417.72
697.738	3233.4
697.927	3251.83
698.116	3288.7
698.305	3159.67
698.494	3257.98
698.683	3266.17
698.872	3260.02
699.061	3106.43
699.25	3219.07
699.438	3159.67
699.627	3200.63
699.816	3272.31
700.005	3147.39
700.193	3210.87
700.382	3311.22
700.571	3176.06
700.76	3171.96
700.948	3192.44
701.137	3163.77
701.326	3145.34
701.514	3126.91
701.703	3096.19
701.892	3106.43
702.08	3178.11
702.269	3225.21
702.457	3096.19
702.646	3012.22
702.834	3010.17
703.023	3094.14
703.212	3079.8
703.4	3014.27
703.589	3040.89
703.777	3135.1
703.965	2987.65
704.154	3108.48
704.342	2954.88
704.531	2973.31
704.719	2997.88
704.907	3042.94
705.096	3083.9
705.284	3004.03
705.472	3178.11
705.661	2930.3
705.849	3012.22
706.037	3198.59
706.226	2963.07
706.414	3079.8
706.602	3118.72
706.79	3106.43
706.979	3018.36
707.167	3028.6
707.355	2965.12
707.543	3036.8
707.731	2995.84
707.919	3024.51
708.107	2924.16
708.296	3051.13
708.484	3128.95
708.672	2965.12
708.86	3088
709.048	2965.12
709.236	2872.96
709.424	2961.02
709.612	3010.17
709.8	2918.01
709.988	2891.39
710.176	2983.55
710.364	2995.84
710.551	2940.54
710.739	2993.79
710.927	2907.77
711.115	3069.56
711.303	3001.98
711.491	2924.16
711.679	3059.32
711.866	2993.79
712.054	2997.88
712.242	2875.01
712.43	2981.5
712.617	2791.04
712.805	2881.15
712.993	2950.78
713.181	2920.06
713.368	2858.62
713.556	2920.06
713.744	2989.69
713.931	2946.69
714.119	2946.69
714.306	3022.46
714.494	2877.05
714.682	2885.25
714.869	2832
715.057	2799.23
715.244	2815.62
715.432	2829.95
715.619	2825.86
715.807	2903.68
715.994	2768.51
716.182	2850.43
716.369	2895.49
716.556	2877.05
716.744	2735.74
716.931	2913.92
717.119	2836.1
717.306	2825.86
717.493	2922.11
717.681	2840.19
717.868	2807.42
718.055	2956.93
718.242	2895.49
718.43	2903.68
718.617	2938.49
718.804	2711.17
718.991	2721.41
719.179	2936.45
719.366	2805.38
719.553	2825.86
719.74	2795.14
719.927	2823.81
720.114	2852.48
720.301	2829.95
720.488	2799.23
720.676	2801.28
720.863	2741.89
721.05	2770.56
721.237	2791.04
721.424	2801.28
721.611	2735.74
721.798	2776.7
721.985	2676.35
722.172	2762.37
722.358	2743.94
722.545	2705.03
722.732	2723.46
722.919	2817.66
723.106	2733.7
723.293	2743.94
723.48	2795.14
723.667	2678.4
723.853	2752.13
724.04	2741.89
724.227	2717.31
724.414	2707.07
724.6	2786.94
724.787	2705.03
724.974	2770.56
725.161	2748.03
725.347	2659.97
725.534	2664.07
725.72	2571.91
725.907	2645.63
726.094	2530.95
726.28	2670.21
726.467	2659.97
726.653	2555.52
726.84	2635.39
727.027	2612.87
727.213	2625.15
727.4	2666.11
727.586	2598.53
727.773	2631.3
727.959	2571.91
728.145	2715.27
728.332	2616.96
728.518	2584.2
728.705	2625.15
728.891	2555.52
729.077	2702.98
729.264	2598.53
729.45	2711.17
729.636	2655.87
729.823	2684.55
730.009	2616.96
730.195	2492.04
730.382	2600.58
730.568	2576
730.754	2637.44
730.94	2604.67
731.126	2688.64
731.313	2535.04
731.499	2604.67
731.685	2506.37
731.871	2518.66
732.057	2588.29
732.243	2539.14
732.429	2625.15
732.615	2512.52
732.801	2555.52
732.987	2565.76
733.173	2528.9
733.359	2580.1
733.545	2565.76
733.731	2485.89
733.917	2512.52
734.103	2485.89
734.289	2442.89
734.475	2436.74
734.661	2567.81
734.847	2424.45
735.033	2434.69
735.219	2479.75
735.404	2453.13
735.59	2383.49
735.776	2406.02
735.962	2451.08
736.148	2457.22
736.333	2524.8
736.519	2549.38
736.705	2463.37
736.89	2395.78
737.076	2393.73
737.262	2348.68
737.447	2399.88
737.633	2328.2
737.819	2328.2
738.004	2352.77
738.19	2377.35
738.375	2264.71
738.561	2381.45
738.747	2334.34
738.932	2289.29
739.118	2330.25
739.303	2287.24
739.489	2377.35
739.674	2377.35
739.859	2205.32
740.045	2330.25
740.23	2342.53
740.416	2227.85
740.601	2213.51
740.786	2324.1
740.972	2205.32
741.157	2221.7
741.342	2307.72
741.528	2250.38
741.713	2231.94
741.898	2217.61
742.084	2131.59
742.269	2176.65
742.454	2229.9
742.639	2125.45
742.824	2256.52
743.01	2242.18
743.195	2127.5
743.38	2178.7
743.565	2129.55
743.75	2051.72
743.935	2117.26
744.12	2176.65
744.305	2012.81
744.49	2002.57
744.675	2104.97
744.86	2176.65
745.045	2113.16
745.23	2031.24
745.415	2117.26
745.6	2037.39
745.785	1980.04
745.97	2053.77
746.155	1982.09
746.34	2027.15
746.525	1877.65
746.71	1996.43
746.895	2016.91
747.079	1943.18
747.264	2033.29
747.449	1922.7
747.634	1863.31
747.819	1891.98
748.003	1822.35
748.188	1982.09
748.373	1842.83
748.557	1883.79
748.742	1799.82
748.927	1805.97
749.111	1916.56
749.296	1762.96
749.481	1820.3
749.665	1896.08
749.85	1832.59
750.034	1799.82
750.219	1699.47
750.404	1699.47
750.588	1740.43
750.773	1746.58
750.957	1724.05
751.141	1621.65
751.326	1595.03
751.51	1644.18
751.695	1640.08
751.879	1617.55
752.064	1611.41
752.248	1580.69
752.432	1656.47
752.617	1584.79
752.801	1611.41
752.985	1623.7
753.17	1595.03
753.354	1564.31
753.538	1486.48
753.722	1445.52
753.907	1513.11
754.091	1441.43
754.275	1562.26
754.459	1480.34
754.643	1486.48
754.828	1457.81
755.012	1404.57
755.196	1480.34
755.38	1461.91
755.564	1363.61
755.748	1367.7
755.932	1334.93
756.116	1359.51
756.3	1416.85
756.484	1367.7
756.668	1410.71
756.852	1300.12
757.036	1339.03
757.22	1435.28
757.404	1300.12
757.588	1347.22
757.772	1341.08
757.956	1306.26
758.14	1189.53
758.323	1263.26
758.507	1314.45
758.691	1279.64
758.875	1210.01
759.059	1285.78
759.242	1312.41
759.426	1244.82
759.61	1201.82
759.794	1222.3
759.977	1177.24
760.161	1291.93
760.345	1318.55
760.528	1167
760.712	1195.67
760.895	1181.34
761.079	1066.65
761.263	1216.15
761.446	1058.46
761.63	1175.19
761.813	1138.33
761.997	1085.08
762.18	1142.43
762.364	1169.05
762.547	1060.51
762.731	1113.75
762.914	1255.06
763.098	1177.24
763.281	1169.05
763.464	1218.2
763.648	1101.47
763.831	1070.75
764.015	1095.32
764.198	1169.05
764.381	1138.33
764.564	1076.89
764.748	1103.51
764.931	1072.79
765.114	986.78
765.297	1031.83
765.481	1064.6
765.664	1015.45
765.847	1033.88
766.03	1023.64
766.213	927.39
766.397	990.88
766.58	1052.31
766.763	1054.36
766.946	1048.22
767.129	958.11
767.312	1013.4
767.495	984.73
767.678	941.72
767.861	947.87
768.044	923.29
768.227	925.34
768.41	1007.26
768.593	1003.16
768.776	937.63
768.959	1023.64
769.142	949.92
769.324	966.3
769.507	886.43
769.69	984.73
769.873	986.78
770.056	976.54
770.239	851.61
770.421	997.02
770.604	919.2
770.787	923.29
770.97	857.76
771.152	902.81
771.335	904.86
771.518	841.37
771.7	868
771.883	868
772.066	816.8
772.248	841.37
772.431	868
772.613	874.14
772.796	841.37
772.978	868
773.161	839.33
773.343	824.99
773.526	859.81
773.708	827.04
773.891	732.83
774.073	757.41
774.256	802.46
774.438	906.91
774.621	857.76
774.803	818.85
774.985	755.36
775.168	865.95
775.35	784.03
775.532	747.17
775.715	720.54
775.897	708.26
776.079	827.04
776.261	835.23
776.444	786.08
776.626	728.74
776.808	730.78
776.99	771.74
777.173	677.54
777.355	761.5
777.537	755.36
777.719	685.73
777.901	659.1
778.083	665.25
778.265	726.69
778.447	728.74
778.629	706.21
778.811	605.86
778.993	763.55
779.175	673.44
779.357	601.76
779.539	480.93
779.721	671.39
779.903	677.54
780.085	530.08
780.267	546.47
780.449	673.44
780.631	634.53
780.812	632.48
780.994	618.15
781.176	665.25
781.358	562.85
781.54	581.28
781.721	548.51
781.903	634.53
782.085	558.75
782.267	589.47
782.448	573.09
782.63	564.9
782.812	505.51
782.993	593.57
783.175	515.75
783.357	622.24
783.538	618.15
783.72	493.22
783.901	595.62
784.083	442.02
784.264	585.38
784.446	548.51
784.627	607.91
784.809	540.32
784.99	523.94
785.172	521.89
785.353	519.84
785.535	433.83
785.716	431.78
785.897	370.34
786.079	472.74
786.26	454.31
786.441	446.12
786.623	360.1
786.804	399.01
786.985	458.4
787.167	446.12
787.348	466.6
787.529	419.49
787.71	468.64
787.891	442.02
788.073	437.92
788.254	392.87
788.435	450.21
788.616	458.4
788.797	462.5
788.978	482.98
789.159	458.4
789.34	403.11
789.522	358.05
789.703	392.87
789.884	380.58
790.065	415.4
790.246	452.26
790.427	356.01
790.607	427.68
790.788	366.25
790.969	388.77
791.15	321.19
791.331	329.38
791.512	366.25
791.693	313
791.874	296.61
792.054	429.73
792.235	403.11
792.416	339.62
792.597	255.65
792.778	411.3
792.958	317.09
793.139	388.77
793.32	337.57
793.5	349.86
793.681	356.01
793.862	325.29
794.042	337.57
794.223	329.38
794.404	376.48
794.584	325.29
794.765	308.9
794.945	296.61
795.126	329.38
795.306	351.91
795.487	323.24
795.667	296.61
795.848	376.48
796.028	253.61
796.209	345.77
796.389	347.81
796.57	243.37
796.75	323.24
796.93	286.37
797.111	315.05
797.291	210.6
797.471	274.09
797.652	300.71
797.832	218.79
798.012	421.54
798.192	300.71
798.373	259.75
798.553	253.61
798.733	310.95
798.913	272.04
799.093	280.23
799.274	282.28
799.454	306.85
799.634	284.33
799.814	329.38
799.994	302.76
800.174	243.37
800.354	278.18
800.534	231.08
800.714	190.12
800.894	212.65
801.074	169.64
801.254	165.54
801.434	276.13
801.614	290.47
801.794	235.18
801.974	609.95
802.154	126.63
802.334	253.61
802.514	214.7
802.693	173.74
802.873	179.88
803.053	294.57
803.233	188.07
803.413	284.33
803.592	151.21
803.772	216.74
803.952	259.75
804.131	278.18
804.311	251.56
804.491	257.7
804.67	157.35
804.85	237.22
805.03	171.69
805.209	308.9
805.389	200.36
805.568	261.8
805.748	233.13
805.928	247.46
806.107	155.3
806.287	267.94
806.466	216.74
806.646	226.98
806.825	163.5
807.004	214.7
807.184	276.13
807.363	235.18
807.543	206.5
807.722	194.22
807.901	280.23
808.081	241.32
808.26	183.98
808.439	220.84
808.619	165.54
808.798	212.65
808.977	140.97
809.156	188.07
809.336	163.5
809.515	210.6
809.694	198.31
809.873	161.45
810.052	183.98
810.231	222.89
810.411	175.78
810.59	169.64
810.769	161.45
810.948	226.98
811.127	171.69
811.306	196.26
811.485	112.3
811.664	112.3
811.843	220.84
812.022	157.35
812.201	165.54
812.38	173.74
812.559	118.44
812.737	188.07
812.916	151.21
813.095	212.65
813.274	159.4
813.453	188.07
813.632	124.58
813.811	204.46
813.989	163.5
814.168	190.12
814.347	124.58
814.526	167.59
814.704	229.03
814.883	145.06
815.062	145.06
815.24	175.78
815.419	102.06
815.598	147.11
815.776	151.21
815.955	161.45
816.133	188.07
816.312	110.25
816.49	116.39
816.669	143.02
816.847	188.07
817.026	136.87
817.204	151.21
817.383	163.5
817.561	218.79
817.74	186.02
817.918	153.26
818.097	108.2
818.275	155.3
818.453	120.49
818.632	179.88
818.81	190.12
818.988	175.78
819.167	181.93
819.345	151.21
819.523	151.21
819.701	134.82
819.879	161.45
820.058	118.44
820.236	188.07
820.414	147.11
820.592	155.3
820.77	138.92
820.948	108.2
821.127	132.78
821.305	83.63
821.483	120.49
821.661	155.3
821.839	173.74
822.017	97.96
822.195	118.44
822.373	71.34
822.551	95.91
822.729	149.16
822.907	91.82
823.085	145.06
823.262	106.15
823.44	100.01
823.618	130.73
823.796	138.92
823.974	57
824.152	171.69
824.329	97.96
824.507	134.82
824.685	59.05
824.863	132.78
825.04	128.68
825.218	118.44
825.396	155.3
825.574	114.34
825.751	100.01
825.929	122.54
826.107	59.05
826.284	155.3
826.462	177.83
826.639	59.05
826.817	120.49
826.994	130.73
827.172	65.19
827.349	79.53
827.527	77.48
827.704	126.63
827.882	151.21
828.059	108.2
828.237	134.82
828.414	124.58
828.591	71.34
828.769	122.54
828.946	114.34
829.124	63.15
829.301	128.68
829.478	108.2
829.655	128.68
829.833	89.77
830.01	112.3
830.187	104.11
830.364	128.68
830.542	73.39
830.719	110.25
830.896	122.54
831.073	138.92
831.25	36.52
831.427	114.34
831.604	143.02
831.782	116.39
831.959	112.3
832.136	89.77
832.313	159.4
832.49	67.24
832.667	77.48
832.844	81.58
833.021	83.63
833.198	87.72
833.374	171.69
833.551	71.34
833.728	20.14
833.905	11.95
834.082	50.86
834.259	81.58
834.436	116.39
834.612	26.28
834.789	81.58
834.966	65.19
835.143	57
835.319	57
835.496	108.2
835.673	122.54
835.85	155.3
836.026	40.62
836.203	24.23
836.38	97.96
836.556	75.43
836.733	108.2
836.909	73.39
837.086	87.72
837.262	73.39
837.439	149.16
837.616	93.87
837.792	36.52
837.968	89.77
838.145	73.39
838.321	108.2
838.498	63.15
838.674	79.53
838.851	50.86
839.027	110.25
839.203	118.44
839.38	61.1
839.556	73.39
839.732	69.29
839.909	69.29
840.085	102.06
840.261	97.96
840.437	75.43
840.614	36.52
840.79	65.19
840.966	52.91
841.142	75.43
841.318	57
841.494	40.62
841.671	93.87
841.847	38.57
842.023	36.52
842.199	9.9
842.375	11.95
842.551	73.39
842.727	63.15
842.903	138.92
843.079	52.91
843.255	-10.58
843.431	65.19
843.607	59.05
843.783	65.19
843.959	28.33
844.134	59.05
844.31	63.15
844.486	54.95
844.662	83.63
844.838	93.87
845.013	85.67
845.189	95.91
845.365	106.15
845.541	50.86
845.716	97.96
845.892	36.52
846.068	128.68
846.244	75.43
846.419	18.09
846.595	73.39
846.77	112.3
846.946	67.24
847.122	50.86
847.297	65.19
847.473	48.81
847.648	48.81
847.824	77.48
847.999	16.04
848.175	122.54
848.35	122.54
848.526	50.86
848.701	81.58
848.876	48.81
849.052	34.47
849.227	57
849.403	59.05
849.578	114.34
849.753	48.81
849.929	100.01
850.104	20.14
850.279	65.19
850.454	145.06
850.63	11.95
850.805	28.33
850.98	89.77
851.155	26.28
851.33	32.43
851.505	11.95
851.681	81.58
851.856	24.23
852.031	44.71
852.206	48.81
852.381	22.19
852.556	22.19
852.731	13.99
852.906	46.76
853.081	79.53
853.256	65.19
853.431	11.95
853.606	18.09
853.781	81.58
853.956	-10.58
854.131	61.1
854.305	36.52
854.48	32.43
854.655	-10.58
854.83	36.52
855.005	44.71
855.18	42.67
855.354	-45.4
855.529	32.43
855.704	67.24
855.879	73.39
856.053	83.63
856.228	28.33
856.403	5.8
856.577	65.19
856.752	-63.83
856.926	102.06
857.101	3.75
857.276	18.09
857.45	77.48
857.625	73.39
857.799	13.99
857.974	-2.39
858.148	-6.49
858.323	13.99
858.497	-6.49
858.672	-31.06
858.846	42.67
859.02	122.54
859.195	57
859.369	28.33
859.543	38.57
859.718	5.8
859.892	-8.53
860.066	-26.96
860.241	11.95
860.415	-0.34
860.589	22.19
860.763	61.1
860.938	114.34
861.112	46.76
861.286	34.47
861.46	112.3
861.634	50.86
861.808	54.95
861.982	54.95
862.157	-12.63
862.331	-18.77
862.505	40.62
862.679	40.62
862.853	7.85
863.027	48.81
863.201	128.68
863.375	36.52
863.549	20.14
863.722	32.43
863.896	73.39
864.07	-37.2
864.244	89.77
864.418	52.91
864.592	-2.39
864.766	20.14
864.939	77.48
865.113	9.9
865.287	-41.3
865.461	59.05
865.634	3.75
865.808	44.71
865.982	63.15
866.156	18.09
866.329	20.14
866.503	5.8
866.676	50.86
866.85	57
867.024	54.95
867.197	52.91
867.371	-29.01
867.544	18.09
867.718	22.19
867.891	63.15
868.065	48.81
868.238	44.71
868.412	-49.49
868.585	-4.44
868.759	-55.64
868.932	32.43
869.105	48.81
869.279	69.29
869.452	7.85
869.625	63.15
869.799	28.33
869.972	46.76
870.145	-20.82
870.319	75.43
870.492	20.14
870.665	52.91
870.838	3.75
871.011	-24.92
871.185	5.8
871.358	13.99
871.531	13.99
871.704	120.49
871.877	-24.92
872.05	3.75
872.223	-16.73
872.396	34.47
872.569	95.91
872.742	-37.2
872.915	5.8
873.088	67.24
873.261	3.75
873.434	-8.53
873.607	65.19
873.78	24.23
873.953	30.38
874.126	44.71
874.299	120.49
874.471	30.38
874.644	3.75
874.817	-6.49
874.99	13.99
875.163	-55.64
875.335	54.95
875.508	3.75
875.681	13.99
875.853	26.28
876.026	77.48
876.199	63.15
876.371	40.62
876.544	28.33
876.717	-20.82
876.889	9.9
877.062	87.72
877.234	-22.87
877.407	13.99
877.579	-98.64
877.752	-37.2
877.924	-39.25
878.097	16.04
878.269	28.33
878.442	71.34
878.614	42.67
878.786	69.29
878.959	36.52
879.131	61.1
879.303	-59.73
879.476	1.71
879.648	-26.96
879.82	42.67
879.993	54.95
880.165	30.38
880.337	-43.35
880.509	40.62
880.681	28.33
880.854	-76.12
881.026	75.43
881.198	24.23
881.37	-14.68
881.542	-33.11
881.714	26.28
881.886	-14.68
882.058	40.62
882.23	-45.4
882.402	-22.87
882.574	57
882.746	28.33
882.918	38.57
883.09	40.62
883.262	-6.49
883.434	-31.06
883.606	65.19
883.778	5.8
883.95	85.67
884.122	26.28
884.293	38.57
884.465	-2.39
884.637	57
884.809	-8.53
884.98	18.09
885.152	42.67
885.324	40.62
885.496	-39.25
885.667	83.63
885.839	67.24
886.011	69.29
886.182	48.81
886.354	-22.87
886.525	-14.68
886.697	44.71
886.869	-24.92
887.04	7.85
887.212	108.2
887.383	77.48
887.555	-41.3
887.726	-31.06
887.897	-24.92
888.069	79.53
888.24	-14.68
888.412	42.67
888.583	-12.63
888.754	11.95
888.926	-12.63
889.097	-8.53
889.268	18.09
889.44	52.91
889.611	-29.01
889.782	18.09
889.953	-14.68
890.125	75.43
890.296	-57.68
890.467	20.14
890.638	-14.68
890.809	7.85
890.98	-4.44
891.151	65.19
891.323	46.76
891.494	95.91
891.665	-16.73
891.836	-33.11
892.007	-37.2
892.178	-24.92
892.349	16.04
892.52	9.9
892.691	20.14
892.862	42.67
893.032	-2.39
893.203	-6.49
893.374	24.23
893.545	81.58
893.716	-45.4
893.887	71.34
894.057	-0.34
894.228	36.52
894.399	26.28
894.57	52.91
894.74	-0.34
894.911	32.43
895.082	-24.92
895.253	26.28
895.423	5.8
895.594	-22.87
895.764	-12.63
895.935	57
896.106	26.28
896.276	36.52
896.447	1.71
896.617	26.28
896.788	16.04
896.958	59.05
897.129	7.85
897.299	46.76
897.47	48.81
897.64	46.76
897.81	-29.01
897.981	-16.73
898.151	-39.25
898.322	-2.39
898.492	46.76
898.662	26.28
898.832	5.8
899.003	18.09
899.173	-31.06
899.343	20.14
899.513	-45.4
