Data from USB4F104151__76__12-02-10-135.txt Node

Date: Fri Mar 14 12:02:10 EDT 2025
User: louis
Spectrometer: USB4F10415
Trigger mode: 4
Integration Time (sec): 2.000000E-2
Scans to average: 1
Electric dark correction enabled: true
Nonlinearity correction enabled: false
Boxcar width: 0
XAxis mode: Wavelengths
Number of Pixels in Spectrum: 3648
>>>>>Begin Spectral Data<<<<<
178.204	-75.77
178.424	-75.77
178.644	-75.77
178.864	-135.17
179.084	-14.34
179.304	6.14
179.524	14.34
179.744	2.05
179.964	4.1
180.184	10.24
180.404	40.96
180.624	-0
180.844	-55.3
181.064	-22.53
181.283	43.01
181.503	-8.19
181.723	-34.82
181.943	-55.3
182.163	106.49
182.383	26.62
182.602	63.49
182.822	71.68
183.042	32.77
183.262	30.72
183.482	12.29
183.701	18.43
183.921	-30.72
184.141	6.14
184.361	47.1
184.58	-0
184.8	32.77
185.02	22.53
185.239	51.2
185.459	59.39
185.679	2.05
185.898	-0
186.118	61.44
186.338	38.91
186.557	36.86
186.777	-38.91
186.997	26.62
187.216	-32.77
187.436	10.24
187.655	-36.86
187.875	51.2
188.095	26.62
188.314	-18.43
188.534	-0
188.753	-75.77
188.973	90.11
189.192	47.1
189.412	45.06
189.631	49.15
189.851	-10.24
190.07	20.48
190.29	-0
190.509	118.78
190.729	71.68
190.948	100.35
191.168	71.68
191.387	59.39
191.607	45.06
191.826	110.59
192.045	-47.1
192.265	-6.14
192.484	4.1
192.704	14.34
192.923	30.72
193.142	28.67
193.362	-18.43
193.581	110.59
193.8	18.43
194.02	22.53
194.239	63.49
194.458	75.77
194.678	-2.05
194.897	79.87
195.116	71.68
195.335	49.15
195.555	34.82
195.774	12.29
195.993	53.25
196.212	43.01
196.432	26.62
196.651	8.19
196.87	32.77
197.089	22.53
197.308	2.05
197.528	51.2
197.747	-53.25
197.966	-45.06
198.185	51.2
198.404	6.14
198.623	57.34
198.842	73.73
199.062	-26.62
199.281	49.15
199.5	18.43
199.719	61.44
199.938	86.01
200.157	-22.53
200.376	57.34
200.595	6.14
200.814	83.97
201.033	59.39
201.252	10.24
201.471	10.24
201.69	53.25
201.909	69.63
202.128	26.62
202.347	10.24
202.566	73.73
202.785	-2.05
203.004	-28.67
203.223	-2.05
203.442	38.91
203.661	-59.39
203.879	24.58
204.098	96.25
204.317	108.54
204.536	71.68
204.755	38.91
204.974	28.67
205.193	83.97
205.411	104.45
205.63	47.1
205.849	34.82
206.068	30.72
206.287	30.72
206.505	47.1
206.724	2.05
206.943	6.14
207.162	8.19
207.381	59.39
207.599	34.82
207.818	75.77
208.037	6.14
208.255	4.1
208.474	49.15
208.693	-26.62
208.911	32.77
209.13	59.39
209.349	53.25
209.567	10.24
209.786	86.01
210.005	34.82
210.223	10.24
210.442	24.58
210.661	32.77
210.879	67.58
211.098	79.87
211.316	-30.72
211.535	81.92
211.753	53.25
211.972	28.67
212.191	-16.38
212.409	16.38
212.628	-6.14
212.846	-18.43
213.065	4.1
213.283	47.1
213.502	12.29
213.72	49.15
213.938	16.38
214.157	-10.24
214.375	83.97
214.594	45.06
214.812	40.96
215.031	-49.15
215.249	-18.43
215.467	45.06
215.686	53.25
215.904	32.77
216.122	104.45
216.341	-63.49
216.559	69.63
216.778	22.53
216.996	-14.34
217.214	-4.1
217.432	55.3
217.651	61.44
217.869	55.3
218.087	92.16
218.306	-2.05
218.524	112.64
218.742	-22.53
218.96	2.05
219.179	45.06
219.397	16.38
219.615	65.53
219.833	28.67
220.051	6.14
220.27	67.58
220.488	51.2
220.706	79.87
220.924	75.77
221.142	-6.14
221.36	8.19
221.578	112.64
221.796	-8.19
222.015	6.14
222.233	-53.25
222.451	63.49
222.669	-12.29
222.887	69.63
223.105	8.19
223.323	61.44
223.541	-32.77
223.759	40.96
223.977	-8.19
224.195	96.25
224.413	59.39
224.631	55.3
224.849	20.48
225.067	94.21
225.285	47.1
225.503	32.77
225.721	22.53
225.939	-12.29
226.157	73.73
226.375	22.53
226.592	14.34
226.81	79.87
227.028	51.2
227.246	57.34
227.464	51.2
227.682	51.2
227.9	71.68
228.117	18.43
228.335	-0
228.553	88.06
228.771	59.39
228.989	-6.14
229.206	110.59
229.424	8.19
229.642	2.05
229.86	4.1
230.077	40.96
230.295	-40.96
230.513	96.25
230.731	43.01
230.948	100.35
231.166	36.86
231.384	63.49
231.601	-45.06
231.819	65.53
232.037	12.29
232.254	-49.15
232.472	30.72
232.689	53.25
232.907	51.2
233.125	-20.48
233.342	-18.43
233.56	40.96
233.777	24.58
233.995	55.3
234.213	67.58
234.43	24.58
234.648	36.86
234.865	-22.53
235.083	-16.38
235.3	18.43
235.518	106.49
235.735	26.62
235.953	-6.14
236.17	18.43
236.388	55.3
236.605	26.62
236.822	90.11
237.04	59.39
237.257	32.77
237.475	-53.25
237.692	30.72
237.909	12.29
238.127	73.73
238.344	36.86
238.562	-28.67
238.779	-14.34
238.996	38.91
239.214	53.25
239.431	26.62
239.648	2.05
239.865	45.06
240.083	135.17
240.3	124.93
240.517	67.58
240.735	59.39
240.952	14.34
241.169	6.14
241.386	59.39
241.603	69.63
241.821	32.77
242.038	75.77
242.255	24.58
242.472	-8.19
242.689	43.01
242.907	24.58
243.124	43.01
243.341	-4.1
243.558	28.67
243.775	-18.43
243.992	-14.34
244.209	92.16
244.426	61.44
244.643	67.58
244.86	4.1
245.078	43.01
245.295	71.68
245.512	12.29
245.729	-10.24
245.946	24.58
246.163	-12.29
246.38	69.63
246.597	-10.24
246.814	36.86
247.031	4.1
247.248	57.34
247.464	12.29
247.681	-24.58
247.898	26.62
248.115	38.91
248.332	-12.29
248.549	59.39
248.766	116.73
248.983	20.48
249.2	10.24
249.417	20.48
249.633	-10.24
249.85	65.53
250.067	4.1
250.284	69.63
250.501	24.58
250.717	47.1
250.934	40.96
251.151	-20.48
251.368	49.15
251.585	49.15
251.801	77.82
252.018	-4.1
252.235	12.29
252.451	-22.53
252.668	63.49
252.885	73.73
253.102	47.1
253.318	38.91
253.535	10.24
253.752	-43.01
253.968	98.3
254.185	47.1
254.401	49.15
254.618	47.1
254.835	8.19
255.051	36.86
255.268	12.29
255.484	53.25
255.701	12.29
255.917	28.67
256.134	-22.53
256.351	10.24
256.567	51.2
256.784	79.87
257	22.53
257.217	-20.48
257.433	-4.1
257.65	61.44
257.866	114.69
258.082	34.82
258.299	-32.77
258.515	20.48
258.732	-0
258.948	20.48
259.165	-14.34
259.381	22.53
259.597	38.91
259.814	36.86
260.03	16.38
260.246	16.38
260.463	124.93
260.679	65.53
260.895	-32.77
261.112	24.58
261.328	45.06
261.544	34.82
261.761	114.69
261.977	12.29
262.193	38.91
262.409	-12.29
262.626	45.06
262.842	18.43
263.058	28.67
263.274	12.29
263.49	57.34
263.707	34.82
263.923	28.67
264.139	55.3
264.355	32.77
264.571	32.77
264.787	24.58
265.004	36.86
265.22	-6.14
265.436	14.34
265.652	28.67
265.868	55.3
266.084	-0
266.3	57.34
266.516	6.14
266.732	28.67
266.948	92.16
267.164	-20.48
267.38	67.58
267.596	47.1
267.812	81.92
268.028	36.86
268.244	16.38
268.46	12.29
268.676	34.82
268.892	-26.62
269.108	51.2
269.324	-6.14
269.54	55.3
269.756	94.21
269.972	6.14
270.188	-8.19
270.403	45.06
270.619	-4.1
270.835	98.3
271.051	63.49
271.267	38.91
271.483	88.06
271.698	63.49
271.914	18.43
272.13	145.41
272.346	22.53
272.562	12.29
272.777	12.29
272.993	53.25
273.209	14.34
273.425	10.24
273.64	10.24
273.856	75.77
274.072	4.1
274.287	10.24
274.503	38.91
274.719	81.92
274.934	28.67
275.15	53.25
275.366	79.87
275.581	-18.43
275.797	43.01
276.012	8.19
276.228	2.05
276.444	-2.05
276.659	65.53
276.875	49.15
277.09	-2.05
277.306	47.1
277.521	73.73
277.737	-47.1
277.952	81.92
278.168	86.01
278.383	24.58
278.599	92.16
278.814	40.96
279.03	16.38
279.245	57.34
279.461	53.25
279.676	26.62
279.892	8.19
280.107	71.68
280.322	-0
280.538	86.01
280.753	-0
280.969	43.01
281.184	63.49
281.399	45.06
281.615	73.73
281.83	-8.19
282.045	4.1
282.26	-10.24
282.476	28.67
282.691	86.01
282.906	53.25
283.122	63.49
283.337	-40.96
283.552	34.82
283.767	69.63
283.983	-6.14
284.198	-14.34
284.413	40.96
284.628	51.2
284.843	-10.24
285.058	43.01
285.274	71.68
285.489	55.3
285.704	100.35
285.919	129.02
286.134	-30.72
286.349	79.87
286.564	69.63
286.779	2.05
286.995	-0
287.21	65.53
287.425	108.54
287.64	14.34
287.855	61.44
288.07	2.05
288.285	126.97
288.5	96.25
288.715	114.69
288.93	69.63
289.145	28.67
289.36	22.53
289.575	53.25
289.79	67.58
290.004	-8.19
290.219	32.77
290.434	30.72
290.649	34.82
290.864	43.01
291.079	-6.14
291.294	26.62
291.509	34.82
291.724	-22.53
291.938	-10.24
292.153	71.68
292.368	69.63
292.583	61.44
292.798	6.14
293.012	57.34
293.227	55.3
293.442	16.38
293.657	-12.29
293.871	59.39
294.086	63.49
294.301	92.16
294.516	6.14
294.73	20.48
294.945	-6.14
295.16	18.43
295.374	71.68
295.589	30.72
295.804	-14.34
296.018	51.2
296.233	61.44
296.447	-2.05
296.662	34.82
296.877	49.15
297.091	38.91
297.306	63.49
297.52	88.06
297.735	88.06
297.949	47.1
298.164	81.92
298.378	20.48
298.593	63.49
298.807	12.29
299.022	47.1
299.236	96.25
299.451	34.82
299.665	32.77
299.88	110.59
300.094	24.58
300.309	59.39
300.523	110.59
300.737	43.01
300.952	65.53
301.166	28.67
301.381	14.34
301.595	30.72
301.809	47.1
302.024	30.72
302.238	-6.14
302.452	55.3
302.667	90.11
302.881	24.58
303.095	49.15
303.309	6.14
303.524	6.14
303.738	69.63
303.952	38.91
304.166	14.34
304.381	-0
304.595	88.06
304.809	98.3
305.023	-0
305.237	53.25
305.452	79.87
305.666	38.91
305.88	24.58
306.094	57.34
306.308	-6.14
306.522	24.58
306.736	71.68
306.95	-14.34
307.164	75.77
307.379	28.67
307.593	71.68
307.807	86.01
308.021	-2.05
308.235	45.06
308.449	26.62
308.663	75.77
308.877	61.44
309.091	69.63
309.305	28.67
309.519	-6.14
309.733	14.34
309.947	-18.43
310.161	88.06
310.374	81.92
310.588	100.35
310.802	10.24
311.016	120.83
311.23	77.82
311.444	32.77
311.658	59.39
311.872	98.3
312.085	129.02
312.299	28.67
312.513	77.82
312.727	69.63
312.941	43.01
313.154	34.82
313.368	20.48
313.582	-36.86
313.796	61.44
314.009	104.45
314.223	53.25
314.437	40.96
314.651	51.2
314.864	59.39
315.078	16.38
315.292	71.68
315.505	-10.24
315.719	81.92
315.933	36.86
316.146	51.2
316.36	49.15
316.573	59.39
316.787	12.29
317.001	51.2
317.214	-40.96
317.428	88.06
317.641	69.63
317.855	36.86
318.068	98.3
318.282	10.24
318.495	126.97
318.709	65.53
318.922	43.01
319.136	77.82
319.349	18.43
319.563	22.53
319.776	-8.19
319.99	38.91
320.203	71.68
320.417	63.49
320.63	47.1
320.843	26.62
321.057	20.48
321.27	-8.19
321.483	47.1
321.697	108.54
321.91	57.34
322.124	90.11
322.337	94.21
322.55	2.05
322.763	-0
322.977	28.67
323.19	-20.48
323.403	38.91
323.617	8.19
323.83	86.01
324.043	26.62
324.256	104.45
324.469	67.58
324.683	129.02
324.896	18.43
325.109	10.24
325.322	34.82
325.535	2.05
325.748	40.96
325.962	22.53
326.175	67.58
326.388	55.3
326.601	30.72
326.814	24.58
327.027	12.29
327.24	73.73
327.453	-14.34
327.666	65.53
327.879	94.21
328.092	67.58
328.305	53.25
328.518	110.59
328.731	-14.34
328.944	51.2
329.157	61.44
329.37	118.78
329.583	55.3
329.796	57.34
330.009	2.05
330.222	47.1
330.435	28.67
330.648	45.06
330.861	55.3
331.073	55.3
331.286	20.48
331.499	28.67
331.712	10.24
331.925	69.63
332.138	114.69
332.35	30.72
332.563	26.62
332.776	71.68
332.989	-45.06
333.202	16.38
333.414	45.06
333.627	30.72
333.84	126.97
334.053	43.01
334.265	32.77
334.478	69.63
334.691	40.96
334.903	20.48
335.116	32.77
335.329	22.53
335.541	22.53
335.754	32.77
335.966	112.64
336.179	22.53
336.392	14.34
336.604	55.3
336.817	129.02
337.029	30.72
337.242	47.1
337.454	43.01
337.667	63.49
337.88	77.82
338.092	43.01
338.305	34.82
338.517	73.73
338.729	47.1
338.942	55.3
339.154	-18.43
339.367	26.62
339.579	88.06
339.792	24.58
340.004	51.2
340.217	67.58
340.429	79.87
340.641	53.25
340.854	126.97
341.066	-2.05
341.278	96.25
341.491	143.36
341.703	30.72
341.915	22.53
342.128	96.25
342.34	110.59
342.552	45.06
342.764	43.01
342.977	53.25
343.189	24.58
343.401	34.82
343.613	8.19
343.826	53.25
344.038	16.38
344.25	73.73
344.462	-45.06
344.674	98.3
344.886	28.67
345.099	114.69
345.311	18.43
345.523	-32.77
345.735	34.82
345.947	26.62
346.159	79.87
346.371	24.58
346.583	26.62
346.795	55.3
347.007	22.53
347.219	53.25
347.431	22.53
347.643	75.77
347.855	65.53
348.067	102.4
348.279	-36.86
348.491	38.91
348.703	45.06
348.915	61.44
349.127	6.14
349.339	34.82
349.551	20.48
349.763	61.44
349.975	24.58
350.187	81.92
350.399	34.82
350.61	-4.1
350.822	98.3
351.034	75.77
351.246	81.92
351.458	-20.48
351.669	73.73
351.881	53.25
352.093	26.62
352.305	100.35
352.517	32.77
352.728	36.86
352.94	34.82
353.152	116.73
353.363	92.16
353.575	38.91
353.787	55.3
353.999	96.25
354.21	118.78
354.422	51.2
354.633	-4.1
354.845	145.41
355.057	55.3
355.268	32.77
355.48	18.43
355.692	43.01
355.903	69.63
356.115	90.11
356.326	-30.72
356.538	83.97
356.749	45.06
356.961	73.73
357.172	40.96
357.384	90.11
357.595	137.21
357.807	38.91
358.018	55.3
358.23	30.72
358.441	40.96
358.653	57.34
358.864	32.77
359.075	38.91
359.287	116.73
359.498	55.3
359.709	79.87
359.921	88.06
360.132	157.69
360.344	4.1
360.555	57.34
360.766	57.34
360.977	-32.77
361.189	106.49
361.4	102.4
361.611	8.19
361.823	94.21
362.034	12.29
362.245	10.24
362.456	65.53
362.667	53.25
362.879	45.06
363.09	98.3
363.301	124.93
363.512	32.77
363.723	30.72
363.935	24.58
364.146	55.3
364.357	71.68
364.568	28.67
364.779	71.68
364.99	94.21
365.201	-12.29
365.412	106.49
365.623	30.72
365.834	79.87
366.045	53.25
366.256	98.3
366.467	18.43
366.678	94.21
366.889	81.92
367.1	129.02
367.311	57.34
367.522	102.4
367.733	63.49
367.944	32.77
368.155	49.15
368.366	122.88
368.577	69.63
368.788	57.34
368.999	96.25
369.209	83.97
369.42	122.88
369.631	118.78
369.842	120.83
370.053	88.06
370.264	81.92
370.474	71.68
370.685	86.01
370.896	104.45
371.107	30.72
371.317	120.83
371.528	59.39
371.739	143.36
371.95	92.16
372.16	133.12
372.371	40.96
372.582	67.58
372.792	24.58
373.003	30.72
373.214	73.73
373.424	43.01
373.635	-24.58
373.846	77.82
374.056	24.58
374.267	14.34
374.477	83.97
374.688	137.21
374.898	94.21
375.109	49.15
375.319	45.06
375.53	129.02
375.74	32.77
375.951	73.73
376.161	71.68
376.372	122.88
376.582	57.34
376.793	98.3
377.003	122.88
377.214	-30.72
377.424	61.44
377.635	49.15
377.845	83.97
378.055	120.83
378.266	32.77
378.476	106.49
378.686	14.34
378.897	86.01
379.107	28.67
379.317	157.69
379.528	18.43
379.738	167.93
379.948	53.25
380.158	77.82
380.369	49.15
380.579	65.53
380.789	16.38
380.999	77.82
381.21	-6.14
381.42	102.4
381.63	18.43
381.84	79.87
382.05	106.49
382.261	88.06
382.471	71.68
382.681	-24.58
382.891	49.15
383.101	24.58
383.311	6.14
383.521	-12.29
383.731	59.39
383.941	81.92
384.151	59.39
384.361	55.3
384.571	59.39
384.781	120.83
384.991	88.06
385.201	108.54
385.411	61.44
385.621	133.12
385.831	77.82
386.041	53.25
386.251	104.45
386.461	75.77
386.671	34.82
386.881	88.06
387.091	106.49
387.301	110.59
387.511	106.49
387.72	69.63
387.93	40.96
388.14	63.49
388.35	77.82
388.56	-18.43
388.769	65.53
388.979	98.3
389.189	51.2
389.399	75.77
389.609	77.82
389.818	126.97
390.028	71.68
390.238	102.4
390.447	40.96
390.657	96.25
390.867	28.67
391.076	63.49
391.286	131.07
391.496	34.82
391.705	96.25
391.915	59.39
392.125	133.12
392.334	51.2
392.544	106.49
392.753	20.48
392.963	67.58
393.172	77.82
393.382	61.44
393.591	102.4
393.801	73.73
394.01	86.01
394.22	129.02
394.429	153.6
394.639	90.11
394.848	77.82
395.058	40.96
395.267	36.86
395.477	106.49
395.686	112.64
395.895	110.59
396.105	143.36
396.314	55.3
396.524	38.91
396.733	67.58
396.942	161.79
397.152	172.03
397.361	116.73
397.57	90.11
397.78	71.68
397.989	79.87
398.198	155.65
398.407	131.07
398.617	163.84
398.826	104.45
399.035	104.45
399.244	116.73
399.453	124.93
399.663	133.12
399.872	153.6
400.081	202.75
400.29	155.65
400.499	133.12
400.708	141.31
400.917	86.01
401.127	200.7
401.336	153.6
401.545	94.21
401.754	124.93
401.963	133.12
402.172	71.68
402.381	145.41
402.59	182.27
402.799	163.84
403.008	126.97
403.217	159.74
403.426	217.08
403.635	114.69
403.844	184.32
404.053	126.97
404.262	155.65
404.471	137.21
404.68	210.94
404.888	260.09
405.097	163.84
405.306	186.37
405.515	198.65
405.724	212.99
405.933	186.37
406.142	241.66
406.35	188.41
406.559	268.28
406.768	204.8
406.977	221.18
407.185	276.48
407.394	251.9
407.603	241.66
407.812	307.2
408.02	286.72
408.229	290.81
408.438	260.09
408.646	292.86
408.855	280.57
409.064	313.34
409.272	307.2
409.481	423.93
409.69	358.39
409.898	372.73
410.107	344.06
410.315	413.69
410.524	399.35
410.733	397.31
410.941	401.4
411.15	385.02
411.358	534.52
411.567	460.79
411.775	479.22
411.984	516.09
412.192	516.09
412.401	604.15
412.609	602.1
412.818	663.54
413.026	552.95
413.234	641.01
413.443	659.45
413.651	636.92
413.86	677.88
414.068	776.18
414.276	755.7
414.485	643.06
414.693	784.37
414.901	751.6
415.11	868.34
415.318	858.1
415.526	905.2
415.734	1015.79
415.943	925.68
416.151	980.98
416.359	985.07
416.567	964.59
416.776	1105.9
416.984	1236.97
417.192	1226.73
417.4	1279.98
417.608	1165.29
417.817	1355.76
418.025	1329.13
418.233	1452.01
418.441	1339.37
418.649	1519.59
418.857	1585.13
419.065	1595.37
419.273	1581.03
419.481	1687.53
419.689	1843.17
419.897	1824.74
420.105	1802.21
420.313	1875.94
420.521	1972.19
420.729	1996.77
420.937	2185.18
421.145	2220
421.353	2260.96
421.561	2379.74
421.769	2400.22
421.977	2492.38
422.185	2435.03
422.393	2721.75
422.601	2844.63
422.809	2920.4
423.017	2869.2
423.224	2942.93
423.432	3123.15
423.64	3020.75
423.848	3370.96
424.056	3325.9
424.263	3434.44
424.471	3596.23
424.679	3620.81
424.887	3872.71
425.094	3882.95
425.302	3848.13
425.51	4138.94
425.718	4235.2
425.925	4231.1
426.133	4442.04
426.341	4583.35
426.548	4984.76
426.756	4831.16
426.964	5009.33
427.171	5195.7
427.379	5390.25
427.586	5404.59
427.794	5564.33
428.001	6025.12
428.209	6244.26
428.417	6113.19
428.624	6512.54
428.832	6580.12
429.039	6561.69
429.247	6385.57
429.454	7067.54
429.662	7647.12
429.869	6985.62
430.076	7632.78
430.284	7411.6
430.491	7628.68
430.699	8251.27
430.906	7991.17
431.114	8255.36
431.321	8636.28
431.528	8699.77
431.736	9060.21
431.943	9607.02
432.15	9330.55
432.358	9527.15
432.565	10033
432.772	10155.88
432.979	10620.77
433.187	10739.55
433.394	10667.87
433.601	11554.64
433.808	11417.43
434.016	11364.18
434.223	12048.2
434.43	12609.34
434.637	12267.33
434.844	12967.74
435.052	13412.15
435.259	13547.31
435.466	13461.3
435.673	13496.11
435.88	14247.72
436.087	14690.08
436.294	15030.04
436.501	14692.13
436.708	15011.61
436.915	15423.25
437.122	16111.37
437.329	16084.75
437.537	16672.51
437.743	17073.92
437.95	16891.65
438.157	17807.09
438.364	18499.3
438.571	18360.04
438.778	18317.03
438.985	20031.18
439.192	19289.82
439.399	20008.65
439.606	19476.18
439.813	20684.48
440.02	21677.75
440.227	21569.21
440.433	21268.16
440.64	21962.42
440.847	21653.17
441.054	22529.7
441.261	23639.7
441.467	23391.9
441.674	23830.16
441.881	25038.47
442.088	24786.57
442.294	24557.19
442.501	25116.29
442.708	25855.61
442.914	26746.47
443.121	27862.61
443.328	27186.79
443.534	29142.6
443.741	28341.84
443.948	27991.64
444.154	29851.19
444.361	29765.18
444.568	29967.93
444.774	29658.68
444.981	30725.68
445.187	30832.17
445.394	32468.5
445.6	32210.45
445.807	35335.65
446.013	33684.99
446.22	34299.38
446.426	35546.59
446.633	36009.43
446.839	36992.46
447.046	35446.24
447.252	37424.58
447.459	37772.74
447.665	37494.21
447.871	38991.28
448.078	40654.23
448.284	39112.11
448.491	39742.88
448.697	41688.45
448.903	42227.07
449.11	42122.62
449.316	41553.29
449.522	42122.62
449.728	43564.39
449.935	43668.84
450.141	43853.15
450.347	44660.05
450.553	43236.72
450.76	43980.13
450.966	45208.91
451.172	45063.5
451.378	45700.42
451.584	44643.67
451.791	45473.1
451.997	45618.5
452.203	46585.15
452.409	46525.75
452.615	46247.23
452.821	44316
453.027	44143.97
453.233	46816.57
453.44	44416.35
453.646	44997.97
453.852	45305.16
454.058	45962.56
454.264	44232.03
454.47	45325.64
454.676	44301.66
454.882	46040.39
455.088	41758.08
455.294	42698.1
455.5	43068.78
455.705	43767.14
455.911	41635.2
456.117	40609.17
456.323	40488.34
456.529	38254.01
456.735	40152.48
456.941	39101.87
457.147	38213.05
457.352	37262.79
457.558	36916.68
457.764	36857.29
457.97	35976.67
458.176	35081.7
458.381	35163.62
458.587	33109.51
458.793	33472
458.999	31841.82
459.204	33953.27
459.41	32826.89
459.616	31026.73
459.821	30815.79
460.027	31026.73
460.233	30099
460.438	28577.36
460.644	28827.21
460.85	27659.87
461.055	27113.06
461.261	27405.92
461.466	24780.42
461.672	24317.58
461.878	26177.14
462.083	24784.52
462.289	24125.07
462.494	23776.92
462.7	22607.53
462.905	22122.16
463.111	22662.82
463.316	22851.24
463.522	22159.02
463.727	22466.22
463.932	22396.59
464.138	22179.5
464.343	22408.87
464.549	21706.42
464.754	22247.08
464.959	22130.35
465.165	21970.61
465.37	20965.06
465.575	20647.62
465.781	21167.81
465.986	21399.23
466.191	20702.92
466.397	20422.34
466.602	19183.32
466.807	20068.05
467.012	19900.11
467.218	19898.06
467.423	19728.08
467.628	19877.58
467.833	20672.2
468.038	20043.47
468.244	19089.12
468.449	20207.31
468.654	19121.88
468.859	19121.88
469.064	19093.21
469.269	18556.64
469.474	18562.79
469.679	18820.83
469.885	18321.13
470.09	18716.39
470.295	18407.14
470.5	18237.16
470.705	18259.69
470.91	17915.63
471.115	17567.48
471.32	17659.63
471.525	17858.29
471.73	17497.85
471.935	17123.07
472.139	16475.91
472.344	16848.64
472.549	16799.49
472.754	16291.59
472.959	16375.56
473.164	15861.52
473.369	15570.71
473.574	15927.05
473.778	15843.09
473.983	15806.22
474.188	15595.28
474.393	15294.23
474.598	15116.06
474.802	15058.71
475.007	14952.22
475.212	14972.7
475.417	14532.39
475.621	14479.14
475.826	14548.77
476.031	14217
476.235	13938.48
476.44	14161.7
476.645	13850.41
476.849	14040.87
477.054	13655.86
477.259	13297.46
477.463	13598.51
477.668	13154.1
477.872	13315.89
478.077	13027.13
478.282	12752.7
478.486	12517.18
478.691	12349.25
478.895	12568.38
479.1	12549.95
479.304	12498.75
479.509	12207.94
479.713	12379.97
479.918	11870.03
480.122	11966.28
480.326	12089.16
480.531	12001.1
480.735	11917.13
480.94	11880.27
481.144	12054.34
481.348	11743.05
481.553	11794.25
481.757	11540.3
481.961	11667.28
482.166	11761.48
482.37	11419.47
482.574	11392.85
482.778	11489.1
482.983	11786.06
483.187	11798.35
483.391	11550.54
483.595	11480.91
483.8	11382.61
484.004	11626.32
484.208	11554.64
484.412	11450.19
484.616	11509.58
484.821	11579.22
485.025	11466.58
485.229	11669.33
485.433	11382.61
485.637	11550.54
485.841	11364.18
486.045	11446.1
486.249	11435.86
486.453	11417.43
486.657	11423.57
486.861	11640.65
487.065	11175.77
487.269	11452.24
487.473	11220.82
487.677	11495.25
487.881	11595.6
488.085	11564.88
488.289	11589.46
488.493	11528.02
488.697	11503.44
488.901	11489.1
489.105	11366.23
489.309	11562.83
489.512	11403.09
489.716	11618.13
489.92	11528.02
490.124	11384.66
490.328	11863.88
490.531	11636.56
490.735	11962.19
490.939	11910.99
491.143	11654.99
491.346	11685.71
491.55	12033.86
491.754	12031.82
491.958	12109.64
492.161	11992.9
492.365	11980.62
492.569	12062.54
492.772	12318.53
492.976	12197.7
493.18	12304.2
493.383	12386.11
493.587	12554.05
493.79	12621.63
493.994	12328.77
494.197	12711.74
494.401	12916.54
494.605	12836.67
494.808	13154.1
495.012	12738.37
495.215	13111.1
495.419	12904.25
495.622	12934.97
495.825	13127.48
496.029	13424.44
496.232	13545.27
496.436	13479.73
496.639	14049.07
496.843	13858.6
497.046	13993.77
497.249	14317.35
497.453	14341.93
497.656	14473
497.859	14391.08
498.063	14552.87
498.266	14849.82
498.469	14982.94
498.673	14931.74
498.876	15251.22
499.079	15689.49
499.282	15306.52
499.485	15931.15
499.689	15767.31
499.892	16297.74
500.095	16152.33
500.298	16369.41
500.501	16506.63
500.705	16633.6
500.908	16830.21
501.111	17305.34
501.314	17342.2
501.517	17348.34
501.72	17590
501.923	17565.43
502.126	18032.36
502.329	18503.4
502.532	18147.05
502.735	18280.17
502.938	18677.47
503.141	18900.7
503.344	19345.11
503.547	19429.08
503.75	19392.22
503.953	19543.77
504.156	20172.49
504.359	20338.38
504.562	20219.6
504.765	20373.19
504.968	20737.73
505.17	20664
505.373	20821.7
505.576	21628.6
505.779	21749.43
505.982	21647.03
506.185	22458.03
506.387	22302.38
506.59	22529.7
506.793	22941.35
506.996	22640.29
507.198	23172.77
507.401	23144.09
507.604	23668.37
507.807	23955.09
508.009	24008.34
508.212	24391.31
508.415	24749.7
508.617	24809.09
508.82	24866.44
509.022	25001.6
509.225	25372.28
509.428	25812.6
509.63	25960.05
509.833	25841.27
510.035	26363.5
510.238	26621.55
510.44	27047.52
510.643	26891.88
510.845	27139.68
511.048	27274.85
511.25	27661.91
511.453	28018.26
511.655	28872.26
511.858	28061.27
512.06	28644.94
512.262	29021.77
512.465	29199.94
512.667	29566.52
512.87	29419.07
513.072	29746.75
513.274	30309.94
513.477	30516.78
513.679	30854.7
513.881	31194.66
514.084	31544.86
514.286	31409.7
514.488	31348.26
514.69	32351.76
514.893	32226.84
515.095	32484.88
515.297	33125.89
515.499	32804.36
515.701	33586.69
515.904	33644.03
516.106	34049.53
516.308	34276.85
516.51	34786.8
516.712	35007.98
516.914	34885.1
517.116	35249.64
517.318	35534.31
517.52	35485.15
517.722	36025.82
517.925	36474.32
518.127	36971.98
518.329	36775.37
518.531	36484.56
518.733	37572.03
518.935	37723.58
519.136	37801.41
519.338	38370.74
519.54	38487.48
519.742	38462.9
519.944	38940.08
520.146	39191.98
520.348	39495.08
520.55	39441.83
520.752	39937.44
520.954	40478.1
521.155	40197.53
521.357	40431
521.559	41022.86
521.761	41774.47
521.963	41397.64
522.164	41616.77
522.366	41930.11
522.568	41989.5
522.77	42667.38
522.971	43074.93
523.173	42427.77
523.375	43363.69
523.576	43199.85
523.778	43132.27
523.98	43758.95
524.181	43361.64
524.383	43412.84
524.584	43922.79
524.786	44213.6
524.988	44115.29
525.189	44694.87
525.391	44653.91
525.592	45051.22
525.794	45256.01
525.995	45598.02
526.197	45317.45
526.398	45487.43
526.6	45841.73
526.801	45931.84
527.003	46146.88
527.204	45894.98
527.406	46386.49
527.607	46447.93
527.808	46505.27
528.01	46198.08
528.211	46589.24
528.412	47213.87
528.614	46851.38
528.815	46961.97
529.016	47375.66
529.218	47097.14
529.419	47146.29
529.62	47007.03
529.822	46951.73
530.023	47381.8
530.224	47762.73
530.425	47181.1
530.626	47127.86
530.828	46994.74
531.029	48209.18
531.23	47234.35
531.431	47572.27
531.632	47754.54
531.833	48059.68
532.035	47758.63
532.236	48063.78
532.437	48174.37
532.638	47525.16
532.839	47899.94
533.04	47988
533.241	47484.2
533.442	48198.94
533.643	47934.76
533.844	47787.3
534.045	48117.03
534.246	47641.9
534.447	47996.2
534.648	48299.29
534.849	47938.85
535.05	47605.03
535.251	48106.79
535.451	47772.97
535.652	48000.29
535.853	47811.88
536.054	47850.79
536.255	47758.63
536.456	47666.47
536.657	48626.97
536.857	48082.21
537.058	47736.1
537.259	48450.84
537.46	48411.93
537.66	47523.11
537.861	48082.21
538.062	47308.08
538.263	48266.53
538.463	47576.36
538.664	47732.01
538.865	48016.68
539.065	48133.41
539.266	47473.96
539.466	48491.8
539.667	47492.4
539.868	47820.07
540.068	47748.39
540.269	47559.98
540.469	48063.78
540.67	47629.61
540.87	47504.68
541.071	47676.71
541.271	47805.73
541.472	47531.31
541.672	47246.64
541.873	47217.97
542.073	47035.7
542.274	48129.31
542.474	47758.63
542.675	47248.69
542.875	48110.88
543.075	47576.36
543.276	47154.48
543.476	48037.15
543.676	47498.54
543.877	47586.6
544.077	47273.26
544.277	47222.06
544.478	47316.27
544.678	47342.89
544.878	47308.08
545.078	47367.47
545.279	46992.69
545.479	46992.69
545.679	47281.45
545.879	47166.77
546.079	47041.84
546.28	47369.52
546.48	46556.47
546.68	47400.24
546.88	47451.44
547.08	47353.13
547.28	46751.03
547.48	46476.6
547.68	47207.73
547.88	46701.88
548.081	46951.73
548.281	46863.67
548.481	46718.26
548.681	47496.49
548.881	47035.7
549.081	46607.67
549.28	46957.88
549.48	47015.22
549.68	47080.75
549.88	47566.12
550.08	46718.26
550.28	46939.44
550.48	46699.83
550.68	47342.89
550.88	46869.81
551.08	46824.76
551.279	46869.81
551.479	46503.23
551.679	47119.66
551.879	46656.82
552.079	47031.6
552.278	46521.66
552.478	46658.87
552.678	46734.65
552.878	46775.61
553.077	46636.34
553.277	46030.15
553.477	47121.71
553.676	46447.93
553.876	46816.57
554.076	46259.52
554.275	46359.87
554.475	46339.39
554.674	46413.12
554.874	46337.34
555.074	46177.6
555.273	46306.62
555.473	46327.1
555.672	45976.9
555.872	46120.26
556.071	46265.66
556.271	46888.24
556.47	45847.88
556.67	46038.34
556.869	45970.75
557.068	46077.25
557.268	45509.96
557.467	45804.87
557.667	46124.35
557.866	45995.33
558.065	45929.8
558.265	45645.13
558.464	45550.92
558.663	46093.63
558.863	45167.95
559.062	46124.35
559.261	45335.88
559.461	46169.41
559.66	44983.63
559.859	45415.75
560.058	45061.46
560.258	45051.22
560.457	44715.35
560.656	45387.08
560.855	45024.59
561.054	45387.08
561.253	44856.66
561.453	45315.4
561.652	45057.36
561.851	45020.5
562.05	44854.61
562.249	44789.08
562.448	44973.39
562.647	44664.15
562.846	44784.98
563.045	44752.21
563.244	44170.59
563.443	44823.89
563.642	43814.24
563.841	44348.76
564.04	44285.28
564.239	44741.97
564.438	44307.8
564.637	44631.38
564.836	44461.4
565.035	43425.13
565.234	43879.78
565.432	43881.83
565.631	43937.12
565.83	44135.77
566.029	43832.68
566.228	43668.84
566.427	43554.15
566.625	43287.92
566.824	42831.22
567.023	43435.37
567.222	43160.94
567.42	43724.13
567.619	43617.64
567.818	43210.09
568.016	43322.73
568.215	43568.49
568.414	42902.9
568.612	42950
568.811	43074.93
569.01	42847.6
569.208	42685.81
569.407	42800.5
569.605	42421.62
569.804	42728.82
570.002	42397.05
570.201	42192.25
570.4	41995.65
570.598	42052.99
570.797	42179.96
570.995	42251.64
571.193	42085.76
571.392	42190.2
571.59	42048.89
571.789	42052.99
571.987	41479.56
572.186	41479.56
572.384	41561.48
572.582	41678.21
572.781	41715.08
572.979	41264.52
573.177	41358.73
573.376	41430.41
573.574	41035.15
573.772	41215.37
573.971	40770.96
574.169	40799.63
574.367	40488.34
574.565	40895.89
574.763	40881.55
574.962	40484.25
575.16	40218.01
575.358	40455.57
575.556	39693.73
575.754	40586.64
575.952	40070.56
576.151	40416.66
576.349	39859.62
576.547	39896.48
576.745	40064.41
576.943	39830.94
577.141	39658.91
577.339	40123.8
577.537	39421.35
577.735	39417.25
577.933	39228.84
578.131	39388.58
578.329	39196.07
578.527	38653.36
578.725	39255.46
578.923	39030.19
579.121	38671.79
579.319	38849.97
579.516	38888.88
579.714	38716.85
579.912	38038.97
580.11	38137.27
580.308	38342.07
580.506	38227.38
580.704	37764.54
580.901	38157.75
581.099	38352.31
581.297	37635.52
581.495	37940.67
581.692	37977.53
581.89	37467.59
582.088	37809.6
582.285	37526.98
582.483	37797.31
582.681	37084.62
582.878	37203.4
583.076	36627.92
583.274	37238.22
583.471	36697.55
583.669	36875.73
583.866	36582.87
584.064	36857.29
584.262	36695.5
584.459	36912.59
584.657	36507.09
584.854	36701.65
585.052	35726.81
585.249	36462.04
585.447	36187.61
585.644	35618.27
585.841	36087.26
586.039	36150.74
586.236	35552.74
586.434	35642.85
586.631	35161.58
586.828	35550.69
587.026	35323.36
587.223	35259.88
587.42	34872.81
587.618	35044.84
587.815	34876.91
588.012	34776.56
588.21	34823.66
588.407	34956.78
588.604	34680.3
588.801	34237.94
588.999	34612.72
589.196	34481.65
589.393	34393.59
589.59	34018.81
589.787	34434.55
589.984	33873.4
590.182	33648.13
590.379	33883.64
590.576	33648.13
590.773	33834.49
590.97	33568.26
591.167	33443.33
591.364	33117.7
591.561	33279.49
591.758	33074.7
591.955	33240.58
592.152	33236.48
592.349	32968.2
592.546	32888.33
592.743	32976.39
592.94	32302.61
593.137	32359.95
593.334	32790.03
593.531	32015.9
593.727	32714.25
593.924	32321.04
594.121	32128.53
594.318	32312.85
594.515	32110.1
594.712	31837.72
594.908	31581.73
595.105	31907.35
595.302	31508
595.499	31663.64
595.696	31637.02
595.892	31135.27
596.089	31532.57
596.286	31071.78
596.482	31077.93
596.679	31233.57
596.876	31061.54
597.072	30715.44
597.269	31235.62
597.466	30185.01
597.662	30301.75
597.859	30385.71
598.055	30297.65
598.252	30180.92
598.448	30213.68
598.645	30094.9
598.841	29611.58
599.038	29761.08
599.234	30201.4
599.431	29480.51
599.627	29331.01
599.824	29660.73
600.02	29384.26
600.217	29519.42
600.413	29177.41
600.609	29021.77
600.806	29095.49
601.002	29101.64
601.198	28958.28
601.395	28886.6
601.591	29023.81
601.787	28804.68
601.984	28362.32
602.18	28890.7
602.376	28311.12
602.572	28163.67
602.769	28485.2
602.965	27788.89
603.161	28100.18
603.357	28073.56
603.553	28075.6
603.75	28042.84
603.946	27567.71
604.142	27919.96
604.338	27395.68
604.534	27694.68
604.73	27154.02
604.926	27053.67
605.122	27551.32
605.318	27012.71
605.514	26871.4
605.71	26953.32
605.906	26867.3
606.102	27076.19
606.298	26865.25
606.494	26840.68
606.69	26857.06
606.886	26639.98
607.082	26283.63
607.278	26748.52
607.474	26150.51
607.67	26603.11
607.866	26330.73
608.062	26650.22
608.257	26295.92
608.453	26064.5
608.649	26119.79
608.845	26044.02
609.041	26107.51
609.236	26238.58
609.432	25910.9
609.628	25779.83
609.824	25732.73
610.019	25757.3
610.215	25687.67
610.411	25929.33
610.606	25419.39
610.802	25702.01
610.998	25654.9
611.193	25659
611.389	25409.15
611.584	25493.11
611.78	25075.33
611.976	25343.61
612.171	25341.57
612.367	25169.54
612.562	24993.41
612.758	24663.69
612.953	24901.25
613.149	24946.31
613.344	24735.37
613.539	25122.43
613.735	24731.27
613.93	24790.66
614.126	24512.14
614.321	24891.01
614.517	24745.61
614.712	24739.46
614.907	24254.09
615.103	24602.25
615.298	24694.41
615.493	24690.31
615.688	24123.02
615.884	24929.92
616.079	24206.99
616.274	24147.6
616.47	24170.13
616.665	24477.32
616.86	24018.58
617.055	24018.58
617.25	23854.74
617.445	24342.16
617.641	23404.19
617.836	23877.27
618.031	23570.07
618.226	23854.74
618.421	23439
618.616	24082.06
618.811	23029.41
619.006	23348.89
619.201	23088.8
619.396	23162.53
619.591	22955.68
619.786	22949.54
619.981	22808.23
620.176	23170.72
620.371	22441.64
620.566	22681.25
620.761	22429.35
620.956	22615.72
621.151	22199.98
621.346	22220.46
621.541	21917.36
621.735	22525.61
621.93	21687.99
622.125	21810.87
622.32	21458.62
622.515	21585.59
622.709	21307.07
622.904	21450.42
623.099	21147.33
623.294	21274.3
623.488	20838.08
623.683	20954.82
623.878	20690.63
624.072	20879.04
624.267	20741.83
624.462	20649.67
624.656	20594.37
624.851	20592.33
625.046	20070.09
625.24	20219.6
625.435	19838.67
625.629	19992.27
625.824	19799.76
626.018	19756.75
626.213	19347.16
626.407	19650.26
626.602	19144.41
626.796	19134.17
626.991	19338.97
627.185	19158.75
627.38	18935.52
627.574	18652.9
627.768	18622.18
627.963	18712.29
628.157	18317.03
628.352	18769.63
628.546	18052.84
628.74	18695.91
628.935	18077.42
629.129	18208.49
629.323	17899.25
629.517	18104.04
629.712	17708.79
629.906	17782.51
630.1	17372.92
630.294	17274.62
630.489	17229.56
630.683	17518.32
630.877	17090.3
631.071	17211.13
631.265	17172.22
631.459	17051.39
631.653	16709.38
631.848	16748.29
632.042	16684.8
632.236	16518.92
632.43	16690.95
632.624	16365.32
632.818	16457.48
633.012	16254.73
633.206	16342.79
633.4	16191.24
633.594	15816.46
633.788	15863.57
633.982	15963.92
634.176	16002.83
634.369	15703.82
634.563	15400.72
634.757	15460.12
634.951	15290.13
635.145	15388.44
635.339	15306.52
635.533	15234.84
635.726	15163.16
635.92	15177.5
636.114	14999.32
636.308	14853.92
636.501	14864.16
636.695	14772
636.889	14462.76
637.083	14616.35
637.276	14507.81
637.47	14438.18
637.664	14317.35
637.857	14298.92
638.051	14300.97
638.244	13975.34
638.438	14092.07
638.632	14253.86
638.825	13866.8
639.019	13905.71
639.212	13743.92
639.406	13811.5
639.599	13596.46
639.793	13647.66
639.986	13324.08
640.18	13408.05
640.373	13410.1
640.567	13223.73
640.76	13010.75
640.954	13045.56
641.147	12971.83
641.34	13082.42
641.534	13061.94
641.727	12664.64
641.92	12992.31
642.114	12808
642.307	12756.8
642.5	12539.71
642.694	12119.88
642.887	12414.79
643.08	12517.18
643.273	12287.81
643.467	12240.71
643.66	11988.81
643.853	12080.97
644.046	11935.56
644.239	11876.17
644.432	12029.77
644.626	11751.24
644.819	11913.03
645.012	11788.11
645.205	11644.75
645.398	11743.05
645.591	11532.11
645.784	11611.98
645.977	11315.03
646.17	11493.2
646.363	11126.61
646.556	11108.18
646.749	11167.57
646.942	11130.71
647.135	10932.06
647.328	11079.51
647.521	10837.85
647.714	10846.04
647.907	10692.44
648.099	10696.54
648.292	10819.42
648.485	10776.41
648.678	10473.31
648.871	10624.86
649.064	10387.3
649.256	10532.7
649.449	10350.43
649.642	10227.56
649.835	10174.31
650.027	10278.76
650.22	10202.98
650.413	10254.18
650.605	9787.24
650.798	9916.26
650.991	9977.7
651.183	9969.51
651.376	9635.69
651.568	9746.28
651.761	9852.78
651.954	9684.84
652.146	9580.4
652.339	9471.86
652.531	9647.98
652.724	9502.57
652.916	9377.65
653.109	9457.52
653.301	9398.13
653.494	9387.89
653.686	9174.9
653.879	9125.75
654.071	9006.97
654.263	8923
654.456	9062.26
654.648	9138.04
654.84	8879.99
655.033	8963.96
655.225	8890.23
655.417	8875.9
655.61	8802.17
655.802	8687.48
655.994	8574.85
656.186	8699.77
656.379	8669.05
656.571	8638.33
656.763	8576.89
656.955	8368
657.148	8529.79
657.34	8488.83
657.532	8400.77
657.724	8320.9
657.916	8312.71
658.108	8359.81
658.3	8208.26
658.492	8220.55
658.684	8089.48
658.876	7894.92
659.068	8015.75
659.26	7870.34
659.452	7901.06
659.644	7813
659.836	7933.83
660.028	7927.69
660.22	7800.71
660.412	7649.16
660.604	7686.03
660.796	7413.65
660.988	7573.39
661.18	7624.59
661.372	7448.46
661.563	7384.98
661.755	7475.09
661.947	7384.98
662.139	7321.49
662.331	7477.13
662.522	7139.22
662.714	7188.37
662.906	7085.97
663.097	7077.78
663.289	7073.68
663.481	7131.03
663.673	7141.27
663.864	7016.34
664.056	6918.04
664.247	7028.63
664.439	7030.68
664.631	6711.19
664.822	6883.22
665.014	6911.89
665.205	6926.23
665.397	6766.49
665.588	6844.31
665.78	6694.81
665.971	6676.38
666.163	6827.93
666.354	6688.67
666.546	6404
666.737	6285.22
666.929	6477.73
667.12	6528.92
667.311	6254.5
667.503	6422.43
667.694	6373.28
667.885	6356.89
668.077	6201.25
668.268	6455.2
668.459	6172.58
668.651	6320.03
668.842	6205.35
669.033	6217.63
669.224	5992.36
669.416	6174.63
669.607	6100.9
669.798	6082.47
669.989	6031.27
670.18	5795.75
670.371	6059.94
670.563	6012.84
670.754	6000.55
670.945	5683.11
671.136	6012.84
671.327	5816.23
671.518	5781.42
671.709	5621.67
671.9	5867.43
672.091	5740.46
672.282	5709.74
672.473	5642.15
672.664	5740.46
672.855	5695.4
673.046	5650.35
673.237	5640.11
673.428	5543.85
673.619	5486.51
673.809	5648.3
674	5420.97
674.191	5343.15
674.382	5406.64
674.573	5402.54
674.764	5445.55
674.954	5470.12
675.145	5341.1
675.336	5265.33
675.527	5248.94
675.717	5314.48
675.908	5187.5
676.099	5244.85
676.289	5128.11
676.48	5242.8
676.671	5115.83
676.861	5224.37
677.052	5052.34
677.243	5062.58
677.433	5091.25
677.624	5210.03
677.814	5113.78
678.005	5093.3
678.195	5207.98
678.386	5164.98
678.576	5048.24
678.767	5011.38
678.957	4915.12
679.148	4992.95
679.338	4927.41
679.529	4888.5
679.719	4968.37
679.909	5171.12
680.1	4917.17
680.29	4962.23
680.481	4845.49
680.671	4894.65
680.861	4851.64
681.052	4896.69
681.242	4708.28
681.432	4835.25
681.622	4775.86
681.813	4659.13
682.003	4747.19
682.193	4710.33
682.383	4753.34
682.573	4716.47
682.764	4765.62
682.954	4652.98
683.144	4661.18
683.334	4620.22
683.524	4710.33
683.714	4587.45
683.904	4501.44
684.094	4562.87
684.284	4532.15
684.474	4532.15
684.664	4528.06
684.854	4519.87
685.044	4429.76
685.234	4554.68
685.424	4474.81
685.614	4423.61
685.804	4284.35
685.994	4429.76
686.184	4417.47
686.374	4323.26
686.564	4399.04
686.753	4358.08
686.943	4212.67
687.133	4247.49
687.323	4196.29
687.513	4253.63
687.702	4263.87
687.892	4052.93
688.082	4165.57
688.272	4186.05
688.461	4196.29
688.651	4018.11
688.841	3954.63
689.03	4067.27
689.22	4061.12
689.41	4102.08
689.599	3911.62
689.789	3999.68
689.979	3981.25
690.168	4052.93
690.358	4020.16
690.547	3973.06
690.737	3954.63
690.926	3829.7
691.116	3755.97
691.305	3870.66
691.495	3749.83
691.684	3813.32
691.874	3792.84
692.063	3766.21
692.252	3749.83
692.442	3874.76
692.631	3708.87
692.82	3612.62
693.01	3749.83
693.199	3692.49
693.388	3729.35
693.578	3747.78
693.767	3655.62
693.956	3590.09
694.146	3618.76
694.335	3573.71
694.524	3639.24
694.713	3559.37
694.902	3610.57
695.092	3499.98
695.281	3635.14
695.47	3477.45
695.659	3514.31
695.848	3440.59
696.037	3403.72
696.226	3545.03
696.415	3301.33
696.604	3454.92
696.793	3495.88
696.982	3401.68
697.171	3549.13
697.36	3379.15
697.549	3248.08
697.738	3473.35
697.927	3375.05
698.116	3393.48
698.305	3405.77
698.494	3348.43
698.683	3362.76
698.872	3385.29
699.061	3456.97
699.25	3352.52
699.438	3276.75
699.627	3364.81
699.816	3252.17
700.005	3356.62
700.193	3330
700.382	3364.81
700.571	3405.77
700.76	3442.64
700.948	3377.1
701.137	3295.18
701.326	3311.57
701.514	3221.45
701.703	3368.91
701.892	3317.71
702.08	3289.04
702.269	3409.87
702.457	3272.65
702.646	3309.52
702.834	3254.22
703.023	3342.28
703.212	3276.75
703.4	3286.99
703.589	3176.4
703.777	3330
703.965	3196.88
704.154	3256.27
704.342	3094.48
704.531	3131.34
704.719	3008.47
704.907	3207.12
705.096	3198.93
705.284	3272.65
705.472	3262.41
705.661	3256.27
705.849	3121.1
706.037	2957.27
706.226	3200.98
706.414	3170.26
706.602	3012.56
706.79	3194.83
706.979	3090.38
707.167	3198.93
707.355	3235.79
707.543	3170.26
707.731	3231.69
707.919	3123.15
708.107	3106.77
708.296	3207.12
708.484	3026.9
708.672	2938.84
708.86	3180.5
709.048	3151.82
709.236	3170.26
709.424	3188.69
709.612	3153.87
709.8	3170.26
709.988	3071.95
710.176	3235.79
710.364	3168.21
710.551	3067.86
710.739	3094.48
710.927	3045.33
711.115	3143.63
711.303	2992.08
711.491	3082.19
711.679	2897.88
711.866	3166.16
712.054	2967.51
712.242	3100.62
712.43	3155.92
712.617	3051.47
712.805	3125.2
712.993	2965.46
713.181	3059.67
713.368	2965.46
713.556	3125.2
713.744	3043.28
713.931	3039.19
714.119	2996.18
714.306	3010.51
714.494	2899.92
714.682	2949.07
714.869	2885.59
715.057	2979.79
715.244	2992.08
715.432	3033.04
715.619	2942.93
715.807	2940.88
715.994	2914.26
716.182	3067.86
716.369	3014.61
716.556	3026.9
716.744	2969.55
716.931	2938.84
717.119	2934.74
717.306	2873.3
717.493	2906.07
717.681	2881.49
717.868	2889.68
718.055	2949.07
718.242	2865.11
718.43	2830.29
718.617	2877.4
718.804	2949.07
718.991	2916.31
719.179	2899.92
719.366	2904.02
719.553	2912.21
719.74	2906.07
719.927	2906.07
720.114	2906.07
720.301	2799.57
720.488	2783.19
720.676	2719.7
720.863	2795.48
721.05	2840.53
721.237	2818.01
721.424	2840.53
721.611	2834.39
721.798	2752.47
721.985	2820.05
722.172	2682.84
722.358	2553.82
722.545	2748.37
722.732	2584.54
722.919	2826.2
723.106	2736.09
723.293	2754.52
723.48	2869.2
723.667	2758.61
723.853	2611.16
724.04	2717.65
724.227	2760.66
724.414	2848.72
724.6	2619.35
724.787	2635.74
724.974	2650.07
725.161	2686.93
725.347	2734.04
725.534	2609.11
725.72	2627.54
725.907	2738.13
726.094	2631.64
726.28	2572.25
726.467	2609.11
726.653	2666.46
726.84	2662.36
727.027	2713.56
727.213	2529.24
727.4	2609.11
727.586	2643.93
727.773	2617.3
727.959	2617.3
728.145	2641.88
728.332	2783.19
728.518	2541.53
728.705	2719.7
728.891	2533.34
729.077	2731.99
729.264	2533.34
729.45	2639.83
729.636	2578.39
729.823	2580.44
730.009	2535.39
730.195	2578.39
730.382	2574.3
730.568	2598.87
730.754	2516.95
730.94	2545.63
731.126	2584.54
731.313	2557.91
731.499	2500.57
731.685	2467.8
731.871	2553.82
732.057	2514.91
732.243	2457.56
732.429	2529.24
732.615	2512.86
732.801	2475.99
732.987	2424.8
733.173	2426.84
733.359	2480.09
733.545	2424.8
733.731	2392.03
733.917	2506.71
734.103	2480.09
734.289	2564.06
734.475	2408.41
734.661	2562.01
734.847	2424.8
735.033	2467.8
735.219	2346.97
735.404	2430.94
735.59	2365.4
735.776	2512.86
735.962	2412.51
736.148	2492.38
736.333	2299.87
736.519	2303.96
736.705	2371.55
736.89	2375.64
737.076	2318.3
737.262	2328.54
737.447	2318.3
737.633	2303.96
737.819	2371.55
738.004	2205.66
738.19	2310.11
738.375	2265.05
738.561	2324.44
738.747	2279.39
738.932	2289.63
739.118	2367.45
739.303	2260.96
739.489	2148.32
739.674	2195.42
739.859	2217.95
740.045	2224.09
740.23	2211.81
740.416	2166.75
740.601	2207.71
740.786	2306.01
740.972	2136.03
741.157	2154.46
741.342	2111.46
741.528	2103.26
741.713	2256.86
741.898	2176.99
742.084	2144.22
742.269	2109.41
742.454	2201.57
742.639	2179.04
742.824	2052.06
743.01	2119.65
743.195	2136.03
743.38	2113.5
743.565	1988.58
743.75	2103.26
743.935	1912.8
744.12	2000.87
744.305	2027.49
744.49	1959.91
744.675	1961.95
744.86	1918.95
745.045	1900.51
745.23	2002.91
745.415	2076.64
745.6	1982.43
745.785	1908.71
745.97	2088.93
746.155	1869.8
746.34	2009.06
746.525	1824.74
746.71	1912.8
746.895	1920.99
747.079	1832.93
747.264	1841.12
747.449	1820.64
747.634	1806.31
747.819	1910.75
748.003	1773.54
748.188	1751.01
748.373	1812.45
748.557	1824.74
748.742	1732.58
748.927	1802.21
749.111	1695.72
749.296	1712.1
749.481	1740.77
749.665	1689.57
749.85	1712.1
750.034	1748.97
750.219	1771.49
750.404	1703.91
750.588	1644.52
750.773	1544.17
750.957	1548.26
751.141	1650.66
751.326	1578.98
751.51	1613.8
751.695	1519.59
751.879	1595.37
752.064	1601.51
752.248	1621.99
752.432	1648.61
752.617	1497.07
752.801	1619.94
752.985	1431.53
753.17	1519.59
753.354	1538.02
753.538	1540.07
753.722	1513.45
753.907	1349.61
754.091	1384.43
754.275	1437.67
754.459	1310.7
754.643	1413.1
754.828	1445.87
755.012	1392.62
755.196	1421.29
755.38	1357.8
755.564	1355.76
755.748	1370.09
755.932	1370.09
756.116	1329.13
756.3	1376.23
756.484	1361.9
756.668	1345.52
756.852	1267.69
757.036	1251.31
757.22	1247.21
757.404	1259.5
757.588	1239.02
757.772	1325.04
757.956	1165.29
758.14	1349.61
758.323	1224.69
758.507	1290.22
758.691	1267.69
758.875	1228.78
759.059	1189.87
759.242	1155.05
759.426	1187.82
759.61	1116.14
759.794	1157.1
759.977	1114.09
760.161	1161.2
760.345	1161.2
760.528	1112.05
760.712	1140.72
760.895	1148.91
761.079	1042.42
761.263	1110
761.446	1058.8
761.63	1116.14
761.813	1046.51
761.997	1087.47
762.18	1054.7
762.364	1163.25
762.547	1099.76
762.731	1036.27
762.914	1036.27
763.098	1069.04
763.281	1132.53
763.464	1017.84
763.648	1036.27
763.831	1066.99
764.015	1081.33
764.198	1036.27
764.381	1019.89
764.564	1069.04
764.748	976.88
764.931	978.93
765.114	980.98
765.297	999.41
765.481	952.31
765.664	847.86
765.847	962.55
766.03	927.73
766.213	966.64
766.397	952.31
766.58	897.01
766.763	972.79
766.946	954.35
767.129	849.91
767.312	903.15
767.495	991.22
767.678	970.74
767.861	931.83
768.044	899.06
768.227	905.2
768.41	937.97
768.593	952.31
768.776	876.53
768.959	907.25
769.142	813.04
769.324	837.62
769.507	911.35
769.69	897.01
769.873	786.42
770.056	1003.5
770.239	919.54
770.421	835.57
770.604	882.67
770.787	899.06
770.97	872.43
771.152	804.85
771.335	841.72
771.518	821.24
771.7	841.72
771.883	813.04
772.066	845.81
772.248	825.33
772.431	843.76
772.613	833.52
772.796	862.19
772.978	825.33
773.161	788.47
773.343	739.32
773.526	780.28
773.708	739.32
773.891	753.65
774.073	780.28
774.256	720.88
774.438	786.42
774.621	733.17
774.803	778.23
774.985	718.84
775.168	749.56
775.35	800.76
775.532	688.12
775.715	702.45
775.897	702.45
776.079	745.46
776.261	657.4
776.444	688.12
776.626	727.03
776.808	624.63
776.99	686.07
777.173	598.01
777.355	591.86
777.537	638.97
777.719	735.22
777.901	583.67
778.083	634.87
778.265	669.69
778.447	677.88
778.629	667.64
778.811	573.43
778.993	573.43
779.175	653.3
779.357	575.48
779.539	638.97
779.721	598.01
779.903	544.76
780.085	546.81
780.267	557.05
780.449	620.53
780.631	602.1
780.812	657.4
780.994	612.34
781.176	595.96
781.358	569.34
781.54	557.05
781.721	595.96
781.903	559.1
782.085	540.66
782.267	552.95
782.448	606.2
782.63	493.56
782.812	495.61
782.993	497.66
783.175	489.46
783.357	464.89
783.538	524.28
783.72	364.54
783.901	501.75
784.083	446.46
784.264	475.13
784.446	471.03
784.627	548.86
784.809	514.04
784.99	497.66
785.172	511.99
785.353	368.63
785.535	460.79
785.716	430.07
785.897	417.79
786.079	493.56
786.26	432.12
786.441	569.34
786.623	301.05
786.804	454.65
786.985	464.89
787.167	446.46
787.348	450.55
787.529	458.74
787.71	538.62
787.891	432.12
788.073	448.51
788.254	395.26
788.435	425.98
788.616	339.96
788.797	366.59
788.978	462.84
789.159	354.3
789.34	360.44
789.522	352.25
789.703	331.77
789.884	419.83
790.065	401.4
790.246	301.05
790.427	415.74
790.607	438.27
790.788	399.35
790.969	305.15
791.15	333.82
791.331	362.49
791.512	303.1
791.693	307.2
791.874	313.34
792.054	368.63
792.235	423.93
792.416	346.11
792.597	315.39
792.778	413.69
792.958	387.07
793.139	282.62
793.32	350.2
793.5	272.38
793.681	405.5
793.862	360.44
794.042	309.24
794.223	294.91
794.404	253.95
794.584	256
794.765	366.59
794.945	325.63
795.126	335.87
795.306	354.3
795.487	288.76
795.667	282.62
795.848	280.57
796.028	237.56
796.209	376.83
796.389	321.53
796.57	339.96
796.75	274.43
796.93	315.39
797.111	266.24
797.291	342.01
797.471	325.63
797.652	309.24
797.832	319.48
798.012	258.04
798.192	268.28
798.373	286.72
798.553	219.13
798.733	278.52
798.913	290.81
799.093	221.18
799.274	200.7
799.454	276.48
799.634	221.18
799.814	276.48
799.994	260.09
800.174	188.41
800.354	301.05
800.534	280.57
800.714	264.19
800.894	217.08
801.074	192.51
801.254	258.04
801.434	268.28
801.614	333.82
801.794	192.51
801.974	647.16
802.154	241.66
802.334	303.1
802.514	190.46
802.693	270.33
802.873	251.9
803.053	229.37
803.233	258.04
803.413	215.04
803.592	194.56
803.772	180.22
803.952	151.55
804.131	188.41
804.311	180.22
804.491	264.19
804.67	198.65
804.85	280.57
805.03	196.6
805.209	262.14
805.389	163.84
805.568	221.18
805.748	227.32
805.928	219.13
806.107	172.03
806.287	169.98
806.466	231.42
806.646	229.37
806.825	155.65
807.004	153.6
807.184	239.61
807.363	200.7
807.543	219.13
807.722	206.84
807.901	217.08
808.081	141.31
808.26	260.09
808.439	172.03
808.619	247.8
808.798	196.6
808.977	131.07
809.156	231.42
809.336	116.73
809.515	180.22
809.694	188.41
809.873	159.74
810.052	174.08
810.231	223.23
810.411	165.89
810.59	159.74
810.769	186.37
810.948	227.32
811.127	155.65
811.306	96.25
811.485	167.93
811.664	235.52
811.843	155.65
812.022	149.5
812.201	169.98
812.38	212.99
812.559	151.55
812.737	131.07
812.916	126.97
813.095	116.73
813.274	129.02
813.453	176.13
813.632	159.74
813.811	155.65
813.989	131.07
814.168	208.89
814.347	196.6
814.526	167.93
814.704	225.28
814.883	206.84
815.062	77.82
815.24	196.6
815.419	155.65
815.598	184.32
815.776	137.21
815.955	143.36
816.133	86.01
816.312	202.75
816.49	145.41
816.669	157.69
816.847	124.93
817.026	102.4
817.204	190.46
817.383	145.41
817.561	114.69
817.74	176.13
817.918	174.08
818.097	184.32
818.275	126.97
818.453	135.17
818.632	90.11
818.81	110.59
818.988	96.25
819.167	129.02
819.345	116.73
819.523	182.27
819.701	86.01
819.879	157.69
820.058	96.25
820.236	112.64
820.414	116.73
820.592	143.36
820.77	49.15
820.948	116.73
821.127	139.26
821.305	133.12
821.483	108.54
821.661	102.4
821.839	124.93
822.017	51.2
822.195	88.06
822.373	137.21
822.551	43.01
822.729	61.44
822.907	69.63
823.085	116.73
823.262	131.07
823.44	102.4
823.618	86.01
823.796	65.53
823.974	137.21
824.152	133.12
824.329	59.39
824.507	90.11
824.685	126.97
824.863	59.39
825.04	120.83
825.218	108.54
825.396	49.15
825.574	100.35
825.751	133.12
825.929	38.91
826.107	94.21
826.284	88.06
826.462	137.21
826.639	40.96
826.817	104.45
826.994	77.82
827.172	-18.43
827.349	90.11
827.527	147.45
827.704	16.38
827.882	131.07
828.059	63.49
828.237	81.92
828.414	104.45
828.591	69.63
828.769	104.45
828.946	98.3
829.124	106.49
829.301	108.54
829.478	49.15
829.655	108.54
829.833	118.78
830.01	98.3
830.187	88.06
830.364	124.93
830.542	90.11
830.719	57.34
830.896	83.97
831.073	131.07
831.25	51.2
831.427	81.92
831.604	59.39
831.782	110.59
831.959	28.67
832.136	28.67
832.313	135.17
832.49	65.53
832.667	100.35
832.844	71.68
833.021	63.49
833.198	106.49
833.374	94.21
833.551	86.01
833.728	120.83
833.905	36.86
834.082	88.06
834.259	92.16
834.436	24.58
834.612	43.01
834.789	28.67
834.966	71.68
835.143	65.53
835.319	4.1
835.496	169.98
835.673	47.1
835.85	143.36
836.026	-4.1
836.203	90.11
836.38	108.54
836.556	65.53
836.733	118.78
836.909	145.41
837.086	14.34
837.262	67.58
837.439	26.62
837.616	129.02
837.792	57.34
837.968	114.69
838.145	98.3
838.321	120.83
838.498	36.86
838.674	53.25
838.851	73.73
839.027	22.53
839.203	108.54
839.38	71.68
839.556	69.63
839.732	57.34
839.909	24.58
840.085	71.68
840.261	14.34
840.437	135.17
840.614	6.14
840.79	147.45
840.966	24.58
841.142	112.64
841.318	38.91
841.494	83.97
841.671	106.49
841.847	83.97
842.023	79.87
842.199	92.16
842.375	102.4
842.551	55.3
842.727	12.29
842.903	122.88
843.079	36.86
843.255	71.68
843.431	-12.29
843.607	90.11
843.783	22.53
843.959	100.35
844.134	81.92
844.31	57.34
844.486	30.72
844.662	4.1
844.838	24.58
845.013	83.97
845.189	77.82
845.365	69.63
845.541	-12.29
845.716	114.69
845.892	38.91
846.068	34.82
846.244	47.1
846.419	8.19
846.595	47.1
846.77	38.91
846.946	28.67
847.122	-0
847.297	53.25
847.473	65.53
847.648	32.77
847.824	53.25
847.999	71.68
848.175	77.82
848.35	69.63
848.526	88.06
848.701	43.01
848.876	47.1
849.052	90.11
849.227	73.73
849.403	69.63
849.578	4.1
849.753	49.15
849.929	47.1
850.104	59.39
850.279	34.82
850.454	73.73
850.63	16.38
850.805	-8.19
850.98	43.01
851.155	2.05
851.33	102.4
851.505	34.82
851.681	81.92
851.856	4.1
852.031	32.77
852.206	12.29
852.381	30.72
852.556	90.11
852.731	92.16
852.906	106.49
853.081	47.1
853.256	149.5
853.431	34.82
853.606	79.87
853.781	90.11
853.956	2.05
854.131	28.67
854.305	-8.19
854.48	57.34
854.655	6.14
854.83	51.2
855.005	-6.14
855.18	40.96
855.354	-0
855.529	22.53
855.704	-0
855.879	10.24
856.053	-26.62
856.228	20.48
856.403	45.06
856.577	59.39
856.752	16.38
856.926	30.72
857.101	73.73
857.276	59.39
857.45	120.83
857.625	24.58
857.799	51.2
857.974	24.58
858.148	-40.96
858.323	71.68
858.497	-12.29
858.672	22.53
858.846	12.29
859.02	-22.53
859.195	20.48
859.369	98.3
859.543	18.43
859.718	45.06
859.892	-0
860.066	-24.58
860.241	34.82
860.415	126.97
860.589	18.43
860.763	28.67
860.938	34.82
861.112	26.62
861.286	26.62
861.46	-43.01
861.634	65.53
861.808	88.06
861.982	65.53
862.157	26.62
862.331	14.34
862.505	4.1
862.679	-36.86
862.853	75.77
863.027	28.67
863.201	57.34
863.375	26.62
863.549	86.01
863.722	28.67
863.896	12.29
864.07	-14.34
864.244	38.91
864.418	94.21
864.592	77.82
864.766	28.67
864.939	14.34
865.113	6.14
865.287	24.58
865.461	34.82
865.634	65.53
865.808	8.19
865.982	-34.82
866.156	-2.05
866.329	16.38
866.503	12.29
866.676	63.49
866.85	26.62
867.024	4.1
867.197	8.19
867.371	116.73
867.544	59.39
867.718	47.1
867.891	59.39
868.065	47.1
868.238	38.91
868.412	-4.1
868.585	12.29
868.759	24.58
868.932	55.3
869.105	-20.48
869.279	-24.58
869.452	-2.05
869.625	43.01
869.799	-16.38
869.972	14.34
870.145	45.06
870.319	-8.19
870.492	-0
870.665	-28.67
870.838	43.01
871.011	-4.1
871.185	8.19
871.358	-73.73
871.531	43.01
871.704	32.77
871.877	98.3
872.05	32.77
872.223	38.91
872.396	-0
872.569	71.68
872.742	-12.29
872.915	-16.38
873.088	-4.1
873.261	-53.25
873.434	30.72
873.607	12.29
873.78	49.15
873.953	-26.62
874.126	61.44
874.299	40.96
874.471	-40.96
874.644	-18.43
874.817	55.3
874.99	16.38
875.163	28.67
875.335	32.77
875.508	63.49
875.681	57.34
875.853	32.77
876.026	67.58
876.199	63.49
876.371	16.38
876.544	67.58
876.717	40.96
876.889	-2.05
877.062	55.3
877.234	-12.29
877.407	10.24
877.579	34.82
877.752	32.77
877.924	104.45
878.097	14.34
878.269	8.19
878.442	-18.43
878.614	16.38
878.786	-22.53
878.959	30.72
879.131	28.67
879.303	-86.01
879.476	36.86
879.648	12.29
879.82	6.14
879.993	16.38
880.165	63.49
880.337	-34.82
880.509	-28.67
880.681	-71.68
880.854	36.86
881.026	14.34
881.198	-8.19
881.37	10.24
881.542	40.96
881.714	20.48
881.886	6.14
882.058	-4.1
882.23	57.34
882.402	-0
882.574	4.1
882.746	-8.19
882.918	34.82
883.09	16.38
883.262	-28.67
883.434	61.44
883.606	12.29
883.778	-12.29
883.95	61.44
884.122	40.96
884.293	34.82
884.465	-43.01
884.637	61.44
884.809	-57.34
884.98	53.25
885.152	122.88
885.324	57.34
885.496	6.14
885.667	12.29
885.839	-61.44
886.011	79.87
886.182	16.38
886.354	86.01
886.525	-4.1
886.697	53.25
886.869	32.77
887.04	57.34
887.212	24.58
887.383	129.02
887.555	2.05
887.726	-77.82
887.897	57.34
888.069	14.34
888.24	81.92
888.412	36.86
888.583	-30.72
888.754	-24.58
888.926	-49.15
889.097	-18.43
889.268	-43.01
889.44	51.2
889.611	79.87
889.782	14.34
889.953	38.91
890.125	26.62
890.296	-18.43
890.467	34.82
890.638	-43.01
890.809	-71.68
890.98	-22.53
891.151	-4.1
891.323	34.82
891.494	34.82
891.665	57.34
891.836	73.73
892.007	-10.24
892.178	43.01
892.349	-6.14
892.52	-34.82
892.691	-14.34
892.862	-34.82
893.032	-20.48
893.203	-20.48
893.374	32.77
893.545	-14.34
893.716	24.58
893.887	69.63
894.057	75.77
894.228	28.67
894.399	-30.72
894.57	43.01
894.74	-0
894.911	-61.44
895.082	-59.39
895.253	40.96
895.423	16.38
895.594	-32.77
895.764	55.3
895.935	24.58
896.106	-0
896.276	-10.24
896.447	30.72
896.617	86.01
896.788	30.72
896.958	-0
897.129	20.48
897.299	-38.91
897.47	-12.29
897.64	-28.67
897.81	4.1
897.981	-6.14
898.151	10.24
898.322	28.67
898.492	63.49
898.662	24.58
898.832	-10.24
899.003	34.82
899.173	36.86
899.343	40.96
899.513	-26.62
