Data from USB4F104151__58__12-01-45-209.txt Node

Date: Fri Mar 14 12:01:45 EDT 2025
User: louis
Spectrometer: USB4F10415
Trigger mode: 4
Integration Time (sec): 2.000000E-2
Scans to average: 1
Electric dark correction enabled: true
Nonlinearity correction enabled: false
Boxcar width: 0
XAxis mode: Wavelengths
Number of Pixels in Spectrum: 3648
>>>>>Begin Spectral Data<<<<<
178.204	-69.12
178.424	-69.12
178.644	-69.12
178.864	-9.73
179.084	-136.7
179.304	20.99
179.524	-15.87
179.744	20.99
179.964	41.47
180.184	-26.11
180.404	-13.82
180.624	23.04
180.844	-48.64
181.064	-17.92
181.283	20.99
181.503	18.94
181.723	-24.06
181.943	6.66
182.163	0.51
182.383	41.47
182.602	109.05
182.822	49.66
183.042	86.53
183.262	2.56
183.482	51.71
183.701	-50.69
183.921	12.8
184.141	-56.83
184.361	53.76
184.58	20.99
184.8	-19.97
185.02	64
185.239	94.72
185.459	-5.63
185.679	10.75
185.898	6.66
186.118	4.61
186.338	98.81
186.557	-13.82
186.777	-54.78
186.997	18.94
187.216	14.85
187.436	-19.97
187.655	72.19
187.875	35.33
188.095	0.51
188.314	27.14
188.534	80.38
188.753	-46.59
188.973	76.29
189.192	78.33
189.412	61.95
189.631	43.52
189.851	-1.54
190.07	2.56
190.29	39.42
190.509	20.99
190.729	25.09
190.948	35.33
191.168	53.76
191.387	41.47
191.607	-62.98
191.826	37.38
192.045	16.9
192.265	53.76
192.484	2.56
192.704	16.9
192.923	31.23
193.142	61.95
193.362	4.61
193.581	27.14
193.8	25.09
194.02	66.05
194.239	80.38
194.458	94.72
194.678	20.99
194.897	29.18
195.116	80.38
195.335	-15.87
195.555	31.23
195.774	76.29
195.993	92.67
196.212	-30.21
196.432	53.76
196.651	14.85
196.87	66.05
197.089	129.53
197.308	88.57
197.528	115.2
197.747	-38.4
197.966	-22.02
198.185	33.28
198.404	43.52
198.623	27.14
198.842	66.05
199.062	76.29
199.281	96.77
199.5	96.77
199.719	27.14
199.938	66.05
200.157	27.14
200.376	18.94
200.595	86.53
200.814	43.52
201.033	133.63
201.252	59.9
201.471	-46.59
201.69	51.71
201.909	-24.06
202.128	55.81
202.347	64
202.566	-3.58
202.785	45.57
203.004	-5.63
203.223	100.86
203.442	76.29
203.661	-91.65
203.879	43.52
204.098	27.14
204.317	-3.58
204.536	41.47
204.755	51.71
204.974	76.29
205.193	39.42
205.411	104.96
205.63	104.96
205.849	55.81
206.068	14.85
206.287	61.95
206.505	55.81
206.724	64
206.943	-3.58
207.162	-24.06
207.381	41.47
207.599	37.38
207.818	68.09
208.037	-5.63
208.255	20.99
208.474	6.66
208.693	76.29
208.911	12.8
209.13	35.33
209.349	37.38
209.567	23.04
209.786	33.28
210.005	20.99
210.223	37.38
210.442	16.9
210.661	55.81
210.879	18.94
211.098	-22.02
211.316	16.9
211.535	68.09
211.753	12.8
211.972	25.09
212.191	49.66
212.409	49.66
212.628	64
212.846	-1.54
213.065	70.14
213.283	16.9
213.502	-9.73
213.72	57.86
213.938	51.71
214.157	25.09
214.375	14.85
214.594	31.23
214.812	64
215.031	41.47
215.249	4.61
215.467	55.81
215.686	74.24
215.904	70.14
216.122	8.7
216.341	35.33
216.559	37.38
216.778	-1.54
216.996	72.19
217.214	20.99
217.432	-5.63
217.651	16.9
217.869	27.14
218.087	72.19
218.306	-13.82
218.524	33.28
218.742	-28.16
218.96	31.23
219.179	2.56
219.397	29.18
219.615	6.66
219.833	61.95
220.051	-13.82
220.27	109.05
220.488	-1.54
220.706	41.47
220.924	10.75
221.142	-36.35
221.36	-30.21
221.578	35.33
221.796	39.42
222.015	4.61
222.233	107.01
222.451	45.57
222.669	0.51
222.887	55.81
223.105	43.52
223.323	43.52
223.541	82.43
223.759	45.57
223.977	10.75
224.195	51.71
224.413	72.19
224.631	41.47
224.849	-24.06
225.067	57.86
225.285	51.71
225.503	45.57
225.721	-81.41
225.939	41.47
226.157	20.99
226.375	55.81
226.592	41.47
226.81	6.66
227.028	51.71
227.246	143.87
227.464	39.42
227.682	76.29
227.9	35.33
228.117	53.76
228.335	-50.69
228.553	94.72
228.771	-3.58
228.989	57.86
229.206	68.09
229.424	33.28
229.642	-13.82
229.86	-3.58
230.077	64
230.295	53.76
230.513	64
230.731	49.66
230.948	82.43
231.166	0.51
231.384	16.9
231.601	119.29
231.819	-1.54
232.037	125.44
232.254	-48.64
232.472	59.9
232.689	23.04
232.907	39.42
233.125	-40.45
233.342	-9.73
233.56	72.19
233.777	-13.82
233.995	47.62
234.213	113.15
234.43	-1.54
234.648	47.62
234.865	-46.59
235.083	23.04
235.3	29.18
235.518	25.09
235.735	82.43
235.953	113.15
236.17	51.71
236.388	66.05
236.605	76.29
236.822	18.94
237.04	-24.06
237.257	104.96
237.475	96.77
237.692	47.62
237.909	55.81
238.127	90.62
238.344	43.52
238.562	31.23
238.779	-75.26
238.996	-9.73
239.214	41.47
239.431	49.66
239.648	-65.02
239.865	49.66
240.083	92.67
240.3	43.52
240.517	-24.06
240.735	31.23
240.952	59.9
241.169	76.29
241.386	27.14
241.603	10.75
241.821	27.14
242.038	104.96
242.255	51.71
242.472	-91.65
242.689	78.33
242.907	43.52
243.124	76.29
243.341	-15.87
243.558	12.8
243.775	0.51
243.992	45.57
244.209	31.23
244.426	76.29
244.643	47.62
244.86	70.14
245.078	16.9
245.295	-15.87
245.512	10.75
245.729	-5.63
245.946	86.53
246.163	2.56
246.38	-44.54
246.597	-24.06
246.814	2.56
247.031	100.86
247.248	-1.54
247.464	66.05
247.681	6.66
247.898	55.81
248.115	33.28
248.332	-44.54
248.549	35.33
248.766	61.95
248.983	113.15
249.2	-36.35
249.417	-15.87
249.633	23.04
249.85	64
250.067	-5.63
250.284	12.8
250.501	20.99
250.717	35.33
250.934	14.85
251.151	35.33
251.368	12.8
251.585	49.66
251.801	20.99
252.018	0.51
252.235	10.75
252.451	53.76
252.668	68.09
252.885	80.38
253.102	16.9
253.318	-32.26
253.535	18.94
253.752	-15.87
253.968	-9.73
254.185	64
254.401	16.9
254.618	-9.73
254.835	35.33
255.051	76.29
255.268	51.71
255.484	29.18
255.701	41.47
255.917	29.18
256.134	-5.63
256.351	49.66
256.567	43.52
256.784	-44.54
257	64
257.217	84.48
257.433	53.76
257.65	55.81
257.866	41.47
258.082	47.62
258.299	-15.87
258.515	59.9
258.732	51.71
258.948	14.85
259.165	51.71
259.381	23.04
259.597	18.94
259.814	-38.4
260.03	33.28
260.246	27.14
260.463	33.28
260.679	-19.97
260.895	68.09
261.112	76.29
261.328	51.71
261.544	-1.54
261.761	92.67
261.977	55.81
262.193	25.09
262.409	27.14
262.626	0.51
262.842	37.38
263.058	-3.58
263.274	70.14
263.49	-1.54
263.707	57.86
263.923	12.8
264.139	47.62
264.355	-40.45
264.571	59.9
264.787	-46.59
265.004	66.05
265.22	29.18
265.436	61.95
265.652	39.42
265.868	125.44
266.084	14.85
266.3	47.62
266.516	78.33
266.732	53.76
266.948	-24.06
267.164	-34.3
267.38	96.77
267.596	72.19
267.812	86.53
268.028	35.33
268.244	4.61
268.46	18.94
268.676	-22.02
268.892	49.66
269.108	31.23
269.324	47.62
269.54	-32.26
269.756	72.19
269.972	55.81
270.188	0.51
270.403	8.7
270.619	45.57
270.835	-3.58
271.051	-5.63
271.267	59.9
271.483	-11.78
271.698	82.43
271.914	94.72
272.13	23.04
272.346	70.14
272.562	33.28
272.777	94.72
272.993	-40.45
273.209	29.18
273.425	96.77
273.64	68.09
273.856	49.66
274.072	94.72
274.287	82.43
274.503	23.04
274.719	74.24
274.934	14.85
275.15	-58.88
275.366	70.14
275.581	29.18
275.797	51.71
276.012	20.99
276.228	29.18
276.444	80.38
276.659	49.66
276.875	51.71
277.09	-15.87
277.306	-32.26
277.521	92.67
277.737	0.51
277.952	-26.11
278.168	41.47
278.383	25.09
278.599	18.94
278.814	53.76
279.03	35.33
279.245	88.57
279.461	39.42
279.676	57.86
279.892	41.47
280.107	45.57
280.322	-24.06
280.538	18.94
280.753	10.75
280.969	57.86
281.184	43.52
281.399	74.24
281.615	66.05
281.83	84.48
282.045	-50.69
282.26	47.62
282.476	78.33
282.691	12.8
282.906	4.61
283.122	64
283.337	16.9
283.552	66.05
283.767	53.76
283.983	20.99
284.198	2.56
284.413	84.48
284.628	39.42
284.843	90.62
285.058	57.86
285.274	35.33
285.489	68.09
285.704	119.29
285.919	55.81
286.134	43.52
286.349	70.14
286.564	37.38
286.779	20.99
286.995	39.42
287.21	70.14
287.425	41.47
287.64	31.23
287.855	-1.54
288.07	23.04
288.285	14.85
288.5	80.38
288.715	90.62
288.93	25.09
289.145	78.33
289.36	23.04
289.575	23.04
289.79	61.95
290.004	4.61
290.219	51.71
290.434	55.81
290.649	104.96
290.864	45.57
291.079	16.9
291.294	64
291.509	86.53
291.724	90.62
291.938	-38.4
292.153	64
292.368	4.61
292.583	49.66
292.798	49.66
293.012	55.81
293.227	37.38
293.442	41.47
293.657	20.99
293.871	59.9
294.086	74.24
294.301	111.1
294.516	8.7
294.73	-13.82
294.945	25.09
295.16	47.62
295.374	82.43
295.589	96.77
295.804	6.66
296.018	29.18
296.233	51.71
296.447	39.42
296.662	57.86
296.877	57.86
297.091	-3.58
297.306	102.91
297.52	23.04
297.735	-7.68
297.949	23.04
298.164	107.01
298.378	-9.73
298.593	-1.54
298.807	0.51
299.022	88.57
299.236	102.91
299.451	20.99
299.665	53.76
299.88	109.05
300.094	-11.78
300.309	10.75
300.523	16.9
300.737	59.9
300.952	51.71
301.166	94.72
301.381	-52.74
301.595	80.38
301.809	6.66
302.024	39.42
302.238	51.71
302.452	35.33
302.667	-24.06
302.881	2.56
303.095	-40.45
303.309	90.62
303.524	43.52
303.738	66.05
303.952	-34.3
304.166	16.9
304.381	-19.97
304.595	96.77
304.809	12.8
305.023	47.62
305.237	39.42
305.452	27.14
305.666	111.1
305.88	27.14
306.094	51.71
306.308	80.38
306.522	55.81
306.736	84.48
306.95	23.04
307.164	45.57
307.379	104.96
307.593	80.38
307.807	33.28
308.021	25.09
308.235	59.9
308.449	57.86
308.663	27.14
308.877	115.2
309.091	14.85
309.305	39.42
309.519	-67.07
309.733	-11.78
309.947	12.8
310.161	47.62
310.374	45.57
310.588	-1.54
310.802	31.23
311.016	86.53
311.23	39.42
311.444	68.09
311.658	78.33
311.872	115.2
312.085	102.91
312.299	111.1
312.513	49.66
312.727	23.04
312.941	14.85
313.154	68.09
313.368	27.14
313.582	29.18
313.796	-26.11
314.009	-1.54
314.223	0.51
314.437	125.44
314.651	-17.92
314.864	92.67
315.078	10.75
315.292	2.56
315.505	25.09
315.719	70.14
315.933	49.66
316.146	49.66
316.36	33.28
316.573	57.86
316.787	35.33
317.001	72.19
317.214	-15.87
317.428	64
317.641	-36.35
317.855	2.56
318.068	31.23
318.282	41.47
318.495	0.51
318.709	-1.54
318.922	66.05
319.136	59.9
319.349	23.04
319.563	94.72
319.776	66.05
319.99	55.81
320.203	18.94
320.417	31.23
320.63	18.94
320.843	135.68
321.057	-3.58
321.27	57.86
321.483	35.33
321.697	39.42
321.91	39.42
322.124	49.66
322.337	70.14
322.55	16.9
322.763	-38.4
322.977	41.47
323.19	27.14
323.403	74.24
323.617	20.99
323.83	35.33
324.043	16.9
324.256	107.01
324.469	68.09
324.683	100.86
324.896	31.23
325.109	-19.97
325.322	53.76
325.535	45.57
325.748	31.23
325.962	47.62
326.175	82.43
326.388	78.33
326.601	51.71
326.814	33.28
327.027	47.62
327.24	76.29
327.453	-22.02
327.666	10.75
327.879	-40.45
328.092	76.29
328.305	45.57
328.518	25.09
328.731	37.38
328.944	74.24
329.157	117.25
329.37	-17.92
329.583	86.53
329.796	76.29
330.009	18.94
330.222	61.95
330.435	96.77
330.648	55.81
330.861	57.86
331.073	64
331.286	86.53
331.499	84.48
331.712	43.52
331.925	41.47
332.138	59.9
332.35	49.66
332.563	-24.06
332.776	139.77
332.989	-46.59
333.202	20.99
333.414	41.47
333.627	45.57
333.84	-30.21
334.053	-22.02
334.265	43.52
334.478	45.57
334.691	66.05
334.903	-13.82
335.116	76.29
335.329	51.71
335.541	76.29
335.754	84.48
335.966	29.18
336.179	82.43
336.392	-1.54
336.604	113.15
336.817	35.33
337.029	80.38
337.242	78.33
337.454	39.42
337.667	-7.68
337.88	16.9
338.092	2.56
338.305	55.81
338.517	-1.54
338.729	72.19
338.942	23.04
339.154	18.94
339.367	35.33
339.579	37.38
339.792	25.09
340.004	39.42
340.217	-13.82
340.429	86.53
340.641	49.66
340.854	25.09
341.066	47.62
341.278	43.52
341.491	72.19
341.703	66.05
341.915	20.99
342.128	45.57
342.34	72.19
342.552	43.52
342.764	66.05
342.977	133.63
343.189	82.43
343.401	-7.68
343.613	4.61
343.826	25.09
344.038	-5.63
344.25	12.8
344.462	68.09
344.674	39.42
344.886	23.04
345.099	51.71
345.311	-48.64
345.523	-19.97
345.735	6.66
345.947	-32.26
346.159	64
346.371	104.96
346.583	90.62
346.795	82.43
347.007	35.33
347.219	61.95
347.431	-5.63
347.643	98.81
347.855	76.29
348.067	102.91
348.279	51.71
348.491	2.56
348.703	39.42
348.915	100.86
349.127	35.33
349.339	39.42
349.551	29.18
349.763	37.38
349.975	-32.26
350.187	33.28
350.399	76.29
350.61	84.48
350.822	31.23
351.034	57.86
351.246	47.62
351.458	12.8
351.669	70.14
351.881	23.04
352.093	98.81
352.305	72.19
352.517	20.99
352.728	31.23
352.94	123.39
353.152	41.47
353.363	12.8
353.575	14.85
353.787	86.53
353.999	49.66
354.21	70.14
354.422	-17.92
354.633	16.9
354.845	70.14
355.057	35.33
355.268	-5.63
355.48	51.71
355.692	14.85
355.903	88.57
356.115	45.57
356.326	-5.63
356.538	53.76
356.749	8.7
356.961	64
357.172	127.49
357.384	-1.54
357.595	78.33
357.807	74.24
358.018	20.99
358.23	31.23
358.441	162.3
358.653	31.23
358.864	25.09
359.075	14.85
359.287	41.47
359.498	20.99
359.709	72.19
359.921	98.81
360.132	33.28
360.344	27.14
360.555	39.42
360.766	127.49
360.977	8.7
361.189	80.38
361.4	33.28
361.611	33.28
361.823	55.81
362.034	80.38
362.245	23.04
362.456	31.23
362.667	64
362.879	64
363.09	88.57
363.301	113.15
363.512	12.8
363.723	51.71
363.935	76.29
364.146	82.43
364.357	0.51
364.568	166.4
364.779	104.96
364.99	100.86
365.201	37.38
365.412	51.71
365.623	61.95
365.834	61.95
366.045	80.38
366.256	117.25
366.467	72.19
366.678	-44.54
366.889	-1.54
367.1	25.09
367.311	72.19
367.522	14.85
367.733	12.8
367.944	-11.78
368.155	45.57
368.366	64
368.577	100.86
368.788	23.04
368.999	33.28
369.209	98.81
369.42	205.31
369.631	94.72
369.842	64
370.053	72.19
370.264	82.43
370.474	39.42
370.685	39.42
370.896	59.9
371.107	57.86
371.317	59.9
371.528	47.62
371.739	14.85
371.95	70.14
372.16	31.23
372.371	-11.78
372.582	59.9
372.792	111.1
373.003	88.57
373.214	74.24
373.424	59.9
373.635	39.42
373.846	88.57
374.056	80.38
374.267	90.62
374.477	74.24
374.688	47.62
374.898	25.09
375.109	33.28
375.319	119.29
375.53	47.62
375.74	27.14
375.951	37.38
376.161	84.48
376.372	47.62
376.582	27.14
376.793	51.71
377.003	25.09
377.214	57.86
377.424	25.09
377.635	88.57
377.845	102.91
378.055	-36.35
378.266	104.96
378.476	12.8
378.686	45.57
378.897	59.9
379.107	74.24
379.317	70.14
379.528	64
379.738	76.29
379.948	61.95
380.158	98.81
380.369	25.09
380.579	33.28
380.789	47.62
380.999	82.43
381.21	55.81
381.42	72.19
381.63	96.77
381.84	33.28
382.05	121.34
382.261	92.67
382.471	35.33
382.681	78.33
382.891	74.24
383.101	121.34
383.311	88.57
383.521	47.62
383.731	109.05
383.941	82.43
384.151	68.09
384.361	94.72
384.571	49.66
384.781	88.57
384.991	123.39
385.201	90.62
385.411	-26.11
385.621	119.29
385.831	43.52
386.041	102.91
386.251	53.76
386.461	125.44
386.671	35.33
386.881	4.61
387.091	51.71
387.301	84.48
387.511	-22.02
387.72	18.94
387.93	10.75
388.14	41.47
388.35	72.19
388.56	45.57
388.769	66.05
388.979	88.57
389.189	57.86
389.399	0.51
389.609	96.77
389.818	104.96
390.028	78.33
390.238	152.06
390.447	35.33
390.657	72.19
390.867	14.85
391.076	66.05
391.286	49.66
391.496	102.91
391.705	8.7
391.915	156.16
392.125	43.52
392.334	59.9
392.544	121.34
392.753	123.39
392.963	88.57
393.172	64
393.382	86.53
393.591	96.77
393.801	20.99
394.01	115.2
394.22	143.87
394.429	66.05
394.639	119.29
394.848	70.14
395.058	70.14
395.267	47.62
395.477	66.05
395.686	184.83
395.895	53.76
396.105	176.64
396.314	104.96
396.524	96.77
396.733	72.19
396.942	147.97
397.152	152.06
397.361	147.97
397.57	-7.68
397.78	143.87
397.989	139.77
398.198	186.88
398.407	76.29
398.617	139.77
398.826	68.09
399.035	-1.54
399.244	129.53
399.453	68.09
399.663	47.62
399.872	162.3
400.081	47.62
400.29	94.72
400.499	145.92
400.708	111.1
400.917	70.14
401.127	152.06
401.336	88.57
401.545	186.88
401.754	143.87
401.963	184.83
402.172	123.39
402.381	121.34
402.59	109.05
402.799	96.77
403.008	174.59
403.217	96.77
403.426	168.45
403.635	107.01
403.844	123.39
404.053	121.34
404.262	164.35
404.471	225.79
404.68	84.48
404.888	193.02
405.097	156.16
405.306	113.15
405.515	158.21
405.724	184.83
405.933	197.12
406.142	193.02
406.35	166.4
406.559	154.11
406.768	242.17
406.977	248.32
407.185	184.83
407.394	139.77
407.603	197.12
407.812	233.98
408.02	174.59
408.229	207.36
408.438	231.93
408.646	266.75
408.855	262.65
409.064	266.75
409.272	322.04
409.481	264.7
409.69	309.76
409.898	211.45
410.107	266.75
410.315	242.17
410.524	315.9
410.733	315.9
410.941	272.89
411.15	414.2
411.358	332.28
411.567	410.11
411.775	387.58
411.984	385.53
412.192	371.19
412.401	420.35
412.609	434.68
412.818	481.78
413.026	471.54
413.234	510.46
413.443	401.91
413.651	557.56
413.86	494.07
414.068	588.28
414.276	608.76
414.485	612.85
414.693	600.57
414.901	715.25
415.11	680.44
415.318	649.72
415.526	680.44
415.734	731.64
415.943	809.46
416.151	788.98
416.359	758.26
416.567	942.58
416.776	924.15
416.984	948.72
417.192	1077.74
417.4	1069.55
417.608	1059.31
417.817	1102.32
418.025	1104.37
418.233	1214.96
418.441	1145.33
418.649	1139.18
418.857	1286.64
419.065	1323.5
419.273	1358.32
419.481	1376.75
419.689	1456.62
419.897	1421.8
420.105	1554.92
420.313	1509.86
420.521	1636.84
420.729	1706.47
420.937	1685.99
421.145	1700.33
421.353	1694.18
421.561	1964.51
421.769	1976.8
421.977	2066.91
422.185	2032.1
422.393	2161.12
422.601	2210.27
422.809	2263.52
423.017	2347.48
423.224	2472.41
423.432	2460.12
423.64	2427.35
423.848	2773.46
424.056	2742.74
424.263	2869.72
424.471	2714.07
424.679	2896.34
424.887	3135.95
425.094	3271.12
425.302	3166.67
425.51	3230.16
425.718	3541.45
425.925	3437
426.133	3541.45
426.341	3729.86
426.548	3877.32
426.756	4063.68
426.964	4043.2
427.171	4184.51
427.379	4221.38
427.586	4475.32
427.794	4501.95
428.001	4796.85
428.209	5020.08
428.417	4878.77
428.624	5353.9
428.832	5202.35
429.039	5226.93
429.247	5134.77
429.454	5720.49
429.662	5992.87
429.869	5560.75
430.076	6146.47
430.284	5882.28
430.491	6046.12
430.699	6756.76
430.906	6523.29
431.114	6773.14
431.321	6810.01
431.528	7102.87
431.736	7522.7
431.943	7745.93
432.15	7678.35
432.358	7549.32
432.565	8104.32
432.772	8067.46
432.979	8481.15
433.187	8597.88
433.394	8685.95
433.601	9226.61
433.808	9402.74
434.016	9177.46
434.223	9693.55
434.43	10340.71
434.637	10008.94
434.844	10621.28
435.052	10692.96
435.259	10547.55
435.466	10584.41
435.673	10623.33
435.88	11643.21
436.087	12282.18
436.294	12130.63
436.501	11845.96
436.708	11960.65
436.915	12429.63
437.122	13048.12
437.329	12888.38
437.537	13386.04
437.743	13459.76
437.95	13508.91
438.157	14037.29
438.364	14784.8
438.571	14686.5
438.778	14686.5
438.985	16156.94
439.192	15538.45
439.399	15851.79
439.606	15642.9
439.813	16433.41
440.02	17539.32
440.227	16892.16
440.433	17293.56
440.64	17656.05
440.847	17565.94
441.054	18032.88
441.261	19275.99
441.467	18796.77
441.674	19036.38
441.881	19992.78
442.088	19937.49
442.294	19929.3
442.501	20465.86
442.708	20721.86
442.914	21561.53
443.121	22401.19
443.328	21612.73
443.534	23580.82
443.741	22640.81
443.948	22671.53
444.154	24344.72
444.361	23744.66
444.568	24135.82
444.774	23998.61
444.981	24377.48
445.187	25241.73
445.394	26300.53
445.6	25952.37
445.807	28360.78
446.013	27086.95
446.22	27852.89
446.426	28723.27
446.633	28801.1
446.839	29902.9
447.046	28995.65
447.252	30402.61
447.459	30521.39
447.665	29954.1
447.871	31719.45
448.078	33001.48
448.284	31565.85
448.491	31918.1
448.697	33501.18
448.903	33976.31
449.11	33882.11
449.316	33415.17
449.522	34246.65
449.728	35096.55
449.935	34899.95
450.141	35416.04
450.347	36032.47
450.553	34803.69
450.76	35327.97
450.966	36364.25
451.172	35866.59
451.378	37003.21
451.584	36227.03
451.791	37195.72
451.997	36949.96
452.203	37717.95
452.409	37773.25
452.615	37449.67
452.821	36212.7
453.027	35950.56
453.233	37625.79
453.44	35880.92
453.646	36290.52
453.852	36517.84
454.058	36827.09
454.264	35833.82
454.47	36851.66
454.676	35954.65
454.882	36937.68
455.088	33839.1
455.294	34156.53
455.5	34910.19
455.705	35114.98
455.911	33673.21
456.117	33015.82
456.323	32753.68
456.529	31172.64
456.735	32358.42
456.941	31371.3
457.147	30591.02
457.352	30011.45
457.558	29505.6
457.764	29438.01
457.97	29022.28
458.176	28385.36
458.381	28151.89
458.587	27252.83
458.793	27140.19
458.999	25620.6
459.204	27443.29
459.41	26902.63
459.616	24778.89
459.821	24762.5
460.027	24623.24
460.233	24207.5
460.438	23220.38
460.644	23373.98
460.85	22423.72
461.055	21659.83
461.261	22055.09
461.466	20316.36
461.672	19654.87
461.878	21012.67
462.083	19495.13
462.289	18991.33
462.494	18931.94
462.7	18110.7
462.905	17948.91
463.111	18374.89
463.316	18669.8
463.522	17936.62
463.727	18362.6
463.932	17631.47
464.138	17762.54
464.343	17766.64
464.549	17185.02
464.754	17979.63
464.959	17946.86
465.165	17588.47
465.37	16978.17
465.575	16515.33
465.781	17350.9
465.986	17258.74
466.191	16445.7
466.397	16361.73
466.602	15589.65
466.807	16161.03
467.012	16128.27
467.218	15913.23
467.423	15857.93
467.628	16122.12
467.833	16531.72
468.038	15913.23
468.244	15636.75
468.449	15956.24
468.654	15661.33
468.859	15278.36
469.064	15477.01
469.269	14825.76
469.474	15079.71
469.679	15384.85
469.885	14573.86
470.09	14905.63
470.295	14709.02
470.5	14688.54
470.705	14623.01
470.91	14240.04
471.115	14289.19
471.32	14391.59
471.525	14256.42
471.73	14006.57
471.935	13658.42
472.139	13562.16
472.344	13650.22
472.549	13412.66
472.754	13259.06
472.959	13013.31
473.164	12620.1
473.369	12517.7
473.574	13211.96
473.778	12783.93
473.983	12728.64
474.188	12929.34
474.393	12269.89
474.598	12069.19
474.802	12155.21
475.007	12132.68
475.212	12317
475.417	11389.27
475.621	11647.31
475.826	11684.17
476.031	11407.7
476.235	11135.32
476.44	11299.16
476.645	11172.18
476.849	11198.81
477.054	10848.6
477.259	10862.94
477.463	10670.43
477.668	10662.24
477.872	10631.52
478.077	10426.72
478.282	10271.08
478.486	10183.01
478.691	10369.38
478.895	10086.76
479.1	10029.41
479.304	10097
479.509	9711.98
479.713	9912.68
479.918	9671.02
480.122	9742.7
480.326	9830.76
480.531	9550.19
480.735	9498.99
480.94	9498.99
481.144	9625.97
481.348	9257.33
481.553	9580.91
481.757	9242.99
481.961	9378.16
482.166	9705.84
482.37	9169.27
482.574	9177.46
482.778	9263.47
482.983	9234.8
483.187	9501.04
483.391	9351.54
483.595	9267.57
483.8	9306.48
484.004	9318.77
484.208	9447.79
484.412	9374.06
484.616	9238.9
484.821	9183.6
485.025	9230.71
485.229	9361.78
485.433	9144.69
485.637	9253.23
485.841	9095.54
486.045	9165.17
486.249	9322.87
486.453	9124.21
486.657	9189.75
486.861	9429.36
487.065	9177.46
487.269	9212.28
487.473	9038.2
487.677	9306.48
487.881	9462.13
488.085	9359.73
488.289	9220.47
488.493	9197.94
488.697	9193.84
488.901	9355.63
489.105	9435.5
489.309	9644.4
489.512	9318.77
489.716	9275.76
489.92	9322.87
490.124	9421.17
490.328	9441.65
490.531	9230.71
490.735	9521.52
490.939	9449.84
491.143	9599.34
491.346	9390.45
491.55	9804.14
491.754	9722.22
491.958	9734.51
492.161	9886.06
492.365	9720.17
492.569	9732.46
492.772	9789.8
492.976	9673.07
493.18	9673.07
493.383	10168.68
493.587	10058.09
493.79	10037.61
493.994	10033.51
494.197	10140.01
494.401	10266.98
494.605	10258.79
494.808	10383.71
495.012	10469.73
495.215	10350.95
495.419	10434.91
495.622	10535.26
495.825	10684.76
496.029	10828.12
496.232	10996.06
496.436	10877.27
496.639	11188.57
496.843	10930.52
497.046	11321.68
497.249	11290.96
497.453	11436.37
497.656	11555.15
497.859	11503.95
498.063	11524.43
498.266	12101.96
498.469	11915.59
498.673	11802.96
498.876	12071.24
499.079	12134.73
499.282	12347.72
499.485	12378.44
499.689	12607.81
499.892	12659.01
500.095	12886.33
500.298	13148.47
500.501	13058.36
500.705	13154.62
500.908	13506.87
501.111	13648.18
501.314	13623.6
501.517	13885.74
501.72	14100.78
501.923	14350.63
502.126	14381.35
502.329	14571.81
502.532	14434.6
502.735	14784.8
502.938	14989.6
503.141	15180.06
503.344	15337.75
503.547	15251.74
503.75	15651.09
503.953	15790.35
504.156	15859.98
504.359	16105.74
504.562	15993.1
504.765	16378.12
504.968	16621.83
505.17	16675.07
505.373	16660.74
505.576	17076.48
505.779	17107.19
505.982	17590.52
506.185	17580.28
506.387	17957.1
506.59	18108.65
506.793	18460.9
506.996	18258.15
507.198	18608.36
507.401	18716.9
507.604	18702.56
507.807	19128.54
508.009	19501.27
508.212	19448.02
508.415	19603.67
508.617	19853.52
508.82	20050.13
509.022	19937.49
509.225	20390.09
509.428	20496.58
509.63	20492.49
509.833	20594.89
510.035	21168.32
510.238	21178.56
510.44	21491.9
510.643	21579.96
510.845	22026.42
511.048	21610.68
511.25	22206.64
511.453	21776.56
511.655	23031.97
511.858	22876.32
512.06	22886.56
512.262	23175.33
512.465	23253.15
512.667	23672.98
512.87	23691.41
513.072	23763.09
513.274	24084.62
513.477	24475.79
513.679	24629.38
513.881	24619.14
514.084	25118.85
514.286	24959.11
514.488	25077.89
514.69	25999.48
514.893	25761.91
515.095	26194.03
515.297	26081.39
515.499	26359.92
515.701	26714.22
515.904	27029.6
516.106	26990.69
516.308	27494.49
516.51	27482.2
516.712	27492.44
516.914	27967.57
517.116	28192.85
517.318	28446.8
517.52	28704.84
517.722	28665.93
517.925	29153.35
518.127	29331.52
518.329	29356.1
518.531	29798.46
518.733	29923.38
518.935	30056.5
519.136	29988.92
519.338	30668.84
519.54	30677.04
519.742	30732.33
519.944	31205.41
520.146	31619.1
520.348	31557.66
520.55	31674.4
520.752	31793.18
520.954	32555.02
521.155	32133.14
521.357	32567.31
521.559	32964.62
521.761	33165.32
521.963	33136.65
522.164	33150.98
522.366	33382.4
522.568	33544.19
522.77	33517.57
522.971	34504.69
523.173	34144.25
523.375	34646
523.576	34451.44
523.778	34607.09
523.98	35162.09
524.181	34885.61
524.383	35250.15
524.584	35821.53
524.786	35522.53
524.988	35301.35
525.189	35770.33
525.391	36126.68
525.592	36212.7
525.794	36200.41
525.995	35985.37
526.197	36470.74
526.398	36354.01
526.6	36835.28
526.801	36667.34
527.003	37199.82
527.204	36931.53
527.406	37484.48
527.607	37187.53
527.808	37541.83
528.01	36704.21
528.211	37541.83
528.412	37920.7
528.614	37584.83
528.815	37570.5
529.016	37910.46
529.218	37920.7
529.419	37961.66
529.62	38193.08
529.822	37535.68
530.023	38102.97
530.224	37908.41
530.425	38195.13
530.626	38000.57
530.828	37996.48
531.029	38551.48
531.23	38188.99
531.431	37808.06
531.632	38111.16
531.833	38854.58
532.035	38311.86
532.236	38412.21
532.437	38543.28
532.638	38178.75
532.839	38746.03
533.04	38584.24
533.241	38713.27
533.442	38766.51
533.643	38336.44
533.844	38692.79
534.045	38719.41
534.246	38399.93
534.447	38870.96
534.648	38064.06
534.849	38637.49
535.05	38522.8
535.251	38391.73
535.451	38295.48
535.652	38344.63
535.853	38823.86
536.054	38772.66
536.255	39069.61
536.456	38336.44
536.657	39006.12
536.857	38422.45
537.058	38926.25
537.259	38741.94
537.46	38725.55
537.66	38559.67
537.861	38952.88
538.062	38387.64
538.263	38834.1
538.463	38741.94
538.664	38277.05
538.865	38660.02
539.065	38758.32
539.266	38164.41
539.466	38977.45
539.667	38021.05
539.868	38797.23
540.068	38543.28
540.269	38412.21
540.469	38567.86
540.67	38260.66
540.87	38287.29
541.071	38492.08
541.271	38219.7
541.472	38281.14
541.672	37773.25
541.873	38023.1
542.073	37980.09
542.274	38590.39
542.474	38244.28
542.675	37928.89
542.875	38549.43
543.075	38088.63
543.276	37511.11
543.476	38350.77
543.676	37851.07
543.877	38014.91
544.077	38145.98
544.277	38111.16
544.478	37906.37
544.678	37967.8
544.878	38258.62
545.078	38082.49
545.279	37908.41
545.479	37984.19
545.679	37898.17
545.879	37687.23
546.079	37961.66
546.28	37722.05
546.48	37580.74
546.68	38197.18
546.88	37521.35
547.08	37797.82
547.28	37767.1
547.48	37625.79
547.68	37922.75
547.88	37517.25
548.081	38039.48
548.281	37963.71
548.481	37543.88
548.681	37744.58
548.881	37758.91
549.081	37519.3
549.28	37662.66
549.48	37697.47
549.68	37697.47
549.88	38373.3
550.08	37496.77
550.28	37523.4
550.48	37527.49
550.68	37990.33
550.88	37408.71
551.08	37461.96
551.279	37281.74
551.479	37367.75
551.679	37691.33
551.879	37451.72
552.079	37609.41
552.278	37306.31
552.478	37070.79
552.678	37752.77
552.878	37808.06
553.077	37035.98
553.277	37095.37
553.477	37742.53
553.676	37468.1
553.876	37089.23
554.076	37263.3
554.275	37537.73
554.475	36923.34
554.674	37064.65
554.874	37355.46
555.074	37009.36
555.273	36937.68
555.473	37576.64
555.672	36851.66
555.872	37070.79
556.071	37173.19
556.271	37316.55
556.47	37011.4
556.67	36835.28
556.869	37181.38
557.068	37011.4
557.268	36822.99
557.467	36710.35
557.667	37062.6
557.866	36657.1
558.065	36624.34
558.265	36339.67
558.464	36372.44
558.663	36773.84
558.863	36433.88
559.062	36966.35
559.261	35946.46
559.461	36689.87
559.66	36011.99
559.859	36315.09
560.058	36204.5
560.258	36843.47
560.457	35946.46
560.656	36431.83
560.855	36231.13
561.054	36311
561.253	36282.33
561.453	36147.16
561.652	36124.63
561.851	36110.3
562.05	36147.16
562.249	35882.97
562.448	36122.58
562.647	36134.87
562.846	35657.7
563.045	36022.23
563.244	35872.73
563.443	36028.38
563.642	35082.22
563.841	35477.47
564.04	35555.3
564.239	35745.76
564.438	35397.6
564.637	35600.35
564.836	35631.07
565.035	35016.68
565.234	35168.23
565.432	35198.95
565.631	34770.93
565.83	35278.82
566.029	35362.79
566.228	35049.45
566.427	34887.66
566.625	35127.27
566.824	34443.25
567.023	34953.19
567.222	33988.6
567.42	34623.47
567.619	34713.58
567.818	34199.54
568.016	34447.35
568.215	34504.69
568.414	34553.84
568.612	34494.45
568.811	34430.96
569.01	34275.32
569.208	33472.51
569.407	34199.54
569.605	34172.92
569.804	34185.21
570.002	33636.35
570.201	33921.02
570.4	33882.11
570.598	33390.59
570.797	33341.44
570.995	33466.37
571.193	33005.58
571.392	33669.12
571.59	33114.12
571.789	33341.44
571.987	32712.72
572.186	33445.89
572.384	32919.56
572.582	33241.09
572.781	33234.95
572.979	32802.83
573.177	33259.52
573.376	32968.71
573.574	32514.06
573.772	32614.41
573.971	32624.65
574.169	32509.97
574.367	32321.55
574.565	32763.92
574.763	32493.58
574.962	32421.91
575.16	31944.73
575.358	31914.01
575.556	31948.82
575.754	32337.94
575.952	31856.67
576.151	32108.57
576.349	31350.82
576.547	31784.99
576.745	32000.02
576.943	31629.34
577.141	31887.39
577.339	31795.23
577.537	31332.39
577.735	31240.23
577.933	31195.17
578.131	31545.37
578.329	31150.12
578.527	30832.68
578.725	30765.1
578.923	31227.94
579.121	30896.17
579.319	30648.36
579.516	31021.09
579.714	30984.23
579.912	30478.38
580.11	30490.67
580.308	30597.17
580.506	30593.07
580.704	30052.41
580.901	30361.65
581.099	30564.4
581.297	30068.79
581.495	30048.31
581.692	30152.76
581.89	29732.92
582.088	29970.49
582.285	29798.46
582.483	30005.3
582.681	29425.73
582.878	29356.1
583.076	29419.58
583.274	29921.34
583.471	29110.34
583.669	29102.15
583.866	29087.81
584.064	29392.96
584.262	28887.11
584.459	29110.34
584.657	28901.45
584.854	29290.56
585.052	28520.52
585.249	28899.4
585.447	28805.19
585.644	28422.22
585.841	28897.35
586.039	28774.47
586.236	28422.22
586.434	28315.73
586.631	28188.75
586.828	28198.99
587.026	28280.91
587.223	28123.22
587.42	27611.23
587.618	27777.11
587.815	27607.13
588.012	27830.36
588.21	27662.43
588.407	27918.42
588.604	27805.78
588.801	27383.9
588.999	27586.65
589.196	27207.78
589.393	27349.09
589.59	27209.82
589.787	26980.45
589.984	26923.11
590.182	26804.33
590.379	27115.62
590.576	26759.27
590.773	26759.27
590.97	26775.66
591.167	26732.65
591.364	26321.01
591.561	26542.19
591.758	26230.9
591.955	26435.69
592.152	26312.81
592.349	25854.07
592.546	26210.42
592.743	26087.54
592.94	25587.83
593.137	26015.86
593.334	25886.84
593.531	25587.83
593.727	25813.11
593.924	25503.87
594.121	25491.58
594.318	25411.71
594.515	25417.85
594.712	25194.62
594.908	25462.91
595.105	25493.63
595.302	24952.96
595.499	25354.37
595.696	25038.98
595.892	24688.78
596.089	25157.76
596.286	24731.78
596.482	24600.71
596.679	24674.44
596.876	24682.63
597.072	24541.32
597.269	24357
597.466	24381.58
597.662	24420.49
597.859	24277.13
598.055	23943.31
598.252	23992.47
598.448	23996.56
598.645	23822.48
598.841	23824.53
599.038	23658.65
599.234	23683.22
599.431	23691.41
599.627	23519.39
599.824	23625.88
600.02	23404.7
600.217	23199.9
600.413	23378.08
600.609	22986.91
600.806	22933.67
601.002	23031.97
601.198	22761.64
601.395	22708.39
601.591	22778.02
601.787	22816.93
601.984	22884.51
602.18	22958.24
602.376	22519.98
602.572	22649
602.769	22419.63
602.965	22194.35
603.161	22315.18
603.357	22306.99
603.553	22091.95
603.75	22104.24
603.946	22182.06
604.142	21950.64
604.338	21561.53
604.534	21942.45
604.73	21637.3
604.926	21827.76
605.122	21917.87
605.318	21524.66
605.514	21379.26
605.71	21428.41
605.906	21393.59
606.102	21481.66
606.298	21205.18
606.494	21283
606.69	21196.99
606.886	21397.69
607.082	21012.67
607.278	21303.48
607.474	20850.88
607.67	21203.13
607.866	20861.12
608.062	20984
608.257	20707.52
608.453	20877.51
608.649	20811.97
608.845	20609.22
609.041	20703.43
609.236	20283.59
609.432	20586.69
609.628	20578.5
609.824	20730.05
610.019	20338.89
610.215	20422.86
610.411	20506.82
610.606	20322.51
610.802	20400.33
610.998	20293.83
611.193	20097.23
611.389	20127.95
611.584	20099.28
611.78	19927.25
611.976	19861.71
612.171	20005.07
612.367	19900.62
612.562	19841.23
612.758	19611.86
612.953	19706.07
613.149	20023.5
613.344	19634.39
613.539	19941.58
613.735	19796.18
613.93	19898.58
614.126	19558.61
614.321	19540.18
614.517	19445.98
614.712	19415.26
614.907	19390.68
615.103	19632.34
615.298	19523.8
615.493	19658.96
615.688	19089.63
615.884	19605.72
616.079	19106.01
616.274	18979.04
616.47	19120.35
616.665	19101.92
616.86	19138.78
617.055	18997.47
617.25	19042.53
617.445	19036.38
617.641	18813.15
617.836	19247.32
618.031	18714.85
618.226	18974.94
618.421	18764
618.616	18798.82
618.811	18278.63
619.006	18657.51
619.201	18239.72
619.396	18499.81
619.591	18049.26
619.786	18159.85
619.981	17973.49
620.176	18223.34
620.371	17641.71
620.566	17758.45
620.761	18143.47
620.956	18139.37
621.151	17688.82
621.346	17811.7
621.541	17600.76
621.735	17524.98
621.93	17547.51
622.125	17215.74
622.32	17178.87
622.515	17336.57
622.709	16879.87
622.904	16713.98
623.099	16926.97
623.294	16969.98
623.488	16541.96
623.683	16787.71
623.878	16271.62
624.072	16677.12
624.267	16501
624.462	16464.13
624.656	15925.52
624.851	16199.94
625.046	15927.56
625.24	15890.7
625.435	15845.65
625.629	15724.82
625.824	15495.44
626.018	15677.71
626.213	15221.02
626.407	15698.19
626.602	15237.4
626.796	15149.34
626.991	15237.4
627.185	14991.64
627.38	15132.95
627.574	15106.33
627.768	14717.22
627.963	14899.48
628.157	14565.67
628.352	14600.48
628.546	14467.36
628.74	14553.38
628.935	14317.86
629.129	14285.09
629.323	14141.74
629.517	14215.46
629.712	13873.45
629.906	14434.6
630.1	13842.73
630.294	13918.51
630.489	13615.41
630.683	13869.36
630.877	13680.94
631.071	13695.28
631.265	13668.66
631.459	13209.91
631.653	13326.64
631.848	13369.65
632.042	13383.99
632.236	13175.09
632.43	13041.98
632.624	13064.5
632.818	12849.47
633.012	12788.03
633.206	12693.82
633.4	12826.94
633.594	12370.24
633.788	12630.34
633.982	12554.56
634.176	12556.61
634.369	12501.31
634.563	12489.03
634.757	12261.7
634.951	12345.67
635.145	12474.69
635.339	12224.84
635.533	12005.7
635.726	12110.15
635.92	11788.62
636.114	11745.61
636.308	11811.15
636.501	11671.89
636.695	11770.19
636.889	11344.21
637.083	11571.54
637.276	11538.77
637.47	11422.03
637.664	11438.42
637.857	11182.42
638.051	11266.39
638.244	11264.34
638.438	10991.96
638.632	11141.46
638.825	11198.81
639.019	11039.06
639.212	10860.89
639.406	10897.75
639.599	10803.55
639.793	10873.18
639.986	10873.18
640.18	10844.51
640.373	10809.69
640.567	10551.65
640.76	10457.44
640.954	10328.42
641.147	10209.64
641.34	10277.22
641.534	10260.84
641.727	10125.67
641.92	10254.69
642.114	10111.33
642.307	10107.24
642.5	10119.53
642.694	9935.21
642.887	9955.69
643.08	9728.36
643.273	9892.2
643.467	9832.81
643.66	9582.96
643.853	9566.57
644.046	9607.53
644.239	9533.81
644.432	9486.7
644.626	9228.66
644.819	9210.23
645.012	9249.14
645.205	9388.4
645.398	9195.89
645.591	9214.32
645.784	9005.43
645.977	8892.79
646.17	9107.83
646.363	8991.09
646.556	8784.25
646.749	8853.88
646.942	9128.31
647.135	8847.74
647.328	8792.44
647.521	8526.21
647.714	8561.02
647.907	8726.91
648.099	8604.03
648.292	8479.1
648.485	8440.19
648.678	8470.91
648.871	8460.67
649.064	8268.16
649.256	8345.98
649.449	8040.84
649.642	8300.93
649.835	8376.7
650.027	8110.47
650.22	8057.22
650.413	7987.59
650.605	8067.46
650.798	7942.53
650.991	7840.14
651.183	8143.24
651.376	7717.26
651.568	7829.9
651.761	7768.46
651.954	7670.15
652.146	7711.11
652.339	7618.96
652.531	7604.62
652.724	7686.54
652.916	7428.49
653.109	7424.4
653.301	7508.37
653.494	7485.84
653.686	7397.78
653.879	7319.95
654.071	7190.93
654.263	7131.54
654.456	7248.27
654.648	7246.23
654.84	7186.83
655.033	6994.33
655.225	6885.78
655.417	7012.76
655.61	7037.33
655.802	7113.11
655.994	7023
656.186	6945.17
656.379	6822.3
656.571	6791.58
656.763	6842.78
656.955	6644.12
657.148	6767
657.34	6732.19
657.532	6732.19
657.724	6562.2
657.916	6578.59
658.108	6551.96
658.3	6394.27
658.492	6455.71
658.684	6437.28
658.876	6486.43
659.068	6373.79
659.26	6156.71
659.452	6287.78
659.644	6259.1
659.836	6216.1
660.028	6171.04
660.22	6257.06
660.412	6146.47
660.604	6117.79
660.796	6074.79
660.988	6248.86
661.18	5913
661.372	5913
661.563	6009.25
661.755	5790.12
661.947	5759.4
662.139	5783.98
662.331	5638.57
662.522	5829.03
662.714	5636.52
662.906	5790.12
663.097	5661.1
663.289	5652.91
663.481	5632.43
663.673	5691.82
663.864	5573.03
664.056	5470.64
664.247	5482.92
664.439	5452.2
664.631	5505.45
664.822	5495.21
665.014	5380.53
665.205	5372.33
665.397	5421.49
665.588	5257.65
665.78	5339.57
665.971	5194.16
666.163	5296.56
666.354	5104.05
666.546	5284.27
666.737	5181.87
666.929	5243.31
667.12	5087.67
667.311	5110.19
667.503	5003.7
667.694	5147.06
667.885	5007.8
668.077	5020.08
668.268	4954.55
668.459	5108.15
668.651	4903.35
668.842	4905.4
669.033	5013.94
669.224	4968.88
669.416	4764.09
669.607	4766.14
669.798	4696.5
669.989	4766.14
670.18	4909.49
670.371	4827.57
670.563	4696.5
670.754	4737.46
670.945	4714.94
671.136	4786.61
671.327	4573.63
671.518	4772.28
671.709	4667.83
671.9	4596.15
672.091	4532.67
672.282	4585.91
672.473	4428.22
672.664	4645.31
672.855	4602.3
673.046	4516.28
673.237	4491.71
673.428	4485.56
673.619	4422.08
673.809	4434.36
674	4452.8
674.191	4381.12
674.382	4389.31
674.573	4270.53
674.764	4438.46
674.954	4243.9
675.145	4149.7
675.336	4151.74
675.527	4200.9
675.717	4336.06
675.908	4202.94
676.099	4325.82
676.289	4182.46
676.48	4135.36
676.671	4170.18
676.861	4112.83
677.052	4192.7
677.243	4184.51
677.433	4039.11
677.624	4110.79
677.814	4094.4
678.005	4135.36
678.195	4051.39
678.386	4209.09
678.576	3959.24
678.767	3961.28
678.957	4147.65
679.148	4071.87
679.338	4104.64
679.529	3873.22
679.719	3951.04
679.909	3979.72
680.1	3905.99
680.29	3959.24
680.481	4067.78
680.671	3885.51
680.861	3871.17
681.052	3875.27
681.242	3774.92
681.432	3987.91
681.622	3795.4
681.813	3867.08
682.003	3688.9
682.193	3699.14
682.383	3908.04
682.573	3795.4
682.764	3717.58
682.954	3883.46
683.144	3748.29
683.334	3662.28
683.524	3836.36
683.714	3707.34
683.904	3787.21
684.094	3641.8
684.284	3701.19
684.474	3809.73
684.664	3805.64
684.854	3582.41
685.044	3762.63
685.234	3510.73
685.424	3617.22
685.614	3484.11
685.804	3551.69
685.994	3631.56
686.184	3617.22
686.374	3561.93
686.564	3547.59
686.753	3508.68
686.943	3539.4
687.133	3539.4
687.323	3406.28
687.513	3457.48
687.702	3402.19
687.892	3441.1
688.082	3342.8
688.272	3473.87
688.461	3316.17
688.651	3449.29
688.841	3326.41
689.03	3318.22
689.22	3387.85
689.41	3291.6
689.599	3193.3
689.789	3295.69
689.979	3281.36
690.168	3281.36
690.358	3209.68
690.547	3219.92
690.737	3160.53
690.926	3140.05
691.116	3160.53
691.305	3197.39
691.495	3181.01
691.684	3131.86
691.874	3172.82
692.063	3090.9
692.252	3199.44
692.442	3127.76
692.631	2965.97
692.82	2978.26
693.01	3006.93
693.199	3035.6
693.388	3037.65
693.578	3029.46
693.767	2920.92
693.956	3051.99
694.146	2808.28
694.335	3017.17
694.524	2961.87
694.713	3013.07
694.902	2947.54
695.092	2851.28
695.281	2869.72
695.47	2824.66
695.659	2873.81
695.848	2697.69
696.037	2791.89
696.226	2849.24
696.415	2906.58
696.604	2822.61
696.793	2820.56
696.982	2789.85
697.171	2744.79
697.36	2857.43
697.549	2863.57
697.738	2752.98
697.927	2763.22
698.116	2968.02
698.305	2851.28
698.494	2804.18
698.683	2726.36
698.872	2763.22
699.061	2720.21
699.25	2750.93
699.438	2726.36
699.627	2693.59
699.816	2802.13
700.005	2728.41
700.193	2828.76
700.382	2681.3
700.571	2585.05
700.76	2660.82
700.948	2656.73
701.137	2654.68
701.326	2734.55
701.514	2660.82
701.703	2701.78
701.892	2798.04
702.08	2679.26
702.269	2681.3
702.457	2707.93
702.646	2773.46
702.834	2650.58
703.023	2726.36
703.212	2660.82
703.4	2703.83
703.589	2795.99
703.777	2605.53
703.965	2632.15
704.154	2578.9
704.342	2654.68
704.531	2705.88
704.719	2644.44
704.907	2718.17
705.096	2609.62
705.284	2603.48
705.472	2634.2
705.661	2738.65
705.849	2636.25
706.037	2634.2
706.226	2740.69
706.414	2677.21
706.602	2646.49
706.79	2570.71
706.979	2656.73
707.167	2628.06
707.355	2689.49
707.543	2714.07
707.731	2593.24
707.919	2585.05
708.107	2785.75
708.296	2623.96
708.484	2726.36
708.672	2529.75
708.86	2619.86
709.048	2570.71
709.236	2642.39
709.424	2644.44
709.612	2587.1
709.8	2628.06
709.988	2576.86
710.176	2726.36
710.364	2576.86
710.551	2632.15
710.739	2671.06
710.927	2439.64
711.115	2585.05
711.303	2654.68
711.491	2687.45
711.679	2566.62
711.866	2675.16
712.054	2621.91
712.242	2599.38
712.43	2628.06
712.617	2750.93
712.805	2578.9
712.993	2736.6
713.181	2453.98
713.368	2687.45
713.556	2558.42
713.744	2595.29
713.931	2664.92
714.119	2599.38
714.306	2687.45
714.494	2486.75
714.682	2585.05
714.869	2562.52
715.057	2673.11
715.244	2603.48
715.432	2718.17
715.619	2605.53
715.807	2626.01
715.994	2560.47
716.182	2574.81
716.369	2630.1
716.556	2484.7
716.744	2443.74
716.931	2562.52
717.119	2568.66
717.306	2544.09
717.493	2550.23
717.681	2548.19
717.868	2623.96
718.055	2595.29
718.242	2640.34
718.43	2515.42
718.617	2640.34
718.804	2480.6
718.991	2587.1
719.179	2546.14
719.366	2496.99
719.553	2660.82
719.74	2562.52
719.927	2599.38
720.114	2572.76
720.301	2535.9
720.488	2556.38
720.676	2503.13
720.863	2621.91
721.05	2654.68
721.237	2470.36
721.424	2583
721.611	2519.51
721.798	2537.95
721.985	2523.61
722.172	2519.51
722.358	2578.9
722.545	2542.04
722.732	2517.47
722.919	2548.19
723.106	2402.78
723.293	2503.13
723.48	2474.46
723.667	2370.01
723.853	2570.71
724.04	2644.44
724.227	2492.89
724.414	2572.76
724.6	2466.27
724.787	2386.4
724.974	2494.94
725.161	2464.22
725.347	2419.16
725.534	2527.71
725.72	2425.31
725.907	2410.97
726.094	2583
726.28	2437.59
726.467	2468.31
726.653	2499.03
726.84	2550.23
727.027	2472.41
727.213	2564.57
727.4	2519.51
727.586	2595.29
727.773	2480.6
727.959	2425.31
728.145	2441.69
728.332	2406.88
728.518	2456.03
728.705	2458.07
728.891	2370.01
729.077	2408.92
729.264	2306.52
729.45	2490.84
729.636	2447.83
729.823	2324.96
730.009	2499.03
730.195	2292.19
730.382	2415.07
730.568	2449.88
730.754	2304.48
730.94	2292.19
731.126	2394.59
731.313	2437.59
731.499	2427.35
731.685	2410.97
731.871	2341.34
732.057	2451.93
732.243	2390.49
732.429	2382.3
732.615	2349.53
732.801	2343.39
732.987	2324.96
733.173	2257.37
733.359	2304.48
733.545	2349.53
733.731	2322.91
733.917	2310.62
734.103	2290.14
734.289	2374.11
734.475	2394.59
734.661	2339.29
734.847	2345.44
735.033	2288.09
735.219	2378.2
735.404	2396.64
735.59	2271.71
735.776	2296.28
735.962	2267.61
736.148	2341.34
736.333	2284
736.519	2333.15
736.705	2197.98
736.89	2318.81
737.076	2275.81
737.262	2216.41
737.447	2226.65
737.633	2259.42
737.819	2185.69
738.004	2226.65
738.19	2204.13
738.375	2193.89
738.561	2261.47
738.747	2161.12
738.932	2171.36
739.118	2195.93
739.303	2320.86
739.489	2222.56
739.674	2179.55
739.859	2114.02
740.045	2142.69
740.23	2114.02
740.416	2179.55
740.601	2200.03
740.786	2152.93
740.972	2040.29
741.157	2210.27
741.342	2116.06
741.528	2077.15
741.713	2128.35
741.898	2019.81
742.084	2048.48
742.269	2097.63
742.454	2130.4
742.639	2105.82
742.824	2060.77
743.01	1987.04
743.195	1987.04
743.38	2046.43
743.565	1976.8
743.75	1919.46
743.935	2048.48
744.12	1995.23
744.305	1974.75
744.49	2011.62
744.675	1907.17
744.86	1968.61
745.045	1956.32
745.23	1890.79
745.415	1931.75
745.6	1901.03
745.785	1999.33
745.97	1878.5
746.155	1927.65
746.34	1823.2
746.525	1800.68
746.71	1894.88
746.895	1817.06
747.079	1860.07
747.264	1825.25
747.449	1808.87
747.634	1800.68
747.819	1886.69
748.003	1729
748.188	1837.54
748.373	1634.79
748.557	1774.05
748.742	1769.96
748.927	1685.99
749.111	1792.48
749.296	1729
749.481	1694.18
749.665	1729
749.85	1645.03
750.034	1720.81
750.219	1645.03
750.404	1677.8
750.588	1579.5
750.773	1665.51
750.957	1628.65
751.141	1597.93
751.326	1569.26
751.51	1554.92
751.695	1495.53
751.879	1544.68
752.064	1538.54
752.248	1436.14
752.432	1505.77
752.617	1577.45
752.801	1507.82
752.985	1550.82
753.17	1509.86
753.354	1442.28
753.538	1495.53
753.722	1362.41
753.907	1374.7
754.091	1368.56
754.275	1417.71
754.459	1425.9
754.643	1427.95
754.828	1397.23
755.012	1460.71
755.196	1317.36
755.38	1276.4
755.564	1333.74
755.748	1376.75
755.932	1468.91
756.116	1358.32
756.3	1337.84
756.484	1315.31
756.668	1315.31
756.852	1229.29
757.036	1257.96
757.22	1225.2
757.404	1241.58
757.588	1255.92
757.772	1268.2
757.956	1280.49
758.14	1217.01
758.323	1122.8
758.507	1257.96
758.691	1159.66
758.875	1186.29
759.059	1167.85
759.242	1176.05
759.426	1071.6
759.61	1180.14
759.794	1196.53
759.977	1098.22
760.161	1159.66
760.345	1092.08
760.528	1253.87
760.712	1087.98
760.895	1147.37
761.079	1053.17
761.263	1124.85
761.446	1139.18
761.63	1145.33
761.813	1057.26
761.997	1049.07
762.18	1010.16
762.364	1075.7
762.547	981.49
762.731	1057.26
762.914	1075.7
763.098	1008.11
763.281	942.58
763.464	1024.5
763.648	975.35
763.831	1012.21
764.015	1059.31
764.198	987.63
764.381	1120.75
764.564	946.67
764.748	1040.88
764.931	948.72
765.114	1024.5
765.297	975.35
765.481	872.95
765.664	889.33
765.847	963.06
766.03	938.48
766.213	911.86
766.397	938.48
766.58	809.46
766.763	938.48
766.946	981.49
767.129	848.37
767.312	958.96
767.495	895.47
767.678	879.09
767.861	881.14
768.044	913.91
768.227	840.18
768.41	815.6
768.593	866.8
768.776	866.8
768.959	913.91
769.142	938.48
769.324	854.51
769.507	862.71
769.69	827.89
769.873	850.42
770.056	997.87
770.239	831.99
770.421	850.42
770.604	813.56
770.787	846.32
770.97	866.8
771.152	801.27
771.335	874.99
771.518	801.27
771.7	905.71
771.883	821.75
772.066	735.73
772.248	799.22
772.431	852.47
772.613	799.22
772.796	817.65
772.978	848.37
773.161	807.41
773.343	758.26
773.526	733.68
773.708	799.22
773.891	829.94
774.073	670.2
774.256	721.4
774.438	801.27
774.621	754.16
774.803	836.08
774.985	682.49
775.168	752.12
775.35	707.06
775.532	657.91
775.715	686.58
775.897	653.81
776.079	692.73
776.261	686.58
776.444	686.58
776.626	627.19
776.808	627.19
776.99	719.35
777.173	707.06
777.355	727.54
777.537	735.73
777.719	662.01
777.901	604.66
778.083	647.67
778.265	610.81
778.447	621.05
778.629	678.39
778.811	569.85
778.993	629.24
779.175	635.38
779.357	625.14
779.539	625.14
779.721	633.33
779.903	547.32
780.085	676.34
780.267	590.33
780.449	586.23
780.631	627.19
780.812	619
780.994	494.07
781.176	614.9
781.358	547.32
781.54	561.66
781.721	524.79
781.903	561.66
782.085	553.46
782.267	524.79
782.448	465.4
782.63	518.65
782.812	563.7
782.993	446.97
783.175	518.65
783.357	457.21
783.538	504.31
783.72	518.65
783.901	528.89
784.083	498.17
784.264	465.4
784.446	449.02
784.627	463.35
784.809	467.45
784.99	537.08
785.172	451.07
785.353	520.7
785.535	438.78
785.716	492.02
785.897	500.22
786.079	545.27
786.26	471.54
786.441	451.07
786.623	408.06
786.804	498.17
786.985	403.96
787.167	473.59
787.348	393.72
787.529	455.16
787.71	418.3
787.891	401.91
788.073	346.62
788.254	344.57
788.435	467.45
788.616	383.48
788.797	328.19
788.978	383.48
789.159	383.48
789.34	416.25
789.522	416.25
789.703	408.06
789.884	395.77
790.065	383.48
790.246	340.47
790.427	365.05
790.607	336.38
790.788	389.63
790.969	299.52
791.15	350.71
791.331	410.11
791.512	358.91
791.693	354.81
791.874	334.33
792.054	348.67
792.235	326.14
792.416	291.32
792.597	342.52
792.778	233.98
792.958	268.8
793.139	322.04
793.32	336.38
793.5	328.19
793.681	438.78
793.862	375.29
794.042	317.95
794.223	279.04
794.404	240.12
794.584	274.94
794.765	301.56
794.945	317.95
795.126	264.7
795.306	369.15
795.487	291.32
795.667	311.8
795.848	303.61
796.028	256.51
796.209	266.75
796.389	313.85
796.57	291.32
796.75	285.18
796.93	236.03
797.111	258.56
797.291	274.94
797.471	256.51
797.652	274.94
797.832	180.73
798.012	193.02
798.192	297.47
798.373	225.79
798.553	223.74
798.733	248.32
798.913	260.6
799.093	285.18
799.274	276.99
799.454	283.13
799.634	186.88
799.814	338.43
799.994	233.98
800.174	295.42
800.354	260.6
800.534	201.21
800.714	260.6
800.894	233.98
801.074	258.56
801.254	221.69
801.434	223.74
801.614	246.27
801.794	190.97
801.974	586.23
802.154	160.25
802.334	272.89
802.514	215.55
802.693	236.03
802.873	244.22
803.053	174.59
803.233	256.51
803.413	221.69
803.592	233.98
803.772	139.77
803.952	197.12
804.131	209.4
804.311	178.69
804.491	223.74
804.67	203.26
804.85	205.31
805.03	225.79
805.209	182.78
805.389	203.26
805.568	242.17
805.748	250.36
805.928	184.83
806.107	193.02
806.287	252.41
806.466	221.69
806.646	233.98
806.825	156.16
807.004	227.84
807.184	190.97
807.363	203.26
807.543	176.64
807.722	170.49
807.901	184.83
808.081	250.36
808.26	172.54
808.439	162.3
808.619	178.69
808.798	115.2
808.977	221.69
809.156	207.36
809.336	131.58
809.515	195.07
809.694	98.81
809.873	193.02
810.052	107.01
810.231	260.6
810.411	82.43
810.59	168.45
810.769	174.59
810.948	260.6
811.127	195.07
811.306	205.31
811.485	154.11
811.664	250.36
811.843	205.31
812.022	115.2
812.201	158.21
812.38	98.81
812.559	100.86
812.737	158.21
812.916	137.73
813.095	242.17
813.274	147.97
813.453	150.01
813.632	160.25
813.811	182.78
813.989	137.73
814.168	115.2
814.347	154.11
814.526	125.44
814.704	176.64
814.883	154.11
815.062	195.07
815.24	76.29
815.419	41.47
815.598	170.49
815.776	90.62
815.955	143.87
816.133	57.86
816.312	152.06
816.49	135.68
816.669	72.19
816.847	92.67
817.026	94.72
817.204	125.44
817.383	154.11
817.561	139.77
817.74	147.97
817.918	199.16
818.097	117.25
818.275	141.82
818.453	178.69
818.632	84.48
818.81	133.63
818.988	59.9
819.167	131.58
819.345	150.01
819.523	156.16
819.701	150.01
819.879	143.87
820.058	119.29
820.236	145.92
820.414	125.44
820.592	121.34
820.77	141.82
820.948	113.15
821.127	57.86
821.305	135.68
821.483	33.28
821.661	131.58
821.839	141.82
822.017	109.05
822.195	147.97
822.373	133.63
822.551	117.25
822.729	117.25
822.907	66.05
823.085	119.29
823.262	111.1
823.44	94.72
823.618	70.14
823.796	49.66
823.974	188.93
824.152	147.97
824.329	68.09
824.507	170.49
824.685	94.72
824.863	135.68
825.04	127.49
825.218	88.57
825.396	-13.82
825.574	117.25
825.751	84.48
825.929	125.44
826.107	92.67
826.284	88.57
826.462	150.01
826.639	16.9
826.817	78.33
826.994	104.96
827.172	74.24
827.349	184.83
827.527	127.49
827.704	64
827.882	96.77
828.059	61.95
828.237	68.09
828.414	127.49
828.591	39.42
828.769	88.57
828.946	96.77
829.124	104.96
829.301	109.05
829.478	84.48
829.655	74.24
829.833	109.05
830.01	70.14
830.187	53.76
830.364	98.81
830.542	31.23
830.719	98.81
830.896	113.15
831.073	117.25
831.25	72.19
831.427	102.91
831.604	147.97
831.782	102.91
831.959	115.2
832.136	90.62
832.313	96.77
832.49	123.39
832.667	14.85
832.844	-1.54
833.021	117.25
833.198	96.77
833.374	154.11
833.551	123.39
833.728	80.38
833.905	55.81
834.082	53.76
834.259	82.43
834.436	158.21
834.612	59.9
834.789	117.25
834.966	53.76
835.143	80.38
835.319	84.48
835.496	94.72
835.673	131.58
835.85	25.09
836.026	121.34
836.203	80.38
836.38	80.38
836.556	98.81
836.733	31.23
836.909	143.87
837.086	53.76
837.262	35.33
837.439	53.76
837.616	33.28
837.792	45.57
837.968	8.7
838.145	84.48
838.321	86.53
838.498	117.25
838.674	92.67
838.851	4.61
839.027	158.21
839.203	61.95
839.38	29.18
839.556	70.14
839.732	111.1
839.909	80.38
840.085	49.66
840.261	-11.78
840.437	158.21
840.614	45.57
840.79	102.91
840.966	78.33
841.142	78.33
841.318	119.29
841.494	100.86
841.671	47.62
841.847	25.09
842.023	78.33
842.199	98.81
842.375	80.38
842.551	84.48
842.727	43.52
842.903	78.33
843.079	47.62
843.255	43.52
843.431	37.38
843.607	88.57
843.783	61.95
843.959	72.19
844.134	39.42
844.31	72.19
844.486	43.52
844.662	98.81
844.838	51.71
845.013	57.86
845.189	33.28
845.365	82.43
845.541	55.81
845.716	45.57
845.892	102.91
846.068	39.42
846.244	16.9
846.419	104.96
846.595	51.71
846.77	61.95
846.946	59.9
847.122	-17.92
847.297	20.99
847.473	78.33
847.648	98.81
847.824	100.86
847.999	70.14
848.175	137.73
848.35	100.86
848.526	33.28
848.701	-7.68
848.876	84.48
849.052	64
849.227	39.42
849.403	72.19
849.578	107.01
849.753	133.63
849.929	74.24
850.104	70.14
850.279	-5.63
850.454	14.85
850.63	115.2
850.805	82.43
850.98	115.2
851.155	51.71
851.33	96.77
851.505	20.99
851.681	98.81
851.856	-28.16
852.031	80.38
852.206	127.49
852.381	-60.93
852.556	68.09
852.731	10.75
852.906	-9.73
853.081	55.81
853.256	33.28
853.431	27.14
853.606	8.7
853.781	-44.54
853.956	25.09
854.131	113.15
854.305	43.52
854.48	76.29
854.655	6.66
854.83	59.9
855.005	-50.69
855.18	68.09
855.354	14.85
855.529	100.86
855.704	29.18
855.879	92.67
856.053	-9.73
856.228	6.66
856.403	18.94
856.577	-5.63
856.752	84.48
856.926	33.28
857.101	8.7
857.276	-13.82
857.45	66.05
857.625	8.7
857.799	0.51
857.974	47.62
858.148	35.33
858.323	-17.92
858.497	43.52
858.672	29.18
858.846	-9.73
859.02	76.29
859.195	-71.17
859.369	51.71
859.543	47.62
859.718	14.85
859.892	8.7
860.066	92.67
860.241	-44.54
860.415	64
860.589	12.8
860.763	12.8
860.938	-34.3
861.112	59.9
861.286	14.85
861.46	29.18
861.634	64
861.808	61.95
861.982	-17.92
862.157	57.86
862.331	72.19
862.505	35.33
862.679	20.99
862.853	96.77
863.027	43.52
863.201	92.67
863.375	-19.97
863.549	-5.63
863.722	-75.26
863.896	39.42
864.07	-26.11
864.244	-17.92
864.418	37.38
864.592	72.19
864.766	94.72
864.939	66.05
865.113	29.18
865.287	102.91
865.461	20.99
865.634	12.8
865.808	-15.87
865.982	-17.92
866.156	12.8
866.329	6.66
866.503	70.14
866.676	29.18
866.85	55.81
867.024	20.99
867.197	53.76
867.371	-1.54
867.544	-19.97
867.718	-38.4
867.891	80.38
868.065	39.42
868.238	33.28
868.412	76.29
868.585	55.81
868.759	-9.73
868.932	82.43
869.105	-19.97
869.279	25.09
869.452	-7.68
869.625	113.15
869.799	29.18
869.972	-22.02
870.145	35.33
870.319	115.2
870.492	-7.68
870.665	45.57
870.838	45.57
871.011	-15.87
871.185	14.85
871.358	2.56
871.531	37.38
871.704	31.23
871.877	12.8
872.05	31.23
872.223	64
872.396	35.33
872.569	-1.54
872.742	41.47
872.915	37.38
873.088	-3.58
873.261	47.62
873.434	10.75
873.607	23.04
873.78	29.18
873.953	-9.73
874.126	25.09
874.299	57.86
874.471	25.09
874.644	55.81
874.817	-36.35
874.99	37.38
875.163	25.09
875.335	72.19
875.508	6.66
875.681	6.66
875.853	-54.78
876.026	68.09
876.199	55.81
876.371	55.81
876.544	-44.54
876.717	47.62
876.889	25.09
877.062	-15.87
877.234	8.7
877.407	55.81
877.579	-42.5
877.752	-1.54
877.924	37.38
878.097	80.38
878.269	57.86
878.442	31.23
878.614	27.14
878.786	27.14
878.959	6.66
879.131	51.71
879.303	-26.11
879.476	94.72
879.648	-34.3
879.82	-11.78
879.993	31.23
880.165	-7.68
880.337	39.42
880.509	2.56
880.681	-13.82
880.854	-40.45
881.026	6.66
881.198	27.14
881.37	-1.54
881.542	10.75
881.714	66.05
881.886	-28.16
882.058	-28.16
882.23	6.66
882.402	39.42
882.574	41.47
882.746	-52.74
882.918	109.05
883.09	119.29
883.262	-1.54
883.434	-32.26
883.606	20.99
883.778	25.09
883.95	100.86
884.122	6.66
884.293	14.85
884.465	41.47
884.637	-40.45
884.809	37.38
884.98	27.14
885.152	18.94
885.324	14.85
885.496	45.57
885.667	25.09
885.839	-1.54
886.011	-3.58
886.182	10.75
886.354	90.62
886.525	-1.54
886.697	111.1
886.869	-38.4
887.04	10.75
887.212	33.28
887.383	-7.68
887.555	-26.11
887.726	57.86
887.897	6.66
888.069	37.38
888.24	41.47
888.412	8.7
888.583	31.23
888.754	-5.63
888.926	20.99
889.097	33.28
889.268	14.85
889.44	51.71
889.611	47.62
889.782	-22.02
889.953	20.99
890.125	4.61
890.296	72.19
890.467	-19.97
890.638	51.71
890.809	-15.87
890.98	-48.64
891.151	2.56
891.323	-24.06
891.494	45.57
891.665	-11.78
891.836	-15.87
892.007	-85.5
892.178	-11.78
892.349	49.66
892.52	-9.73
892.691	35.33
892.862	-9.73
893.032	-3.58
893.203	2.56
893.374	18.94
893.545	4.61
893.716	27.14
893.887	-30.21
894.057	43.52
894.228	6.66
894.399	78.33
894.57	-7.68
894.74	2.56
894.911	4.61
895.082	14.85
895.253	-28.16
895.423	16.9
895.594	-26.11
895.764	55.81
895.935	-26.11
896.106	84.48
896.276	16.9
896.447	2.56
896.617	2.56
896.788	-7.68
896.958	-26.11
897.129	-5.63
897.299	10.75
897.47	16.9
897.64	-15.87
897.81	8.7
897.981	23.04
898.151	-26.11
898.322	20.99
898.492	70.14
898.662	57.86
898.832	-5.63
899.003	-28.16
899.173	23.04
899.343	10.75
899.513	25.09
