Data from USB4F104151__51__12-01-40-310.txt Node

Date: Fri Mar 14 12:01:40 EDT 2025
User: louis
Spectrometer: USB4F10415
Trigger mode: 4
Integration Time (sec): 2.000000E-2
Scans to average: 1
Electric dark correction enabled: true
Nonlinearity correction enabled: false
Boxcar width: 0
XAxis mode: Wavelengths
Number of Pixels in Spectrum: 3648
>>>>>Begin Spectral Data<<<<<
178.204	-113.49
178.424	-113.49
178.644	-113.49
178.864	-123.73
179.084	-56.15
179.304	-47.96
179.524	-43.86
179.744	-54.1
179.964	-31.57
180.184	40.11
180.404	48.3
180.624	-9.05
180.844	-19.29
181.064	81.07
181.283	-0.85
181.503	1.19
181.723	36.01
181.943	42.15
182.163	-29.52
182.383	-11.09
182.602	3.24
182.822	-25.43
183.042	5.29
183.262	50.35
183.482	107.69
183.701	3.24
183.921	46.25
184.141	-15.19
184.361	-13.14
184.58	38.06
184.8	36.01
185.02	-7
185.239	46.25
185.459	-41.81
185.679	97.45
185.898	-27.48
186.118	-7
186.338	-17.24
186.557	66.73
186.777	-33.62
186.997	-2.9
187.216	5.29
187.436	50.35
187.655	15.53
187.875	-2.9
188.095	-2.9
188.314	74.92
188.534	89.26
188.753	-19.29
188.973	72.87
189.192	103.59
189.412	-33.62
189.631	87.21
189.851	-15.19
190.07	62.63
190.29	25.77
190.509	60.59
190.729	29.87
190.948	-0.85
191.168	142.5
191.387	81.07
191.607	-45.91
191.826	23.72
192.045	-2.9
192.265	-29.52
192.484	-39.76
192.704	7.34
192.923	50.35
193.142	27.82
193.362	89.26
193.581	111.78
193.8	33.96
194.02	134.31
194.239	21.67
194.458	-19.29
194.678	68.78
194.897	15.53
195.116	15.53
195.335	50.35
195.555	-13.14
195.774	-9.05
195.993	68.78
196.212	42.15
196.432	29.87
196.651	29.87
196.87	-23.38
197.089	62.63
197.308	21.67
197.528	13.48
197.747	11.43
197.966	74.92
198.185	111.78
198.404	58.54
198.623	48.3
198.842	25.77
199.062	68.78
199.281	36.01
199.5	64.68
199.719	124.07
199.938	66.73
200.157	93.35
200.376	13.48
200.595	62.63
200.814	7.34
201.033	68.78
201.252	-27.48
201.471	79.02
201.69	68.78
201.909	60.59
202.128	-17.24
202.347	17.58
202.566	64.68
202.785	-37.72
203.004	23.72
203.223	124.07
203.442	38.06
203.661	-15.19
203.879	1.19
204.098	40.11
204.317	11.43
204.536	19.63
204.755	5.29
204.974	83.11
205.193	-27.48
205.411	68.78
205.63	-9.05
205.849	-68.44
206.068	9.39
206.287	-4.95
206.505	-9.05
206.724	101.55
206.943	-31.57
207.162	3.24
207.381	27.82
207.599	36.01
207.818	29.87
208.037	-43.86
208.255	52.39
208.474	9.39
208.693	9.39
208.911	29.87
209.13	-0.85
209.349	-4.95
209.567	25.77
209.786	52.39
210.005	7.34
210.223	13.48
210.442	46.25
210.661	52.39
210.879	3.24
211.098	52.39
211.316	19.63
211.535	99.5
211.753	72.87
211.972	17.58
212.191	-27.48
212.409	36.01
212.628	-17.24
212.846	1.19
213.065	87.21
213.283	87.21
213.502	58.54
213.72	-35.67
213.938	-23.38
214.157	72.87
214.375	46.25
214.594	11.43
214.812	25.77
215.031	13.48
215.249	-0.85
215.467	40.11
215.686	36.01
215.904	70.83
216.122	5.29
216.341	-0.85
216.559	-33.62
216.778	60.59
216.996	56.49
217.214	3.24
217.432	58.54
217.651	29.87
217.869	-27.48
218.087	68.78
218.306	9.39
218.524	-19.29
218.742	11.43
218.96	50.35
219.179	-21.33
219.397	-58.2
219.615	42.15
219.833	38.06
220.051	1.19
220.27	31.91
220.488	68.78
220.706	3.24
220.924	3.24
221.142	31.91
221.36	11.43
221.578	74.92
221.796	40.11
222.015	-23.38
222.233	-4.95
222.451	68.78
222.669	36.01
222.887	11.43
223.105	27.82
223.323	-9.05
223.541	60.59
223.759	-4.95
223.977	-43.86
224.195	19.63
224.413	38.06
224.631	25.77
224.849	33.96
225.067	56.49
225.285	-27.48
225.503	52.39
225.721	-25.43
225.939	42.15
226.157	-56.15
226.375	3.24
226.592	62.63
226.81	-2.9
227.028	21.67
227.246	1.19
227.464	-11.09
227.682	46.25
227.9	42.15
228.117	44.2
228.335	15.53
228.553	38.06
228.771	-25.43
228.989	38.06
229.206	-25.43
229.424	72.87
229.642	-19.29
229.86	25.77
230.077	33.96
230.295	21.67
230.513	19.63
230.731	33.96
230.948	-13.14
231.166	42.15
231.384	-31.57
231.601	-9.05
231.819	38.06
232.037	-0.85
232.254	60.59
232.472	-60.24
232.689	38.06
232.907	19.63
233.125	-2.9
233.342	-13.14
233.56	15.53
233.777	-23.38
233.995	-76.63
234.213	60.59
234.43	58.54
234.648	-7
234.865	68.78
235.083	29.87
235.3	-7
235.518	91.31
235.735	31.91
235.953	208.04
236.17	-47.96
236.388	-17.24
236.605	-4.95
236.822	87.21
237.04	33.96
237.257	11.43
237.475	17.58
237.692	79.02
237.909	62.63
238.127	27.82
238.344	66.73
238.562	19.63
238.779	38.06
238.996	-56.15
239.214	21.67
239.431	42.15
239.648	-29.52
239.865	76.97
240.083	54.44
240.3	13.48
240.517	74.92
240.735	38.06
240.952	25.77
241.169	-58.2
241.386	-39.76
241.603	79.02
241.821	-0.85
242.038	38.06
242.255	70.83
242.472	13.48
242.689	46.25
242.907	93.35
243.124	-17.24
243.341	38.06
243.558	-43.86
243.775	11.43
243.992	17.58
244.209	-11.09
244.426	103.59
244.643	66.73
244.86	-13.14
245.078	1.19
245.295	38.06
245.512	58.54
245.729	25.77
245.946	-4.95
246.163	-23.38
246.38	44.2
246.597	29.87
246.814	33.96
247.031	-13.14
247.248	27.82
247.464	-4.95
247.681	25.77
247.898	54.44
248.115	21.67
248.332	-0.85
248.549	15.53
248.766	79.02
248.983	93.35
249.2	-21.33
249.417	42.15
249.633	27.82
249.85	52.39
250.067	38.06
250.284	33.96
250.501	-19.29
250.717	29.87
250.934	-2.9
251.151	40.11
251.368	3.24
251.585	-78.68
251.801	21.67
252.018	46.25
252.235	-7
252.451	27.82
252.668	36.01
252.885	36.01
253.102	-17.24
253.318	36.01
253.535	50.35
253.752	70.83
253.968	68.78
254.185	-21.33
254.401	1.19
254.618	27.82
254.835	56.49
255.051	46.25
255.268	-13.14
255.484	15.53
255.701	9.39
255.917	68.78
256.134	-47.96
256.351	-2.9
256.567	-19.29
256.784	52.39
257	9.39
257.217	60.59
257.433	-13.14
257.65	3.24
257.866	17.58
258.082	-4.95
258.299	9.39
258.515	36.01
258.732	33.96
258.948	-7
259.165	21.67
259.381	27.82
259.597	-29.52
259.814	3.24
260.03	33.96
260.246	38.06
260.463	27.82
260.679	38.06
260.895	128.17
261.112	-25.43
261.328	109.74
261.544	-19.29
261.761	60.59
261.977	9.39
262.193	29.87
262.409	-105.3
262.626	29.87
262.842	29.87
263.058	33.96
263.274	-66.39
263.49	136.36
263.707	46.25
263.923	-0.85
264.139	5.29
264.355	38.06
264.571	17.58
264.787	38.06
265.004	52.39
265.22	46.25
265.436	-19.29
265.652	-19.29
265.868	-15.19
266.084	46.25
266.3	56.49
266.516	-33.62
266.732	42.15
266.948	91.31
267.164	62.63
267.38	21.67
267.596	15.53
267.812	58.54
268.028	-7
268.244	44.2
268.46	62.63
268.676	-0.85
268.892	-35.67
269.108	9.39
269.324	58.54
269.54	-7
269.756	46.25
269.972	7.34
270.188	52.39
270.403	17.58
270.619	103.59
270.835	-35.67
271.051	111.78
271.267	23.72
271.483	-31.57
271.698	38.06
271.914	-4.95
272.13	-21.33
272.346	52.39
272.562	7.34
272.777	3.24
272.993	52.39
273.209	25.77
273.425	-88.92
273.64	-33.62
273.856	66.73
274.072	-4.95
274.287	-27.48
274.503	42.15
274.719	21.67
274.934	50.35
275.15	-0.85
275.366	72.87
275.581	-7
275.797	-39.76
276.012	38.06
276.228	29.87
276.444	93.35
276.659	29.87
276.875	83.11
277.09	66.73
277.306	46.25
277.521	54.44
277.737	58.54
277.952	76.97
278.168	56.49
278.383	1.19
278.599	-13.14
278.814	40.11
279.03	97.45
279.245	62.63
279.461	50.35
279.676	46.25
279.892	38.06
280.107	-25.43
280.322	3.24
280.538	60.59
280.753	-19.29
280.969	60.59
281.184	25.77
281.399	36.01
281.615	-2.9
281.83	81.07
282.045	3.24
282.26	21.67
282.476	9.39
282.691	1.19
282.906	11.43
283.122	56.49
283.337	-17.24
283.552	15.53
283.767	5.29
283.983	68.78
284.198	-23.38
284.413	-4.95
284.628	31.91
284.843	21.67
285.058	31.91
285.274	29.87
285.489	11.43
285.704	85.16
285.919	-13.14
286.134	31.91
286.349	50.35
286.564	21.67
286.779	60.59
286.995	-21.33
287.21	-2.9
287.425	79.02
287.64	89.26
287.855	85.16
288.07	-11.09
288.285	25.77
288.5	85.16
288.715	31.91
288.93	-66.39
289.145	33.96
289.36	-15.19
289.575	101.55
289.79	29.87
290.004	-23.38
290.219	-23.38
290.434	-4.95
290.649	3.24
290.864	15.53
291.079	-23.38
291.294	66.73
291.509	-0.85
291.724	76.97
291.938	11.43
292.153	-23.38
292.368	99.5
292.583	56.49
292.798	1.19
293.012	97.45
293.227	29.87
293.442	76.97
293.657	23.72
293.871	48.3
294.086	76.97
294.301	33.96
294.516	74.92
294.73	66.73
294.945	64.68
295.16	29.87
295.374	-7
295.589	54.44
295.804	-72.53
296.018	68.78
296.233	46.25
296.447	68.78
296.662	-70.48
296.877	76.97
297.091	56.49
297.306	31.91
297.52	50.35
297.735	46.25
297.949	7.34
298.164	40.11
298.378	-39.76
298.593	19.63
298.807	-43.86
299.022	-58.2
299.236	11.43
299.451	87.21
299.665	1.19
299.88	56.49
300.094	11.43
300.309	9.39
300.523	-15.19
300.737	40.11
300.952	76.97
301.166	-17.24
301.381	15.53
301.595	44.2
301.809	50.35
302.024	33.96
302.238	13.48
302.452	79.02
302.667	36.01
302.881	119.98
303.095	58.54
303.309	54.44
303.524	9.39
303.738	-37.72
303.952	46.25
304.166	48.3
304.381	-21.33
304.595	89.26
304.809	-0.85
305.023	-50
305.237	68.78
305.452	87.21
305.666	23.72
305.88	15.53
306.094	17.58
306.308	7.34
306.522	46.25
306.736	56.49
306.95	23.72
307.164	-9.05
307.379	13.48
307.593	17.58
307.807	50.35
308.021	66.73
308.235	1.19
308.449	-13.14
308.663	31.91
308.877	29.87
309.091	33.96
309.305	42.15
309.519	-76.63
309.733	46.25
309.947	5.29
310.161	83.11
310.374	29.87
310.588	13.48
310.802	13.48
311.016	-7
311.23	13.48
311.444	-4.95
311.658	-9.05
311.872	3.24
312.085	38.06
312.299	-21.33
312.513	44.2
312.727	-7
312.941	27.82
313.154	66.73
313.368	81.07
313.582	-56.15
313.796	19.63
314.009	-21.33
314.223	50.35
314.437	85.16
314.651	-9.05
314.864	64.68
315.078	-19.29
315.292	-2.9
315.505	58.54
315.719	50.35
315.933	46.25
316.146	23.72
316.36	70.83
316.573	29.87
316.787	-19.29
317.001	33.96
317.214	-19.29
317.428	36.01
317.641	7.34
317.855	19.63
318.068	5.29
318.282	23.72
318.495	60.59
318.709	7.34
318.922	64.68
319.136	-13.14
319.349	21.67
319.563	21.67
319.776	31.91
319.99	23.72
320.203	15.53
320.417	31.91
320.63	31.91
320.843	87.21
321.057	38.06
321.27	-25.43
321.483	15.53
321.697	13.48
321.91	124.07
322.124	-21.33
322.337	66.73
322.55	11.43
322.763	56.49
322.977	95.4
323.19	40.11
323.403	44.2
323.617	25.77
323.83	23.72
324.043	-7
324.256	56.49
324.469	76.97
324.683	52.39
324.896	99.5
325.109	95.4
325.322	-7
325.535	-35.67
325.748	33.96
325.962	46.25
326.175	48.3
326.388	-29.52
326.601	38.06
326.814	21.67
327.027	3.24
327.24	103.59
327.453	-4.95
327.666	-2.9
327.879	25.77
328.092	66.73
328.305	13.48
328.518	-25.43
328.731	46.25
328.944	76.97
329.157	-21.33
329.37	-4.95
329.583	56.49
329.796	91.31
330.009	36.01
330.222	85.16
330.435	5.29
330.648	42.15
330.861	68.78
331.073	7.34
331.286	29.87
331.499	38.06
331.712	33.96
331.925	25.77
332.138	-0.85
332.35	52.39
332.563	7.34
332.776	29.87
332.989	58.54
333.202	-2.9
333.414	38.06
333.627	-86.87
333.84	46.25
334.053	97.45
334.265	-2.9
334.478	23.72
334.691	107.69
334.903	17.58
335.116	87.21
335.329	44.2
335.541	66.73
335.754	21.67
335.966	21.67
336.179	25.77
336.392	17.58
336.604	11.43
336.817	7.34
337.029	64.68
337.242	-33.62
337.454	54.44
337.667	70.83
337.88	44.2
338.092	38.06
338.305	70.83
338.517	31.91
338.729	21.67
338.942	60.59
339.154	-0.85
339.367	85.16
339.579	46.25
339.792	-9.05
340.004	21.67
340.217	15.53
340.429	66.73
340.641	-29.52
340.854	46.25
341.066	-35.67
341.278	42.15
341.491	124.07
341.703	27.82
341.915	58.54
342.128	93.35
342.34	15.53
342.552	-25.43
342.764	9.39
342.977	76.97
343.189	-2.9
343.401	58.54
343.613	19.63
343.826	62.63
344.038	7.34
344.25	50.35
344.462	50.35
344.674	95.4
344.886	-52.05
345.099	54.44
345.311	89.26
345.523	58.54
345.735	66.73
345.947	122.02
346.159	52.39
346.371	87.21
346.583	72.87
346.795	89.26
347.007	-2.9
347.219	89.26
347.431	29.87
347.643	-7
347.855	40.11
348.067	87.21
348.279	15.53
348.491	70.83
348.703	38.06
348.915	95.4
349.127	52.39
349.339	79.02
349.551	40.11
349.763	-0.85
349.975	7.34
350.187	46.25
350.399	72.87
350.61	68.78
350.822	62.63
351.034	76.97
351.246	-0.85
351.458	89.26
351.669	38.06
351.881	23.72
352.093	44.2
352.305	46.25
352.517	-2.9
352.728	68.78
352.94	-4.95
353.152	58.54
353.363	50.35
353.575	40.11
353.787	-23.38
353.999	60.59
354.21	76.97
354.422	111.78
354.633	31.91
354.845	128.17
355.057	56.49
355.268	9.39
355.48	38.06
355.692	19.63
355.903	-11.09
356.115	33.96
356.326	-2.9
356.538	83.11
356.749	42.15
356.961	68.78
357.172	68.78
357.384	87.21
357.595	52.39
357.807	31.91
358.018	58.54
358.23	58.54
358.441	62.63
358.653	99.5
358.864	115.88
359.075	-11.09
359.287	-19.29
359.498	101.55
359.709	40.11
359.921	50.35
360.132	44.2
360.344	54.44
360.555	25.77
360.766	19.63
360.977	27.82
361.189	107.69
361.4	62.63
361.611	33.96
361.823	89.26
362.034	-17.24
362.245	-37.72
362.456	27.82
362.667	-7
362.879	160.94
363.09	103.59
363.301	23.72
363.512	93.35
363.723	-0.85
363.935	27.82
364.146	29.87
364.357	15.53
364.568	117.93
364.779	58.54
364.99	97.45
365.201	-29.52
365.412	58.54
365.623	9.39
365.834	44.2
366.045	-31.57
366.256	72.87
366.467	52.39
366.678	17.58
366.889	15.53
367.1	109.74
367.311	87.21
367.522	27.82
367.733	99.5
367.944	76.97
368.155	44.2
368.366	62.63
368.577	31.91
368.788	85.16
368.999	40.11
369.209	105.64
369.42	58.54
369.631	58.54
369.842	105.64
370.053	44.2
370.264	70.83
370.474	-27.48
370.685	48.3
370.896	13.48
371.107	103.59
371.317	150.7
371.528	33.96
371.739	109.74
371.95	42.15
372.16	105.64
372.371	3.24
372.582	56.49
372.792	31.91
373.003	54.44
373.214	60.59
373.424	60.59
373.635	52.39
373.846	44.2
374.056	52.39
374.267	46.25
374.477	23.72
374.688	48.3
374.898	1.19
375.109	38.06
375.319	70.83
375.53	72.87
375.74	91.31
375.951	17.58
376.161	60.59
376.372	74.92
376.582	109.74
376.793	58.54
377.003	5.29
377.214	72.87
377.424	95.4
377.635	40.11
377.845	72.87
378.055	52.39
378.266	46.25
378.476	46.25
378.686	91.31
378.897	70.83
379.107	97.45
379.317	48.3
379.528	-35.67
379.738	103.59
379.948	76.97
380.158	50.35
380.369	50.35
380.579	44.2
380.789	83.11
380.999	27.82
381.21	95.4
381.42	142.5
381.63	64.68
381.84	119.98
382.05	50.35
382.261	85.16
382.471	79.02
382.681	33.96
382.891	56.49
383.101	103.59
383.311	7.34
383.521	68.78
383.731	33.96
383.941	122.02
384.151	76.97
384.361	64.68
384.571	99.5
384.781	38.06
384.991	70.83
385.201	52.39
385.411	68.78
385.621	54.44
385.831	-56.15
386.041	21.67
386.251	-33.62
386.461	103.59
386.671	105.64
386.881	50.35
387.091	72.87
387.301	58.54
387.511	21.67
387.72	7.34
387.93	40.11
388.14	91.31
388.35	89.26
388.56	97.45
388.769	-13.14
388.979	58.54
389.189	46.25
389.399	87.21
389.609	95.4
389.818	36.01
390.028	83.11
390.238	109.74
390.447	83.11
390.657	68.78
390.867	33.96
391.076	91.31
391.286	9.39
391.496	58.54
391.705	62.63
391.915	103.59
392.125	50.35
392.334	66.73
392.544	105.64
392.753	40.11
392.963	46.25
393.172	36.01
393.382	31.91
393.591	83.11
393.801	50.35
394.01	158.89
394.22	99.5
394.429	101.55
394.639	64.68
394.848	144.55
395.058	103.59
395.267	68.78
395.477	42.15
395.686	-23.38
395.895	113.83
396.105	101.55
396.314	128.17
396.524	50.35
396.733	111.78
396.942	136.36
397.152	152.74
397.361	142.5
397.57	132.26
397.78	60.59
397.989	66.73
398.198	160.94
398.407	-7
398.617	74.92
398.826	36.01
399.035	111.78
399.244	115.88
399.453	81.07
399.663	107.69
399.872	130.22
400.081	52.39
400.29	144.55
400.499	162.98
400.708	171.18
400.917	193.7
401.127	152.74
401.336	140.46
401.545	126.12
401.754	234.66
401.963	142.5
402.172	212.14
402.381	175.27
402.59	193.7
402.799	132.26
403.008	160.94
403.217	128.17
403.426	140.46
403.635	89.26
403.844	208.04
404.053	187.56
404.262	142.5
404.471	220.33
404.68	134.31
404.888	148.65
405.097	158.89
405.306	220.33
405.515	124.07
405.724	191.66
405.933	175.27
406.142	222.38
406.35	218.28
406.559	187.56
406.768	179.37
406.977	230.57
407.185	177.32
407.394	292.01
407.603	177.32
407.812	265.38
408.02	261.29
408.229	201.9
408.438	271.53
408.646	253.09
408.855	345.25
409.064	349.35
409.272	281.77
409.481	357.54
409.69	380.07
409.898	283.81
410.107	431.27
410.315	439.46
410.524	386.21
410.733	451.75
410.941	367.78
411.15	437.41
411.358	500.9
411.567	529.57
411.775	521.38
411.984	531.62
412.192	504.99
412.401	515.23
412.609	634.02
412.818	646.3
413.026	568.48
413.234	615.59
413.443	644.26
413.651	685.22
413.86	732.32
414.068	734.37
414.276	756.9
414.485	695.46
414.693	724.13
414.901	965.79
415.11	789.66
415.318	865.44
415.526	926.88
415.734	961.69
415.943	951.45
416.151	978.08
416.359	1031.32
416.567	1033.37
416.776	1103
416.984	1225.88
417.192	1246.36
417.4	1262.74
417.608	1262.74
417.817	1338.52
418.025	1313.94
418.233	1469.59
418.441	1348.76
418.649	1447.06
418.857	1520.79
419.065	1584.27
419.273	1473.68
419.481	1637.52
419.689	1680.53
419.897	1934.48
420.105	1959.05
420.313	1893.52
420.521	2020.49
420.729	2016.4
420.937	1950.86
421.145	2131.08
421.353	2167.95
421.561	2346.12
421.769	2354.31
421.977	2483.33
422.185	2520.2
422.393	2600.07
422.601	2948.22
422.809	2872.45
423.017	2874.49
423.224	2927.74
423.432	3146.87
423.64	3067
423.848	3390.58
424.056	3345.53
424.263	3589.24
424.471	3626.1
424.679	3665.01
424.887	3847.28
425.094	3802.22
425.302	3855.47
425.51	4066.41
425.718	4099.18
425.925	4195.43
426.133	4441.19
426.341	4637.8
426.548	4906.08
426.756	5008.48
426.964	4865.12
427.171	5205.08
427.379	5413.98
427.586	5452.89
427.794	5596.25
428.001	5973.07
428.209	6077.52
428.417	6044.75
428.624	6452.3
428.832	6554.69
429.039	6448.2
429.247	6618.18
429.454	7027.78
429.662	7691.32
429.869	7130.17
430.076	7599.16
430.284	7412.79
430.491	7633.97
430.699	8207.41
430.906	8129.58
431.114	8301.61
431.321	8733.73
431.528	8801.32
431.736	9253.92
431.943	9589.78
432.15	9589.78
432.358	9731.09
432.565	10185.74
432.772	10071.06
432.979	10468.36
433.187	10759.17
433.394	10951.68
433.601	11498.49
433.808	11568.12
434.016	11717.62
434.223	11906.04
434.43	12770.28
434.637	12590.06
434.844	13272.03
435.052	13724.63
435.259	13601.76
435.466	13523.93
435.673	13351.9
435.88	14443.47
436.087	15201.22
436.294	14853.06
436.501	14861.26
436.708	15414.21
436.915	15506.37
437.122	16501.68
437.329	16319.41
437.537	17003.43
437.743	17015.72
437.95	16995.24
438.157	17974.17
438.364	18525.07
438.571	18328.47
438.778	18520.98
438.985	20300.66
439.192	19415.94
439.399	20022.14
439.606	19676.03
439.813	20501.36
440.02	22170.46
440.227	21429.09
440.433	21318.5
440.64	22158.17
440.847	21959.52
441.054	22588.24
441.261	23790.4
441.467	23583.55
441.674	24298.3
441.881	25322.28
442.088	25037.61
442.294	24314.68
442.501	25473.83
442.708	25969.44
442.914	26962.7
443.121	28224.25
443.328	27257.61
443.534	29496.04
443.741	28420.86
443.948	27894.53
444.154	30069.47
444.361	29946.59
444.568	30253.79
444.774	30249.69
444.981	30595.8
445.187	31308.49
445.394	32535.23
445.6	32086.72
445.807	35189.39
446.013	33968.8
446.22	34556.57
446.426	35736.2
446.633	35977.86
446.839	37202.55
447.046	35756.68
447.252	37929.58
447.459	38113.89
447.665	37722.73
447.871	39406.16
448.078	40866.36
448.284	39135.83
448.491	39901.77
448.697	41390.64
448.903	42545.7
449.11	42304.04
449.316	41968.17
449.522	43096.6
449.728	43477.52
449.935	43848.21
450.141	43909.64
450.347	44943.87
450.553	43051.55
450.76	43792.91
450.966	45306.36
451.172	44501.51
451.378	45769.2
451.584	45093.37
451.791	45949.42
451.997	46166.51
452.203	46707.17
452.409	46973.41
452.615	46277.1
452.821	44745.22
453.027	44378.63
453.233	46547.43
453.44	44536.32
453.646	45195.77
453.852	45212.15
454.058	46004.72
454.264	44835.33
454.47	45701.62
454.676	44425.73
454.882	45967.85
455.088	41830.96
455.294	42615.33
455.5	43141.66
455.705	43653.65
455.911	42129.96
456.117	40792.64
456.323	40227.4
456.529	38666.84
456.735	40188.49
456.941	39238.23
457.147	38464.1
457.352	37599.85
457.558	37048.95
457.764	36827.77
457.97	36235.91
458.176	35363.47
458.381	35355.28
458.587	33579.69
458.793	33632.94
458.999	32082.63
459.204	34097.83
459.41	33325.74
459.616	31005.39
459.821	30941.91
460.027	30741.21
460.233	30255.84
460.438	28633.85
460.644	29321.96
460.85	28056.32
461.055	27245.32
461.261	27390.73
461.466	25168.68
461.672	24296.25
461.878	26495.77
462.083	24738.61
462.289	23946.05
462.494	23591.75
462.7	22811.47
462.905	22291.29
463.111	22784.85
463.316	22786.89
463.522	22661.97
463.727	22504.28
463.932	22688.59
464.138	22502.23
464.343	22461.27
464.549	21508.96
464.754	22418.26
464.959	22051.67
465.165	22049.63
465.37	21255.01
465.575	20425.59
465.781	21568.35
465.986	21355.36
466.191	20802.41
466.397	20327.28
466.602	19270.53
466.807	20413.3
467.012	20222.84
467.218	19989.37
467.423	19899.26
467.628	19819.39
467.833	20941.68
468.038	19807.1
468.244	19186.57
468.449	20362.1
468.654	19610.5
468.859	19581.82
469.064	19358.6
469.269	18279.32
469.474	18695.05
469.679	19035.02
469.885	18510.74
470.09	18723.72
470.295	18754.44
470.5	18434.96
470.705	18287.51
470.91	17902.49
471.115	17931.16
471.32	17990.55
471.525	17705.88
471.73	17216.42
471.935	17005.48
472.139	16634.8
472.344	16925.61
472.549	16649.13
472.754	16499.63
472.959	16423.86
473.164	15977.4
473.369	15752.12
473.574	16360.37
473.778	15909.82
473.983	16114.61
474.188	15791.03
474.393	15074.24
474.598	15184.83
474.802	14902.22
475.007	15107.01
475.212	14773.19
475.417	14408.65
475.621	14523.34
475.826	14662.6
476.031	14214.1
476.235	13814.74
476.44	13829.08
476.645	13859.8
476.849	13786.07
477.054	13573.08
477.259	13577.18
477.463	13523.93
477.668	13163.49
477.872	13284.32
478.077	13165.54
478.282	12850.15
478.486	12594.15
478.691	12698.6
478.895	12647.4
479.1	12461.04
479.304	12645.35
479.509	12211.18
479.713	12237.81
479.918	12254.19
480.122	12035.06
480.326	11942.9
480.531	12159.99
480.735	11752.44
480.94	12004.34
481.144	11908.08
481.348	11613.18
481.553	11713.53
481.757	11609.08
481.961	11824.12
482.166	11662.33
482.37	11742.2
482.574	11488.25
482.778	11445.24
482.983	11459.58
483.187	11500.54
483.391	11478.01
483.595	11432.96
483.8	11506.68
484.004	11365.37
484.208	11664.38
484.412	11693.05
484.616	11527.16
484.821	11627.51
485.025	11355.13
485.229	11549.69
485.433	11346.94
485.637	11523.07
485.841	11256.83
486.045	11351.04
486.249	11416.57
486.453	11547.64
486.657	11539.45
486.861	11537.4
487.065	11494.4
487.269	11445.24
487.473	11312.13
487.677	11441.15
487.881	11635.71
488.085	11516.92
488.289	11445.24
488.493	11543.55
488.697	11596.79
488.901	11746.3
489.105	11637.75
489.309	11600.89
489.512	11717.62
489.716	11521.02
489.92	11535.35
490.124	11582.46
490.328	11566.07
490.531	11658.23
490.735	11834.36
490.939	11926.52
491.143	11756.54
491.346	11709.43
491.55	11756.54
491.754	11897.85
491.958	11940.85
492.161	11985.91
492.365	12246
492.569	12069.87
492.772	11903.99
492.976	12116.98
493.18	12053.49
493.383	12407.79
493.587	12243.95
493.79	12528.62
493.994	12436.46
494.197	12772.33
494.401	12473.32
494.605	12454.89
494.808	12768.23
495.012	12837.86
495.215	13194.21
495.419	13222.88
495.622	12868.58
495.825	13241.31
496.029	13372.38
496.232	13677.53
496.436	13417.44
496.639	13814.74
496.843	13611.99
497.046	13994.97
497.249	14058.45
497.453	14277.58
497.656	14525.39
497.859	14205.91
498.063	14466
498.266	14676.94
498.469	14785.48
498.673	14877.64
498.876	15102.92
499.079	15293.38
499.282	15225.79
499.485	15573.95
499.689	15680.44
499.892	15913.91
500.095	15797.18
500.298	16550.83
500.501	16083.89
500.705	16542.64
500.908	16688.04
501.111	16790.44
501.314	16933.8
501.517	17114.02
501.72	17470.37
501.923	17398.69
502.126	18068.37
502.329	18109.33
502.532	18236.31
502.735	18584.46
502.938	18740.11
503.141	18414.48
503.344	19417.99
503.547	18924.43
503.75	18942.86
503.953	19532.67
504.156	19972.99
504.359	19805.05
504.562	19872.64
504.765	20802.41
504.968	20532.08
505.17	20923.24
505.373	20947.82
505.576	21445.48
505.779	21461.86
505.982	21666.66
506.185	22121.31
506.387	21980
506.59	22203.22
506.793	22653.78
506.996	22408.02
507.198	23087.95
507.401	23294.79
507.604	23485.25
507.807	23518.02
508.009	23839.55
508.212	24015.68
508.415	24607.54
508.617	24484.66
508.82	24339.26
509.022	24724.27
509.225	25600.8
509.428	25326.38
509.63	25576.23
509.833	25772.83
510.035	26217.24
510.238	26288.92
510.44	26970.9
510.643	26880.78
510.845	27140.88
511.048	27214.6
511.25	27470.6
511.453	27681.54
511.655	28488.44
511.858	28058.37
512.06	28312.31
512.262	28793.59
512.465	29063.92
512.667	29315.82
512.87	29303.53
513.072	29860.58
513.274	30024.42
513.477	30429.91
513.679	30628.57
513.881	30917.33
514.084	31247.05
514.286	31032.02
514.488	31531.72
514.69	32475.84
514.893	32109.25
515.095	31976.13
515.297	32484.03
515.499	32690.87
515.701	33049.27
515.904	33518.25
516.106	33804.97
516.308	34226.85
516.51	34349.73
516.712	34519.71
516.914	34456.22
517.116	35193.49
517.318	35058.32
517.52	35347.09
517.722	35232.4
517.925	35897.99
518.127	36350.59
518.329	36110.98
518.531	36614.78
518.733	37263.99
518.935	37403.25
519.136	37325.43
519.338	37952.1
519.54	37923.43
519.742	38044.26
519.944	38625.89
520.146	38955.61
520.348	39330.39
520.55	39311.95
520.752	39410.26
520.954	40010.31
521.155	40036.94
521.357	40387.14
521.559	40528.45
521.761	41390.64
521.963	41171.51
522.164	41630.26
522.366	41636.4
522.568	41943.59
522.77	41970.22
522.971	42711.58
523.173	42224.17
523.375	42932.76
523.576	42732.06
523.778	42437.16
523.98	43510.29
524.181	43282.97
524.383	43448.85
524.584	44380.68
524.786	43461.14
524.988	44065.29
525.189	44659.2
525.391	44743.17
525.592	44796.42
525.794	44988.92
525.995	44599.81
526.197	44868.09
526.398	45267.45
526.6	45322.74
526.801	45359.61
527.003	45994.48
527.204	45734.38
527.406	46316.01
527.607	46057.96
527.808	45933.04
528.01	45724.14
528.211	46125.55
528.412	47028.7
528.614	46723.55
528.815	46569.96
529.016	47346.14
529.218	47000.03
529.419	46934.49
529.62	46938.59
529.822	46694.88
530.023	47065.56
530.224	47409.62
530.425	47022.56
530.626	47014.37
530.828	47038.94
531.029	47598.04
531.23	47296.98
531.431	47229.4
531.632	47602.13
531.833	48075.21
532.035	47765.97
532.236	47632.85
532.437	47806.93
532.638	47249.88
532.839	47722.96
533.04	47825.36
533.241	46971.36
533.442	48261.58
533.643	47884.75
533.844	47798.74
534.045	47972.81
534.246	47399.38
534.447	47835.6
534.648	47663.57
534.849	48046.54
535.05	47544.79
535.251	47829.46
535.451	47507.93
535.652	47786.45
535.853	47882.7
536.054	47811.03
536.255	47849.94
536.456	47229.4
536.657	48294.35
536.857	47368.66
537.058	47847.89
537.259	48349.64
537.46	47796.69
537.66	47649.24
537.861	48089.55
538.062	47938
538.263	47942.1
538.463	47694.29
538.664	47729.11
538.865	47585.75
539.065	47868.37
539.266	47141.34
539.466	48005.58
539.667	47364.57
539.868	47921.62
540.068	47735.25
540.269	47483.35
540.469	47720.91
540.67	47538.65
540.87	47620.56
541.071	47290.84
541.271	47626.71
541.472	47315.42
541.672	46971.36
541.873	47346.14
542.073	47004.13
542.274	47890.9
542.474	47505.88
542.675	47253.98
542.875	47632.85
543.075	47282.65
543.276	47096.28
543.476	47616.47
543.676	46844.38
543.877	47880.66
544.077	47213.02
544.277	47204.83
544.478	47020.51
544.678	47094.24
544.878	47143.39
545.078	47540.69
545.279	46963.17
545.479	47159.77
545.679	47172.06
545.879	46961.12
546.079	47057.37
546.28	47274.46
546.48	46877.15
546.68	47077.85
546.88	47241.69
547.08	47210.97
547.28	46895.58
547.48	46492.13
547.68	46698.98
547.88	46492.13
548.081	47174.11
548.281	46516.71
548.481	46817.76
548.681	47329.75
548.881	46805.47
549.081	46625.25
549.28	46248.42
549.48	47215.07
549.68	46828
549.88	47206.87
550.08	46537.19
550.28	46940.64
550.48	46729.7
550.68	47133.15
550.88	46389.73
551.08	46754.27
551.279	46590.44
551.479	46420.45
551.679	46858.72
551.879	46428.65
552.079	46914.01
552.278	46615.01
552.478	46363.11
552.678	46651.87
552.878	46866.91
553.077	46549.48
553.277	46012.91
553.477	46897.63
553.676	46647.78
553.876	46250.47
554.076	46422.5
554.275	46287.34
554.475	45844.98
554.674	46565.86
554.874	46559.72
555.074	45904.37
555.273	46223.85
555.473	46346.73
555.672	45969.9
555.872	45390.33
556.071	45963.76
556.271	46338.54
556.47	45521.4
556.67	45726.19
556.869	46000.62
557.068	46469.61
557.268	45402.61
557.467	46158.31
557.667	45685.23
557.866	45509.11
558.065	45693.43
558.265	45332.98
558.464	45447.67
558.663	45851.12
558.863	45345.27
559.062	46338.54
559.261	44845.57
559.461	45957.61
559.66	44968.44
559.859	45353.46
560.058	45089.27
560.258	45083.13
560.457	44489.22
560.656	45453.81
560.855	44749.31
561.054	45208.06
561.253	44866.05
561.453	45011.45
561.652	44880.38
561.851	45156.86
562.05	44970.49
562.249	44374.53
562.448	44956.16
562.647	44968.44
562.846	44302.85
563.045	44804.61
563.244	43766.29
563.443	44814.85
563.642	43844.11
563.841	43983.37
564.04	43807.25
564.239	44233.22
564.438	43979.28
564.637	44132.87
564.836	44288.52
565.035	43688.46
565.234	43833.87
565.432	44016.14
565.631	44024.33
565.83	43719.18
566.029	43285.01
566.228	43672.08
566.427	43553.3
566.625	43344.41
566.824	42926.62
567.023	43031.07
567.222	42779.17
567.42	43485.72
567.619	43112.98
567.818	42758.69
568.016	43065.88
568.215	43174.42
568.414	42621.47
568.612	43293.21
568.811	42562.08
569.01	42519.07
569.208	42166.82
569.407	42748.45
569.605	42195.49
569.804	42580.51
570.002	42211.88
570.201	42287.65
570.4	41957.93
570.598	42021.42
570.797	41912.88
570.995	41687.6
571.193	41388.6
571.392	42072.62
571.59	41364.02
571.789	41439.79
571.987	41931.31
572.186	41243.19
572.384	41214.52
572.582	41544.24
572.781	41302.58
572.979	40677.95
573.177	40942.14
573.376	41298.48
573.574	41275.96
573.772	41210.42
573.971	40520.26
574.169	40792.64
574.367	40405.57
574.565	40706.62
574.763	40356.42
574.962	40286.79
575.16	39916.11
575.358	40288.84
575.556	39227.99
575.754	40284.74
575.952	39547.47
576.151	40333.89
576.349	39541.33
576.547	39492.18
576.745	39539.28
576.943	39967.3
577.141	39111.25
577.339	39531.09
577.537	39434.83
577.735	38992.47
577.933	38529.63
578.131	39402.07
578.329	39174.74
578.527	38353.51
578.725	38548.06
578.923	39111.25
579.121	38513.25
579.319	38416.99
579.516	38726.24
579.714	38333.03
579.912	38099.56
580.11	38304.35
580.308	37993.06
580.506	37790.31
580.704	37522.03
580.901	37880.42
581.099	37968.49
581.297	37517.93
581.495	37149.3
581.692	37714.54
581.89	37415.54
582.088	37659.24
582.285	37098.1
582.483	37182.07
582.681	37433.97
582.878	36815.48
583.076	36373.12
583.274	37010.04
583.471	36801.15
583.669	36751.99
583.866	36475.52
584.064	36780.67
584.262	36102.79
584.459	36424.32
584.657	36299.39
584.854	36244.1
585.052	35740.3
585.249	36055.68
585.447	36215.43
585.644	35691.15
585.841	35697.29
586.039	35951.24
586.236	35535.5
586.434	35259.02
586.631	35162.77
586.828	35261.07
587.026	35156.63
587.223	34886.29
587.42	35015.32
587.618	34957.97
587.815	34607.77
588.012	34511.52
588.21	34460.32
588.407	34630.3
588.604	34259.62
588.801	34224.8
588.999	34245.28
589.196	33847.97
589.393	34052.77
589.59	33675.94
589.787	33591.98
589.984	33667.75
590.182	33489.58
590.379	33933.99
590.576	33157.81
590.773	33258.16
590.97	33360.56
591.167	33456.81
591.364	32996.02
591.561	33274.54
591.758	32766.65
591.955	32668.34
592.152	33120.95
592.349	32561.85
592.546	32631.48
592.743	32537.27
592.94	32148.16
593.137	32314.05
593.334	32445.12
593.531	32238.27
593.727	32309.95
593.924	31840.96
594.121	31550.15
594.318	31718.09
594.515	31222.48
594.712	31687.37
594.908	31396.56
595.105	31691.46
595.302	30999.25
595.499	31216.33
595.696	31081.17
595.892	30937.81
596.089	30669.53
596.286	31122.13
596.482	30837.46
596.679	30853.84
596.876	30767.83
597.072	30323.42
597.269	30624.47
597.466	30094.05
597.662	30282.46
597.859	30040.8
598.055	30288.6
598.252	29932.26
598.448	29704.93
598.645	29969.12
598.841	29416.17
599.038	29682.41
599.234	29520.62
599.431	28986.1
599.627	29487.85
599.824	29545.19
600.02	29074.16
600.217	29412.07
600.413	28748.53
600.609	28803.83
600.806	28963.57
601.002	29391.59
601.198	28906.23
601.395	28556.02
601.591	28003.07
601.787	28607.22
601.984	28224.25
602.18	28353.27
602.376	27814.66
602.572	28060.41
602.769	28224.25
602.965	27484.94
603.161	27955.97
603.357	27630.34
603.553	27673.35
603.75	27769.6
603.946	27339.53
604.142	27583.24
604.338	27288.33
604.534	27048.72
604.73	27194.12
604.926	26833.68
605.122	27192.08
605.318	26831.63
605.514	26786.58
605.71	26723.09
605.906	26688.28
606.102	26874.64
606.298	26755.86
606.494	26653.46
606.69	26606.36
606.886	26718.99
607.082	26258.2
607.278	26489.62
607.474	25885.47
607.67	26264.35
607.866	25760.55
608.062	26346.26
608.257	26082.08
608.453	26106.65
608.649	25750.31
608.845	25776.93
609.041	25766.69
609.236	25817.89
609.432	25629.48
609.628	25535.27
609.824	25731.87
610.019	25236.27
610.215	25410.34
610.411	25375.53
610.606	25127.72
610.802	25377.58
610.998	25185.07
611.193	25297.7
611.389	25393.96
611.584	25137.96
611.78	24836.91
611.976	24828.72
612.171	25187.11
612.367	24904.49
612.562	24593.2
612.758	24654.64
612.953	24429.37
613.149	25039.66
613.344	24316.73
613.539	24697.65
613.735	24187.71
613.93	24537.91
614.126	24472.37
614.321	24798
614.517	24478.52
614.712	24277.82
614.907	24140.6
615.103	24386.36
615.298	23939.9
615.493	24288.06
615.688	23941.95
615.884	24283.96
616.079	23587.65
616.274	23958.33
616.47	23968.57
616.665	23948.09
616.86	23896.89
617.055	23591.75
617.25	23518.02
617.445	23851.84
617.641	23071.56
617.836	23499.59
618.031	23393.09
618.226	23321.41
618.421	23186.25
618.616	23612.23
618.811	22963.02
619.006	23589.7
619.201	22788.94
619.396	23405.38
619.591	22815.57
619.786	22836.05
619.981	22408.02
620.176	22494.04
620.371	22176.6
620.566	22317.91
620.761	22375.25
620.956	22612.82
621.151	21920.6
621.346	22203.22
621.541	21732.19
621.735	21832.54
621.93	21533.54
622.125	21680.99
622.32	21203.82
622.515	21343.08
622.709	21365.6
622.904	20880.24
623.099	21152.62
623.294	20724.59
623.488	20710.25
623.683	20622.19
623.878	20448.11
624.072	20591.47
624.267	20501.36
624.462	20327.28
624.656	20099.96
624.851	20020.09
625.046	19952.51
625.24	19792.76
625.435	19673.98
625.629	19721.09
625.824	19483.52
626.018	19299.2
626.213	18848.65
626.407	19188.61
626.602	18908.04
626.796	19211.14
626.991	19002.25
627.185	19047.3
627.38	18588.56
627.574	18598.8
627.768	18531.22
627.963	18338.71
628.157	18115.48
628.352	18316.18
628.546	18025.37
628.74	17877.91
628.935	17927.07
629.129	17839
629.323	17480.61
629.517	17638.3
629.712	17404.83
629.906	17513.38
630.1	17138.6
630.294	17191.84
630.489	17105.83
630.683	17220.52
630.877	16886.7
631.071	16700.33
631.265	16853.93
631.459	16493.49
631.653	16593.84
631.848	16544.69
632.042	16466.86
632.236	16405.42
632.43	16042.93
632.624	16206.77
632.818	16143.28
633.012	15801.27
633.206	16296.88
633.4	16042.93
633.594	15786.94
633.788	15696.83
633.982	15696.83
634.176	15375.3
634.369	15403.97
634.563	15266.75
634.757	15303.62
634.951	15115.2
635.145	15164.36
635.339	15016.9
635.533	14541.77
635.726	15027.14
635.92	14719.95
636.114	14826.44
636.308	14906.31
636.501	14631.88
636.695	14402.51
636.889	14494.67
637.083	14261.2
637.276	14212.05
637.47	14287.82
637.664	14281.68
637.857	14166.99
638.051	13954.01
638.244	14078.93
638.438	13847.51
638.632	14035.92
638.825	13542.36
639.019	13587.42
639.212	13325.28
639.406	13210.59
639.599	13482.97
639.793	13388.77
639.986	13097.95
640.18	13253.6
640.373	13233.12
640.567	12944.36
640.76	12921.83
640.954	12930.02
641.147	12737.51
641.34	12618.73
641.534	12749.8
641.727	12563.43
641.92	12526.57
642.114	12184.56
642.307	12348.4
642.5	12340.21
642.694	12282.86
642.887	12223.47
643.08	12145.65
643.273	12092.4
643.467	11975.67
643.66	12073.97
643.853	11965.43
644.046	11658.23
644.239	11926.52
644.432	11633.66
644.626	11680.76
644.819	11566.07
645.012	11353.09
645.205	11604.99
645.398	11559.93
645.591	11260.93
645.784	11426.81
645.977	11146.24
646.17	11275.26
646.363	10961.92
646.556	11009.03
646.749	10910.72
646.942	11090.95
647.135	11037.7
647.328	10726.41
647.521	10535.95
647.714	10796.04
647.907	10720.26
648.099	10478.6
648.292	10726.41
648.485	10519.56
648.678	10339.34
648.871	10210.32
649.064	10050.58
649.256	10437.64
649.449	10069.01
649.642	10003.47
649.835	9939.99
650.027	9925.65
650.22	9890.84
650.413	10062.87
650.605	9856.02
650.798	9815.06
650.991	9669.66
651.183	9966.61
651.376	9630.74
651.568	9618.46
651.761	9542.68
651.954	9544.73
652.146	9430.04
652.339	9307.16
652.531	9258.01
652.724	9423.9
652.916	9382.94
653.109	9339.93
653.301	9333.79
653.494	9139.23
653.686	8897.57
653.879	8956.96
654.071	8913.95
654.263	8868.9
654.456	8918.05
654.648	8868.9
654.84	8813.6
655.033	8617
655.225	8670.25
655.417	8696.87
655.61	8660.01
655.802	8653.86
655.994	8819.75
656.186	8606.76
656.379	8274.99
656.571	8514.6
656.763	8356.91
656.955	8383.53
657.148	8295.47
657.34	8272.94
657.532	8199.21
657.724	8027.18
657.916	8025.14
658.108	7969.84
658.3	7885.87
658.492	7914.55
658.684	7908.4
658.876	7887.92
659.068	7822.39
659.26	7595.06
659.452	7597.11
659.644	7824.44
659.836	7584.82
660.028	7660.6
660.22	7607.35
660.412	7449.66
660.604	7431.23
660.796	7494.71
660.988	7494.71
661.18	7316.54
661.372	7320.63
661.563	7081.02
661.755	7160.89
661.947	7289.92
662.139	7152.7
662.331	7081.02
662.522	7038.02
662.714	6995.01
662.906	7119.93
663.097	6843.46
663.289	7031.87
663.481	6960.19
663.673	6900.8
663.864	6765.64
664.056	6810.69
664.247	6896.71
664.439	6720.58
664.631	6841.41
664.822	6653
665.014	6712.39
665.205	6620.23
665.397	6712.39
665.588	6536.26
665.78	6476.87
665.971	6339.66
666.163	6468.68
666.354	6573.13
666.546	6280.27
666.737	6368.33
666.929	6300.75
667.12	6364.23
667.311	6319.18
667.503	6235.21
667.694	6085.71
667.885	6052.94
668.077	6151.24
668.268	6167.63
668.459	6003.79
668.651	6159.44
668.842	6079.57
669.033	5819.47
669.224	5882.96
669.416	5981.26
669.607	5991.5
669.798	5784.66
669.989	5868.63
670.18	5776.47
670.371	5751.89
670.563	5706.84
670.754	5760.08
670.945	5710.93
671.136	5747.79
671.327	5618.77
671.518	5708.88
671.709	5647.44
671.9	5774.42
672.091	5336.15
672.282	5547.09
672.473	5567.57
672.664	5561.43
672.855	5475.42
673.046	5399.64
673.237	5483.61
673.428	5446.74
673.619	5311.58
673.809	5315.67
674	5370.97
674.191	5383.26
674.382	5373.02
674.573	5332.06
674.764	5059.68
674.954	5221.47
675.145	5237.85
675.336	5080.16
675.527	5102.68
675.717	5305.43
675.908	5108.83
676.099	5207.13
676.289	5170.27
676.48	5219.42
676.671	4871.26
676.861	5037.15
677.052	4959.33
677.243	4944.99
677.433	4752.48
677.624	5153.88
677.814	5006.43
678.005	4912.22
678.195	4940.9
678.386	4924.51
678.576	4863.07
678.767	4830.3
678.957	4893.79
679.148	4764.77
679.338	4721.76
679.529	4709.47
679.719	4809.83
679.909	4709.47
680.1	4785.25
680.29	4772.96
680.481	4717.67
680.671	4717.67
680.861	4721.76
681.052	4631.65
681.242	4736.1
681.432	4576.36
681.622	4492.39
681.813	4514.92
682.003	4697.19
682.193	4586.6
682.383	4551.78
682.573	4455.53
682.764	4396.14
682.954	4394.09
683.144	4469.86
683.334	4519.01
683.524	4428.9
683.714	4373.61
683.904	4291.69
684.094	4441.19
684.284	4394.09
684.474	4396.14
684.664	4408.42
684.854	4410.47
685.044	4359.27
685.234	4355.18
685.424	4283.5
685.614	4297.83
685.804	4213.87
685.994	4203.63
686.184	4271.21
686.374	4279.4
686.564	4052.08
686.753	4226.15
686.943	4207.72
687.133	4205.67
687.323	3955.82
687.513	4166.76
687.702	3984.49
687.892	3980.4
688.082	3929.2
688.272	4039.79
688.461	3974.25
688.651	3966.06
688.841	3724.4
689.03	3847.28
689.22	3961.97
689.41	3904.62
689.599	3863.66
689.789	3873.9
689.979	3914.86
690.168	3730.55
690.358	3898.48
690.547	3755.12
690.737	3730.55
690.926	3800.18
691.116	3695.73
691.305	3689.59
691.495	3656.82
691.684	3689.59
691.874	3570.8
692.063	3689.59
692.252	3611.76
692.442	3587.19
692.631	3619.96
692.82	3535.99
693.01	3574.9
693.199	3587.19
693.388	3587.19
693.578	3609.72
693.767	3558.52
693.956	3359.86
694.146	3486.84
694.335	3519.6
694.524	3472.5
694.713	3441.78
694.902	3392.63
695.092	3505.27
695.281	3437.69
695.47	3431.54
695.659	3470.45
695.848	3355.77
696.037	3509.37
696.226	3437.69
696.415	3437.69
696.604	3390.58
696.793	3372.15
696.982	3282.04
697.171	3296.38
697.36	3318.9
697.549	3261.56
697.738	3232.89
697.927	3298.42
698.116	3247.23
698.305	3144.83
698.494	3239.03
698.683	3282.04
698.872	3220.6
699.061	3222.65
699.25	3157.11
699.438	3107.96
699.627	3390.58
699.816	3249.27
700.005	3159.16
700.193	3226.75
700.382	3134.59
700.571	3284.09
700.76	3193.98
700.948	3171.45
701.137	3165.31
701.326	3226.75
701.514	3161.21
701.703	3232.89
701.892	3247.23
702.08	3214.46
702.269	3277.94
702.457	3193.98
702.646	3198.07
702.834	3060.86
703.023	3036.28
703.212	3200.12
703.4	3142.78
703.589	3228.79
703.777	3179.64
703.965	2927.74
704.154	3107.96
704.342	3097.72
704.531	3202.17
704.719	3034.24
704.907	3118.2
705.096	3046.52
705.284	3169.4
705.472	3009.66
705.661	3118.2
705.849	3091.58
706.037	3054.72
706.226	3103.87
706.414	3054.72
706.602	3077.24
706.79	2991.23
706.979	3032.19
707.167	2944.13
707.355	3085.44
707.543	3101.82
707.731	3091.58
707.919	3011.71
708.107	3026.04
708.296	2948.22
708.484	2890.88
708.672	3005.56
708.86	3058.81
709.048	2851.97
709.236	2950.27
709.424	3056.76
709.612	3056.76
709.8	3130.49
709.988	3021.95
710.176	2999.42
710.364	2954.37
710.551	2999.42
710.739	2923.65
710.927	2974.85
711.115	2923.65
711.303	3050.62
711.491	2933.89
711.679	2962.56
711.866	2899.07
712.054	2974.85
712.242	2841.73
712.43	3142.78
712.617	3013.76
712.805	2950.27
712.993	2972.8
713.181	2894.97
713.368	2905.21
713.556	2911.36
713.744	2864.25
713.931	3046.52
714.119	2925.69
714.306	3058.81
714.494	3011.71
714.682	2878.59
714.869	2868.35
715.057	2950.27
715.244	2815.1
715.432	2878.59
715.619	2983.04
715.807	2821.25
715.994	2800.77
716.182	2794.62
716.369	2995.32
716.556	2864.25
716.744	2884.73
716.931	2866.3
717.119	2991.23
717.306	2872.45
717.493	2899.07
717.681	2980.99
717.868	2780.29
718.055	2772.1
718.242	2829.44
718.43	2833.54
718.617	2872.45
718.804	2808.96
718.991	2786.43
719.179	2868.35
719.366	2813.06
719.553	2854.02
719.74	2815.1
719.927	2849.92
720.114	2825.34
720.301	2825.34
720.488	2864.25
720.676	2751.62
720.863	2831.49
721.05	2813.06
721.237	2690.18
721.424	2837.63
721.611	2849.92
721.798	2811.01
721.985	2778.24
722.172	2761.86
722.358	2780.29
722.545	2714.75
722.732	2784.38
722.919	2878.59
723.106	2731.14
723.293	2802.82
723.48	2897.02
723.667	2708.61
723.853	2659.46
724.04	2774.14
724.227	2737.28
724.414	2870.4
724.6	2573.44
724.787	2765.95
724.974	2825.34
725.161	2753.66
725.347	2679.94
725.534	2784.38
725.72	2761.86
725.907	2724.99
726.094	2688.13
726.28	2577.54
726.467	2634.88
726.653	2704.51
726.84	2733.18
727.027	2671.75
727.213	2610.31
727.4	2710.66
727.586	2636.93
727.773	2710.66
727.959	2663.55
728.145	2581.64
728.332	2694.27
728.518	2614.4
728.705	2686.08
728.891	2636.93
729.077	2606.21
729.264	2600.07
729.45	2610.31
729.636	2602.11
729.823	2479.24
730.009	2610.31
730.195	2593.92
730.382	2620.55
730.568	2624.64
730.754	2561.16
730.94	2528.39
731.126	2708.61
731.313	2745.47
731.499	2485.38
731.685	2473.09
731.871	2380.93
732.057	2495.62
732.243	2616.45
732.429	2559.11
732.615	2575.49
732.801	2524.29
732.987	2430.09
733.173	2559.11
733.359	2548.87
733.545	2546.82
733.731	2526.34
733.917	2585.73
734.103	2550.92
734.289	2466.95
734.475	2505.86
734.661	2522.24
734.847	2602.11
735.033	2501.76
735.219	2444.42
735.404	2403.46
735.59	2421.89
735.776	2471.04
735.962	2448.52
736.148	2495.62
736.333	2385.03
736.519	2372.74
736.705	2479.24
736.89	2419.85
737.076	2446.47
737.262	2376.84
737.447	2305.16
737.633	2348.17
737.819	2462.85
738.004	2323.59
738.19	2348.17
738.375	2452.61
738.561	2385.03
738.747	2434.18
738.932	2342.02
739.118	2282.63
739.303	2292.87
739.489	2321.54
739.674	2204.81
739.859	2366.6
740.045	2346.12
740.23	2362.5
740.416	2262.15
740.601	2249.86
740.786	2256.01
740.972	2307.21
741.157	2217.1
741.342	2231.43
741.528	2213
741.713	2356.36
741.898	2323.59
742.084	2182.28
742.269	2325.64
742.454	2124.94
742.639	2139.27
742.824	2204.81
743.01	2213
743.195	2288.78
743.38	2208.9
743.565	2118.79
743.75	2147.47
743.935	2139.27
744.12	2157.71
744.305	2014.35
744.49	2169.99
744.675	2133.13
744.86	1993.87
745.045	2030.73
745.23	2124.94
745.415	2116.75
745.6	2016.4
745.785	2069.64
745.97	1981.58
746.155	1973.39
746.34	2061.45
746.525	1907.85
746.71	2002.06
746.895	1993.87
747.079	1963.15
747.264	1862.8
747.449	2022.54
747.634	1891.47
747.819	1932.43
748.003	1920.14
748.188	1858.7
748.373	1887.37
748.557	1907.85
748.742	1928.33
748.927	1830.03
749.111	1840.27
749.296	1797.26
749.481	1881.23
749.665	1834.13
749.85	1707.15
750.034	1733.78
750.219	1801.36
750.404	1705.1
750.588	1725.58
750.773	1698.96
750.957	1686.67
751.141	1660.05
751.326	1701.01
751.51	1727.63
751.695	1608.85
751.879	1674.39
752.064	1633.43
752.248	1655.95
752.432	1639.57
752.617	1635.47
752.801	1598.61
752.985	1559.7
753.17	1658
753.354	1442.96
753.538	1502.36
753.722	1639.57
753.907	1510.55
754.091	1483.92
754.275	1516.69
754.459	1416.34
754.643	1422.48
754.828	1461.4
755.012	1408.15
755.196	1475.73
755.38	1490.07
755.564	1471.64
755.748	1373.33
755.932	1447.06
756.116	1354.9
756.3	1451.16
756.484	1395.86
756.668	1379.48
756.852	1248.41
757.036	1336.47
757.22	1287.32
757.404	1281.18
757.588	1307.8
757.772	1387.67
757.956	1287.32
758.14	1356.95
758.323	1229.98
758.507	1293.46
758.691	1346.71
758.875	1238.17
759.059	1336.47
759.242	1203.35
759.426	1248.41
759.61	1219.74
759.794	1236.12
759.977	1262.74
760.161	1283.22
760.345	1207.45
760.528	1195.16
760.712	1125.53
760.895	1135.77
761.079	1047.71
761.263	1043.61
761.446	1049.75
761.63	1178.78
761.813	1164.44
761.997	1086.62
762.18	1148.06
762.364	1133.72
762.547	1019.04
762.731	1113.24
762.914	1064.09
763.098	1088.67
763.281	1143.96
763.464	1082.52
763.648	1133.72
763.831	1004.7
764.015	984.22
764.198	1105.05
764.381	1045.66
764.564	1096.86
764.748	1010.84
764.931	1117.34
765.114	1041.56
765.297	1059.99
765.481	1016.99
765.664	1055.9
765.847	1012.89
766.03	1021.08
766.213	1012.89
766.397	971.93
766.58	1002.65
766.763	1029.27
766.946	963.74
767.129	963.74
767.312	994.46
767.495	992.41
767.678	996.51
767.861	978.08
768.044	998.56
768.227	949.4
768.41	955.55
768.593	953.5
768.776	926.88
768.959	1082.52
769.142	943.26
769.324	838.81
769.507	937.12
769.69	865.44
769.873	920.73
770.056	930.97
770.239	912.54
770.421	1010.84
770.604	933.02
770.787	945.31
770.97	857.25
771.152	980.12
771.335	892.06
771.518	849.05
771.7	863.39
771.883	906.4
772.066	836.77
772.248	828.57
772.431	847.01
772.613	859.29
772.796	793.76
772.978	896.16
773.161	924.83
773.343	781.47
773.526	861.34
773.708	748.7
773.891	814.24
774.073	808.09
774.256	804
774.438	855.2
774.621	767.13
774.803	816.29
774.985	771.23
775.168	754.85
775.35	769.18
775.532	677.02
775.715	672.93
775.897	742.56
776.079	789.66
776.261	705.7
776.444	750.75
776.626	695.46
776.808	646.3
776.99	763.04
777.173	806.05
777.355	742.56
777.537	750.75
777.719	703.65
777.901	760.99
778.083	646.3
778.265	642.21
778.447	722.08
778.629	660.64
778.811	660.64
778.993	654.5
779.175	781.47
779.357	654.5
779.539	670.88
779.721	642.21
779.903	601.25
780.085	584.87
780.267	609.44
780.449	689.31
780.631	625.83
780.812	554.15
780.994	613.54
781.176	574.63
781.358	613.54
781.54	572.58
781.721	679.07
781.903	625.83
782.085	566.43
782.267	535.71
782.448	572.58
782.63	537.76
782.812	521.38
782.993	476.32
783.175	537.76
783.357	539.81
783.538	511.14
783.72	554.15
783.901	556.19
784.083	586.91
784.264	513.19
784.446	437.41
784.627	494.76
784.809	449.7
784.99	455.84
785.172	523.43
785.353	416.93
785.535	541.86
785.716	521.38
785.897	455.84
786.079	367.78
786.26	421.03
786.441	455.84
786.623	464.04
786.804	486.56
786.985	482.47
787.167	504.99
787.348	386.21
787.529	396.45
787.71	496.8
787.891	455.84
788.073	402.6
788.254	373.92
788.435	457.89
788.616	416.93
788.797	416.93
788.978	408.74
789.159	359.59
789.34	388.26
789.522	443.56
789.703	429.22
789.884	468.13
790.065	363.69
790.246	400.55
790.427	337.06
790.607	406.69
790.788	449.7
790.969	353.45
791.15	384.16
791.331	386.21
791.512	371.88
791.693	332.97
791.874	382.12
792.054	414.88
792.235	388.26
792.416	337.06
792.597	304.29
792.778	310.44
792.958	343.21
793.139	408.74
793.32	355.49
793.5	308.39
793.681	378.02
793.862	439.46
794.042	322.73
794.223	277.67
794.404	298.15
794.584	285.86
794.765	294.05
794.945	388.26
795.126	300.2
795.306	289.96
795.487	294.05
795.667	283.81
795.848	287.91
796.028	310.44
796.209	304.29
796.389	322.73
796.57	310.44
796.75	271.53
796.93	320.68
797.111	314.53
797.291	298.15
797.471	261.29
797.652	345.25
797.832	298.15
798.012	283.81
798.192	261.29
798.373	271.53
798.553	273.57
798.733	294.05
798.913	242.85
799.093	261.29
799.274	335.01
799.454	265.38
799.634	253.09
799.814	201.9
799.994	265.38
800.174	339.11
800.354	277.67
800.534	259.24
800.714	275.62
800.894	273.57
801.074	253.09
801.254	269.48
801.434	345.25
801.614	259.24
801.794	189.61
801.974	619.68
802.154	240.81
802.334	316.58
802.514	224.42
802.693	261.29
802.873	230.57
803.053	255.14
803.233	234.66
803.413	255.14
803.592	230.57
803.772	165.03
803.952	287.91
804.131	222.38
804.311	253.09
804.491	197.8
804.67	179.37
804.85	222.38
805.03	218.28
805.209	224.42
805.389	119.98
805.568	181.42
805.748	210.09
805.928	275.62
806.107	273.57
806.287	195.75
806.466	244.9
806.646	171.18
806.825	203.94
807.004	218.28
807.184	261.29
807.363	322.73
807.543	187.56
807.722	130.22
807.901	179.37
808.081	220.33
808.26	181.42
808.439	203.94
808.619	21.67
808.798	156.84
808.977	230.57
809.156	175.27
809.336	224.42
809.515	201.9
809.694	158.89
809.873	146.6
810.052	142.5
810.231	191.66
810.411	281.77
810.59	216.23
810.769	187.56
810.948	195.75
811.127	109.74
811.306	189.61
811.485	238.76
811.664	193.7
811.843	150.7
812.022	152.74
812.201	181.42
812.38	273.57
812.559	81.07
812.737	199.85
812.916	160.94
813.095	142.5
813.274	154.79
813.453	144.55
813.632	160.94
813.811	169.13
813.989	156.84
814.168	91.31
814.347	95.4
814.526	154.79
814.704	89.26
814.883	232.62
815.062	150.7
815.24	124.07
815.419	107.69
815.598	130.22
815.776	79.02
815.955	146.6
816.133	132.26
816.312	97.45
816.49	107.69
816.669	162.98
816.847	119.98
817.026	150.7
817.204	132.26
817.383	160.94
817.561	99.5
817.74	111.78
817.918	138.41
818.097	132.26
818.275	148.65
818.453	134.31
818.632	119.98
818.81	81.07
818.988	-2.9
819.167	15.53
819.345	189.61
819.523	158.89
819.701	152.74
819.879	111.78
820.058	140.46
820.236	158.89
820.414	15.53
820.592	138.41
820.77	85.16
820.948	142.5
821.127	134.31
821.305	156.84
821.483	165.03
821.661	169.13
821.839	105.64
822.017	138.41
822.195	72.87
822.373	117.93
822.551	148.65
822.729	101.55
822.907	130.22
823.085	95.4
823.262	66.73
823.44	115.88
823.618	107.69
823.796	183.46
823.974	105.64
824.152	87.21
824.329	115.88
824.507	160.94
824.685	74.92
824.863	76.97
825.04	89.26
825.218	132.26
825.396	48.3
825.574	64.68
825.751	66.73
825.929	160.94
826.107	144.55
826.284	113.83
826.462	99.5
826.639	85.16
826.817	13.48
826.994	81.07
827.172	105.64
827.349	115.88
827.527	165.03
827.704	175.27
827.882	171.18
828.059	169.13
828.237	87.21
828.414	134.31
828.591	46.25
828.769	36.01
828.946	74.92
829.124	52.39
829.301	76.97
829.478	126.12
829.655	85.16
829.833	130.22
830.01	11.43
830.187	117.93
830.364	17.58
830.542	97.45
830.719	81.07
830.896	31.91
831.073	70.83
831.25	95.4
831.427	76.97
831.604	85.16
831.782	103.59
831.959	138.41
832.136	56.49
832.313	40.11
832.49	60.59
832.667	115.88
832.844	126.12
833.021	72.87
833.198	64.68
833.374	122.02
833.551	68.78
833.728	162.98
833.905	50.35
834.082	72.87
834.259	134.31
834.436	46.25
834.612	27.82
834.789	44.2
834.966	72.87
835.143	115.88
835.319	83.11
835.496	48.3
835.673	87.21
835.85	160.94
836.026	-31.57
836.203	72.87
836.38	72.87
836.556	89.26
836.733	17.58
836.909	74.92
837.086	93.35
837.262	29.87
837.439	27.82
837.616	-0.85
837.792	56.49
837.968	40.11
838.145	66.73
838.321	89.26
838.498	113.83
838.674	107.69
838.851	7.34
839.027	124.07
839.203	1.19
839.38	113.83
839.556	54.44
839.732	-2.9
839.909	81.07
840.085	93.35
840.261	62.63
840.437	40.11
840.614	83.11
840.79	124.07
840.966	31.91
841.142	-13.14
841.318	29.87
841.494	93.35
841.671	142.5
841.847	-23.38
842.023	15.53
842.199	173.22
842.375	7.34
842.551	91.31
842.727	-19.29
842.903	111.78
843.079	9.39
843.255	83.11
843.431	21.67
843.607	68.78
843.783	36.01
843.959	93.35
844.134	72.87
844.31	27.82
844.486	25.77
844.662	-37.72
844.838	87.21
845.013	81.07
845.189	109.74
845.365	111.78
845.541	60.59
845.716	17.58
845.892	107.69
846.068	-4.95
846.244	11.43
846.419	31.91
846.595	95.4
846.77	48.3
846.946	23.72
847.122	44.2
847.297	44.2
847.473	95.4
847.648	54.44
847.824	70.83
847.999	19.63
848.175	119.98
848.35	81.07
848.526	85.16
848.701	40.11
848.876	87.21
849.052	29.87
849.227	13.48
849.403	-39.76
849.578	19.63
849.753	81.07
849.929	85.16
850.104	29.87
850.279	85.16
850.454	62.63
850.63	5.29
850.805	62.63
850.98	9.39
851.155	83.11
851.33	-13.14
851.505	50.35
851.681	56.49
851.856	52.39
852.031	87.21
852.206	19.63
852.381	66.73
852.556	42.15
852.731	40.11
852.906	97.45
853.081	64.68
853.256	-17.24
853.431	-7
853.606	52.39
853.781	5.29
853.956	-4.95
854.131	23.72
854.305	93.35
854.48	99.5
854.655	-47.96
854.83	13.48
855.005	33.96
855.18	-25.43
855.354	54.44
855.529	-19.29
855.704	52.39
855.879	17.58
856.053	27.82
856.228	-4.95
856.403	13.48
856.577	48.3
856.752	9.39
856.926	23.72
857.101	9.39
857.276	38.06
857.45	-13.14
857.625	46.25
857.799	56.49
857.974	3.24
858.148	7.34
858.323	64.68
858.497	93.35
858.672	11.43
858.846	9.39
859.02	103.59
859.195	-29.52
859.369	-13.14
859.543	60.59
859.718	-13.14
859.892	23.72
860.066	7.34
860.241	44.2
860.415	9.39
860.589	-4.95
860.763	29.87
860.938	-23.38
861.112	60.59
861.286	13.48
861.46	52.39
861.634	-62.29
861.808	-7
861.982	31.91
862.157	-52.05
862.331	29.87
862.505	19.63
862.679	33.96
862.853	1.19
863.027	11.43
863.201	66.73
863.375	-23.38
863.549	87.21
863.722	50.35
863.896	136.36
864.07	23.72
864.244	48.3
864.418	111.78
864.592	66.73
864.766	48.3
864.939	101.55
865.113	15.53
865.287	-13.14
865.461	17.58
865.634	25.77
865.808	132.26
865.982	13.48
866.156	-4.95
866.329	5.29
866.503	58.54
866.676	36.01
866.85	21.67
867.024	-11.09
867.197	23.72
867.371	62.63
867.544	21.67
867.718	-9.05
867.891	50.35
868.065	56.49
868.238	-25.43
868.412	-0.85
868.585	-27.48
868.759	66.73
868.932	31.91
869.105	13.48
869.279	29.87
869.452	38.06
869.625	-35.67
869.799	31.91
869.972	-21.33
870.145	-54.1
870.319	7.34
870.492	13.48
870.665	93.35
870.838	-9.05
871.011	1.19
871.185	-0.85
871.358	3.24
871.531	-43.86
871.704	3.24
871.877	-17.24
872.05	11.43
872.223	44.2
872.396	9.39
872.569	3.24
872.742	-47.96
872.915	-7
873.088	-25.43
873.261	-35.67
873.434	66.73
873.607	7.34
873.78	68.78
873.953	-25.43
874.126	19.63
874.299	58.54
874.471	-33.62
874.644	-39.76
874.817	11.43
874.99	42.15
875.163	-13.14
875.335	15.53
875.508	36.01
875.681	29.87
875.853	-11.09
876.026	-2.9
876.199	31.91
876.371	40.11
876.544	9.39
876.717	62.63
876.889	-0.85
877.062	11.43
877.234	-33.62
877.407	-4.95
877.579	33.96
877.752	-52.05
877.924	-25.43
878.097	9.39
878.269	31.91
878.442	-2.9
878.614	-31.57
878.786	1.19
878.959	58.54
879.131	7.34
879.303	-107.35
879.476	58.54
879.648	93.35
879.82	62.63
879.993	1.19
880.165	54.44
880.337	-50
880.509	-52.05
880.681	23.72
880.854	17.58
881.026	-2.9
881.198	101.55
881.37	-37.72
881.542	-50
881.714	-33.62
881.886	19.63
882.058	-0.85
882.23	-11.09
882.402	36.01
882.574	-56.15
882.746	-35.67
882.918	50.35
883.09	60.59
883.262	-7
883.434	-56.15
883.606	-66.39
883.778	31.91
883.95	19.63
884.122	-23.38
884.293	-13.14
884.465	-15.19
884.637	68.78
884.809	-54.1
884.98	-35.67
885.152	11.43
885.324	7.34
885.496	15.53
885.667	36.01
885.839	-29.52
886.011	7.34
886.182	-2.9
886.354	46.25
886.525	60.59
886.697	76.97
886.869	-11.09
887.04	13.48
887.212	13.48
887.383	85.16
887.555	-50
887.726	60.59
887.897	-25.43
888.069	-13.14
888.24	27.82
888.412	33.96
888.583	23.72
888.754	5.29
888.926	13.48
889.097	38.06
889.268	-56.15
889.44	-9.05
889.611	-19.29
889.782	38.06
889.953	19.63
890.125	-15.19
890.296	81.07
890.467	-25.43
890.638	-64.34
890.809	29.87
890.98	-27.48
891.151	-27.48
891.323	33.96
891.494	31.91
891.665	-45.91
891.836	-15.19
892.007	46.25
892.178	-9.05
892.349	-4.95
892.52	31.91
892.691	79.02
892.862	-15.19
893.032	19.63
893.203	-25.43
893.374	-43.86
893.545	36.01
893.716	15.53
893.887	58.54
894.057	25.77
894.228	64.68
894.399	-4.95
894.57	91.31
894.74	38.06
894.911	27.82
895.082	9.39
895.253	-70.48
895.423	-23.38
895.594	-9.05
895.764	33.96
895.935	-23.38
896.106	17.58
896.276	-2.9
896.447	58.54
896.617	-4.95
896.788	-39.76
896.958	-2.9
897.129	-37.72
897.299	33.96
897.47	17.58
897.64	13.48
897.81	48.3
897.981	-15.19
898.151	66.73
898.322	-82.77
898.492	-50
898.662	54.44
898.832	25.77
899.003	11.43
899.173	-33.62
899.343	-23.38
899.513	-4.95
