Data from USB4F104151__34__12-00-42-912.txt Node

Date: Fri Mar 14 12:00:42 EDT 2025
User: louis
Spectrometer: USB4F10415
Trigger mode: 4
Integration Time (sec): 2.000000E-2
Scans to average: 1
Electric dark correction enabled: true
Nonlinearity correction enabled: false
Boxcar width: 0
XAxis mode: Wavelengths
Number of Pixels in Spectrum: 3648
>>>>>Begin Spectral Data<<<<<
178.204	-5.12
178.424	-5.12
178.644	-5.12
178.864	-72.7
179.084	-87.04
179.304	31.74
179.524	-23.55
179.744	-60.42
179.964	-27.65
180.184	11.26
180.404	-9.22
180.624	-31.74
180.844	50.18
181.064	-7.17
181.283	48.13
181.503	-19.46
181.723	37.89
181.943	50.18
182.163	31.74
182.383	-3.07
182.602	15.36
182.822	-29.7
183.042	68.61
183.262	58.37
183.482	23.55
183.701	15.36
183.921	56.32
184.141	-27.65
184.361	5.12
184.58	1.02
184.8	68.61
185.02	-5.12
185.239	25.6
185.459	-35.84
185.679	1.02
185.898	-9.22
186.118	31.74
186.338	60.42
186.557	-33.79
186.777	11.26
186.997	-19.46
187.216	-9.22
187.436	82.94
187.655	1.02
187.875	-3.07
188.095	23.55
188.314	44.03
188.534	54.27
188.753	17.41
188.973	-5.12
189.192	9.22
189.412	60.42
189.631	-3.07
189.851	17.41
190.07	56.32
190.29	68.61
190.509	-46.08
190.729	68.61
190.948	-5.12
191.168	35.84
191.387	70.65
191.607	-9.22
191.826	15.36
192.045	25.6
192.265	-15.36
192.484	37.89
192.704	25.6
192.923	91.13
193.142	46.08
193.362	54.27
193.581	33.79
193.8	15.36
194.02	7.17
194.239	7.17
194.458	-5.12
194.678	21.5
194.897	25.6
195.116	-15.36
195.335	41.98
195.555	1.02
195.774	27.65
195.993	46.08
196.212	-15.36
196.432	46.08
196.651	31.74
196.87	5.12
197.089	7.17
197.308	39.94
197.528	13.31
197.747	-7.17
197.966	25.6
198.185	128
198.404	-21.5
198.623	56.32
198.842	89.09
199.062	19.46
199.281	21.5
199.5	39.94
199.719	64.51
199.938	-39.94
200.157	-7.17
200.376	-11.26
200.595	80.89
200.814	56.32
201.033	-29.7
201.252	31.74
201.471	5.12
201.69	58.37
201.909	27.65
202.128	31.74
202.347	41.98
202.566	19.46
202.785	7.17
203.004	-60.42
203.223	56.32
203.442	9.22
203.661	7.17
203.879	70.65
204.098	44.03
204.317	-29.7
204.536	37.89
204.755	-3.07
204.974	-13.31
205.193	11.26
205.411	15.36
205.63	13.31
205.849	41.98
206.068	9.22
206.287	50.18
206.505	-35.84
206.724	-1.02
206.943	-7.17
207.162	125.95
207.381	25.6
207.599	5.12
207.818	-17.41
208.037	27.65
208.255	23.55
208.474	17.41
208.693	25.6
208.911	-17.41
209.13	62.46
209.349	-19.46
209.567	60.42
209.786	68.61
210.005	-62.46
210.223	1.02
210.442	70.65
210.661	-9.22
210.879	-50.18
211.098	15.36
211.316	-19.46
211.535	113.66
211.753	9.22
211.972	3.07
212.191	68.61
212.409	5.12
212.628	89.09
212.846	-60.42
213.065	25.6
213.283	31.74
213.502	13.31
213.72	50.18
213.938	9.22
214.157	52.22
214.375	-25.6
214.594	-54.27
214.812	-25.6
215.031	19.46
215.249	-7.17
215.467	50.18
215.686	99.33
215.904	70.65
216.122	-25.6
216.341	46.08
216.559	70.65
216.778	-41.98
216.996	64.51
217.214	-15.36
217.432	-7.17
217.651	50.18
217.869	31.74
218.087	66.56
218.306	1.02
218.524	130.05
218.742	-9.22
218.96	58.37
219.179	-31.74
219.397	56.32
219.615	44.03
219.833	17.41
220.051	-48.13
220.27	46.08
220.488	89.09
220.706	25.6
220.924	17.41
221.142	-3.07
221.36	52.22
221.578	-35.84
221.796	46.08
222.015	-1.02
222.233	31.74
222.451	58.37
222.669	-9.22
222.887	33.79
223.105	17.41
223.323	84.99
223.541	-11.26
223.759	-11.26
223.977	-11.26
224.195	35.84
224.413	50.18
224.631	19.46
224.849	99.33
225.067	15.36
225.285	84.99
225.503	44.03
225.721	3.07
225.939	3.07
226.157	17.41
226.375	89.09
226.592	-15.36
226.81	70.65
227.028	15.36
227.246	89.09
227.464	-1.02
227.682	54.27
227.9	35.84
228.117	54.27
228.335	15.36
228.553	56.32
228.771	33.79
228.989	-19.46
229.206	80.89
229.424	-27.65
229.642	-25.6
229.86	11.26
230.077	21.5
230.295	39.94
230.513	39.94
230.731	21.5
230.948	11.26
231.166	35.84
231.384	56.32
231.601	11.26
231.819	56.32
232.037	11.26
232.254	3.07
232.472	29.7
232.689	27.65
232.907	70.65
233.125	17.41
233.342	-39.94
233.56	19.46
233.777	25.6
233.995	-7.17
234.213	11.26
234.43	-17.41
234.648	13.31
234.865	46.08
235.083	15.36
235.3	17.41
235.518	72.7
235.735	-13.31
235.953	-21.5
236.17	-3.07
236.388	44.03
236.605	5.12
236.822	56.32
237.04	9.22
237.257	60.42
237.475	-3.07
237.692	121.85
237.909	27.65
238.127	46.08
238.344	52.22
238.562	9.22
238.779	54.27
238.996	-9.22
239.214	-25.6
239.431	74.75
239.648	48.13
239.865	9.22
240.083	33.79
240.3	37.89
240.517	41.98
240.735	-1.02
240.952	58.37
241.169	-3.07
241.386	41.98
241.603	5.12
241.821	29.7
242.038	70.65
242.255	-35.84
242.472	-54.27
242.689	95.23
242.907	140.29
243.124	-25.6
243.341	68.61
243.558	-29.7
243.775	25.6
243.992	-7.17
244.209	54.27
244.426	39.94
244.643	50.18
244.86	-44.03
245.078	35.84
245.295	80.89
245.512	-15.36
245.729	-23.55
245.946	19.46
246.163	5.12
246.38	-1.02
246.597	-3.07
246.814	3.07
247.031	-15.36
247.248	31.74
247.464	-9.22
247.681	-1.02
247.898	3.07
248.115	62.46
248.332	-29.7
248.549	56.32
248.766	58.37
248.983	-9.22
249.2	48.13
249.417	-13.31
249.633	-25.6
249.85	44.03
250.067	-1.02
250.284	68.61
250.501	66.56
250.717	56.32
250.934	25.6
251.151	89.09
251.368	-60.42
251.585	15.36
251.801	74.75
252.018	9.22
252.235	29.7
252.451	82.94
252.668	46.08
252.885	121.85
253.102	-7.17
253.318	-29.7
253.535	74.75
253.752	-17.41
253.968	62.46
254.185	-21.5
254.401	19.46
254.618	5.12
254.835	58.37
255.051	-50.18
255.268	62.46
255.484	9.22
255.701	15.36
255.917	-33.79
256.134	56.32
256.351	15.36
256.567	11.26
256.784	-13.31
257	-35.84
257.217	44.03
257.433	37.89
257.65	44.03
257.866	33.79
258.082	31.74
258.299	-3.07
258.515	54.27
258.732	-1.02
258.948	17.41
259.165	-13.31
259.381	-17.41
259.597	27.65
259.814	60.42
260.03	15.36
260.246	50.18
260.463	7.17
260.679	109.57
260.895	-9.22
261.112	84.99
261.328	17.41
261.544	35.84
261.761	13.31
261.977	25.6
262.193	44.03
262.409	105.47
262.626	48.13
262.842	91.13
263.058	21.5
263.274	56.32
263.49	50.18
263.707	-1.02
263.923	15.36
264.139	-21.5
264.355	37.89
264.571	13.31
264.787	-46.08
265.004	66.56
265.22	48.13
265.436	-48.13
265.652	64.51
265.868	46.08
266.084	19.46
266.3	21.5
266.516	-5.12
266.732	60.42
266.948	1.02
267.164	72.7
267.38	-56.32
267.596	11.26
267.812	23.55
268.028	31.74
268.244	105.47
268.46	1.02
268.676	13.31
268.892	-13.31
269.108	9.22
269.324	-9.22
269.54	-25.6
269.756	9.22
269.972	-17.41
270.188	35.84
270.403	-9.22
270.619	27.65
270.835	31.74
271.051	-11.26
271.267	-27.65
271.483	-9.22
271.698	76.8
271.914	29.7
272.13	-11.26
272.346	-50.18
272.562	15.36
272.777	5.12
272.993	-41.98
273.209	17.41
273.425	97.28
273.64	13.31
273.856	15.36
274.072	72.7
274.287	1.02
274.503	7.17
274.719	-3.07
274.934	7.17
275.15	13.31
275.366	44.03
275.581	21.5
275.797	105.47
276.012	5.12
276.228	-31.74
276.444	3.07
276.659	7.17
276.875	-23.55
277.09	1.02
277.306	70.65
277.521	46.08
277.737	48.13
277.952	25.6
278.168	56.32
278.383	35.84
278.599	23.55
278.814	-37.89
279.03	62.46
279.245	130.05
279.461	-46.08
279.676	31.74
279.892	89.09
280.107	5.12
280.322	-9.22
280.538	25.6
280.753	23.55
280.969	52.22
281.184	13.31
281.399	-25.6
281.615	25.6
281.83	33.79
282.045	31.74
282.26	39.94
282.476	9.22
282.691	17.41
282.906	-27.65
283.122	74.75
283.337	37.89
283.552	56.32
283.767	31.74
283.983	87.04
284.198	-5.12
284.413	33.79
284.628	-1.02
284.843	52.22
285.058	-48.13
285.274	-15.36
285.489	23.55
285.704	25.6
285.919	46.08
286.134	64.51
286.349	82.94
286.564	19.46
286.779	66.56
286.995	25.6
287.21	5.12
287.425	9.22
287.64	48.13
287.855	21.5
288.07	-17.41
288.285	60.42
288.5	39.94
288.715	9.22
288.93	-25.6
289.145	-54.27
289.36	-17.41
289.575	66.56
289.79	-23.55
290.004	31.74
290.219	58.37
290.434	70.65
290.649	46.08
290.864	23.55
291.079	-39.94
291.294	82.94
291.509	-11.26
291.724	5.12
291.938	3.07
292.153	56.32
292.368	-39.94
292.583	64.51
292.798	3.07
293.012	15.36
293.227	-27.65
293.442	21.5
293.657	-39.94
293.871	41.98
294.086	13.31
294.301	48.13
294.516	56.32
294.73	9.22
294.945	-48.13
295.16	15.36
295.374	25.6
295.589	52.22
295.804	17.41
296.018	44.03
296.233	52.22
296.447	31.74
296.662	-56.32
296.877	-17.41
297.091	13.31
297.306	54.27
297.52	25.6
297.735	58.37
297.949	19.46
298.164	64.51
298.378	29.7
298.593	13.31
298.807	27.65
299.022	97.28
299.236	80.89
299.451	23.55
299.665	5.12
299.88	31.74
300.094	-25.6
300.309	56.32
300.523	-25.6
300.737	-9.22
300.952	27.65
301.166	19.46
301.381	-11.26
301.595	37.89
301.809	9.22
302.024	66.56
302.238	3.07
302.452	76.8
302.667	66.56
302.881	39.94
303.095	103.42
303.309	-15.36
303.524	64.51
303.738	62.46
303.952	-3.07
304.166	-39.94
304.381	41.98
304.595	52.22
304.809	21.5
305.023	15.36
305.237	23.55
305.452	-3.07
305.666	66.56
305.88	9.22
306.094	-7.17
306.308	-13.31
306.522	50.18
306.736	-52.22
306.95	80.89
307.164	50.18
307.379	31.74
307.593	115.71
307.807	107.52
308.021	5.12
308.235	119.81
308.449	13.31
308.663	-9.22
308.877	31.74
309.091	-3.07
309.305	46.08
309.519	5.12
309.733	74.75
309.947	15.36
310.161	9.22
310.374	37.89
310.588	72.7
310.802	31.74
311.016	-39.94
311.23	125.95
311.444	54.27
311.658	-7.17
311.872	-11.26
312.085	-3.07
312.299	52.22
312.513	35.84
312.727	9.22
312.941	50.18
313.154	29.7
313.368	70.65
313.582	68.61
313.796	48.13
314.009	-5.12
314.223	97.28
314.437	70.65
314.651	23.55
314.864	74.75
315.078	-15.36
315.292	82.94
315.505	3.07
315.719	19.46
315.933	48.13
316.146	58.37
316.36	-41.98
316.573	31.74
316.787	66.56
317.001	-5.12
317.214	3.07
317.428	68.61
317.641	-7.17
317.855	72.7
318.068	-50.18
318.282	-7.17
318.495	21.5
318.709	60.42
318.922	9.22
319.136	78.85
319.349	136.19
319.563	13.31
319.776	58.37
319.99	46.08
320.203	68.61
320.417	41.98
320.63	56.32
320.843	109.57
321.057	72.7
321.27	78.85
321.483	25.6
321.697	41.98
321.91	13.31
322.124	107.52
322.337	70.65
322.55	-41.98
322.763	111.61
322.977	7.17
323.19	23.55
323.403	9.22
323.617	27.65
323.83	66.56
324.043	39.94
324.256	25.6
324.469	17.41
324.683	72.7
324.896	-74.75
325.109	-9.22
325.322	19.46
325.535	115.71
325.748	54.27
325.962	52.22
326.175	-21.5
326.388	31.74
326.601	68.61
326.814	-39.94
327.027	35.84
327.24	91.13
327.453	-17.41
327.666	13.31
327.879	37.89
328.092	-21.5
328.305	17.41
328.518	-7.17
328.731	56.32
328.944	64.51
329.157	25.6
329.37	48.13
329.583	74.75
329.796	95.23
330.009	1.02
330.222	56.32
330.435	29.7
330.648	54.27
330.861	107.52
331.073	33.79
331.286	64.51
331.499	72.7
331.712	31.74
331.925	37.89
332.138	-21.5
332.35	134.14
332.563	5.12
332.776	99.33
332.989	48.13
333.202	31.74
333.414	39.94
333.627	50.18
333.84	41.98
334.053	58.37
334.265	41.98
334.478	25.6
334.691	41.98
334.903	11.26
335.116	54.27
335.329	56.32
335.541	68.61
335.754	109.57
335.966	-33.79
336.179	7.17
336.392	-13.31
336.604	84.99
336.817	31.74
337.029	66.56
337.242	23.55
337.454	109.57
337.667	44.03
337.88	15.36
338.092	-1.02
338.305	33.79
338.517	15.36
338.729	95.23
338.942	17.41
339.154	31.74
339.367	25.6
339.579	37.89
339.792	29.7
340.004	31.74
340.217	-25.6
340.429	-7.17
340.641	-1.02
340.854	82.94
341.066	54.27
341.278	11.26
341.491	39.94
341.703	23.55
341.915	9.22
342.128	68.61
342.34	66.56
342.552	29.7
342.764	-35.84
342.977	115.71
343.189	91.13
343.401	7.17
343.613	-50.18
343.826	23.55
344.038	1.02
344.25	58.37
344.462	23.55
344.674	50.18
344.886	23.55
345.099	82.94
345.311	82.94
345.523	13.31
345.735	15.36
345.947	25.6
346.159	56.32
346.371	5.12
346.583	9.22
346.795	66.56
347.007	54.27
347.219	-35.84
347.431	-9.22
347.643	76.8
347.855	19.46
348.067	111.61
348.279	-19.46
348.491	5.12
348.703	72.7
348.915	74.75
349.127	-1.02
349.339	7.17
349.551	56.32
349.763	-25.6
349.975	113.66
350.187	60.42
350.399	35.84
350.61	-29.7
350.822	-13.31
351.034	-9.22
351.246	60.42
351.458	52.22
351.669	-25.6
351.881	25.6
352.093	111.61
352.305	58.37
352.517	54.27
352.728	72.7
352.94	27.65
353.152	11.26
353.363	60.42
353.575	11.26
353.787	74.75
353.999	17.41
354.21	68.61
354.422	37.89
354.633	-3.07
354.845	80.89
355.057	52.22
355.268	15.36
355.48	46.08
355.692	-11.26
355.903	52.22
356.115	48.13
356.326	11.26
356.538	107.52
356.749	74.75
356.961	107.52
357.172	5.12
357.384	91.13
357.595	15.36
357.807	66.56
358.018	13.31
358.23	-1.02
358.441	-13.31
358.653	58.37
358.864	-7.17
359.075	9.22
359.287	60.42
359.498	70.65
359.709	-11.26
359.921	37.89
360.132	142.33
360.344	11.26
360.555	-15.36
360.766	50.18
360.977	54.27
361.189	119.81
361.4	-1.02
361.611	37.89
361.823	25.6
362.034	68.61
362.245	35.84
362.456	33.79
362.667	29.7
362.879	9.22
363.09	52.22
363.301	54.27
363.512	-3.07
363.723	66.56
363.935	31.74
364.146	66.56
364.357	101.37
364.568	66.56
364.779	17.41
364.99	60.42
365.201	56.32
365.412	41.98
365.623	19.46
365.834	21.5
366.045	72.7
366.256	15.36
366.467	58.37
366.678	7.17
366.889	50.18
367.1	23.55
367.311	89.09
367.522	35.84
367.733	91.13
367.944	17.41
368.155	56.32
368.366	41.98
368.577	64.51
368.788	68.61
368.999	19.46
369.209	19.46
369.42	111.61
369.631	66.56
369.842	66.56
370.053	80.89
370.264	60.42
370.474	-11.26
370.685	37.89
370.896	9.22
371.107	84.99
371.317	64.51
371.528	39.94
371.739	111.61
371.95	62.46
372.16	101.37
372.371	101.37
372.582	-3.07
372.792	1.02
373.003	78.85
373.214	64.51
373.424	115.71
373.635	3.07
373.846	119.81
374.056	128
374.267	17.41
374.477	146.43
374.688	95.23
374.898	72.7
375.109	64.51
375.319	121.85
375.53	46.08
375.74	13.31
375.951	-9.22
376.161	48.13
376.372	78.85
376.582	56.32
376.793	62.46
377.003	-17.41
377.214	46.08
377.424	111.61
377.635	105.47
377.845	35.84
378.055	138.24
378.266	56.32
378.476	87.04
378.686	-3.07
378.897	19.46
379.107	66.56
379.317	111.61
379.528	27.65
379.738	15.36
379.948	-25.6
380.158	35.84
380.369	27.65
380.579	117.76
380.789	78.85
380.999	-5.12
381.21	19.46
381.42	54.27
381.63	11.26
381.84	105.47
382.05	39.94
382.261	-11.26
382.471	150.53
382.681	-19.46
382.891	70.65
383.101	84.99
383.311	3.07
383.521	119.81
383.731	128
383.941	84.99
384.151	1.02
384.361	62.46
384.571	105.47
384.781	97.28
384.991	9.22
385.201	54.27
385.411	123.9
385.621	17.41
385.831	113.66
386.041	72.7
386.251	19.46
386.461	123.9
386.671	35.84
386.881	39.94
387.091	95.23
387.301	64.51
387.511	35.84
387.72	66.56
387.93	29.7
388.14	84.99
388.35	21.5
388.56	29.7
388.769	58.37
388.979	99.33
389.189	72.7
389.399	17.41
389.609	72.7
389.818	39.94
390.028	33.79
390.238	70.65
390.447	13.31
390.657	56.32
390.867	50.18
391.076	115.71
391.286	66.56
391.496	64.51
391.705	66.56
391.915	95.23
392.125	25.6
392.334	70.65
392.544	123.9
392.753	130.05
392.963	60.42
393.172	89.09
393.382	35.84
393.591	82.94
393.801	68.61
394.01	95.23
394.22	64.51
394.429	78.85
394.639	27.65
394.848	146.43
395.058	35.84
395.267	91.13
395.477	60.42
395.686	136.19
395.895	148.48
396.105	209.92
396.314	89.09
396.524	115.71
396.733	111.61
396.942	105.47
397.152	117.76
397.361	84.99
397.57	70.65
397.78	109.57
397.989	46.08
398.198	132.09
398.407	29.7
398.617	150.53
398.826	117.76
399.035	134.14
399.244	148.48
399.453	101.37
399.663	117.76
399.872	138.24
400.081	197.63
400.29	160.77
400.499	115.71
400.708	142.33
400.917	56.32
401.127	78.85
401.336	113.66
401.545	185.34
401.754	95.23
401.963	150.53
402.172	160.77
402.381	132.09
402.59	187.39
402.799	132.09
403.008	193.53
403.217	181.25
403.426	146.43
403.635	84.99
403.844	166.91
404.053	220.16
404.262	193.53
404.471	164.86
404.68	109.57
404.888	203.77
405.097	136.19
405.306	185.34
405.515	185.34
405.724	193.53
405.933	232.44
406.142	304.12
406.35	263.16
406.559	162.81
406.768	168.96
406.977	238.59
407.185	191.49
407.394	250.88
407.603	254.97
407.812	261.12
408.02	273.4
408.229	273.4
408.438	283.64
408.646	252.92
408.855	291.84
409.064	269.31
409.272	336.89
409.481	361.47
409.69	328.7
409.898	336.89
410.107	367.61
410.315	396.28
410.524	416.76
410.733	355.32
410.941	480.25
411.15	492.54
411.358	414.71
411.567	564.22
411.775	539.64
411.984	549.88
412.192	564.22
412.401	570.36
412.609	637.94
412.818	603.13
413.026	713.72
413.234	664.57
413.443	660.47
413.651	689.14
413.86	721.91
414.068	791.54
414.276	732.15
414.485	828.4
414.693	795.64
414.901	859.12
415.11	926.71
415.318	861.17
415.526	936.95
415.734	998.38
415.943	1154.03
416.151	1065.97
416.359	1092.59
416.567	1164.27
416.776	1174.51
416.984	1238
417.192	1352.68
417.4	1367.02
417.608	1186.8
417.817	1510.38
418.025	1432.55
418.233	1661.93
418.441	1471.47
418.649	1612.78
418.857	1682.41
419.065	1696.74
419.273	1758.18
419.481	1815.52
419.689	1885.16
419.897	2020.32
420.105	2032.61
420.313	2065.38
420.521	2102.24
420.729	2331.61
420.937	2180.06
421.145	2337.76
421.353	2466.78
421.561	2558.94
421.769	2565.08
421.977	2814.93
422.185	2776.02
422.393	2839.51
422.601	3060.69
422.809	3005.39
423.017	3058.64
423.224	3154.9
423.432	3333.07
423.64	3460.04
423.848	3709.9
424.056	3609.54
424.263	3744.71
424.471	3769.29
424.679	3969.99
424.887	4166.59
425.094	4250.56
425.302	4324.29
425.51	4457.4
425.718	4678.58
425.925	4690.87
426.133	4846.52
426.341	5073.84
426.548	5385.13
426.756	5198.77
426.964	5264.3
427.171	5661.61
427.379	5540.78
427.586	5909.41
427.794	6146.98
428.001	6548.38
428.209	6738.84
428.417	6558.62
428.624	7191.44
428.832	7111.57
429.039	6986.65
429.247	6835.1
429.454	7666.57
429.662	8504.19
429.869	7781.26
430.076	8280.96
430.284	7949.19
430.491	8248.19
430.699	8921.98
430.906	8733.56
431.114	8991.61
431.321	9216.88
431.528	9491.31
431.736	10046.31
431.943	10580.83
432.15	10384.23
432.358	10482.53
432.565	10845.02
432.772	10928.99
432.979	11506.51
433.187	11475.79
433.394	11721.55
433.601	12780.35
433.808	12774.21
434.016	12620.61
434.223	13151.03
434.43	13939.5
434.637	13804.33
434.844	14476.07
435.052	14799.65
435.259	14635.81
435.466	14895.9
435.673	14617.38
435.88	15717.14
436.087	16304.9
436.294	16290.57
436.501	16071.43
436.708	16460.55
436.915	17101.56
437.122	17930.99
437.329	17605.36
437.537	17976.05
437.743	18541.29
437.95	18518.76
438.157	19346.14
438.364	19806.93
438.571	19993.29
438.778	19915.47
438.985	22010.54
439.192	21400.25
439.399	21965.49
439.606	21320.38
439.813	22528.68
440.02	23976.59
440.227	23540.38
440.433	23106.21
440.64	24072.85
440.847	24169.1
441.054	24490.63
441.261	26100.34
441.467	25666.17
441.674	26348.14
441.881	27214.43
442.088	27290.21
442.294	27099.75
442.501	27347.55
442.708	27953.75
442.914	29057.6
443.121	30552.62
443.328	30001.72
443.534	31744.54
443.741	30833.19
443.948	30528.05
444.154	32852.49
444.361	32524.82
444.568	32954.89
444.774	33014.28
444.981	33219.08
445.187	34130.42
445.394	35840.48
445.6	35287.53
445.807	38449.59
446.013	36473.3
446.22	37513.67
446.426	39119.28
446.633	39193
446.839	40417.69
447.046	38762.93
447.252	41044.37
447.459	41116.04
447.665	40731.03
447.871	42310.01
448.078	44355.93
448.284	42297.72
448.491	43555.18
448.697	45001.04
448.903	45627.72
449.11	45961.54
449.316	44792.15
449.522	46416.19
449.728	47135.02
449.935	47507.76
450.141	47327.53
450.347	48470.3
450.553	47030.58
450.76	47425.84
450.966	48877.85
451.172	48322.85
451.378	50024.71
451.584	48605.47
451.791	49584.4
451.997	49414.41
452.203	50092.29
452.409	50579.71
452.615	49754.38
452.821	48316.7
453.027	47855.91
453.233	50110.72
453.44	47976.74
453.646	48826.65
453.852	48693.53
454.058	50094.34
454.264	47831.33
454.47	48740.63
454.676	47526.19
454.882	49707.27
455.088	45199.69
455.294	46055.75
455.5	46354.75
455.705	46463.29
455.911	45164.88
456.117	44073.31
456.323	43450.73
456.529	41490.82
456.735	42824.05
456.941	41759.11
457.147	41351.56
457.352	39723.43
457.558	39573.92
457.764	39424.42
457.97	38836.66
458.176	37988.8
458.381	37538.24
458.587	36235.74
458.793	36168.15
458.999	34015.74
459.204	36381.14
459.41	35574.24
459.616	32940.55
459.821	33040.9
460.027	32940.55
460.233	32242.2
460.438	30515.76
460.644	31195.68
460.85	29915.7
461.055	29248.07
461.261	29233.73
461.466	26815.08
461.672	26038.9
461.878	27796.06
462.083	26387.05
462.289	25432.7
462.494	25522.81
462.7	24439.44
462.905	23354.01
463.111	24396.43
463.316	24466.06
463.522	23909.01
463.727	24101.52
463.932	23855.76
464.138	23528.09
464.343	23937.68
464.549	23036.58
464.754	24023.7
464.959	23892.63
465.165	23534.23
465.37	22665.89
465.575	21922.48
465.781	22995.62
465.986	23003.81
466.191	22260.4
466.397	21689.01
466.602	20783.81
466.807	21654.2
467.012	21365.43
467.218	21469.88
467.423	20812.48
467.628	21332.67
467.833	22016.69
468.038	21355.19
468.244	20527.81
468.449	21492.41
468.654	20812.48
468.859	20579.01
469.064	20519.62
469.269	19534.55
469.474	20013.77
469.679	20040.4
469.885	19464.92
470.09	19972.82
470.295	19786.45
470.5	19360.47
470.705	19206.87
470.91	19065.57
471.115	18727.65
471.32	19059.42
471.525	18891.49
471.73	18348.78
471.935	18336.49
472.139	17742.58
472.344	18195.18
472.549	17930.99
472.754	17734.39
472.959	17119.99
473.164	16669.44
473.369	16839.42
473.574	17105.66
473.778	16896.77
473.983	17021.69
474.188	16808.7
474.393	16102.15
474.598	16022.28
474.802	15940.36
475.007	15893.26
475.212	16032.52
475.417	15172.38
475.621	15350.55
475.826	15375.13
476.031	15018.78
476.235	14912.28
476.44	15221.53
476.645	14619.42
476.849	14803.74
477.054	14375.72
477.259	14170.92
477.463	14193.45
477.668	13763.37
477.872	14199.59
478.077	13777.71
478.282	13560.63
478.486	13519.67
478.691	13415.22
478.895	13282.1
479.1	13155.13
479.304	13140.79
479.509	12905.28
479.713	13071.16
479.918	12665.66
480.122	12702.53
480.326	12872.51
480.531	12634.94
480.735	12823.36
480.94	12374.85
481.144	12757.82
481.348	12151.62
481.553	12503.87
481.757	12157.77
481.961	12241.73
482.166	12516.16
482.37	12413.76
482.574	12108.62
482.778	12131.14
482.983	12514.11
483.187	12225.35
483.391	12366.66
483.595	12022.6
483.8	11985.74
484.004	12342.08
484.208	12428.1
484.412	12077.9
484.616	12280.64
484.821	12262.21
485.025	12049.22
485.229	12280.64
485.433	12243.78
485.637	12239.69
485.841	12260.16
486.045	12061.51
486.249	12385.09
486.453	12073.8
486.657	12286.79
486.861	12438.34
487.065	11975.5
487.269	12127.05
487.473	12006.22
487.677	12540.74
487.881	12155.72
488.085	12016.46
488.289	12374.85
488.493	12215.11
488.697	12176.2
488.901	12395.33
489.105	12401.47
489.309	12366.66
489.512	12446.53
489.716	12133.19
489.92	12516.16
490.124	12288.84
490.328	12624.7
490.531	12235.59
490.735	12534.59
490.939	12682.05
491.143	12716.86
491.346	12757.82
491.55	12698.43
491.754	12768.06
491.958	12692.29
492.161	12702.53
492.365	12647.23
492.569	12837.69
492.772	12940.09
492.976	13024.06
493.18	12960.57
493.383	13169.46
493.587	13232.95
493.79	13155.13
493.994	13071.16
494.197	13570.86
494.401	13441.84
494.605	13624.11
494.808	13851.44
495.012	13687.6
495.215	13742.89
495.419	13859.63
495.622	13898.54
495.825	14205.74
496.029	14297.89
496.232	14539.55
496.436	14236.45
496.639	14957.34
496.843	14807.84
497.046	15008.54
497.249	14910.24
497.453	15158.04
497.656	15219.48
497.859	15233.82
498.063	15651.6
498.266	16083.72
498.469	15917.84
498.673	15903.5
498.876	16155.4
499.079	16292.62
499.282	16106.25
499.485	16820.99
499.689	16950.01
499.892	17259.26
500.095	17009.4
500.298	17552.12
500.501	17208.06
500.705	17898.22
500.908	17914.61
501.111	18113.26
501.314	18381.54
501.517	18524.9
501.72	18746.08
501.923	18653.92
502.126	18879.2
502.329	19483.35
502.532	19489.49
502.735	19524.31
502.938	20060.88
503.141	20093.65
503.344	20224.72
503.547	20474.57
503.75	20830.91
503.953	20896.45
504.156	21043.9
504.359	21279.42
504.562	21697.2
504.765	22129.33
504.968	21676.73
505.17	22297.26
505.373	22336.17
505.576	22737.57
505.779	23212.7
505.982	23069.34
506.185	23476.89
506.387	23423.64
506.59	23437.98
506.793	24294.03
506.996	24136.34
507.198	24615.56
507.401	24885.89
507.604	24935.04
507.807	25510.52
508.009	25660.02
508.212	26010.23
508.415	26301.04
508.617	26206.83
508.82	26567.27
509.022	26245.74
509.225	27236.96
509.428	27339.36
509.63	27644.51
509.833	27638.36
510.035	28234.32
510.238	28168.79
510.44	28396.11
510.643	28904.01
510.845	29104.71
511.048	28854.86
511.25	29495.87
511.453	29583.93
511.655	30577.2
511.858	29944.38
512.06	30331.44
512.262	30954.02
512.465	30786.09
512.667	31461.92
512.87	32010.78
513.072	31447.58
513.274	32250.39
513.477	32430.61
513.679	32662.03
513.881	33012.23
514.084	33350.15
514.286	33591.81
514.488	33460.74
514.69	34722.29
514.893	34503.15
515.095	34777.58
515.297	35191.27
515.499	35068.39
515.701	35719.65
515.904	35949.02
516.106	36012.51
516.308	36207.06
516.51	36630.99
516.712	37034.44
516.914	37269.96
517.116	37687.74
517.318	37935.55
517.52	37851.58
517.722	38103.48
517.925	38603.19
518.127	39141.8
518.329	39653.79
518.531	39344.55
518.733	40303
518.935	40546.71
519.136	40122.78
519.338	40524.18
519.54	40741.27
519.742	41134.48
519.944	41306.51
520.146	42291.58
520.348	42131.84
520.55	42555.77
520.752	42662.26
520.954	43262.32
521.155	42922.35
521.357	43841.89
521.559	43557.22
521.761	44517.72
521.963	44165.47
522.164	44366.17
522.366	44667.22
522.568	44558.68
522.77	45203.79
522.971	46025.03
523.173	45726.02
523.375	46266.69
523.576	46119.23
523.778	46274.88
523.98	46221.63
524.181	46895.41
524.383	46891.32
524.584	47229.23
524.786	47468.84
524.988	47438.12
525.189	47905.06
525.391	47900.97
525.592	48382.24
525.794	48666.91
525.995	48335.13
526.197	48748.82
526.398	48525.6
526.6	48722.2
526.801	49078.55
527.003	49131.79
527.204	48927
527.406	49989.89
527.607	49811.72
527.808	50338.05
528.01	49381.65
528.211	49502.48
528.412	51067.12
528.614	50624.76
528.815	50436.35
529.016	50608.38
529.218	50133.25
529.419	50555.13
529.62	50454.78
529.822	50598.14
530.023	50870.52
530.224	50897.14
530.425	50766.07
530.626	50452.73
530.828	50741.5
531.029	52070.63
531.23	50999.54
531.431	50768.12
531.632	51368.18
531.833	51554.54
532.035	51228.91
532.236	51712.23
532.437	51583.21
532.638	51009.78
532.839	51489.01
533.04	51501.29
533.241	51159.28
533.442	51943.66
533.643	51646.7
533.844	51529.97
534.045	51871.98
534.246	51282.16
534.447	52218.08
534.648	51546.35
534.849	51458.29
535.05	51200.24
535.251	51831.02
535.451	51714.28
535.652	52054.25
535.853	51652.84
536.054	51687.66
536.255	51714.28
536.456	51593.45
536.657	52140.26
536.857	51073.27
537.058	50946.29
537.259	51912.94
537.46	51710.19
537.66	51495.15
537.861	51421.42
538.062	50997.49
538.263	51329.26
538.463	51484.91
538.664	51247.35
538.865	51304.69
539.065	51652.84
539.266	50891
539.466	51519.73
539.667	50653.44
539.868	51824.87
540.068	51177.72
540.269	51575.02
540.469	51777.77
540.67	50911.48
540.87	51013.88
541.071	51341.55
541.271	51255.54
541.472	51046.65
541.672	50931.96
541.873	50899.19
542.073	50247.94
542.274	51720.43
542.474	51204.34
542.675	50385.15
542.875	51220.72
543.075	50804.98
543.276	50678.01
543.476	51087.6
543.676	50620.67
543.877	51007.73
544.077	50764.03
544.277	50829.56
544.478	50397.44
544.678	50946.29
544.878	50919.67
545.078	50286.85
545.279	50325.76
545.479	50499.84
545.679	50843.9
545.879	50628.86
546.079	50772.22
546.28	50325.76
546.48	50319.62
546.68	50678.01
546.88	50827.51
547.08	50407.68
547.28	50462.97
547.48	50462.97
547.68	50598.14
547.88	50020.61
548.081	50690.3
548.281	50387.2
548.481	50141.44
548.681	50346.24
548.881	50411.77
549.081	50166.02
549.28	50047.24
549.48	50288.9
549.68	49975.56
549.88	51243.25
550.08	50116.87
550.28	50413.82
550.48	49627.4
550.68	50739.45
550.88	49834.25
551.08	49826.06
551.279	50176.26
551.479	49522.96
551.679	49824.01
551.879	49764.62
552.079	49977.61
552.278	50059.52
552.478	49789.19
552.678	50125.06
552.878	50174.21
553.077	49379.6
553.277	49033.49
553.477	50329.86
553.676	50045.19
553.876	49512.72
554.076	49408.27
554.275	49537.29
554.475	48740.63
554.674	49506.57
554.874	49563.92
555.074	49537.29
555.273	49813.77
555.473	49731.85
555.672	49060.12
555.872	49137.94
556.071	49256.72
556.271	49467.66
556.47	49115.41
556.67	48734.49
556.869	48937.24
557.068	49355.02
557.268	48910.61
557.467	49031.44
557.667	49123.6
557.866	48765.21
558.065	48570.65
558.265	48378.14
558.464	48814.36
558.663	48957.72
558.863	48175.39
559.062	48986.39
559.261	48277.79
559.461	48675.1
559.66	47798.57
559.859	48183.58
560.058	48279.84
560.258	48447.77
560.457	47522.09
560.656	48140.58
560.855	47900.97
561.054	47964.45
561.253	47894.82
561.453	47683.88
561.652	47757.61
561.851	48285.98
562.05	47649.06
562.249	47720.74
562.448	47982.88
562.647	47546.67
562.846	47243.57
563.045	47700.26
563.244	46934.32
563.443	47292.72
563.642	46807.35
563.841	46938.42
564.04	46694.71
564.239	47223.09
564.438	46686.52
564.637	46989.62
564.836	47044.91
565.035	46334.27
565.234	46704.95
565.432	46494.01
565.631	46115.14
565.83	46285.12
566.029	46780.73
566.228	45881.67
566.427	45986.11
566.625	45918.53
566.824	45451.59
567.023	45547.85
567.222	45504.84
567.42	45525.32
567.619	45904.2
567.818	45605.19
568.016	45416.78
568.215	45828.42
568.414	45443.4
568.612	45543.75
568.811	44992.85
569.01	45578.57
569.208	44620.12
569.407	44955.99
569.605	44439.9
569.804	44765.52
570.002	44736.85
570.201	45017.43
570.4	44239.2
570.598	44456.28
570.797	44104.03
570.995	43964.77
571.193	43475.3
571.392	43979.1
571.59	43772.26
571.789	43589.99
571.987	43686.25
572.186	43530.6
572.384	43514.22
572.582	43612.52
572.781	43587.94
572.979	42731.89
573.177	43225.45
573.376	43135.34
573.574	42789.24
573.772	43200.88
573.971	42717.56
574.169	42899.83
574.367	42649.97
574.565	42971.5
574.763	42441.08
574.962	42180.99
575.16	42035.58
575.358	42115.45
575.556	41582.98
575.754	42207.61
575.952	41326.99
576.151	41970.05
576.349	41142.67
576.547	41525.64
576.745	41898.37
576.943	41937.28
577.141	41023.89
577.339	41157
577.537	41417.1
577.735	41079.18
577.933	40728.98
578.131	41126.28
578.329	40423.83
578.527	40550.81
578.725	40597.91
578.923	40595.86
579.121	40429.98
579.319	40106.4
579.516	40335.77
579.714	40092.06
579.912	39979.42
580.11	39432.61
580.308	40016.29
580.506	39899.55
580.704	39475.62
580.901	39618.98
581.099	39819.68
581.297	38963.63
581.495	38963.63
581.692	39313.83
581.89	39070.12
582.088	39430.57
582.285	38861.23
582.483	39348.65
582.681	38863.28
582.878	38435.25
583.076	38406.58
583.274	38566.32
583.471	37910.97
583.669	38091.19
583.866	37970.36
584.064	38126.01
584.262	37648.83
584.459	38042.04
584.657	37671.36
584.854	37841.34
585.052	36897.23
585.249	37665.22
585.447	37343.69
585.644	37093.83
585.841	37505.48
586.039	37616.07
586.236	36954.57
586.434	36725.2
586.631	36424.15
586.828	36809.17
587.026	36393.43
587.223	36436.44
587.42	36170.2
587.618	36370.9
587.815	36000.22
588.012	35963.36
588.21	35666.4
588.407	36028.89
588.604	35795.42
588.801	35297.77
588.999	35537.38
589.196	35701.22
589.393	35334.63
589.59	35170.79
589.787	35121.64
589.984	35043.82
590.182	34568.69
590.379	34886.12
590.576	34613.74
590.773	34740.72
590.97	34484.72
591.167	34873.84
591.364	34208.25
591.561	34116.09
591.758	33915.39
591.955	34013.69
592.152	34095.61
592.349	33593.86
592.546	33767.93
592.743	33782.27
592.94	33497.6
593.137	33479.17
593.334	33774.08
593.531	32999.94
593.727	33245.7
593.924	33440.26
594.121	32891.4
594.318	32860.68
594.515	32465.42
594.712	33067.53
594.908	32690.7
595.105	32897.55
595.302	32471.57
595.499	32436.75
595.696	32416.27
595.892	32070.17
596.089	32150.04
596.286	32147.99
596.482	32176.66
596.679	31877.66
596.876	31693.34
597.072	31545.89
597.269	31578.65
597.466	31468.06
597.662	30894.63
597.859	31076.9
598.055	31224.36
598.252	30855.72
598.448	31107.62
598.645	30847.53
598.841	30607.92
599.038	30609.96
599.234	30718.51
599.431	30315.06
599.627	30255.67
599.824	30321.2
600.02	30136.88
600.217	30317.11
600.413	29821.5
600.609	29645.37
600.806	29395.52
601.002	29989.43
601.198	29692.47
601.395	29522.49
601.591	29420.1
601.787	29555.26
601.984	29012.55
602.18	29446.72
602.376	29356.61
602.572	29002.31
602.769	28846.66
602.965	28699.21
603.161	28789.32
603.357	28439.12
603.553	28801.61
603.75	28942.92
603.946	28342.86
604.142	28562
604.338	28168.79
604.534	28447.31
604.73	27986.52
604.926	27611.74
605.122	27910.74
605.318	27851.35
605.514	27769.43
605.71	27372.13
605.906	27755.1
606.102	27433.57
606.298	27384.41
606.494	27460.19
606.69	27581.02
606.886	27425.37
607.082	26968.68
607.278	27279.97
607.474	26534.51
607.67	27019.88
607.866	26589.8
608.062	27019.88
608.257	26655.34
608.453	26514.03
608.649	26851.94
608.845	26485.36
609.041	26540.65
609.236	26868.33
609.432	26282.61
609.628	26438.25
609.824	26532.46
610.019	25995.89
610.215	26292.85
610.411	26327.66
610.606	26137.2
610.802	26049.14
610.998	25926.26
611.193	25815.67
611.389	25860.73
611.584	25819.77
611.78	25817.72
611.976	25770.61
612.171	25569.91
612.367	25438.84
612.562	25492.09
612.758	25070.21
612.953	25166.46
613.149	25848.44
613.344	25168.51
613.539	25582.2
613.735	25260.67
613.93	25264.77
614.126	25268.86
614.321	25148.03
614.517	24998.53
614.712	24836.74
614.907	24679.05
615.103	24812.17
615.298	24922.76
615.493	24693.38
615.688	24490.63
615.884	25023.11
616.079	24627.85
616.274	24763.01
616.47	24603.27
616.665	24341.13
616.86	24486.54
617.055	24271.5
617.25	24318.6
617.445	24502.92
617.641	23931.54
617.836	24382.09
618.031	23818.9
618.226	23761.56
618.421	23861.91
618.616	23954.07
618.811	23544.47
619.006	23642.78
619.201	23206.56
619.396	23415.45
619.591	23177.89
619.786	23423.64
619.981	23270.04
620.176	23167.65
620.371	22846.12
620.566	22772.39
620.761	22862.5
620.956	22878.88
621.151	22457
621.346	22688.42
621.541	22246.06
621.735	22321.84
621.93	21977.78
622.125	22203.05
622.32	21719.73
622.515	21889.71
622.709	21768.88
622.904	21742.26
623.099	21289.66
623.294	21766.84
623.488	21148.35
623.683	21398.2
623.878	20902.59
624.072	20953.79
624.267	21117.63
624.462	20611.78
624.656	20558.53
624.851	20509.38
625.046	20517.57
625.24	20452.04
625.435	20226.76
625.629	19960.53
625.824	19874.51
626.018	20075.21
626.213	19276.51
626.407	19786.45
626.602	19405.53
626.796	19415.77
626.991	19438.3
627.185	19489.49
627.38	19180.25
627.574	19067.61
627.768	18885.34
627.963	18977.5
628.157	18744.03
628.352	18488.04
628.546	18395.88
628.74	18574.05
628.935	18449.13
629.129	18309.86
629.323	17877.74
629.517	17965.81
629.712	17986.29
629.906	17744.63
630.1	17578.74
630.294	17543.92
630.489	17488.63
630.683	17529.59
630.877	17109.75
631.071	17224.44
631.265	17433.33
631.459	17249.02
631.653	16880.38
631.848	17048.32
632.042	16767.74
632.236	16962.3
632.43	16597.76
632.624	16712.45
632.818	16456.45
633.012	16352.01
633.206	16429.83
633.4	16118.54
633.594	16114.44
633.788	16157.45
633.982	16272.14
634.176	15743.76
634.369	15897.36
634.563	15612.69
634.757	15430.42
634.951	15686.42
635.145	15657.75
635.339	15262.49
635.533	15475.48
635.726	15352.6
635.92	14981.92
636.114	15035.16
636.308	14973.72
636.501	15145.75
636.695	15004.44
636.889	14600.99
637.083	14750.49
637.276	14439.2
637.47	14426.92
637.664	14469.92
637.857	14246.69
638.051	14398.24
638.244	14256.93
638.438	14181.16
638.632	14099.24
638.825	14136.1
639.019	13916.97
639.212	13904.68
639.406	13589.3
639.599	13525.81
639.793	13658.93
639.986	13394.74
640.18	13556.53
640.373	13564.72
640.567	13464.37
640.76	13267.77
640.954	13210.42
641.147	12948.28
641.34	13153.08
641.534	13073.21
641.727	13081.4
641.92	12962.62
642.114	12745.53
642.307	12899.13
642.5	12628.8
642.694	12315.46
642.887	12370.76
643.08	12522.3
643.273	12434.24
643.467	12378.95
643.66	12311.36
643.853	12120.9
644.046	12067.66
644.239	12088.14
644.432	12047.18
644.626	12067.66
644.819	11764.56
645.012	11713.36
645.205	11944.78
645.398	12051.27
645.591	11387.73
645.784	11588.43
645.977	11400.02
646.17	11500.37
646.363	11299.67
646.556	11254.61
646.749	11352.91
646.942	11371.35
647.135	11197.27
647.328	11021.14
647.521	11193.17
647.714	10867.55
647.907	10982.23
648.099	10879.83
648.292	10599.26
648.485	10754.91
648.678	10554.21
648.871	10578.78
649.064	10646.37
649.256	10722.14
649.449	10345.31
649.642	10451.81
649.835	10255.2
650.027	10277.73
650.22	10236.77
650.413	10083.17
650.605	10249.06
650.798	9986.92
650.991	9857.9
651.183	10050.41
651.376	9898.86
651.568	9945.96
651.761	9769.83
651.954	9761.64
652.146	9800.55
652.339	9671.53
652.531	9630.57
652.724	9624.43
652.916	9446.26
653.109	9677.68
653.301	9452.4
653.494	9272.18
653.686	9214.84
653.879	9306.99
654.071	9200.5
654.263	9116.53
654.456	9132.92
654.648	9094.01
654.84	8799.1
655.033	8958.84
655.225	8848.25
655.417	8848.25
655.61	8739.71
655.802	8745.85
655.994	8608.64
656.186	8764.28
656.379	8352.64
656.571	8543.1
656.763	8606.59
656.955	8450.94
657.148	8522.62
657.34	8393.6
657.532	8391.55
657.724	8356.74
657.916	8313.73
658.108	8340.35
658.3	8051.59
658.492	8151.94
658.684	8110.98
658.876	8037.25
659.068	8108.93
659.26	8043.4
659.452	7885.7
659.644	7771.02
659.836	7824.26
660.028	7693.19
660.22	7840.65
660.412	7658.38
660.604	7766.92
660.796	7740.3
660.988	7670.67
661.18	7422.86
661.372	7656.33
661.563	7549.84
661.755	7492.49
661.947	7551.88
662.139	7252.88
662.331	7209.87
662.522	7224.21
662.714	7353.23
662.906	7121.81
663.097	7173.01
663.289	7150.48
663.481	7189.39
663.673	7113.62
663.864	6947.73
664.056	6888.34
664.247	7009.17
664.439	6876.06
664.631	6806.42
664.822	6869.91
665.014	6992.79
665.205	6859.67
665.397	6710.17
665.588	6828.95
665.78	6704.03
665.971	6652.83
666.163	6656.92
666.354	6525.85
666.546	6638.49
666.737	6509.47
666.929	6503.32
667.12	6517.66
667.311	6359.97
667.503	6382.49
667.694	6390.69
667.885	6269.86
668.077	6419.36
668.268	6357.92
668.459	6232.99
668.651	6351.78
668.842	6243.23
669.033	6126.5
669.224	6013.86
669.416	6030.24
669.607	6042.53
669.798	6024.1
669.989	6146.98
670.18	6089.64
670.371	5970.85
670.563	5915.56
670.754	5962.66
670.945	5788.58
671.136	6028.2
671.327	5807.02
671.518	5954.47
671.709	5923.75
671.9	5612.46
672.091	5487.53
672.282	5596.07
672.473	5581.74
672.664	5643.18
672.855	5626.79
673.046	5622.7
673.237	5659.56
673.428	5733.29
673.619	5598.12
673.809	5571.5
674	5440.43
674.191	5508.01
674.382	5542.83
674.573	5524.4
674.764	5362.61
674.954	5391.28
675.145	5471.15
675.336	5325.74
675.527	5288.88
675.717	5417.9
675.908	5329.84
676.099	5327.79
676.289	5333.93
676.48	5331.89
676.671	5268.4
676.861	5221.3
677.052	5145.52
677.243	5194.67
677.433	5000.12
677.624	5184.43
677.814	5170.1
678.005	4989.88
678.195	5227.44
678.386	5030.84
678.576	4826.04
678.767	5131.19
678.957	4905.91
679.148	5008.31
679.338	5030.84
679.529	4819.89
679.719	4944.82
679.909	4981.68
680.1	4903.86
680.29	4891.57
680.481	4961.2
680.671	4801.46
680.861	4797.37
681.052	4881.33
681.242	4838.33
681.432	4830.13
681.622	4793.27
681.813	4703.16
682.003	4588.47
682.193	4735.93
682.383	4711.35
682.573	4750.26
682.764	4600.76
682.954	4623.29
683.144	4584.38
683.334	4631.48
683.524	4592.57
683.714	4631.48
683.904	4471.74
684.094	4555.71
684.284	4574.14
684.474	4563.9
684.664	4488.12
684.854	4438.97
685.044	4350.91
685.234	4479.93
685.424	4355.01
685.614	4363.2
685.804	4447.16
685.994	4332.48
686.184	4424.64
686.374	4377.53
686.564	4273.09
686.753	4338.62
686.943	4297.66
687.133	4352.96
687.323	4211.65
687.513	4289.47
687.702	4160.45
687.892	4010.95
688.082	4187.07
688.272	4191.17
688.461	4107.2
688.651	4137.92
688.841	4129.73
689.03	4088.77
689.22	4086.72
689.41	3978.18
689.599	4015.04
689.789	3994.56
689.979	4004.8
690.168	3914.69
690.358	3951.56
690.547	3916.74
690.737	4094.91
690.926	3881.92
691.116	3795.91
691.305	3941.32
691.495	3789.77
691.684	3877.83
691.874	3869.64
692.063	3824.58
692.252	3849.16
692.442	3791.81
692.631	3781.57
692.82	3840.97
693.01	3734.47
693.199	3736.52
693.388	3691.46
693.578	3574.73
693.767	3765.19
693.956	3673.03
694.146	3722.18
694.335	3578.83
694.524	3697.61
694.713	3580.87
694.902	3748.81
695.092	3683.27
695.281	3646.41
695.47	3464.14
695.659	3544.01
695.848	3509.19
696.037	3496.91
696.226	3525.58
696.415	3496.91
696.604	3515.34
696.793	3486.67
696.982	3541.96
697.171	3638.22
697.36	3556.3
697.549	3517.39
697.738	3472.33
697.927	3558.35
698.116	3501
698.305	3328.97
698.494	3447.76
698.683	3490.76
698.872	3498.95
699.061	3355.6
699.25	3458
699.438	3527.63
699.627	3429.32
699.816	3486.67
700.005	3351.5
700.193	3433.42
700.382	3445.71
700.571	3369.93
700.76	3353.55
700.948	3374.03
701.137	3310.54
701.326	3347.4
701.514	3273.68
701.703	3474.38
701.892	3265.49
702.08	3349.45
702.269	3273.68
702.457	3238.86
702.646	3306.45
702.834	3382.22
703.023	3238.86
703.212	3341.26
703.4	3265.49
703.589	3331.02
703.777	3339.21
703.965	3245.01
704.154	3216.33
704.342	3290.06
704.531	3296.21
704.719	3150.8
704.907	3343.31
705.096	3199.95
705.284	3361.74
705.472	3144.66
705.661	3269.58
705.849	3257.29
706.037	3240.91
706.226	3230.67
706.414	3357.64
706.602	3269.58
706.79	3212.24
706.979	3185.62
707.167	3202
707.355	3163.09
707.543	3249.1
707.731	3204.05
707.919	3339.21
708.107	3273.68
708.296	3179.47
708.484	3179.47
708.672	3218.38
708.86	3118.03
709.048	3199.95
709.236	3226.57
709.424	3220.43
709.612	3357.64
709.8	3161.04
709.988	3179.47
710.176	3195.86
710.364	3232.72
710.551	3251.15
710.739	3038.16
710.927	3224.53
711.115	3214.29
711.303	3238.86
711.491	3191.76
711.679	3077.07
711.866	3058.64
712.054	3275.73
712.242	3165.14
712.43	3255.25
712.617	3138.51
712.805	3158.99
712.993	3087.31
713.181	3132.37
713.368	3087.31
713.556	3099.6
713.744	3009.49
713.931	3060.69
714.119	3103.7
714.306	3120.08
714.494	3148.75
714.682	3056.59
714.869	3234.77
715.057	3107.79
715.244	3165.14
715.432	3150.8
715.619	3163.09
715.807	3189.71
715.994	3132.37
716.182	3075.03
716.369	3105.74
716.556	3113.94
716.744	3046.35
716.931	3148.75
717.119	3023.83
717.306	3113.94
717.493	3052.5
717.681	3101.65
717.868	3050.45
718.055	3130.32
718.242	3011.54
718.43	2968.53
718.617	3064.79
718.804	3056.59
718.991	2962.39
719.179	3087.31
719.366	2984.91
719.553	2991.06
719.74	3169.23
719.927	2933.72
720.114	2841.56
720.301	2964.43
720.488	2939.86
720.676	2974.67
720.863	3013.59
721.05	3132.37
721.237	3009.49
721.424	3011.54
721.611	2923.48
721.798	2968.53
721.985	3072.98
722.172	2925.52
722.358	3103.7
722.545	2962.39
722.732	2950.1
722.919	2970.58
723.106	2831.32
723.293	3009.49
723.48	2868.18
723.667	2929.62
723.853	3003.35
724.04	2995.15
724.227	2866.13
724.414	2862.04
724.6	2960.34
724.787	2808.79
724.974	2857.94
725.161	2952.15
725.347	2780.12
725.534	2905.04
725.72	2948.05
725.907	2814.93
726.094	2892.76
726.28	2831.32
726.467	2855.89
726.653	2829.27
726.84	2958.29
727.027	2978.77
727.213	2843.6
727.4	2859.99
727.586	2921.43
727.773	2915.28
727.959	2831.32
728.145	2991.06
728.332	2855.89
728.518	2884.56
728.705	2753.49
728.891	2886.61
729.077	2890.71
729.264	2800.6
729.45	2798.55
729.636	2804.69
729.823	2640.86
730.009	2835.41
730.195	2800.6
730.382	2812.89
730.568	2788.31
730.754	2687.96
730.94	2743.25
731.126	2788.31
731.313	2821.08
731.499	2749.4
731.685	2814.93
731.871	2839.51
732.057	2784.21
732.243	2765.78
732.429	2694.1
732.615	2714.58
732.801	2802.65
732.987	2790.36
733.173	2642.9
733.359	2816.98
733.545	2606.04
733.731	2745.3
733.917	2620.38
734.103	2737.11
734.289	2716.63
734.475	2544.6
734.661	2716.63
734.847	2673.62
735.033	2579.42
735.219	2642.9
735.404	2718.68
735.59	2667.48
735.776	2647
735.962	2749.4
736.148	2563.03
736.333	2581.46
736.519	2681.82
736.705	2644.95
736.89	2515.93
737.076	2739.16
737.262	2603.99
737.447	2589.66
737.633	2501.59
737.819	2634.71
738.004	2575.32
738.19	2448.35
738.375	2560.98
738.561	2546.65
738.747	2548.7
738.932	2581.46
739.118	2501.59
739.303	2538.46
739.489	2526.17
739.674	2589.66
739.859	2601.94
740.045	2563.03
740.23	2524.12
740.416	2462.68
740.601	2540.51
740.786	2415.58
740.972	2454.49
741.157	2472.92
741.342	2382.81
741.528	2520.03
741.713	2436.06
741.898	2499.55
742.084	2474.97
742.269	2388.96
742.454	2415.58
742.639	2429.91
742.824	2393.05
743.01	2378.72
743.195	2388.96
743.38	2413.53
743.565	2296.8
743.75	2280.41
743.935	2395.1
744.12	2354.14
744.305	2358.24
744.49	2216.93
744.675	2182.11
744.86	2401.24
745.045	2227.17
745.23	2204.64
745.415	2122.72
745.6	2247.65
745.785	2229.21
745.97	2264.03
746.155	2147.3
746.34	2106.34
746.525	2268.13
746.71	2122.72
746.895	2061.28
747.079	2096.1
747.264	2085.86
747.449	2180.06
747.634	2106.34
747.819	2079.71
748.003	2130.91
748.188	1946.59
748.373	1993.7
748.557	2114.53
748.742	1993.7
748.927	2001.89
749.111	2079.71
749.296	1981.41
749.481	1934.31
749.665	1866.72
749.85	1823.72
750.034	1985.51
750.219	1858.53
750.404	1922.02
750.588	1915.87
750.773	1860.58
750.957	1870.82
751.141	1815.52
751.326	1876.96
751.51	1801.19
751.695	1772.52
751.879	1774.56
752.064	1696.74
752.248	1805.28
752.432	1829.86
752.617	1745.89
752.801	1793
752.985	1725.41
753.17	1749.99
753.354	1737.7
753.538	1608.68
753.722	1727.46
753.907	1643.49
754.091	1584.1
754.275	1684.45
754.459	1614.82
754.643	1561.58
754.828	1530.86
755.012	1602.54
755.196	1512.42
755.38	1600.49
755.564	1448.94
755.748	1575.91
755.932	1614.82
756.116	1526.76
756.3	1453.03
756.484	1493.99
756.668	1475.56
756.852	1369.07
757.036	1463.27
757.22	1483.75
757.404	1496.04
757.588	1418.22
757.772	1334.25
757.956	1367.02
758.14	1358.83
758.323	1364.97
758.507	1362.92
758.691	1313.77
758.875	1448.94
759.059	1407.98
759.242	1356.78
759.426	1346.54
759.61	1311.72
759.794	1350.64
759.977	1285.1
760.161	1324.01
760.345	1379.31
760.528	1295.34
760.712	1364.97
760.895	1215.47
761.079	1266.67
761.263	1317.87
761.446	1197.04
761.63	1256.43
761.813	1258.48
761.997	1131.5
762.18	1172.46
762.364	1264.62
762.547	1229.81
762.731	1180.65
762.914	1100.78
763.098	1174.51
763.281	1145.84
763.464	1168.37
763.648	1174.51
763.831	1106.93
764.015	1180.65
764.198	1145.84
764.381	1078.26
764.564	1162.22
764.748	1086.45
764.931	1088.5
765.114	1113.07
765.297	1211.37
765.481	1092.59
765.664	1147.89
765.847	1194.99
766.03	1133.55
766.213	1031.15
766.397	1145.84
766.58	1082.35
766.763	1072.11
766.946	1031.15
767.129	1053.68
767.312	1043.44
767.495	1098.74
767.678	1053.68
767.861	998.38
768.044	1010.67
768.227	1104.88
768.41	969.71
768.593	1051.63
768.776	949.23
768.959	936.95
769.142	1027.06
769.324	967.67
769.507	1076.21
769.69	1047.54
769.873	1000.43
770.056	986.1
770.239	988.14
770.421	990.19
770.604	941.04
770.787	971.76
770.97	949.23
771.152	906.23
771.335	961.52
771.518	955.38
771.7	855.03
771.883	961.52
772.066	932.85
772.248	914.42
772.431	906.23
772.613	895.99
772.796	879.6
772.978	902.13
773.161	902.13
773.343	736.24
773.526	898.03
773.708	861.17
773.891	838.64
774.073	984.05
774.256	807.92
774.438	941.04
774.621	799.73
774.803	766.96
774.985	797.68
775.168	869.36
775.35	760.82
775.532	877.55
775.715	760.82
775.897	748.53
776.079	842.74
776.261	803.83
776.444	779.25
776.626	775.16
776.808	736.24
776.99	715.77
777.173	738.29
777.355	678.9
777.537	795.64
777.719	676.85
777.901	744.44
778.083	707.57
778.265	676.85
778.447	687.09
778.629	637.94
778.811	691.19
778.993	701.43
779.175	752.63
779.357	697.33
779.539	680.95
779.721	668.66
779.903	711.67
780.085	631.8
780.267	599.03
780.449	693.24
780.631	707.57
780.812	639.99
780.994	646.13
781.176	560.12
781.358	652.28
781.54	709.62
781.721	713.72
781.903	680.95
782.085	623.61
782.267	564.22
782.448	590.84
782.63	594.93
782.812	553.98
782.993	582.65
783.175	586.74
783.357	601.08
783.538	599.03
783.72	517.11
783.901	537.59
784.083	580.6
784.264	486.39
784.446	570.36
784.627	500.73
784.809	594.93
784.99	525.3
785.172	472.06
785.353	564.22
785.535	494.58
785.716	467.96
785.897	467.96
786.079	490.49
786.26	484.34
786.441	515.06
786.623	566.26
786.804	422.91
786.985	504.82
787.167	492.54
787.348	474.1
787.529	443.39
787.71	537.59
787.891	447.48
788.073	431.1
788.254	492.54
788.435	463.86
788.616	433.15
788.797	369.66
788.978	390.14
789.159	418.81
789.34	459.77
789.522	449.53
789.703	408.57
789.884	394.23
790.065	478.2
790.246	447.48
790.427	402.43
790.607	386.04
790.788	402.43
790.969	314.36
791.15	465.91
791.331	326.65
791.512	492.54
791.693	381.95
791.874	361.47
792.054	379.9
792.235	353.27
792.416	427
792.597	334.84
792.778	347.13
792.958	416.76
793.139	390.14
793.32	439.29
793.5	316.41
793.681	381.95
793.862	351.23
794.042	338.94
794.223	396.28
794.404	357.37
794.584	267.26
794.765	355.32
794.945	269.31
795.126	316.41
795.306	316.41
795.487	238.59
795.667	402.43
795.848	371.71
796.028	289.79
796.209	291.84
796.389	312.32
796.57	302.08
796.75	279.55
796.93	349.18
797.111	355.32
797.291	404.47
797.471	304.12
797.652	252.92
797.832	347.13
798.012	285.69
798.192	304.12
798.373	312.32
798.553	355.32
798.733	275.45
798.913	283.64
799.093	218.11
799.274	267.26
799.454	222.2
799.634	230.4
799.814	320.51
799.994	222.2
800.174	285.69
800.354	244.73
800.534	246.78
800.714	222.2
800.894	222.2
801.074	273.4
801.254	302.08
801.434	340.99
801.614	111.61
801.794	189.44
801.974	588.79
802.154	273.4
802.334	297.98
802.514	209.92
802.693	300.03
802.873	252.92
803.053	332.79
803.233	246.78
803.413	207.87
803.592	297.98
803.772	220.16
803.952	222.2
804.131	193.53
804.311	254.97
804.491	304.12
804.67	236.54
804.85	177.15
805.03	152.57
805.209	211.96
805.389	234.49
805.568	304.12
805.748	150.53
805.928	312.32
806.107	273.4
806.287	183.29
806.466	207.87
806.646	201.72
806.825	222.2
807.004	236.54
807.184	187.39
807.363	228.35
807.543	222.2
807.722	146.43
807.901	236.54
808.081	185.34
808.26	144.38
808.439	181.25
808.619	195.58
808.798	175.1
808.977	154.62
809.156	125.95
809.336	128
809.515	189.44
809.694	257.02
809.873	197.63
810.052	226.3
810.231	179.2
810.411	177.15
810.59	138.24
810.769	220.16
810.948	216.06
811.127	132.09
811.306	154.62
811.485	207.87
811.664	232.44
811.843	119.81
812.022	140.29
812.201	187.39
812.38	183.29
812.559	119.81
812.737	144.38
812.916	154.62
813.095	150.53
813.274	175.1
813.453	123.9
813.632	74.75
813.811	175.1
813.989	183.29
814.168	193.53
814.347	175.1
814.526	173.05
814.704	205.82
814.883	160.77
815.062	105.47
815.24	189.44
815.419	164.86
815.598	209.92
815.776	103.42
815.955	187.39
816.133	80.89
816.312	179.2
816.49	171.01
816.669	119.81
816.847	150.53
817.026	152.57
817.204	160.77
817.383	115.71
817.561	136.19
817.74	132.09
817.918	125.95
818.097	142.33
818.275	168.96
818.453	211.96
818.632	140.29
818.81	130.05
818.988	76.8
819.167	107.52
819.345	105.47
819.523	82.94
819.701	64.51
819.879	164.86
820.058	144.38
820.236	97.28
820.414	128
820.592	236.54
820.77	191.49
820.948	70.65
821.127	115.71
821.305	152.57
821.483	72.7
821.661	179.2
821.839	99.33
822.017	134.14
822.195	72.7
822.373	101.37
822.551	80.89
822.729	152.57
822.907	103.42
823.085	72.7
823.262	140.29
823.44	99.33
823.618	123.9
823.796	144.38
823.974	56.32
824.152	64.51
824.329	68.61
824.507	76.8
824.685	95.23
824.863	97.28
825.04	150.53
825.218	33.79
825.396	60.42
825.574	156.67
825.751	72.7
825.929	91.13
826.107	99.33
826.284	119.81
826.462	117.76
826.639	91.13
826.817	91.13
826.994	72.7
827.172	125.95
827.349	146.43
827.527	66.56
827.704	78.85
827.882	158.72
828.059	68.61
828.237	31.74
828.414	84.99
828.591	107.52
828.769	84.99
828.946	68.61
829.124	121.85
829.301	111.61
829.478	115.71
829.655	52.22
829.833	89.09
830.01	41.98
830.187	185.34
830.364	113.66
830.542	84.99
830.719	-1.02
830.896	105.47
831.073	93.18
831.25	84.99
831.427	68.61
831.604	150.53
831.782	52.22
831.959	91.13
832.136	142.33
832.313	95.23
832.49	175.1
832.667	72.7
832.844	-5.12
833.021	93.18
833.198	111.61
833.374	109.57
833.551	111.61
833.728	-21.5
833.905	72.7
834.082	130.05
834.259	5.12
834.436	64.51
834.612	78.85
834.789	128
834.966	35.84
835.143	50.18
835.319	78.85
835.496	66.56
835.673	27.65
835.85	138.24
836.026	107.52
836.203	103.42
836.38	103.42
836.556	9.22
836.733	17.41
836.909	99.33
837.086	78.85
837.262	78.85
837.439	-7.17
837.616	39.94
837.792	74.75
837.968	-27.65
838.145	33.79
838.321	132.09
838.498	50.18
838.674	80.89
838.851	48.13
839.027	21.5
839.203	52.22
839.38	15.36
839.556	9.22
839.732	95.23
839.909	54.27
840.085	148.48
840.261	-21.5
840.437	99.33
840.614	64.51
840.79	74.75
840.966	33.79
841.142	109.57
841.318	64.51
841.494	54.27
841.671	31.74
841.847	25.6
842.023	37.89
842.199	46.08
842.375	97.28
842.551	41.98
842.727	19.46
842.903	70.65
843.079	-5.12
843.255	52.22
843.431	52.22
843.607	1.02
843.783	-19.46
843.959	7.17
844.134	27.65
844.31	82.94
844.486	95.23
844.662	-31.74
844.838	97.28
845.013	44.03
845.189	-46.08
845.365	29.7
845.541	5.12
845.716	78.85
845.892	37.89
846.068	-5.12
846.244	41.98
846.419	89.09
846.595	35.84
846.77	1.02
846.946	33.79
847.122	21.5
847.297	-5.12
847.473	89.09
847.648	-35.84
847.824	44.03
847.999	50.18
848.175	35.84
848.35	-11.26
848.526	125.95
848.701	7.17
848.876	82.94
849.052	37.89
849.227	56.32
849.403	62.46
849.578	17.41
849.753	146.43
849.929	68.61
850.104	41.98
850.279	-21.5
850.454	48.13
850.63	95.23
850.805	54.27
850.98	91.13
851.155	56.32
851.33	89.09
851.505	7.17
851.681	48.13
851.856	27.65
852.031	7.17
852.206	29.7
852.381	5.12
852.556	-48.13
852.731	62.46
852.906	72.7
853.081	27.65
853.256	58.37
853.431	31.74
853.606	-17.41
853.781	50.18
853.956	-44.03
854.131	52.22
854.305	1.02
854.48	50.18
854.655	109.57
854.83	89.09
855.005	-13.31
855.18	35.84
855.354	5.12
855.529	91.13
855.704	-5.12
855.879	62.46
856.053	-11.26
856.228	78.85
856.403	-5.12
856.577	78.85
856.752	17.41
856.926	41.98
857.101	23.55
857.276	52.22
857.45	13.31
857.625	-17.41
857.799	97.28
857.974	50.18
858.148	-52.22
858.323	33.79
858.497	19.46
858.672	-17.41
858.846	-29.7
859.02	23.55
859.195	13.31
859.369	58.37
859.543	27.65
859.718	33.79
859.892	37.89
860.066	15.36
860.241	82.94
860.415	19.46
860.589	23.55
860.763	56.32
860.938	66.56
861.112	7.17
861.286	60.42
861.46	1.02
861.634	-44.03
861.808	33.79
861.982	5.12
862.157	5.12
862.331	7.17
862.505	25.6
862.679	-29.7
862.853	87.04
863.027	-15.36
863.201	50.18
863.375	31.74
863.549	95.23
863.722	95.23
863.896	72.7
864.07	5.12
864.244	-23.55
864.418	29.7
864.592	41.98
864.766	-46.08
864.939	25.6
865.113	54.27
865.287	39.94
865.461	-21.5
865.634	9.22
865.808	19.46
865.982	68.61
866.156	-37.89
866.329	15.36
866.503	-17.41
866.676	31.74
866.85	74.75
867.024	-1.02
867.197	84.99
867.371	15.36
867.544	41.98
867.718	1.02
867.891	50.18
868.065	-25.6
868.238	-33.79
868.412	46.08
868.585	29.7
868.759	-3.07
868.932	25.6
869.105	11.26
869.279	21.5
869.452	-5.12
869.625	-41.98
869.799	3.07
869.972	-25.6
870.145	-13.31
870.319	-21.5
870.492	3.07
870.665	-21.5
870.838	-29.7
871.011	-9.22
871.185	-13.31
871.358	-3.07
871.531	-19.46
871.704	-23.55
871.877	11.26
872.05	29.7
872.223	23.55
872.396	-11.26
872.569	33.79
872.742	17.41
872.915	52.22
873.088	-15.36
873.261	74.75
873.434	27.65
873.607	-15.36
873.78	-29.7
873.953	15.36
874.126	33.79
874.299	52.22
874.471	41.98
874.644	21.5
874.817	3.07
874.99	48.13
875.163	-70.65
875.335	54.27
875.508	-52.22
875.681	27.65
875.853	25.6
876.026	-35.84
876.199	31.74
876.371	35.84
876.544	-25.6
876.717	-27.65
876.889	21.5
877.062	56.32
877.234	56.32
877.407	-11.26
877.579	19.46
877.752	-7.17
877.924	13.31
878.097	33.79
878.269	-19.46
878.442	46.08
878.614	44.03
878.786	-13.31
878.959	-11.26
879.131	21.5
879.303	-27.65
879.476	15.36
879.648	78.85
879.82	23.55
879.993	35.84
880.165	-35.84
880.337	-41.98
880.509	-1.02
880.681	-66.56
880.854	66.56
881.026	-21.5
881.198	60.42
881.37	-19.46
881.542	-27.65
881.714	-35.84
881.886	13.31
882.058	-7.17
882.23	7.17
882.402	-15.36
882.574	35.84
882.746	-11.26
882.918	5.12
883.09	-31.74
883.262	5.12
883.434	-70.65
883.606	-52.22
883.778	-35.84
883.95	58.37
884.122	-9.22
884.293	7.17
884.465	-44.03
884.637	-1.02
884.809	-29.7
884.98	66.56
885.152	-31.74
885.324	41.98
885.496	-25.6
885.667	-39.94
885.839	-41.98
886.011	11.26
886.182	3.07
886.354	19.46
886.525	-31.74
886.697	-3.07
886.869	-3.07
887.04	-54.27
887.212	50.18
887.383	21.5
887.555	-48.13
887.726	-27.65
887.897	-19.46
888.069	-62.46
888.24	-41.98
888.412	17.41
888.583	-7.17
888.754	37.89
888.926	7.17
889.097	41.98
889.268	-11.26
889.44	-25.6
889.611	15.36
889.782	44.03
889.953	9.22
890.125	-7.17
890.296	-80.89
890.467	-7.17
890.638	35.84
890.809	-7.17
890.98	27.65
891.151	33.79
891.323	41.98
891.494	3.07
891.665	3.07
891.836	-23.55
892.007	33.79
892.178	56.32
892.349	-25.6
892.52	11.26
892.691	-1.02
892.862	-46.08
893.032	-5.12
893.203	17.41
893.374	-31.74
893.545	19.46
893.716	-39.94
893.887	-31.74
894.057	72.7
894.228	39.94
894.399	1.02
894.57	-44.03
894.74	29.7
894.911	-37.89
895.082	52.22
895.253	-17.41
895.423	27.65
895.594	-13.31
895.764	-11.26
895.935	-76.8
896.106	-11.26
896.276	19.46
896.447	35.84
896.617	-15.36
896.788	-9.22
896.958	-25.6
897.129	-37.89
897.299	21.5
897.47	-1.02
897.64	41.98
897.81	-15.36
897.981	3.07
898.151	-31.74
898.322	7.17
898.492	17.41
898.662	-44.03
898.832	35.84
899.003	146.43
899.173	-72.7
899.343	1.02
899.513	7.17
