Data from USB4F104151__49__12-01-32-991.txt Node

Date: Fri Mar 14 12:01:32 EDT 2025
User: louis
Spectrometer: USB4F10415
Trigger mode: 4
Integration Time (sec): 2.000000E-2
Scans to average: 1
Electric dark correction enabled: true
Nonlinearity correction enabled: false
Boxcar width: 0
XAxis mode: Wavelengths
Number of Pixels in Spectrum: 3648
>>>>>Begin Spectral Data<<<<<
178.204	-65.71
178.424	-65.71
178.644	-65.71
178.864	-96.43
179.084	-131.24
179.304	-4.27
179.524	-37.03
179.744	30.55
179.964	-34.99
180.184	-53.42
180.404	26.45
180.624	1.88
180.844	20.31
181.064	16.21
181.283	59.22
181.503	-57.51
181.723	32.6
181.943	1.88
182.163	-20.65
182.383	40.79
182.602	48.98
182.822	-12.46
183.042	67.41
183.262	42.84
183.482	26.45
183.701	1.88
183.921	-26.79
184.141	-12.46
184.361	-14.51
184.58	-8.36
184.8	14.17
185.02	28.5
185.239	-16.55
185.459	-28.84
185.679	-43.18
185.898	-10.41
186.118	48.98
186.338	-0.17
186.557	-14.51
186.777	5.97
186.997	67.41
187.216	-6.31
187.436	28.5
187.655	36.69
187.875	34.64
188.095	46.93
188.314	69.46
188.534	-8.36
188.753	-88.23
188.973	77.65
189.192	26.45
189.412	69.46
189.631	42.84
189.851	1.88
190.07	1.88
190.29	-32.94
190.509	28.5
190.729	22.36
190.948	-16.55
191.168	65.36
191.387	63.32
191.607	-37.03
191.826	-30.89
192.045	55.12
192.265	16.21
192.484	-0.17
192.704	12.12
192.923	-24.75
193.142	1.88
193.362	53.08
193.581	53.08
193.8	22.36
194.02	1.88
194.239	-4.27
194.458	38.74
194.678	32.6
194.897	65.36
195.116	16.21
195.335	5.97
195.555	-14.51
195.774	8.02
195.993	1.88
196.212	-57.51
196.432	57.17
196.651	30.55
196.87	30.55
197.089	89.94
197.308	-8.36
197.528	44.88
197.747	-18.6
197.966	36.69
198.185	26.45
198.404	-4.27
198.623	30.55
198.842	1.88
199.062	48.98
199.281	20.31
199.5	12.12
199.719	3.93
199.938	63.32
200.157	20.31
200.376	10.07
200.595	48.98
200.814	-2.22
201.033	-8.36
201.252	12.12
201.471	75.6
201.69	10.07
201.909	26.45
202.128	22.36
202.347	69.46
202.566	-16.55
202.785	14.17
203.004	48.98
203.223	108.37
203.442	42.84
203.661	26.45
203.879	8.02
204.098	53.08
204.317	-22.7
204.536	94.04
204.755	-20.65
204.974	-8.36
205.193	-26.79
205.411	83.8
205.63	18.26
205.849	-16.55
206.068	61.27
206.287	-0.17
206.505	-39.08
206.724	34.64
206.943	-18.6
207.162	-32.94
207.381	32.6
207.599	-14.51
207.818	-14.51
208.037	-53.42
208.255	63.32
208.474	28.5
208.693	42.84
208.911	59.22
209.13	85.84
209.349	46.93
209.567	44.88
209.786	-2.22
210.005	16.21
210.223	-20.65
210.442	-26.79
210.661	38.74
210.879	42.84
211.098	-22.7
211.316	96.08
211.535	28.5
211.753	-2.22
211.972	59.22
212.191	14.17
212.409	44.88
212.628	51.03
212.846	-2.22
213.065	67.41
213.283	44.88
213.502	14.17
213.72	20.31
213.938	-2.22
214.157	42.84
214.375	34.64
214.594	16.21
214.812	51.03
215.031	-26.79
215.249	-41.13
215.467	1.88
215.686	28.5
215.904	83.8
216.122	-26.79
216.341	81.75
216.559	75.6
216.778	-20.65
216.996	20.31
217.214	-12.46
217.432	30.55
217.651	-0.17
217.869	5.97
218.087	-22.7
218.306	67.41
218.524	87.89
218.742	1.88
218.96	-34.99
219.179	46.93
219.397	102.23
219.615	24.4
219.833	16.21
220.051	38.74
220.27	-61.61
220.488	8.02
220.706	-37.03
220.924	-8.36
221.142	-4.27
221.36	71.51
221.578	44.88
221.796	3.93
222.015	44.88
222.233	48.98
222.451	30.55
222.669	51.03
222.887	3.93
223.105	-18.6
223.323	-34.99
223.541	42.84
223.759	98.13
223.977	-43.18
224.195	106.32
224.413	42.84
224.631	30.55
224.849	61.27
225.067	79.7
225.285	-32.94
225.503	44.88
225.721	-110.76
225.939	30.55
226.157	40.79
226.375	110.42
226.592	-6.31
226.81	-22.7
227.028	57.17
227.246	61.27
227.464	79.7
227.682	63.32
227.9	40.79
228.117	42.84
228.335	26.45
228.553	-22.7
228.771	-2.22
228.989	89.94
229.206	-28.84
229.424	5.97
229.642	1.88
229.86	24.4
230.077	-53.42
230.295	34.64
230.513	24.4
230.731	65.36
230.948	46.93
231.166	26.45
231.384	-6.31
231.601	10.07
231.819	69.46
232.037	-4.27
232.254	-30.89
232.472	10.07
232.689	-20.65
232.907	34.64
233.125	24.4
233.342	-20.65
233.56	8.02
233.777	-34.99
233.995	-30.89
234.213	98.13
234.43	51.03
234.648	55.12
234.865	-4.27
235.083	96.08
235.3	-4.27
235.518	48.98
235.735	48.98
235.953	14.17
236.17	28.5
236.388	28.5
236.605	10.07
236.822	73.56
237.04	75.6
237.257	63.32
237.475	32.6
237.692	16.21
237.909	-12.46
238.127	16.21
238.344	-41.13
238.562	-71.85
238.779	-0.17
238.996	16.21
239.214	28.5
239.431	128.85
239.648	36.69
239.865	102.23
240.083	-22.7
240.3	-20.65
240.517	-49.32
240.735	-4.27
240.952	10.07
241.169	75.6
241.386	-22.7
241.603	30.55
241.821	89.94
242.038	42.84
242.255	114.52
242.472	-18.6
242.689	5.97
242.907	-8.36
243.124	-39.08
243.341	42.84
243.558	40.79
243.775	-12.46
243.992	-10.41
244.209	18.26
244.426	34.64
244.643	-14.51
244.86	-2.22
245.078	1.88
245.295	75.6
245.512	16.21
245.729	8.02
245.946	14.17
246.163	-8.36
246.38	-2.22
246.597	22.36
246.814	85.84
247.031	46.93
247.248	12.12
247.464	-20.65
247.681	18.26
247.898	5.97
248.115	94.04
248.332	-37.03
248.549	10.07
248.766	75.6
248.983	28.5
249.2	53.08
249.417	57.17
249.633	34.64
249.85	116.56
250.067	48.98
250.284	-24.75
250.501	-0.17
250.717	30.55
250.934	18.26
251.151	22.36
251.368	-16.55
251.585	36.69
251.801	67.41
252.018	-4.27
252.235	40.79
252.451	-4.27
252.668	-51.37
252.885	-32.94
253.102	-20.65
253.318	40.79
253.535	30.55
253.752	38.74
253.968	-30.89
254.185	-6.31
254.401	18.26
254.618	-49.32
254.835	-14.51
255.051	-2.22
255.268	3.93
255.484	22.36
255.701	61.27
255.917	130.9
256.134	26.45
256.351	28.5
256.567	3.93
256.784	16.21
257	-34.99
257.217	12.12
257.433	59.22
257.65	42.84
257.866	57.17
258.082	16.21
258.299	-12.46
258.515	36.69
258.732	-4.27
258.948	5.97
259.165	61.27
259.381	3.93
259.597	8.02
259.814	-14.51
260.03	28.5
260.246	-30.89
260.463	110.42
260.679	44.88
260.895	85.84
261.112	89.94
261.328	85.84
261.544	5.97
261.761	-28.84
261.977	10.07
262.193	16.21
262.409	24.4
262.626	104.28
262.842	73.56
263.058	14.17
263.274	59.22
263.49	73.56
263.707	16.21
263.923	96.08
264.139	30.55
264.355	10.07
264.571	-8.36
264.787	26.45
265.004	55.12
265.22	42.84
265.436	-0.17
265.652	-8.36
265.868	26.45
266.084	8.02
266.3	-41.13
266.516	20.31
266.732	57.17
266.948	89.94
267.164	-6.31
267.38	51.03
267.596	67.41
267.812	69.46
268.028	26.45
268.244	40.79
268.46	59.22
268.676	-59.56
268.892	85.84
269.108	51.03
269.324	71.51
269.54	-20.65
269.756	40.79
269.972	36.69
270.188	36.69
270.403	-32.94
270.619	40.79
270.835	8.02
271.051	40.79
271.267	53.08
271.483	-39.08
271.698	-8.36
271.914	-8.36
272.13	36.69
272.346	63.32
272.562	14.17
272.777	96.08
272.993	-43.18
273.209	67.41
273.425	59.22
273.64	32.6
273.856	42.84
274.072	30.55
274.287	53.08
274.503	46.93
274.719	65.36
274.934	65.36
275.15	-86.19
275.366	53.08
275.581	-12.46
275.797	-24.75
276.012	3.93
276.228	63.32
276.444	12.12
276.659	94.04
276.875	-24.75
277.09	67.41
277.306	-34.99
277.521	94.04
277.737	-53.42
277.952	22.36
278.168	-20.65
278.383	-22.7
278.599	44.88
278.814	36.69
279.03	38.74
279.245	94.04
279.461	20.31
279.676	36.69
279.892	-69.8
280.107	71.51
280.322	14.17
280.538	32.6
280.753	28.5
280.969	116.56
281.184	-30.89
281.399	65.36
281.615	24.4
281.83	44.88
282.045	-55.47
282.26	-2.22
282.476	8.02
282.691	108.37
282.906	55.12
283.122	40.79
283.337	48.98
283.552	44.88
283.767	28.5
283.983	-51.37
284.198	-30.89
284.413	36.69
284.628	16.21
284.843	-18.6
285.058	28.5
285.274	30.55
285.489	1.88
285.704	40.79
285.919	22.36
286.134	36.69
286.349	-24.75
286.564	-28.84
286.779	8.02
286.995	24.4
287.21	40.79
287.425	75.6
287.64	42.84
287.855	83.8
288.07	30.55
288.285	87.89
288.5	87.89
288.715	12.12
288.93	63.32
289.145	28.5
289.36	67.41
289.575	28.5
289.79	44.88
290.004	1.88
290.219	81.75
290.434	5.97
290.649	-12.46
290.864	22.36
291.079	-32.94
291.294	-59.56
291.509	8.02
291.724	36.69
291.938	32.6
292.153	42.84
292.368	34.64
292.583	14.17
292.798	5.97
293.012	69.46
293.227	46.93
293.442	-22.7
293.657	38.74
293.871	18.26
294.086	22.36
294.301	85.84
294.516	22.36
294.73	67.41
294.945	-20.65
295.16	51.03
295.374	38.74
295.589	-26.79
295.804	-4.27
296.018	8.02
296.233	77.65
296.447	32.6
296.662	-22.7
296.877	48.98
297.091	12.12
297.306	-0.17
297.52	77.65
297.735	59.22
297.949	22.36
298.164	67.41
298.378	-41.13
298.593	20.31
298.807	106.32
299.022	53.08
299.236	65.36
299.451	42.84
299.665	-2.22
299.88	28.5
300.094	22.36
300.309	-4.27
300.523	-12.46
300.737	32.6
300.952	22.36
301.166	38.74
301.381	36.69
301.595	10.07
301.809	36.69
302.024	36.69
302.238	-4.27
302.452	24.4
302.667	40.79
302.881	63.32
303.095	65.36
303.309	-12.46
303.524	40.79
303.738	73.56
303.952	87.89
304.166	26.45
304.381	18.26
304.595	79.7
304.809	16.21
305.023	-6.31
305.237	-41.13
305.452	1.88
305.666	96.08
305.88	81.75
306.094	36.69
306.308	100.18
306.522	28.5
306.736	-37.03
306.95	89.94
307.164	3.93
307.379	-24.75
307.593	155.47
307.807	83.8
308.021	57.17
308.235	-32.94
308.449	55.12
308.663	42.84
308.877	77.65
309.091	22.36
309.305	32.6
309.519	-53.42
309.733	73.56
309.947	-10.41
310.161	44.88
310.374	48.98
310.588	77.65
310.802	-4.27
311.016	-32.94
311.23	44.88
311.444	26.45
311.658	-8.36
311.872	8.02
312.085	28.5
312.299	77.65
312.513	-16.55
312.727	-30.89
312.941	-24.75
313.154	110.42
313.368	22.36
313.582	30.55
313.796	26.45
314.009	30.55
314.223	61.27
314.437	18.26
314.651	24.4
314.864	48.98
315.078	14.17
315.292	69.46
315.505	44.88
315.719	30.55
315.933	71.51
316.146	61.27
316.36	3.93
316.573	18.26
316.787	51.03
317.001	5.97
317.214	-12.46
317.428	24.4
317.641	46.93
317.855	24.4
318.068	26.45
318.282	61.27
318.495	53.08
318.709	67.41
318.922	20.31
319.136	65.36
319.349	48.98
319.563	34.64
319.776	10.07
319.99	83.8
320.203	-16.55
320.417	38.74
320.63	12.12
320.843	14.17
321.057	16.21
321.27	-34.99
321.483	34.64
321.697	89.94
321.91	61.27
322.124	104.28
322.337	5.97
322.55	20.31
322.763	53.08
322.977	59.22
323.19	-32.94
323.403	24.4
323.617	-12.46
323.83	12.12
324.043	34.64
324.256	-4.27
324.469	30.55
324.683	28.5
324.896	24.4
325.109	91.99
325.322	-0.17
325.535	48.98
325.748	8.02
325.962	-2.22
326.175	5.97
326.388	22.36
326.601	18.26
326.814	53.08
327.027	59.22
327.24	48.98
327.453	61.27
327.666	18.26
327.879	22.36
328.092	59.22
328.305	42.84
328.518	-51.37
328.731	20.31
328.944	85.84
329.157	106.32
329.37	67.41
329.583	53.08
329.796	-22.7
330.009	-8.36
330.222	55.12
330.435	30.55
330.648	94.04
330.861	51.03
331.073	24.4
331.286	51.03
331.499	102.23
331.712	-8.36
331.925	26.45
332.138	69.46
332.35	83.8
332.563	8.02
332.776	87.89
332.989	16.21
333.202	38.74
333.414	-4.27
333.627	65.36
333.84	-12.46
334.053	46.93
334.265	14.17
334.478	8.02
334.691	28.5
334.903	71.51
335.116	-16.55
335.329	59.22
335.541	94.04
335.754	139.09
335.966	46.93
336.179	-28.84
336.392	51.03
336.604	32.6
336.817	48.98
337.029	3.93
337.242	67.41
337.454	77.65
337.667	28.5
337.88	28.5
338.092	34.64
338.305	14.17
338.517	-6.31
338.729	-10.41
338.942	73.56
339.154	34.64
339.367	20.31
339.579	55.12
339.792	10.07
340.004	73.56
340.217	1.88
340.429	53.08
340.641	-4.27
340.854	32.6
341.066	12.12
341.278	100.18
341.491	34.64
341.703	-2.22
341.915	53.08
342.128	24.4
342.34	69.46
342.552	67.41
342.764	81.75
342.977	126.8
343.189	26.45
343.401	132.95
343.613	42.84
343.826	77.65
344.038	65.36
344.25	26.45
344.462	16.21
344.674	55.12
344.886	5.97
345.099	22.36
345.311	75.6
345.523	81.75
345.735	16.21
345.947	12.12
346.159	44.88
346.371	63.32
346.583	118.61
346.795	38.74
347.007	12.12
347.219	30.55
347.431	24.4
347.643	57.17
347.855	57.17
348.067	18.26
348.279	32.6
348.491	61.27
348.703	40.79
348.915	67.41
349.127	51.03
349.339	59.22
349.551	-26.79
349.763	36.69
349.975	-4.27
350.187	40.79
350.399	122.71
350.61	26.45
350.822	-14.51
351.034	32.6
351.246	46.93
351.458	18.26
351.669	26.45
351.881	106.32
352.093	42.84
352.305	18.26
352.517	-6.31
352.728	77.65
352.94	5.97
353.152	26.45
353.363	22.36
353.575	94.04
353.787	73.56
353.999	38.74
354.21	102.23
354.422	-26.79
354.633	44.88
354.845	53.08
355.057	57.17
355.268	91.99
355.48	-4.27
355.692	-4.27
355.903	-6.31
356.115	55.12
356.326	8.02
356.538	34.64
356.749	98.13
356.961	108.37
357.172	69.46
357.384	8.02
357.595	65.36
357.807	44.88
358.018	16.21
358.23	126.8
358.441	112.47
358.653	59.22
358.864	89.94
359.075	44.88
359.287	55.12
359.498	32.6
359.709	67.41
359.921	14.17
360.132	26.45
360.344	30.55
360.555	51.03
360.766	38.74
360.977	-22.7
361.189	40.79
361.4	42.84
361.611	83.8
361.823	18.26
362.034	81.75
362.245	12.12
362.456	57.17
362.667	69.46
362.879	26.45
363.09	16.21
363.301	67.41
363.512	51.03
363.723	65.36
363.935	24.4
364.146	120.66
364.357	63.32
364.568	63.32
364.779	73.56
364.99	77.65
365.201	-6.31
365.412	24.4
365.623	28.5
365.834	53.08
366.045	55.12
366.256	71.51
366.467	24.4
366.678	73.56
366.889	55.12
367.1	81.75
367.311	61.27
367.522	26.45
367.733	102.23
367.944	108.37
368.155	-14.51
368.366	81.75
368.577	61.27
368.788	91.99
368.999	18.26
369.209	14.17
369.42	57.17
369.631	184.15
369.842	61.27
370.053	-14.51
370.264	69.46
370.474	59.22
370.685	38.74
370.896	116.56
371.107	-4.27
371.317	71.51
371.528	85.84
371.739	24.4
371.95	32.6
372.16	59.22
372.371	20.31
372.582	30.55
372.792	42.84
373.003	30.55
373.214	83.8
373.424	141.14
373.635	51.03
373.846	28.5
374.056	16.21
374.267	77.65
374.477	79.7
374.688	61.27
374.898	104.28
375.109	57.17
375.319	63.32
375.53	122.71
375.74	12.12
375.951	71.51
376.161	48.98
376.372	34.64
376.582	79.7
376.793	116.56
377.003	61.27
377.214	59.22
377.424	18.26
377.635	48.98
377.845	69.46
378.055	116.56
378.266	67.41
378.476	122.71
378.686	73.56
378.897	38.74
379.107	55.12
379.317	167.76
379.528	-2.22
379.738	59.22
379.948	42.84
380.158	116.56
380.369	44.88
380.579	139.09
380.789	75.6
380.999	1.88
381.21	67.41
381.42	159.57
381.63	106.32
381.84	89.94
382.05	32.6
382.261	59.22
382.471	130.9
382.681	51.03
382.891	34.64
383.101	44.88
383.311	26.45
383.521	110.42
383.731	114.52
383.941	83.8
384.151	94.04
384.361	-0.17
384.571	114.52
384.781	46.93
384.991	106.32
385.201	175.95
385.411	81.75
385.621	61.27
385.831	128.85
386.041	61.27
386.251	18.26
386.461	69.46
386.671	137.04
386.881	75.6
387.091	20.31
387.301	98.13
387.511	81.75
387.72	106.32
387.93	22.36
388.14	59.22
388.35	53.08
388.56	36.69
388.769	-14.51
388.979	77.65
389.189	30.55
389.399	73.56
389.609	135
389.818	28.5
390.028	83.8
390.238	79.7
390.447	36.69
390.657	112.47
390.867	85.84
391.076	83.8
391.286	30.55
391.496	38.74
391.705	20.31
391.915	-0.17
392.125	98.13
392.334	57.17
392.544	71.51
392.753	112.47
392.963	40.79
393.172	124.76
393.382	5.97
393.591	165.71
393.801	139.09
394.01	75.6
394.22	44.88
394.429	141.14
394.639	143.19
394.848	94.04
395.058	-18.6
395.267	81.75
395.477	55.12
395.686	36.69
395.895	118.61
396.105	128.85
396.314	114.52
396.524	98.13
396.733	98.13
396.942	122.71
397.152	61.27
397.361	132.95
397.57	112.47
397.78	63.32
397.989	132.95
398.198	145.24
398.407	57.17
398.617	100.18
398.826	63.32
399.035	53.08
399.244	73.56
399.453	94.04
399.663	151.38
399.872	175.95
400.081	112.47
400.29	171.86
400.499	108.37
400.708	135
400.917	128.85
401.127	48.98
401.336	89.94
401.545	141.14
401.754	175.95
401.963	100.18
402.172	137.04
402.381	143.19
402.59	57.17
402.799	167.76
403.008	124.76
403.217	85.84
403.426	225.11
403.635	85.84
403.844	149.33
404.053	272.21
404.262	137.04
404.471	214.87
404.68	157.52
404.888	190.29
405.097	106.32
405.306	200.53
405.515	171.86
405.724	200.53
405.933	206.67
406.142	208.72
406.35	251.73
406.559	239.44
406.768	247.63
406.977	247.63
407.185	245.59
407.394	239.44
407.603	294.74
407.812	235.35
408.02	175.95
408.229	239.44
408.438	319.31
408.646	280.4
408.855	298.83
409.064	380.75
409.272	325.46
409.481	333.65
409.69	337.74
409.898	343.89
410.107	386.9
410.315	448.33
410.524	431.95
410.733	362.32
410.941	442.19
411.15	556.88
411.358	493.39
411.567	477.01
411.775	530.25
411.984	595.79
412.192	546.64
412.401	530.25
412.609	628.56
412.818	675.66
413.026	706.38
413.234	616.27
413.443	603.98
413.651	681.8
413.86	782.15
414.068	812.87
414.276	915.27
414.485	759.63
414.693	833.35
414.901	927.56
415.11	915.27
415.318	878.41
415.526	1003.33
415.734	968.52
415.943	976.71
416.151	1072.96
416.359	1132.36
416.567	1107.78
416.776	1167.17
416.984	1167.17
417.192	1134.4
417.4	1259.33
417.608	1328.96
417.817	1431.36
418.025	1488.7
418.233	1406.78
418.441	1517.37
418.649	1570.62
418.857	1689.4
419.065	1752.89
419.273	1742.65
419.481	1736.51
419.689	1957.69
419.897	2027.32
420.105	2006.84
420.313	2166.58
420.521	2088.76
420.729	2279.22
420.937	2320.18
421.145	2404.14
421.353	2500.4
421.561	2582.32
421.769	2639.66
421.977	2760.49
422.185	2754.35
422.393	2944.81
422.601	3069.73
422.809	3061.54
423.017	3002.15
423.224	3186.47
423.432	3483.42
423.64	3262.24
423.848	3649.31
424.056	3743.52
424.263	3860.25
424.471	3862.3
424.679	4022.04
424.887	4093.72
425.094	4232.98
425.302	4314.9
425.51	4583.18
425.718	4597.52
425.925	4620.05
426.133	5015.3
426.341	5142.28
426.548	5279.49
426.756	5469.95
426.964	5406.47
427.171	5799.68
427.379	5932.79
427.586	6020.86
427.794	6053.62
428.001	6483.7
428.209	6645.49
428.417	6713.07
428.624	7024.36
428.832	7212.78
429.039	7069.42
429.247	7005.93
429.454	7714.53
429.662	8087.26
429.869	7692
430.076	8459.99
430.284	8122.07
430.491	8253.14
430.699	8832.72
430.906	8947.4
431.114	9006.8
431.321	9604.8
431.528	9602.75
431.736	10278.58
431.943	10485.43
432.15	10221.24
432.358	10335.93
432.565	10759.86
432.772	10888.88
432.979	11437.73
433.187	11749.03
433.394	11802.27
433.601	12527.25
433.808	12584.6
434.016	12463.77
434.223	12883.6
434.43	13936.26
434.637	13487.75
434.844	14331.51
435.052	14655.09
435.259	14628.47
435.466	14681.72
435.673	14575.22
435.88	15461.99
436.087	16236.13
436.294	16594.52
436.501	15945.31
436.708	16567.9
436.915	16985.68
437.122	17567.31
437.329	17716.81
437.537	18126.4
437.743	18544.19
437.95	18040.39
438.157	19295.79
438.364	20031.01
438.571	20057.64
438.778	20139.55
438.985	21601.8
439.192	20905.49
439.399	21829.13
439.606	21116.44
439.813	22203.91
440.02	23707.12
440.227	23336.43
440.433	23322.1
440.64	23688.68
440.847	23891.43
441.054	24423.9
441.261	26029.51
441.467	25435.6
441.674	26027.46
441.881	26844.6
442.088	26981.82
442.294	26992.06
442.501	27510.19
442.708	28157.35
442.914	29269.4
443.121	30543.24
443.328	29515.15
443.534	31503.73
443.741	30819.71
443.948	30322.05
444.154	32718.18
444.361	32488.81
444.568	32724.32
444.774	32406.89
444.981	33355.1
445.187	33836.37
445.394	35466.55
445.6	35044.67
445.807	38280.46
446.013	36750.63
446.22	37627.16
446.426	38827.27
446.633	39003.39
446.839	40412.4
447.046	38655.24
447.252	41061.6
447.459	40987.88
447.665	40817.89
447.871	42329.3
448.078	44387.5
448.284	42300.62
448.491	43478.21
448.697	44565.68
448.903	45647
449.11	45735.07
449.316	44917.93
449.522	45722.78
449.728	46892.17
449.935	47232.13
450.141	47492.22
450.347	48067.7
450.553	46873.74
450.76	47481.98
450.966	48829.55
451.172	48266.36
451.378	49493.09
451.584	48041.08
451.791	49314.92
451.997	49636.45
452.203	49841.24
452.409	50582.61
452.615	49984.6
452.821	47811.71
453.027	47465.6
453.233	50015.32
453.44	48065.66
453.646	48977
453.852	48579.7
454.058	49427.56
454.264	47961.21
454.47	48718.96
454.676	47572.1
454.882	49386.6
455.088	44821.67
455.294	45466.78
455.5	46406.8
455.705	46709.9
455.911	44739.75
456.117	43990.2
456.323	43486.4
456.529	41141.47
456.735	42857.67
456.941	42071.25
457.147	40881.38
457.352	39556.35
457.558	39154.94
457.764	39290.11
457.97	38806.79
458.176	37651.73
458.381	37766.42
458.587	35941.68
458.793	35841.33
458.999	34284.87
459.204	36324.65
459.41	35339.58
459.616	32945.5
459.821	32884.06
460.027	32869.73
460.233	31749.49
460.438	30563.71
460.644	31200.63
460.85	29701.52
461.055	29347.22
461.261	29070.75
461.466	26723.77
461.672	26160.58
461.878	28013.99
462.083	25984.46
462.289	25595.34
462.494	25212.37
462.7	24284.64
462.905	23436.78
463.111	24489.44
463.316	24800.73
463.522	23897.58
463.727	23916.01
463.932	24178.15
464.138	23721.45
464.343	23713.26
464.549	23125.49
464.754	23678.44
464.959	23789.03
465.165	23426.54
465.37	22533.63
465.575	22214.15
465.781	22998.52
465.986	22775.29
466.191	22167.04
466.397	21476.88
466.602	20706.84
466.807	21634.57
467.012	21607.95
467.218	21480.97
467.423	21104.15
467.628	21108.24
467.833	22048.26
468.038	20925.97
468.244	20555.29
468.449	21632.52
468.654	20682.27
468.859	20586.01
469.064	20469.28
469.269	19699.24
469.474	19973.67
469.679	20223.52
469.885	19592.75
470.09	19975.72
470.295	19478.06
470.5	19070.51
470.705	19211.82
470.91	19144.24
471.115	18605.63
471.32	19160.62
471.525	18650.68
471.73	18499.13
471.935	18386.49
472.139	17774.15
472.344	17993.28
472.549	17776.2
472.754	17675.85
472.959	17241.68
473.164	16856.66
473.369	16551.51
473.574	17245.77
473.778	16807.51
473.983	16830.04
474.188	16639.58
474.393	15986.27
474.598	16211.55
474.802	15937.12
475.007	15617.64
475.212	15580.78
475.417	15418.99
475.621	15201.9
475.826	15320.68
476.031	15062.64
476.235	14741.11
476.44	14792.31
476.645	14382.71
476.849	14638.71
477.054	14614.13
477.259	14130.81
477.463	14089.85
477.668	13842.05
477.872	14083.71
478.077	13727.36
478.282	13524.61
478.486	13342.35
478.691	13188.75
478.895	13184.65
479.1	12959.38
479.304	13133.45
479.509	12828.31
479.713	13147.79
479.918	12695.19
480.122	12738.19
480.326	12600.98
480.531	12699.28
480.735	12598.93
480.94	12670.61
481.144	12766.87
481.348	12172.96
481.553	12508.82
481.757	12183.2
481.961	12072.61
482.166	12400.28
482.37	12357.27
482.574	12043.93
482.778	12279.45
482.983	12500.63
483.187	12164.76
483.391	12258.97
483.595	12052.13
483.8	12082.84
484.004	12209.82
484.208	12312.22
484.412	12084.89
484.616	12076.7
484.821	12226.2
485.025	11941.54
485.229	12076.7
485.433	12105.37
485.637	12113.56
485.841	11978.4
486.045	11916.96
486.249	12088.99
486.453	12070.56
486.657	11970.21
486.861	12201.63
487.065	11779.75
487.269	11888.29
487.473	11892.38
487.677	12064.41
487.881	12328.6
488.085	11978.4
488.289	12152.48
488.493	12160.67
488.697	12179.1
488.901	12140.19
489.105	12168.86
489.309	12283.55
489.512	12338.84
489.716	12234.39
489.92	12125.85
490.124	12234.39
490.328	12517.01
490.531	12267.16
490.735	12160.67
490.939	12095.13
491.143	12279.45
491.346	12256.92
491.55	12619.41
491.754	12758.67
491.958	12701.33
492.161	12664.47
492.365	12717.72
492.569	12531.35
492.772	12773.01
492.976	12713.62
493.18	12842.64
493.383	13078.16
493.587	13147.79
493.79	13149.84
493.994	12988.05
494.197	13074.06
494.401	13264.52
494.605	13405.83
494.808	13541
495.012	13536.9
495.215	13610.63
495.419	13737.6
495.622	13688.45
495.825	13956.74
496.029	13899.39
496.232	14382.71
496.436	14188.16
496.639	14550.65
496.843	14564.98
497.046	14626.42
497.249	14780.02
497.453	14874.23
497.656	15130.22
497.859	15048.3
498.063	15461.99
498.266	15730.28
498.469	15603.3
498.673	15822.44
498.876	15959.65
499.079	15945.31
499.282	16014.94
499.485	16473.69
499.689	16543.32
499.892	16647.77
500.095	16606.81
500.298	17114.7
500.501	16973.39
500.705	17292.88
500.908	17923.65
501.111	17942.08
501.314	17901.12
501.517	18169.41
501.72	18488.89
501.923	18423.36
502.126	18855.48
502.329	19195.44
502.532	18656.82
502.735	19256.88
502.938	19629.61
503.141	19652.14
503.344	19820.07
503.547	19848.74
503.75	20256.29
503.953	20403.74
504.156	20598.3
504.359	20964.89
504.562	21141.01
504.765	21595.66
504.968	21657.1
505.17	21743.11
505.373	21636.62
505.576	22019.59
505.779	22494.72
505.982	22398.46
506.185	22932.98
506.387	23014.9
506.59	23094.77
506.793	23117.3
506.996	23551.47
507.198	24022.5
507.401	23887.34
507.604	24444.38
507.807	24772.06
508.009	25046.49
508.212	25294.29
508.415	25175.51
508.617	25814.48
508.82	25890.25
509.022	25771.47
509.225	26637.76
509.428	26535.36
509.63	26846.65
509.833	26871.23
510.035	27598.26
510.238	27073.98
510.44	27518.39
510.643	27981.23
510.845	28485.03
511.048	28036.52
511.25	28802.46
511.453	28896.67
511.655	29646.22
511.858	29263.25
512.06	29887.89
512.262	29975.95
512.465	29990.28
512.667	30555.52
512.87	30741.89
513.072	30752.13
513.274	31382.9
513.477	31616.37
513.679	32040.3
513.881	32214.38
514.084	32765.28
514.286	32382.31
514.488	32867.68
514.69	33555.8
514.893	33404.25
515.095	33594.71
515.297	34063.69
515.499	34057.55
515.701	34536.77
515.904	35194.17
516.106	35272
516.308	35743.03
516.51	35890.48
516.712	36169.01
516.914	36048.18
517.116	36740.39
517.318	36566.31
517.52	37092.64
517.722	37131.55
517.925	37557.53
518.127	38266.13
518.329	38046.99
518.531	37958.93
518.733	38911.24
518.935	39329.02
519.136	38950.15
519.338	39863.54
519.54	39482.62
519.742	40029.43
519.944	40297.71
520.146	40486.12
520.348	40821.99
520.55	40944.87
520.752	41374.94
520.954	41905.37
521.155	41376.99
521.357	42583.24
521.559	42691.79
521.761	42980.55
521.963	42910.92
522.164	42890.44
522.366	43179.2
522.568	43910.33
522.77	43945.14
522.971	44076.21
523.173	44160.18
523.375	44821.67
523.576	44567.73
523.778	44653.74
523.98	45247.65
524.181	45376.67
524.383	45253.79
524.584	46093.46
524.786	45974.68
524.988	45782.17
525.189	46658.7
525.391	46480.53
525.592	46933.13
525.794	46965.9
525.995	46933.13
526.197	47146.12
526.398	46982.28
526.6	47699.07
526.801	47989.88
527.003	47584.38
527.204	47955.07
527.406	48295.03
527.607	48254.07
527.808	48573.55
528.01	47926.39
528.211	48331.89
528.412	49013.87
528.614	48729.2
528.815	48288.88
529.016	49194.09
529.218	48473.2
529.419	48577.65
529.62	49011.82
529.822	49058.92
530.023	49001.58
530.224	49030.25
530.425	48999.53
530.626	48778.35
530.828	49079.4
531.029	49943.64
531.23	49300.58
531.431	49271.91
531.632	49652.83
531.833	49663.07
532.035	49732.7
532.236	49501.28
532.437	50121.82
532.638	49734.75
532.839	49964.12
533.04	49738.85
533.241	49751.13
533.442	50023.51
533.643	50132.06
533.844	49734.75
534.045	50224.21
534.246	49441.89
534.447	49833.05
534.648	49452.13
534.849	50173.02
535.05	49644.64
535.251	50015.32
535.451	50154.58
535.652	50095.19
535.853	49769.57
536.054	50052.19
536.255	50080.86
536.456	49304.68
536.657	50246.74
536.857	49532
537.058	49835.1
537.259	49986.65
537.46	49917.02
537.66	49560.67
537.861	50154.58
538.062	49276.01
538.263	50302.04
538.463	49575.01
538.664	49697.89
538.865	49790.05
539.065	50000.99
539.266	49294.44
539.466	50338.9
539.667	49132.65
539.868	50091.1
540.068	49749.09
540.269	49523.81
540.469	50197.59
540.67	49370.21
540.87	49488.99
541.071	49468.51
541.271	49687.65
541.472	49638.5
541.672	49517.67
541.873	48761.97
542.073	49007.72
542.274	49826.91
542.474	49144.94
542.675	48919.66
542.875	49847.39
543.075	48729.2
543.276	48813.16
543.476	49755.23
543.676	49192.04
543.877	49501.28
544.077	49171.56
544.277	49185.89
544.478	48907.37
544.678	49661.02
544.878	49093.74
545.078	49075.3
545.279	49005.67
545.479	48837.74
545.679	48942.19
545.879	49060.97
546.079	49345.64
546.28	48647.28
546.48	48831.6
546.68	49220.71
546.88	48897.13
547.08	49034.35
547.28	48903.28
547.48	48325.75
547.68	49255.53
547.88	48391.28
548.081	48559.22
548.281	48827.5
548.481	48876.65
548.681	49083.5
548.881	48780.4
549.081	48477.3
549.28	48700.53
549.48	48921.71
549.68	48505.97
549.88	49521.76
550.08	48559.22
550.28	48936.04
550.48	48450.67
550.68	48620.66
550.88	48247.93
551.08	48823.4
551.279	48542.83
551.479	48096.38
551.679	48716.91
551.879	48227.45
552.079	48702.57
552.278	48329.84
552.478	48186.49
552.678	47924.35
552.878	48702.57
553.077	48424.05
553.277	47895.67
553.477	48706.67
553.676	48403.57
553.876	48403.57
554.076	47744.12
554.275	47987.83
554.475	47420.55
554.674	48065.66
554.874	48045.18
555.074	47795.32
555.273	48434.29
555.473	48133.24
555.672	47514.75
555.872	48073.85
556.071	48039.03
556.271	47803.52
556.47	47768.7
556.67	47406.21
556.869	47692.93
557.068	47645.82
557.268	47830.14
557.467	47316.1
557.667	47301.76
557.866	47776.89
558.065	47414.4
558.265	46990.47
558.464	46701.71
558.663	47907.96
558.863	46787.72
559.062	47496.32
559.261	46826.63
559.461	47789.18
559.66	46548.11
559.859	47246.47
560.058	46359.7
560.258	46783.63
560.457	46300.31
560.656	46613.65
560.855	47086.73
561.054	47068.3
561.253	46560.4
561.453	46718.09
561.652	46871.69
561.851	46646.41
562.05	46642.32
562.249	45855.9
562.448	46228.63
562.647	46089.37
562.846	46554.25
563.045	46306.45
563.244	45868.19
563.443	46707.85
563.642	45517.98
563.841	45773.98
564.04	45681.82
564.239	46337.17
564.438	45495.46
564.637	46220.44
564.836	45720.73
565.035	45630.62
565.234	45728.92
565.432	45190.31
565.631	45151.4
565.83	45411.49
566.029	44842.15
566.228	45202.6
566.427	45124.77
566.625	44850.34
566.824	44414.13
567.023	44930.22
567.222	44213.43
567.42	44850.34
567.619	44338.35
567.818	44610.73
568.016	44727.47
568.215	44590.25
568.414	44168.37
568.612	44803.24
568.811	44182.71
569.01	44309.68
569.208	43807.93
569.407	44186.8
569.605	43508.93
569.804	43967.67
570.002	43345.09
570.201	43955.38
570.4	43369.66
570.598	43345.09
570.797	43281.6
570.995	43519.17
571.193	43023.56
571.392	43631.8
571.59	43148.48
571.789	43156.67
571.987	42988.74
572.186	43011.27
572.384	42697.93
572.582	42775.75
572.781	42806.47
572.979	42255.57
573.177	42536.14
573.376	42783.94
573.574	41954.52
573.772	42517.71
573.971	41981.14
574.169	41665.75
574.367	41891.03
574.565	41927.89
574.763	42020.05
574.962	41616.6
575.16	41055.46
575.358	41745.62
575.556	40809.7
575.754	41600.22
575.952	40977.64
576.151	41088.23
576.349	41123.04
576.547	40707.3
576.745	40905.96
576.943	40846.57
577.141	40852.71
577.339	40502.51
577.537	40752.36
577.735	40522.99
577.933	39757.05
578.131	40162.54
578.329	40031.47
578.527	39910.64
578.725	39924.98
578.923	39976.18
579.121	39517.43
579.319	39736.57
579.516	39908.6
579.714	39490.81
579.912	39298.3
580.11	39349.5
580.308	39300.35
580.506	39220.48
580.704	38835.46
580.901	38991.11
581.099	39208.19
581.297	38657.29
581.495	38544.65
581.692	38663.43
581.89	38264.08
582.088	38536.46
582.285	38243.6
582.483	38364.43
582.681	38339.85
582.878	38106.38
583.076	37776.66
583.274	38188.3
583.471	37702.93
583.669	37725.46
583.866	37213.47
584.064	37760.28
584.262	37236
584.459	37528.86
584.657	37199.13
584.854	37516.57
585.052	36490.54
585.249	36939.04
585.447	36906.27
585.644	36330.79
585.841	37068.06
586.039	36648.23
586.236	36377.9
586.434	36787.49
586.631	36226.35
586.828	36046.13
587.026	36232.49
587.223	36140.33
587.42	35894.58
587.618	36015.41
587.815	35550.52
588.012	35470.65
588.21	35575.09
588.407	35923.25
588.604	35583.29
588.801	35480.89
588.999	35013.95
589.196	35228.99
589.393	35153.21
589.59	35147.07
589.787	34526.53
589.984	34831.68
590.182	34497.86
590.379	34678.08
590.576	34348.36
590.773	34461
590.97	34129.23
591.167	34196.81
591.364	33838.42
591.561	34045.26
591.758	33461.59
591.955	33549.65
592.152	33893.71
592.349	33383.77
592.546	33105.24
592.743	33625.43
592.94	33039.71
593.137	33082.72
593.334	33131.87
593.531	32433.51
593.727	33138.01
593.924	32695.65
594.121	32408.93
594.318	32959.84
594.515	32087.4
594.712	32666.98
594.908	32062.83
595.105	32183.66
595.302	31774.06
595.499	32269.67
595.696	31921.52
595.892	31634.8
596.089	31772.02
596.286	31819.12
596.482	31387
596.679	31307.13
596.876	31497.59
597.072	31311.22
597.269	31151.48
597.466	30655.87
597.662	30877.05
597.859	30854.53
598.055	31016.32
598.252	31032.7
598.448	30784.9
598.645	30514.56
598.841	30401.93
599.038	30528.9
599.234	30203.27
599.431	29879.69
599.627	29803.92
599.824	30018.96
600.02	29615.51
600.217	29920.65
600.413	29681.04
600.609	29752.72
600.806	29253.01
601.002	29554.07
601.198	29420.95
601.395	28964.25
601.591	28845.47
601.787	29238.68
601.984	28702.11
602.18	28902.81
602.376	28747.17
602.572	28628.38
602.769	28673.44
602.965	28333.48
603.161	28413.35
603.357	28087.72
603.553	28151.21
603.75	28325.29
603.946	27987.37
604.142	28054.95
604.338	27909.55
604.534	27895.21
604.73	27450.8
604.926	27596.21
605.122	27667.89
605.318	27235.77
605.514	27518.39
605.71	27325.88
605.906	26897.85
606.102	27497.91
606.298	26846.65
606.494	26934.71
606.69	27139.51
606.886	27346.36
607.082	26443.2
607.278	26674.62
607.474	26346.95
607.67	26789.31
607.866	26527.17
608.062	26742.21
608.257	26283.46
608.453	26449.35
608.649	26355.14
608.845	25806.28
609.041	26185.16
609.236	26439.11
609.432	25837
609.628	25871.82
609.824	25662.93
610.019	25931.21
610.215	25910.73
610.411	25503.18
610.606	25654.73
610.802	25761.23
610.998	25513.42
611.193	25611.73
611.389	25550.29
611.584	25019.86
611.78	25191.89
611.976	25427.41
612.171	25474.51
612.367	25243.09
612.562	25046.49
612.758	24776.16
612.953	24698.33
613.149	25146.84
613.344	24571.36
613.539	25120.21
613.735	24737.24
613.93	25038.3
614.126	25298.39
614.321	24888.79
614.517	24849.88
614.712	24507.87
614.907	24554.97
615.103	24729.05
615.298	24425.95
615.493	24833.5
615.688	24122.85
615.884	24745.44
616.079	24061.41
616.274	24552.93
616.47	24298.98
616.665	24184.29
616.86	24251.88
617.055	23971.3
617.25	23901.67
617.445	24163.81
617.641	23516.65
617.836	23836.14
618.031	23283.19
618.226	23803.37
618.421	23399.92
618.616	23893.48
618.811	23090.68
619.006	23770.6
619.201	22875.64
619.396	23129.59
619.591	22758.91
619.786	23043.57
619.981	22461.95
620.176	22605.31
620.371	22468.09
620.566	22513.15
620.761	22330.88
620.956	22638.08
621.151	22175.23
621.346	22365.7
621.541	21777.93
621.735	22099.46
621.93	21749.26
622.125	21784.07
622.32	21302.8
622.515	21364.24
622.709	21454.35
622.904	21206.55
623.099	21032.47
623.294	21253.65
623.488	20842.01
623.683	20897.3
623.878	20540.96
624.072	20561.44
624.267	20520.48
624.462	20532.76
624.656	20284.96
624.851	20125.22
625.046	19820.07
625.24	20004.39
625.435	19695.14
625.629	19875.37
625.824	19514.92
626.018	19883.56
626.213	19129.91
626.407	19385.9
626.602	19054.13
626.796	19330.61
626.991	19025.46
627.185	18933.3
627.38	18503.23
627.574	18650.68
627.768	18566.71
627.963	18433.6
628.157	18157.12
628.352	18464.32
628.546	18107.97
628.74	18308.67
628.935	17905.22
629.129	17788.49
629.323	17649.22
629.517	17677.9
629.712	17684.04
629.906	17260.11
630.1	17362.51
630.294	17503.82
630.489	17399.37
630.683	17305.17
630.877	16952.91
631.071	16889.43
631.265	17038.93
631.459	17030.74
631.653	16307.8
631.848	16510.55
632.042	16481.88
632.236	16414.3
632.43	16219.74
632.624	16387.68
632.818	16047.71
633.012	15732.33
633.206	15971.94
633.4	15793.76
633.594	15566.44
633.788	15496.81
633.982	15537.77
634.176	15404.65
634.369	15441.51
634.563	15271.53
634.757	15238.76
634.951	15490.66
635.145	15236.72
635.339	15310.44
635.533	14775.92
635.726	14984.82
635.92	14730.87
636.114	14691.96
636.308	14784.12
636.501	14691.96
636.695	14495.35
636.889	14433.91
637.083	14366.33
637.276	14483.06
637.47	14302.84
637.664	14022.27
637.857	14243.45
638.051	14077.57
638.244	13977.22
638.438	13665.92
638.632	13844.1
638.825	13758.08
639.019	13665.92
639.212	13500.04
639.406	13584.01
639.599	13258.38
639.793	13362.83
639.986	13342.35
640.18	13180.56
640.373	13176.46
640.567	12852.88
640.76	13006.48
640.954	12533.4
641.147	12979.86
641.34	12773.01
641.534	12695.19
641.727	12666.52
641.92	12566.17
642.114	12574.36
642.307	12412.57
642.5	12353.18
642.694	12068.51
642.887	12156.57
643.08	12197.53
643.273	11976.35
643.467	12072.61
643.66	11798.18
643.853	11873.95
644.046	11515.56
644.239	11548.33
644.432	11738.79
644.626	11546.28
644.819	11499.17
645.012	11521.7
645.205	11523.75
645.398	11259.56
645.591	11275.95
645.784	11337.38
645.977	11124.4
646.17	11024.05
646.363	11110.06
646.556	10772.14
646.749	11069.1
646.942	11110.06
647.135	10983.09
647.328	10530.48
647.521	10716.85
647.714	10458.81
647.907	10710.71
648.099	10444.47
648.292	10499.77
648.485	10340.02
648.678	10417.85
648.871	10389.17
649.064	10335.93
649.256	10340.02
649.449	10106.56
649.642	10102.46
649.835	9744.06
650.027	10004.16
650.22	9813.7
650.413	9787.07
650.605	9709.25
650.798	9578.18
650.991	9565.89
651.183	9414.34
651.376	9705.15
651.568	9342.66
651.761	9502.4
651.954	9576.13
652.146	9283.27
652.339	9531.08
652.531	9326.28
652.724	9316.04
652.916	9107.15
653.109	9060.04
653.301	9027.28
653.494	9080.52
653.686	8865.49
653.879	9070.28
654.071	8816.33
654.263	8789.71
654.456	8791.76
654.648	8838.86
654.84	8752.85
655.033	8742.61
655.225	8607.44
655.417	8591.06
655.61	8441.56
655.802	8582.87
655.994	8376.02
656.186	8416.98
656.379	8392.41
656.571	8507.09
656.763	8265.43
656.955	8156.89
657.148	8152.79
657.34	8140.51
657.532	8179.42
657.724	8081.11
657.916	8058.59
658.108	8007.39
658.3	7943.9
658.492	7986.91
658.684	7616.23
658.876	7827.17
659.068	7796.45
659.26	7495.39
659.452	7657.18
659.644	7485.16
659.836	7542.5
660.028	7708.38
660.22	7456.48
660.412	7503.59
660.604	7372.52
660.796	7347.94
660.988	7270.12
661.18	7288.55
661.372	7229.16
661.563	7325.41
661.755	7245.54
661.947	7192.3
662.139	7057.13
662.331	7024.36
662.522	6952.68
662.714	7067.37
662.906	6911.72
663.097	6635.25
663.289	7046.89
663.481	6749.93
663.673	6756.08
663.864	6627.06
664.056	6741.74
664.247	6764.27
664.439	6569.71
664.631	6594.29
664.822	6625.01
665.014	6670.06
665.205	6538.99
665.397	6448.88
665.588	6412.02
665.78	6506.23
665.971	6328.05
666.163	6397.68
666.354	6424.31
666.546	6293.24
666.737	6205.17
666.929	6235.89
667.12	6233.85
667.311	6205.17
667.503	6182.65
667.694	6317.81
667.885	6078.2
668.077	6239.99
668.268	5850.88
668.459	5854.97
668.651	5945.08
668.842	5973.75
669.033	6008.57
669.224	5672.7
669.416	5762.81
669.607	5924.6
669.798	5922.55
669.989	5805.82
670.18	5699.33
670.371	5809.92
670.563	5715.71
670.754	5605.12
670.945	5711.61
671.136	5687.04
671.327	5547.78
671.518	5492.48
671.709	5543.68
671.9	5490.43
672.091	5383.94
672.282	5570.3
672.473	5289.73
672.664	5418.75
672.855	5295.88
673.046	5443.33
673.237	5367.56
673.428	5328.64
673.619	5338.88
673.809	5263.11
674	5189.38
674.191	5293.83
674.382	5146.37
674.573	5259.01
674.764	5279.49
674.954	5205.77
675.145	5025.54
675.336	5295.88
675.527	5056.26
675.717	5181.19
675.908	5050.12
676.099	5129.99
676.289	5013.26
676.48	5115.66
676.671	4943.63
676.861	4953.87
677.052	4867.85
677.243	4837.13
677.433	4943.63
677.624	4933.39
677.814	4882.19
678.005	4861.71
678.195	4947.72
678.386	4949.77
678.576	4751.12
678.767	4812.56
678.957	4744.97
679.148	4830.99
679.338	4775.69
679.529	4699.92
679.719	4609.81
679.909	4771.6
680.1	4603.66
680.29	4595.47
680.481	4605.71
680.671	4503.31
680.861	4458.26
681.052	4685.58
681.242	4851.47
681.432	4613.9
681.622	4540.18
681.813	4480.78
682.003	4525.84
682.193	4542.22
682.383	4458.26
682.573	4507.41
682.764	4306.71
682.954	4441.87
683.144	4476.69
683.334	4323.09
683.524	4349.71
683.714	4407.06
683.904	4357.91
684.094	4509.46
684.284	4302.61
684.474	4327.19
684.664	4343.57
684.854	4216.6
685.044	4232.98
685.234	4306.71
685.424	4253.46
685.614	4210.45
685.804	4275.99
685.994	4253.46
686.184	4050.71
686.374	4097.81
686.564	4081.43
686.753	4085.53
686.943	4173.59
687.133	4253.46
687.323	3950.36
687.513	4134.68
687.702	4157.21
687.892	4015.9
688.082	3942.17
688.272	3890.97
688.461	3915.55
688.651	3907.35
688.841	3868.44
689.03	3753.76
689.22	4011.8
689.41	3753.76
689.599	3807
689.789	3944.22
689.979	3802.91
690.168	3729.18
690.358	3759.9
690.547	3690.27
690.737	3780.38
690.926	3727.13
691.116	3639.07
691.305	3630.88
691.495	3667.74
691.684	3637.02
691.874	3759.9
692.063	3577.63
692.252	3518.24
692.442	3706.65
692.631	3546.91
692.82	3462.94
693.01	3585.82
693.199	3518.24
693.388	3493.66
693.578	3637.02
693.767	3489.57
693.956	3419.94
694.146	3440.42
694.335	3395.36
694.524	3475.23
694.713	3450.66
694.902	3366.69
695.092	3440.42
695.281	3524.38
695.47	3387.17
695.659	3368.74
695.848	3508
696.037	3319.59
696.226	3307.3
696.415	3344.16
696.604	3399.46
696.793	3258.15
696.982	3286.82
697.171	3249.96
697.36	3188.52
697.549	3297.06
697.738	3254.05
697.927	3315.49
698.116	3280.68
698.305	3065.64
698.494	3217.19
698.683	3288.87
698.872	3381.03
699.061	3213.09
699.25	3155.75
699.438	3303.2
699.627	3079.97
699.816	3252
700.005	3161.89
700.193	3280.68
700.382	3219.24
700.571	3084.07
700.76	3297.06
700.948	3084.07
701.137	3122.98
701.326	3102.5
701.514	3163.94
701.703	3100.45
701.892	3114.79
702.08	3215.14
702.269	3147.56
702.457	3116.84
702.646	2998.06
702.834	3063.59
703.023	3174.18
703.212	3082.02
703.4	3118.89
703.589	3039.01
703.777	3120.93
703.965	3116.84
704.154	3075.88
704.342	3045.16
704.531	3026.73
704.719	3022.63
704.907	3198.76
705.096	3090.21
705.284	3106.6
705.472	2969.38
705.661	2993.96
705.849	3034.92
706.037	2996.01
706.226	2977.58
706.414	3045.16
706.602	3075.88
706.79	3104.55
706.979	3043.11
707.167	3100.45
707.355	2963.24
707.543	3139.37
707.731	3043.11
707.919	3059.49
708.107	2983.72
708.296	3020.58
708.484	2953
708.672	2993.96
708.86	3092.26
709.048	3008.3
709.236	2950.95
709.424	2965.29
709.612	2936.62
709.8	2823.98
709.988	2975.53
710.176	3041.06
710.364	2961.19
710.551	2959.14
710.739	2840.36
710.927	2928.42
711.115	2942.76
711.303	2930.47
711.491	2934.57
711.679	2842.41
711.866	2950.95
712.054	3014.44
712.242	2981.67
712.43	3016.49
712.617	2844.46
712.805	3024.68
712.993	2953
713.181	2746.16
713.368	2852.65
713.556	2895.66
713.744	2858.79
713.931	2914.09
714.119	2860.84
714.306	2924.33
714.494	2697
714.682	2846.51
714.869	2916.14
715.057	2938.66
715.244	2907.94
715.432	2875.18
715.619	2869.03
715.807	2981.67
715.994	2875.18
716.182	2926.38
716.369	2821.93
716.556	2916.14
716.744	2897.71
716.931	2914.09
717.119	2754.35
717.306	2912.04
717.493	2905.9
717.681	2932.52
717.868	2975.53
718.055	2850.6
718.242	2789.16
718.43	2834.22
718.617	2684.72
718.804	2791.21
718.991	2854.7
719.179	2715.44
719.366	2807.59
719.553	2836.27
719.74	2774.83
719.927	2793.26
720.114	2801.45
720.301	2844.46
720.488	2723.63
720.676	2717.48
720.863	2697
721.05	2742.06
721.237	2828.07
721.424	2848.55
721.611	2795.31
721.798	2789.16
721.985	2803.5
722.172	2676.52
722.358	2748.2
722.545	2772.78
722.732	2643.76
722.919	2799.4
723.106	2838.31
723.293	2789.16
723.48	2594.61
723.667	2821.93
723.853	2725.68
724.04	2682.67
724.227	2809.64
724.414	2723.63
724.6	2637.61
724.787	2645.8
724.974	2711.34
725.161	2680.62
725.347	2643.76
725.534	2676.52
725.72	2588.46
725.907	2725.68
726.094	2697
726.28	2676.52
726.467	2725.68
726.653	2643.76
726.84	2629.42
727.027	2715.44
727.213	2598.7
727.4	2658.09
727.586	2551.6
727.773	2557.74
727.959	2510.64
728.145	2641.71
728.332	2717.48
728.518	2631.47
728.705	2647.85
728.891	2498.35
729.077	2680.62
729.264	2508.59
729.45	2686.76
729.636	2637.61
729.823	2520.88
730.009	2647.85
730.195	2752.3
730.382	2557.74
730.568	2588.46
730.754	2576.17
730.94	2678.57
731.126	2584.37
731.313	2559.79
731.499	2649.9
731.685	2570.03
731.871	2467.63
732.057	2553.65
732.243	2647.85
732.429	2524.97
732.615	2617.13
732.801	2516.78
732.987	2563.89
733.173	2533.17
733.359	2479.92
733.545	2570.03
733.731	2547.5
733.917	2529.07
734.103	2518.83
734.289	2504.5
734.475	2578.22
734.661	2549.55
734.847	2549.55
735.033	2424.62
735.219	2518.83
735.404	2434.86
735.59	2475.82
735.776	2398
735.962	2336.56
736.148	2338.61
736.333	2481.97
736.519	2488.11
736.705	2410.29
736.89	2438.96
737.076	2422.58
737.262	2365.23
737.447	2324.27
737.633	2221.88
737.819	2471.73
738.004	2344.75
738.19	2369.33
738.375	2350.9
738.561	2314.03
738.747	2246.45
738.932	2410.29
739.118	2350.9
739.303	2271.03
739.489	2279.22
739.674	2410.29
739.859	2281.27
740.045	2285.36
740.23	2236.21
740.416	2182.96
740.601	2336.56
740.786	2262.83
740.972	2299.7
741.157	2277.17
741.342	2185.01
741.528	2242.36
741.713	2264.88
741.898	2170.68
742.084	2197.3
742.269	2066.23
742.454	2271.03
742.639	2150.2
742.824	2197.3
743.01	2221.88
743.195	2277.17
743.38	2068.28
743.565	2107.19
743.75	2125.62
743.935	2062.13
744.12	2182.96
744.305	2078.52
744.49	2150.2
744.675	1943.35
744.86	2062.13
745.045	2072.37
745.23	2058.04
745.415	2096.95
745.6	2015.03
745.785	1976.12
745.97	2086.71
746.155	2072.37
746.34	1851.19
746.525	1926.97
746.71	2012.98
746.895	1937.21
747.079	1955.64
747.264	2021.17
747.449	1898.3
747.634	1933.11
747.819	1845.05
748.003	1898.3
748.188	1961.78
748.373	1904.44
748.557	1834.81
748.742	1857.34
748.927	1742.65
749.111	1761.08
749.296	1797.95
749.481	1777.47
749.665	1697.6
749.85	1785.66
750.034	1793.85
750.219	1726.27
750.404	1754.94
750.588	1711.93
750.773	1713.98
750.957	1748.79
751.141	1711.93
751.326	1630.01
751.51	1615.68
751.695	1605.44
751.879	1681.21
752.064	1576.77
752.248	1742.65
752.432	1748.79
752.617	1515.33
752.801	1576.77
752.985	1574.72
753.17	1593.15
753.354	1589.05
753.538	1537.85
753.722	1480.51
753.907	1558.33
754.091	1494.85
754.275	1509.18
754.459	1529.66
754.643	1566.53
754.828	1425.22
755.012	1472.32
755.196	1498.94
755.38	1460.03
755.564	1474.37
755.748	1236.8
755.932	1472.32
756.116	1365.82
756.3	1435.46
756.484	1214.27
756.668	1335.1
756.852	1351.49
757.036	1312.58
757.22	1290.05
757.404	1310.53
757.588	1363.78
757.772	1290.05
757.956	1404.74
758.14	1283.91
758.323	1283.91
758.507	1247.04
758.691	1257.28
758.875	1183.56
759.059	1296.19
759.242	1199.94
759.426	1226.56
759.61	1234.75
759.794	1269.57
759.977	1208.13
760.161	1187.65
760.345	1279.81
760.528	1204.03
760.712	1208.13
760.895	1161.03
761.079	1126.21
761.263	984.9
761.446	1128.26
761.63	1179.46
761.813	1253.19
761.997	1120.07
762.18	1095.49
762.364	1138.5
762.547	1040.2
762.731	1118.02
762.914	1206.08
763.098	1077.06
763.281	1087.3
763.464	1130.31
763.648	1005.38
763.831	1058.63
764.015	1068.87
764.198	1070.92
764.381	1066.82
764.564	1083.2
764.748	1056.58
764.931	1089.35
765.114	958.28
765.297	976.71
765.481	982.85
765.664	956.23
765.847	1017.67
766.03	937.8
766.213	1011.53
766.397	923.46
766.58	1005.38
766.763	989
766.946	950.09
767.129	1072.96
767.312	943.94
767.495	1013.57
767.678	937.8
767.861	837.45
768.044	948.04
768.227	935.75
768.41	974.66
768.593	943.94
768.776	1005.38
768.959	892.74
769.142	989
769.324	941.89
769.507	917.32
769.69	853.83
769.873	964.42
770.056	925.51
770.239	870.22
770.421	905.03
770.604	970.57
770.787	892.74
770.97	870.22
771.152	882.5
771.335	921.42
771.518	880.46
771.7	890.7
771.883	866.12
772.066	880.46
772.248	894.79
772.431	806.73
772.613	888.65
772.796	808.78
772.978	925.51
773.161	788.3
773.343	794.44
773.526	769.87
773.708	749.39
773.891	769.87
774.073	749.39
774.256	720.71
774.438	857.93
774.621	747.34
774.803	778.06
774.985	743.24
775.168	726.86
775.35	745.29
775.532	702.28
775.715	700.23
775.897	800.59
776.079	630.6
776.261	720.71
776.444	782.15
776.626	757.58
776.808	667.47
776.99	673.61
777.173	679.75
777.355	649.04
777.537	687.95
777.719	685.9
777.901	620.36
778.083	632.65
778.265	724.81
778.447	653.13
778.629	671.56
778.811	646.99
778.993	679.75
779.175	651.08
779.357	667.47
779.539	554.83
779.721	638.8
779.903	593.74
780.085	618.32
780.267	612.17
780.449	702.28
780.631	544.59
780.812	603.98
780.994	610.12
781.176	630.6
781.358	612.17
781.54	585.55
781.721	558.92
781.903	560.97
782.085	651.08
782.267	577.36
782.448	511.82
782.63	606.03
782.812	546.64
782.993	517.97
783.175	579.4
783.357	595.79
783.538	515.92
783.72	591.69
783.901	470.86
784.083	520.01
784.264	560.97
784.446	509.77
784.627	448.33
784.809	532.3
784.99	503.63
785.172	499.53
785.353	436.05
785.535	481.1
785.716	438.09
785.897	458.57
786.079	423.76
786.26	491.34
786.441	347.98
786.623	384.85
786.804	468.81
786.985	511.82
787.167	413.52
787.348	466.77
787.529	397.14
787.71	456.53
787.891	442.19
788.073	409.42
788.254	442.19
788.435	434
788.616	431.95
788.797	440.14
788.978	325.46
789.159	446.29
789.34	331.6
789.522	421.71
789.703	499.53
789.884	298.83
790.065	419.66
790.246	417.61
790.427	397.14
790.607	313.17
790.788	317.26
790.969	337.74
791.15	315.22
791.331	360.27
791.512	382.8
791.693	343.89
791.874	345.94
792.054	374.61
792.235	341.84
792.416	368.46
792.597	333.65
792.778	298.83
792.958	429.9
793.139	323.41
793.32	384.85
793.5	366.42
793.681	370.51
793.862	331.6
794.042	323.41
794.223	266.07
794.404	347.98
794.584	350.03
794.765	317.26
794.945	257.87
795.126	313.17
795.306	358.22
795.487	296.78
795.667	378.7
795.848	327.5
796.028	329.55
796.209	298.83
796.389	325.46
796.57	294.74
796.75	253.78
796.93	309.07
797.111	298.83
797.291	282.45
797.471	323.41
797.652	272.21
797.832	282.45
798.012	247.63
798.192	235.35
798.373	333.65
798.553	329.55
798.733	307.02
798.913	251.73
799.093	233.3
799.274	309.07
799.454	247.63
799.634	307.02
799.814	206.67
799.994	249.68
800.174	272.21
800.354	298.83
800.534	171.86
800.714	261.97
800.894	307.02
801.074	241.49
801.254	274.26
801.434	253.78
801.614	243.54
801.794	229.2
801.974	628.56
802.154	182.1
802.334	276.31
802.514	225.11
802.693	231.25
802.873	261.97
803.053	274.26
803.233	206.67
803.413	229.2
803.592	188.24
803.772	165.71
803.952	245.59
804.131	255.83
804.311	216.91
804.491	276.31
804.67	214.87
804.85	225.11
805.03	235.35
805.209	268.11
805.389	165.71
805.568	206.67
805.748	247.63
805.928	249.68
806.107	204.63
806.287	161.62
806.466	278.35
806.646	180.05
806.825	175.95
807.004	218.96
807.184	272.21
807.363	192.34
807.543	200.53
807.722	237.39
807.901	229.2
808.081	180.05
808.26	143.19
808.439	182.1
808.619	206.67
808.798	204.63
808.977	171.86
809.156	212.82
809.336	178
809.515	198.48
809.694	212.82
809.873	208.72
810.052	235.35
810.231	206.67
810.411	139.09
810.59	272.21
810.769	128.85
810.948	188.24
811.127	145.24
811.306	202.58
811.485	169.81
811.664	204.63
811.843	173.91
812.022	198.48
812.201	137.04
812.38	200.53
812.559	173.91
812.737	153.43
812.916	159.57
813.095	163.67
813.274	169.81
813.453	159.57
813.632	126.8
813.811	132.95
813.989	116.56
814.168	188.24
814.347	110.42
814.526	184.15
814.704	180.05
814.883	169.81
815.062	180.05
815.24	139.09
815.419	163.67
815.598	190.29
815.776	73.56
815.955	124.76
816.133	149.33
816.312	137.04
816.49	165.71
816.669	143.19
816.847	171.86
817.026	155.47
817.204	155.47
817.383	147.28
817.561	77.65
817.74	106.32
817.918	145.24
818.097	165.71
818.275	59.22
818.453	110.42
818.632	126.8
818.81	102.23
818.988	132.95
819.167	98.13
819.345	188.24
819.523	59.22
819.701	196.43
819.879	175.95
820.058	63.32
820.236	132.95
820.414	173.91
820.592	171.86
820.77	169.81
820.948	128.85
821.127	124.76
821.305	153.43
821.483	106.32
821.661	161.62
821.839	106.32
822.017	143.19
822.195	120.66
822.373	153.43
822.551	186.19
822.729	102.23
822.907	51.03
823.085	141.14
823.262	91.99
823.44	36.69
823.618	180.05
823.796	32.6
823.974	151.38
824.152	128.85
824.329	141.14
824.507	53.08
824.685	110.42
824.863	104.28
825.04	89.94
825.218	102.23
825.396	73.56
825.574	75.6
825.751	143.19
825.929	63.32
826.107	67.41
826.284	32.6
826.462	83.8
826.639	30.55
826.817	38.74
826.994	57.17
827.172	100.18
827.349	126.8
827.527	112.47
827.704	63.32
827.882	149.33
828.059	100.18
828.237	161.62
828.414	132.95
828.591	1.88
828.769	79.7
828.946	65.36
829.124	65.36
829.301	128.85
829.478	55.12
829.655	63.32
829.833	79.7
830.01	38.74
830.187	100.18
830.364	65.36
830.542	124.76
830.719	145.24
830.896	75.6
831.073	89.94
831.25	102.23
831.427	108.37
831.604	67.41
831.782	137.04
831.959	102.23
832.136	65.36
832.313	22.36
832.49	65.36
832.667	38.74
832.844	44.88
833.021	102.23
833.198	51.03
833.374	61.27
833.551	110.42
833.728	126.8
833.905	28.5
834.082	26.45
834.259	79.7
834.436	114.52
834.612	-4.27
834.789	51.03
834.966	46.93
835.143	48.98
835.319	36.69
835.496	44.88
835.673	116.56
835.85	20.31
836.026	61.27
836.203	108.37
836.38	26.45
836.556	-0.17
836.733	42.84
836.909	94.04
837.086	81.75
837.262	53.08
837.439	55.12
837.616	59.22
837.792	55.12
837.968	83.8
838.145	32.6
838.321	51.03
838.498	87.89
838.674	147.28
838.851	112.47
839.027	1.88
839.203	26.45
839.38	87.89
839.556	-51.37
839.732	42.84
839.909	40.79
840.085	22.36
840.261	75.6
840.437	69.46
840.614	46.93
840.79	20.31
840.966	40.79
841.142	16.21
841.318	55.12
841.494	71.51
841.671	48.98
841.847	1.88
842.023	79.7
842.199	38.74
842.375	65.36
842.551	12.12
842.727	143.19
842.903	77.65
843.079	12.12
843.255	22.36
843.431	-37.03
843.607	46.93
843.783	3.93
843.959	67.41
844.134	-24.75
844.31	77.65
844.486	-10.41
844.662	-0.17
844.838	149.33
845.013	42.84
845.189	40.79
845.365	48.98
845.541	63.32
845.716	114.52
845.892	57.17
846.068	34.64
846.244	-0.17
846.419	28.5
846.595	12.12
846.77	-28.84
846.946	36.69
847.122	112.47
847.297	79.7
847.473	75.6
847.648	91.99
847.824	112.47
847.999	-2.22
848.175	75.6
848.35	-0.17
848.526	63.32
848.701	10.07
848.876	85.84
849.052	100.18
849.227	67.41
849.403	-32.94
849.578	42.84
849.753	-4.27
849.929	71.51
850.104	-0.17
850.279	116.56
850.454	75.6
850.63	46.93
850.805	34.64
850.98	77.65
851.155	-39.08
851.33	3.93
851.505	-16.55
851.681	122.71
851.856	16.21
852.031	-6.31
852.206	44.88
852.381	-32.94
852.556	34.64
852.731	83.8
852.906	94.04
853.081	8.02
853.256	-22.7
853.431	14.17
853.606	-2.22
853.781	26.45
853.956	-6.31
854.131	10.07
854.305	18.26
854.48	-4.27
854.655	10.07
854.83	96.08
855.005	8.02
855.18	40.79
855.354	-8.36
855.529	59.22
855.704	-6.31
855.879	67.41
856.053	53.08
856.228	77.65
856.403	69.46
856.577	98.13
856.752	12.12
856.926	-8.36
857.101	14.17
857.276	8.02
857.45	-30.89
857.625	137.04
857.799	30.55
857.974	-14.51
858.148	12.12
858.323	61.27
858.497	71.51
858.672	20.31
858.846	3.93
859.02	3.93
859.195	-14.51
859.369	22.36
859.543	69.46
859.718	30.55
859.892	-18.6
860.066	32.6
860.241	73.56
860.415	10.07
860.589	57.17
860.763	-94.38
860.938	20.31
861.112	122.71
861.286	-6.31
861.46	26.45
861.634	38.74
861.808	18.26
861.982	-6.31
862.157	-75.95
862.331	30.55
862.505	-43.18
862.679	1.88
862.853	16.21
863.027	55.12
863.201	40.79
863.375	42.84
863.549	26.45
863.722	5.97
863.896	-4.27
864.07	10.07
864.244	40.79
864.418	30.55
864.592	38.74
864.766	46.93
864.939	12.12
865.113	22.36
865.287	55.12
865.461	28.5
865.634	5.97
865.808	40.79
865.982	36.69
866.156	-28.84
866.329	32.6
866.503	44.88
866.676	-18.6
866.85	42.84
867.024	-28.84
867.197	-2.22
867.371	40.79
867.544	12.12
867.718	-67.75
867.891	-10.41
868.065	10.07
868.238	55.12
868.412	42.84
868.585	12.12
868.759	28.5
868.932	-28.84
869.105	-43.18
869.279	36.69
869.452	36.69
869.625	16.21
869.799	-16.55
869.972	-125.1
870.145	-26.79
870.319	-6.31
870.492	-28.84
870.665	-0.17
870.838	-6.31
871.011	-10.41
871.185	16.21
871.358	-10.41
871.531	-34.99
871.704	46.93
871.877	34.64
872.05	32.6
872.223	28.5
872.396	26.45
872.569	79.7
872.742	-10.41
872.915	20.31
873.088	26.45
873.261	24.4
873.434	1.88
873.607	5.97
873.78	-57.51
873.953	1.88
874.126	16.21
874.299	36.69
874.471	30.55
874.644	28.5
874.817	-18.6
874.99	32.6
875.163	48.98
875.335	34.64
875.508	16.21
875.681	40.79
875.853	26.45
876.026	40.79
876.199	10.07
876.371	69.46
876.544	48.98
876.717	-32.94
876.889	79.7
877.062	-59.56
877.234	10.07
877.407	-14.51
877.579	18.26
877.752	-12.46
877.924	55.12
878.097	69.46
878.269	-6.31
878.442	59.22
878.614	38.74
878.786	40.79
878.959	-26.79
879.131	20.31
879.303	36.69
879.476	-53.42
879.648	20.31
879.82	-57.51
879.993	-96.43
880.165	26.45
880.337	-65.71
880.509	3.93
880.681	48.98
880.854	-53.42
881.026	-14.51
881.198	57.17
881.37	-26.79
881.542	24.4
881.714	-45.23
881.886	46.93
882.058	24.4
882.23	85.84
882.402	5.97
882.574	48.98
882.746	34.64
882.918	-6.31
883.09	-0.17
883.262	26.45
883.434	-47.27
883.606	-55.47
883.778	3.93
883.95	12.12
884.122	24.4
884.293	-8.36
884.465	8.02
884.637	-43.18
884.809	-28.84
884.98	-4.27
885.152	14.17
885.324	-12.46
885.496	57.17
885.667	28.5
885.839	14.17
886.011	-14.51
886.182	-22.7
886.354	22.36
886.525	16.21
886.697	46.93
886.869	1.88
887.04	65.36
887.212	44.88
887.383	55.12
887.555	53.08
887.726	-71.85
887.897	-45.23
888.069	3.93
888.24	16.21
888.412	-2.22
888.583	-55.47
888.754	46.93
888.926	-55.47
889.097	1.88
889.268	-102.57
889.44	8.02
889.611	51.03
889.782	32.6
889.953	-28.84
890.125	14.17
890.296	-8.36
890.467	1.88
890.638	-2.22
890.809	-4.27
890.98	-53.42
891.151	36.69
891.323	8.02
891.494	55.12
891.665	20.31
891.836	-77.99
892.007	-0.17
892.178	28.5
892.349	-20.65
892.52	-4.27
892.691	-32.94
892.862	48.98
893.032	14.17
893.203	-6.31
893.374	-12.46
893.545	18.26
893.716	-2.22
893.887	63.32
894.057	75.6
894.228	-18.6
894.399	57.17
894.57	44.88
894.74	61.27
894.911	38.74
895.082	1.88
895.253	14.17
895.423	-8.36
895.594	30.55
895.764	28.5
895.935	-12.46
896.106	42.84
896.276	10.07
896.447	-37.03
896.617	32.6
896.788	-10.41
896.958	18.26
897.129	5.97
897.299	-0.17
897.47	51.03
897.64	46.93
897.81	14.17
897.981	-14.51
898.151	-28.84
898.322	14.17
898.492	-18.6
898.662	16.21
898.832	-14.51
899.003	53.08
899.173	44.88
899.343	3.93
899.513	20.31
