Data from USB4F104151__39__12-00-50-567.txt Node

Date: Fri Mar 14 12:00:50 EDT 2025
User: louis
Spectrometer: USB4F10415
Trigger mode: 4
Integration Time (sec): 2.000000E-2
Scans to average: 1
Electric dark correction enabled: true
Nonlinearity correction enabled: false
Boxcar width: 0
XAxis mode: Wavelengths
Number of Pixels in Spectrum: 3648
>>>>>Begin Spectral Data<<<<<
178.204	-120.49
178.424	-120.49
178.644	-120.49
178.864	-38.57
179.084	-30.38
179.304	-32.43
179.524	-16.04
179.744	-38.57
179.964	-28.33
180.184	22.87
180.404	57.68
180.624	4.44
180.844	29.01
181.064	20.82
181.283	-26.28
181.503	-13.99
181.723	20.82
181.943	69.97
182.163	67.92
182.383	14.68
182.602	29.01
182.822	33.11
183.042	61.78
183.262	-22.19
183.482	-18.09
183.701	-24.23
183.921	31.06
184.141	47.44
184.361	33.11
184.58	51.54
184.8	26.96
185.02	45.4
185.239	74.07
185.459	37.2
185.679	22.87
185.898	-9.9
186.118	59.73
186.338	31.06
186.557	59.73
186.777	-1.71
186.997	39.25
187.216	78.16
187.436	33.11
187.655	65.88
187.875	16.73
188.095	41.3
188.314	33.11
188.534	18.77
188.753	41.3
188.973	29.01
189.192	-9.9
189.412	67.92
189.631	59.73
189.851	33.11
190.07	65.88
190.29	18.77
190.509	26.96
190.729	106.84
190.948	53.59
191.168	119.12
191.387	96.6
191.607	-46.76
191.826	78.16
192.045	6.49
192.265	8.53
192.484	39.25
192.704	94.55
192.923	-13.99
193.142	33.11
193.362	6.49
193.581	24.92
193.8	82.26
194.02	33.11
194.239	-20.14
194.458	69.97
194.678	10.58
194.897	16.73
195.116	10.58
195.335	31.06
195.555	-11.95
195.774	-5.8
195.993	76.12
196.212	63.83
196.432	31.06
196.651	106.84
196.87	14.68
197.089	59.73
197.308	84.31
197.528	65.88
197.747	51.54
197.966	20.82
198.185	0.34
198.404	20.82
198.623	39.25
198.842	16.73
199.062	24.92
199.281	33.11
199.5	-63.15
199.719	8.53
199.938	20.82
200.157	24.92
200.376	29.01
200.595	24.92
200.814	100.69
201.033	-40.62
201.252	37.2
201.471	74.07
201.69	41.3
201.909	115.03
202.128	51.54
202.347	-22.19
202.566	12.63
202.785	-46.76
203.004	-38.57
203.223	31.06
203.442	10.58
203.661	31.06
203.879	22.87
204.098	63.83
204.317	29.01
204.536	33.11
204.755	-18.09
204.974	8.53
205.193	35.16
205.411	43.35
205.63	22.87
205.849	14.68
206.068	57.68
206.287	-32.43
206.505	-22.19
206.724	104.79
206.943	-5.8
207.162	78.16
207.381	-9.9
207.599	108.88
207.818	88.4
208.037	0.34
208.255	53.59
208.474	24.92
208.693	49.49
208.911	47.44
209.13	74.07
209.349	31.06
209.567	8.53
209.786	49.49
210.005	-46.76
210.223	51.54
210.442	14.68
210.661	2.39
210.879	65.88
211.098	-13.99
211.316	-9.9
211.535	72.02
211.753	-20.14
211.972	-42.67
212.191	2.39
212.409	2.39
212.628	12.63
212.846	57.68
213.065	69.97
213.283	41.3
213.502	-16.04
213.72	47.44
213.938	29.01
214.157	139.6
214.375	55.64
214.594	33.11
214.812	22.87
215.031	-1.71
215.249	26.96
215.467	4.44
215.686	67.92
215.904	74.07
216.122	-50.86
216.341	117.08
216.559	80.21
216.778	96.6
216.996	88.4
217.214	-18.09
217.432	6.49
217.651	14.68
217.869	14.68
218.087	8.53
218.306	65.88
218.524	49.49
218.742	-38.57
218.96	57.68
219.179	35.16
219.397	49.49
219.615	49.49
219.833	59.73
220.051	35.16
220.27	98.64
220.488	57.68
220.706	-48.81
220.924	51.54
221.142	-9.9
221.36	-13.99
221.578	37.2
221.796	-3.75
222.015	-50.86
222.233	-5.8
222.451	86.36
222.669	0.34
222.887	18.77
223.105	-59.05
223.323	41.3
223.541	31.06
223.759	6.49
223.977	53.59
224.195	51.54
224.413	4.44
224.631	14.68
224.849	-13.99
225.067	59.73
225.285	-1.71
225.503	37.2
225.721	-30.38
225.939	63.83
226.157	-9.9
226.375	65.88
226.592	39.25
226.81	16.73
227.028	115.03
227.246	37.2
227.464	94.55
227.682	8.53
227.9	-3.75
228.117	39.25
228.335	51.54
228.553	33.11
228.771	31.06
228.989	41.3
229.206	16.73
229.424	29.01
229.642	-18.09
229.86	37.2
230.077	41.3
230.295	0.34
230.513	72.02
230.731	-1.71
230.948	49.49
231.166	35.16
231.384	18.77
231.601	41.3
231.819	24.92
232.037	-50.86
232.254	53.59
232.472	88.4
232.689	45.4
232.907	55.64
233.125	4.44
233.342	59.73
233.56	26.96
233.777	33.11
233.995	0.34
234.213	88.4
234.43	43.35
234.648	72.02
234.865	37.2
235.083	45.4
235.3	10.58
235.518	33.11
235.735	14.68
235.953	108.88
236.17	26.96
236.388	12.63
236.605	26.96
236.822	10.58
237.04	8.53
237.257	98.64
237.475	22.87
237.692	24.92
237.909	8.53
238.127	14.68
238.344	-3.75
238.562	18.77
238.779	-3.75
238.996	80.21
239.214	39.25
239.431	26.96
239.648	12.63
239.865	76.12
240.083	61.78
240.3	67.92
240.517	6.49
240.735	20.82
240.952	84.31
241.169	12.63
241.386	100.69
241.603	10.58
241.821	51.54
242.038	8.53
242.255	65.88
242.472	37.2
242.689	24.92
242.907	31.06
243.124	129.36
243.341	39.25
243.558	76.12
243.775	-13.99
243.992	35.16
244.209	53.59
244.426	18.77
244.643	12.63
244.86	10.58
245.078	88.4
245.295	16.73
245.512	29.01
245.729	-9.9
245.946	31.06
246.163	45.4
246.38	45.4
246.597	29.01
246.814	8.53
247.031	41.3
247.248	65.88
247.464	20.82
247.681	45.4
247.898	-54.95
248.115	108.88
248.332	59.73
248.549	86.36
248.766	45.4
248.983	82.26
249.2	37.2
249.417	2.39
249.633	8.53
249.85	65.88
250.067	41.3
250.284	16.73
250.501	39.25
250.717	6.49
250.934	39.25
251.151	74.07
251.368	43.35
251.585	96.6
251.801	53.59
252.018	24.92
252.235	74.07
252.451	59.73
252.668	10.58
252.885	24.92
253.102	14.68
253.318	-30.38
253.535	35.16
253.752	61.78
253.968	63.83
254.185	8.53
254.401	35.16
254.618	41.3
254.835	-40.62
255.051	98.64
255.268	92.5
255.484	57.68
255.701	26.96
255.917	47.44
256.134	6.49
256.351	47.44
256.567	-9.9
256.784	84.31
257	57.68
257.217	102.74
257.433	41.3
257.65	43.35
257.866	43.35
258.082	74.07
258.299	-3.75
258.515	20.82
258.732	0.34
258.948	35.16
259.165	37.2
259.381	45.4
259.597	51.54
259.814	20.82
260.03	35.16
260.246	49.49
260.463	104.79
260.679	18.77
260.895	72.02
261.112	72.02
261.328	33.11
261.544	26.96
261.761	45.4
261.977	2.39
262.193	37.2
262.409	72.02
262.626	92.5
262.842	63.83
263.058	115.03
263.274	37.2
263.49	63.83
263.707	41.3
263.923	6.49
264.139	20.82
264.355	6.49
264.571	74.07
264.787	0.34
265.004	90.45
265.22	12.63
265.436	65.88
265.652	-16.04
265.868	69.97
266.084	-16.04
266.3	88.4
266.516	12.63
266.732	123.22
266.948	14.68
267.164	31.06
267.38	4.44
267.596	65.88
267.812	6.49
268.028	41.3
268.244	18.77
268.46	63.83
268.676	-1.71
268.892	90.45
269.108	35.16
269.324	0.34
269.54	80.21
269.756	18.77
269.972	-36.52
270.188	-5.8
270.403	80.21
270.619	43.35
270.835	18.77
271.051	14.68
271.267	14.68
271.483	47.44
271.698	43.35
271.914	-5.8
272.13	31.06
272.346	-30.38
272.562	80.21
272.777	2.39
272.993	10.58
273.209	31.06
273.425	8.53
273.64	18.77
273.856	92.5
274.072	2.39
274.287	55.64
274.503	8.53
274.719	26.96
274.934	4.44
275.15	14.68
275.366	-40.62
275.581	74.07
275.797	112.98
276.012	-7.85
276.228	59.73
276.444	-9.9
276.659	84.31
276.875	-9.9
277.09	26.96
277.306	33.11
277.521	78.16
277.737	69.97
277.952	76.12
278.168	43.35
278.383	53.59
278.599	8.53
278.814	53.59
279.03	57.68
279.245	125.27
279.461	57.68
279.676	137.56
279.892	-22.19
280.107	4.44
280.322	-7.85
280.538	35.16
280.753	-3.75
280.969	-5.8
281.184	57.68
281.399	45.4
281.615	-42.67
281.83	69.97
282.045	16.73
282.26	14.68
282.476	8.53
282.691	67.92
282.906	69.97
283.122	35.16
283.337	69.97
283.552	4.44
283.767	47.44
283.983	18.77
284.198	29.01
284.413	55.64
284.628	14.68
284.843	76.12
285.058	141.65
285.274	-63.15
285.489	39.25
285.704	123.22
285.919	16.73
286.134	41.3
286.349	6.49
286.564	20.82
286.779	22.87
286.995	-22.19
287.21	-42.67
287.425	102.74
287.64	16.73
287.855	26.96
288.07	-61.1
288.285	96.6
288.5	110.93
288.715	-59.05
288.93	20.82
289.145	67.92
289.36	14.68
289.575	80.21
289.79	98.64
290.004	33.11
290.219	-22.19
290.434	33.11
290.649	26.96
290.864	94.55
291.079	37.2
291.294	6.49
291.509	108.88
291.724	0.34
291.938	-24.23
292.153	63.83
292.368	106.84
292.583	0.34
292.798	61.78
293.012	92.5
293.227	18.77
293.442	-32.43
293.657	-18.09
293.871	37.2
294.086	59.73
294.301	39.25
294.516	110.93
294.73	-65.19
294.945	72.02
295.16	24.92
295.374	78.16
295.589	35.16
295.804	-9.9
296.018	65.88
296.233	-16.04
296.447	76.12
296.662	88.4
296.877	53.59
297.091	67.92
297.306	16.73
297.52	76.12
297.735	12.63
297.949	16.73
298.164	104.79
298.378	35.16
298.593	49.49
298.807	6.49
299.022	74.07
299.236	20.82
299.451	22.87
299.665	35.16
299.88	-13.99
300.094	20.82
300.309	-46.76
300.523	115.03
300.737	24.92
300.952	14.68
301.166	18.77
301.381	39.25
301.595	41.3
301.809	76.12
302.024	41.3
302.238	14.68
302.452	0.34
302.667	33.11
302.881	63.83
303.095	67.92
303.309	74.07
303.524	35.16
303.738	45.4
303.952	59.73
304.166	47.44
304.381	49.49
304.595	117.08
304.809	-5.8
305.023	-7.85
305.237	-1.71
305.452	74.07
305.666	84.31
305.88	16.73
306.094	14.68
306.308	53.59
306.522	127.32
306.736	35.16
306.95	82.26
307.164	8.53
307.379	39.25
307.593	26.96
307.807	24.92
308.021	59.73
308.235	-3.75
308.449	98.64
308.663	4.44
308.877	104.79
309.091	-18.09
309.305	20.82
309.519	67.92
309.733	55.64
309.947	69.97
310.161	45.4
310.374	88.4
310.588	2.39
310.802	-34.47
311.016	-11.95
311.23	47.44
311.444	-11.95
311.658	63.83
311.872	94.55
312.085	63.83
312.299	45.4
312.513	82.26
312.727	82.26
312.941	-9.9
313.154	-44.71
313.368	2.39
313.582	-34.47
313.796	37.2
314.009	45.4
314.223	8.53
314.437	2.39
314.651	18.77
314.864	55.64
315.078	76.12
315.292	45.4
315.505	20.82
315.719	53.59
315.933	-3.75
316.146	8.53
316.36	-11.95
316.573	31.06
316.787	35.16
317.001	43.35
317.214	2.39
317.428	39.25
317.641	45.4
317.855	96.6
318.068	-9.9
318.282	-20.14
318.495	82.26
318.709	61.78
318.922	-5.8
319.136	72.02
319.349	16.73
319.563	-9.9
319.776	135.51
319.99	-18.09
320.203	72.02
320.417	24.92
320.63	35.16
320.843	59.73
321.057	10.58
321.27	10.58
321.483	59.73
321.697	-5.8
321.91	35.16
322.124	10.58
322.337	41.3
322.55	76.12
322.763	35.16
322.977	-7.85
323.19	18.77
323.403	86.36
323.617	29.01
323.83	57.68
324.043	53.59
324.256	84.31
324.469	41.3
324.683	2.39
324.896	22.87
325.109	37.2
325.322	8.53
325.535	37.2
325.748	12.63
325.962	61.78
326.175	12.63
326.388	29.01
326.601	41.3
326.814	72.02
327.027	65.88
327.24	24.92
327.453	-20.14
327.666	78.16
327.879	41.3
328.092	96.6
328.305	4.44
328.518	31.06
328.731	-71.34
328.944	39.25
329.157	-3.75
329.37	61.78
329.583	57.68
329.796	104.79
330.009	-28.33
330.222	72.02
330.435	-3.75
330.648	22.87
330.861	33.11
331.073	4.44
331.286	84.31
331.499	82.26
331.712	82.26
331.925	14.68
332.138	51.54
332.35	6.49
332.563	-52.91
332.776	45.4
332.989	-7.85
333.202	123.22
333.414	67.92
333.627	35.16
333.84	14.68
334.053	115.03
334.265	14.68
334.478	45.4
334.691	35.16
334.903	86.36
335.116	4.44
335.329	76.12
335.541	123.22
335.754	104.79
335.966	6.49
336.179	26.96
336.392	45.4
336.604	31.06
336.817	12.63
337.029	-3.75
337.242	57.68
337.454	8.53
337.667	41.3
337.88	76.12
338.092	2.39
338.305	18.77
338.517	86.36
338.729	-18.09
338.942	43.35
339.154	47.44
339.367	-1.71
339.579	39.25
339.792	63.83
340.004	31.06
340.217	47.44
340.429	-59.05
340.641	-22.19
340.854	8.53
341.066	12.63
341.278	76.12
341.491	47.44
341.703	82.26
341.915	-1.71
342.128	65.88
342.34	47.44
342.552	-42.67
342.764	6.49
342.977	29.01
343.189	80.21
343.401	112.98
343.613	-18.09
343.826	35.16
344.038	-59.05
344.25	-13.99
344.462	-11.95
344.674	33.11
344.886	26.96
345.099	2.39
345.311	35.16
345.523	53.59
345.735	80.21
345.947	57.68
346.159	43.35
346.371	49.49
346.583	31.06
346.795	16.73
347.007	43.35
347.219	127.32
347.431	45.4
347.643	29.01
347.855	35.16
348.067	53.59
348.279	-1.71
348.491	39.25
348.703	72.02
348.915	4.44
349.127	76.12
349.339	63.83
349.551	4.44
349.763	12.63
349.975	6.49
350.187	22.87
350.399	65.88
350.61	26.96
350.822	31.06
351.034	20.82
351.246	-26.28
351.458	76.12
351.669	61.78
351.881	86.36
352.093	49.49
352.305	84.31
352.517	47.44
352.728	78.16
352.94	49.49
353.152	57.68
353.363	33.11
353.575	82.26
353.787	55.64
353.999	39.25
354.21	84.31
354.422	49.49
354.633	65.88
354.845	-16.04
355.057	33.11
355.268	74.07
355.48	110.93
355.692	33.11
355.903	92.5
356.115	88.4
356.326	31.06
356.538	102.74
356.749	43.35
356.961	69.97
357.172	76.12
357.384	43.35
357.595	137.56
357.807	-1.71
358.018	47.44
358.23	100.69
358.441	14.68
358.653	39.25
358.864	88.4
359.075	94.55
359.287	37.2
359.498	88.4
359.709	98.64
359.921	16.73
360.132	86.36
360.344	20.82
360.555	-69.29
360.766	78.16
360.977	39.25
361.189	51.54
361.4	-16.04
361.611	65.88
361.823	88.4
362.034	69.97
362.245	10.58
362.456	43.35
362.667	78.16
362.879	98.64
363.09	47.44
363.301	26.96
363.512	22.87
363.723	78.16
363.935	33.11
364.146	72.02
364.357	53.59
364.568	104.79
364.779	-7.85
364.99	137.56
365.201	43.35
365.412	92.5
365.623	20.82
365.834	43.35
366.045	33.11
366.256	115.03
366.467	20.82
366.678	26.96
366.889	8.53
367.1	6.49
367.311	121.17
367.522	-16.04
367.733	84.31
367.944	10.58
368.155	69.97
368.366	61.78
368.577	47.44
368.788	82.26
368.999	-52.91
369.209	69.97
369.42	33.11
369.631	76.12
369.842	8.53
370.053	4.44
370.264	-5.8
370.474	22.87
370.685	96.6
370.896	39.25
371.107	47.44
371.317	78.16
371.528	-1.71
371.739	45.4
371.95	31.06
372.16	53.59
372.371	22.87
372.582	57.68
372.792	49.49
373.003	108.88
373.214	76.12
373.424	2.39
373.635	59.73
373.846	76.12
374.056	96.6
374.267	-13.99
374.477	84.31
374.688	108.88
374.898	24.92
375.109	63.83
375.319	63.83
375.53	98.64
375.74	-1.71
375.951	45.4
376.161	29.01
376.372	98.64
376.582	-69.29
376.793	96.6
377.003	72.02
377.214	0.34
377.424	98.64
377.635	82.26
377.845	117.08
378.055	98.64
378.266	20.82
378.476	4.44
378.686	59.73
378.897	67.92
379.107	37.2
379.317	59.73
379.528	33.11
379.738	63.83
379.948	8.53
380.158	110.93
380.369	35.16
380.579	37.2
380.789	61.78
380.999	20.82
381.21	90.45
381.42	4.44
381.63	33.11
381.84	86.36
382.05	24.92
382.261	41.3
382.471	117.08
382.681	59.73
382.891	121.17
383.101	49.49
383.311	69.97
383.521	53.59
383.731	16.73
383.941	76.12
384.151	82.26
384.361	43.35
384.571	108.88
384.781	63.83
384.991	115.03
385.201	80.21
385.411	98.64
385.621	59.73
385.831	55.64
386.041	2.39
386.251	43.35
386.461	119.12
386.671	61.78
386.881	41.3
387.091	104.79
387.301	31.06
387.511	92.5
387.72	76.12
387.93	26.96
388.14	45.4
388.35	123.22
388.56	82.26
388.769	82.26
388.979	63.83
389.189	47.44
389.399	-18.09
389.609	29.01
389.818	84.31
390.028	2.39
390.238	86.36
390.447	49.49
390.657	51.54
390.867	-65.19
391.076	63.83
391.286	69.97
391.496	61.78
391.705	35.16
391.915	162.13
392.125	119.12
392.334	49.49
392.544	74.07
392.753	65.88
392.963	43.35
393.172	149.84
393.382	33.11
393.591	57.68
393.801	88.4
394.01	96.6
394.22	106.84
394.429	80.21
394.639	57.68
394.848	53.59
395.058	53.59
395.267	110.93
395.477	74.07
395.686	51.54
395.895	151.89
396.105	90.45
396.314	104.79
396.524	74.07
396.733	141.65
396.942	125.27
397.152	26.96
397.361	137.56
397.57	110.93
397.78	110.93
397.989	94.55
398.198	127.32
398.407	26.96
398.617	80.21
398.826	10.58
399.035	63.83
399.244	82.26
399.453	72.02
399.663	90.45
399.872	119.12
400.081	149.84
400.29	123.22
400.499	37.2
400.708	127.32
400.917	102.74
401.127	135.51
401.336	69.97
401.545	127.32
401.754	160.08
401.963	131.41
402.172	162.13
402.381	45.4
402.59	61.78
402.799	63.83
403.008	166.23
403.217	158.03
403.426	82.26
403.635	98.64
403.844	98.64
404.053	108.88
404.262	55.64
404.471	100.69
404.68	108.88
404.888	121.17
405.097	65.88
405.306	158.03
405.515	160.08
405.724	127.32
405.933	133.46
406.142	86.36
406.35	153.94
406.559	153.94
406.768	98.64
406.977	260.43
407.185	252.24
407.394	219.47
407.603	121.17
407.812	217.43
408.02	209.23
408.229	209.23
408.438	227.67
408.646	198.99
408.855	190.8
409.064	219.47
409.272	282.96
409.481	207.19
409.69	168.27
409.898	309.58
410.107	254.29
410.315	282.96
410.524	358.74
410.733	325.97
410.941	332.11
411.15	272.72
411.358	387.41
411.567	434.51
411.775	391.5
411.984	338.26
412.192	407.89
412.401	274.77
412.609	450.89
412.818	516.43
413.026	399.7
413.234	446.8
413.443	436.56
413.651	475.47
413.86	522.57
414.068	512.33
414.276	520.53
414.485	563.53
414.693	510.29
414.901	682.31
415.11	655.69
415.318	639.31
415.526	686.41
415.734	661.84
415.943	745.8
416.151	749.9
416.359	686.41
416.567	772.43
416.776	821.58
416.984	837.96
417.192	868.68
417.4	932.17
417.608	909.64
417.817	897.35
418.025	895.3
418.233	1053
418.441	1026.37
418.649	1112.39
418.857	1112.39
419.065	1167.68
419.273	1132.87
419.481	1300.8
419.689	1274.18
419.897	1341.76
420.105	1413.44
420.313	1386.82
420.521	1456.45
420.729	1456.45
420.937	1425.73
421.145	1589.57
421.353	1734.97
421.561	1743.16
421.769	1751.35
421.977	1851.71
422.185	1810.75
422.393	1933.62
422.601	2009.4
422.809	1978.68
423.017	1978.68
423.224	2148.66
423.432	2208.05
423.64	2289.97
423.848	2474.29
424.056	2359.6
424.263	2556.21
424.471	2629.93
424.679	2570.54
424.887	2793.77
425.094	2828.59
425.302	2830.63
425.51	2961.7
425.718	3090.73
425.925	3111.21
426.133	3248.42
426.341	3342.63
426.548	3549.47
426.756	3578.14
426.964	3477.79
427.171	3772.7
427.379	3854.62
427.586	3838.23
427.794	4006.17
428.001	4251.92
428.209	4571.41
428.417	4346.13
428.624	4729.1
428.832	4800.78
429.039	4643.09
429.247	4690.19
429.454	5110.02
429.662	5447.94
429.869	5087.5
430.076	5425.41
430.284	5333.25
430.491	5378.31
430.699	5902.59
430.906	5832.96
431.114	5970.17
431.321	6060.28
431.528	6254.84
431.736	6482.16
431.943	6998.25
432.15	6732.01
432.358	6887.66
432.565	7289.06
432.772	7217.38
432.979	7669.98
433.187	7680.22
433.394	7712.99
433.601	8247.51
433.808	8425.68
434.016	8401.11
434.223	8544.47
434.43	9140.43
434.637	9109.71
434.844	9380.04
435.052	9625.79
435.259	9588.93
435.466	9646.27
435.673	9595.07
435.88	10193.08
436.087	10995.89
436.294	10815.66
436.501	10494.13
436.708	10694.83
436.915	11253.93
437.122	11454.63
437.329	11571.36
437.537	12015.77
437.743	12150.94
437.95	11925.66
438.157	12642.45
438.364	13062.29
438.571	13115.53
438.778	12998.8
438.985	14323.83
439.192	13901.95
439.399	14362.75
439.606	13922.43
439.813	14968.94
440.02	15777.89
440.227	15421.55
440.433	15018.1
440.64	15831.14
440.847	15726.69
441.054	16355.42
441.261	17199.18
441.467	16709.72
441.674	17184.85
441.881	18034.75
442.088	17899.59
442.294	17678.41
442.501	18262.08
442.708	18505.79
442.914	19212.34
443.121	20154.4
443.328	19748.9
443.534	20611.1
443.741	20308
443.948	19922.98
444.154	21422.09
444.361	21080.08
444.568	21352.46
444.774	21639.18
444.981	21929.99
445.187	22265.86
445.394	22951.93
445.6	23156.72
445.807	25376.72
446.013	24293.35
446.22	24317.92
446.426	25569.23
446.633	25857.99
446.839	26691.52
447.046	25749.45
447.252	26953.66
447.459	26763.2
447.665	27002.81
447.871	28508.07
448.078	29314.97
448.284	27844.52
448.491	28540.83
448.697	29855.63
448.903	30115.72
449.11	30242.7
449.316	29763.47
449.522	30236.55
449.728	31133.56
449.935	31399.8
450.141	31522.68
450.347	31977.33
450.553	31096.7
450.76	31481.72
450.966	32348.01
451.172	32360.3
451.378	32712.55
451.584	32089.96
451.791	32911.2
451.997	32952.16
452.203	33517.4
452.409	33570.65
452.615	33060.7
452.821	31872.88
453.027	31930.22
453.233	33249.11
453.44	31788.91
453.646	32208.75
453.852	32530.28
454.058	32999.26
454.264	31997.81
454.47	32917.34
454.676	31895.41
454.882	32796.51
455.088	30091.15
455.294	30521.22
455.5	31025.02
455.705	31233.91
455.911	29970.32
456.117	29343.64
456.323	28805.02
456.529	27527.09
456.735	28579.75
456.941	27731.89
457.147	27199.41
457.352	26449.86
457.558	26265.54
457.764	26075.08
457.97	25831.37
458.176	25130.97
458.381	25098.2
458.587	23816.17
458.793	23728.11
458.999	22796.28
459.204	24307.68
459.41	23603.18
459.616	21999.62
459.821	22212.61
460.027	22077.44
460.233	21352.46
460.438	20312.1
460.644	20572.19
460.85	19511.34
461.055	19279.92
461.261	19320.88
461.466	17885.25
461.672	17279.05
461.878	18608.19
462.083	17281.1
462.289	17043.54
462.494	16685.14
462.7	16029.79
462.905	15593.58
463.111	16140.38
463.316	16177.25
463.522	15896.67
463.727	15757.41
463.932	15810.66
464.138	15523.94
464.343	15779.94
464.549	15288.43
464.754	15839.33
464.959	15833.19
465.165	15525.99
465.37	14710.9
465.575	14469.24
465.781	15296.62
465.986	15079.54
466.191	14411.9
466.397	14248.06
466.602	13605
466.807	14198.91
467.012	14053.5
467.218	13985.92
467.423	14002.3
467.628	13985.92
467.833	14622.84
468.038	13813.89
468.244	13545.61
468.449	14291.07
468.654	13637.77
468.859	13457.54
469.064	13406.34
469.269	12980.37
469.474	12980.37
469.679	13514.89
469.885	12935.31
470.09	13242.51
470.295	12785.81
470.5	12828.82
470.705	12628.12
470.91	12378.26
471.115	12388.5
471.32	12658.84
471.525	12384.41
471.73	12050.59
471.935	12138.65
472.139	11673.76
472.344	11731.11
472.549	11587.75
472.754	11618.47
472.959	11479.21
473.164	11071.66
473.369	11159.72
473.574	11514.02
473.778	11280.55
473.983	11233.45
474.188	11294.89
474.393	10594.48
474.598	10879.15
474.802	10588.34
475.007	10524.85
475.212	10528.95
475.417	10131.64
475.621	10193.08
475.826	10240.19
476.031	9928.89
476.235	9752.77
476.44	9885.89
476.645	9728.19
476.849	9691.33
477.054	9513.16
477.259	9427.14
477.463	9183.43
477.668	9248.97
477.872	9261.26
478.077	9203.91
478.282	8876.24
478.486	8988.88
478.691	8872.14
478.895	8718.54
479.1	8702.16
479.304	8857.81
479.509	8462.55
479.713	8626.39
479.918	8483.03
480.122	8444.12
480.326	8466.64
480.531	8480.98
480.735	8442.07
480.94	8194.26
481.144	8667.35
481.348	8204.5
481.553	8192.22
481.757	8038.62
481.961	8251.61
482.166	8233.18
482.37	8136.92
482.574	8177.88
482.778	8132.83
482.983	8114.39
483.187	8173.78
483.391	8104.15
483.595	8063.19
483.8	8001.76
484.004	8055
484.208	8218.84
484.412	7952.6
484.616	8081.63
484.821	8257.75
485.025	7987.42
485.229	8130.78
485.433	7960.8
485.637	8009.95
485.841	8063.19
486.045	8005.85
486.249	8122.59
486.453	7995.61
486.657	8175.83
486.861	8012
487.065	7833.82
487.269	8087.77
487.473	7964.89
487.677	8143.07
487.881	8186.07
488.085	8057.05
488.289	8190.17
488.493	8050.91
488.697	8067.29
488.901	8083.67
489.105	8022.23
489.309	8206.55
489.512	8267.99
489.716	8128.73
489.92	8032.47
490.124	8108.25
490.328	8284.37
490.531	8151.26
490.735	8138.97
490.939	8167.64
491.143	8308.95
491.346	8294.61
491.55	8259.8
491.754	8370.39
491.958	8511.7
492.161	8442.07
492.365	8503.51
492.569	8480.98
492.772	8442.07
492.976	8372.44
493.18	8554.71
493.383	8706.26
493.587	8566.99
493.79	8691.92
493.994	8728.78
494.197	8790.22
494.401	8812.75
494.605	8855.76
494.808	9027.79
495.012	8851.66
495.215	9013.45
495.419	9171.15
495.622	9052.36
495.825	9232.58
496.029	9291.98
496.232	9453.77
496.436	9382.09
496.639	9683.14
496.843	9601.22
497.046	9943.23
497.249	9894.08
497.453	10115.26
497.656	10131.64
497.859	10193.08
498.063	10215.61
498.266	10246.33
498.469	10346.68
498.673	10401.97
498.876	10668.21
499.079	10393.78
499.282	10539.19
499.485	10885.3
499.689	11086
499.892	11206.83
500.095	11241.64
500.298	11288.75
500.501	11253.93
500.705	11714.72
500.908	11763.87
501.111	11727.01
501.314	12109.98
501.517	12011.68
501.72	12441.75
501.923	12271.77
502.126	12675.22
502.329	12914.83
502.532	12581.01
502.735	12902.54
502.938	13093.01
503.141	13224.08
503.344	13349
503.547	13244.56
503.75	13566.09
503.953	13764.74
504.156	13928.58
504.359	13811.84
504.562	13906.05
504.765	14162.05
504.968	14456.95
505.17	14805.11
505.373	14715
505.576	14973.04
505.779	15028.34
505.982	15024.24
506.185	15454.31
506.387	15530.09
506.59	15562.86
506.793	15964.26
506.996	16033.89
507.198	16484.44
507.401	16318.56
507.604	16459.87
507.807	16607.32
508.009	16814.16
508.212	16842.84
508.415	17156.18
508.617	17256.53
508.82	17625.16
509.022	17160.27
509.225	17690.7
509.428	18040.9
509.63	17989.7
509.833	17973.32
510.035	18595.9
510.238	18225.22
510.44	18659.38
510.643	19038.26
510.845	19068.98
511.048	18892.85
511.25	19382.32
511.453	19314.73
511.655	19902.5
511.858	19748.9
512.06	19972.13
512.262	20107.3
512.465	20084.77
512.667	20412.45
512.87	20523.04
513.072	20717.59
513.274	21366.8
513.477	21331.98
513.679	21223.44
513.881	21590.03
514.084	21774.35
514.286	21563.4
514.488	22173.7
514.69	22398.98
514.893	22509.57
515.095	22657.02
515.297	22865.91
515.499	22919.16
515.701	23277.55
515.904	23277.55
516.106	23392.24
516.308	24182.76
516.51	23961.58
516.712	24131.56
516.914	24412.13
517.116	24500.19
517.318	24709.08
517.52	24868.83
517.722	25239.51
517.925	25399.25
518.127	25630.67
518.329	25487.31
518.531	25522.13
518.733	25937.87
518.935	26267.59
519.136	26238.92
519.338	26451.91
519.54	26785.72
519.742	26943.42
519.944	26720.19
520.146	27264.95
520.348	27344.82
520.55	27674.54
520.752	27813.8
520.954	28155.82
521.155	28342.18
521.357	28487.59
521.559	28510.11
521.761	28977.05
521.963	28690.34
522.164	29069.21
522.366	28794.78
522.568	29114.27
522.77	29523.86
522.971	29906.83
523.173	29337.49
523.375	29818.77
523.576	29955.98
523.778	29812.62
523.98	30461.83
524.181	30631.81
524.383	30637.95
524.584	30642.05
524.786	30619.52
524.988	30437.25
525.189	30906.24
525.391	31027.07
525.592	31037.31
525.794	31326.07
525.995	31260.54
526.197	31407.99
526.398	31577.97
526.6	31661.94
526.801	31891.31
527.003	32059.24
527.204	32030.57
527.406	32190.31
527.607	31901.55
527.808	32399.21
528.01	32245.61
528.211	32352.1
528.412	32862.05
528.614	32657.25
528.815	32450.41
529.016	32931.68
529.218	32708.45
529.419	32816.99
529.62	32995.17
529.822	32749.41
530.023	32960.35
530.224	33386.33
530.425	33185.63
530.626	32663.39
530.828	32868.19
531.029	33619.8
531.23	32634.72
531.431	32948.06
531.632	33429.34
531.833	33625.94
532.035	33189.72
532.236	33347.42
532.437	33351.51
532.638	33300.31
532.839	33595.22
533.04	33791.83
533.241	32845.66
533.442	33662.8
533.643	33425.24
533.844	33431.38
534.045	33800.02
534.246	32989.02
534.447	33623.89
534.648	33460.05
534.849	33261.4
535.05	33103.71
535.251	33290.07
535.451	33331.03
535.652	33261.4
535.853	33281.88
536.054	33578.84
536.255	33544.02
536.456	32882.53
536.657	33695.57
536.857	33384.28
537.058	33206.11
537.259	33259.35
537.46	33443.67
537.66	33122.14
537.861	33343.32
538.062	33242.97
538.263	33496.92
538.463	33183.58
538.664	32964.45
538.865	33384.28
539.065	33664.85
539.266	33040.22
539.466	33574.74
539.667	32972.64
539.868	33777.49
540.068	32984.93
540.269	33156.96
540.469	33060.7
540.67	33040.22
540.87	32950.11
541.071	32970.59
541.271	33341.27
541.472	33077.08
541.672	32823.14
541.873	33072.99
542.073	32999.26
542.274	33349.46
542.474	32870.24
542.675	32632.68
542.875	32999.26
543.075	33060.7
543.276	32290.66
543.476	32866.14
543.676	33005.41
543.877	33089.37
544.077	32972.64
544.277	32923.49
544.478	32878.43
544.678	33144.67
544.878	32726.88
545.078	32786.27
545.279	32874.34
545.479	32778.08
545.679	32946.01
545.879	32591.72
546.079	32755.55
546.28	32810.85
546.48	32153.45
546.68	32700.26
546.88	32552.8
547.08	32573.28
547.28	32139.11
547.48	32429.93
547.68	32982.88
547.88	32472.93
548.081	32909.15
548.281	32331.62
548.481	32558.95
548.681	32550.76
548.881	32368.49
549.081	32403.3
549.28	32302.95
549.48	32212.84
549.68	32522.09
549.88	33013.6
550.08	32194.41
550.28	32587.62
550.48	32190.31
550.68	32399.21
550.88	32026.48
551.08	32167.79
551.279	32431.97
551.479	32137.07
551.679	32429.93
551.879	32169.83
552.079	32694.11
552.278	31821.68
552.478	32411.49
552.678	32114.54
552.878	32436.07
553.077	32286.57
553.277	31764.34
553.477	32384.87
553.676	31745.9
553.876	32227.18
554.076	31977.33
554.275	32143.21
554.475	31702.9
554.674	31946.61
554.874	31795.06
555.074	31858.54
555.273	32110.44
555.473	31903.6
555.672	31747.95
555.872	31825.78
556.071	31842.16
556.271	31956.85
556.47	31874.93
556.67	31379.32
556.869	31715.19
557.068	31811.44
557.268	31606.64
557.467	31934.32
557.667	31657.84
557.866	31825.78
558.065	31305.59
558.265	31375.22
558.464	31287.16
558.663	31321.98
558.863	31377.27
559.062	31559.54
559.261	31088.51
559.461	31418.23
559.66	30957.44
559.859	31319.93
560.058	31164.28
560.258	30902.14
560.457	31106.94
560.656	31469.43
560.855	31123.32
561.054	31031.16
561.253	30758.78
561.453	31020.92
561.652	30961.53
561.851	31063.93
562.05	30850.94
562.249	30662.53
562.448	30953.34
562.647	30990.2
562.846	30705.54
563.045	30861.18
563.244	30379.91
563.443	30924.67
563.642	30105.48
563.841	30431.11
564.04	30265.22
564.239	30726.02
564.438	30406.53
564.637	30353.29
564.836	30801.79
565.035	30187.4
565.234	30121.87
565.432	30316.42
565.631	30052.23
565.83	30027.66
566.029	30211.98
566.228	29829.01
566.427	29695.89
566.625	29806.48
566.824	29407.12
567.023	29704.08
567.222	29044.63
567.42	29781.9
567.619	29607.83
567.818	29745.04
568.016	29505.43
568.215	29462.42
568.414	29384.6
568.612	29548.43
568.811	29505.43
569.01	29407.12
569.208	28946.33
569.407	29405.08
569.605	28788.64
569.804	29314.97
570.002	28827.55
570.201	28876.7
570.4	28975
570.598	28632.99
570.797	28792.73
570.995	28770.21
571.193	28516.26
571.392	28860.32
571.59	28503.97
571.789	28438.44
571.987	28456.87
572.186	28596.13
572.384	28579.75
572.582	28604.32
572.781	28843.93
572.979	27867.05
573.177	27908.01
573.376	28219.3
573.574	27905.96
573.772	27854.76
573.971	27869.1
574.169	27836.33
574.367	27555.76
574.565	27658.16
574.763	27809.71
574.962	27672.5
575.16	27240.37
575.358	27742.13
575.556	27017.15
575.754	27877.29
575.952	27064.25
576.151	27430.83
576.349	27023.29
576.547	27074.49
576.745	27170.74
576.943	27342.77
577.141	26922.94
577.339	26941.37
577.537	26861.5
577.735	26570.69
577.933	26566.59
578.131	26800.06
578.329	26560.45
578.527	26226.63
578.725	26068.94
578.923	26298.31
579.121	26322.88
579.319	26306.5
579.516	26179.53
579.714	26458.05
579.912	25989.06
580.11	26034.12
580.308	26206.15
580.506	26105.8
580.704	25487.31
580.901	25849.8
581.099	25880.52
581.297	25696.21
581.495	25309.14
581.692	25610.19
581.89	25309.14
582.088	25497.55
582.285	25219.03
582.483	25788.36
582.681	25481.17
582.878	25264.08
583.076	24852.44
583.274	25425.87
583.471	25022.42
583.669	24967.13
583.866	24973.27
584.064	25057.24
584.262	24580.06
584.459	25069.53
584.657	24539.1
584.854	24799.19
585.052	24418.27
585.249	24563.68
585.447	24643.55
585.644	24332.26
585.841	24459.23
586.039	24508.38
586.236	24016.87
586.434	23965.67
586.631	24111.08
586.828	24246.24
587.026	23834.6
587.223	23590.89
587.42	23881.7
587.618	23699.44
587.815	23617.52
588.012	23564.27
588.21	23357.42
588.407	23633.9
588.604	23576.56
588.801	23412.72
588.999	23500.78
589.196	23099.38
589.393	23183.35
589.59	23099.38
589.787	23226.35
589.984	23058.42
590.182	22593.53
590.379	22824.95
590.576	22884.34
590.773	22867.96
590.97	22654.97
591.167	22683.64
591.364	22427.65
591.561	22763.51
591.758	22222.85
591.955	22706.17
592.152	22687.74
592.349	22183.94
592.546	22161.41
592.743	21909.51
592.94	21987.33
593.137	22071.3
593.334	22034.44
593.531	21934.09
593.727	21897.22
593.924	21786.63
594.121	21696.52
594.318	21985.29
594.515	21854.22
594.712	21440.53
594.908	21315.6
595.105	21661.71
595.302	21524.49
595.499	21231.63
595.696	21252.11
595.892	21121.04
596.089	21366.8
596.286	21241.87
596.482	21119
596.679	21020.69
596.876	20936.73
597.072	20690.97
597.269	20813.85
597.466	20664.35
597.662	20576.28
597.859	20582.43
598.055	20613.15
598.252	20484.12
598.448	20439.07
598.645	20615.19
598.841	20076.58
599.038	20023.33
599.234	20234.27
599.431	20041.76
599.627	19763.24
599.824	20037.67
600.02	19730.47
600.217	19982.37
600.413	19832.87
600.609	19918.89
600.806	19451.95
601.002	19640.36
601.198	19472.43
601.395	19673.13
601.591	19392.56
601.787	19621.93
601.984	19267.63
602.18	19607.59
602.376	19046.45
602.572	19157.04
602.769	18821.17
602.965	18841.65
603.161	19046.45
603.357	18903.09
603.553	18772.02
603.75	19009.59
603.946	18659.38
604.142	18645.05
604.338	18475.07
604.534	18733.11
604.73	18593.85
604.926	18661.43
605.122	18387
605.318	18085.95
605.514	18370.62
605.71	18235.46
605.906	18081.86
606.102	18180.16
606.298	18466.88
606.494	18200.64
606.69	18092.1
606.886	18071.62
607.082	17887.3
607.278	18247.74
607.474	17825.86
607.67	17754.18
607.866	17627.21
608.062	17903.68
608.257	17807.43
608.453	17721.41
608.649	17715.27
608.845	17580.11
609.041	17506.38
609.236	17727.56
609.432	17340.49
609.628	17539.15
609.824	17096.78
610.019	17334.35
610.215	17422.41
610.411	17430.6
610.606	17315.92
610.802	17305.68
610.998	17365.07
611.193	17227.85
611.389	17236.05
611.584	17084.5
611.78	16951.38
611.976	16971.86
612.171	17139.79
612.367	16771.16
612.562	16832.6
612.758	16646.23
612.953	16828.5
613.149	17025.11
613.344	16711.77
613.539	16918.61
613.735	16787.54
613.93	16863.32
614.126	16226.4
614.321	16828.5
614.517	16857.17
614.712	16353.37
614.907	16369.76
615.103	16742.49
615.298	16420.95
615.493	16650.33
615.688	16154.72
615.884	16603.22
616.079	16218.21
616.274	16056.42
616.47	16308.32
616.665	16539.74
616.86	16314.46
617.055	16289.88
617.25	16162.91
617.445	16115.81
617.641	15964.26
617.836	15945.83
618.031	15859.81
618.226	16037.98
618.421	15757.41
618.616	15919.2
618.811	15784.04
619.006	16064.61
619.201	15558.76
619.396	15761.51
619.591	15454.31
619.786	15765.6
619.981	15319.15
620.176	15591.53
620.371	15337.58
620.566	15229.04
620.761	15003.76
620.956	15384.68
621.151	15052.91
621.346	14895.22
621.541	14801.01
621.735	14796.92
621.93	14827.64
622.125	14905.46
622.32	14528.63
622.515	14626.93
622.709	14436.47
622.904	14526.58
623.099	14088.32
623.294	14565.5
623.488	14155.9
623.683	14346.36
623.878	13983.87
624.072	13992.06
624.267	13985.92
624.462	13854.85
624.656	13686.92
624.851	13682.82
625.046	13865.09
625.24	13502.6
625.435	13320.33
625.629	13504.65
625.824	13406.34
626.018	13185.16
626.213	12990.61
626.407	13326.47
626.602	12845.2
626.796	12920.98
626.991	12910.74
627.185	12726.42
627.38	12908.69
627.574	12595.35
627.768	12587.16
627.963	12662.93
628.157	12394.65
628.352	12591.25
628.546	12175.52
628.74	12189.85
628.935	12142.75
629.129	12232.86
629.323	12081.31
629.517	12095.64
629.712	11948.19
629.906	11874.46
630.1	11643.04
630.294	11954.33
630.489	11796.64
630.683	11942.05
630.877	11604.13
631.071	11438.25
631.265	11446.44
631.459	11292.84
631.653	11276.46
631.848	11215.02
632.042	11251.88
632.236	11217.07
632.43	10987.69
632.624	11086
632.818	11217.07
633.012	10844.34
633.206	10819.76
633.4	11100.33
633.594	10789.04
633.788	10512.56
633.982	10672.31
634.176	10639.54
634.369	10711.22
634.563	10514.61
634.757	10436.79
634.951	10344.63
635.145	10512.56
635.339	10397.88
635.533	10281.14
635.726	10410.17
635.92	10229.95
636.114	10088.64
636.308	9879.74
636.501	9941.18
636.695	10033.34
636.889	9846.98
637.083	9842.88
637.276	9832.64
637.47	9777.34
637.664	9429.19
637.857	9728.19
638.051	9517.25
638.244	9644.23
638.438	9611.46
638.632	9232.58
638.825	9418.95
639.019	9363.65
639.212	9302.22
639.406	9097.42
639.599	9189.58
639.793	9210.06
639.986	9115.85
640.18	9109.71
640.373	8988.88
640.567	8890.57
640.76	9083.08
640.954	8706.26
641.147	8745.17
641.34	8577.23
641.534	8763.6
641.727	8663.25
641.92	8769.74
642.114	8409.3
642.307	8693.97
642.5	8519.89
642.694	8251.61
642.887	8243.42
643.08	8263.9
643.273	8325.33
643.467	8366.29
643.66	8057.05
643.853	8247.51
644.046	7979.23
644.239	8028.38
644.432	8022.23
644.626	7821.53
644.819	7932.12
645.012	7909.6
645.205	7977.18
645.398	7768.29
645.591	7930.08
645.784	7809.25
645.977	7563.49
646.17	7655.65
646.363	7651.55
646.556	7426.28
646.749	7475.43
646.942	7506.15
647.135	7334.12
647.328	7442.66
647.521	7289.06
647.714	7217.38
647.907	7287.01
648.099	7194.86
648.292	7164.14
648.485	7303.4
648.678	7114.98
648.871	7002.35
649.064	7047.4
649.256	7121.13
649.449	7149.8
649.642	7049.45
649.835	7022.83
650.027	6945
650.22	6856.94
650.413	6844.65
650.605	6850.8
650.798	6777.07
650.991	6488.31
651.183	6701.3
651.376	6574.32
651.568	6498.55
651.761	6549.75
651.954	6514.93
652.146	6420.72
652.339	6502.64
652.531	6383.86
652.724	6320.37
652.916	6213.88
653.109	6283.51
653.301	6166.78
653.494	6267.13
653.686	6097.14
653.879	6357.24
654.071	6195.45
654.263	6142.2
654.456	6115.58
654.648	6181.11
654.84	5990.65
655.033	6027.51
655.225	6025.47
655.417	5994.75
655.61	6004.99
655.802	5918.97
655.994	5970.17
656.186	5816.57
656.379	5816.57
656.571	5861.63
656.763	5695.74
656.955	5675.26
657.148	5671.17
657.34	5726.46
657.532	5505.28
657.724	5599.49
657.916	5484.8
658.108	5626.11
658.3	5517.57
658.492	5540.1
658.684	5513.47
658.876	5449.99
659.068	5345.54
659.26	5398.79
659.452	5411.07
659.644	5296.39
659.836	5347.59
660.028	5153.03
660.22	5253.38
660.412	5210.37
660.604	5138.69
660.796	5075.21
660.988	5132.55
661.18	5089.54
661.372	4917.51
661.563	5095.69
661.755	4997.39
661.947	5083.4
662.139	4839.69
662.331	5024.01
662.522	4817.16
662.714	4839.69
662.906	4751.63
663.097	4806.92
663.289	4874.51
663.481	4862.22
663.673	4739.34
663.864	4735.25
664.056	4743.44
664.247	4602.13
664.439	4628.75
664.631	4704.53
664.822	4604.18
665.014	4643.09
665.205	4499.73
665.397	4585.74
665.588	4499.73
665.78	4458.77
665.971	4544.78
666.163	4466.96
666.354	4473.11
666.546	4483.34
666.737	4323.6
666.929	4411.67
667.12	4430.1
667.311	4440.34
667.503	4350.23
667.694	4399.38
667.885	4194.58
668.077	4303.12
668.268	4204.82
668.459	4096.28
668.651	4305.17
668.842	4278.55
669.033	4102.42
669.224	4096.28
669.416	4217.11
669.607	4131.09
669.798	4047.13
669.989	4047.13
670.18	4014.36
670.371	3940.63
670.563	4012.31
670.754	4057.37
670.945	3942.68
671.136	3907.87
671.327	3864.86
671.518	3821.85
671.709	3899.67
671.9	3907.87
672.091	3850.52
672.282	3858.71
672.473	3959.06
672.664	3905.82
672.855	3643.68
673.046	3862.81
673.237	3850.52
673.428	3864.86
673.619	3803.42
673.809	3766.56
674	3819.8
674.191	3655.97
674.382	3647.77
674.573	3713.31
674.764	3795.23
674.954	3778.84
675.145	3621.15
675.336	3803.42
675.527	3627.29
675.717	3619.1
675.908	3600.67
676.099	3619.1
676.289	3647.77
676.48	3547.42
676.671	3572
676.861	3588.38
677.052	3647.77
677.243	3625.25
677.433	3494.18
677.624	3459.36
677.814	3594.53
678.005	3621.15
678.195	3420.45
678.386	3485.98
678.576	3436.83
678.767	3438.88
678.957	3303.71
679.148	3481.89
679.338	3518.75
679.529	3522.85
679.719	3434.78
679.909	3430.69
680.1	3307.81
680.29	3395.87
680.481	3293.48
680.671	3445.02
680.861	3365.15
681.052	3469.6
681.242	3316
681.432	3467.55
681.622	3266.85
681.813	3367.2
682.003	3281.19
682.193	3277.09
682.383	3342.63
682.573	3399.97
682.764	3289.38
682.954	3307.81
683.144	3328.29
683.334	3311.91
683.524	3252.52
683.714	3305.76
683.904	3248.42
684.094	3152.17
684.284	3154.21
684.474	3260.71
684.664	3178.79
684.854	3215.65
685.044	3316
685.234	3248.42
685.424	3207.46
685.614	3070.25
685.804	3039.53
685.994	3166.5
686.184	3047.72
686.374	3213.6
686.564	3121.45
686.753	2965.8
686.943	3019.05
687.133	2986.28
687.323	2951.46
687.513	3019.05
687.702	3090.73
687.892	2967.85
688.082	3078.44
688.272	2984.23
688.461	3041.57
688.651	2914.6
688.841	2918.7
689.03	2879.79
689.22	2849.07
689.41	3047.72
689.599	2924.84
689.789	2806.06
689.979	2969.9
690.168	2887.98
690.358	2758.96
690.547	2664.75
690.737	2941.22
690.926	2703.66
691.116	2740.52
691.305	2670.89
691.495	2840.87
691.684	2748.72
691.874	2840.87
692.063	2742.57
692.252	2763.05
692.442	2672.94
692.631	2687.28
692.82	2674.99
693.01	2652.46
693.199	2631.98
693.388	2652.46
693.578	2701.61
693.767	2697.52
693.956	2525.49
694.146	2531.63
694.335	2498.86
694.524	2646.32
694.713	2613.55
694.902	2615.6
695.092	2601.26
695.281	2482.48
695.47	2595.12
695.659	2550.06
695.848	2412.85
696.037	2525.49
696.226	2418.99
696.415	2496.82
696.604	2519.34
696.793	2515.25
696.982	2625.84
697.171	2486.58
697.36	2527.53
697.549	2462
697.738	2521.39
697.927	2361.65
698.116	2447.66
698.305	2476.34
698.494	2445.62
698.683	2418.99
698.872	2464.05
699.061	2498.86
699.25	2513.2
699.438	2453.81
699.627	2322.74
699.816	2462
700.005	2472.24
700.193	2488.62
700.382	2375.99
700.571	2433.33
700.76	2425.14
700.948	2449.71
701.137	2431.28
701.326	2339.12
701.514	2437.42
701.703	2490.67
701.892	2466.1
702.08	2505.01
702.269	2365.75
702.457	2429.23
702.646	2533.68
702.834	2396.46
703.023	2416.94
703.212	2468.14
703.4	2443.57
703.589	2513.2
703.777	2412.85
703.965	2513.2
704.154	2404.66
704.342	2431.28
704.531	2488.62
704.719	2349.36
704.907	2457.9
705.096	2328.88
705.284	2400.56
705.472	2507.06
705.661	2445.62
705.849	2437.42
706.037	2439.47
706.226	2378.03
706.414	2439.47
706.602	2386.22
706.79	2435.38
706.979	2519.34
707.167	2519.34
707.355	2398.51
707.543	2482.48
707.731	2423.09
707.919	2453.81
708.107	2445.62
708.296	2386.22
708.484	2427.18
708.672	2416.94
708.86	2464.05
709.048	2396.46
709.236	2427.18
709.424	2521.39
709.612	2380.08
709.8	2505.01
709.988	2347.31
710.176	2320.69
710.364	2392.37
710.551	2316.59
710.739	2474.29
710.927	2484.53
711.115	2505.01
711.303	2509.1
711.491	2449.71
711.679	2421.04
711.866	2588.97
712.054	2498.86
712.242	2502.96
712.43	2429.23
712.617	2496.82
712.805	2482.48
712.993	2490.67
713.181	2359.6
713.368	2328.88
713.556	2474.29
713.744	2302.26
713.931	2513.2
714.119	2437.42
714.306	2457.9
714.494	2378.03
714.682	2326.83
714.869	2394.42
715.057	2455.86
715.244	2400.56
715.432	2474.29
715.619	2445.62
715.807	2423.09
715.994	2400.56
716.182	2466.1
716.369	2429.23
716.556	2482.48
716.744	2332.98
716.931	2472.24
717.119	2593.07
717.306	2445.62
717.493	2570.54
717.681	2380.08
717.868	2486.58
718.055	2480.43
718.242	2472.24
718.43	2439.47
718.617	2351.41
718.804	2404.66
718.991	2517.29
719.179	2406.7
719.366	2441.52
719.553	2464.05
719.74	2519.34
719.927	2455.86
720.114	2255.15
720.301	2462
720.488	2425.14
720.676	2412.85
720.863	2425.14
721.05	2431.28
721.237	2404.66
721.424	2476.34
721.611	2459.95
721.798	2365.75
721.985	2300.21
722.172	2396.46
722.358	2345.27
722.545	2404.66
722.732	2445.62
722.919	2425.14
723.106	2406.7
723.293	2482.48
723.48	2447.66
723.667	2498.86
723.853	2427.18
724.04	2408.75
724.227	2529.58
724.414	2449.71
724.6	2363.7
724.787	2492.72
724.974	2343.22
725.161	2480.43
725.347	2441.52
725.534	2488.62
725.72	2490.67
725.907	2353.46
726.094	2400.56
726.28	2308.4
726.467	2277.68
726.653	2588.97
726.84	2359.6
727.027	2308.4
727.213	2289.97
727.4	2396.46
727.586	2316.59
727.773	2298.16
727.959	2357.55
728.145	2431.28
728.332	2386.22
728.518	2418.99
728.705	2328.88
728.891	2398.51
729.077	2324.79
729.264	2380.08
729.45	2423.09
729.636	2421.04
729.823	2394.42
730.009	2312.5
730.195	2357.55
730.382	2320.69
730.568	2404.66
730.754	2423.09
730.94	2402.61
731.126	2435.38
731.313	2451.76
731.499	2281.78
731.685	2345.27
731.871	2509.1
732.057	2357.55
732.243	2255.15
732.429	2318.64
732.615	2363.7
732.801	2365.75
732.987	2345.27
733.173	2318.64
733.359	2187.57
733.545	2332.98
733.731	2337.07
733.917	2236.72
734.103	2373.94
734.289	2355.51
734.475	2367.79
734.661	2285.87
734.847	2199.86
735.033	2259.25
735.219	2378.03
735.404	2373.94
735.59	2314.55
735.776	2232.63
735.962	2173.24
736.148	2218.29
736.333	2232.63
736.519	2273.59
736.705	2361.65
736.89	2287.92
737.076	2216.24
737.262	2203.96
737.447	2230.58
737.633	2249.01
737.819	2144.56
738.004	2193.72
738.19	2158.9
738.375	2095.41
738.561	2257.2
738.747	2283.83
738.932	2265.39
739.118	2308.4
739.303	2197.81
739.489	2148.66
739.674	2156.85
739.859	2169.14
740.045	2212.15
740.23	2126.13
740.416	2179.38
740.601	2187.57
740.786	2101.56
740.972	2048.31
741.157	2136.37
741.342	2109.75
741.528	2044.21
741.713	2163
741.898	2036.02
742.084	2232.63
742.269	2167.09
742.454	2076.98
742.639	2099.51
742.824	1968.44
743.01	1919.29
743.195	2212.15
743.38	1986.87
743.565	1995.06
743.75	1974.58
743.935	1988.92
744.12	2163
744.305	1896.76
744.49	2040.12
744.675	2005.3
744.86	1919.29
745.045	1976.63
745.23	1937.72
745.415	1972.54
745.6	1911.1
745.785	1882.42
745.97	1898.81
746.155	1794.36
746.34	1849.66
746.525	1876.28
746.71	1911.1
746.895	1825.08
747.079	1841.47
747.264	1712.44
747.449	1798.46
747.634	1835.32
747.819	1839.42
748.003	1765.69
748.188	1800.51
748.373	1720.64
748.557	1790.27
748.742	1775.93
748.927	1714.49
749.111	1669.44
749.296	1769.79
749.481	1673.53
749.665	1595.71
749.85	1642.81
750.034	1632.57
750.219	1644.86
750.404	1724.73
750.588	1673.53
750.773	1583.42
750.957	1720.64
751.141	1638.72
751.326	1657.15
751.51	1583.42
751.695	1521.98
751.879	1648.96
752.064	1608
752.248	1573.18
752.432	1554.75
752.617	1495.36
752.801	1460.54
752.985	1599.8
753.17	1624.38
753.354	1413.44
753.538	1382.72
753.722	1425.73
753.907	1362.24
754.091	1521.98
754.275	1331.52
754.459	1429.82
754.643	1356.1
754.828	1413.44
755.012	1360.19
755.196	1343.81
755.38	1325.38
755.564	1460.54
755.748	1270.08
755.932	1284.42
756.116	1413.44
756.3	1237.31
756.484	1188.16
756.668	1290.56
756.852	1261.89
757.036	1194.31
757.22	1173.83
757.404	1319.23
757.588	1274.18
757.772	1233.22
757.956	1251.65
758.14	1345.86
758.323	1218.88
758.507	1186.12
758.691	1222.98
758.875	1241.41
759.059	1241.41
759.242	1134.92
759.426	1208.64
759.61	1192.26
759.794	1161.54
759.977	1188.16
760.161	1050.95
760.345	1182.02
760.528	1159.49
760.712	973.13
760.895	1106.24
761.079	1089.86
761.263	1130.82
761.446	1059.14
761.63	1192.26
761.813	1114.44
761.997	1100.1
762.18	1118.53
762.364	1083.72
762.547	1100.1
762.731	1063.24
762.914	1001.8
763.098	1030.47
763.281	987.46
763.464	1012.04
763.648	1026.37
763.831	1009.99
764.015	983.37
764.198	1022.28
764.381	909.64
764.564	1007.94
764.748	1108.29
764.931	997.7
765.114	995.65
765.297	915.78
765.481	1005.89
765.664	934.22
765.847	960.84
766.03	1032.52
766.213	899.4
766.397	1018.18
766.58	954.69
766.763	983.37
766.946	962.89
767.129	866.63
767.312	989.51
767.495	919.88
767.678	926.02
767.861	952.65
768.044	930.12
768.227	940.36
768.41	811.34
768.593	829.77
768.776	878.92
768.959	876.87
769.142	903.5
769.324	842.06
769.507	883.02
769.69	848.2
769.873	801.1
770.056	993.61
770.239	833.86
770.421	895.3
770.604	889.16
770.787	848.2
770.97	856.39
771.152	815.43
771.335	801.1
771.518	893.26
771.7	780.62
771.883	780.62
772.066	803.15
772.248	739.66
772.431	788.81
772.613	817.48
772.796	862.54
772.978	778.57
773.161	790.86
773.343	733.51
773.526	794.95
773.708	737.61
773.891	741.71
774.073	809.29
774.256	694.6
774.438	710.99
774.621	727.37
774.803	735.56
774.985	794.95
775.168	649.55
775.35	680.27
775.532	704.84
775.715	688.46
775.897	743.75
776.079	698.7
776.261	725.32
776.444	749.9
776.626	657.74
776.808	543.05
776.99	762.19
777.173	686.41
777.355	618.83
777.537	631.12
777.719	635.21
777.901	606.54
778.083	670.03
778.265	618.83
778.447	645.45
778.629	584.01
778.811	635.21
778.993	573.77
779.175	590.16
779.357	624.97
779.539	561.48
779.721	622.92
779.903	614.73
780.085	549.2
780.267	481.61
780.449	579.92
780.631	551.24
780.812	526.67
780.994	588.11
781.176	524.62
781.358	538.96
781.54	504.14
781.721	534.86
781.903	569.68
782.085	418.13
782.267	491.85
782.448	491.85
782.63	520.53
782.812	569.68
782.993	534.86
783.175	426.32
783.357	420.17
783.538	526.67
783.72	491.85
783.901	420.17
784.083	436.56
784.264	467.28
784.446	442.7
784.627	438.61
784.809	442.7
784.99	498
785.172	518.48
785.353	371.02
785.535	411.98
785.716	389.46
785.897	407.89
786.079	420.17
786.26	411.98
786.441	389.46
786.623	399.7
786.804	397.65
786.985	371.02
787.167	383.31
787.348	336.21
787.529	368.98
787.71	418.13
787.891	434.51
788.073	334.16
788.254	323.92
788.435	381.26
788.616	440.65
788.797	424.27
788.978	471.37
789.159	342.35
789.34	397.65
789.522	276.82
789.703	393.55
789.884	426.32
790.065	457.04
790.246	346.45
790.427	403.79
790.607	356.69
790.788	328.02
790.969	352.59
791.15	323.92
791.331	325.97
791.512	291.15
791.693	266.58
791.874	309.58
792.054	381.26
792.235	317.78
792.416	330.06
792.597	299.34
792.778	323.92
792.958	278.87
793.139	270.67
793.32	342.35
793.5	399.7
793.681	289.1
793.862	364.88
794.042	321.87
794.223	280.91
794.404	338.26
794.584	305.49
794.765	330.06
794.945	307.54
795.126	325.97
795.306	360.78
795.487	334.16
795.667	264.53
795.848	229.71
796.028	287.06
796.209	289.1
796.389	254.29
796.57	303.44
796.75	258.39
796.93	289.1
797.111	291.15
797.291	268.63
797.471	291.15
797.652	190.8
797.832	270.67
798.012	266.58
798.192	274.77
798.373	258.39
798.553	305.49
798.733	342.35
798.913	248.15
799.093	309.58
799.274	223.57
799.454	278.87
799.634	280.91
799.814	229.71
799.994	278.87
800.174	274.77
800.354	227.67
800.534	225.62
800.714	252.24
800.894	246.1
801.074	225.62
801.254	213.33
801.434	231.76
801.614	301.39
801.794	254.29
801.974	561.48
802.154	227.67
802.334	282.96
802.514	211.28
802.693	229.71
802.873	174.42
803.053	229.71
803.233	260.43
803.413	260.43
803.592	174.42
803.772	186.71
803.952	127.32
804.131	258.39
804.311	211.28
804.491	180.56
804.67	182.61
804.85	178.51
805.03	258.39
805.209	248.15
805.389	188.75
805.568	246.1
805.748	205.14
805.928	223.57
806.107	166.23
806.287	205.14
806.466	215.38
806.646	231.76
806.825	149.84
807.004	203.09
807.184	176.47
807.363	221.52
807.543	190.8
807.722	227.67
807.901	174.42
808.081	190.8
808.26	139.6
808.439	158.03
808.619	266.58
808.798	254.29
808.977	207.19
809.156	248.15
809.336	162.13
809.515	203.09
809.694	168.27
809.873	209.23
810.052	158.03
810.231	194.9
810.411	158.03
810.59	205.14
810.769	166.23
810.948	213.33
811.127	106.84
811.306	176.47
811.485	190.8
811.664	166.23
811.843	129.36
812.022	131.41
812.201	94.55
812.38	149.84
812.559	196.95
812.737	121.17
812.916	121.17
813.095	129.36
813.274	184.66
813.453	147.8
813.632	217.43
813.811	186.71
813.989	155.99
814.168	102.74
814.347	69.97
814.526	188.75
814.704	133.46
814.883	135.51
815.062	108.88
815.24	121.17
815.419	180.56
815.598	184.66
815.776	137.56
815.955	76.12
816.133	65.88
816.312	180.56
816.49	186.71
816.669	184.66
816.847	45.4
817.026	123.22
817.204	143.7
817.383	180.56
817.561	160.08
817.74	186.71
817.918	94.55
818.097	160.08
818.275	127.32
818.453	166.23
818.632	57.68
818.81	119.12
818.988	78.16
819.167	110.93
819.345	127.32
819.523	115.03
819.701	106.84
819.879	207.19
820.058	119.12
820.236	123.22
820.414	104.79
820.592	141.65
820.77	201.04
820.948	112.98
821.127	160.08
821.305	170.32
821.483	149.84
821.661	153.94
821.839	84.31
822.017	149.84
822.195	131.41
822.373	145.75
822.551	147.8
822.729	151.89
822.907	82.26
823.085	117.08
823.262	94.55
823.44	108.88
823.618	65.88
823.796	168.27
823.974	57.68
824.152	100.69
824.329	74.07
824.507	20.82
824.685	104.79
824.863	186.71
825.04	115.03
825.218	74.07
825.396	143.7
825.574	135.51
825.751	59.73
825.929	102.74
826.107	125.27
826.284	123.22
826.462	57.68
826.639	41.3
826.817	31.06
826.994	125.27
827.172	129.36
827.349	88.4
827.527	80.21
827.704	164.18
827.882	90.45
828.059	98.64
828.237	69.97
828.414	86.36
828.591	4.44
828.769	92.5
828.946	43.35
829.124	72.02
829.301	129.36
829.478	37.2
829.655	78.16
829.833	74.07
830.01	6.49
830.187	129.36
830.364	57.68
830.542	106.84
830.719	82.26
830.896	104.79
831.073	35.16
831.25	51.54
831.427	135.51
831.604	90.45
831.782	92.5
831.959	86.36
832.136	69.97
832.313	121.17
832.49	35.16
832.667	92.5
832.844	45.4
833.021	78.16
833.198	119.12
833.374	45.4
833.551	47.44
833.728	82.26
833.905	29.01
834.082	76.12
834.259	16.73
834.436	123.22
834.612	63.83
834.789	123.22
834.966	67.92
835.143	43.35
835.319	14.68
835.496	108.88
835.673	131.41
835.85	94.55
836.026	98.64
836.203	143.7
836.38	88.4
836.556	41.3
836.733	88.4
836.909	219.47
837.086	8.53
837.262	45.4
837.439	155.99
837.616	41.3
837.792	96.6
837.968	14.68
838.145	45.4
838.321	69.97
838.498	119.12
838.674	127.32
838.851	74.07
839.027	82.26
839.203	31.06
839.38	16.73
839.556	104.79
839.732	6.49
839.909	55.64
840.085	47.44
840.261	65.88
840.437	86.36
840.614	24.92
840.79	49.49
840.966	57.68
841.142	43.35
841.318	76.12
841.494	67.92
841.671	35.16
841.847	78.16
842.023	-46.76
842.199	82.26
842.375	67.92
842.551	100.69
842.727	47.44
842.903	94.55
843.079	88.4
843.255	80.21
843.431	84.31
843.607	82.26
843.783	14.68
843.959	39.25
844.134	33.11
844.31	86.36
844.486	72.02
844.662	49.49
844.838	-3.75
845.013	26.96
845.189	65.88
845.365	82.26
845.541	47.44
845.716	67.92
845.892	76.12
846.068	196.95
846.244	82.26
846.419	117.08
846.595	106.84
846.77	57.68
846.946	51.54
847.122	47.44
847.297	14.68
847.473	141.65
847.648	72.02
847.824	63.83
847.999	24.92
848.175	74.07
848.35	29.01
848.526	98.64
848.701	-9.9
848.876	55.64
849.052	84.31
849.227	90.45
849.403	98.64
849.578	65.88
849.753	37.2
849.929	139.6
850.104	108.88
850.279	-11.95
850.454	67.92
850.63	57.68
850.805	35.16
850.98	158.03
851.155	76.12
851.33	106.84
851.505	-7.85
851.681	59.73
851.856	100.69
852.031	55.64
852.206	-61.1
852.381	51.54
852.556	100.69
852.731	59.73
852.906	74.07
853.081	69.97
853.256	63.83
853.431	2.39
853.606	67.92
853.781	69.97
853.956	24.92
854.131	2.39
854.305	33.11
854.48	65.88
854.655	10.58
854.83	2.39
855.005	10.58
855.18	61.78
855.354	-44.71
855.529	117.08
855.704	20.82
855.879	84.31
856.053	35.16
856.228	6.49
856.403	16.73
856.577	24.92
856.752	22.87
856.926	69.97
857.101	72.02
857.276	-13.99
857.45	-9.9
857.625	123.22
857.799	63.83
857.974	76.12
858.148	2.39
858.323	49.49
858.497	-28.33
858.672	51.54
858.846	14.68
859.02	53.59
859.195	-13.99
859.369	39.25
859.543	80.21
859.718	-24.23
859.892	-9.9
860.066	22.87
860.241	53.59
860.415	18.77
860.589	4.44
860.763	-1.71
860.938	41.3
861.112	86.36
861.286	22.87
861.46	4.44
861.634	76.12
861.808	18.77
861.982	-13.99
862.157	69.97
862.331	47.44
862.505	26.96
862.679	16.73
862.853	-13.99
863.027	55.64
863.201	63.83
863.375	-18.09
863.549	65.88
863.722	100.69
863.896	35.16
864.07	55.64
864.244	22.87
864.418	61.78
864.592	39.25
864.766	61.78
864.939	72.02
865.113	37.2
865.287	26.96
865.461	31.06
865.634	43.35
865.808	-42.67
865.982	22.87
866.156	55.64
866.329	-34.47
866.503	51.54
866.676	51.54
866.85	35.16
867.024	43.35
867.197	29.01
867.371	-1.71
867.544	39.25
867.718	-75.43
867.891	59.73
868.065	8.53
868.238	88.4
868.412	61.78
868.585	16.73
868.759	39.25
868.932	12.63
869.105	8.53
869.279	-26.28
869.452	16.73
869.625	-5.8
869.799	31.06
869.972	59.73
870.145	43.35
870.319	18.77
870.492	-18.09
870.665	47.44
870.838	-26.28
871.011	-24.23
871.185	18.77
871.358	41.3
871.531	-36.52
871.704	-7.85
871.877	16.73
872.05	37.2
872.223	29.01
872.396	-34.47
872.569	-5.8
872.742	-28.33
872.915	65.88
873.088	-44.71
873.261	33.11
873.434	45.4
873.607	100.69
873.78	33.11
873.953	-7.85
874.126	-1.71
874.299	82.26
874.471	63.83
874.644	63.83
874.817	14.68
874.99	22.87
875.163	16.73
875.335	8.53
875.508	65.88
875.681	49.49
875.853	-7.85
876.026	4.44
876.199	59.73
876.371	22.87
876.544	-13.99
876.717	-52.91
876.889	-32.43
877.062	-11.95
877.234	0.34
877.407	31.06
877.579	33.11
877.752	26.96
877.924	-48.81
878.097	12.63
878.269	63.83
878.442	-1.71
878.614	55.64
878.786	-5.8
878.959	37.2
879.131	10.58
879.303	-34.47
879.476	24.92
879.648	-26.28
879.82	14.68
879.993	-32.43
880.165	-11.95
880.337	110.93
880.509	74.07
880.681	24.92
880.854	-5.8
881.026	37.2
881.198	6.49
881.37	-73.39
881.542	-26.28
881.714	92.5
881.886	-13.99
882.058	41.3
882.23	0.34
882.402	102.74
882.574	31.06
882.746	72.02
882.918	45.4
883.09	57.68
883.262	-32.43
883.434	22.87
883.606	-20.14
883.778	-11.95
883.95	14.68
884.122	22.87
884.293	10.58
884.465	22.87
884.637	35.16
884.809	33.11
884.98	59.73
885.152	0.34
885.324	49.49
885.496	-11.95
885.667	22.87
885.839	-13.99
886.011	33.11
886.182	-1.71
886.354	37.2
886.525	-24.23
886.697	37.2
886.869	26.96
887.04	0.34
887.212	72.02
887.383	53.59
887.555	24.92
887.726	20.82
887.897	37.2
888.069	22.87
888.24	8.53
888.412	35.16
888.583	59.73
888.754	-11.95
888.926	-42.67
889.097	33.11
889.268	8.53
889.44	6.49
889.611	-61.1
889.782	-22.19
889.953	-102.06
890.125	35.16
890.296	-44.71
890.467	-9.9
890.638	-36.52
890.809	-93.87
890.98	29.01
891.151	67.92
891.323	47.44
891.494	24.92
891.665	-81.58
891.836	-24.23
892.007	-16.04
892.178	14.68
892.349	55.64
892.52	-50.86
892.691	86.36
892.862	63.83
893.032	22.87
893.203	-5.8
893.374	-22.19
893.545	65.88
893.716	29.01
893.887	6.49
894.057	10.58
894.228	31.06
894.399	-36.52
894.57	31.06
894.74	86.36
894.911	41.3
895.082	37.2
895.253	45.4
895.423	-1.71
895.594	69.97
895.764	-16.04
895.935	18.77
896.106	61.78
896.276	-13.99
896.447	45.4
896.617	-44.71
896.788	-116.39
896.958	35.16
897.129	41.3
897.299	0.34
897.47	35.16
897.64	20.82
897.81	-13.99
897.981	-65.19
898.151	-5.8
898.322	-22.19
898.492	24.92
898.662	14.68
898.832	-79.53
899.003	0.34
899.173	2.39
899.343	67.92
899.513	24.92
