Data from USB4F104151__190__11-09-49-821.txt Node

Date: Wed Mar 12 11:09:49 EDT 2025
User: louis
Spectrometer: USB4F10415
Trigger mode: 4
Integration Time (sec): 2.000000E-2
Scans to average: 1
Electric dark correction enabled: true
Nonlinearity correction enabled: false
Boxcar width: 0
XAxis mode: Wavelengths
Number of Pixels in Spectrum: 3648
>>>>>Begin Spectral Data<<<<<
178.204	-33.79
178.424	-33.79
178.644	-33.79
178.864	-72.7
179.084	-125.95
179.304	-29.7
179.524	54.27
179.744	-37.89
179.964	78.85
180.184	-111.61
180.404	50.18
180.624	-56.32
180.844	54.27
181.064	-41.98
181.283	15.36
181.503	-9.22
181.723	33.79
181.943	-23.55
182.163	19.46
182.383	-5.12
182.602	-19.46
182.822	46.08
183.042	3.07
183.262	-101.37
183.482	19.46
183.701	-5.12
183.921	29.7
184.141	-23.55
184.361	70.65
184.58	39.94
184.8	29.7
185.02	60.42
185.239	35.84
185.459	-19.46
185.679	-11.26
185.898	29.7
186.118	5.12
186.338	5.12
186.557	13.31
186.777	54.27
186.997	33.79
187.216	17.41
187.436	46.08
187.655	44.03
187.875	21.5
188.095	31.74
188.314	29.7
188.534	52.22
188.753	-48.13
188.973	27.65
189.192	115.71
189.412	-58.37
189.631	-21.5
189.851	19.46
190.07	25.6
190.29	-13.31
190.509	-52.22
190.729	-21.5
190.948	103.42
191.168	95.23
191.387	19.46
191.607	-70.65
191.826	-27.65
192.045	-44.03
192.265	17.41
192.484	-13.31
192.704	3.07
192.923	17.41
193.142	9.22
193.362	-52.22
193.581	56.32
193.8	-23.55
194.02	15.36
194.239	-21.5
194.458	48.13
194.678	78.85
194.897	9.22
195.116	-5.12
195.335	-25.6
195.555	19.46
195.774	-19.46
195.993	35.84
196.212	-64.51
196.432	-44.03
196.651	-13.31
196.87	1.02
197.089	84.99
197.308	31.74
197.528	19.46
197.747	41.98
197.966	17.41
198.185	46.08
198.404	23.55
198.623	-60.42
198.842	-54.27
199.062	1.02
199.281	-9.22
199.5	-3.07
199.719	72.7
199.938	-54.27
200.157	-37.89
200.376	29.7
200.595	-13.31
200.814	31.74
201.033	-27.65
201.252	39.94
201.471	91.13
201.69	99.33
201.909	-31.74
202.128	3.07
202.347	37.89
202.566	29.7
202.785	33.79
203.004	-25.6
203.223	29.7
203.442	17.41
203.661	-17.41
203.879	-39.94
204.098	-15.36
204.317	37.89
204.536	15.36
204.755	89.09
204.974	-13.31
205.193	27.65
205.411	113.66
205.63	-52.22
205.849	5.12
206.068	48.13
206.287	-33.79
206.505	23.55
206.724	-37.89
206.943	-11.26
207.162	39.94
207.381	44.03
207.599	3.07
207.818	-52.22
208.037	25.6
208.255	11.26
208.474	-62.46
208.693	-33.79
208.911	52.22
209.13	7.17
209.349	-15.36
209.567	-25.6
209.786	1.02
210.005	-11.26
210.223	-50.18
210.442	-52.22
210.661	3.07
210.879	-7.17
211.098	9.22
211.316	-29.7
211.535	76.8
211.753	-1.02
211.972	21.5
212.191	-31.74
212.409	-58.37
212.628	41.98
212.846	15.36
213.065	46.08
213.283	37.89
213.502	17.41
213.72	44.03
213.938	-19.46
214.157	25.6
214.375	27.65
214.594	15.36
214.812	-39.94
215.031	-29.7
215.249	5.12
215.467	54.27
215.686	-27.65
215.904	1.02
216.122	19.46
216.341	87.04
216.559	-11.26
216.778	15.36
216.996	-15.36
217.214	25.6
217.432	7.17
217.651	-11.26
217.869	13.31
218.087	9.22
218.306	39.94
218.524	25.6
218.742	-95.23
218.96	7.17
219.179	31.74
219.397	-80.89
219.615	89.09
219.833	89.09
220.051	-48.13
220.27	64.51
220.488	46.08
220.706	37.89
220.924	-11.26
221.142	-17.41
221.36	-11.26
221.578	52.22
221.796	21.5
222.015	15.36
222.233	33.79
222.451	23.55
222.669	-25.6
222.887	39.94
223.105	31.74
223.323	17.41
223.541	33.79
223.759	1.02
223.977	-37.89
224.195	37.89
224.413	25.6
224.631	-5.12
224.849	-23.55
225.067	-25.6
225.285	37.89
225.503	25.6
225.721	-50.18
225.939	29.7
226.157	52.22
226.375	48.13
226.592	5.12
226.81	3.07
227.028	70.65
227.246	25.6
227.464	-21.5
227.682	58.37
227.9	5.12
228.117	5.12
228.335	11.26
228.553	-3.07
228.771	5.12
228.989	17.41
229.206	23.55
229.424	68.61
229.642	1.02
229.86	41.98
230.077	-31.74
230.295	-5.12
230.513	125.95
230.731	56.32
230.948	15.36
231.166	-7.17
231.384	54.27
231.601	-19.46
231.819	46.08
232.037	-11.26
232.254	21.5
232.472	-21.5
232.689	11.26
232.907	99.33
233.125	-50.18
233.342	-1.02
233.56	5.12
233.777	41.98
233.995	23.55
234.213	31.74
234.43	-15.36
234.648	72.7
234.865	-25.6
235.083	7.17
235.3	-19.46
235.518	78.85
235.735	29.7
235.953	74.75
236.17	33.79
236.388	-1.02
236.605	5.12
236.822	48.13
237.04	27.65
237.257	23.55
237.475	-13.31
237.692	-31.74
237.909	13.31
238.127	15.36
238.344	52.22
238.562	52.22
238.779	-44.03
238.996	25.6
239.214	5.12
239.431	39.94
239.648	-1.02
239.865	1.02
240.083	54.27
240.3	31.74
240.517	3.07
240.735	-9.22
240.952	23.55
241.169	35.84
241.386	-15.36
241.603	1.02
241.821	27.65
242.038	-9.22
242.255	29.7
242.472	-23.55
242.689	27.65
242.907	48.13
243.124	-35.84
243.341	46.08
243.558	-7.17
243.775	-93.18
243.992	-5.12
244.209	-29.7
244.426	-5.12
244.643	1.02
244.86	-60.42
245.078	66.56
245.295	33.79
245.512	-31.74
245.729	-7.17
245.946	19.46
246.163	7.17
246.38	21.5
246.597	5.12
246.814	9.22
247.031	35.84
247.248	15.36
247.464	64.51
247.681	82.94
247.898	37.89
248.115	44.03
248.332	9.22
248.549	70.65
248.766	33.79
248.983	13.31
249.2	41.98
249.417	25.6
249.633	11.26
249.85	25.6
250.067	46.08
250.284	5.12
250.501	-66.56
250.717	70.65
250.934	-1.02
251.151	25.6
251.368	41.98
251.585	87.04
251.801	-31.74
252.018	52.22
252.235	19.46
252.451	-1.02
252.668	39.94
252.885	25.6
253.102	119.81
253.318	7.17
253.535	-66.56
253.752	-31.74
253.968	25.6
254.185	41.98
254.401	-1.02
254.618	25.6
254.835	-25.6
255.051	68.61
255.268	46.08
255.484	21.5
255.701	-46.08
255.917	-72.7
256.134	-13.31
256.351	-3.07
256.567	7.17
256.784	9.22
257	70.65
257.217	23.55
257.433	66.56
257.65	37.89
257.866	66.56
258.082	-11.26
258.299	-11.26
258.515	25.6
258.732	54.27
258.948	13.31
259.165	15.36
259.381	41.98
259.597	7.17
259.814	33.79
260.03	21.5
260.246	39.94
260.463	5.12
260.679	-35.84
260.895	19.46
261.112	-23.55
261.328	-19.46
261.544	-52.22
261.761	-5.12
261.977	46.08
262.193	17.41
262.409	-3.07
262.626	13.31
262.842	-1.02
263.058	15.36
263.274	76.8
263.49	-9.22
263.707	25.6
263.923	-3.07
264.139	-1.02
264.355	46.08
264.571	33.79
264.787	80.89
265.004	29.7
265.22	31.74
265.436	27.65
265.652	-50.18
265.868	-17.41
266.084	-25.6
266.3	29.7
266.516	-11.26
266.732	52.22
266.948	62.46
267.164	27.65
267.38	15.36
267.596	-48.13
267.812	23.55
268.028	3.07
268.244	3.07
268.46	7.17
268.676	1.02
268.892	25.6
269.108	-3.07
269.324	-58.37
269.54	-62.46
269.756	-9.22
269.972	-23.55
270.188	9.22
270.403	-11.26
270.619	72.7
270.835	-60.42
271.051	37.89
271.267	-1.02
271.483	23.55
271.698	3.07
271.914	101.37
272.13	-7.17
272.346	-5.12
272.562	-44.03
272.777	41.98
272.993	41.98
273.209	76.8
273.425	27.65
273.64	44.03
273.856	-52.22
274.072	9.22
274.287	-39.94
274.503	35.84
274.719	9.22
274.934	-1.02
275.15	5.12
275.366	-60.42
275.581	-44.03
275.797	48.13
276.012	-1.02
276.228	3.07
276.444	33.79
276.659	76.8
276.875	29.7
277.09	9.22
277.306	33.79
277.521	31.74
277.737	-7.17
277.952	21.5
278.168	29.7
278.383	1.02
278.599	31.74
278.814	-17.41
279.03	31.74
279.245	93.18
279.461	33.79
279.676	44.03
279.892	-3.07
280.107	-19.46
280.322	-27.65
280.538	-29.7
280.753	-72.7
280.969	-19.46
281.184	50.18
281.399	87.04
281.615	-62.46
281.83	-9.22
282.045	-15.36
282.26	17.41
282.476	35.84
282.691	33.79
282.906	27.65
283.122	25.6
283.337	-23.55
283.552	23.55
283.767	1.02
283.983	9.22
284.198	11.26
284.413	-1.02
284.628	-15.36
284.843	-37.89
285.058	39.94
285.274	5.12
285.489	46.08
285.704	41.98
285.919	29.7
286.134	13.31
286.349	-27.65
286.564	46.08
286.779	-3.07
286.995	5.12
287.21	7.17
287.425	-9.22
287.64	-19.46
287.855	27.65
288.07	-1.02
288.285	68.61
288.5	50.18
288.715	-23.55
288.93	33.79
289.145	5.12
289.36	-46.08
289.575	17.41
289.79	11.26
290.004	111.61
290.219	87.04
290.434	21.5
290.649	-11.26
290.864	-7.17
291.079	-27.65
291.294	-27.65
291.509	17.41
291.724	-9.22
291.938	29.7
292.153	13.31
292.368	-9.22
292.583	33.79
292.798	39.94
293.012	29.7
293.227	-27.65
293.442	21.5
293.657	37.89
293.871	19.46
294.086	56.32
294.301	68.61
294.516	70.65
294.73	37.89
294.945	-37.89
295.16	46.08
295.374	1.02
295.589	15.36
295.804	19.46
296.018	-25.6
296.233	46.08
296.447	-5.12
296.662	31.74
296.877	-9.22
297.091	31.74
297.306	-11.26
297.52	-3.07
297.735	66.56
297.949	25.6
298.164	-27.65
298.378	-76.8
298.593	-21.5
298.807	31.74
299.022	-7.17
299.236	25.6
299.451	25.6
299.665	56.32
299.88	17.41
300.094	-11.26
300.309	15.36
300.523	25.6
300.737	-35.84
300.952	66.56
301.166	-29.7
301.381	21.5
301.595	23.55
301.809	-23.55
302.024	17.41
302.238	-19.46
302.452	39.94
302.667	-15.36
302.881	31.74
303.095	3.07
303.309	-11.26
303.524	3.07
303.738	54.27
303.952	-35.84
304.166	44.03
304.381	-52.22
304.595	-7.17
304.809	-7.17
305.023	-19.46
305.237	-33.79
305.452	9.22
305.666	23.55
305.88	1.02
306.094	33.79
306.308	48.13
306.522	17.41
306.736	9.22
306.95	54.27
307.164	115.71
307.379	62.46
307.593	21.5
307.807	56.32
308.021	-11.26
308.235	70.65
308.449	-46.08
308.663	-31.74
308.877	-17.41
309.091	46.08
309.305	48.13
309.519	21.5
309.733	23.55
309.947	-52.22
310.161	56.32
310.374	70.65
310.588	23.55
310.802	15.36
311.016	37.89
311.23	-7.17
311.444	33.79
311.658	-15.36
311.872	15.36
312.085	1.02
312.299	39.94
312.513	23.55
312.727	15.36
312.941	-15.36
313.154	74.75
313.368	29.7
313.582	50.18
313.796	-9.22
314.009	-7.17
314.223	50.18
314.437	-3.07
314.651	9.22
314.864	21.5
315.078	13.31
315.292	5.12
315.505	15.36
315.719	-39.94
315.933	7.17
316.146	74.75
316.36	11.26
316.573	50.18
316.787	-13.31
317.001	-19.46
317.214	5.12
317.428	31.74
317.641	7.17
317.855	-29.7
318.068	50.18
318.282	7.17
318.495	31.74
318.709	19.46
318.922	23.55
319.136	25.6
319.349	-1.02
319.563	31.74
319.776	66.56
319.99	-17.41
320.203	31.74
320.417	25.6
320.63	82.94
320.843	-7.17
321.057	48.13
321.27	-7.17
321.483	35.84
321.697	5.12
321.91	64.51
322.124	-5.12
322.337	62.46
322.55	35.84
322.763	44.03
322.977	15.36
323.19	5.12
323.403	-13.31
323.617	21.5
323.83	25.6
324.043	-46.08
324.256	52.22
324.469	11.26
324.683	50.18
324.896	48.13
325.109	9.22
325.322	-15.36
325.535	27.65
325.748	-35.84
325.962	-23.55
326.175	25.6
326.388	50.18
326.601	62.46
326.814	-31.74
327.027	56.32
327.24	44.03
327.453	-21.5
327.666	-13.31
327.879	158.72
328.092	84.99
328.305	-5.12
328.518	68.61
328.731	-72.7
328.944	-37.89
329.157	50.18
329.37	9.22
329.583	58.37
329.796	93.18
330.009	-87.04
330.222	-11.26
330.435	13.31
330.648	25.6
330.861	17.41
331.073	5.12
331.286	-9.22
331.499	9.22
331.712	11.26
331.925	31.74
332.138	17.41
332.35	80.89
332.563	9.22
332.776	9.22
332.989	5.12
333.202	-66.56
333.414	80.89
333.627	9.22
333.84	21.5
334.053	3.07
334.265	89.09
334.478	35.84
334.691	-64.51
334.903	9.22
335.116	66.56
335.329	-1.02
335.541	21.5
335.754	-5.12
335.966	37.89
336.179	25.6
336.392	66.56
336.604	-27.65
336.817	9.22
337.029	70.65
337.242	31.74
337.454	-37.89
337.667	9.22
337.88	15.36
338.092	74.75
338.305	33.79
338.517	17.41
338.729	21.5
338.942	41.98
339.154	-3.07
339.367	64.51
339.579	-7.17
339.792	29.7
340.004	21.5
340.217	33.79
340.429	66.56
340.641	-17.41
340.854	66.56
341.066	-5.12
341.278	13.31
341.491	91.13
341.703	29.7
341.915	-54.27
342.128	35.84
342.34	41.98
342.552	44.03
342.764	46.08
342.977	5.12
343.189	-3.07
343.401	-13.31
343.613	-31.74
343.826	33.79
344.038	29.7
344.25	35.84
344.462	-44.03
344.674	54.27
344.886	21.5
345.099	44.03
345.311	68.61
345.523	80.89
345.735	29.7
345.947	80.89
346.159	56.32
346.371	80.89
346.583	9.22
346.795	37.89
347.007	115.71
347.219	-13.31
347.431	-31.74
347.643	97.28
347.855	76.8
348.067	31.74
348.279	52.22
348.491	35.84
348.703	58.37
348.915	21.5
349.127	48.13
349.339	93.18
349.551	-11.26
349.763	-1.02
349.975	-7.17
350.187	50.18
350.399	117.76
350.61	15.36
350.822	-3.07
351.034	70.65
351.246	37.89
351.458	68.61
351.669	7.17
351.881	31.74
352.093	44.03
352.305	39.94
352.517	11.26
352.728	89.09
352.94	-33.79
353.152	11.26
353.363	3.07
353.575	82.94
353.787	84.99
353.999	33.79
354.21	41.98
354.422	3.07
354.633	-13.31
354.845	80.89
355.057	50.18
355.268	-60.42
355.48	-82.94
355.692	25.6
355.903	9.22
356.115	72.7
356.326	-19.46
356.538	37.89
356.749	35.84
356.961	44.03
357.172	11.26
357.384	-1.02
357.595	107.52
357.807	17.41
358.018	19.46
358.23	78.85
358.441	66.56
358.653	27.65
358.864	-9.22
359.075	-25.6
359.287	115.71
359.498	17.41
359.709	-37.89
359.921	66.56
360.132	37.89
360.344	17.41
360.555	-13.31
360.766	3.07
360.977	7.17
361.189	80.89
361.4	35.84
361.611	58.37
361.823	52.22
362.034	41.98
362.245	-19.46
362.456	29.7
362.667	-9.22
362.879	-31.74
363.09	44.03
363.301	74.75
363.512	7.17
363.723	7.17
363.935	56.32
364.146	41.98
364.357	7.17
364.568	66.56
364.779	-23.55
364.99	19.46
365.201	48.13
365.412	62.46
365.623	-54.27
365.834	-29.7
366.045	-7.17
366.256	15.36
366.467	21.5
366.678	7.17
366.889	-11.26
367.1	9.22
367.311	3.07
367.522	25.6
367.733	-56.32
367.944	31.74
368.155	-44.03
368.366	54.27
368.577	-31.74
368.788	21.5
368.999	39.94
369.209	70.65
369.42	160.77
369.631	21.5
369.842	21.5
370.053	46.08
370.264	46.08
370.474	-39.94
370.685	72.7
370.896	9.22
371.107	17.41
371.317	58.37
371.528	-7.17
371.739	-70.65
371.95	35.84
372.16	46.08
372.371	1.02
372.582	52.22
372.792	64.51
373.003	50.18
373.214	5.12
373.424	66.56
373.635	25.6
373.846	78.85
374.056	15.36
374.267	29.7
374.477	5.12
374.688	37.89
374.898	52.22
375.109	70.65
375.319	80.89
375.53	1.02
375.74	33.79
375.951	44.03
376.161	-35.84
376.372	41.98
376.582	11.26
376.793	39.94
377.003	37.89
377.214	31.74
377.424	-56.32
377.635	62.46
377.845	29.7
378.055	31.74
378.266	58.37
378.476	23.55
378.686	19.46
378.897	39.94
379.107	27.65
379.317	13.31
379.528	9.22
379.738	56.32
379.948	-39.94
380.158	27.65
380.369	21.5
380.579	5.12
380.789	64.51
380.999	35.84
381.21	5.12
381.42	74.75
381.63	9.22
381.84	-25.6
382.05	11.26
382.261	117.76
382.471	5.12
382.681	39.94
382.891	111.61
383.101	13.31
383.311	9.22
383.521	5.12
383.731	29.7
383.941	70.65
384.151	66.56
384.361	103.42
384.571	27.65
384.781	46.08
384.991	54.27
385.201	70.65
385.411	41.98
385.621	13.31
385.831	1.02
386.041	39.94
386.251	-80.89
386.461	70.65
386.671	3.07
386.881	44.03
387.091	3.07
387.301	11.26
387.511	11.26
387.72	78.85
387.93	74.75
388.14	37.89
388.35	19.46
388.56	48.13
388.769	37.89
388.979	-5.12
389.189	-3.07
389.399	44.03
389.609	115.71
389.818	54.27
390.028	41.98
390.238	3.07
390.447	128
390.657	37.89
390.867	29.7
391.076	-31.74
391.286	66.56
391.496	-23.55
391.705	-3.07
391.915	33.79
392.125	-15.36
392.334	-52.22
392.544	25.6
392.753	152.57
392.963	48.13
393.172	54.27
393.382	97.28
393.591	54.27
393.801	19.46
394.01	44.03
394.22	-7.17
394.429	46.08
394.639	3.07
394.848	62.46
395.058	56.32
395.267	-25.6
395.477	-11.26
395.686	99.33
395.895	50.18
396.105	109.57
396.314	17.41
396.524	56.32
396.733	50.18
396.942	11.26
397.152	111.61
397.361	72.7
397.57	37.89
397.78	84.99
397.989	41.98
398.198	84.99
398.407	13.31
398.617	66.56
398.826	15.36
399.035	13.31
399.244	162.81
399.453	39.94
399.663	62.46
399.872	21.5
400.081	-3.07
400.29	62.46
400.499	-3.07
400.708	156.67
400.917	39.94
401.127	33.79
401.336	72.7
401.545	154.62
401.754	80.89
401.963	82.94
402.172	-7.17
402.381	62.46
402.59	17.41
402.799	41.98
403.008	109.57
403.217	78.85
403.426	68.61
403.635	76.8
403.844	70.65
404.053	103.42
404.262	66.56
404.471	130.05
404.68	66.56
404.888	82.94
405.097	78.85
405.306	91.13
405.515	138.24
405.724	50.18
405.933	95.23
406.142	82.94
406.35	50.18
406.559	82.94
406.768	87.04
406.977	177.15
407.185	113.66
407.394	101.37
407.603	115.71
407.812	125.95
408.02	91.13
408.229	218.11
408.438	41.98
408.646	132.09
408.855	97.28
409.064	183.29
409.272	150.53
409.481	136.19
409.69	177.15
409.898	134.14
410.107	158.72
410.315	220.16
410.524	175.1
410.733	199.68
410.941	171.01
411.15	150.53
411.358	295.93
411.567	205.82
411.775	150.53
411.984	285.69
412.192	191.49
412.401	242.68
412.609	281.6
412.818	279.55
413.026	320.51
413.234	295.93
413.443	300.03
413.651	369.66
413.86	369.66
414.068	304.12
414.276	334.84
414.485	349.18
414.693	386.04
414.901	390.14
415.11	361.47
415.318	427
415.526	488.44
415.734	394.23
415.943	398.33
416.151	470.01
416.359	402.43
416.567	480.25
416.776	510.97
416.984	570.36
417.192	578.55
417.4	545.78
417.608	543.74
417.817	592.89
418.025	689.14
418.233	644.09
418.441	609.27
418.649	629.75
418.857	672.76
419.065	793.59
419.273	625.65
419.481	746.48
419.689	816.12
419.897	859.12
420.105	758.77
420.313	795.64
420.521	930.8
420.729	912.37
420.937	824.31
421.145	963.57
421.353	1113.07
421.561	1002.48
421.769	1059.82
421.977	1139.69
422.185	1147.89
422.393	1094.64
422.601	1317.87
422.809	1315.82
423.017	1192.94
423.224	1281
423.432	1375.21
423.64	1350.64
423.848	1399.79
424.056	1432.55
424.263	1487.85
424.471	1606.63
424.679	1678.31
424.887	1666.02
425.094	1821.67
425.302	1817.57
425.51	1797.09
425.718	1825.76
425.925	1975.27
426.133	1899.49
426.341	2100.19
426.548	2024.42
426.756	2227.17
426.964	2190.3
427.171	2266.08
427.379	2403.29
427.586	2360.28
427.794	2372.57
428.001	2626.52
428.209	2843.6
428.417	2608.09
428.624	2786.26
428.832	2790.36
429.039	2827.22
429.247	2862.04
429.454	3101.65
429.662	3298.25
429.869	3005.39
430.076	3271.63
430.284	3144.66
430.491	3294.16
430.699	3486.67
430.906	3523.53
431.114	3484.62
431.321	3552.2
431.528	3775.43
431.736	4021.19
431.943	4168.64
432.15	4066.24
432.358	3998.66
432.565	4234.18
432.772	4445.12
432.979	4623.29
433.187	4471.74
433.394	4533.18
433.601	4789.17
433.808	4989.88
434.016	4955.06
434.223	5077.94
434.43	5348.27
434.637	5415.85
434.844	5714.86
435.052	5727.14
435.259	5698.47
435.466	5737.38
435.673	5854.12
435.88	6001.57
436.087	6603.68
436.294	6437.79
436.501	6427.55
436.708	6527.9
436.915	6628.25
437.122	6871.96
437.329	6742.94
437.537	7130
437.743	7142.29
437.95	7158.67
438.157	7621.52
438.364	7766.92
438.571	7799.69
438.778	7725.96
438.985	8373.12
439.192	8094.6
439.399	8422.27
439.606	8248.19
439.813	8686.46
440.02	9169.78
440.227	9032.57
440.433	9018.23
440.64	9255.79
440.847	9268.08
441.054	9442.16
441.261	10224.48
441.467	9905
441.674	10173.28
441.881	10591.07
442.088	10402.66
442.294	10281.83
442.501	10808.16
442.708	10767.2
442.914	11197.27
443.121	11715.41
443.328	11535.18
443.534	12168.01
443.741	11869
443.948	11770.7
444.154	12520.26
444.361	12358.47
444.568	12684.09
444.774	12620.61
444.981	12778.3
445.187	13275.96
445.394	13757.23
445.6	13511.47
445.807	14975.77
446.013	13896.49
446.22	14252.84
446.426	14818.08
446.633	15321.88
446.839	15557.39
447.046	14904.09
447.252	15645.46
447.459	15614.74
447.665	15426.32
447.871	16364.29
448.078	17038.08
448.284	15915.79
448.491	16530.18
448.697	17195.77
448.903	17656.56
449.11	17808.11
449.316	17275.64
449.522	17765.1
449.728	18115.31
449.935	18342.63
450.141	18158.31
450.347	18578.15
450.553	17912.56
450.76	18332.39
450.966	19036.89
451.172	18539.24
451.378	19053.28
451.584	18885.34
451.791	19075.8
451.997	19024.61
452.203	19331.8
452.409	19368.66
452.615	19260.12
452.821	18510.57
453.027	18268.91
453.233	19309.27
453.44	18440.93
453.646	18825.95
453.852	18969.31
454.058	19133.15
454.264	18524.9
454.47	18729.7
454.676	18324.2
454.882	19118.81
455.088	17345.27
455.294	17869.55
455.5	17552.12
455.705	18127.6
455.911	17300.22
456.117	17187.58
456.323	16714.5
456.529	15782.67
456.735	16507.65
456.941	16132.87
457.147	15723.28
457.352	15717.14
457.558	14803.74
457.764	15223.58
457.97	14883.61
458.176	14498.59
458.381	14588.71
458.587	13833
458.793	13898.54
458.999	13146.94
459.204	14205.74
459.41	13607.73
459.616	12653.37
459.821	12559.17
460.027	12444.48
460.233	12540.74
460.438	11615.05
460.644	12045.13
460.85	11213.65
461.055	11367.25
461.261	11379.54
461.466	10660.7
461.672	10097.51
461.878	10650.46
462.083	10081.13
462.289	9937.77
462.494	9773.93
462.7	9126.77
462.905	9057.14
463.111	9345.91
463.316	9417.58
463.522	9304.95
463.727	9356.15
463.932	9235.32
464.138	9266.03
464.343	9048.95
464.549	8835.96
464.754	9231.22
464.959	9282.42
465.165	9012.09
465.37	8637.31
465.575	8407.94
465.781	8835.96
465.986	8967.03
466.191	8594.3
466.397	8465.28
466.602	7922.57
466.807	8217.47
467.012	8276.87
467.218	8117.12
467.423	8280.96
467.628	8242.05
467.833	8518.53
468.038	8229.76
468.244	8047.49
468.449	8237.95
468.654	8008.58
468.859	8061.83
469.064	7844.74
469.269	7560.08
469.474	7635.85
469.679	7871.37
469.885	7678.86
470.09	7656.33
470.295	7613.32
470.5	7517.07
470.705	7463.82
470.91	7410.57
471.115	7304.08
471.32	7402.38
471.525	7277.46
471.73	7125.91
471.935	7203.73
472.139	6853.53
472.344	6941.59
472.549	6974.36
472.754	6663.07
472.959	6828.95
473.164	6521.76
473.369	6611.87
473.574	6658.97
473.778	6646.68
473.983	6460.32
474.188	6415.26
474.393	6290.34
474.598	6382.49
474.802	6173.6
475.007	6222.75
475.212	6001.57
475.417	6007.72
475.621	5907.37
475.826	5786.54
476.031	5925.8
476.235	5716.9
476.44	5704.62
476.645	5606.31
476.849	5624.75
477.054	5710.76
477.259	5538.73
477.463	5581.74
477.668	5477.29
477.872	5561.26
478.077	5378.99
478.282	5231.54
478.486	5172.15
478.691	5315.5
478.895	5243.82
479.1	5041.08
479.304	5096.37
479.509	4946.87
479.713	5223.34
479.918	5067.7
480.122	4893.62
480.326	4860.85
480.531	4926.39
480.735	4828.09
480.94	4942.77
481.144	5073.84
481.348	4826.04
481.553	4953.01
481.757	4760.5
481.961	4762.55
482.166	4907.96
482.37	4987.83
482.574	4842.42
482.778	4862.9
482.983	4840.37
483.187	4733.88
483.391	4717.5
483.595	4705.21
483.8	4744.12
484.004	4871.09
484.208	4705.21
484.412	4637.63
484.616	4883.38
484.821	4899.77
485.025	4873.14
485.229	4780.98
485.433	4617.15
485.637	4895.67
485.841	4682.68
486.045	4731.83
486.249	4787.13
486.453	4920.24
486.657	4758.46
486.861	4795.32
487.065	4660.15
487.269	4649.91
487.473	4785.08
487.677	4764.6
487.881	4807.61
488.085	4752.31
488.289	4809.65
488.493	4744.12
488.697	4864.95
488.901	4838.33
489.105	4844.47
489.309	4826.04
489.512	4758.46
489.716	4737.98
489.92	4819.89
490.124	4828.09
490.328	4924.34
490.531	4813.75
490.735	4981.68
490.939	5137.33
491.143	4873.14
491.346	4971.44
491.55	4996.02
491.754	5028.79
491.958	4979.64
492.161	5030.84
492.365	5053.36
492.569	5100.47
492.772	5034.93
492.976	5049.27
493.18	5043.12
493.383	5311.41
493.587	5030.84
493.79	5118.9
493.994	5241.78
494.197	5166
494.401	5278.64
494.605	5311.41
494.808	5499.82
495.012	5510.06
495.215	5544.88
495.419	5342.13
495.622	5424.05
495.825	5542.83
496.029	5579.69
496.232	5739.43
496.436	5817.26
496.639	5807.02
496.843	5755.82
497.046	5917.61
497.249	6030.24
497.453	5979.04
497.656	6106.02
497.859	6173.6
498.063	6189.99
498.266	6253.47
498.469	6179.75
498.673	6319.01
498.876	6294.43
499.079	6437.79
499.282	6474.65
499.485	6429.6
499.689	6706.07
499.892	6755.22
500.095	6644.63
500.298	6982.55
500.501	6808.47
500.705	7035.8
500.908	7164.82
501.111	7048.08
501.314	7291.79
501.517	7463.82
501.72	7197.59
501.923	7455.63
502.126	7490.45
502.329	7654.28
502.532	7635.85
502.735	7730.06
502.938	7881.61
503.141	8078.21
503.344	8020.87
503.547	8055.69
503.75	8186.76
503.953	8332.16
504.156	8393.6
504.359	8504.19
504.562	8457.09
504.765	8702.84
504.968	8952.7
505.17	8981.37
505.373	8825.72
505.576	8934.26
505.779	9016.18
505.982	9276.27
506.185	9380.72
506.387	9378.67
506.59	9474.93
506.793	9739.12
506.996	9659.24
507.198	9954.15
507.401	9921.38
507.604	9960.3
507.807	10380.13
508.009	10097.51
508.212	10476.38
508.415	10449.76
508.617	10746.72
508.82	10566.49
509.022	10597.21
509.225	10949.46
509.428	10918.75
509.63	10945.37
509.833	11105.11
510.035	11404.11
510.238	11422.55
510.44	11656.01
510.643	11789.13
510.845	11828.04
511.048	11780.94
511.25	12036.94
511.453	11920.2
511.655	12489.54
511.858	12415.81
512.06	12780.35
512.262	12657.47
512.465	12909.37
512.667	13097.78
512.87	13200.18
513.072	12989.24
513.274	13570.86
513.477	13263.67
513.679	13525.81
513.881	13800.24
514.084	13867.82
514.286	13710.13
514.488	14058.28
514.69	14621.47
514.893	14275.37
515.095	14555.94
515.297	14697.25
515.499	14711.58
515.701	15041.31
515.904	15217.43
516.106	15272.73
516.308	15125.27
516.51	15782.67
516.712	15651.6
516.914	15616.79
517.116	15911.69
517.318	16030.48
517.52	16325.38
517.722	16491.27
517.925	16583.43
518.127	16984.83
518.329	16849.66
518.531	16702.21
518.733	17183.48
518.935	17363.7
519.136	17175.29
519.338	17734.39
519.54	17709.81
519.742	18025.2
519.944	17834.74
520.146	18473.7
520.348	18725.6
520.55	18596.58
520.752	18631.4
520.954	18916.06
521.155	19020.51
521.357	19342.04
521.559	19198.68
521.761	19604.18
521.963	19708.63
522.164	19745.49
522.366	19618.52
522.568	20196.04
522.77	20550.34
522.971	20339.4
523.173	20550.34
523.375	20789.95
523.576	20779.71
523.778	20861.63
523.98	21082.81
524.181	21187.26
524.383	21070.53
524.584	21578.42
524.786	21664.44
524.988	21750.45
525.189	21869.23
525.391	21936.82
525.592	22278.83
525.794	22493.86
525.995	22448.81
526.197	22633.13
526.398	22579.88
526.6	22995.62
526.801	22743.72
527.003	22782.63
527.204	22866.6
527.406	23159.45
527.607	23102.11
527.808	23675.54
528.01	23149.21
528.211	23341.72
528.412	24109.71
528.614	23689.88
528.815	23786.13
529.016	24191.63
529.218	23745.17
529.419	23923.35
529.62	23911.06
529.822	24009.36
530.023	24023.7
530.224	24119.95
530.425	24353.42
530.626	24033.94
530.828	24083.09
531.029	24855.17
531.23	24365.71
531.431	24179.34
531.632	24670.86
531.833	24703.62
532.035	24507.02
532.236	24742.53
532.437	24967.81
532.638	24570.51
532.839	24658.57
533.04	25031.3
533.241	24830.6
533.442	25123.46
533.643	24607.37
533.844	24912.52
534.045	25172.61
534.246	24818.31
534.447	25619.07
534.648	25287.29
534.849	24877.7
535.05	24900.23
535.251	24910.47
535.451	25057.92
535.652	25053.83
535.853	25145.98
536.054	25037.44
536.255	25275.01
536.456	24846.98
536.657	25381.5
536.857	24961.67
537.058	25332.35
537.259	25313.92
537.46	25229.95
537.66	25121.41
537.861	25350.78
538.062	25156.22
538.263	25350.78
538.463	25086.59
538.664	25240.19
538.865	25301.63
539.065	25401.98
539.266	24994.43
539.466	25379.45
539.667	25117.31
539.868	25518.71
540.068	25131.65
540.269	25123.46
540.469	25385.6
540.67	25463.42
540.87	25332.35
541.071	25221.76
541.271	25295.49
541.472	25277.05
541.672	25070.21
541.873	24695.43
542.073	25152.13
542.274	25184.9
542.474	25219.71
542.675	25176.7
542.875	25483.9
543.075	25311.87
543.276	24756.87
543.476	25399.93
543.676	24836.74
543.877	25096.83
544.077	24935.04
544.277	25039.49
544.478	24826.5
544.678	25215.62
544.878	25127.55
545.078	25279.1
545.279	24785.54
545.479	24830.6
545.679	25215.62
545.879	24943.24
546.079	25170.56
546.28	25131.65
546.48	24939.14
546.68	24924.8
546.88	25055.87
547.08	25412.22
547.28	25057.92
547.48	24986.24
547.68	25156.22
547.88	25014.91
548.081	25074.31
548.281	25000.58
548.481	25248.38
548.681	25383.55
548.881	24849.03
549.081	24953.48
549.28	24820.36
549.48	24814.21
549.68	24933
549.88	25270.91
550.08	24785.54
550.28	25109.12
550.48	25053.83
550.68	25033.35
550.88	24803.97
551.08	24924.8
551.279	24654.47
551.479	24711.81
551.679	24918.66
551.879	25027.2
552.079	24871.56
552.278	24711.81
552.478	25010.82
552.678	24844.93
552.878	24799.88
553.077	24947.33
553.277	24353.42
553.477	24910.47
553.676	24660.62
553.876	24930.95
554.076	24619.66
554.275	24697.48
554.475	24224.4
554.674	24621.7
554.874	25016.96
555.074	24345.23
555.273	24384.14
555.473	24951.43
555.672	24402.57
555.872	24621.7
556.071	24406.67
556.271	24498.83
556.47	24236.69
556.67	24136.34
556.869	24502.92
557.068	24205.97
557.268	23954.07
557.467	24044.18
557.667	24038.03
557.866	24203.92
558.065	24011.41
558.265	24248.97
558.464	23501.47
558.663	24113.81
558.863	23986.83
559.062	23945.87
559.261	23663.25
559.461	24181.39
559.66	23472.79
559.859	23732.89
560.058	23456.41
560.258	23827.09
560.457	23444.12
560.656	23298.72
560.855	23343.77
561.054	23700.12
561.253	23280.28
561.453	23143.07
561.652	23437.98
561.851	23468.7
562.05	23169.69
562.249	22784.68
562.448	23454.36
562.647	22915.75
562.846	22950.56
563.045	23251.61
563.244	22876.83
563.443	22526.63
563.642	22637.22
563.841	22928.03
564.04	22780.58
564.239	22880.93
564.438	22520.49
564.637	22340.27
564.836	22583.98
565.035	22282.92
565.234	22358.7
565.432	21961.39
565.631	22346.41
565.83	22420.14
566.029	22293.16
566.228	21877.43
566.427	22123.18
566.625	21799.6
566.824	21549.75
567.023	21895.86
567.222	21676.73
567.42	21811.89
567.619	21576.37
567.818	21684.92
568.016	21580.47
568.215	21607.09
568.414	21308.09
568.612	21453.5
568.811	21250.75
569.01	21500.6
569.208	20626.12
569.407	21220.03
569.605	20607.69
569.804	21222.08
570.002	20654.79
570.201	20810.43
570.4	20495.05
570.598	20259.53
570.797	20519.62
570.995	20509.38
571.193	20320.97
571.392	20363.98
571.59	20323.02
571.789	20427.46
571.987	20001.49
572.186	20044.49
572.384	20060.88
572.582	20198.09
572.781	20273.87
572.979	19575.51
573.177	19696.34
573.376	19974.86
573.574	19690.2
573.772	19493.59
573.971	19444.44
574.169	19309.27
574.367	19167.96
574.565	19321.56
574.763	19286.75
574.962	19190.49
575.16	19198.68
575.358	19090.14
575.556	18909.92
575.754	19075.8
575.952	18776.8
576.151	18995.93
576.349	18674.4
576.547	18752.23
576.745	18774.75
576.943	18627.3
577.141	18703.07
577.339	18733.79
577.537	18354.92
577.735	18451.17
577.933	18232.04
578.131	18367.21
578.329	18207.47
578.527	18043.63
578.725	18172.65
578.923	17916.65
579.121	17873.65
579.319	17855.22
579.516	17869.55
579.714	17967.85
579.912	17734.39
580.11	17928.94
580.308	17730.29
580.506	17631.99
580.704	17146.62
580.901	17298.17
581.099	17566.45
581.297	17314.55
581.495	17423.09
581.692	17277.69
581.89	17076.99
582.088	17412.85
582.285	17074.94
582.483	17449.72
582.681	17132.28
582.878	16978.68
583.076	16945.92
583.274	17009.4
583.471	16800.51
583.669	16532.23
583.866	16648.96
584.064	16603.91
584.262	16841.47
584.459	16861.95
584.657	16675.59
584.854	16683.78
585.052	16194.31
585.249	16515.84
585.447	16175.88
585.644	16481.03
585.841	16235.27
586.039	16536.32
586.236	16124.68
586.434	16382.73
586.631	16044.81
586.828	16104.2
587.026	15958.8
587.223	15776.53
587.42	15581.97
587.618	15928.08
587.815	15604.5
588.012	15768.34
588.21	15696.66
588.407	15782.67
588.604	15778.58
588.801	15346.45
588.999	15498
589.196	15270.68
589.393	15203.1
589.59	15176.47
589.787	15213.34
589.984	15186.71
590.182	14916.38
590.379	15199
590.576	15006.49
590.773	14856.99
590.97	14949.15
591.167	14848.8
591.364	14748.45
591.561	14801.69
591.758	14766.88
591.955	14670.62
592.152	14693.15
592.349	14641.95
592.546	14711.58
592.743	14713.63
592.94	14291.75
593.137	14562.08
593.334	14478.12
593.531	14310.18
593.727	14318.37
593.924	14369.57
594.121	14121.77
594.318	14328.61
594.515	14062.38
594.712	14195.5
594.908	14002.99
595.105	14252.84
595.302	13945.64
595.499	14099.24
595.696	13998.89
595.892	13781.81
596.089	14107.43
596.286	13980.46
596.482	13839.15
596.679	13912.88
596.876	13505.33
597.072	13626.16
597.269	13568.82
597.466	13536.05
597.662	13568.82
597.859	13427.51
598.055	13423.41
598.252	13148.98
598.448	13318.96
598.645	13284.15
598.841	13148.98
599.038	13398.84
599.234	13329.2
599.431	12985.15
599.627	12942.14
599.824	13175.61
600.02	13124.41
600.217	12868.41
600.413	12954.43
600.609	12827.45
600.806	12839.74
601.002	12927.8
601.198	12798.78
601.395	12620.61
601.591	12589.89
601.787	12692.29
601.984	12604.22
602.18	12694.33
602.376	12491.59
602.572	12202.82
602.769	12254.02
602.965	12194.63
603.161	12354.37
603.357	12297.03
603.553	12217.16
603.75	12200.77
603.946	12432.19
604.142	12329.8
604.338	12055.37
604.534	12122.95
604.73	11979.59
604.926	11971.4
605.122	11969.35
605.318	11768.65
605.514	11922.25
605.71	11744.08
605.906	11604.81
606.102	11731.79
606.298	11680.59
606.494	11707.21
606.69	11744.08
606.886	11643.73
607.082	11537.23
607.278	11520.85
607.474	11199.32
607.67	11426.64
607.866	11131.73
608.062	11711.31
608.257	11430.74
608.453	11377.49
608.649	11383.63
608.845	11203.41
609.041	11221.84
609.236	11373.39
609.432	11197.27
609.628	11127.64
609.824	11107.16
610.019	11166.55
610.215	11260.76
610.411	11039.58
610.606	11062.1
610.802	11080.53
610.998	11160.41
611.193	10933.08
611.389	11004.76
611.584	10949.46
611.78	10861.4
611.976	10793.82
612.171	10951.51
612.367	10828.63
612.562	10638.17
612.758	10644.32
612.953	10795.87
613.149	11002.71
613.344	10496.86
613.539	10716
613.735	10625.89
613.93	10566.49
614.126	10652.51
614.321	10830.68
614.517	10625.89
614.712	10488.67
614.907	10611.55
615.103	10629.98
615.298	10632.03
615.493	10746.72
615.688	10361.7
615.884	10437.47
616.079	10193.76
616.274	10318.69
616.47	10535.78
616.665	10322.79
616.86	10292.07
617.055	10292.07
617.25	10126.18
617.445	10382.18
617.641	9958.25
617.836	10226.53
618.031	10140.52
618.226	9950.06
618.421	10105.7
618.616	10273.64
618.811	10222.44
619.006	10064.74
619.201	10079.08
619.396	9859.95
619.591	9714.54
619.786	9870.19
619.981	9663.34
620.176	9900.9
620.371	9755.5
620.566	9507.69
620.761	9689.96
620.956	9737.07
621.151	9425.78
621.346	9679.72
621.541	9243.51
621.735	9462.64
621.93	9165.68
622.125	9327.47
622.32	9182.07
622.515	9466.74
622.709	9044.85
622.904	9343.86
623.099	9010.04
623.294	9036.66
623.488	8868.73
623.683	9120.63
623.878	8803.19
624.072	8735.61
624.267	8831.87
624.462	8627.07
624.656	8713.08
624.851	8795
625.046	8625.02
625.24	8555.39
625.435	8551.29
625.629	8379.26
625.824	8532.86
626.018	8244.1
626.213	8160.13
626.407	8373.12
626.602	8248.19
626.796	8074.12
626.991	8260.48
627.185	8203.14
627.38	8135.56
627.574	7848.84
627.768	7941
627.963	8127.36
628.157	7818.12
628.352	7873.42
628.546	7750.54
628.74	7685
628.935	7789.45
629.129	7615.37
629.323	7592.84
629.517	7625.61
629.712	7537.55
629.906	7654.28
630.1	7519.12
630.294	7429.01
630.489	7293.84
630.683	7500.69
630.877	7392.14
631.071	7263.12
631.265	7203.73
631.459	7283.6
631.653	7080.85
631.848	7183.25
632.042	7035.8
632.236	7203.73
632.43	7009.17
632.624	7011.22
632.818	6882.2
633.012	6861.72
633.206	6894.49
633.4	6876.06
633.594	6798.23
633.788	6890.39
633.982	6716.31
634.176	6865.82
634.369	6650.78
634.563	6820.76
634.757	6618.01
634.951	6552.48
635.145	6548.38
635.339	6587.29
635.533	6476.7
635.726	6429.6
635.92	6347.68
636.114	6388.64
636.308	6271.9
636.501	6253.47
636.695	6312.86
636.889	6230.94
637.083	6214.56
637.276	6296.48
637.47	6103.97
637.664	6069.16
637.857	6126.5
638.051	6106.02
638.244	6001.57
638.438	5977
638.632	5960.61
638.825	5655.47
639.019	5923.75
639.212	5788.58
639.406	5858.21
639.599	5706.66
639.793	5784.49
639.986	5632.94
640.18	5800.87
640.373	5714.86
640.567	5628.84
640.76	5544.88
640.954	5409.71
641.147	5542.83
641.34	5518.25
641.534	5530.54
641.727	5342.13
641.92	5301.17
642.114	5372.85
642.307	5458.86
642.5	5305.26
642.694	5282.74
642.887	5319.6
643.08	5467.05
643.273	5159.86
643.467	5186.48
643.66	5202.86
643.853	5186.48
644.046	5043.12
644.239	5012.4
644.432	5030.84
644.626	4973.49
644.819	4989.88
645.012	4893.62
645.205	4993.97
645.398	4811.7
645.591	5002.16
645.784	4918.2
645.977	4828.09
646.17	4803.51
646.363	4793.27
646.556	4623.29
646.749	4647.87
646.942	4598.71
647.135	4703.16
647.328	4649.91
647.521	4567.99
647.714	4393.92
647.907	4611
648.099	4565.95
648.292	4596.67
648.485	4473.79
648.678	4492.22
648.871	4465.6
649.064	4471.74
649.256	4363.2
649.449	4340.67
649.642	4352.96
649.835	4258.75
650.027	4166.59
650.22	4262.85
650.413	4273.09
650.605	4314.05
650.798	4326.33
650.991	4213.7
651.183	4144.06
651.376	4215.74
651.568	4115.39
651.761	4123.59
651.954	4096.96
652.146	4004.8
652.339	4060.1
652.531	4035.52
652.724	4078.53
652.916	3908.55
653.109	3949.51
653.301	4029.38
653.494	4076.48
653.686	3896.26
653.879	3916.74
654.071	3791.81
654.263	3701.7
654.456	3699.66
654.648	3824.58
654.84	3951.56
655.033	3879.88
655.225	3732.42
655.417	3744.71
655.61	3744.71
655.802	3670.98
655.994	3722.18
656.186	3662.79
656.379	3605.45
656.571	3691.46
656.763	3630.02
656.955	3668.94
657.148	3664.84
657.34	3609.54
657.532	3519.43
657.724	3599.31
657.916	3505.1
658.108	3494.86
658.3	3531.72
658.492	3386.32
658.684	3390.41
658.876	3423.18
659.068	3341.26
659.26	3292.11
659.452	3310.54
659.644	3453.9
659.836	3408.84
660.028	3324.88
660.22	3202
660.412	3290.06
660.604	3251.15
660.796	3218.38
660.988	3326.93
661.18	3156.94
661.372	3185.62
661.563	3193.81
661.755	3101.65
661.947	3120.08
662.139	3138.51
662.331	3095.5
662.522	3152.85
662.714	2962.39
662.906	3019.73
663.097	3052.5
663.289	3034.07
663.481	2970.58
663.673	3095.5
663.864	3027.92
664.056	2907.09
664.247	3044.31
664.439	2976.72
664.631	3042.26
664.822	2896.85
665.014	2798.55
665.205	2882.52
665.397	2816.98
665.588	2806.74
665.78	2677.72
665.971	2816.98
666.163	2876.37
666.354	2673.62
666.546	2808.79
666.737	2810.84
666.929	2886.61
667.12	2810.84
667.311	2773.97
667.503	2872.28
667.694	2859.99
667.885	2667.48
668.077	2620.38
668.268	2644.95
668.459	2651.1
668.651	2620.38
668.842	2636.76
669.033	2546.65
669.224	2687.96
669.416	2630.62
669.607	2542.55
669.798	2536.41
669.989	2581.46
670.18	2749.4
670.371	2667.48
670.563	2622.42
670.754	2597.85
670.945	2610.14
671.136	2499.55
671.327	2569.18
671.518	2647
671.709	2657.24
671.9	2663.38
672.091	2388.96
672.282	2425.82
672.473	2626.52
672.664	2624.47
672.855	2542.55
673.046	2595.8
673.237	2423.77
673.428	2429.91
673.619	2626.52
673.809	2456.54
674	2419.68
674.191	2423.77
674.382	2436.06
674.573	2534.36
674.764	2417.63
674.954	2401.24
675.145	2368.48
675.336	2466.78
675.527	2536.41
675.717	2438.11
675.908	2290.65
676.099	2356.19
676.289	2444.25
676.48	2307.04
676.671	2401.24
676.861	2388.96
677.052	2401.24
677.243	2261.98
677.433	2358.24
677.624	2368.48
677.814	2409.44
678.005	2329.56
678.195	2425.82
678.386	2456.54
678.576	2448.35
678.767	2253.79
678.957	2356.19
679.148	2368.48
679.338	2339.8
679.529	2356.19
679.719	2270.17
679.909	2309.08
680.1	2221.02
680.29	2300.89
680.481	2280.41
680.671	2313.18
680.861	2245.6
681.052	2440.15
681.242	2368.48
681.432	2376.67
681.622	2208.73
681.813	2335.71
682.003	2286.56
682.193	2317.28
682.383	2261.98
682.573	2335.71
682.764	2253.79
682.954	2239.45
683.144	2276.32
683.334	2466.78
683.524	2341.85
683.714	2288.61
683.904	2304.99
684.094	2393.05
684.284	2335.71
684.474	2386.91
684.664	2247.65
684.854	2270.17
685.044	2259.93
685.234	2171.87
685.424	2239.45
685.614	2192.35
685.804	2356.19
685.994	2200.54
686.184	2104.29
686.374	2159.58
686.564	2208.73
686.753	2243.55
686.943	2208.73
687.133	2149.34
687.323	2204.64
687.513	2290.65
687.702	2188.25
687.892	2130.91
688.082	2141.15
688.272	2288.61
688.461	2130.91
688.651	2044.9
688.841	2051.04
689.03	2135.01
689.22	2126.82
689.41	2143.2
689.599	2157.54
689.789	2175.97
689.979	2022.37
690.168	2102.24
690.358	2096.1
690.547	2003.94
690.737	2053.09
690.926	2069.47
691.116	2034.66
691.305	2137.06
691.495	1962.98
691.684	2094.05
691.874	2014.18
692.063	2030.56
692.252	2059.23
692.442	1868.77
692.631	1854.44
692.82	1975.27
693.01	1956.83
693.199	1934.31
693.388	1956.83
693.578	1829.86
693.767	1874.92
693.956	1870.82
694.146	1926.11
694.335	1903.59
694.524	1883.11
694.713	1999.84
694.902	1831.91
695.092	1926.11
695.281	1979.36
695.47	1946.59
695.659	1891.3
695.848	1881.06
696.037	1924.07
696.226	1780.71
696.415	1838.05
696.604	1936.35
696.793	1799.14
696.982	1917.92
697.171	1819.62
697.36	1930.21
697.549	1799.14
697.738	2012.13
697.927	1909.73
698.116	1829.86
698.305	1870.82
698.494	1907.68
698.683	1938.4
698.872	1948.64
699.061	1805.28
699.25	1915.87
699.438	1913.83
699.627	1854.44
699.816	1866.72
700.005	1942.5
700.193	1911.78
700.382	1793
700.571	1811.43
700.76	1934.31
700.948	1940.45
701.137	1993.7
701.326	1819.62
701.514	1831.91
701.703	1917.92
701.892	1887.2
702.08	1985.51
702.269	1893.35
702.457	1848.29
702.646	1811.43
702.834	1907.68
703.023	1889.25
703.212	1846.24
703.4	1864.68
703.589	1848.29
703.777	1864.68
703.965	1950.69
704.154	1991.65
704.342	1897.44
704.531	1936.35
704.719	1952.74
704.907	1917.92
705.096	1897.44
705.284	1909.73
705.472	1887.2
705.661	1950.69
705.849	1960.93
706.037	1965.03
706.226	1901.54
706.414	1883.11
706.602	1977.31
706.79	1987.55
706.979	1799.14
707.167	1936.35
707.355	1934.31
707.543	1840.1
707.731	1868.77
707.919	1895.4
708.107	1979.36
708.296	1919.97
708.484	1901.54
708.672	2020.32
708.86	1854.44
709.048	1919.97
709.236	1833.96
709.424	1905.63
709.612	1987.55
709.8	1971.17
709.988	1887.2
710.176	1895.4
710.364	2008.03
710.551	1876.96
710.739	1948.64
710.927	2005.99
711.115	1909.73
711.303	1958.88
711.491	1924.07
711.679	1962.98
711.866	1917.92
712.054	1848.29
712.242	1930.21
712.43	1911.78
712.617	1942.5
712.805	2018.27
712.993	1977.31
713.181	1862.63
713.368	1995.75
713.556	1991.65
713.744	1938.4
713.931	1993.7
714.119	1991.65
714.306	2026.47
714.494	2010.08
714.682	1971.17
714.869	1893.35
715.057	2020.32
715.244	1934.31
715.432	1975.27
715.619	1987.55
715.807	2092
715.994	1999.84
716.182	1922.02
716.369	2014.18
716.556	1895.4
716.744	1983.46
716.931	1891.3
717.119	1997.79
717.306	2053.09
717.493	2155.49
717.681	1991.65
717.868	2020.32
718.055	1997.79
718.242	2020.32
718.43	2034.66
718.617	2014.18
718.804	2030.56
718.991	1870.82
719.179	2034.66
719.366	1948.64
719.553	2073.57
719.74	2102.24
719.927	2085.86
720.114	1958.88
720.301	2048.99
720.488	2018.27
720.676	2102.24
720.863	1981.41
721.05	2061.28
721.237	2036.7
721.424	2028.51
721.611	2128.86
721.798	2161.63
721.985	2055.14
722.172	1952.74
722.358	1960.93
722.545	2159.58
722.732	1995.75
722.919	1965.03
723.106	1938.4
723.293	2098.14
723.48	2089.95
723.667	2089.95
723.853	2005.99
724.04	2016.23
724.227	2055.14
724.414	1922.02
724.6	2079.71
724.787	2042.85
724.974	1979.36
725.161	2038.75
725.347	2040.8
725.534	2120.67
725.72	2081.76
725.907	2204.64
726.094	2030.56
726.28	1926.11
726.467	1999.84
726.653	2036.7
726.84	2122.72
727.027	2077.66
727.213	2079.71
727.4	1948.64
727.586	2046.94
727.773	2108.38
727.959	2128.86
728.145	1967.07
728.332	2108.38
728.518	2100.19
728.705	1985.51
728.891	2055.14
729.077	1989.6
729.264	2069.47
729.45	2063.33
729.636	2014.18
729.823	2010.08
730.009	2075.62
730.195	2153.44
730.382	2112.48
730.568	2030.56
730.754	2012.13
730.94	1965.03
731.126	2157.54
731.313	2143.2
731.499	2046.94
731.685	2104.29
731.871	2034.66
732.057	2130.91
732.243	2251.74
732.429	2055.14
732.615	2141.15
732.801	2143.2
732.987	2067.42
733.173	1981.41
733.359	2008.03
733.545	1971.17
733.731	2092
733.917	2079.71
734.103	2067.42
734.289	2036.7
734.475	1975.27
734.661	2122.72
734.847	2116.58
735.033	2014.18
735.219	2077.66
735.404	2178.01
735.59	2042.85
735.776	2040.8
735.962	2108.38
736.148	2163.68
736.333	2132.96
736.519	2108.38
736.705	2010.08
736.89	1928.16
737.076	2116.58
737.262	2206.69
737.447	2073.57
737.633	1973.22
737.819	2040.8
738.004	2012.13
738.19	2024.42
738.375	2020.32
738.561	2139.1
738.747	2061.28
738.932	1967.07
739.118	2014.18
739.303	2001.89
739.489	2005.99
739.674	2087.9
739.859	2053.09
740.045	2092
740.23	2094.05
740.416	1999.84
740.601	2108.38
740.786	1928.16
740.972	1991.65
741.157	1934.31
741.342	2069.47
741.528	2016.23
741.713	2003.94
741.898	1993.7
742.084	1889.25
742.269	2018.27
742.454	1897.44
742.639	1823.72
742.824	2030.56
743.01	1895.4
743.195	1934.31
743.38	1938.4
743.565	1905.63
743.75	1971.17
743.935	1909.73
744.12	1940.45
744.305	1848.29
744.49	1801.19
744.675	1754.09
744.86	1790.95
745.045	1825.76
745.23	1805.28
745.415	1795.04
745.6	1854.44
745.785	1846.24
745.97	1782.76
746.155	1770.47
746.34	1840.1
746.525	1772.52
746.71	1776.61
746.895	1807.33
747.079	1786.85
747.264	1702.89
747.449	1717.22
747.634	1813.48
747.819	1721.32
748.003	1700.84
748.188	1670.12
748.373	1737.7
748.557	1690.6
748.742	1620.97
748.927	1686.5
749.111	1682.41
749.296	1672.17
749.481	1653.73
749.665	1590.25
749.85	1522.66
750.034	1627.11
750.219	1721.32
750.404	1539.05
750.588	1448.94
750.773	1561.58
750.957	1582.06
751.141	1565.67
751.326	1512.42
751.51	1450.99
751.695	1444.84
751.879	1487.85
752.064	1547.24
752.248	1457.13
752.432	1418.22
752.617	1383.4
752.801	1498.09
752.985	1436.65
753.17	1459.18
753.354	1410.03
753.538	1463.27
753.722	1389.55
753.907	1336.3
754.091	1326.06
754.275	1383.4
754.459	1412.07
754.643	1391.59
754.828	1326.06
755.012	1371.12
755.196	1197.04
755.38	1205.23
755.564	1461.23
755.748	1301.48
755.932	1291.24
756.116	1238
756.3	1332.2
756.484	1321.96
756.668	1205.23
756.852	1229.81
757.036	1188.85
757.22	1145.84
757.404	1244.14
757.588	1065.97
757.772	1194.99
757.956	1192.94
758.14	1080.3
758.323	1221.61
758.507	1217.52
758.691	1123.31
758.875	1213.42
759.059	1022.96
759.242	1119.21
759.426	1121.26
759.61	1113.07
759.794	1092.59
759.977	1053.68
760.161	1106.93
760.345	1082.35
760.528	1147.89
760.712	1133.55
760.895	1207.28
761.079	1092.59
761.263	1063.92
761.446	977.91
761.63	1027.06
761.813	1139.69
761.997	1020.91
762.18	1016.82
762.364	1131.5
762.547	932.85
762.731	971.76
762.914	941.04
763.098	984.05
763.281	965.62
763.464	953.33
763.648	1000.43
763.831	969.71
764.015	1018.86
764.198	994.29
764.381	945.14
764.564	1004.53
764.748	982
764.931	941.04
765.114	930.8
765.297	869.36
765.481	928.75
765.664	1004.53
765.847	984.05
766.03	1035.25
766.213	887.79
766.397	975.86
766.58	914.42
766.763	945.14
766.946	893.94
767.129	895.99
767.312	994.29
767.495	938.99
767.678	814.07
767.861	850.93
768.044	908.27
768.227	826.36
768.41	852.98
768.593	912.37
768.776	852.98
768.959	938.99
769.142	938.99
769.324	836.6
769.507	906.23
769.69	830.45
769.873	809.97
770.056	807.92
770.239	820.21
770.421	795.64
770.604	807.92
770.787	773.11
770.97	830.45
771.152	769.01
771.335	787.44
771.518	807.92
771.7	865.27
771.883	852.98
772.066	740.34
772.248	775.16
772.431	809.97
772.613	824.31
772.796	840.69
772.978	801.78
773.161	719.86
773.343	752.63
773.526	754.68
773.708	674.81
773.891	783.35
774.073	740.34
774.256	742.39
774.438	773.11
774.621	695.29
774.803	721.91
774.985	742.39
775.168	748.53
775.35	885.75
775.532	766.96
775.715	678.9
775.897	668.66
776.079	689.14
776.261	668.66
776.444	676.85
776.626	660.47
776.808	639.99
776.99	670.71
777.173	713.72
777.355	631.8
777.537	635.89
777.719	603.13
777.901	562.17
778.083	639.99
778.265	631.8
778.447	596.98
778.629	572.41
778.811	592.89
778.993	662.52
779.175	558.07
779.357	545.78
779.539	547.83
779.721	529.4
779.903	572.41
780.085	562.17
780.267	510.97
780.449	639.99
780.631	545.78
780.812	541.69
780.994	541.69
781.176	527.35
781.358	547.83
781.54	531.45
781.721	539.64
781.903	482.3
782.085	494.58
782.267	519.16
782.448	490.49
782.63	508.92
782.812	496.63
782.993	467.96
783.175	447.48
783.357	463.86
783.538	504.82
783.72	523.26
783.901	453.63
784.083	443.39
784.264	498.68
784.446	443.39
784.627	349.18
784.809	474.1
784.99	443.39
785.172	465.91
785.353	418.81
785.535	488.44
785.716	386.04
785.897	336.89
786.079	433.15
786.26	455.67
786.441	449.53
786.623	396.28
786.804	383.99
786.985	347.13
787.167	406.52
787.348	394.23
787.529	412.67
787.71	459.77
787.891	394.23
788.073	314.36
788.254	427
788.435	422.91
788.616	357.37
788.797	345.08
788.978	295.93
789.159	306.17
789.34	406.52
789.522	343.03
789.703	343.03
789.884	394.23
790.065	383.99
790.246	441.34
790.427	361.47
790.607	326.65
790.788	312.32
790.969	281.6
791.15	396.28
791.331	254.97
791.512	308.22
791.693	306.17
791.874	316.41
792.054	416.76
792.235	357.37
792.416	322.56
792.597	263.16
792.778	281.6
792.958	347.13
793.139	275.45
793.32	345.08
793.5	314.36
793.681	314.36
793.862	318.46
794.042	285.69
794.223	279.55
794.404	336.89
794.584	287.74
794.765	316.41
794.945	254.97
795.126	355.32
795.306	271.36
795.487	328.7
795.667	214.01
795.848	263.16
796.028	291.84
796.209	324.6
796.389	318.46
796.57	289.79
796.75	246.78
796.93	287.74
797.111	279.55
797.291	166.91
797.471	224.25
797.652	291.84
797.832	244.73
798.012	218.11
798.192	199.68
798.373	244.73
798.553	277.5
798.733	205.82
798.913	128
799.093	267.26
799.274	164.86
799.454	263.16
799.634	173.05
799.814	254.97
799.994	263.16
800.174	152.57
800.354	318.46
800.534	224.25
800.714	222.2
800.894	248.83
801.074	152.57
801.254	267.26
801.434	242.68
801.614	185.34
801.794	214.01
801.974	558.07
802.154	207.87
802.334	218.11
802.514	132.09
802.693	297.98
802.873	156.67
803.053	277.5
803.233	214.01
803.413	234.49
803.592	248.83
803.772	246.78
803.952	189.44
804.131	195.58
804.311	177.15
804.491	209.92
804.67	236.54
804.85	246.78
805.03	228.35
805.209	125.95
805.389	164.86
805.568	224.25
805.748	189.44
805.928	222.2
806.107	191.49
806.287	279.55
806.466	222.2
806.646	218.11
806.825	152.57
807.004	80.89
807.184	144.38
807.363	230.4
807.543	156.67
807.722	183.29
807.901	222.2
808.081	207.87
808.26	154.62
808.439	168.96
808.619	171.01
808.798	152.57
808.977	277.5
809.156	138.24
809.336	234.49
809.515	175.1
809.694	166.91
809.873	121.85
810.052	154.62
810.231	218.11
810.411	201.72
810.59	207.87
810.769	78.85
810.948	254.97
811.127	121.85
811.306	191.49
811.485	195.58
811.664	144.38
811.843	134.14
812.022	164.86
812.201	91.13
812.38	179.2
812.559	70.65
812.737	146.43
812.916	87.04
813.095	109.57
813.274	168.96
813.453	95.23
813.632	125.95
813.811	144.38
813.989	168.96
814.168	134.14
814.347	128
814.526	185.34
814.704	97.28
814.883	220.16
815.062	89.09
815.24	156.67
815.419	121.85
815.598	214.01
815.776	107.52
815.955	121.85
816.133	103.42
816.312	119.81
816.49	132.09
816.669	173.05
816.847	99.33
817.026	125.95
817.204	93.18
817.383	84.99
817.561	125.95
817.74	156.67
817.918	97.28
818.097	105.47
818.275	89.09
818.453	99.33
818.632	93.18
818.81	156.67
818.988	142.33
819.167	166.91
819.345	80.89
819.523	136.19
819.701	87.04
819.879	160.77
820.058	115.71
820.236	82.94
820.414	125.95
820.592	99.33
820.77	140.29
820.948	123.9
821.127	82.94
821.305	113.66
821.483	197.63
821.661	105.47
821.839	111.61
822.017	44.03
822.195	56.32
822.373	95.23
822.551	177.15
822.729	117.76
822.907	103.42
823.085	183.29
823.262	171.01
823.44	140.29
823.618	117.76
823.796	89.09
823.974	123.9
824.152	13.31
824.329	52.22
824.507	132.09
824.685	101.37
824.863	23.55
825.04	95.23
825.218	103.42
825.396	152.57
825.574	97.28
825.751	109.57
825.929	87.04
826.107	62.46
826.284	76.8
826.462	101.37
826.639	66.56
826.817	13.31
826.994	113.66
827.172	60.42
827.349	21.5
827.527	99.33
827.704	76.8
827.882	35.84
828.059	72.7
828.237	52.22
828.414	74.75
828.591	7.17
828.769	177.15
828.946	66.56
829.124	121.85
829.301	123.9
829.478	142.33
829.655	101.37
829.833	74.75
830.01	64.51
830.187	130.05
830.364	41.98
830.542	123.9
830.719	111.61
830.896	128
831.073	82.94
831.25	111.61
831.427	72.7
831.604	107.52
831.782	33.79
831.959	84.99
832.136	-3.07
832.313	54.27
832.49	62.46
832.667	37.89
832.844	144.38
833.021	146.43
833.198	11.26
833.374	148.48
833.551	134.14
833.728	-1.02
833.905	109.57
834.082	62.46
834.259	39.94
834.436	84.99
834.612	74.75
834.789	64.51
834.966	46.08
835.143	60.42
835.319	84.99
835.496	87.04
835.673	146.43
835.85	62.46
836.026	91.13
836.203	132.09
836.38	31.74
836.556	41.98
836.733	33.79
836.909	29.7
837.086	62.46
837.262	17.41
837.439	21.5
837.616	1.02
837.792	134.14
837.968	74.75
838.145	13.31
838.321	46.08
838.498	25.6
838.674	25.6
838.851	109.57
839.027	103.42
839.203	46.08
839.38	54.27
839.556	60.42
839.732	105.47
839.909	50.18
840.085	89.09
840.261	35.84
840.437	70.65
840.614	44.03
840.79	111.61
840.966	52.22
841.142	113.66
841.318	25.6
841.494	48.13
841.671	13.31
841.847	52.22
842.023	93.18
842.199	66.56
842.375	-15.36
842.551	39.94
842.727	-17.41
842.903	27.65
843.079	17.41
843.255	121.85
843.431	93.18
843.607	191.49
843.783	29.7
843.959	-11.26
844.134	11.26
844.31	78.85
844.486	-1.02
844.662	46.08
844.838	23.55
845.013	29.7
845.189	89.09
845.365	17.41
845.541	1.02
845.716	105.47
845.892	56.32
846.068	37.89
846.244	-39.94
846.419	58.37
846.595	44.03
846.77	44.03
846.946	-29.7
847.122	37.89
847.297	119.81
847.473	74.75
847.648	13.31
847.824	95.23
847.999	13.31
848.175	3.07
848.35	37.89
848.526	50.18
848.701	31.74
848.876	27.65
849.052	29.7
849.227	-39.94
849.403	44.03
849.578	13.31
849.753	13.31
849.929	33.79
850.104	41.98
850.279	44.03
850.454	82.94
850.63	93.18
850.805	82.94
850.98	48.13
851.155	54.27
851.33	-1.02
851.505	70.65
851.681	50.18
851.856	60.42
852.031	54.27
852.206	95.23
852.381	19.46
852.556	37.89
852.731	41.98
852.906	-37.89
853.081	130.05
853.256	35.84
853.431	27.65
853.606	54.27
853.781	17.41
853.956	70.65
854.131	76.8
854.305	-11.26
854.48	-31.74
854.655	3.07
854.83	84.99
855.005	37.89
855.18	3.07
855.354	9.22
855.529	109.57
855.704	44.03
855.879	37.89
856.053	60.42
856.228	-62.46
856.403	56.32
856.577	109.57
856.752	31.74
856.926	1.02
857.101	15.36
857.276	99.33
857.45	13.31
857.625	76.8
857.799	64.51
857.974	17.41
858.148	27.65
858.323	46.08
858.497	89.09
858.672	15.36
858.846	-1.02
859.02	17.41
859.195	-3.07
859.369	48.13
859.543	27.65
859.718	35.84
859.892	54.27
860.066	46.08
860.241	-25.6
860.415	-3.07
860.589	-9.22
860.763	23.55
860.938	-11.26
861.112	48.13
861.286	54.27
861.46	44.03
861.634	-46.08
861.808	-1.02
861.982	-23.55
862.157	5.12
862.331	46.08
862.505	46.08
862.679	-80.89
862.853	-48.13
863.027	52.22
863.201	-3.07
863.375	-15.36
863.549	58.37
863.722	-5.12
863.896	58.37
864.07	-5.12
864.244	-7.17
864.418	9.22
864.592	-1.02
864.766	-23.55
864.939	60.42
865.113	-54.27
865.287	-11.26
865.461	-21.5
865.634	-7.17
865.808	9.22
865.982	3.07
866.156	50.18
866.329	68.61
866.503	-27.65
866.676	-19.46
866.85	1.02
867.024	50.18
867.197	33.79
867.371	9.22
867.544	21.5
867.718	1.02
867.891	37.89
868.065	11.26
868.238	27.65
868.412	62.46
868.585	-17.41
868.759	103.42
868.932	3.07
869.105	54.27
869.279	46.08
869.452	33.79
869.625	1.02
869.799	50.18
869.972	-48.13
870.145	-50.18
870.319	-1.02
870.492	-50.18
870.665	-7.17
870.838	-9.22
871.011	-3.07
871.185	-46.08
871.358	15.36
871.531	23.55
871.704	13.31
871.877	15.36
872.05	-25.6
872.223	-41.98
872.396	46.08
872.569	3.07
872.742	1.02
872.915	-11.26
873.088	-39.94
873.261	78.85
873.434	-56.32
873.607	-3.07
873.78	78.85
873.953	-17.41
874.126	5.12
874.299	21.5
874.471	-23.55
874.644	3.07
874.817	62.46
874.99	103.42
875.163	-41.98
875.335	-5.12
875.508	-25.6
875.681	21.5
875.853	41.98
876.026	-11.26
876.199	-17.41
876.371	9.22
876.544	5.12
876.717	-5.12
876.889	31.74
877.062	33.79
877.234	-87.04
877.407	-5.12
877.579	-54.27
877.752	33.79
877.924	82.94
878.097	1.02
878.269	-27.65
878.442	-39.94
878.614	46.08
878.786	31.74
878.959	54.27
879.131	29.7
879.303	-11.26
879.476	21.5
879.648	-93.18
879.82	-3.07
879.993	-33.79
880.165	-9.22
880.337	-46.08
880.509	78.85
880.681	7.17
880.854	33.79
881.026	-39.94
881.198	35.84
881.37	-37.89
881.542	-7.17
881.714	29.7
881.886	-9.22
882.058	52.22
882.23	-25.6
882.402	-5.12
882.574	13.31
882.746	5.12
882.918	66.56
883.09	62.46
883.262	19.46
883.434	27.65
883.606	-29.7
883.778	-13.31
883.95	33.79
884.122	-11.26
884.293	-29.7
884.465	-13.31
884.637	-31.74
884.809	91.13
884.98	3.07
885.152	44.03
885.324	25.6
885.496	35.84
885.667	7.17
885.839	35.84
886.011	105.47
886.182	9.22
886.354	87.04
886.525	46.08
886.697	21.5
886.869	-52.22
887.04	-68.61
887.212	5.12
887.383	46.08
887.555	-21.5
887.726	17.41
887.897	-19.46
888.069	-21.5
888.24	-56.32
888.412	-11.26
888.583	-9.22
888.754	-76.8
888.926	-39.94
889.097	27.65
889.268	-25.6
889.44	13.31
889.611	41.98
889.782	13.31
889.953	-5.12
890.125	41.98
890.296	-1.02
890.467	-1.02
890.638	23.55
890.809	62.46
890.98	-11.26
891.151	19.46
891.323	-17.41
891.494	35.84
891.665	39.94
891.836	27.65
892.007	-13.31
892.178	-29.7
892.349	35.84
892.52	13.31
892.691	15.36
892.862	-1.02
893.032	-70.65
893.203	41.98
893.374	-31.74
893.545	-29.7
893.716	3.07
893.887	15.36
894.057	66.56
894.228	39.94
894.399	-74.75
894.57	62.46
894.74	60.42
894.911	-31.74
895.082	15.36
895.253	-31.74
895.423	27.65
895.594	37.89
895.764	-7.17
895.935	-39.94
896.106	70.65
896.276	19.46
896.447	13.31
896.617	62.46
896.788	-29.7
896.958	-52.22
897.129	-46.08
897.299	-5.12
897.47	27.65
897.64	54.27
897.81	7.17
897.981	54.27
898.151	-48.13
898.322	-72.7
898.492	48.13
898.662	-58.37
898.832	-52.22
899.003	37.89
899.173	-7.17
899.343	7.17
899.513	-19.46
