Data from USB4F104151__276__11-12-15-965.txt Node

Date: Wed Mar 12 11:12:15 EDT 2025
User: louis
Spectrometer: USB4F10415
Trigger mode: 4
Integration Time (sec): 2.000000E-2
Scans to average: 1
Electric dark correction enabled: true
Nonlinearity correction enabled: false
Boxcar width: 0
XAxis mode: Wavelengths
Number of Pixels in Spectrum: 3648
>>>>>Begin Spectral Data<<<<<
178.204	-77.99
178.424	-77.99
178.644	-77.99
178.864	-102.57
179.084	-57.51
179.304	-30.89
179.524	-6.31
179.744	-2.22
179.964	-24.75
180.184	53.08
180.404	14.17
180.624	55.12
180.844	1.88
181.064	-75.95
181.283	40.79
181.503	-53.42
181.723	28.5
181.943	-4.27
182.163	87.89
182.383	-32.94
182.602	-2.22
182.822	53.08
183.042	40.79
183.262	44.88
183.482	18.26
183.701	57.17
183.921	32.6
184.141	-28.84
184.361	5.97
184.58	26.45
184.8	30.55
185.02	32.6
185.239	83.8
185.459	28.5
185.679	28.5
185.898	-32.94
186.118	40.79
186.338	53.08
186.557	63.32
186.777	-2.22
186.997	87.89
187.216	-24.75
187.436	46.93
187.655	-18.6
187.875	-14.51
188.095	-10.41
188.314	67.41
188.534	3.93
188.753	63.32
188.973	89.94
189.192	85.84
189.412	75.6
189.631	-0.17
189.851	-14.51
190.07	87.89
190.29	-32.94
190.509	28.5
190.729	24.4
190.948	75.6
191.168	149.33
191.387	63.32
191.607	-14.51
191.826	18.26
192.045	32.6
192.265	3.93
192.484	36.69
192.704	59.22
192.923	-4.27
193.142	12.12
193.362	-12.46
193.581	59.22
193.8	-2.22
194.02	26.45
194.239	1.88
194.458	32.6
194.678	-20.65
194.897	-65.71
195.116	-4.27
195.335	38.74
195.555	26.45
195.774	-41.13
195.993	34.64
196.212	128.85
196.432	-37.03
196.651	42.84
196.87	-4.27
197.089	24.4
197.308	-28.84
197.528	89.94
197.747	8.02
197.966	57.17
198.185	38.74
198.404	42.84
198.623	53.08
198.842	65.36
199.062	57.17
199.281	34.64
199.5	-6.31
199.719	104.28
199.938	-0.17
200.157	26.45
200.376	42.84
200.595	-16.55
200.814	155.47
201.033	22.36
201.252	-57.51
201.471	3.93
201.69	8.02
201.909	55.12
202.128	87.89
202.347	28.5
202.566	48.98
202.785	18.26
203.004	-10.41
203.223	77.65
203.442	-67.75
203.661	36.69
203.879	-8.36
204.098	53.08
204.317	-26.79
204.536	40.79
204.755	57.17
204.974	16.21
205.193	91.99
205.411	75.6
205.63	-51.37
205.849	59.22
206.068	42.84
206.287	42.84
206.505	44.88
206.724	83.8
206.943	14.17
207.162	-4.27
207.381	44.88
207.599	59.22
207.818	-16.55
208.037	34.64
208.255	-18.6
208.474	3.93
208.693	-28.84
208.911	34.64
209.13	-4.27
209.349	-49.32
209.567	42.84
209.786	-26.79
210.005	-0.17
210.223	44.88
210.442	-6.31
210.661	38.74
210.879	53.08
211.098	20.31
211.316	-57.51
211.535	12.12
211.753	77.65
211.972	59.22
212.191	3.93
212.409	16.21
212.628	-24.75
212.846	48.98
213.065	18.26
213.283	69.46
213.502	36.69
213.72	32.6
213.938	-2.22
214.157	42.84
214.375	-0.17
214.594	-43.18
214.812	24.4
215.031	20.31
215.249	-10.41
215.467	-34.99
215.686	40.79
215.904	28.5
216.122	44.88
216.341	32.6
216.559	12.12
216.778	-10.41
216.996	12.12
217.214	12.12
217.432	79.7
217.651	-53.42
217.869	-10.41
218.087	20.31
218.306	-10.41
218.524	20.31
218.742	-2.22
218.96	32.6
219.179	32.6
219.397	63.32
219.615	-18.6
219.833	5.97
220.051	-22.7
220.27	-8.36
220.488	79.7
220.706	3.93
220.924	-2.22
221.142	151.38
221.36	16.21
221.578	20.31
221.796	53.08
222.015	-16.55
222.233	10.07
222.451	81.75
222.669	79.7
222.887	65.36
223.105	20.31
223.323	26.45
223.541	16.21
223.759	-0.17
223.977	1.88
224.195	12.12
224.413	44.88
224.631	-47.27
224.849	10.07
225.067	71.51
225.285	32.6
225.503	61.27
225.721	-10.41
225.939	67.41
226.157	48.98
226.375	38.74
226.592	40.79
226.81	34.64
227.028	55.12
227.246	75.6
227.464	28.5
227.682	48.98
227.9	5.97
228.117	22.36
228.335	12.12
228.553	-4.27
228.771	69.46
228.989	85.84
229.206	73.56
229.424	-0.17
229.642	69.46
229.86	-8.36
230.077	69.46
230.295	83.8
230.513	57.17
230.731	-75.95
230.948	73.56
231.166	69.46
231.384	12.12
231.601	20.31
231.819	98.13
232.037	-34.99
232.254	-8.36
232.472	-12.46
232.689	-12.46
232.907	-16.55
233.125	12.12
233.342	28.5
233.56	-22.7
233.777	91.99
233.995	36.69
234.213	81.75
234.43	5.97
234.648	42.84
234.865	24.4
235.083	-43.18
235.3	-2.22
235.518	3.93
235.735	67.41
235.953	-4.27
236.17	3.93
236.388	26.45
236.605	16.21
236.822	44.88
237.04	83.8
237.257	85.84
237.475	-6.31
237.692	73.56
237.909	77.65
238.127	-24.75
238.344	85.84
238.562	22.36
238.779	-43.18
238.996	18.26
239.214	26.45
239.431	124.76
239.648	12.12
239.865	42.84
240.083	-59.56
240.3	38.74
240.517	46.93
240.735	44.88
240.952	18.26
241.169	16.21
241.386	57.17
241.603	63.32
241.821	-4.27
242.038	10.07
242.255	28.5
242.472	40.79
242.689	40.79
242.907	96.08
243.124	48.98
243.341	1.88
243.558	32.6
243.775	-16.55
243.992	42.84
244.209	16.21
244.426	42.84
244.643	16.21
244.86	8.02
245.078	40.79
245.295	-47.27
245.512	12.12
245.729	28.5
245.946	40.79
246.163	38.74
246.38	40.79
246.597	36.69
246.814	87.89
247.031	59.22
247.248	55.12
247.464	61.27
247.681	57.17
247.898	89.94
248.115	98.13
248.332	-32.94
248.549	71.51
248.766	20.31
248.983	61.27
249.2	40.79
249.417	16.21
249.633	18.26
249.85	55.12
250.067	30.55
250.284	63.32
250.501	42.84
250.717	22.36
250.934	14.17
251.151	48.98
251.368	-20.65
251.585	14.17
251.801	20.31
252.018	51.03
252.235	38.74
252.451	8.02
252.668	3.93
252.885	5.97
253.102	69.46
253.318	36.69
253.535	67.41
253.752	83.8
253.968	-24.75
254.185	-0.17
254.401	22.36
254.618	14.17
254.835	-39.08
255.051	1.88
255.268	28.5
255.484	20.31
255.701	16.21
255.917	1.88
256.134	20.31
256.351	-24.75
256.567	96.08
256.784	24.4
257	-10.41
257.217	-2.22
257.433	16.21
257.65	42.84
257.866	-10.41
258.082	63.32
258.299	-53.42
258.515	61.27
258.732	51.03
258.948	-37.03
259.165	-2.22
259.381	-2.22
259.597	-28.84
259.814	16.21
260.03	20.31
260.246	-30.89
260.463	91.99
260.679	26.45
260.895	-12.46
261.112	22.36
261.328	8.02
261.544	8.02
261.761	100.18
261.977	-16.55
262.193	36.69
262.409	1.88
262.626	18.26
262.842	34.64
263.058	-69.8
263.274	22.36
263.49	53.08
263.707	98.13
263.923	44.88
264.139	-8.36
264.355	36.69
264.571	53.08
264.787	81.75
265.004	14.17
265.22	-8.36
265.436	65.36
265.652	-22.7
265.868	26.45
266.084	16.21
266.3	28.5
266.516	30.55
266.732	-0.17
266.948	20.31
267.164	53.08
267.38	16.21
267.596	26.45
267.812	24.4
268.028	-12.46
268.244	-14.51
268.46	18.26
268.676	3.93
268.892	61.27
269.108	22.36
269.324	8.02
269.54	-12.46
269.756	24.4
269.972	-28.84
270.188	44.88
270.403	36.69
270.619	57.17
270.835	73.56
271.051	108.37
271.267	-12.46
271.483	32.6
271.698	20.31
271.914	128.85
272.13	32.6
272.346	73.56
272.562	3.93
272.777	55.12
272.993	-22.7
273.209	8.02
273.425	55.12
273.64	36.69
273.856	20.31
274.072	-57.51
274.287	28.5
274.503	77.65
274.719	34.64
274.934	42.84
275.15	-69.8
275.366	-37.03
275.581	10.07
275.797	-30.89
276.012	32.6
276.228	-4.27
276.444	-43.18
276.659	69.46
276.875	22.36
277.09	69.46
277.306	-6.31
277.521	55.12
277.737	-12.46
277.952	18.26
278.168	-16.55
278.383	28.5
278.599	22.36
278.814	20.31
279.03	24.4
279.245	3.93
279.461	12.12
279.676	24.4
279.892	-20.65
280.107	65.36
280.322	3.93
280.538	38.74
280.753	5.97
280.969	24.4
281.184	-37.03
281.399	65.36
281.615	42.84
281.83	42.84
282.045	-45.23
282.26	-28.84
282.476	-20.65
282.691	30.55
282.906	36.69
283.122	-4.27
283.337	59.22
283.552	61.27
283.767	8.02
283.983	8.02
284.198	48.98
284.413	20.31
284.628	75.6
284.843	-4.27
285.058	61.27
285.274	96.08
285.489	1.88
285.704	67.41
285.919	-30.89
286.134	3.93
286.349	32.6
286.564	116.56
286.779	-26.79
286.995	63.32
287.21	-77.99
287.425	38.74
287.64	38.74
287.855	26.45
288.07	-8.36
288.285	48.98
288.5	67.41
288.715	-0.17
288.93	10.07
289.145	48.98
289.36	-12.46
289.575	67.41
289.79	8.02
290.004	106.32
290.219	77.65
290.434	89.94
290.649	-20.65
290.864	1.88
291.079	28.5
291.294	-43.18
291.509	73.56
291.724	38.74
291.938	48.98
292.153	36.69
292.368	-8.36
292.583	67.41
292.798	40.79
293.012	79.7
293.227	18.26
293.442	44.88
293.657	83.8
293.871	126.8
294.086	55.12
294.301	61.27
294.516	24.4
294.73	120.66
294.945	-32.94
295.16	173.91
295.374	98.13
295.589	40.79
295.804	-18.6
296.018	8.02
296.233	53.08
296.447	12.12
296.662	36.69
296.877	48.98
297.091	-28.84
297.306	73.56
297.52	12.12
297.735	40.79
297.949	53.08
298.164	89.94
298.378	26.45
298.593	12.12
298.807	8.02
299.022	-0.17
299.236	16.21
299.451	53.08
299.665	-16.55
299.88	16.21
300.094	83.8
300.309	38.74
300.523	71.51
300.737	28.5
300.952	24.4
301.166	38.74
301.381	-28.84
301.595	36.69
301.809	42.84
302.024	22.36
302.238	-24.75
302.452	-65.71
302.667	22.36
302.881	69.46
303.095	85.84
303.309	34.64
303.524	-10.41
303.738	59.22
303.952	-39.08
304.166	143.19
304.381	-49.32
304.595	57.17
304.809	-18.6
305.023	5.97
305.237	8.02
305.452	71.51
305.666	12.12
305.88	-0.17
306.094	48.98
306.308	8.02
306.522	59.22
306.736	87.89
306.95	73.56
307.164	16.21
307.379	77.65
307.593	106.32
307.807	1.88
308.021	83.8
308.235	18.26
308.449	-12.46
308.663	10.07
308.877	106.32
309.091	14.17
309.305	18.26
309.519	-16.55
309.733	40.79
309.947	22.36
310.161	16.21
310.374	87.89
310.588	10.07
310.802	-63.66
311.016	59.22
311.23	63.32
311.444	-12.46
311.658	14.17
311.872	75.6
312.085	26.45
312.299	71.51
312.513	96.08
312.727	42.84
312.941	-4.27
313.154	61.27
313.368	46.93
313.582	20.31
313.796	96.08
314.009	-18.6
314.223	36.69
314.437	24.4
314.651	73.56
314.864	42.84
315.078	48.98
315.292	67.41
315.505	28.5
315.719	3.93
315.933	34.64
316.146	-45.23
316.36	34.64
316.573	16.21
316.787	81.75
317.001	18.26
317.214	83.8
317.428	30.55
317.641	63.32
317.855	26.45
318.068	75.6
318.282	53.08
318.495	102.23
318.709	12.12
318.922	51.03
319.136	22.36
319.349	-2.22
319.563	75.6
319.776	20.31
319.99	100.18
320.203	38.74
320.417	-8.36
320.63	71.51
320.843	32.6
321.057	73.56
321.27	28.5
321.483	91.99
321.697	100.18
321.91	67.41
322.124	51.03
322.337	61.27
322.55	77.65
322.763	40.79
322.977	20.31
323.19	24.4
323.403	22.36
323.617	85.84
323.83	83.8
324.043	38.74
324.256	91.99
324.469	-24.75
324.683	73.56
324.896	48.98
325.109	40.79
325.322	18.26
325.535	77.65
325.748	12.12
325.962	32.6
326.175	10.07
326.388	22.36
326.601	38.74
326.814	-10.41
327.027	24.4
327.24	73.56
327.453	40.79
327.666	26.45
327.879	81.75
328.092	81.75
328.305	10.07
328.518	22.36
328.731	53.08
328.944	91.99
329.157	104.28
329.37	44.88
329.583	167.76
329.796	61.27
330.009	-28.84
330.222	12.12
330.435	110.42
330.648	53.08
330.861	16.21
331.073	85.84
331.286	14.17
331.499	61.27
331.712	51.03
331.925	108.37
332.138	12.12
332.35	3.93
332.563	48.98
332.776	-0.17
332.989	12.12
333.202	51.03
333.414	-8.36
333.627	12.12
333.84	30.55
334.053	14.17
334.265	51.03
334.478	55.12
334.691	46.93
334.903	16.21
335.116	-4.27
335.329	10.07
335.541	98.13
335.754	67.41
335.966	18.26
336.179	42.84
336.392	61.27
336.604	79.7
336.817	98.13
337.029	38.74
337.242	8.02
337.454	24.4
337.667	128.85
337.88	77.65
338.092	112.47
338.305	14.17
338.517	81.75
338.729	-8.36
338.942	55.12
339.154	-24.75
339.367	30.55
339.579	61.27
339.792	85.84
340.004	34.64
340.217	24.4
340.429	38.74
340.641	-16.55
340.854	40.79
341.066	32.6
341.278	71.51
341.491	98.13
341.703	-28.84
341.915	30.55
342.128	57.17
342.34	-28.84
342.552	42.84
342.764	-57.51
342.977	14.17
343.189	-12.46
343.401	69.46
343.613	44.88
343.826	34.64
344.038	36.69
344.25	102.23
344.462	38.74
344.674	42.84
344.886	-37.03
345.099	36.69
345.311	61.27
345.523	20.31
345.735	40.79
345.947	-45.23
346.159	69.46
346.371	-6.31
346.583	14.17
346.795	143.19
347.007	98.13
347.219	24.4
347.431	12.12
347.643	130.9
347.855	-39.08
348.067	128.85
348.279	-32.94
348.491	71.51
348.703	81.75
348.915	55.12
349.127	5.97
349.339	44.88
349.551	-34.99
349.763	38.74
349.975	-30.89
350.187	16.21
350.399	77.65
350.61	69.46
350.822	36.69
351.034	55.12
351.246	26.45
351.458	46.93
351.669	1.88
351.881	85.84
352.093	83.8
352.305	42.84
352.517	14.17
352.728	26.45
352.94	46.93
353.152	42.84
353.363	10.07
353.575	36.69
353.787	75.6
353.999	18.26
354.21	51.03
354.422	89.94
354.633	63.32
354.845	87.89
355.057	104.28
355.268	26.45
355.48	26.45
355.692	69.46
355.903	-43.18
356.115	73.56
356.326	26.45
356.538	128.85
356.749	51.03
356.961	71.51
357.172	57.17
357.384	20.31
357.595	65.36
357.807	77.65
358.018	10.07
358.23	22.36
358.441	85.84
358.653	128.85
358.864	-26.79
359.075	71.51
359.287	40.79
359.498	94.04
359.709	110.42
359.921	30.55
360.132	22.36
360.344	63.32
360.555	36.69
360.766	38.74
360.977	12.12
361.189	65.36
361.4	96.08
361.611	118.61
361.823	44.88
362.034	108.37
362.245	44.88
362.456	18.26
362.667	65.36
362.879	100.18
363.09	51.03
363.301	79.7
363.512	24.4
363.723	14.17
363.935	-2.22
364.146	44.88
364.357	1.88
364.568	48.98
364.779	-8.36
364.99	22.36
365.201	44.88
365.412	91.99
365.623	26.45
365.834	61.27
366.045	-2.22
366.256	79.7
366.467	75.6
366.678	85.84
366.889	38.74
367.1	57.17
367.311	-12.46
367.522	42.84
367.733	-2.22
367.944	59.22
368.155	-10.41
368.366	14.17
368.577	10.07
368.788	110.42
368.999	-39.08
369.209	51.03
369.42	118.61
369.631	104.28
369.842	104.28
370.053	22.36
370.264	44.88
370.474	67.41
370.685	63.32
370.896	147.28
371.107	32.6
371.317	53.08
371.528	3.93
371.739	46.93
371.95	110.42
372.16	40.79
372.371	36.69
372.582	73.56
372.792	8.02
373.003	98.13
373.214	118.61
373.424	91.99
373.635	18.26
373.846	57.17
374.056	5.97
374.267	98.13
374.477	94.04
374.688	14.17
374.898	48.98
375.109	71.51
375.319	-34.99
375.53	12.12
375.74	96.08
375.951	63.32
376.161	75.6
376.372	-4.27
376.582	-0.17
376.793	69.46
377.003	30.55
377.214	91.99
377.424	73.56
377.635	57.17
377.845	155.47
378.055	65.36
378.266	-4.27
378.476	130.9
378.686	104.28
378.897	5.97
379.107	96.08
379.317	69.46
379.528	34.64
379.738	-10.41
379.948	16.21
380.158	65.36
380.369	3.93
380.579	73.56
380.789	-32.94
380.999	96.08
381.21	10.07
381.42	65.36
381.63	42.84
381.84	26.45
382.05	-24.75
382.261	89.94
382.471	98.13
382.681	151.38
382.891	18.26
383.101	8.02
383.311	-8.36
383.521	3.93
383.731	77.65
383.941	114.52
384.151	75.6
384.361	34.64
384.571	51.03
384.781	-2.22
384.991	85.84
385.201	132.95
385.411	53.08
385.621	5.97
385.831	85.84
386.041	34.64
386.251	14.17
386.461	83.8
386.671	61.27
386.881	122.71
387.091	75.6
387.301	-34.99
387.511	42.84
387.72	77.65
387.93	38.74
388.14	32.6
388.35	83.8
388.56	69.46
388.769	98.13
388.979	32.6
389.189	18.26
389.399	128.85
389.609	75.6
389.818	46.93
390.028	89.94
390.238	46.93
390.447	22.36
390.657	98.13
390.867	3.93
391.076	38.74
391.286	55.12
391.496	61.27
391.705	30.55
391.915	120.66
392.125	36.69
392.334	71.51
392.544	48.98
392.753	91.99
392.963	57.17
393.172	94.04
393.382	24.4
393.591	130.9
393.801	1.88
394.01	130.9
394.22	34.64
394.429	22.36
394.639	112.47
394.848	102.23
395.058	24.4
395.267	171.86
395.477	108.37
395.686	135
395.895	100.18
396.105	110.42
396.314	137.04
396.524	69.46
396.733	89.94
396.942	55.12
397.152	143.19
397.361	110.42
397.57	104.28
397.78	94.04
397.989	159.57
398.198	118.61
398.407	102.23
398.617	102.23
398.826	100.18
399.035	132.95
399.244	112.47
399.453	102.23
399.663	34.64
399.872	114.52
400.081	69.46
400.29	38.74
400.499	85.84
400.708	137.04
400.917	102.23
401.127	5.97
401.336	77.65
401.545	157.52
401.754	89.94
401.963	94.04
402.172	53.08
402.381	110.42
402.59	163.67
402.799	75.6
403.008	147.28
403.217	145.24
403.426	120.66
403.635	59.22
403.844	102.23
404.053	151.38
404.262	171.86
404.471	135
404.68	91.99
404.888	155.47
405.097	69.46
405.306	149.33
405.515	165.71
405.724	159.57
405.933	188.24
406.142	159.57
406.35	212.82
406.559	184.15
406.768	171.86
406.977	153.43
407.185	143.19
407.394	194.39
407.603	192.34
407.812	165.71
408.02	229.2
408.229	216.91
408.438	202.58
408.646	145.24
408.855	190.29
409.064	206.67
409.272	208.72
409.481	245.59
409.69	237.39
409.898	243.54
410.107	266.07
410.315	216.91
410.524	331.6
410.733	366.42
410.941	352.08
411.15	288.59
411.358	294.74
411.567	313.17
411.775	347.98
411.984	370.51
412.192	417.61
412.401	354.13
412.609	401.23
412.818	503.63
413.026	468.81
413.234	450.38
413.443	507.73
413.651	501.58
413.86	495.44
414.068	560.97
414.276	567.12
414.485	513.87
414.693	642.89
414.901	606.03
415.11	626.51
415.318	763.72
415.526	649.04
415.734	681.8
415.943	689.99
416.151	743.24
416.359	671.56
416.567	853.83
416.776	841.54
416.984	786.25
417.192	780.11
417.4	919.37
417.608	837.45
417.817	921.42
418.025	964.42
418.233	1040.2
418.441	948.04
418.649	1038.15
418.857	1150.79
419.065	1146.69
419.273	1085.25
419.481	1177.41
419.689	1244.99
419.897	1302.34
420.105	1302.34
420.313	1394.5
420.521	1363.78
420.729	1431.36
420.937	1589.05
421.145	1640.25
421.353	1523.52
421.561	1560.38
421.769	1910.58
421.977	1861.43
422.185	1810.23
422.393	1994.55
422.601	2004.79
422.809	1967.93
423.017	2043.7
423.224	2072.37
423.432	2279.22
423.64	2185.01
423.848	2404.14
424.056	2307.89
424.263	2518.83
424.471	2549.55
424.679	2633.52
424.887	2752.3
425.094	2817.83
425.302	2768.68
425.51	2932.52
425.718	3043.11
425.925	3098.41
426.133	3217.19
426.341	3485.47
426.548	3485.47
426.756	3518.24
426.964	3608.35
427.171	3716.89
427.379	3872.54
427.586	3960.6
427.794	4019.99
428.001	4353.81
428.209	4265.75
428.417	4284.18
428.624	4603.66
428.832	4583.18
429.039	4783.88
429.247	4640.53
429.454	5093.13
429.662	5410.56
429.869	5080.84
430.076	5302.02
430.284	5209.86
430.491	5439.23
430.699	5689.09
430.906	5869.31
431.114	5904.12
431.321	6076.15
431.528	6178.55
431.736	6571.76
431.943	6866.67
432.15	6508.27
432.358	6829.81
432.565	7038.7
432.772	7077.61
432.979	7339.75
433.187	7458.53
433.394	7491.3
433.601	8117.98
433.808	8138.46
434.016	8085.21
434.223	8482.52
434.43	8879.82
434.637	8816.33
434.844	9301.7
435.052	9453.25
435.259	9281.22
435.466	9428.68
435.673	9426.63
435.88	10057.4
436.087	10491.57
436.294	10423.99
436.501	10342.07
436.708	10370.74
436.915	10778.29
437.122	11368.1
437.329	11280.04
437.537	11622.05
437.743	11769.51
437.95	11509.41
438.157	12142.24
438.364	12598.93
438.571	12646.04
438.778	12850.83
438.985	13885.06
439.192	13444.74
439.399	13686.4
439.606	13446.79
439.813	14243.45
440.02	15148.65
440.227	14806.64
440.433	14894.71
440.64	15486.57
440.847	15232.62
441.054	15615.59
441.261	16746.07
441.467	16258.65
441.674	16780.89
441.881	16969.3
442.088	17423.95
442.294	17077.84
442.501	17753.67
442.708	18003.52
442.914	18667.06
443.121	19197.49
443.328	18828.85
443.534	20231.71
443.741	19525.16
443.948	19471.92
444.154	20850.2
444.361	20463.13
444.568	20917.78
444.774	20723.23
444.981	20911.64
445.187	21558.8
445.394	22330.88
445.6	22195.71
445.807	24292.83
446.013	23066.1
446.22	23461.36
446.426	24614.37
446.633	24684
446.839	25458.13
447.046	24522.21
447.252	25966.03
447.459	25851.34
447.665	25814.48
447.871	26865.08
448.078	27973.03
448.284	26631.61
448.491	27258.29
448.697	28523.94
448.903	28997.02
449.11	29093.27
449.316	28429.73
449.522	29369.75
449.728	29683.09
449.935	30123.4
450.141	29816.21
450.347	30774.66
450.553	29734.29
450.76	29904.27
450.966	31024.51
451.172	30508.42
451.378	31389.05
451.584	30475.65
451.791	31370.61
451.997	31196.54
452.203	31749.49
452.409	31866.22
452.615	31817.07
452.821	30397.83
453.027	30129.55
453.233	31567.22
453.44	30385.54
453.646	30803.33
453.852	31169.91
454.058	31702.39
454.264	30113.16
454.47	31006.08
454.676	30238.09
454.882	31212.92
455.088	28448.16
455.294	28706.21
455.5	29396.37
455.705	29826.45
455.911	28257.7
456.117	28071.34
456.323	27229.62
456.529	26101.19
456.735	27088.31
456.941	26439.11
457.147	25949.64
457.352	25224.66
457.558	25030.1
457.764	25073.11
457.97	24800.73
458.176	23741.93
458.381	23750.12
458.587	22687.23
458.793	22928.89
458.999	21720.59
459.204	23182.84
459.41	22636.03
459.616	21026.32
459.821	20946.45
460.027	20956.69
460.233	20522.52
460.438	19365.42
460.644	19791.4
460.85	18796.09
461.055	18499.13
461.261	18708.02
461.466	17139.28
461.672	16338.52
461.878	17847.88
462.083	16571.99
462.289	16490.07
462.494	16055.9
462.7	15416.94
462.905	14933.62
463.111	15408.75
463.316	15541.86
463.522	15326.83
463.727	15234.67
463.932	15412.84
464.138	15255.15
464.343	15459.95
464.549	14859.89
464.754	15556.2
464.959	15036.02
465.165	15023.73
465.37	14343.8
465.575	14100.09
465.781	14429.82
465.986	14607.99
466.191	13999.74
466.397	13905.54
466.602	13182.6
466.807	13590.15
467.012	13758.08
467.218	13622.92
467.423	13452.94
467.628	13684.36
467.833	14139.01
468.038	13348.49
468.244	13026.96
468.449	13737.6
468.654	13274.76
468.859	13135.5
469.064	13074.06
469.269	12715.67
469.474	12697.24
469.679	12828.31
469.885	12261.02
470.09	12721.81
470.295	12512.92
470.5	12189.34
470.705	12299.93
470.91	12140.19
471.115	11871.9
471.32	12269.21
471.525	12138.14
471.73	11792.03
471.935	11724.45
472.139	11306.66
472.344	11478.69
472.549	11384.49
472.754	11456.17
472.959	11081.39
473.164	10843.82
473.369	10567.35
473.574	11022
473.778	11118.25
473.983	10745.52
474.188	10725.04
474.393	10313.4
474.598	10374.84
474.802	10170.04
475.007	10161.85
475.212	10221.24
475.417	9774.78
475.621	9688.77
475.826	9848.51
476.031	9952.96
476.235	9739.97
476.44	9459.4
476.645	9395.91
476.849	9475.78
477.054	9430.73
477.259	9023.18
477.463	9084.62
477.668	9088.71
477.872	8924.88
478.077	8693.46
478.282	8634.07
478.486	8654.55
478.691	8546
478.895	8599.25
479.1	8425.17
479.304	8568.53
479.509	8431.32
479.713	8216.28
479.918	8171.22
480.122	8017.63
480.326	8249.05
480.531	8134.36
480.735	8113.88
480.94	8285.91
481.144	8333.01
481.348	8038.11
481.553	8134.36
481.757	7864.03
481.961	8054.49
482.166	8191.7
482.37	8005.34
482.574	7775.97
482.778	7845.6
482.983	7997.15
483.187	8011.48
483.391	7894.75
483.595	7841.5
483.8	7958.24
484.004	7773.92
484.208	8019.67
484.412	8021.72
484.616	8077.02
484.821	7968.48
485.025	7638.75
485.229	7913.18
485.433	7829.21
485.637	7945.95
485.841	8003.29
486.045	7716.58
486.249	7896.8
486.453	7929.56
486.657	7810.78
486.861	8029.91
487.065	7823.07
487.269	7888.6
487.473	7812.83
487.677	7870.17
487.881	8005.34
488.085	7798.49
488.289	7958.24
488.493	7737.06
488.697	8083.16
488.901	7880.41
489.105	8001.24
489.309	7966.43
489.512	7915.23
489.716	7980.76
489.92	7829.21
490.124	8050.39
490.328	8253.14
490.531	8083.16
490.735	8101.59
490.939	8089.31
491.143	8277.72
491.346	7948
491.55	8406.74
491.754	8169.18
491.958	8242.9
492.161	8040.15
492.365	8212.18
492.569	8261.34
492.772	8212.18
492.976	8478.42
493.18	8427.22
493.383	8423.12
493.587	8564.43
493.79	8722.13
493.994	8658.64
494.197	8662.74
494.401	8814.29
494.605	8785.62
494.808	9031.37
495.012	8906.45
495.215	8906.45
495.419	8898.25
495.622	9144.01
495.825	9217.74
496.029	9297.61
496.232	9307.85
496.436	9209.54
496.639	9535.17
496.843	9367.24
497.046	9715.39
497.249	9807.55
497.453	9891.52
497.656	9742.02
497.859	9975.49
498.063	10086.08
498.266	10264.25
498.469	10206.91
498.673	10362.55
498.876	10512.05
499.079	10356.41
499.282	10727.09
499.485	10839.73
499.689	10860.21
499.892	10942.13
500.095	10878.64
500.298	11384.49
500.501	11259.56
500.705	11622.05
500.908	11589.28
501.111	11726.5
501.314	11886.24
501.517	11796.13
501.72	11916.96
501.923	12154.52
502.126	12392.09
502.329	12697.24
502.532	12625.56
502.735	12768.91
502.938	12795.54
503.141	12983.95
503.344	13143.69
503.547	13022.86
503.75	13270.67
503.953	13522.57
504.156	13713.03
504.359	13786.75
504.562	13840
504.765	14218.88
504.968	14177.92
505.17	14513.78
505.373	14401.15
505.576	14683.77
505.779	14820.98
505.982	14849.65
506.185	15179.37
506.387	15433.32
506.59	15265.39
506.793	15734.37
506.996	15824.48
507.198	16109.15
507.401	16027.23
507.604	16262.75
507.807	16531.03
508.009	16545.37
508.212	16803.41
508.415	17047.12
508.617	17110.61
508.82	17475.15
509.022	17149.52
509.225	17727.05
509.428	17575.5
509.63	17841.73
509.833	17823.3
510.035	18243.13
510.238	18378.3
510.44	18769.46
510.643	18794.04
510.845	18863.67
511.048	18687.54
511.25	19193.39
511.453	19459.63
511.655	20041.25
511.858	19820.07
512.06	20047.4
512.262	20303.39
512.465	20182.56
512.667	20561.44
512.87	20880.92
513.072	20801.05
513.274	21239.31
513.477	21528.08
513.679	21476.88
513.881	21777.93
514.084	22042.12
514.286	22187.52
514.488	22281.73
514.69	22957.56
514.893	22910.46
515.095	23180.79
515.297	23193.08
515.499	23197.17
515.701	23795.18
515.904	23709.16
516.106	23918.06
516.308	24079.85
516.51	24600.03
516.712	24403.42
516.914	24712.67
517.116	25034.2
517.318	25306.58
517.52	25306.58
517.722	25601.49
517.925	25976.26
518.127	25699.79
518.329	26379.71
518.531	26181.06
518.733	26987.96
518.935	27258.29
519.136	26936.76
519.338	27643.31
519.54	27434.42
519.742	28018.09
519.944	27860.4
520.146	28216.74
520.348	28741.02
520.55	28374.44
520.752	28796.32
520.954	29398.42
521.155	28943.77
521.357	29732.24
521.559	29799.82
521.761	30070.15
521.963	29910.41
522.164	30158.22
522.366	30410.12
522.568	30930.3
522.77	30897.53
522.971	31206.78
523.173	31112.57
523.375	31366.52
523.576	31501.68
523.778	31438.2
523.98	31987.05
524.181	32443.75
524.383	32300.39
524.584	32955.74
524.786	32562.53
524.988	32808.29
525.189	32982.37
525.391	33045.85
525.592	33666.39
525.794	33776.98
525.995	33647.96
526.197	33693.01
526.398	33690.96
526.6	34465.1
526.801	34116.94
527.003	34174.28
527.204	34594.12
527.406	34637.12
527.607	34729.28
527.808	35099.97
528.01	34491.72
528.211	34665.8
528.412	35362.11
528.614	35353.91
528.815	35478.84
529.016	35691.83
529.218	35409.21
529.419	35605.81
529.62	35763.51
529.822	35816.75
530.023	35775.8
530.224	35806.51
530.425	35765.56
530.626	35560.76
530.828	35460.41
531.029	36396.33
531.23	35962.16
531.431	36377.9
531.632	36252.97
531.833	36537.64
532.035	36494.63
532.236	36644.13
532.437	36783.4
532.638	36578.6
532.839	36531.5
533.04	36619.56
533.241	36386.09
533.442	37205.28
533.643	36807.97
533.844	36633.89
534.045	36748.58
534.246	36875.55
534.447	36967.71
534.648	36795.68
534.849	36875.55
535.05	37057.82
535.251	37135.65
535.451	37084.45
535.652	36832.55
535.853	36820.26
536.054	37016.86
536.255	37174.56
536.456	36736.29
536.657	37911.83
536.857	36992.29
537.058	37043.49
537.259	37285.15
537.46	37033.25
537.66	36685.09
537.861	37070.11
538.062	36838.69
538.263	37143.84
538.463	37139.74
538.664	37281.05
538.865	36713.77
539.065	37303.58
539.266	36764.96
539.466	37555.48
539.667	37029.15
539.868	37342.49
540.068	36867.36
540.269	37084.45
540.469	37279
540.67	36934.95
540.87	36764.96
541.071	36828.45
541.271	37373.21
541.472	36760.87
541.672	36818.21
541.873	36480.3
542.073	36398.38
542.274	37109.02
542.474	36836.64
542.675	36893.99
542.875	37025.06
543.075	36975.91
543.276	36668.71
543.476	37473.56
543.676	36594.98
543.877	37192.99
544.077	36928.8
544.277	36879.65
544.478	36861.22
544.678	37313.82
544.878	36975.91
545.078	36875.55
545.279	36783.4
545.479	36730.15
545.679	36668.71
545.879	36709.67
546.079	36746.53
546.28	36687.14
546.48	36549.93
546.68	36934.95
546.88	37121.31
547.08	37084.45
547.28	36898.08
547.48	36519.21
547.68	36951.33
547.88	36146.48
548.081	36818.21
548.281	36687.14
548.481	36590.89
548.681	36918.56
548.881	36281.64
549.081	36441.39
549.28	36656.42
549.48	36865.31
549.68	36726.05
549.88	36973.86
550.08	36134.19
550.28	36535.59
550.48	36814.12
550.68	36801.83
550.88	36588.84
551.08	36488.49
551.279	36930.85
551.479	36281.64
551.679	36760.87
551.879	36443.43
552.079	36324.65
552.278	36396.33
552.478	36410.67
552.678	36226.35
552.878	36574.5
553.077	36384.04
553.277	35812.66
553.477	36726.05
553.676	35882.29
553.876	36472.1
554.076	36179.25
554.275	36046.13
554.475	36195.63
554.674	36351.27
554.874	36259.12
555.074	36080.94
555.273	36134.19
555.473	36076.85
555.672	36171.05
555.872	36437.29
556.071	35804.47
556.271	36437.29
556.47	35892.53
556.67	35575.09
556.869	35583.29
557.068	35759.41
557.268	35460.41
557.467	35401.02
557.667	35509.56
557.866	35665.21
558.065	35558.71
558.265	35450.17
558.464	35200.32
558.663	35523.9
558.863	35161.4
559.062	35233.08
559.261	34927.94
559.461	35568.95
559.66	34739.52
559.859	35040.57
560.058	34395.46
560.258	34805.06
560.457	34700.61
560.656	34792.77
560.855	34374.98
561.054	35149.12
561.253	34403.66
561.453	34714.95
561.652	34499.91
561.851	34651.46
562.05	34446.66
562.249	34075.98
562.448	34385.22
562.647	34364.74
562.846	34084.17
563.045	34096.46
563.244	33658.2
563.443	34248.01
563.642	33351
563.841	33830.23
564.04	33541.46
564.239	34086.22
564.438	33561.94
564.637	33418.58
564.836	33733.97
565.035	33011.04
565.234	33656.15
565.432	33437.02
565.631	33138.01
565.83	33385.82
566.029	33064.28
566.228	32585.06
566.427	32812.38
566.625	32644.45
566.824	32142.7
567.023	32822.62
567.222	32056.68
567.42	32699.75
567.619	32234.86
567.818	32607.59
568.016	31884.65
568.215	32628.07
568.414	31739.25
568.612	32322.92
568.811	31821.17
569.01	32120.17
569.208	31339.9
569.407	31956.33
569.605	31585.65
569.804	31538.55
570.002	31251.83
570.201	31354.23
570.4	31368.57
570.598	31235.45
570.797	30870.91
570.995	30877.05
571.193	30672.26
571.392	31059.32
571.59	30866.81
571.789	30823.81
571.987	30381.45
572.186	30750.08
572.384	30737.79
572.582	30440.84
572.781	30537.09
572.979	30119.31
573.177	30137.74
573.376	30176.65
573.574	30002.57
573.772	30041.48
573.971	29912.46
574.169	29648.27
574.367	29552.02
574.565	29707.66
574.763	29885.84
574.962	29410.71
575.16	29119.9
575.358	29339.03
575.556	29171.1
575.754	29410.71
575.952	29013.4
576.151	29060.51
576.349	28882.33
576.547	29085.08
576.745	28734.88
576.943	28732.83
577.141	28519.84
577.339	28753.31
577.537	28513.7
577.735	28759.45
577.933	28159.4
578.131	28517.79
578.329	28026.28
578.527	27964.84
578.725	28280.23
578.923	28229.03
579.121	28048.81
579.319	27940.27
579.516	27788.72
579.714	27667.89
579.912	27614.64
580.11	27366.84
580.308	27614.64
580.506	27104.7
580.704	27217.33
580.901	27264.44
581.099	27329.97
581.297	26871.23
581.495	27194.81
581.692	27106.74
581.89	26672.57
582.088	26971.58
582.285	26394.05
582.483	26691.01
582.681	26762.68
582.878	26553.79
583.076	26150.34
583.274	26377.67
583.471	26312.13
583.669	26293.7
583.866	26043.85
584.064	26285.51
584.262	26074.57
584.459	26101.19
584.657	26019.27
584.854	25933.26
585.052	25277.91
585.249	25779.66
585.447	25707.98
585.644	25478.61
585.841	25245.14
586.039	25861.58
586.236	25116.12
586.434	25312.72
586.631	24983
586.828	25069.01
587.026	25064.92
587.223	25171.41
587.42	25085.4
587.618	24761.82
587.815	24817.11
588.012	24569.31
588.21	24546.78
588.407	24780.25
588.604	24479.2
588.801	24196.58
588.999	24129
589.196	24425.95
589.393	24280.55
589.59	23959.02
589.787	23920.1
589.984	24036.84
590.182	23885.29
590.379	24010.21
590.576	23662.06
590.773	23686.64
590.97	23649.77
591.167	23614.96
591.364	23203.32
591.561	23164.4
591.758	23139.83
591.955	23307.76
592.152	23385.58
592.349	23246.32
592.546	23260.66
592.743	23193.08
592.94	22806.01
593.137	23250.42
593.334	23039.48
593.531	22455.81
593.727	22892.02
593.924	22939.13
594.121	22521.34
594.318	22799.87
594.515	22263.3
594.712	22451.71
594.908	22406.66
595.105	22418.94
595.302	21845.51
595.499	22222.34
595.696	22054.4
595.892	21886.47
596.089	21906.95
596.286	22140.42
596.482	21640.72
596.679	21675.53
596.876	21888.52
597.072	21868.04
597.269	21589.52
597.466	20975.13
597.662	21333.52
597.859	21435.92
598.055	21325.33
598.252	21138.96
598.448	21235.22
598.645	21329.42
598.841	20975.13
599.038	21003.8
599.234	20928.02
599.431	20661.79
599.627	20551.2
599.824	20700.7
600.02	20616.73
600.217	20653.59
600.413	20577.82
600.609	20643.35
600.806	20086.31
601.002	20266.53
601.198	19990.05
601.395	20196.9
601.591	20063.78
601.787	20176.42
601.984	19922.47
602.18	20239.9
602.376	19914.28
602.572	19713.58
602.769	19721.77
602.965	19514.92
603.161	19848.74
603.357	19439.15
603.553	19584.55
603.75	19506.73
603.946	19443.24
604.142	19400.24
604.338	19162.67
604.534	19467.82
604.73	19043.89
604.926	19150.39
605.122	19240.5
605.318	19199.54
605.514	18955.83
605.71	19050.03
605.906	18884.15
606.102	18771.51
606.298	18701.88
606.494	18656.82
606.69	18781.75
606.886	18624.06
607.082	18626.11
607.278	18353.73
607.474	18372.16
607.67	18308.67
607.866	18218.56
608.062	18331.2
608.257	18425.4
608.453	18265.66
608.649	18456.12
608.845	17862.21
609.041	18116.16
609.236	18038.34
609.432	17925.7
609.628	17894.98
609.824	17917.51
610.019	17774.15
610.215	17688.14
610.411	17819.21
610.606	17825.35
610.802	17827.4
610.998	17968.71
611.193	17907.27
611.389	17442.38
611.584	17497.67
611.78	17438.28
611.976	17409.61
612.171	17438.28
612.367	17299.02
612.562	17438.28
612.758	17366.6
612.953	17323.6
613.149	17415.76
613.344	16979.54
613.539	17233.49
613.735	17317.45
613.93	17491.53
614.126	16969.3
614.321	17135.18
614.517	17153.62
614.712	16936.53
614.907	17102.42
615.103	16963.15
615.298	17000.02
615.493	17067.6
615.688	16674.39
615.884	17165.9
616.079	16752.21
616.274	16754.26
616.47	16731.73
616.665	16641.62
616.86	16428.63
617.055	16645.72
617.25	16596.57
617.445	16680.53
617.641	16309.85
617.836	16586.33
618.031	16350.81
618.226	16465.5
618.421	16428.63
618.616	16580.18
618.811	16125.54
619.006	16309.85
619.201	16057.95
619.396	16088.67
619.591	15695.46
619.786	15869.54
619.981	15625.83
620.176	15992.42
620.371	15629.93
620.566	15650.41
620.761	15527.53
620.956	15584.87
621.151	15298.16
621.346	15421.03
621.541	15294.06
621.735	15367.79
621.93	15193.71
622.125	14954.1
622.32	15017.58
622.515	14925.43
622.709	14683.77
622.904	14802.55
623.099	14691.96
623.294	14671.48
623.488	14425.72
623.683	14530.17
623.878	14354.04
624.072	14329.47
624.267	14456.44
624.462	14372.47
624.656	13909.63
624.851	14057.09
625.046	13856.39
625.24	13803.14
625.435	13983.36
625.629	13803.14
625.824	13364.87
626.018	13655.68
626.213	13500.04
626.407	13518.47
626.602	13074.06
626.796	13592.2
626.991	13317.77
627.185	12953.23
627.38	13006.48
627.574	12910.22
627.768	13104.78
627.963	12781.2
628.157	12844.69
628.352	12705.43
628.546	12664.47
628.74	12766.87
628.935	12351.13
629.129	12629.65
629.323	12379.8
629.517	12349.08
629.712	12191.39
629.906	12197.53
630.1	12048.03
630.294	12105.37
630.489	12025.5
630.683	11939.49
630.877	11976.35
631.071	11775.65
631.265	11898.53
631.459	11812.51
631.653	11566.76
631.848	11579.04
632.042	11542.18
632.236	11556.52
632.43	11151.02
632.624	11345.58
632.818	11214.51
633.012	11085.48
633.206	11323.05
633.4	11400.87
633.594	11163.31
633.788	11062.96
633.982	10921.65
634.176	10958.51
634.369	10962.61
634.563	10940.08
634.757	10694.32
634.951	10966.7
635.145	10753.71
635.339	10649.27
635.533	10423.99
635.726	10579.64
635.92	10241.72
636.114	10309.3
636.308	10198.71
636.501	10362.55
636.695	10202.81
636.889	10100.41
637.083	9852.61
637.276	10098.36
637.47	9922.24
637.664	9928.38
637.857	9895.61
638.051	9610.95
638.244	9879.23
638.438	9707.2
638.632	9645.76
638.825	9629.38
639.019	9373.38
639.212	9379.53
639.406	9596.61
639.599	9297.61
639.793	9350.85
639.986	9180.87
640.18	9287.37
640.373	9287.37
640.567	9125.58
640.76	9146.06
640.954	9148.11
641.147	9060.04
641.34	8941.26
641.534	8957.64
641.727	8828.62
641.92	8718.03
642.114	8865.49
642.307	8668.88
642.5	8857.29
642.694	8629.97
642.887	8439.51
643.08	8537.81
643.273	8574.67
643.467	8601.3
643.66	8419.03
643.853	8404.69
644.046	8232.66
644.239	8249.05
644.432	8193.75
644.626	8120.03
644.819	8019.67
645.012	8083.16
645.205	8122.07
645.398	8072.92
645.591	7872.22
645.784	8025.82
645.977	7964.38
646.17	7818.97
646.363	7673.57
646.556	7491.3
646.749	7550.69
646.942	7825.12
647.135	7655.14
647.328	7757.53
647.521	7573.22
647.714	7489.25
647.907	7630.56
648.099	7319.27
648.292	7352.04
648.485	7235.3
648.678	7356.13
648.871	7261.93
649.064	7141.1
649.256	7268.07
649.449	7126.76
649.642	7155.43
649.835	7053.03
650.027	7126.76
650.22	7040.75
650.413	7077.61
650.605	6893.29
650.798	6729.45
650.991	6829.81
651.183	7040.75
651.376	6751.98
651.568	6881
651.761	6721.26
651.954	6610.67
652.146	6811.37
652.339	6541.04
652.531	6582
652.724	6665.97
652.916	6369.01
653.109	6151.93
653.301	6348.53
653.494	6487.79
653.686	6364.92
653.879	6438.64
654.071	6416.12
654.263	6344.44
654.456	6287.09
654.648	6188.79
654.84	6256.37
655.033	6213.37
655.225	6147.83
655.417	6135.54
655.61	6039.29
655.802	6190.84
655.994	5996.28
656.186	5910.27
656.379	5852.92
656.571	5854.97
656.763	5914.36
656.955	5789.44
657.148	5975.8
657.34	5730.05
657.532	5670.65
657.724	5768.96
657.916	5672.7
658.108	5639.94
658.3	5629.7
658.492	5641.98
658.684	5490.43
658.876	5635.84
659.068	5517.06
659.26	5449.47
659.452	5455.62
659.644	5555.97
659.836	5265.16
660.028	5398.27
660.22	5318.4
660.412	5191.43
660.604	5289.73
660.796	5385.99
660.988	5340.93
661.18	5289.73
661.372	5181.19
661.563	5201.67
661.755	5019.4
661.947	5091.08
662.139	5009.16
662.331	5033.74
662.522	4937.48
662.714	5056.26
662.906	5078.79
663.097	5037.83
663.289	4845.32
663.481	4919.05
663.673	4855.56
663.864	4804.36
664.056	4589.33
664.247	4849.42
664.439	4572.94
664.631	4687.63
664.822	4802.32
665.014	4679.44
665.205	4706.06
665.397	4683.53
665.588	4603.66
665.78	4654.86
665.971	4564.75
666.163	4673.29
666.354	4527.89
666.546	4501.26
666.737	4511.5
666.929	4548.37
667.12	4499.22
667.311	4435.73
667.503	4275.99
667.694	4304.66
667.885	4300.56
668.077	4325.14
668.268	4382.48
668.459	4382.48
668.651	4249.36
668.842	4237.08
669.033	4149.01
669.224	4161.3
669.416	4310.8
669.607	4257.56
669.798	4181.78
669.989	4198.17
670.18	3985.18
670.371	4030.23
670.563	3954.46
670.754	4038.42
670.945	4019.99
671.136	4052.76
671.327	4075.29
671.518	4126.49
671.709	3954.46
671.9	4063
672.091	3776.28
672.282	3811.1
672.473	3911.45
672.664	3843.87
672.855	3913.5
673.046	3852.06
673.237	3850.01
673.428	3964.7
673.619	3825.43
673.809	3843.87
674	3821.34
674.191	3796.76
674.382	3600.16
674.573	3655.45
674.764	3706.65
674.954	3852.06
675.145	3768.09
675.336	3751.71
675.527	3542.82
675.717	3776.28
675.908	3675.93
676.099	3720.99
676.289	3555.1
676.48	3698.46
676.671	3579.68
676.861	3534.62
677.052	3565.34
677.243	3436.32
677.433	3610.4
677.624	3632.93
677.814	3456.8
678.005	3313.44
678.195	3497.76
678.386	3424.03
678.576	3356.45
678.767	3329.83
678.957	3528.48
679.148	3327.78
679.338	3432.22
679.529	3395.36
679.719	3438.37
679.909	3370.79
680.1	3243.81
680.29	3331.87
680.481	3358.5
680.671	3405.6
680.861	3278.63
681.052	3307.3
681.242	3239.72
681.432	3393.31
681.622	3282.72
681.813	3221.28
682.003	3282.72
682.193	3270.44
682.383	3225.38
682.573	3211.04
682.764	3184.42
682.954	3264.29
683.144	3282.72
683.334	3159.85
683.524	3313.44
683.714	3198.76
683.904	3180.32
684.094	3270.44
684.284	3129.13
684.474	3157.8
684.664	3077.93
684.854	3137.32
685.044	3055.4
685.234	3071.78
685.424	3067.69
685.614	3079.97
685.804	2944.81
685.994	3206.95
686.184	3036.97
686.374	3061.54
686.564	3059.49
686.753	3057.45
686.943	3057.45
687.133	3010.34
687.323	2963.24
687.513	2991.91
687.702	2948.9
687.892	2985.77
688.082	2879.27
688.272	2877.23
688.461	2862.89
688.651	2991.91
688.841	2862.89
689.03	2805.55
689.22	2914.09
689.41	2977.58
689.599	2848.55
689.789	2780.97
689.979	2811.69
690.168	2694.96
690.358	2770.73
690.547	2766.64
690.737	2766.64
690.926	2733.87
691.116	2692.91
691.305	2654
691.495	2780.97
691.684	2600.75
691.874	2658.09
692.063	2787.11
692.252	2697
692.442	2740.01
692.631	2522.93
692.82	2619.18
693.01	2637.61
693.199	2631.47
693.388	2531.12
693.578	2570.03
693.767	2469.68
693.956	2559.79
694.146	2592.56
694.335	2537.26
694.524	2545.45
694.713	2656.04
694.902	2596.65
695.092	2600.75
695.281	2524.97
695.47	2518.83
695.659	2547.5
695.848	2383.66
696.037	2496.3
696.226	2467.63
696.415	2561.84
696.604	2475.82
696.793	2465.58
696.982	2508.59
697.171	2555.69
697.36	2463.54
697.549	2512.69
697.738	2416.43
697.927	2449.2
698.116	2412.34
698.305	2445.1
698.494	2406.19
698.683	2463.54
698.872	2496.3
699.061	2387.76
699.25	2316.08
699.438	2404.14
699.627	2326.32
699.816	2326.32
700.005	2602.8
700.193	2445.1
700.382	2484.02
700.571	2344.75
700.76	2465.58
700.948	2340.66
701.137	2414.38
701.326	2277.17
701.514	2408.24
701.703	2484.02
701.892	2307.89
702.08	2414.38
702.269	2451.25
702.457	2434.86
702.646	2373.43
702.834	2344.75
703.023	2346.8
703.212	2338.61
703.4	2334.51
703.589	2314.03
703.777	2565.93
703.965	2479.92
704.154	2418.48
704.342	2225.97
704.531	2367.28
704.719	2443.06
704.907	2412.34
705.096	2324.27
705.284	2318.13
705.472	2352.95
705.661	2389.81
705.849	2410.29
706.037	2410.29
706.226	2488.11
706.414	2414.38
706.602	2395.95
706.79	2367.28
706.979	2354.99
707.167	2354.99
707.355	2322.23
707.543	2311.99
707.731	2457.39
707.919	2277.17
708.107	2361.14
708.296	2336.56
708.484	2332.47
708.672	2412.34
708.86	2514.73
709.048	2461.49
709.236	2332.47
709.424	2350.9
709.612	2334.51
709.8	2287.41
709.988	2379.57
710.176	2336.56
710.364	2486.06
710.551	2350.9
710.739	2363.19
710.927	2324.27
711.115	2291.51
711.303	2412.34
711.491	2248.5
711.679	2350.9
711.866	2334.51
712.054	2379.57
712.242	2283.31
712.43	2361.14
712.617	2367.28
712.805	2346.8
712.993	2361.14
713.181	2281.27
713.368	2291.51
713.556	2359.09
713.744	2295.6
713.931	2314.03
714.119	2346.8
714.306	2297.65
714.494	2338.61
714.682	2367.28
714.869	2248.5
715.057	2338.61
715.244	2281.27
715.432	2330.42
715.619	2285.36
715.807	2219.83
715.994	2320.18
716.182	2332.47
716.369	2348.85
716.556	2275.12
716.744	2223.92
716.931	2336.56
717.119	2424.62
717.306	2320.18
717.493	2283.31
717.681	2287.41
717.868	2393.9
718.055	2234.16
718.242	2318.13
718.43	2287.41
718.617	2301.75
718.804	2336.56
718.991	2367.28
719.179	2350.9
719.366	2332.47
719.553	2410.29
719.74	2287.41
719.927	2303.79
720.114	2309.94
720.301	2377.52
720.488	2236.21
720.676	2320.18
720.863	2363.19
721.05	2281.27
721.237	2283.31
721.424	2238.26
721.611	2287.41
721.798	2246.45
721.985	2395.95
722.172	2264.88
722.358	2262.83
722.545	2293.55
722.732	2330.42
722.919	2260.79
723.106	2350.9
723.293	2281.27
723.48	2354.99
723.667	2252.59
723.853	2342.71
724.04	2289.46
724.227	2178.87
724.414	2246.45
724.6	2168.63
724.787	2361.14
724.974	2203.44
725.161	2289.46
725.347	2193.2
725.534	2207.54
725.72	2232.12
725.907	2238.26
726.094	2281.27
726.28	2131.76
726.467	2228.02
726.653	2273.07
726.84	2305.84
727.027	2289.46
727.213	2240.31
727.4	2221.88
727.586	2449.2
727.773	2301.75
727.959	2246.45
728.145	2187.06
728.332	2223.92
728.518	2348.85
728.705	2330.42
728.891	2318.13
729.077	2379.57
729.264	2205.49
729.45	2311.99
729.636	2381.62
729.823	2248.5
730.009	2236.21
730.195	2228.02
730.382	2244.4
730.568	2201.4
730.754	2258.74
730.94	2322.23
731.126	2064.18
731.313	2203.44
731.499	2209.59
731.685	2293.55
731.871	2221.88
732.057	2332.47
732.243	2258.74
732.429	2158.39
732.615	2303.79
732.801	2232.12
732.987	2316.08
733.173	2236.21
733.359	2330.42
733.545	2107.19
733.731	2084.66
733.917	2236.21
734.103	2242.36
734.289	2291.51
734.475	2201.4
734.661	2271.03
734.847	2287.41
735.033	2174.77
735.219	2123.57
735.404	2225.97
735.59	2240.31
735.776	2195.25
735.962	2258.74
736.148	2250.55
736.333	2170.68
736.519	2150.2
736.705	2283.31
736.89	2246.45
737.076	2166.58
737.262	2082.61
737.447	2103.09
737.633	2197.3
737.819	2076.47
738.004	2209.59
738.19	2119.48
738.375	2125.62
738.561	2129.72
738.747	2127.67
738.932	2096.95
739.118	2137.91
739.303	1974.07
739.489	2105.14
739.674	2058.04
739.859	2129.72
740.045	2058.04
740.23	2084.66
740.416	1922.87
740.601	2099
740.786	2078.52
740.972	2084.66
741.157	2027.32
741.342	1941.3
741.528	2137.91
741.713	2047.8
741.898	2078.52
742.084	1916.73
742.269	1978.17
742.454	2062.13
742.639	2006.84
742.824	2004.79
743.01	1886.01
743.195	1982.26
743.38	1990.45
743.565	1976.12
743.75	1949.5
743.935	1929.02
744.12	1924.92
744.305	1855.29
744.49	1906.49
744.675	1900.34
744.86	1967.93
745.045	1961.78
745.23	1851.19
745.415	1826.62
745.6	1929.02
745.785	1826.62
745.97	1834.81
746.155	1871.67
746.34	1773.37
746.525	1703.74
746.71	1754.94
746.895	1808.19
747.079	1781.56
747.264	1840.95
747.449	1871.67
747.634	1759.03
747.819	1818.43
748.003	1804.09
748.188	1797.95
748.373	1804.09
748.557	1662.78
748.742	1802.04
748.927	1716.03
749.111	1589.05
749.296	1681.21
749.481	1705.79
749.665	1644.35
749.85	1660.73
750.034	1488.7
750.219	1605.44
750.404	1660.73
750.588	1662.78
750.773	1539.9
750.957	1591.1
751.141	1535.81
751.326	1584.96
751.51	1558.33
751.695	1435.46
751.879	1466.17
752.064	1627.96
752.248	1464.13
752.432	1431.36
752.617	1453.89
752.801	1584.96
752.985	1490.75
753.17	1500.99
753.354	1488.7
753.538	1439.55
753.722	1417.02
753.907	1394.5
754.091	1380.16
754.275	1486.65
754.459	1351.49
754.643	1339.2
754.828	1339.2
755.012	1390.4
755.196	1331.01
755.38	1457.98
755.564	1328.96
755.748	1326.91
755.932	1255.23
756.116	1398.59
756.3	1283.91
756.484	1230.66
756.668	1312.58
756.852	1271.62
757.036	1290.05
757.22	1253.19
757.404	1269.57
757.588	1310.53
757.772	1216.32
757.956	1285.95
758.14	1244.99
758.323	1201.99
758.507	1253.19
758.691	1210.18
758.875	1257.28
759.059	1228.61
759.242	1177.41
759.426	1220.42
759.61	1113.92
759.794	1113.92
759.977	1179.46
760.161	1179.46
760.345	1109.83
760.528	1218.37
760.712	1118.02
760.895	1146.69
761.079	1066.82
761.263	1097.54
761.446	1064.77
761.63	1124.16
761.813	1081.16
761.997	1056.58
762.18	1044.29
762.364	1062.73
762.547	1042.25
762.731	1068.87
762.914	1036.1
763.098	1072.96
763.281	1109.83
763.464	1126.21
763.648	980.81
763.831	1017.67
764.015	989
764.198	968.52
764.381	1017.67
764.564	995.14
764.748	948.04
764.931	1060.68
765.114	1036.1
765.297	1044.29
765.481	1003.33
765.664	1085.25
765.847	1058.63
766.03	978.76
766.213	939.85
766.397	997.19
766.58	999.24
766.763	986.95
766.946	1019.72
767.129	986.95
767.312	984.9
767.495	1005.38
767.678	982.85
767.861	1025.86
768.044	966.47
768.227	948.04
768.41	974.66
768.593	907.08
768.776	909.13
768.959	986.95
769.142	892.74
769.324	802.63
769.507	995.14
769.69	925.51
769.873	900.94
770.056	925.51
770.239	896.84
770.421	933.7
770.604	892.74
770.787	892.74
770.97	870.22
771.152	894.79
771.335	857.93
771.518	757.58
771.7	847.69
771.883	823.11
772.066	907.08
772.248	847.69
772.431	763.72
772.613	905.03
772.796	798.54
772.978	941.89
773.161	870.22
773.343	806.73
773.526	839.5
773.708	665.42
773.891	782.15
774.073	843.59
774.256	782.15
774.438	823.11
774.621	847.69
774.803	821.06
774.985	782.15
775.168	827.21
775.35	782.15
775.532	749.39
775.715	700.23
775.897	745.29
776.079	751.43
776.261	710.47
776.444	776.01
776.626	694.09
776.808	696.14
776.99	745.29
777.173	706.38
777.355	722.76
777.537	649.04
777.719	640.84
777.901	665.42
778.083	610.12
778.265	632.65
778.447	692.04
778.629	630.6
778.811	687.95
778.993	614.22
779.175	698.19
779.357	583.5
779.539	597.84
779.721	649.04
779.903	571.21
780.085	517.97
780.267	636.75
780.449	685.9
780.631	610.12
780.812	624.46
780.994	624.46
781.176	560.97
781.358	589.64
781.54	501.58
781.721	677.71
781.903	579.4
782.085	581.45
782.267	536.4
782.448	477.01
782.63	501.58
782.812	530.25
782.993	548.68
783.175	505.68
783.357	452.43
783.538	520.01
783.72	503.63
783.901	524.11
784.083	413.52
784.264	550.73
784.446	511.82
784.627	520.01
784.809	495.44
784.99	479.05
785.172	524.11
785.353	493.39
785.535	483.15
785.716	419.66
785.897	470.86
786.079	460.62
786.26	493.39
786.441	505.68
786.623	446.29
786.804	434
786.985	458.57
787.167	474.96
787.348	454.48
787.529	393.04
787.71	468.81
787.891	384.85
788.073	401.23
788.254	397.14
788.435	446.29
788.616	450.38
788.797	405.33
788.978	434
789.159	409.42
789.34	372.56
789.522	366.42
789.703	421.71
789.884	311.12
790.065	356.18
790.246	397.14
790.427	429.9
790.607	405.33
790.788	278.35
790.969	393.04
791.15	393.04
791.331	411.47
791.512	327.5
791.693	352.08
791.874	393.04
792.054	370.51
792.235	378.7
792.416	403.28
792.597	378.7
792.778	298.83
792.958	434
793.139	405.33
793.32	292.69
793.5	329.55
793.681	384.85
793.862	388.94
794.042	286.54
794.223	409.42
794.404	337.74
794.584	341.84
794.765	280.4
794.945	270.16
795.126	339.79
795.306	364.37
795.487	350.03
795.667	354.13
795.848	384.85
796.028	321.36
796.209	374.61
796.389	280.4
796.57	343.89
796.75	343.89
796.93	298.83
797.111	304.98
797.291	274.26
797.471	251.73
797.652	294.74
797.832	268.11
798.012	235.35
798.192	309.07
798.373	190.29
798.553	292.69
798.733	251.73
798.913	325.46
799.093	286.54
799.274	264.02
799.454	327.5
799.634	323.41
799.814	255.83
799.994	231.25
800.174	352.08
800.354	208.72
800.534	288.59
800.714	315.22
800.894	282.45
801.074	223.06
801.254	290.64
801.434	268.11
801.614	304.98
801.794	245.59
801.974	630.6
802.154	214.87
802.334	210.77
802.514	225.11
802.693	216.91
802.873	202.58
803.053	194.39
803.233	255.83
803.413	223.06
803.592	198.48
803.772	235.35
803.952	221.01
804.131	186.19
804.311	196.43
804.491	233.3
804.67	225.11
804.85	278.35
805.03	282.45
805.209	249.68
805.389	184.15
805.568	255.83
805.748	221.01
805.928	128.85
806.107	247.63
806.287	214.87
806.466	167.76
806.646	198.48
806.825	280.4
807.004	249.68
807.184	227.15
807.363	235.35
807.543	225.11
807.722	139.09
807.901	233.3
808.081	151.38
808.26	171.86
808.439	182.1
808.619	149.33
808.798	163.67
808.977	151.38
809.156	227.15
809.336	206.67
809.515	137.04
809.694	130.9
809.873	188.24
810.052	235.35
810.231	155.47
810.411	235.35
810.59	184.15
810.769	141.14
810.948	147.28
811.127	124.76
811.306	130.9
811.485	184.15
811.664	284.5
811.843	157.52
812.022	104.28
812.201	124.76
812.38	188.24
812.559	128.85
812.737	165.71
812.916	135
813.095	159.57
813.274	241.49
813.453	182.1
813.632	173.91
813.811	157.52
813.989	106.32
814.168	225.11
814.347	175.95
814.526	180.05
814.704	190.29
814.883	165.71
815.062	124.76
815.24	132.95
815.419	151.38
815.598	112.47
815.776	104.28
815.955	81.75
816.133	75.6
816.312	171.86
816.49	120.66
816.669	110.42
816.847	110.42
817.026	128.85
817.204	132.95
817.383	137.04
817.561	98.13
817.74	139.09
817.918	151.38
818.097	130.9
818.275	104.28
818.453	151.38
818.632	169.81
818.81	218.96
818.988	159.57
819.167	135
819.345	141.14
819.523	147.28
819.701	147.28
819.879	135
820.058	178
820.236	132.95
820.414	159.57
820.592	110.42
820.77	163.67
820.948	182.1
821.127	163.67
821.305	175.95
821.483	51.03
821.661	118.61
821.839	186.19
822.017	71.51
822.195	208.72
822.373	114.52
822.551	116.56
822.729	151.38
822.907	112.47
823.085	114.52
823.262	151.38
823.44	128.85
823.618	69.46
823.796	145.24
823.974	87.89
824.152	151.38
824.329	65.36
824.507	184.15
824.685	98.13
824.863	122.71
825.04	108.37
825.218	124.76
825.396	108.37
825.574	114.52
825.751	94.04
825.929	124.76
826.107	110.42
826.284	65.36
826.462	53.08
826.639	128.85
826.817	128.85
826.994	94.04
827.172	94.04
827.349	175.95
827.527	155.47
827.704	100.18
827.882	132.95
828.059	157.52
828.237	81.75
828.414	89.94
828.591	104.28
828.769	116.56
828.946	67.41
829.124	159.57
829.301	98.13
829.478	98.13
829.655	120.66
829.833	190.29
830.01	85.84
830.187	165.71
830.364	67.41
830.542	73.56
830.719	91.99
830.896	145.24
831.073	40.79
831.25	147.28
831.427	32.6
831.604	147.28
831.782	102.23
831.959	34.64
832.136	141.14
832.313	114.52
832.49	75.6
832.667	67.41
832.844	59.22
833.021	106.32
833.198	100.18
833.374	116.56
833.551	48.98
833.728	42.84
833.905	145.24
834.082	8.02
834.259	83.8
834.436	98.13
834.612	112.47
834.789	130.9
834.966	130.9
835.143	87.89
835.319	141.14
835.496	108.37
835.673	79.7
835.85	122.71
836.026	12.12
836.203	69.46
836.38	96.08
836.556	120.66
836.733	44.88
836.909	94.04
837.086	36.69
837.262	1.88
837.439	71.51
837.616	59.22
837.792	69.46
837.968	94.04
838.145	102.23
838.321	32.6
838.498	87.89
838.674	116.56
838.851	118.61
839.027	38.74
839.203	96.08
839.38	65.36
839.556	40.79
839.732	124.76
839.909	53.08
840.085	79.7
840.261	55.12
840.437	32.6
840.614	114.52
840.79	110.42
840.966	118.61
841.142	73.56
841.318	5.97
841.494	135
841.671	42.84
841.847	36.69
842.023	73.56
842.199	28.5
842.375	106.32
842.551	79.7
842.727	67.41
842.903	94.04
843.079	40.79
843.255	81.75
843.431	44.88
843.607	30.55
843.783	-43.18
843.959	57.17
844.134	-2.22
844.31	73.56
844.486	44.88
844.662	87.89
844.838	130.9
845.013	83.8
845.189	63.32
845.365	75.6
845.541	65.36
845.716	118.61
845.892	100.18
846.068	69.46
846.244	36.69
846.419	40.79
846.595	108.37
846.77	28.5
846.946	53.08
847.122	85.84
847.297	44.88
847.473	53.08
847.648	36.69
847.824	28.5
847.999	20.31
848.175	65.36
848.35	79.7
848.526	98.13
848.701	42.84
848.876	32.6
849.052	30.55
849.227	24.4
849.403	36.69
849.578	28.5
849.753	65.36
849.929	63.32
850.104	81.75
850.279	3.93
850.454	100.18
850.63	-8.36
850.805	87.89
850.98	104.28
851.155	18.26
851.33	71.51
851.505	30.55
851.681	110.42
851.856	20.31
852.031	59.22
852.206	38.74
852.381	44.88
852.556	53.08
852.731	-0.17
852.906	-39.08
853.081	112.47
853.256	102.23
853.431	14.17
853.606	44.88
853.781	38.74
853.956	-24.75
854.131	34.64
854.305	-10.41
854.48	55.12
854.655	26.45
854.83	-16.55
855.005	40.79
855.18	83.8
855.354	5.97
855.529	28.5
855.704	26.45
855.879	24.4
856.053	34.64
856.228	34.64
856.403	8.02
856.577	57.17
856.752	-12.46
856.926	14.17
857.101	30.55
857.276	73.56
857.45	22.36
857.625	55.12
857.799	-12.46
857.974	20.31
858.148	44.88
858.323	32.6
858.497	-10.41
858.672	18.26
858.846	22.36
859.02	51.03
859.195	34.64
859.369	16.21
859.543	38.74
859.718	38.74
859.892	44.88
860.066	102.23
860.241	14.17
860.415	53.08
860.589	12.12
860.763	24.4
860.938	28.5
861.112	36.69
861.286	87.89
861.46	26.45
861.634	18.26
861.808	12.12
861.982	85.84
862.157	36.69
862.331	67.41
862.505	8.02
862.679	8.02
862.853	-14.51
863.027	77.65
863.201	32.6
863.375	53.08
863.549	96.08
863.722	-14.51
863.896	91.99
864.07	-73.9
864.244	-4.27
864.418	-16.55
864.592	55.12
864.766	139.09
864.939	94.04
865.113	32.6
865.287	-8.36
865.461	-22.7
865.634	65.36
865.808	65.36
865.982	53.08
866.156	-49.32
866.329	-6.31
866.503	87.89
866.676	44.88
866.85	-2.22
867.024	22.36
867.197	-4.27
867.371	44.88
867.544	-69.8
867.718	79.7
867.891	18.26
868.065	-28.84
868.238	77.65
868.412	83.8
868.585	42.84
868.759	-71.85
868.932	-51.37
869.105	40.79
869.279	-82.09
869.452	5.97
869.625	-37.03
869.799	22.36
869.972	14.17
870.145	63.32
870.319	8.02
870.492	89.94
870.665	32.6
870.838	10.07
871.011	-32.94
871.185	28.5
871.358	-0.17
871.531	77.65
871.704	-0.17
871.877	-2.22
872.05	63.32
872.223	-6.31
872.396	20.31
872.569	18.26
872.742	26.45
872.915	46.93
873.088	-49.32
873.261	26.45
873.434	61.27
873.607	-20.65
873.78	79.7
873.953	-51.37
874.126	69.46
874.299	3.93
874.471	20.31
874.644	59.22
874.817	10.07
874.99	-26.79
875.163	-24.75
875.335	-4.27
875.508	73.56
875.681	38.74
875.853	65.36
876.026	32.6
876.199	48.98
876.371	1.88
876.544	96.08
876.717	3.93
876.889	14.17
877.062	3.93
877.234	44.88
877.407	38.74
877.579	28.5
877.752	44.88
877.924	12.12
878.097	55.12
878.269	14.17
878.442	12.12
878.614	12.12
878.786	28.5
878.959	40.79
879.131	55.12
879.303	98.13
879.476	3.93
879.648	32.6
879.82	77.65
879.993	-28.84
880.165	38.74
880.337	-12.46
880.509	-39.08
880.681	30.55
880.854	59.22
881.026	-0.17
881.198	114.52
881.37	20.31
881.542	10.07
881.714	-28.84
881.886	38.74
882.058	-12.46
882.23	-30.89
882.402	53.08
882.574	75.6
882.746	-53.42
882.918	16.21
883.09	18.26
883.262	46.93
883.434	22.36
883.606	40.79
883.778	24.4
883.95	20.31
884.122	-6.31
884.293	-4.27
884.465	38.74
884.637	14.17
884.809	34.64
884.98	12.12
885.152	12.12
885.324	26.45
885.496	-28.84
885.667	63.32
885.839	-45.23
886.011	28.5
886.182	44.88
886.354	-2.22
886.525	-10.41
886.697	-59.56
886.869	-96.43
887.04	77.65
887.212	44.88
887.383	46.93
887.555	-14.51
887.726	69.46
887.897	1.88
888.069	46.93
888.24	-34.99
888.412	-0.17
888.583	30.55
888.754	32.6
888.926	-49.32
889.097	-6.31
889.268	73.56
889.44	-10.41
889.611	26.45
889.782	-6.31
889.953	-16.55
890.125	8.02
890.296	-4.27
890.467	22.36
890.638	-0.17
890.809	-55.47
890.98	-37.03
891.151	75.6
891.323	34.64
891.494	116.56
891.665	24.4
891.836	-20.65
892.007	32.6
892.178	5.97
892.349	-30.89
892.52	-2.22
892.691	26.45
892.862	-0.17
893.032	10.07
893.203	124.76
893.374	14.17
893.545	73.56
893.716	-12.46
893.887	-22.7
894.057	-57.51
894.228	-34.99
894.399	-0.17
894.57	34.64
894.74	36.69
894.911	20.31
895.082	-45.23
895.253	-57.51
895.423	79.7
895.594	63.32
895.764	8.02
895.935	-65.71
896.106	42.84
896.276	40.79
896.447	-10.41
896.617	-24.75
896.788	-53.42
896.958	32.6
897.129	-41.13
897.299	10.07
897.47	12.12
897.64	34.64
897.81	-39.08
897.981	10.07
898.151	16.21
898.322	32.6
898.492	59.22
898.662	10.07
898.832	-20.65
899.003	24.4
899.173	57.17
899.343	46.93
899.513	26.45
