Data from USB4F104151__9__11-04-36-476.txt Node

Date: Wed Mar 12 11:04:36 EDT 2025
User: louis
Spectrometer: USB4F10415
Trigger mode: 4
Integration Time (sec): 2.000000E-2
Scans to average: 1
Electric dark correction enabled: true
Nonlinearity correction enabled: false
Boxcar width: 0
XAxis mode: Wavelengths
Number of Pixels in Spectrum: 3648
>>>>>Begin Spectral Data<<<<<
178.204	-55.64
178.424	-55.64
178.644	-55.64
178.864	-129.36
179.084	26.28
179.304	5.8
179.524	-57.68
179.744	-35.16
179.964	-16.73
180.184	44.71
180.404	42.67
180.624	-33.11
180.844	1.71
181.064	5.8
181.283	44.71
181.503	-59.73
181.723	57
181.943	-51.54
182.163	83.63
182.383	18.09
182.602	-0.34
182.822	50.86
183.042	18.09
183.262	-33.11
183.482	38.57
183.701	13.99
183.921	13.99
184.141	38.57
184.361	71.34
184.58	-72.02
184.8	-45.4
185.02	-31.06
185.239	16.04
185.459	26.28
185.679	75.43
185.898	-22.87
186.118	22.19
186.338	-14.68
186.557	7.85
186.777	11.95
186.997	-65.88
187.216	-2.39
187.436	48.81
187.655	-10.58
187.875	54.95
188.095	-39.25
188.314	30.38
188.534	9.9
188.753	-16.73
188.973	-20.82
189.192	50.86
189.412	-6.49
189.631	18.09
189.851	85.67
190.07	-18.77
190.29	50.86
190.509	-12.63
190.729	-51.54
190.948	30.38
191.168	61.1
191.387	28.33
191.607	-10.58
191.826	71.34
192.045	-16.73
192.265	-47.44
192.484	18.09
192.704	69.29
192.923	16.04
193.142	11.95
193.362	-10.58
193.581	40.62
193.8	1.71
194.02	22.19
194.239	26.28
194.458	-6.49
194.678	-26.96
194.897	-20.82
195.116	-39.25
195.335	110.25
195.555	26.28
195.774	50.86
195.993	81.58
196.212	71.34
196.432	-4.44
196.651	22.19
196.87	11.95
197.089	81.58
197.308	50.86
197.528	22.19
197.747	7.85
197.966	-0.34
198.185	38.57
198.404	7.85
198.623	79.53
198.842	34.47
199.062	24.23
199.281	69.29
199.5	22.19
199.719	48.81
199.938	-2.39
200.157	-0.34
200.376	71.34
200.595	-31.06
200.814	40.62
201.033	-0.34
201.252	26.28
201.471	1.71
201.69	-22.87
201.909	59.05
202.128	9.9
202.347	5.8
202.566	-4.44
202.785	-18.77
203.004	9.9
203.223	83.63
203.442	22.19
203.661	-49.49
203.879	79.53
204.098	67.24
204.317	36.52
204.536	44.71
204.755	-20.82
204.974	59.05
205.193	73.39
205.411	71.34
205.63	65.19
205.849	145.06
206.068	26.28
206.287	48.81
206.505	44.71
206.724	26.28
206.943	-6.49
207.162	28.33
207.381	30.38
207.599	-51.54
207.818	11.95
208.037	81.58
208.255	-2.39
208.474	20.14
208.693	5.8
208.911	71.34
209.13	-31.06
209.349	-10.58
209.567	-22.87
209.786	30.38
210.005	-41.3
210.223	54.95
210.442	-51.54
210.661	73.39
210.879	5.8
211.098	65.19
211.316	63.15
211.535	3.75
211.753	59.05
211.972	65.19
212.191	24.23
212.409	-16.73
212.628	-22.87
212.846	-47.44
213.065	67.24
213.283	-24.92
213.502	40.62
213.72	-16.73
213.938	36.52
214.157	9.9
214.375	32.43
214.594	83.63
214.812	-18.77
215.031	40.62
215.249	24.23
215.467	95.91
215.686	46.76
215.904	81.58
216.122	46.76
216.341	32.43
216.559	11.95
216.778	13.99
216.996	30.38
217.214	22.19
217.432	7.85
217.651	1.71
217.869	-0.34
218.087	-67.92
218.306	108.2
218.524	128.68
218.742	-29.01
218.96	34.47
219.179	40.62
219.397	5.8
219.615	-10.58
219.833	30.38
220.051	-49.49
220.27	34.47
220.488	71.34
220.706	-0.34
220.924	32.43
221.142	22.19
221.36	63.15
221.578	-6.49
221.796	34.47
222.015	-20.82
222.233	-10.58
222.451	69.29
222.669	-6.49
222.887	67.24
223.105	-41.3
223.323	26.28
223.541	11.95
223.759	22.19
223.977	7.85
224.195	63.15
224.413	28.33
224.631	3.75
224.849	32.43
225.067	3.75
225.285	75.43
225.503	22.19
225.721	30.38
225.939	97.96
226.157	40.62
226.375	83.63
226.592	91.82
226.81	-47.44
227.028	38.57
227.246	59.05
227.464	-6.49
227.682	50.86
227.9	30.38
228.117	26.28
228.335	36.52
228.553	57
228.771	54.95
228.989	89.77
229.206	16.04
229.424	28.33
229.642	22.19
229.86	-10.58
230.077	18.09
230.295	-2.39
230.513	91.82
230.731	11.95
230.948	83.63
231.166	63.15
231.384	30.38
231.601	48.81
231.819	50.86
232.037	34.47
232.254	38.57
232.472	22.19
232.689	20.14
232.907	59.05
233.125	61.1
233.342	-0.34
233.56	-18.77
233.777	-20.82
233.995	46.76
234.213	22.19
234.43	36.52
234.648	-49.49
234.865	22.19
235.083	-63.83
235.3	42.67
235.518	13.99
235.735	67.24
235.953	40.62
236.17	50.86
236.388	-14.68
236.605	-2.39
236.822	75.43
237.04	11.95
237.257	-14.68
237.475	-4.44
237.692	24.23
237.909	-8.53
238.127	-18.77
238.344	-2.39
238.562	54.95
238.779	-26.96
238.996	24.23
239.214	59.05
239.431	97.96
239.648	-0.34
239.865	57
240.083	32.43
240.3	48.81
240.517	-2.39
240.735	-92.5
240.952	-14.68
241.169	-67.92
241.386	95.91
241.603	59.05
241.821	-6.49
242.038	59.05
242.255	44.71
242.472	114.34
242.689	65.19
242.907	71.34
243.124	13.99
243.341	11.95
243.558	-2.39
243.775	83.63
243.992	-10.58
244.209	95.91
244.426	38.57
244.643	-4.44
244.86	-4.44
245.078	3.75
245.295	46.76
245.512	-14.68
245.729	50.86
245.946	102.06
246.163	67.24
246.38	20.14
246.597	91.82
246.814	57
247.031	-24.92
247.248	13.99
247.464	40.62
247.681	87.72
247.898	71.34
248.115	73.39
248.332	22.19
248.549	87.72
248.766	112.3
248.983	67.24
249.2	97.96
249.417	13.99
249.633	65.19
249.85	20.14
250.067	16.04
250.284	-2.39
250.501	46.76
250.717	20.14
250.934	-29.01
251.151	16.04
251.368	44.71
251.585	-8.53
251.801	-16.73
252.018	46.76
252.235	63.15
252.451	54.95
252.668	-6.49
252.885	85.67
253.102	102.06
253.318	24.23
253.535	77.48
253.752	-74.07
253.968	-0.34
254.185	11.95
254.401	-31.06
254.618	7.85
254.835	-0.34
255.051	63.15
255.268	81.58
255.484	-14.68
255.701	36.52
255.917	18.09
256.134	-14.68
256.351	63.15
256.567	30.38
256.784	5.8
257	22.19
257.217	89.77
257.433	7.85
257.65	65.19
257.866	102.06
258.082	3.75
258.299	83.63
258.515	36.52
258.732	20.14
258.948	54.95
259.165	38.57
259.381	13.99
259.597	9.9
259.814	-14.68
260.03	5.8
260.246	69.29
260.463	87.72
260.679	69.29
260.895	22.19
261.112	-10.58
261.328	38.57
261.544	112.3
261.761	20.14
261.977	7.85
262.193	44.71
262.409	89.77
262.626	18.09
262.842	-2.39
263.058	11.95
263.274	67.24
263.49	85.67
263.707	100.01
263.923	42.67
264.139	32.43
264.355	126.63
264.571	22.19
264.787	-18.77
265.004	57
265.22	91.82
265.436	-22.87
265.652	83.63
265.868	46.76
266.084	-57.68
266.3	-4.44
266.516	-14.68
266.732	106.15
266.948	48.81
267.164	42.67
267.38	59.05
267.596	-10.58
267.812	24.23
268.028	83.63
268.244	-2.39
268.46	132.78
268.676	61.1
268.892	40.62
269.108	-24.92
269.324	-6.49
269.54	7.85
269.756	71.34
269.972	44.71
270.188	38.57
270.403	-10.58
270.619	-6.49
270.835	79.53
271.051	71.34
271.267	-51.54
271.483	36.52
271.698	61.1
271.914	57
272.13	-6.49
272.346	40.62
272.562	46.76
272.777	38.57
272.993	38.57
273.209	30.38
273.425	42.67
273.64	-2.39
273.856	69.29
274.072	38.57
274.287	-16.73
274.503	57
274.719	79.53
274.934	9.9
275.15	81.58
275.366	32.43
275.581	46.76
275.797	13.99
276.012	30.38
276.228	-20.82
276.444	-2.39
276.659	-22.87
276.875	13.99
277.09	13.99
277.306	-6.49
277.521	126.63
277.737	20.14
277.952	30.38
278.168	83.63
278.383	-10.58
278.599	110.25
278.814	42.67
279.03	-2.39
279.245	126.63
279.461	34.47
279.676	40.62
279.892	59.05
280.107	-18.77
280.322	83.63
280.538	-49.49
280.753	7.85
280.969	34.47
281.184	9.9
281.399	26.28
281.615	16.04
281.83	104.11
282.045	30.38
282.26	24.23
282.476	-8.53
282.691	-12.63
282.906	-45.4
283.122	42.67
283.337	87.72
283.552	75.43
283.767	28.33
283.983	30.38
284.198	-10.58
284.413	-10.58
284.628	-0.34
284.843	63.15
285.058	-41.3
285.274	69.29
285.489	-18.77
285.704	100.01
285.919	5.8
286.134	13.99
286.349	61.1
286.564	16.04
286.779	48.81
286.995	38.57
287.21	9.9
287.425	52.91
287.64	91.82
287.855	32.43
288.07	-6.49
288.285	97.96
288.5	50.86
288.715	11.95
288.93	32.43
289.145	40.62
289.36	28.33
289.575	-12.63
289.79	112.3
290.004	42.67
290.219	-8.53
290.434	16.04
290.649	24.23
290.864	-41.3
291.079	83.63
291.294	22.19
291.509	34.47
291.724	91.82
291.938	38.57
292.153	22.19
292.368	-51.54
292.583	22.19
292.798	38.57
293.012	59.05
293.227	24.23
293.442	81.58
293.657	30.38
293.871	77.48
294.086	46.76
294.301	38.57
294.516	42.67
294.73	22.19
294.945	30.38
295.16	1.71
295.374	114.34
295.589	36.52
295.804	104.11
296.018	-12.63
296.233	57
296.447	28.33
296.662	32.43
296.877	71.34
297.091	42.67
297.306	85.67
297.52	46.76
297.735	-14.68
297.949	26.28
298.164	57
298.378	-43.35
298.593	-0.34
298.807	22.19
299.022	46.76
299.236	28.33
299.451	24.23
299.665	-12.63
299.88	46.76
300.094	-2.39
300.309	48.81
300.523	-20.82
300.737	32.43
300.952	24.23
301.166	11.95
301.381	13.99
301.595	81.58
301.809	9.9
302.024	-14.68
302.238	7.85
302.452	100.01
302.667	38.57
302.881	28.33
303.095	54.95
303.309	50.86
303.524	57
303.738	-12.63
303.952	-0.34
304.166	89.77
304.381	34.47
304.595	67.24
304.809	36.52
305.023	40.62
305.237	40.62
305.452	83.63
305.666	32.43
305.88	44.71
306.094	67.24
306.308	108.2
306.522	52.91
306.736	40.62
306.95	67.24
307.164	20.14
307.379	22.19
307.593	-12.63
307.807	11.95
308.021	44.71
308.235	50.86
308.449	1.71
308.663	11.95
308.877	120.49
309.091	-26.96
309.305	93.87
309.519	52.91
309.733	89.77
309.947	-59.73
310.161	145.06
310.374	-20.82
310.588	95.91
310.802	-2.39
311.016	67.24
311.23	-8.53
311.444	-55.64
311.658	20.14
311.872	83.63
312.085	46.76
312.299	83.63
312.513	77.48
312.727	50.86
312.941	75.43
313.154	65.19
313.368	61.1
313.582	42.67
313.796	136.87
314.009	34.47
314.223	104.11
314.437	102.06
314.651	54.95
314.864	7.85
315.078	50.86
315.292	87.72
315.505	-63.83
315.719	16.04
315.933	59.05
316.146	30.38
316.36	-53.59
316.573	50.86
316.787	-51.54
317.001	69.29
317.214	-14.68
317.428	67.24
317.641	-35.16
317.855	1.71
318.068	13.99
318.282	16.04
318.495	28.33
318.709	7.85
318.922	26.28
319.136	83.63
319.349	87.72
319.563	-0.34
319.776	91.82
319.99	77.48
320.203	87.72
320.417	44.71
320.63	87.72
320.843	30.38
321.057	69.29
321.27	-12.63
321.483	-12.63
321.697	77.48
321.91	102.06
322.124	54.95
322.337	46.76
322.55	22.19
322.763	61.1
322.977	83.63
323.19	7.85
323.403	-4.44
323.617	11.95
323.83	22.19
324.043	-10.58
324.256	118.44
324.469	7.85
324.683	36.52
324.896	26.28
325.109	26.28
325.322	50.86
325.535	40.62
325.748	-8.53
325.962	36.52
326.175	30.38
326.388	63.15
326.601	11.95
326.814	7.85
327.027	22.19
327.24	67.24
327.453	-61.78
327.666	-10.58
327.879	59.05
328.092	91.82
328.305	-4.44
328.518	67.24
328.731	36.52
328.944	26.28
329.157	9.9
329.37	65.19
329.583	38.57
329.796	100.01
330.009	50.86
330.222	77.48
330.435	3.75
330.648	77.48
330.861	77.48
331.073	30.38
331.286	128.68
331.499	-16.73
331.712	16.04
331.925	59.05
332.138	18.09
332.35	106.15
332.563	54.95
332.776	34.47
332.989	11.95
333.202	95.91
333.414	61.1
333.627	124.58
333.84	44.71
334.053	52.91
334.265	46.76
334.478	63.15
334.691	83.63
334.903	63.15
335.116	13.99
335.329	85.67
335.541	83.63
335.754	63.15
335.966	38.57
336.179	46.76
336.392	32.43
336.604	48.81
336.817	173.74
337.029	97.96
337.242	75.43
337.454	18.09
337.667	48.81
337.88	126.63
338.092	9.9
338.305	5.8
338.517	22.19
338.729	65.19
338.942	24.23
339.154	32.43
339.367	-53.59
339.579	-20.82
339.792	30.38
340.004	42.67
340.217	54.95
340.429	81.58
340.641	91.82
340.854	-16.73
341.066	13.99
341.278	100.01
341.491	108.2
341.703	61.1
341.915	24.23
342.128	52.91
342.34	34.47
342.552	69.29
342.764	54.95
342.977	26.28
343.189	-12.63
343.401	140.97
343.613	-2.39
343.826	114.34
344.038	22.19
344.25	-2.39
344.462	46.76
344.674	73.39
344.886	104.11
345.099	75.43
345.311	-2.39
345.523	-18.77
345.735	16.04
345.947	81.58
346.159	93.87
346.371	22.19
346.583	79.53
346.795	83.63
347.007	85.67
347.219	36.52
347.431	-35.16
347.643	50.86
347.855	-12.63
348.067	59.05
348.279	46.76
348.491	28.33
348.703	5.8
348.915	5.8
349.127	71.34
349.339	110.25
349.551	44.71
349.763	75.43
349.975	61.1
350.187	71.34
350.399	81.58
350.61	34.47
350.822	87.72
351.034	124.58
351.246	114.34
351.458	87.72
351.669	46.76
351.881	22.19
352.093	61.1
352.305	116.39
352.517	73.39
352.728	-2.39
352.94	1.71
353.152	42.67
353.363	50.86
353.575	20.14
353.787	32.43
353.999	32.43
354.21	44.71
354.422	54.95
354.633	-14.68
354.845	110.25
355.057	71.34
355.268	42.67
355.48	48.81
355.692	48.81
355.903	-96.6
356.115	159.4
356.326	36.52
356.538	73.39
356.749	79.53
356.961	85.67
357.172	11.95
357.384	81.58
357.595	20.14
357.807	79.53
358.018	20.14
358.23	-47.44
358.441	118.44
358.653	71.34
358.864	11.95
359.075	89.77
359.287	30.38
359.498	136.87
359.709	91.82
359.921	75.43
360.132	50.86
360.344	65.19
360.555	-31.06
360.766	44.71
360.977	-4.44
361.189	-0.34
361.4	18.09
361.611	145.06
361.823	38.57
362.034	67.24
362.245	-12.63
362.456	75.43
362.667	65.19
362.879	69.29
363.09	38.57
363.301	46.76
363.512	67.24
363.723	102.06
363.935	67.24
364.146	44.71
364.357	34.47
364.568	71.34
364.779	36.52
364.99	50.86
365.201	-45.4
365.412	75.43
365.623	59.05
365.834	143.02
366.045	104.11
366.256	48.81
366.467	122.54
366.678	95.91
366.889	22.19
367.1	91.82
367.311	44.71
367.522	44.71
367.733	28.33
367.944	93.87
368.155	22.19
368.366	42.67
368.577	69.29
368.788	79.53
368.999	91.82
369.209	-24.92
369.42	143.02
369.631	122.54
369.842	20.14
370.053	93.87
370.264	16.04
370.474	65.19
370.685	22.19
370.896	16.04
371.107	91.82
371.317	77.48
371.528	83.63
371.739	75.43
371.95	61.1
372.16	91.82
372.371	-6.49
372.582	46.76
372.792	54.95
373.003	7.85
373.214	77.48
373.424	50.86
373.635	-4.44
373.846	34.47
374.056	-6.49
374.267	198.31
374.477	48.81
374.688	44.71
374.898	20.14
375.109	93.87
375.319	42.67
375.53	67.24
375.74	13.99
375.951	-16.73
376.161	36.52
376.372	95.91
376.582	67.24
376.793	52.91
377.003	-2.39
377.214	77.48
377.424	57
377.635	57
377.845	97.96
378.055	104.11
378.266	46.76
378.476	38.57
378.686	108.2
378.897	38.57
379.107	22.19
379.317	140.97
379.528	93.87
379.738	108.2
379.948	22.19
380.158	11.95
380.369	79.53
380.579	97.96
380.789	71.34
380.999	106.15
381.21	67.24
381.42	116.39
381.63	97.96
381.84	32.43
382.05	124.58
382.261	65.19
382.471	114.34
382.681	20.14
382.891	50.86
383.101	97.96
383.311	75.43
383.521	52.91
383.731	24.23
383.941	100.01
384.151	69.29
384.361	91.82
384.571	87.72
384.781	-10.58
384.991	106.15
385.201	-18.77
385.411	79.53
385.621	69.29
385.831	69.29
386.041	67.24
386.251	50.86
386.461	75.43
386.671	52.91
386.881	95.91
387.091	73.39
387.301	91.82
387.511	120.49
387.72	63.15
387.93	44.71
388.14	34.47
388.35	138.92
388.56	75.43
388.769	110.25
388.979	73.39
389.189	9.9
389.399	75.43
389.609	16.04
389.818	61.1
390.028	32.43
390.238	114.34
390.447	110.25
390.657	83.63
390.867	42.67
391.076	126.63
391.286	30.38
391.496	44.71
391.705	22.19
391.915	116.39
392.125	71.34
392.334	153.26
392.544	100.01
392.753	200.36
392.963	44.71
393.172	75.43
393.382	97.96
393.591	118.44
393.801	97.96
394.01	44.71
394.22	118.44
394.429	44.71
394.639	95.91
394.848	116.39
395.058	79.53
395.267	30.38
395.477	71.34
395.686	79.53
395.895	177.83
396.105	198.31
396.314	120.49
396.524	106.15
396.733	93.87
396.942	151.21
397.152	61.1
397.361	83.63
397.57	89.77
397.78	97.96
397.989	75.43
398.198	145.06
398.407	132.78
398.617	163.5
398.826	79.53
399.035	87.72
399.244	116.39
399.453	91.82
399.663	163.5
399.872	104.11
400.081	102.06
400.29	149.16
400.499	38.57
400.708	177.83
400.917	100.01
401.127	83.63
401.336	73.39
401.545	220.84
401.754	165.54
401.963	151.21
402.172	65.19
402.381	190.12
402.59	155.3
402.799	157.35
403.008	171.69
403.217	165.54
403.426	161.45
403.635	155.3
403.844	143.02
404.053	181.93
404.262	116.39
404.471	130.73
404.68	124.58
404.888	177.83
405.097	151.21
405.306	77.48
405.515	171.69
405.724	157.35
405.933	190.12
406.142	190.12
406.35	192.17
406.559	224.94
406.768	194.22
406.977	233.13
407.185	173.74
407.394	186.02
407.603	194.22
407.812	194.22
408.02	263.85
408.229	229.03
408.438	267.94
408.646	282.28
408.855	282.28
409.064	304.81
409.272	343.72
409.481	339.62
409.69	298.66
409.898	272.04
410.107	353.96
410.315	321.19
410.524	333.48
410.733	286.37
410.941	407.2
411.15	401.06
411.358	470.69
411.567	472.74
411.775	452.26
411.984	442.02
412.192	558.75
412.401	505.51
412.609	509.6
412.818	503.46
413.026	577.19
413.234	607.91
413.443	575.14
413.651	632.48
413.86	573.09
414.068	728.74
414.276	710.3
414.485	685.73
414.693	734.88
414.901	837.28
415.11	843.42
415.318	798.37
415.526	845.47
415.734	906.91
415.943	890.53
416.151	947.87
416.359	958.11
416.567	908.96
416.776	978.59
416.984	1044.12
417.192	1195.67
417.4	1052.31
417.608	1109.66
417.817	1263.26
418.025	1181.34
418.233	1228.44
418.441	1248.92
418.649	1339.03
418.857	1472.15
419.065	1490.58
419.273	1509.01
419.481	1566.35
419.689	1638.03
419.897	1715.86
420.105	1765.01
420.313	1842.83
420.521	1861.26
420.729	1885.84
420.937	1846.93
421.145	2031.24
421.353	2010.76
421.561	2182.79
421.769	2320.01
421.977	2391.69
422.185	2291.34
422.393	2535.04
422.601	2500.23
422.809	2612.87
423.017	2633.35
423.224	2821.76
423.432	2997.88
423.64	2963.07
423.848	3196.54
424.056	3096.19
424.263	3366.52
424.471	3376.76
424.679	3427.96
424.887	3548.79
425.094	3657.33
425.302	3602.04
425.51	3798.64
425.718	3884.66
425.925	3884.66
426.133	4028.01
426.341	4302.44
426.548	4439.65
426.756	4685.41
426.964	4605.54
427.171	4898.4
427.379	5146.2
427.586	5119.58
427.794	5111.39
428.001	5463.64
428.209	5715.54
428.417	5525.08
428.624	5989.97
428.832	6002.26
429.039	6071.89
429.247	5994.06
429.454	6637.13
429.662	7016
429.869	6417.99
430.076	6917.7
430.284	6805.06
430.491	7024.19
430.699	7470.65
430.906	7532.09
431.114	7724.6
431.321	7986.74
431.528	8146.48
431.736	8635.94
431.943	9023.01
432.15	8775.2
432.358	8936.99
432.565	9414.17
432.772	9389.6
432.979	9895.44
433.187	10028.56
433.394	10075.66
433.601	10565.13
433.808	10761.73
434.016	10604.04
434.223	11163.14
434.43	11929.08
434.637	11499
434.844	12344.81
435.052	12725.74
435.259	12164.59
435.466	12555.76
435.673	12451.31
435.88	13164
436.087	14018
436.294	13895.13
436.501	13645.27
436.708	14224.85
436.915	14503.37
437.122	14853.58
437.329	15003.08
437.537	15357.38
437.743	15730.11
437.95	15574.46
438.157	16375.22
438.364	16915.88
438.571	17057.19
438.778	16887.21
438.985	18881.93
439.192	17993.11
439.399	18570.64
439.606	17962.39
439.813	18943.37
440.02	20079.99
440.227	19750.27
440.433	20004.22
440.64	20690.29
440.847	20155.77
441.054	20872.56
441.261	22394.2
441.467	22152.54
441.674	22230.36
441.881	23283.02
442.088	23244.1
442.294	23065.93
442.501	23465.28
442.708	24210.75
442.914	25177.39
443.121	25736.48
443.328	25236.78
443.534	27094.29
443.741	26297.63
443.948	26019.1
444.154	27430.15
444.361	27819.27
444.568	27706.63
444.774	27921.66
444.981	28079.36
445.187	28919.03
445.394	30248.16
445.6	29916.39
445.807	33186.99
446.013	31362.25
446.22	31698.12
446.426	32992.44
446.633	33447.08
446.839	34634.91
447.046	32931
447.252	34780.31
447.459	34892.95
447.665	34831.51
447.871	36232.32
448.078	38106.21
448.284	36201.6
448.491	36848.76
448.697	38098.02
448.903	39003.22
449.11	39304.27
449.316	38327.39
449.522	39134.29
449.728	39763.02
449.935	40551.49
450.141	40483.9
450.347	40557.63
450.553	39941.19
450.76	40307.78
450.966	41290.8
451.172	40823.87
451.378	41737.26
451.584	40934.46
451.791	42011.69
451.997	41866.28
452.203	42179.62
452.409	42492.96
452.615	42353.7
452.821	40639.55
453.027	40014.92
453.233	41880.62
453.44	39826.51
453.646	40553.54
453.852	40733.76
454.058	41475.12
454.264	39904.33
454.47	40778.81
454.676	40084.55
454.882	41151.54
455.088	37547.12
455.294	37971.05
455.5	38528.09
455.705	39042.13
455.911	37287.03
456.117	36471.93
456.323	36101.25
456.529	33924.26
456.735	35413.13
456.941	34290.85
457.147	33967.27
457.352	33086.64
457.558	32476.35
457.764	32449.72
457.97	31933.64
458.176	31450.31
458.381	30973.14
458.587	29410.54
458.793	29553.9
458.999	28067.07
459.204	29785.32
459.41	29437.16
459.616	27385.1
459.821	27329.8
460.027	27127.05
460.233	26486.04
460.438	25298.22
460.644	25709.86
460.85	24513.84
461.055	23997.76
461.261	23551.3
461.466	22117.72
461.672	21382.5
461.878	22957.39
462.083	21339.49
462.289	21060.97
462.494	20940.14
462.7	20272.5
462.905	19479.94
463.111	20243.83
463.316	20282.74
463.522	19803.52
463.727	19981.69
463.932	19754.37
464.138	19707.26
464.343	19709.31
464.549	19168.65
464.754	19893.63
464.959	19676.54
465.165	19305.86
465.37	18728.33
465.575	18109.85
465.781	18896.27
465.986	19213.7
466.191	18132.37
466.397	17993.11
466.602	17345.95
466.807	17710.49
467.012	17911.19
467.218	17704.35
467.423	17550.75
467.628	17532.32
467.833	18328.98
468.038	17546.65
468.244	17110.44
468.449	17696.16
468.654	17288.61
468.859	17005.99
469.064	17014.18
469.269	16448.94
469.474	16494
469.679	16709.04
469.885	16426.42
470.09	16524.72
470.295	16229.81
470.5	15986.1
470.705	15812.03
470.91	15607.23
471.115	15490.49
471.32	15824.31
471.525	15560.13
471.73	15302.08
471.935	14925.25
472.139	14566.86
472.344	14833.1
472.549	14486.99
472.754	14742.99
472.959	14054.87
473.164	13743.58
473.369	13872.6
473.574	14040.53
473.778	14126.55
473.983	13917.65
474.188	13952.47
474.393	13540.83
474.598	13460.96
474.802	13055.46
475.007	12756.46
475.212	13014.5
475.417	12584.43
475.621	12467.69
475.826	12633.58
476.031	12426.73
476.235	12109.3
476.44	12514.8
476.645	12240.37
476.849	12168.69
477.054	12060.15
477.259	11791.86
477.463	11896.31
477.668	11580.92
477.872	11681.27
478.077	11433.47
478.282	11257.34
478.486	11226.62
478.691	10995.2
478.895	11003.39
479.1	11007.49
479.304	10962.44
479.509	10630.66
479.713	10798.6
479.918	10468.87
480.122	10548.75
480.326	10735.11
480.531	10655.24
480.735	10561.03
480.94	10360.33
481.144	10870.28
481.348	10311.18
481.553	10331.66
481.757	9960.98
481.961	10270.22
482.166	10429.96
482.37	10346
482.574	10245.65
482.778	10212.88
482.983	10409.48
483.187	10116.62
483.391	10470.92
483.595	10194.45
483.8	10141.2
484.004	10268.17
484.208	10466.83
484.412	10163.73
484.616	10343.95
484.821	10300.94
485.025	9975.31
485.229	10247.69
485.433	10292.75
485.637	10114.58
485.841	10389
486.045	10143.25
486.249	10128.91
486.453	10137.1
486.657	10090
486.861	10294.8
487.065	10118.67
487.269	9991.7
487.473	10235.41
487.677	10401.29
487.881	10313.23
488.085	9971.22
488.289	10194.45
488.493	9975.31
488.697	10200.59
488.901	10245.65
489.105	10266.13
489.309	10126.86
489.512	10360.33
489.716	10106.38
489.92	10186.26
490.124	10356.24
490.328	10389
490.531	10294.8
490.735	10528.27
490.939	10606.09
491.143	10458.64
491.346	10669.58
491.55	10585.61
491.754	10606.09
491.958	10573.32
492.161	10468.87
492.365	10722.82
492.569	10704.39
492.772	10808.84
492.976	10878.47
493.18	10790.41
493.383	11165.18
493.587	11228.67
493.79	11042.31
493.994	11261.44
494.197	11222.53
494.401	11404.8
494.605	11402.75
494.808	11744.76
495.012	11783.67
495.215	11640.31
495.419	11757.05
495.622	11884.02
495.825	11916.79
496.029	12060.15
496.232	12207.6
496.436	12283.38
496.639	12363.25
496.843	12350.96
497.046	12785.13
497.249	12881.38
497.453	12940.77
497.656	12695.02
497.859	13096.42
498.063	13073.89
498.266	13309.41
498.469	13348.32
498.673	13491.68
498.876	13708.76
499.079	13882.84
499.282	13864.41
499.485	14192.08
499.689	14245.33
499.892	14403.02
500.095	14669.26
500.298	14863.82
500.501	14534.09
500.705	15154.63
500.908	15275.46
501.111	15748.54
501.314	15603.13
501.517	15904.18
501.72	16137.65
501.923	15992.25
502.126	16371.12
502.329	16555.44
502.532	16461.23
502.735	16737.71
502.938	16983.46
503.141	16997.8
503.344	17618.33
503.547	17354.15
503.75	17857.95
503.953	17966.49
504.156	18054.55
504.359	18122.13
504.562	17991.06
504.765	18703.76
504.968	18867.59
505.17	19082.63
505.373	19074.44
505.576	19867
505.779	19582.34
505.982	19606.91
506.185	20192.63
506.387	20477.3
506.59	20483.44
506.793	20837.74
506.996	20577.65
507.198	21235.05
507.401	21439.84
507.604	21478.75
507.807	21652.83
508.009	21857.63
508.212	22134.1
508.415	22525.27
508.617	22930.76
508.82	22814.03
509.022	22938.96
509.225	23123.27
509.428	23420.23
509.63	23848.25
509.833	23788.86
510.035	24458.55
510.238	24354.1
510.44	24702.26
510.643	24972.59
510.845	25378.09
511.048	25005.36
511.25	25738.53
511.453	25818.4
511.655	26676.5
511.858	26340.63
512.06	26764.56
512.262	26836.24
512.465	27196.68
512.667	27211.02
512.87	27813.12
513.072	27804.93
513.274	28370.17
513.477	28431.61
513.679	28484.86
513.881	29295.85
514.084	29179.12
514.286	29226.22
514.488	29740.26
514.69	30442.71
514.893	30547.16
515.095	30663.89
515.297	31067.34
515.499	30962.9
515.701	31700.17
515.904	31734.98
516.106	32124.1
516.308	32488.63
516.51	32728.25
516.712	32992.44
516.914	33088.69
517.116	33705.13
517.318	33920.17
517.52	33842.34
517.722	33914.02
517.925	34362.53
518.127	34858.13
518.329	35335.31
518.531	34946.2
518.733	36113.54
518.935	36095.11
519.136	36048
519.338	36693.11
519.54	36934.78
519.742	37088.37
519.944	37209.2
520.146	37887.08
520.348	38263.91
520.55	38636.64
520.752	38915.16
520.954	39291.99
521.155	38812.76
521.357	39687.25
521.559	40039.5
521.761	40242.24
521.963	40105.03
522.164	40371.27
522.366	40795.2
522.568	41155.64
522.77	41440.31
522.971	42036.27
523.173	41292.85
523.375	42433.57
523.576	42032.17
523.778	42652.7
523.98	43105.3
524.181	42978.33
524.383	42818.59
524.584	43424.79
524.786	43863.05
524.988	43664.4
525.189	44346.37
525.391	44506.12
525.592	44753.92
525.794	44985.34
525.995	44940.28
526.197	44919.81
526.398	45083.64
526.6	45530.1
526.801	45765.62
527.003	46064.62
527.204	45894.64
527.406	46296.04
527.607	46111.72
527.808	46529.51
528.01	45929.45
528.211	46308.33
528.412	47363.03
528.614	47145.95
528.815	47393.75
529.016	47971.28
529.218	47012.83
529.419	47586.26
529.62	47641.56
529.822	47801.3
530.023	47625.17
530.224	47930.32
530.425	47627.22
530.626	47705.04
530.828	47393.75
531.029	48548.81
531.23	48606.15
531.431	48137.16
531.632	48139.21
531.833	48618.44
532.035	48569.29
532.236	48358.34
532.437	48817.09
532.638	48673.73
532.839	48982.98
533.04	48933.82
533.241	48276.43
533.442	49478.58
533.643	48964.54
533.844	48532.42
534.045	48788.42
534.246	48929.73
534.447	49089.47
534.648	48686.02
534.849	49101.76
535.05	48856
535.251	49087.42
535.451	49034.17
535.652	49411
535.853	49388.47
536.054	49187.77
536.255	49081.28
536.456	48710.6
536.657	49705.91
536.857	49171.39
537.058	49025.98
537.259	49593.27
537.46	49175.48
537.66	48659.4
537.861	49198.01
538.062	48860.1
538.263	49601.46
538.463	49226.68
538.664	49255.36
538.865	49161.15
539.065	49617.85
539.266	49122.24
539.466	49763.25
539.667	48567.24
539.868	49621.94
540.068	49195.96
540.269	48921.54
540.469	49183.68
540.67	48853.95
540.87	48858.05
541.071	48677.83
541.271	49025.98
541.472	48991.17
541.672	48626.63
541.873	48888.77
542.073	48362.44
542.274	49333.18
542.474	48612.29
542.675	48380.87
542.875	49421.24
543.075	48798.66
543.276	48382.92
543.476	49509.3
543.676	48653.25
543.877	48821.19
544.077	48614.34
544.277	49046.46
544.478	48858.05
544.678	48970.69
544.878	48733.12
545.078	48786.37
545.279	48618.44
545.479	48319.43
545.679	48567.24
545.879	48647.11
546.079	48796.61
546.28	48577.48
546.48	48321.48
546.68	48778.18
546.88	49095.61
547.08	48507.85
547.28	48597.96
547.48	48045.01
547.68	48419.78
547.88	48421.83
548.081	48899.01
548.281	48466.89
548.481	48536.52
548.681	48784.32
548.881	48393.16
549.081	48292.81
549.28	48085.96
549.48	49032.13
549.68	48251.85
549.88	49300.41
550.08	48004.05
550.28	48221.13
550.48	48112.59
550.68	48735.17
550.88	48247.75
551.08	48231.37
551.279	47801.3
551.479	47981.52
551.679	48255.95
551.879	48135.12
552.079	48061.39
552.278	48016.33
552.478	48380.87
552.678	48116.68
552.878	48610.24
553.077	47875.02
553.277	47299.54
553.477	47858.64
553.676	47819.73
553.876	47868.88
554.076	47447
554.275	47598.55
554.475	47064.03
554.674	47690.71
554.874	47467.48
555.074	47684.56
555.273	47635.41
555.473	47858.64
555.672	47410.14
555.872	47578.07
556.071	47762.39
556.271	47182.81
556.47	47373.27
556.67	46810.08
556.869	47025.12
557.068	47242.2
557.268	46697.44
557.467	47090.65
557.667	47055.84
557.866	46660.58
558.065	46996.45
558.265	46779.36
558.464	46420.97
558.663	46826.46
558.863	46173.16
559.062	46924.77
559.261	46054.38
559.461	47170.52
559.66	46173.16
559.859	46447.59
560.058	46134.25
560.258	46205.93
560.457	45800.43
560.656	46255.08
560.855	45945.84
561.054	45736.94
561.253	45849.58
561.453	45865.97
561.652	45509.62
561.851	45636.59
562.05	45480.95
562.249	45112.31
562.448	45532.15
562.647	45272.06
562.846	44850.17
563.045	45120.51
563.244	45042.68
563.443	45505.52
563.642	44426.24
563.841	44612.61
564.04	43932.68
564.239	44923.9
564.438	44370.95
564.637	44631.04
564.836	44303.37
565.035	44008.46
565.234	44506.12
565.432	43818
565.631	43598.87
565.83	43639.82
566.029	43838.48
566.228	43813.9
566.427	43381.78
566.625	43007
566.824	42771.49
567.023	43271.19
567.222	42656.8
567.42	43602.96
567.619	42646.56
567.818	42617.89
568.016	42585.12
568.215	42961.95
568.414	42329.12
568.612	42550.31
568.811	42097.7
569.01	42548.26
569.208	41815.08
569.407	42126.38
569.605	41518.13
569.804	41980.97
570.002	41507.89
570.201	41524.27
570.4	41552.94
570.598	41292.85
570.797	41294.9
570.995	41468.98
571.193	40729.66
571.392	40991.8
571.59	40895.55
571.789	40684.61
571.987	40606.78
572.186	40942.65
572.384	40361.03
572.582	40543.3
572.781	40412.23
572.979	39871.56
573.177	39896.14
573.376	40117.32
573.574	39709.77
573.772	40049.74
573.971	39699.53
574.169	39169.11
574.367	38999.13
574.565	39410.77
574.763	39191.64
574.962	39115.86
575.16	38759.52
575.358	39314.51
575.556	38460.51
575.754	38909.02
575.952	38427.74
576.151	38638.69
576.349	37921.9
576.547	38362.21
576.745	38083.69
576.943	38190.18
577.141	37643.37
577.339	38157.41
577.537	37848.17
577.735	37848.17
577.933	37334.13
578.131	37493.87
578.329	37383.28
578.527	37252.21
578.725	37031.03
578.923	37358.7
579.121	36985.97
579.319	36734.07
579.516	37059.7
579.714	36650.11
579.912	36267.14
580.11	36449.41
580.308	36496.51
580.506	36412.54
580.704	35699.85
580.901	36050.05
581.099	35964.04
581.297	35933.32
581.495	35873.93
581.692	35673.23
581.89	35447.95
582.088	35472.53
582.285	35216.53
582.483	35675.27
582.681	35259.54
582.878	35136.66
583.076	34749.59
583.274	34933.91
583.471	34555.04
583.669	35009.68
583.866	34595.99
584.064	34751.64
584.262	34141.35
584.459	34495.64
584.657	34186.4
584.854	34452.64
585.052	33709.22
585.249	34106.53
585.447	34217.12
585.644	33676.46
585.841	33510.57
586.039	34026.66
586.236	33227.95
586.434	33164.46
586.631	33375.41
586.828	33416.36
587.026	33582.25
587.223	32689.34
587.42	32765.11
587.618	32756.92
587.815	32345.28
588.012	32550.07
588.21	32539.83
588.407	32988.34
588.604	32582.84
588.801	32326.85
588.999	32345.28
589.196	31886.53
589.393	32103.62
589.59	32017.6
589.787	31753.41
589.984	31739.08
590.182	31442.12
590.379	31728.84
590.576	31063.25
590.773	31390.92
590.97	31306.96
591.167	31601.86
591.364	30715.09
591.561	31169.74
591.758	30840.02
591.955	30983.38
592.152	31087.82
592.349	30551.26
592.546	30524.63
592.743	30637.27
592.94	29789.41
593.137	30305.5
593.334	30377.18
593.531	30115.04
593.727	29887.71
593.924	30022.88
594.121	29271.28
594.318	29936.87
594.515	29469.93
594.712	29973.73
594.908	29852.9
595.105	29537.51
595.302	29469.93
595.499	29586.66
595.696	29279.47
595.892	28617.97
596.089	29064.43
596.286	28984.56
596.482	28650.74
596.679	29127.92
596.876	28601.59
597.072	28452.09
597.269	28288.25
597.466	28366.07
597.662	28036.35
597.859	28460.28
598.055	28304.63
598.252	28052.73
598.448	28157.18
598.645	27639.04
598.841	27340.04
599.038	27618.57
599.234	27491.59
599.431	27405.58
599.627	27000.08
599.824	27606.28
600.02	27063.57
600.217	27464.97
600.413	27016.46
600.609	27299.08
600.806	26873.1
601.002	26871.06
601.198	26875.15
601.395	26481.94
601.591	26737.94
601.787	26553.62
601.984	26318.11
602.18	26459.41
602.376	26021.15
602.572	26258.71
602.769	26187.04
602.965	25861.41
603.161	25984.29
603.357	25980.19
603.553	25623.84
603.75	25953.57
603.946	25615.65
604.142	25429.29
604.338	25347.37
604.534	25668.9
604.73	25249.07
604.926	25054.51
605.122	25292.07
605.318	24948.01
605.514	24634.67
605.71	25050.41
605.906	24878.38
606.102	24735.03
606.298	24382.77
606.494	24775.98
606.69	24700.21
606.886	24573.24
607.082	24505.65
607.278	24427.83
607.474	24048.96
607.67	24360.25
607.866	23958.85
608.062	24198.46
608.257	23989.56
608.453	24118.59
608.649	24380.73
608.845	23692.61
609.041	23745.86
609.236	23969.08
609.432	23760.19
609.628	23592.26
609.824	23463.24
610.019	23647.55
610.215	23657.79
610.411	23846.21
610.606	23172.43
610.802	23555.4
610.998	23622.98
611.193	23350.6
611.389	23274.82
611.584	23536.96
611.78	22957.39
611.976	23184.71
612.171	23092.55
612.367	22828.37
612.562	22807.89
612.758	22734.16
612.953	22537.55
613.149	22951.24
613.344	22394.2
613.539	22969.68
613.735	22547.79
613.93	22588.75
614.126	22508.88
614.321	22799.69
614.517	22461.78
614.712	22506.84
614.907	22070.62
615.103	22289.75
615.298	21953.88
615.493	22297.94
615.688	21992.8
615.884	22299.99
616.079	22017.37
616.274	22173.02
616.47	21968.22
616.665	22211.93
616.86	21683.55
617.055	21802.33
617.25	21450.08
617.445	21775.71
617.641	21239.14
617.836	21697.89
618.031	21398.88
618.226	21669.22
618.421	21218.66
618.616	21456.23
618.811	21044.59
619.006	21626.21
619.201	20659.57
619.396	20956.52
619.591	20774.25
619.786	20819.31
619.981	20542.83
620.176	20835.69
620.371	20393.33
620.566	20467.06
620.761	20217.21
620.956	20723.05
621.151	20223.35
621.346	20215.16
621.541	19785.08
621.735	20317.56
621.93	19801.47
622.125	19942.78
622.32	19484.03
622.515	19846.52
622.709	19580.29
622.904	19359.11
623.099	19152.26
623.294	19258.76
623.488	18875.79
623.683	19164.55
623.878	18757
624.072	18759.05
624.267	18683.28
624.462	18642.32
624.656	18806.16
624.851	18834.83
625.046	18398.61
625.24	18515.34
625.435	18242.96
625.629	18279.83
625.824	17960.34
626.018	17638.81
626.213	17440.16
626.407	17651.1
626.602	17524.13
626.796	17313.19
626.991	17059.24
627.185	17423.78
627.38	17257.89
627.574	17124.77
627.768	17038.76
627.963	16786.86
628.157	16655.79
628.352	16793
628.546	16457.14
628.74	16645.55
628.935	16725.42
629.129	16379.31
629.323	16438.7
629.517	16233.91
629.712	16012.73
629.906	16170.42
630.1	15914.42
630.294	16145.84
630.489	15709.63
630.683	15775.16
630.877	15828.41
631.071	15472.06
631.265	15660.48
631.459	15564.22
631.653	15396.29
631.848	15125.96
632.042	15228.35
632.236	15199.68
632.43	14847.43
632.624	15017.41
632.818	14587.34
633.012	14476.75
633.206	14613.96
633.4	14759.37
633.594	14607.82
633.788	14390.74
633.982	14558.67
634.176	14337.49
634.369	14269.9
634.563	14306.77
634.757	13977.05
634.951	14087.64
635.145	14095.83
635.339	13786.58
635.533	13684.19
635.726	13657.56
635.92	13469.15
636.114	13551.07
636.308	13491.68
636.501	13264.35
636.695	13477.34
636.889	13182.43
637.083	13264.35
637.276	13127.14
637.47	12930.53
637.664	12959.2
637.857	12905.96
638.051	12846.57
638.244	12719.59
638.438	12785.13
638.632	12549.61
638.825	12604.91
639.019	12742.12
639.212	12336.62
639.406	12572.14
639.599	12533.23
639.793	12389.87
639.986	12109.3
640.18	11998.71
640.373	12013.04
640.567	12070.39
640.76	11976.18
640.954	11816.44
641.147	11726.33
641.34	11574.78
641.534	11787.77
641.727	11830.77
641.92	11558.39
642.114	11478.52
642.307	11441.66
642.5	11210.24
642.694	11253.25
642.887	11326.97
643.08	11017.73
643.273	11091.46
643.467	11234.82
643.66	10763.78
643.853	10931.72
644.046	10841.61
644.239	10860.04
644.432	10880.52
644.626	10728.97
644.819	10761.73
645.012	10552.84
645.205	10704.39
645.398	10335.76
645.591	10317.33
645.784	10470.92
645.977	10427.92
646.17	10348.04
646.363	10159.63
646.556	10214.93
646.749	10073.62
646.942	9995.79
647.135	9928.21
647.328	10055.19
647.521	9903.64
647.714	9844.24
647.907	9946.64
648.099	9819.67
648.292	9731.61
648.485	9612.82
648.678	9483.8
648.871	9704.98
649.064	9483.8
649.256	9504.28
649.449	9309.72
649.642	9336.35
649.835	9397.79
650.027	9299.48
650.22	9342.49
650.413	8906.27
650.605	9190.94
650.798	8955.43
650.991	8893.99
651.183	9049.63
651.376	8844.84
651.568	8828.45
651.761	8797.73
651.954	8666.66
652.146	8779.3
652.339	8836.64
652.531	8537.64
652.724	8523.3
652.916	8478.25
653.109	8459.82
653.301	8511.02
653.494	8556.07
653.686	8308.27
653.879	8334.89
654.071	8267.31
654.263	8148.53
654.456	8171.05
654.648	8121.9
654.84	7902.77
655.033	7945.78
655.225	7876.15
655.417	7996.98
655.61	8066.61
655.802	7822.9
655.994	7773.75
656.186	7841.33
656.379	7654.97
656.571	7738.93
656.763	7663.16
656.955	7779.89
657.148	7562.81
657.34	7509.56
657.532	7421.5
657.724	7571
657.916	7599.67
658.108	7532.09
658.3	7421.5
658.492	7429.69
658.684	7235.13
658.876	7251.52
659.068	7149.12
659.26	7007.81
659.452	7192.12
659.644	7231.04
659.836	7087.68
660.028	7136.83
660.22	6895.17
660.412	6946.37
660.604	6889.03
660.796	6942.27
660.988	6725.19
661.18	6577.73
661.372	6704.71
661.563	6719.04
661.755	6448.71
661.947	6680.13
662.139	6682.18
662.331	6344.27
662.522	6598.21
662.714	6485.58
662.906	6424.14
663.097	6448.71
663.289	6270.54
663.481	6344.27
663.673	6256.2
663.864	6166.09
664.056	6317.64
664.247	6250.06
664.439	6166.09
664.631	6192.72
664.822	6217.29
665.014	6178.38
665.205	6049.36
665.397	5965.39
665.588	6041.17
665.78	6024.78
665.971	5989.97
666.163	6055.5
666.354	6008.4
666.546	5932.62
666.737	5762.64
666.929	5887.57
667.12	5889.62
667.311	5856.85
667.503	5598.81
667.694	5715.54
667.885	5793.36
668.077	5566.04
668.268	5592.66
668.459	5662.29
668.651	5477.98
668.842	5641.81
669.033	5609.05
669.224	5559.89
669.416	5506.65
669.607	5531.22
669.798	5441.11
669.989	5363.29
670.18	5377.62
670.371	5305.95
670.563	5238.36
670.754	5336.67
670.945	5271.13
671.136	5318.23
671.327	5195.36
671.518	5205.6
671.709	5275.23
671.9	5246.55
672.091	5170.78
672.282	5250.65
672.473	5078.62
672.664	5101.15
672.855	5068.38
673.046	4933.22
673.237	5121.63
673.428	5035.61
673.619	5158.49
673.809	5086.81
674	5027.42
674.191	4918.88
674.382	4935.26
674.573	5027.42
674.764	4894.3
674.954	4859.49
675.145	4818.53
675.336	4851.3
675.527	4847.2
675.717	4789.86
675.908	4699.75
676.099	4810.34
676.289	4705.89
676.48	4773.47
676.671	4671.08
676.861	4871.78
677.052	4636.26
677.243	4634.21
677.433	4691.56
677.624	4726.37
677.814	4636.26
678.005	4689.51
678.195	4638.31
678.386	4632.16
678.576	4542.05
678.767	4527.72
678.957	4511.33
679.148	4437.61
679.338	4632.16
679.529	4607.59
679.719	4468.33
679.909	4607.59
680.1	4478.57
680.29	4478.57
680.481	4503.14
680.671	4466.28
680.861	4292.2
681.052	4427.37
681.242	4380.26
681.432	4462.18
681.622	4396.65
681.813	4394.6
682.003	4284.01
682.193	4406.89
682.383	4212.33
682.573	4394.6
682.764	4230.76
682.954	4306.54
683.144	4157.04
683.334	4316.78
683.524	4187.75
683.714	4417.13
683.904	4318.82
684.094	4185.71
684.284	4210.28
684.474	4193.9
684.664	4208.23
684.854	4224.62
685.044	4085.36
685.234	4136.56
685.424	4052.59
685.614	4107.88
685.804	4054.64
685.994	4068.97
686.184	4073.07
686.374	4109.93
686.564	4101.74
686.753	4071.02
686.943	3964.53
687.133	3995.25
687.323	3905.14
687.513	4001.39
687.702	3962.48
687.892	3907.18
688.082	3935.85
688.272	3845.74
688.461	3890.8
688.651	3987.05
688.841	3839.6
689.03	3901.04
689.22	3909.23
689.41	3788.4
689.599	3829.36
689.789	3901.04
689.979	3812.98
690.168	3767.92
690.358	3790.45
690.547	3616.37
690.737	3860.08
690.926	3731.06
691.116	3563.12
691.305	3714.67
691.495	3622.52
691.684	3704.43
691.874	3571.32
692.063	3700.34
692.252	3673.71
692.442	3532.4
692.631	3630.71
692.82	3559.03
693.01	3470.97
693.199	3567.22
693.388	3532.4
693.578	3528.31
693.767	3458.68
693.956	3448.44
694.146	3604.08
694.335	3452.53
694.524	3516.02
694.713	3405.43
694.902	3460.73
695.092	3331.7
695.281	3403.38
695.47	3491.45
695.659	3419.77
695.848	3354.23
696.037	3554.93
696.226	3491.45
696.415	3503.73
696.604	3417.72
696.793	3479.16
696.982	3364.47
697.171	3442.29
697.36	3368.57
697.549	3298.94
697.738	3339.9
697.927	3331.7
698.116	3233.4
698.305	3305.08
698.494	3368.57
698.683	3307.13
698.872	3313.27
699.061	3421.81
699.25	3288.7
699.438	3331.7
699.627	3286.65
699.816	3282.55
700.005	3294.84
700.193	3262.07
700.382	3321.46
700.571	3370.62
700.76	3282.55
700.948	3292.79
701.137	3184.25
701.326	3337.85
701.514	3303.03
701.703	3223.16
701.892	3272.31
702.08	3262.07
702.269	3356.28
702.457	3298.94
702.646	3282.55
702.834	3184.25
703.023	3083.9
703.212	3202.68
703.4	3229.31
703.589	3319.42
703.777	3335.8
703.965	3210.87
704.154	3212.92
704.342	3268.22
704.531	3239.55
704.719	3049.08
704.907	3372.66
705.096	3110.52
705.284	3292.79
705.472	3253.88
705.661	3131
705.849	3149.43
706.037	3176.06
706.226	3182.2
706.414	3255.93
706.602	3096.19
706.79	3276.41
706.979	3202.68
707.167	3100.28
707.355	3141.24
707.543	3196.54
707.731	3124.86
707.919	3135.1
708.107	3221.11
708.296	3284.6
708.484	3014.27
708.672	3241.59
708.86	3151.48
709.048	3194.49
709.236	3178.11
709.424	3167.87
709.612	3088
709.8	3159.67
709.988	3147.39
710.176	3092.09
710.364	3161.72
710.551	3096.19
710.739	3098.24
710.927	3139.19
711.115	3108.48
711.303	3090.04
711.491	3210.87
711.679	3032.7
711.866	3128.95
712.054	3190.39
712.242	3067.52
712.43	3155.58
712.617	3092.09
712.805	3253.88
712.993	2983.55
713.181	3053.18
713.368	3049.08
713.556	3049.08
713.744	2991.74
713.931	3116.67
714.119	3069.56
714.306	2985.6
714.494	3051.13
714.682	3108.48
714.869	2977.41
715.057	3044.99
715.244	3075.71
715.432	3098.24
715.619	3032.7
715.807	3014.27
715.994	3135.1
716.182	3059.32
716.369	3038.84
716.556	3063.42
716.744	3026.56
716.931	3061.37
717.119	3128.95
717.306	2987.65
717.493	2930.3
717.681	2999.93
717.868	2950.78
718.055	2922.11
718.242	2942.59
718.43	2950.78
718.617	3051.13
718.804	3008.12
718.991	2989.69
719.179	2825.86
719.366	3055.23
719.553	2989.69
719.74	2969.21
719.927	2932.35
720.114	2819.71
720.301	2954.88
720.488	2918.01
720.676	2893.44
720.863	2834.05
721.05	2926.21
721.237	2973.31
721.424	2872.96
721.611	3012.22
721.798	2944.64
721.985	2850.43
722.172	2879.1
722.358	3018.36
722.545	2723.46
722.732	2774.66
722.919	2926.21
723.106	2920.06
723.293	2930.3
723.48	2918.01
723.667	2821.76
723.853	2829.95
724.04	2811.52
724.227	2811.52
724.414	2952.83
724.6	2924.16
724.787	2836.1
724.974	2856.58
725.161	2813.57
725.347	2879.1
725.534	2729.6
725.72	2885.25
725.907	2844.29
726.094	2897.53
726.28	2864.77
726.467	2807.42
726.653	2678.4
726.84	2846.34
727.027	2866.81
727.213	2786.94
727.4	2829.95
727.586	2875.01
727.773	2838.14
727.959	2780.8
728.145	2875.01
728.332	2750.08
728.518	2772.61
728.705	2889.34
728.891	2764.42
729.077	2748.03
729.264	2741.89
729.45	2823.81
729.636	2899.58
729.823	2780.8
730.009	2774.66
730.195	2770.56
730.382	2868.86
730.568	2872.96
730.754	2807.42
730.94	2782.85
731.126	2811.52
731.313	2784.9
731.499	2698.88
731.685	2750.08
731.871	2672.26
732.057	2827.9
732.243	2729.6
732.429	2637.44
732.615	2770.56
732.801	2844.29
732.987	2737.79
733.173	2799.23
733.359	2733.7
733.545	2766.46
733.731	2729.6
733.917	2762.37
734.103	2690.69
734.289	2641.54
734.475	2614.91
734.661	2717.31
734.847	2811.52
735.033	2635.39
735.219	2668.16
735.404	2676.35
735.59	2569.86
735.776	2739.84
735.962	2854.53
736.148	2770.56
736.333	2664.07
736.519	2694.79
736.705	2659.97
736.89	2569.86
737.076	2705.03
737.262	2678.4
737.447	2651.78
737.633	2629.25
737.819	2684.55
738.004	2580.1
738.19	2670.21
738.375	2688.64
738.561	2594.44
738.747	2578.05
738.932	2537.09
739.118	2584.2
739.303	2526.85
739.489	2604.67
739.674	2565.76
739.859	2561.67
740.045	2563.72
740.23	2565.76
740.416	2545.28
740.601	2602.63
740.786	2526.85
740.972	2514.56
741.157	2463.37
741.342	2289.29
741.528	2455.17
741.713	2403.97
741.898	2363.01
742.084	2449.03
742.269	2389.64
742.454	2311.82
742.639	2553.48
742.824	2393.73
743.01	2475.65
743.195	2432.65
743.38	2389.64
743.565	2406.02
743.75	2233.99
743.935	2424.45
744.12	2399.88
744.305	2287.24
744.49	2219.66
744.675	2336.39
744.86	2279.05
745.045	2338.44
745.23	2201.23
745.415	2199.18
745.6	2219.66
745.785	2190.99
745.97	2250.38
746.155	2313.86
746.34	2197.13
746.525	2166.41
746.71	2248.33
746.895	2147.98
747.079	2254.47
747.264	2100.87
747.449	2150.03
747.634	2137.74
747.819	2098.83
748.003	2102.92
748.188	2043.53
748.373	2068.11
748.557	2031.24
748.742	1896.08
748.927	2068.11
749.111	1992.33
749.296	1957.52
749.481	2059.92
749.665	2039.44
749.85	2006.67
750.034	1924.75
750.219	1971.85
750.404	1943.18
750.588	1994.38
750.773	1900.17
750.957	1953.42
751.141	1914.51
751.326	1877.65
751.51	1840.78
751.695	1865.36
751.879	1881.74
752.064	1877.65
752.248	1767.06
752.432	1795.73
752.617	1775.25
752.801	1853.07
752.985	1871.5
753.17	1775.25
753.354	1732.24
753.538	1775.25
753.722	1787.54
753.907	1681.04
754.091	1767.06
754.275	1705.62
754.459	1656.47
754.643	1588.88
754.828	1635.99
755.012	1670.8
755.196	1642.13
755.38	1590.93
755.564	1707.66
755.748	1625.75
755.932	1650.32
756.116	1541.78
756.3	1543.83
756.484	1466
756.668	1531.54
756.852	1513.11
757.036	1527.44
757.22	1511.06
757.404	1443.48
757.588	1404.57
757.772	1500.82
757.956	1513.11
758.14	1461.91
758.323	1351.32
758.507	1480.34
758.691	1470.1
758.875	1455.76
759.059	1371.8
759.242	1470.1
759.426	1447.57
759.61	1420.95
759.794	1302.17
759.977	1410.71
760.161	1402.52
760.345	1437.33
760.528	1330.84
760.712	1347.22
760.895	1291.93
761.079	1289.88
761.263	1351.32
761.446	1293.97
761.63	1293.97
761.813	1349.27
761.997	1296.02
762.18	1316.5
762.364	1289.88
762.547	1201.82
762.731	1261.21
762.914	1214.1
763.098	1238.68
763.281	1300.12
763.464	1210.01
763.648	1171.1
763.831	1228.44
764.015	1216.15
764.198	1207.96
764.381	1244.82
764.564	1193.62
764.748	1250.97
764.931	1205.91
765.114	1226.39
765.297	1156.76
765.481	1203.86
765.664	1171.1
765.847	1189.53
766.03	1083.03
766.213	1164.95
766.397	1123.99
766.58	1007.26
766.763	1158.81
766.946	1136.28
767.129	1132.19
767.312	1007.26
767.495	1160.86
767.678	1177.24
767.861	1142.43
768.044	1095.32
768.227	1013.4
768.41	1050.27
768.593	1103.51
768.776	1064.6
768.959	1091.23
769.142	1107.61
769.324	988.83
769.507	1076.89
769.69	1078.94
769.873	1031.83
770.056	1025.69
770.239	1095.32
770.421	1076.89
770.604	1037.98
770.787	1095.32
770.97	1050.27
771.152	1066.65
771.335	1029.79
771.518	831.13
771.7	982.68
771.883	980.64
772.066	1146.52
772.248	1001.12
772.431	1056.41
772.613	958.11
772.796	886.43
772.978	974.49
773.161	896.67
773.343	870.05
773.526	970.4
773.708	947.87
773.891	986.78
774.073	954.01
774.256	915.1
774.438	997.02
774.621	915.1
774.803	904.86
774.985	976.54
775.168	874.14
775.35	861.85
775.532	863.9
775.715	853.66
775.897	935.58
776.079	861.85
776.261	792.22
776.444	890.53
776.626	798.37
776.808	741.02
776.99	792.22
777.173	855.71
777.355	714.4
777.537	759.46
777.719	884.38
777.901	810.65
778.083	855.71
778.265	824.99
778.447	700.06
778.629	732.83
778.811	710.3
778.993	716.45
779.175	743.07
779.357	702.11
779.539	765.6
779.721	652.96
779.903	736.93
780.085	751.26
780.267	675.49
780.449	749.22
780.631	753.31
780.812	759.46
780.994	671.39
781.176	736.93
781.358	689.82
781.54	630.43
781.721	612
781.903	609.95
782.085	771.74
782.267	652.96
782.448	591.52
782.63	681.63
782.812	591.52
782.993	620.19
783.175	640.67
783.357	566.95
783.538	597.67
783.72	616.1
783.901	603.81
784.083	575.14
784.264	466.6
784.446	544.42
784.627	605.86
784.809	530.08
784.99	571.04
785.172	558.75
785.353	544.42
785.535	499.36
785.716	632.48
785.897	507.55
786.079	532.13
786.26	503.46
786.441	536.23
786.623	476.84
786.804	536.23
786.985	530.08
787.167	446.12
787.348	507.55
787.529	507.55
787.71	489.12
787.891	431.78
788.073	505.51
788.254	474.79
788.435	466.6
788.616	552.61
788.797	493.22
788.978	464.55
789.159	525.99
789.34	489.12
789.522	521.89
789.703	427.68
789.884	435.88
790.065	423.59
790.246	456.36
790.427	433.83
790.607	478.88
790.788	433.83
790.969	431.78
791.15	415.4
791.331	405.16
791.512	431.78
791.693	366.25
791.874	478.88
792.054	407.2
792.235	517.79
792.416	425.64
792.597	390.82
792.778	384.68
792.958	345.77
793.139	329.38
793.32	419.49
793.5	442.02
793.681	409.25
793.862	380.58
794.042	427.68
794.223	372.39
794.404	306.85
794.584	302.76
794.765	390.82
794.945	439.97
795.126	345.77
795.306	386.72
795.487	308.9
795.667	368.29
795.848	421.54
796.028	353.96
796.209	411.3
796.389	304.81
796.57	378.53
796.75	337.57
796.93	347.81
797.111	306.85
797.291	368.29
797.471	276.13
797.652	313
797.832	337.57
798.012	388.77
798.192	263.85
798.373	302.76
798.553	323.24
798.733	321.19
798.913	302.76
799.093	229.03
799.274	319.14
799.454	333.48
799.634	374.44
799.814	284.33
799.994	261.8
800.174	280.23
800.354	349.86
800.534	274.09
800.714	306.85
800.894	315.05
801.074	315.05
801.254	288.42
801.434	306.85
801.614	302.76
801.794	253.61
801.974	589.47
802.154	265.89
802.334	276.13
802.514	212.65
802.693	255.65
802.873	212.65
803.053	265.89
803.233	229.03
803.413	286.37
803.592	247.46
803.772	249.51
803.952	253.61
804.131	208.55
804.311	292.52
804.491	304.81
804.67	202.41
804.85	159.4
805.03	224.94
805.209	272.04
805.389	210.6
805.568	210.6
805.748	194.22
805.928	255.65
806.107	216.74
806.287	255.65
806.466	159.4
806.646	206.5
806.825	212.65
807.004	231.08
807.184	200.36
807.363	304.81
807.543	306.85
807.722	188.07
807.901	290.47
808.081	278.18
808.26	157.35
808.439	218.79
808.619	226.98
808.798	224.94
808.977	259.75
809.156	222.89
809.336	161.45
809.515	226.98
809.694	229.03
809.873	206.5
810.052	259.75
810.231	212.65
810.411	206.5
810.59	243.37
810.769	186.02
810.948	313
811.127	118.44
811.306	206.5
811.485	220.84
811.664	237.22
811.843	169.64
812.022	120.49
812.201	163.5
812.38	163.5
812.559	263.85
812.737	272.04
812.916	206.5
813.095	83.63
813.274	167.59
813.453	247.46
813.632	134.82
813.811	171.69
813.989	161.45
814.168	188.07
814.347	251.56
814.526	222.89
814.704	282.28
814.883	247.46
815.062	241.32
815.24	161.45
815.419	194.22
815.598	220.84
815.776	147.11
815.955	102.06
816.133	169.64
816.312	167.59
816.49	183.98
816.669	140.97
816.847	204.46
817.026	167.59
817.204	128.68
817.383	233.13
817.561	155.3
817.74	190.12
817.918	165.54
818.097	169.64
818.275	233.13
818.453	77.48
818.632	165.54
818.81	147.11
818.988	190.12
819.167	157.35
819.345	85.67
819.523	163.5
819.701	241.32
819.879	155.3
820.058	134.82
820.236	163.5
820.414	81.58
820.592	155.3
820.77	124.58
820.948	100.01
821.127	136.87
821.305	126.63
821.483	104.11
821.661	235.18
821.839	151.21
822.017	149.16
822.195	120.49
822.373	157.35
822.551	169.64
822.729	59.05
822.907	153.26
823.085	143.02
823.262	132.78
823.44	100.01
823.618	89.77
823.796	108.2
823.974	79.53
824.152	136.87
824.329	67.24
824.507	106.15
824.685	63.15
824.863	126.63
825.04	206.5
825.218	173.74
825.396	196.26
825.574	112.3
825.751	108.2
825.929	130.73
826.107	167.59
826.284	65.19
826.462	120.49
826.639	128.68
826.817	114.34
826.994	48.81
827.172	136.87
827.349	124.58
827.527	63.15
827.704	128.68
827.882	124.58
828.059	116.39
828.237	126.63
828.414	122.54
828.591	136.87
828.769	79.53
828.946	40.62
829.124	132.78
829.301	83.63
829.478	116.39
829.655	136.87
829.833	138.92
830.01	87.72
830.187	95.91
830.364	24.23
830.542	100.01
830.719	183.98
830.896	132.78
831.073	134.82
831.25	89.77
831.427	112.3
831.604	30.38
831.782	116.39
831.959	140.97
832.136	102.06
832.313	143.02
832.49	128.68
832.667	61.1
832.844	153.26
833.021	110.25
833.198	130.73
833.374	108.2
833.551	91.82
833.728	89.77
833.905	93.87
834.082	57
834.259	110.25
834.436	124.58
834.612	71.34
834.789	159.4
834.966	130.73
835.143	134.82
835.319	48.81
835.496	124.58
835.673	91.82
835.85	116.39
836.026	124.58
836.203	65.19
836.38	-8.53
836.556	77.48
836.733	63.15
836.909	122.54
837.086	71.34
837.262	114.34
837.439	77.48
837.616	18.09
837.792	77.48
837.968	106.15
838.145	116.39
838.321	7.85
838.498	91.82
838.674	87.72
838.851	38.57
839.027	46.76
839.203	79.53
839.38	38.57
839.556	83.63
839.732	108.2
839.909	91.82
840.085	81.58
840.261	79.53
840.437	106.15
840.614	59.05
840.79	32.43
840.966	81.58
841.142	61.1
841.318	50.86
841.494	57
841.671	54.95
841.847	104.11
842.023	30.38
842.199	59.05
842.375	89.77
842.551	-4.44
842.727	67.24
842.903	173.74
843.079	13.99
843.255	93.87
843.431	114.34
843.607	34.47
843.783	26.28
843.959	54.95
844.134	20.14
844.31	159.4
844.486	75.43
844.662	97.96
844.838	91.82
845.013	87.72
845.189	106.15
845.365	112.3
845.541	5.8
845.716	50.86
845.892	85.67
846.068	63.15
846.244	50.86
846.419	149.16
846.595	11.95
846.77	104.11
846.946	110.25
847.122	-26.96
847.297	20.14
847.473	110.25
847.648	42.67
847.824	128.68
847.999	38.57
848.175	36.52
848.35	118.44
848.526	34.47
848.701	52.91
848.876	22.19
849.052	-20.82
849.227	67.24
849.403	71.34
849.578	30.38
849.753	91.82
849.929	91.82
850.104	26.28
850.279	38.57
850.454	89.77
850.63	46.76
850.805	79.53
850.98	24.23
851.155	65.19
851.33	112.3
851.505	69.29
851.681	75.43
851.856	28.33
852.031	59.05
852.206	69.29
852.381	44.71
852.556	69.29
852.731	69.29
852.906	42.67
853.081	28.33
853.256	108.2
853.431	97.96
853.606	34.47
853.781	46.76
853.956	-10.58
854.131	112.3
854.305	30.38
854.48	28.33
854.655	71.34
854.83	18.09
855.005	9.9
855.18	57
855.354	-61.78
855.529	97.96
855.704	59.05
855.879	124.58
856.053	-24.92
856.228	20.14
856.403	22.19
856.577	32.43
856.752	5.8
856.926	32.43
857.101	32.43
857.276	83.63
857.45	30.38
857.625	36.52
857.799	54.95
857.974	65.19
858.148	5.8
858.323	44.71
858.497	77.48
858.672	-4.44
858.846	-12.63
859.02	26.28
859.195	9.9
859.369	71.34
859.543	-6.49
859.718	-18.77
859.892	71.34
860.066	79.53
860.241	112.3
860.415	71.34
860.589	42.67
860.763	59.05
860.938	1.71
861.112	61.1
861.286	30.38
861.46	79.53
861.634	-55.64
861.808	75.43
861.982	104.11
862.157	42.67
862.331	1.71
862.505	71.34
862.679	7.85
862.853	13.99
863.027	1.71
863.201	30.38
863.375	-6.49
863.549	157.35
863.722	13.99
863.896	28.33
864.07	-8.53
864.244	38.57
864.418	87.72
864.592	59.05
864.766	85.67
864.939	81.58
865.113	52.91
865.287	13.99
865.461	71.34
865.634	44.71
865.808	59.05
865.982	-12.63
866.156	-16.73
866.329	32.43
866.503	3.75
866.676	63.15
866.85	-2.39
867.024	46.76
867.197	104.11
867.371	87.72
867.544	-24.92
867.718	-80.21
867.891	3.75
868.065	3.75
868.238	-4.44
868.412	46.76
868.585	16.04
868.759	-14.68
868.932	-35.16
869.105	-12.63
869.279	32.43
869.452	18.09
869.625	67.24
869.799	11.95
869.972	-2.39
870.145	-24.92
870.319	22.19
870.492	-26.96
870.665	-26.96
870.838	-43.35
871.011	-24.92
871.185	61.1
871.358	-16.73
871.531	73.39
871.704	-22.87
871.877	85.67
872.05	1.71
872.223	3.75
872.396	42.67
872.569	-35.16
872.742	18.09
872.915	126.63
873.088	-37.2
873.261	20.14
873.434	-33.11
873.607	24.23
873.78	36.52
873.953	-53.59
874.126	-22.87
874.299	91.82
874.471	34.47
874.644	-45.4
874.817	83.63
874.99	9.9
875.163	5.8
875.335	32.43
875.508	-10.58
875.681	63.15
875.853	48.81
876.026	61.1
876.199	-45.4
876.371	24.23
876.544	-14.68
876.717	30.38
876.889	13.99
877.062	20.14
877.234	38.57
877.407	-33.11
877.579	-12.63
877.752	42.67
877.924	44.71
878.097	-4.44
878.269	-33.11
878.442	46.76
878.614	24.23
878.786	-18.77
878.959	40.62
879.131	5.8
879.303	26.28
879.476	65.19
879.648	44.71
879.82	30.38
879.993	-59.73
880.165	48.81
880.337	-10.58
880.509	38.57
880.681	26.28
880.854	11.95
881.026	-22.87
881.198	9.9
881.37	63.15
881.542	-16.73
881.714	-33.11
881.886	34.47
882.058	-59.73
882.23	-35.16
882.402	48.81
882.574	36.52
882.746	-0.34
882.918	-6.49
883.09	28.33
883.262	-2.39
883.434	36.52
883.606	11.95
883.778	13.99
883.95	30.38
884.122	-20.82
884.293	32.43
884.465	-26.96
884.637	18.09
884.809	30.38
884.98	7.85
885.152	34.47
885.324	-18.77
885.496	-26.96
885.667	-4.44
885.839	1.71
886.011	67.24
886.182	36.52
886.354	16.04
886.525	46.76
886.697	-18.77
886.869	-78.16
887.04	-24.92
887.212	18.09
887.383	79.53
887.555	38.57
887.726	9.9
887.897	-69.97
888.069	91.82
888.24	-14.68
888.412	9.9
888.583	-8.53
888.754	97.96
888.926	-20.82
889.097	-29.01
889.268	-6.49
889.44	71.34
889.611	34.47
889.782	65.19
889.953	-22.87
890.125	-35.16
890.296	-51.54
890.467	42.67
890.638	5.8
890.809	40.62
890.98	1.71
891.151	26.28
891.323	28.33
891.494	57
891.665	-65.88
891.836	-35.16
892.007	-45.4
892.178	-20.82
892.349	24.23
892.52	32.43
892.691	-10.58
892.862	-29.01
893.032	46.76
893.203	11.95
893.374	-14.68
893.545	-37.2
893.716	-53.59
893.887	-0.34
894.057	36.52
894.228	124.58
894.399	11.95
894.57	3.75
894.74	32.43
894.911	20.14
895.082	-65.88
895.253	-47.44
895.423	-14.68
895.594	81.58
895.764	50.86
895.935	18.09
896.106	20.14
896.276	-55.64
896.447	-12.63
896.617	-16.73
896.788	-22.87
896.958	38.57
897.129	-43.35
897.299	44.71
897.47	20.14
897.64	97.96
897.81	36.52
897.981	54.95
898.151	-6.49
898.322	3.75
898.492	-41.3
898.662	-26.96
898.832	-59.73
899.003	89.77
899.173	3.75
899.343	-37.2
899.513	-49.49
