Data from USB4F104151__131__11-07-47-015.txt Node

Date: Wed Mar 12 11:07:47 EDT 2025
User: louis
Spectrometer: USB4F10415
Trigger mode: 4
Integration Time (sec): 2.000000E-2
Scans to average: 1
Electric dark correction enabled: true
Nonlinearity correction enabled: false
Boxcar width: 0
XAxis mode: Wavelengths
Number of Pixels in Spectrum: 3648
>>>>>Begin Spectral Data<<<<<
178.204	62.46
178.424	62.46
178.644	62.46
178.864	-11.26
179.084	-29.7
179.304	-46.08
179.524	72.7
179.744	5.12
179.964	37.89
180.184	-58.37
180.404	11.26
180.624	-9.22
180.844	-9.22
181.064	-23.55
181.283	11.26
181.503	-21.5
181.723	29.7
181.943	-64.51
182.163	123.9
182.383	119.81
182.602	23.55
182.822	39.94
183.042	37.89
183.262	60.42
183.482	103.42
183.701	44.03
183.921	-15.36
184.141	15.36
184.361	84.99
184.58	56.32
184.8	70.65
185.02	64.51
185.239	68.61
185.459	68.61
185.679	39.94
185.898	-21.5
186.118	25.6
186.338	7.17
186.557	66.56
186.777	46.08
186.997	29.7
187.216	44.03
187.436	52.22
187.655	66.56
187.875	33.79
188.095	50.18
188.314	125.95
188.534	76.8
188.753	80.89
188.973	5.12
189.192	27.65
189.412	123.9
189.631	121.85
189.851	68.61
190.07	60.42
190.29	27.65
190.509	-58.37
190.729	39.94
190.948	3.07
191.168	115.71
191.387	31.74
191.607	72.7
191.826	23.55
192.045	37.89
192.265	91.13
192.484	19.46
192.704	39.94
192.923	-27.65
193.142	21.5
193.362	41.98
193.581	105.47
193.8	113.66
194.02	130.05
194.239	39.94
194.458	48.13
194.678	27.65
194.897	21.5
195.116	66.56
195.335	138.24
195.555	84.99
195.774	29.7
195.993	-19.46
196.212	-27.65
196.432	60.42
196.651	29.7
196.87	-23.55
197.089	101.37
197.308	103.42
197.528	80.89
197.747	21.5
197.966	-11.26
198.185	125.95
198.404	76.8
198.623	39.94
198.842	50.18
199.062	56.32
199.281	107.52
199.5	58.37
199.719	48.13
199.938	78.85
200.157	68.61
200.376	72.7
200.595	72.7
200.814	87.04
201.033	52.22
201.252	76.8
201.471	105.47
201.69	52.22
201.909	56.32
202.128	54.27
202.347	95.23
202.566	46.08
202.785	27.65
203.004	5.12
203.223	80.89
203.442	-5.12
203.661	68.61
203.879	144.38
204.098	68.61
204.317	15.36
204.536	44.03
204.755	39.94
204.974	70.65
205.193	23.55
205.411	87.04
205.63	13.31
205.849	7.17
206.068	-44.03
206.287	72.7
206.505	60.42
206.724	13.31
206.943	29.7
207.162	-9.22
207.381	39.94
207.599	-15.36
207.818	62.46
208.037	-15.36
208.255	41.98
208.474	-11.26
208.693	11.26
208.911	52.22
209.13	7.17
209.349	13.31
209.567	60.42
209.786	48.13
210.005	31.74
210.223	95.23
210.442	68.61
210.661	101.37
210.879	37.89
211.098	23.55
211.316	-7.17
211.535	64.51
211.753	119.81
211.972	60.42
212.191	31.74
212.409	19.46
212.628	-7.17
212.846	44.03
213.065	97.28
213.283	13.31
213.502	-7.17
213.72	-13.31
213.938	58.37
214.157	136.19
214.375	44.03
214.594	9.22
214.812	60.42
215.031	72.7
215.249	29.7
215.467	99.33
215.686	-46.08
215.904	72.7
216.122	31.74
216.341	54.27
216.559	89.09
216.778	7.17
216.996	74.75
217.214	41.98
217.432	60.42
217.651	11.26
217.869	62.46
218.087	115.71
218.306	31.74
218.524	48.13
218.742	52.22
218.96	89.09
219.179	50.18
219.397	39.94
219.615	64.51
219.833	41.98
220.051	27.65
220.27	56.32
220.488	50.18
220.706	23.55
220.924	39.94
221.142	-5.12
221.36	46.08
221.578	70.65
221.796	29.7
222.015	56.32
222.233	31.74
222.451	136.19
222.669	46.08
222.887	13.31
223.105	31.74
223.323	27.65
223.541	44.03
223.759	89.09
223.977	7.17
224.195	121.85
224.413	29.7
224.631	-3.07
224.849	52.22
225.067	35.84
225.285	39.94
225.503	62.46
225.721	29.7
225.939	54.27
226.157	99.33
226.375	134.14
226.592	23.55
226.81	31.74
227.028	7.17
227.246	62.46
227.464	82.94
227.682	66.56
227.9	93.18
228.117	93.18
228.335	44.03
228.553	7.17
228.771	46.08
228.989	78.85
229.206	66.56
229.424	41.98
229.642	-46.08
229.86	89.09
230.077	95.23
230.295	15.36
230.513	93.18
230.731	50.18
230.948	80.89
231.166	54.27
231.384	68.61
231.601	31.74
231.819	105.47
232.037	27.65
232.254	87.04
232.472	72.7
232.689	29.7
232.907	87.04
233.125	68.61
233.342	25.6
233.56	70.65
233.777	48.13
233.995	1.02
234.213	70.65
234.43	117.76
234.648	44.03
234.865	128
235.083	44.03
235.3	1.02
235.518	-7.17
235.735	72.7
235.953	113.66
236.17	62.46
236.388	23.55
236.605	9.22
236.822	25.6
237.04	78.85
237.257	52.22
237.475	-7.17
237.692	7.17
237.909	37.89
238.127	41.98
238.344	121.85
238.562	117.76
238.779	64.51
238.996	56.32
239.214	19.46
239.431	17.41
239.648	15.36
239.865	109.57
240.083	93.18
240.3	39.94
240.517	56.32
240.735	-17.41
240.952	-25.6
241.169	95.23
241.386	54.27
241.603	39.94
241.821	1.02
242.038	72.7
242.255	13.31
242.472	44.03
242.689	35.84
242.907	21.5
243.124	21.5
243.341	95.23
243.558	-5.12
243.775	35.84
243.992	54.27
244.209	89.09
244.426	76.8
244.643	64.51
244.86	1.02
245.078	64.51
245.295	56.32
245.512	41.98
245.729	5.12
245.946	60.42
246.163	64.51
246.38	64.51
246.597	66.56
246.814	31.74
247.031	89.09
247.248	31.74
247.464	7.17
247.681	76.8
247.898	109.57
248.115	44.03
248.332	-11.26
248.549	64.51
248.766	58.37
248.983	97.28
249.2	39.94
249.417	87.04
249.633	-13.31
249.85	119.81
250.067	5.12
250.284	72.7
250.501	105.47
250.717	54.27
250.934	80.89
251.151	91.13
251.368	82.94
251.585	11.26
251.801	41.98
252.018	31.74
252.235	113.66
252.451	-3.07
252.668	56.32
252.885	50.18
253.102	84.99
253.318	48.13
253.535	62.46
253.752	56.32
253.968	48.13
254.185	19.46
254.401	72.7
254.618	82.94
254.835	37.89
255.051	189.44
255.268	72.7
255.484	44.03
255.701	39.94
255.917	87.04
256.134	64.51
256.351	117.76
256.567	19.46
256.784	56.32
257	-19.46
257.217	76.8
257.433	130.05
257.65	93.18
257.866	35.84
258.082	48.13
258.299	17.41
258.515	60.42
258.732	-27.65
258.948	11.26
259.165	52.22
259.381	23.55
259.597	64.51
259.814	97.28
260.03	37.89
260.246	25.6
260.463	76.8
260.679	70.65
260.895	31.74
261.112	76.8
261.328	62.46
261.544	23.55
261.761	125.95
261.977	52.22
262.193	15.36
262.409	3.07
262.626	29.7
262.842	78.85
263.058	-9.22
263.274	123.9
263.49	48.13
263.707	76.8
263.923	76.8
264.139	35.84
264.355	68.61
264.571	111.61
264.787	54.27
265.004	95.23
265.22	-13.31
265.436	66.56
265.652	80.89
265.868	76.8
266.084	56.32
266.3	138.24
266.516	-13.31
266.732	-15.36
266.948	68.61
267.164	66.56
267.38	13.31
267.596	23.55
267.812	123.9
268.028	99.33
268.244	19.46
268.46	19.46
268.676	84.99
268.892	95.23
269.108	-17.41
269.324	66.56
269.54	35.84
269.756	89.09
269.972	64.51
270.188	76.8
270.403	-17.41
270.619	123.9
270.835	72.7
271.051	150.53
271.267	80.89
271.483	72.7
271.698	48.13
271.914	37.89
272.13	35.84
272.346	121.85
272.562	58.37
272.777	62.46
272.993	60.42
273.209	68.61
273.425	23.55
273.64	3.07
273.856	107.52
274.072	60.42
274.287	-11.26
274.503	52.22
274.719	89.09
274.934	-5.12
275.15	-33.79
275.366	39.94
275.581	58.37
275.797	50.18
276.012	48.13
276.228	17.41
276.444	-5.12
276.659	66.56
276.875	82.94
277.09	44.03
277.306	13.31
277.521	33.79
277.737	31.74
277.952	119.81
278.168	58.37
278.383	54.27
278.599	50.18
278.814	-58.37
279.03	74.75
279.245	44.03
279.461	46.08
279.676	84.99
279.892	21.5
280.107	52.22
280.322	62.46
280.538	46.08
280.753	-9.22
280.969	72.7
281.184	121.85
281.399	39.94
281.615	66.56
281.83	111.61
282.045	-7.17
282.26	35.84
282.476	70.65
282.691	84.99
282.906	-25.6
283.122	56.32
283.337	78.85
283.552	70.65
283.767	-7.17
283.983	144.38
284.198	44.03
284.413	58.37
284.628	66.56
284.843	64.51
285.058	138.24
285.274	109.57
285.489	3.07
285.704	87.04
285.919	-29.7
286.134	148.48
286.349	11.26
286.564	29.7
286.779	113.66
286.995	95.23
287.21	37.89
287.425	109.57
287.64	-21.5
287.855	99.33
288.07	17.41
288.285	56.32
288.5	89.09
288.715	27.65
288.93	37.89
289.145	60.42
289.36	134.14
289.575	15.36
289.79	23.55
290.004	29.7
290.219	21.5
290.434	62.46
290.649	136.19
290.864	109.57
291.079	50.18
291.294	-5.12
291.509	-13.31
291.724	136.19
291.938	54.27
292.153	66.56
292.368	62.46
292.583	15.36
292.798	82.94
293.012	29.7
293.227	5.12
293.442	48.13
293.657	84.99
293.871	52.22
294.086	35.84
294.301	15.36
294.516	39.94
294.73	138.24
294.945	64.51
295.16	136.19
295.374	78.85
295.589	46.08
295.804	64.51
296.018	64.51
296.233	37.89
296.447	-35.84
296.662	27.65
296.877	62.46
297.091	66.56
297.306	99.33
297.52	72.7
297.735	138.24
297.949	84.99
298.164	89.09
298.378	-9.22
298.593	60.42
298.807	93.18
299.022	105.47
299.236	134.14
299.451	27.65
299.665	46.08
299.88	91.13
300.094	-7.17
300.309	48.13
300.523	29.7
300.737	68.61
300.952	95.23
301.166	-1.02
301.381	80.89
301.595	-5.12
301.809	-29.7
302.024	70.65
302.238	62.46
302.452	82.94
302.667	64.51
302.881	91.13
303.095	-21.5
303.309	109.57
303.524	-9.22
303.738	17.41
303.952	-15.36
304.166	97.28
304.381	64.51
304.595	50.18
304.809	15.36
305.023	17.41
305.237	52.22
305.452	7.17
305.666	3.07
305.88	87.04
306.094	27.65
306.308	84.99
306.522	41.98
306.736	44.03
306.95	89.09
307.164	78.85
307.379	23.55
307.593	101.37
307.807	48.13
308.021	93.18
308.235	33.79
308.449	48.13
308.663	103.42
308.877	93.18
309.091	29.7
309.305	46.08
309.519	105.47
309.733	91.13
309.947	107.52
310.161	31.74
310.374	68.61
310.588	74.75
310.802	23.55
311.016	62.46
311.23	125.95
311.444	44.03
311.658	33.79
311.872	56.32
312.085	54.27
312.299	162.81
312.513	50.18
312.727	97.28
312.941	93.18
313.154	17.41
313.368	-17.41
313.582	50.18
313.796	70.65
314.009	44.03
314.223	78.85
314.437	37.89
314.651	64.51
314.864	64.51
315.078	21.5
315.292	109.57
315.505	-37.89
315.719	46.08
315.933	175.1
316.146	23.55
316.36	35.84
316.573	105.47
316.787	33.79
317.001	74.75
317.214	52.22
317.428	33.79
317.641	21.5
317.855	35.84
318.068	21.5
318.282	62.46
318.495	89.09
318.709	107.52
318.922	78.85
319.136	19.46
319.349	84.99
319.563	3.07
319.776	101.37
319.99	52.22
320.203	95.23
320.417	91.13
320.63	80.89
320.843	33.79
321.057	89.09
321.27	56.32
321.483	7.17
321.697	64.51
321.91	156.67
322.124	84.99
322.337	101.37
322.55	87.04
322.763	66.56
322.977	89.09
323.19	64.51
323.403	-29.7
323.617	70.65
323.83	80.89
324.043	70.65
324.256	84.99
324.469	101.37
324.683	37.89
324.896	113.66
325.109	130.05
325.322	33.79
325.535	11.26
325.748	121.85
325.962	48.13
326.175	87.04
326.388	97.28
326.601	91.13
326.814	105.47
327.027	31.74
327.24	101.37
327.453	37.89
327.666	121.85
327.879	5.12
328.092	105.47
328.305	64.51
328.518	84.99
328.731	27.65
328.944	62.46
329.157	19.46
329.37	99.33
329.583	91.13
329.796	123.9
330.009	56.32
330.222	-39.94
330.435	168.96
330.648	66.56
330.861	134.14
331.073	46.08
331.286	44.03
331.499	-44.03
331.712	27.65
331.925	74.75
332.138	37.89
332.35	109.57
332.563	64.51
332.776	97.28
332.989	56.32
333.202	60.42
333.414	52.22
333.627	89.09
333.84	11.26
334.053	66.56
334.265	119.81
334.478	1.02
334.691	56.32
334.903	48.13
335.116	50.18
335.329	84.99
335.541	93.18
335.754	189.44
335.966	39.94
336.179	121.85
336.392	89.09
336.604	1.02
336.817	113.66
337.029	162.81
337.242	52.22
337.454	68.61
337.667	21.5
337.88	95.23
338.092	91.13
338.305	-1.02
338.517	99.33
338.729	101.37
338.942	74.75
339.154	39.94
339.367	19.46
339.579	76.8
339.792	46.08
340.004	101.37
340.217	62.46
340.429	56.32
340.641	37.89
340.854	99.33
341.066	31.74
341.278	54.27
341.491	146.43
341.703	25.6
341.915	-7.17
342.128	142.33
342.34	21.5
342.552	109.57
342.764	76.8
342.977	72.7
343.189	64.51
343.401	130.05
343.613	56.32
343.826	23.55
344.038	52.22
344.25	105.47
344.462	17.41
344.674	23.55
344.886	91.13
345.099	105.47
345.311	19.46
345.523	25.6
345.735	23.55
345.947	74.75
346.159	23.55
346.371	60.42
346.583	66.56
346.795	84.99
347.007	25.6
347.219	23.55
347.431	33.79
347.643	72.7
347.855	80.89
348.067	66.56
348.279	-5.12
348.491	74.75
348.703	76.8
348.915	35.84
349.127	128
349.339	46.08
349.551	89.09
349.763	39.94
349.975	70.65
350.187	101.37
350.399	132.09
350.61	52.22
350.822	-9.22
351.034	13.31
351.246	134.14
351.458	17.41
351.669	27.65
351.881	136.19
352.093	168.96
352.305	80.89
352.517	60.42
352.728	113.66
352.94	48.13
353.152	58.37
353.363	37.89
353.575	35.84
353.787	33.79
353.999	35.84
354.21	140.29
354.422	82.94
354.633	11.26
354.845	1.02
355.057	52.22
355.268	82.94
355.48	103.42
355.692	9.22
355.903	58.37
356.115	37.89
356.326	82.94
356.538	72.7
356.749	105.47
356.961	105.47
357.172	46.08
357.384	25.6
357.595	119.81
357.807	50.18
358.018	33.79
358.23	23.55
358.441	121.85
358.653	89.09
358.864	-15.36
359.075	-11.26
359.287	17.41
359.498	87.04
359.709	54.27
359.921	95.23
360.132	62.46
360.344	91.13
360.555	23.55
360.766	74.75
360.977	70.65
361.189	107.52
361.4	105.47
361.611	72.7
361.823	-7.17
362.034	97.28
362.245	11.26
362.456	29.7
362.667	109.57
362.879	17.41
363.09	7.17
363.301	78.85
363.512	-19.46
363.723	82.94
363.935	29.7
364.146	125.95
364.357	80.89
364.568	91.13
364.779	11.26
364.99	136.19
365.201	-39.94
365.412	68.61
365.623	89.09
365.834	115.71
366.045	25.6
366.256	113.66
366.467	48.13
366.678	35.84
366.889	72.7
367.1	107.52
367.311	19.46
367.522	27.65
367.733	95.23
367.944	87.04
368.155	39.94
368.366	142.33
368.577	138.24
368.788	130.05
368.999	125.95
369.209	72.7
369.42	27.65
369.631	62.46
369.842	80.89
370.053	25.6
370.264	136.19
370.474	60.42
370.685	87.04
370.896	37.89
371.107	84.99
371.317	56.32
371.528	148.48
371.739	82.94
371.95	39.94
372.16	109.57
372.371	-31.74
372.582	95.23
372.792	99.33
373.003	97.28
373.214	66.56
373.424	123.9
373.635	66.56
373.846	56.32
374.056	89.09
374.267	78.85
374.477	76.8
374.688	123.9
374.898	101.37
375.109	128
375.319	60.42
375.53	144.38
375.74	109.57
375.951	76.8
376.161	52.22
376.372	78.85
376.582	37.89
376.793	17.41
377.003	76.8
377.214	78.85
377.424	111.61
377.635	87.04
377.845	68.61
378.055	130.05
378.266	99.33
378.476	72.7
378.686	54.27
378.897	101.37
379.107	60.42
379.317	7.17
379.528	103.42
379.738	58.37
379.948	72.7
380.158	70.65
380.369	111.61
380.579	93.18
380.789	-29.7
380.999	89.09
381.21	78.85
381.42	72.7
381.63	15.36
381.84	52.22
382.05	76.8
382.261	185.34
382.471	37.89
382.681	27.65
382.891	101.37
383.101	56.32
383.311	64.51
383.521	109.57
383.731	97.28
383.941	101.37
384.151	134.14
384.361	76.8
384.571	68.61
384.781	89.09
384.991	89.09
385.201	91.13
385.411	66.56
385.621	21.5
385.831	117.76
386.041	-13.31
386.251	60.42
386.461	107.52
386.671	95.23
386.881	7.17
387.091	31.74
387.301	70.65
387.511	134.14
387.72	111.61
387.93	99.33
388.14	123.9
388.35	7.17
388.56	44.03
388.769	44.03
388.979	21.5
389.189	66.56
389.399	62.46
389.609	74.75
389.818	91.13
390.028	35.84
390.238	64.51
390.447	99.33
390.657	95.23
390.867	60.42
391.076	15.36
391.286	89.09
391.496	78.85
391.705	91.13
391.915	123.9
392.125	62.46
392.334	66.56
392.544	111.61
392.753	123.9
392.963	39.94
393.172	160.77
393.382	-1.02
393.591	87.04
393.801	82.94
394.01	48.13
394.22	107.52
394.429	125.95
394.639	11.26
394.848	74.75
395.058	142.33
395.267	158.72
395.477	50.18
395.686	64.51
395.895	201.72
396.105	175.1
396.314	140.29
396.524	70.65
396.733	74.75
396.942	175.1
397.152	105.47
397.361	99.33
397.57	1.02
397.78	105.47
397.989	130.05
398.198	205.82
398.407	66.56
398.617	130.05
398.826	89.09
399.035	117.76
399.244	136.19
399.453	117.76
399.663	138.24
399.872	99.33
400.081	76.8
400.29	142.33
400.499	109.57
400.708	162.81
400.917	132.09
401.127	171.01
401.336	140.29
401.545	107.52
401.754	107.52
401.963	105.47
402.172	152.57
402.381	132.09
402.59	132.09
402.799	140.29
403.008	97.28
403.217	60.42
403.426	179.2
403.635	119.81
403.844	93.18
404.053	70.65
404.262	125.95
404.471	168.96
404.68	187.39
404.888	136.19
405.097	97.28
405.306	152.57
405.515	103.42
405.724	216.06
405.933	111.61
406.142	154.62
406.35	148.48
406.559	195.58
406.768	154.62
406.977	119.81
407.185	205.82
407.394	166.91
407.603	173.05
407.812	195.58
408.02	214.01
408.229	185.34
408.438	138.24
408.646	181.25
408.855	250.88
409.064	263.16
409.272	154.62
409.481	279.55
409.69	214.01
409.898	199.68
410.107	205.82
410.315	279.55
410.524	211.96
410.733	291.84
410.941	267.26
411.15	367.61
411.358	349.18
411.567	326.65
411.775	316.41
411.984	336.89
412.192	310.27
412.401	277.5
412.609	361.47
412.818	383.99
413.026	383.99
413.234	371.71
413.443	408.57
413.651	396.28
413.86	508.92
414.068	484.34
414.276	478.2
414.485	539.64
414.693	564.22
414.901	619.51
415.11	560.12
415.318	519.16
415.526	576.5
415.734	615.41
415.943	660.47
416.151	695.29
416.359	619.51
416.567	623.61
416.776	695.29
416.984	711.67
417.192	680.95
417.4	750.58
417.608	857.07
417.817	869.36
418.025	869.36
418.233	895.99
418.441	902.13
418.649	936.95
418.857	957.43
419.065	1059.82
419.273	971.76
419.481	1162.22
419.689	1096.69
419.897	1192.94
420.105	1158.13
420.313	1229.81
420.521	1223.66
420.729	1258.48
420.937	1293.29
421.145	1459.18
421.353	1483.75
421.561	1436.65
421.769	1557.48
421.977	1506.28
422.185	1543.14
422.393	1637.35
422.601	1809.38
422.809	1680.36
423.017	1780.71
423.224	1917.92
423.432	1903.59
423.64	1924.07
423.848	2112.48
424.056	2014.18
424.263	2216.93
424.471	2157.54
424.679	2210.78
424.887	2255.84
425.094	2378.72
425.302	2569.18
425.51	2536.41
425.718	2593.75
425.925	2567.13
426.133	2874.32
426.341	2765.78
426.548	2960.34
426.756	2989.01
426.964	3005.39
427.171	3122.13
427.379	3204.05
427.586	3277.77
427.794	3433.42
428.001	3578.83
428.209	3580.87
428.417	3744.71
428.624	3967.94
428.832	3808.2
429.039	3904.45
429.247	3974.08
429.454	4293.57
429.662	4473.79
429.869	4242.37
430.076	4479.93
430.284	4434.88
430.491	4600.76
430.699	5020.6
430.906	4848.57
431.114	5082.03
431.321	5196.72
431.528	5311.41
431.736	5614.51
431.943	5979.04
432.15	5608.36
432.358	5698.47
432.565	5964.71
432.772	6060.96
432.979	6319.01
433.187	6347.68
433.394	6327.2
433.601	6929.3
433.808	7033.75
434.016	6929.3
434.223	7201.68
434.43	7719.82
434.637	7607.18
434.844	7990.15
435.052	7979.91
435.259	8047.49
435.466	8242.05
435.673	8027.01
435.88	8530.81
436.087	9071.48
436.294	9030.52
436.501	8835.96
436.708	8909.69
436.915	9151.35
437.122	9610.09
437.329	9841.51
437.537	9909.1
437.743	10087.27
437.95	10103.65
438.157	10771.29
438.364	10896.22
438.571	10988.38
438.778	11002.71
438.985	12069.7
439.192	11551.57
439.399	11946.83
439.606	11469.65
439.813	12335.94
440.02	13118.26
440.227	12890.94
440.433	12862.27
440.64	13325.11
440.847	12915.51
441.054	13230.9
441.261	14527.27
441.467	14152.49
441.674	14433.06
441.881	14934.81
442.088	14775.07
442.294	14644
442.501	15411.99
442.708	15598.35
442.914	16020.24
443.121	16571.14
443.328	16249.61
443.534	17433.33
443.741	17136.38
443.948	16706.31
444.154	17877.74
444.361	17609.46
444.568	17910.51
444.774	17715.95
444.981	18303.72
445.187	18572
445.394	19559.13
445.6	18944.73
445.807	21050.05
446.013	19796.69
446.22	20544.2
446.426	21578.42
446.633	21443.26
446.839	22110.89
447.046	21383.87
447.252	22428.33
447.459	22557.35
447.665	22336.17
447.871	23048.86
448.078	24306.32
448.284	23163.55
448.491	23868.05
448.697	24672.9
448.903	25121.41
449.11	25264.77
449.316	24863.36
449.522	25649.78
449.728	25928.31
449.935	26380.91
450.141	25995.89
450.347	26593.9
450.553	25791.09
450.76	26118.77
450.966	27093.6
451.172	26733.16
451.378	27066.98
451.584	26649.19
451.791	27372.13
451.997	27359.84
452.203	27667.03
452.409	27695.71
452.615	27341.41
452.821	26499.69
453.027	26364.53
453.233	27640.41
453.44	26327.66
453.646	26573.42
453.852	27140.71
454.058	27470.43
454.264	26554.99
454.47	27216.48
454.676	26264.18
454.882	27349.6
455.088	24609.42
455.294	25342.59
455.5	25563.77
455.705	25901.68
455.911	24883.84
456.117	24210.06
456.323	23954.07
456.529	22823.59
456.735	23495.32
456.941	23247.52
457.147	22571.69
457.352	21840.56
457.558	21672.63
457.764	21877.43
457.97	21424.83
458.176	20986.56
458.381	20927.17
458.587	19866.32
458.793	19780.31
458.999	18918.11
459.204	20378.31
459.41	19538.65
459.616	18248.43
459.821	18404.07
460.027	18246.38
460.233	17847.02
460.438	17148.67
460.644	17392.37
460.85	16376.58
461.055	16491.27
461.261	16278.28
461.466	15104.79
461.672	14404.39
461.878	15547.15
462.083	14551.84
462.289	14435.11
462.494	14211.88
462.7	13490.99
462.905	13099.83
463.111	13665.07
463.316	13693.74
463.522	13404.98
463.727	13542.19
463.932	13560.63
464.138	13300.53
464.343	13294.39
464.549	12917.56
464.754	13290.29
464.959	13480.75
465.165	13298.49
465.37	12684.09
465.575	12163.91
465.781	12905.28
465.986	12942.14
466.191	12290.88
466.397	12151.62
466.602	11533.14
466.807	12118.86
467.012	12102.47
467.218	12143.43
467.423	11807.56
467.628	11914.06
467.833	12520.26
468.038	11971.4
468.244	11672.4
468.449	12327.75
468.654	11727.69
468.859	11815.76
469.064	11604.81
469.269	11250.52
469.474	11293.52
469.679	11436.88
469.885	11199.32
470.09	11207.51
470.295	11291.48
470.5	10941.27
470.705	11031.38
470.91	11008.86
471.115	10699.61
471.32	10726.24
471.525	10765.15
471.73	10261.35
471.935	10236.77
472.139	10124.13
472.344	10222.44
472.549	10105.7
472.754	10107.75
472.959	9968.49
473.164	9649
473.369	9710.44
473.574	10070.89
473.778	9806.7
473.983	9534.32
474.188	9444.21
474.393	9069.43
474.598	9094.01
474.802	9157.49
475.007	9141.11
475.212	9042.81
475.417	8786.81
475.621	8786.81
475.826	8946.55
476.031	8620.92
476.235	8416.13
476.44	8612.73
476.645	8305.54
476.849	8565.63
477.054	8194.95
477.259	8102.79
477.463	8280.96
477.668	8174.47
477.872	8156.04
478.077	7818.12
478.282	7703.43
478.486	7947.14
478.691	7814.02
478.895	7799.69
479.1	7668.62
479.304	7768.97
479.509	7439.25
479.713	7568.27
479.918	7461.77
480.122	7334.8
480.326	7480.21
480.531	7410.57
480.735	7459.73
480.94	7168.91
481.144	7472.01
481.348	7240.59
481.553	7232.4
481.757	7072.66
481.961	7105.43
482.166	7240.59
482.37	7209.87
482.574	7156.63
482.778	7224.21
482.983	7250.83
483.187	7402.38
483.391	7242.64
483.595	7216.02
483.8	7056.28
484.004	7195.54
484.208	7269.27
484.412	7252.88
484.616	7113.62
484.821	7134.1
485.025	6890.39
485.229	7310.22
485.433	7115.67
485.637	7267.22
485.841	7187.35
486.045	7035.8
486.249	7191.44
486.453	7080.85
486.657	7087
486.861	7232.4
487.065	6796.18
487.269	6925.21
487.473	6978.45
487.677	7306.13
487.881	7138.2
488.085	7187.35
488.289	7199.63
488.493	7240.59
488.697	7140.24
488.901	7332.75
489.105	7170.96
489.309	7404.43
489.512	7242.64
489.716	7146.39
489.92	7248.79
490.124	7261.07
490.328	7418.77
490.531	7187.35
490.735	7345.04
490.939	7359.38
491.143	7429.01
491.346	7248.79
491.55	7596.94
491.754	7420.81
491.958	7719.82
492.161	7488.4
492.365	7523.21
492.569	7650.19
492.772	7412.62
492.976	7547.79
493.18	7818.12
493.383	7787.4
493.587	7891.85
493.79	8070.02
493.994	7973.77
494.197	7830.41
494.401	8037.25
494.605	7916.42
494.808	8117.12
495.012	8145.8
495.215	8317.83
495.419	8244.1
495.622	8166.28
495.825	8268.67
496.029	8313.73
496.232	8407.94
496.436	8311.68
496.639	8751.99
496.843	8739.71
497.046	8907.64
497.249	8760.19
497.453	8864.63
497.656	9257.84
497.859	9182.07
498.063	8909.69
498.266	9507.69
498.469	9333.62
498.673	9456.5
498.876	9665.39
499.079	9466.74
499.282	9778.03
499.485	9950.06
499.689	9827.18
499.892	10013.54
500.095	10222.44
500.298	10431.33
500.501	10371.94
500.705	10410.85
500.908	10617.69
501.111	11064.15
501.314	10969.94
501.517	10941.27
501.72	11264.85
501.923	11242.32
502.126	11215.7
502.329	11576.14
502.532	11670.35
502.735	11598.67
502.938	12026.7
503.141	11766.6
503.344	12145.48
503.547	12067.66
503.75	12290.88
503.953	12507.97
504.156	12700.48
504.359	12743.49
504.562	12913.47
504.765	12915.51
504.968	13042.49
505.17	13550.39
505.373	13388.6
505.576	13597.49
505.779	13736.75
505.982	14007.08
506.185	14320.42
506.387	13853.48
506.59	14449.44
506.793	14721.82
506.996	14574.37
507.198	15176.47
507.401	14879.52
507.604	14938.91
507.807	15428.37
508.009	15252.25
508.212	15659.79
508.415	15780.62
508.617	16048.91
508.82	16212.74
509.022	16218.89
509.225	16280.33
509.428	16622.34
509.63	16667.39
509.833	16806.66
510.035	17238.78
510.238	17056.51
510.44	17347.32
510.643	17439.48
510.845	17742.58
511.048	17679.09
511.25	18014.96
511.453	18262.76
511.655	18485.99
511.858	18475.75
512.06	18873.06
512.262	18782.95
512.465	18969.31
512.667	19213.02
512.87	19321.56
513.072	19575.51
513.274	19557.08
513.477	20122.32
513.679	20013.77
513.881	20222.67
514.084	20447.94
514.286	20835.01
514.488	20628.17
514.69	21332.67
514.893	21342.91
515.095	21441.21
515.297	21959.34
515.499	21791.41
515.701	22284.97
515.904	22549.16
516.106	22418.09
516.308	22794.92
516.51	22981.28
516.712	23059.1
516.914	23257.76
517.116	23782.04
517.318	23847.57
517.52	24122
517.722	23939.73
517.925	24451.72
518.127	24560.27
518.329	24826.5
518.531	24799.88
518.733	25340.54
518.935	25395.84
519.136	25471.61
519.338	25827.96
519.54	26065.52
519.742	26135.15
519.944	26329.71
520.146	26684.01
520.348	27167.33
520.55	27157.09
520.752	27185.76
520.954	27581.02
521.155	27685.47
521.357	27992.66
521.559	27884.12
521.761	28633.68
521.963	28181.07
522.164	28627.53
522.366	29106.76
522.568	28791.37
522.77	29196.87
522.971	29876.79
523.173	29477.44
523.375	29811.26
523.576	29524.54
523.778	30007.86
523.98	30562.86
524.181	30319.15
524.383	30659.12
524.584	30784.04
524.786	30890.54
524.988	30870.06
525.189	31941.14
525.391	31564.32
525.592	31527.45
525.794	31949.34
525.995	31746.59
526.197	32117.27
526.398	31953.43
526.6	32449.04
526.801	32219.67
527.003	32647.69
527.204	32889.35
527.406	32924.17
527.607	33108.49
527.808	33307.14
528.01	32789
528.211	32780.81
528.412	33804.8
528.614	33663.49
528.815	33853.95
529.016	33888.76
529.218	33546.75
529.419	33923.58
529.62	33706.49
529.822	34034.17
530.023	33995.26
530.224	33907.19
530.425	33825.28
530.626	34130.42
530.828	34241.01
531.029	34419.19
531.23	34163.19
531.431	34191.86
531.632	34521.59
531.833	34836.97
532.035	34554.35
532.236	34771.44
532.437	34902.51
532.638	34808.3
532.839	35052.01
533.04	35033.58
533.241	34775.53
533.442	35404.26
533.643	35475.94
533.844	34988.52
534.045	35258.85
534.246	34896.36
534.447	35310.05
534.648	34929.13
534.849	35373.54
535.05	35238.37
535.251	35238.37
535.451	35140.07
535.652	35230.18
535.853	35613.15
536.054	35611.1
536.255	35215.85
536.456	34560.5
536.657	35701.22
536.857	35205.61
537.058	35267.05
537.259	35279.33
537.46	35365.35
537.66	35361.25
537.861	35529.19
538.062	35211.75
538.263	35338.72
538.463	35516.9
538.664	35471.84
538.865	35719.65
539.065	35414.5
539.266	34902.51
539.466	35863
539.667	35115.5
539.868	35637.73
540.068	35543.52
540.269	35557.86
540.469	35781.09
540.67	35312.1
540.87	35537.38
541.071	35291.62
541.271	35570.15
541.472	35318.25
541.672	35140.07
541.873	35488.23
542.073	35224.04
542.274	35852.76
542.474	35203.56
542.675	35023.34
542.875	35527.14
543.075	35625.44
543.276	34976.23
543.476	35586.53
543.676	35099.11
543.877	35627.49
544.077	35645.92
544.277	35285.48
544.478	35101.16
544.678	35512.8
544.878	35217.89
545.078	35480.03
545.279	35000.81
545.479	35099.11
545.679	35367.4
545.879	35512.8
546.079	35279.33
546.28	35400.16
546.48	34943.47
546.68	35170.79
546.88	35523.04
547.08	35365.35
547.28	35314.15
547.48	35394.02
547.68	35142.12
547.88	35328.48
548.081	35308.01
548.281	35475.94
548.481	35262.95
548.681	35367.4
548.881	35387.88
549.081	35375.59
549.28	35078.63
549.48	35496.42
549.68	34904.56
549.88	35463.65
550.08	35250.66
550.28	35095.02
550.48	35045.87
550.68	35248.61
550.88	35037.67
551.08	35410.4
551.279	35125.74
551.479	35129.83
551.679	34865.64
551.879	34937.32
552.079	35238.37
552.278	35015.15
552.478	34877.93
552.678	35129.83
552.878	35406.31
553.077	35181.03
553.277	34734.57
553.477	35361.25
553.676	35078.63
553.876	34978.28
554.076	35146.22
554.275	34988.52
554.475	35176.94
554.674	35041.77
554.874	34687.47
555.074	34505.2
555.273	35070.44
555.473	34824.68
555.672	34873.84
555.872	34689.52
556.071	34894.32
556.271	34730.48
556.47	34736.62
556.67	34505.2
556.869	34623.98
557.068	34951.66
557.268	33905.15
557.467	34556.4
557.667	34710
557.866	34550.26
558.065	34173.43
558.265	34177.53
558.464	34322.93
558.663	34822.64
558.863	34275.83
559.062	34540.02
559.261	34210.29
559.461	34689.52
559.66	34030.07
559.859	34247.16
560.058	34136.57
560.258	34058.74
560.457	33595.9
560.656	33792.51
560.855	33489.41
561.054	33892.86
561.253	33556.99
561.453	33798.65
561.652	33710.59
561.851	33604.1
562.05	33376.77
562.249	33227.27
562.448	33600
562.647	33497.6
562.846	33559.04
563.045	33272.32
563.244	32879.11
563.443	33559.04
563.642	32975.37
563.841	33096.2
564.04	32801.29
564.239	33161.73
564.438	33012.23
564.637	32858.63
564.836	32829.96
565.035	32328.21
565.234	32852.49
565.432	32653.84
565.631	32164.37
565.83	32598.54
566.029	32186.9
566.228	32573.97
566.427	32203.28
566.625	32264.72
566.824	31945.24
567.023	32315.92
567.222	31885.85
567.42	32211.48
567.619	32023.06
567.818	31777.31
568.016	32066.07
568.215	31750.68
568.414	31648.29
568.612	31988.25
568.811	31562.27
569.01	31646.24
569.208	31160.87
569.407	31588.89
569.605	30775.85
569.804	31527.45
570.002	30956.07
570.201	30974.5
570.4	31072.81
570.598	30728.75
570.797	30552.62
570.995	30900.78
571.193	30513.71
571.392	30868.01
571.59	30378.54
571.789	30773.8
571.987	30429.74
572.186	30550.57
572.384	30226.99
572.582	30734.89
572.781	30145.08
572.979	29747.77
573.177	29954.61
573.376	29882.94
573.574	29989.43
573.772	30286.39
573.971	29821.5
574.169	29813.31
574.367	29794.87
574.565	29604.41
574.763	29526.59
574.962	29448.77
575.16	28932.68
575.358	29485.63
575.556	28703.31
575.754	29643.32
575.952	28770.89
576.151	28858.95
576.349	29022.79
576.547	28910.15
576.745	28955.21
576.943	29055.56
577.141	28910.15
577.339	28955.21
577.537	28502.61
577.735	28471.89
577.933	28322.38
578.131	28262.99
578.329	28562
578.527	27800.15
578.725	28248.66
578.923	28093.01
579.121	27775.58
579.319	27927.13
579.516	28052.05
579.714	28228.18
579.912	27066.98
580.11	27533.92
580.308	27437.66
580.506	27462.24
580.704	27411.04
580.901	27415.13
581.099	27963.99
581.297	27091.55
581.495	27026.02
581.692	27370.08
581.89	26870.37
582.088	27288.16
582.285	27058.79
582.483	27210.34
582.681	27124.32
582.878	26870.37
583.076	26589.8
583.274	27185.76
583.471	26174.06
583.669	26423.92
583.866	26337.9
584.064	26727.02
584.262	26339.95
584.459	26350.19
584.657	26282.61
584.854	26335.85
585.052	25782.9
585.249	25907.83
585.447	25987.7
585.644	25844.34
585.841	25938.55
586.039	26047.09
586.236	25203.33
586.434	25332.35
586.631	25143.94
586.828	25436.8
587.026	25457.28
587.223	25553.53
587.42	25289.34
587.618	25229.95
587.815	25070.21
588.012	24885.89
588.21	24935.04
588.407	24939.14
588.604	24838.79
588.801	24613.51
588.999	24922.76
589.196	24830.6
589.393	24519.31
589.59	24519.31
589.787	24447.63
589.984	24248.97
590.182	24185.49
590.379	24421
590.576	24265.36
590.773	23976.59
590.97	23945.87
591.167	24050.32
591.364	23747.22
591.561	23870.1
591.758	23663.25
591.955	23734.93
592.152	24019.6
592.349	23618.2
592.546	23503.51
592.743	23409.31
592.94	23106.21
593.137	23622.3
593.334	23480.99
593.531	23102.11
593.727	22948.51
593.924	23251.61
594.121	22919.84
594.318	23347.87
594.515	22895.27
594.712	23055.01
594.908	22813.35
595.105	22848.16
595.302	22758.05
595.499	22434.47
595.696	22583.98
595.892	22698.66
596.089	22327.98
596.286	22588.07
596.482	22596.26
596.679	22309.55
596.876	22413.99
597.072	22201.01
597.269	22209.2
597.466	22012.59
597.662	22053.55
597.859	21879.47
598.055	22164.14
598.252	21815.99
598.448	21813.94
598.645	21787.32
598.841	21347
599.038	21603
599.234	21615.29
599.431	21408.44
599.627	21482.17
599.824	21445.3
600.02	21220.03
600.217	21019.33
600.413	21265.08
600.609	21127.87
600.806	20927.17
601.002	21142.21
601.198	21007.04
601.395	20728.52
601.591	20802.24
601.787	20800.19
601.984	20935.36
602.18	20832.96
602.376	20589.25
602.572	20271.82
602.769	20542.15
602.965	20323.02
603.161	20628.17
603.357	20351.69
603.553	20447.94
603.75	20257.48
603.946	20286.15
604.142	19954.38
604.338	19643.09
604.534	20224.72
604.73	19796.69
604.926	19749.59
605.122	19704.53
605.318	19737.3
605.514	19448.54
605.71	19397.34
605.906	19407.58
606.102	19667.67
606.298	19684.05
606.494	19442.39
606.69	19374.81
606.886	19589.85
607.082	19376.86
607.278	19256.03
607.474	19129.05
607.67	19307.23
607.866	19161.82
608.062	19239.64
608.257	18971.36
608.453	19053.28
608.649	19084
608.845	18856.67
609.041	18703.07
609.236	18977.5
609.432	18950.88
609.628	18615.01
609.824	18729.7
610.019	18574.05
610.215	18649.83
610.411	18627.3
610.606	18479.85
610.802	18436.84
610.998	18582.24
611.193	18631.4
611.389	18451.17
611.584	18449.13
611.78	18211.56
611.976	18424.55
612.171	18307.82
612.367	18418.41
612.562	18238.19
612.758	18305.77
612.953	18086.64
613.149	18264.81
613.344	17693.43
613.539	18307.82
613.735	17982.19
613.93	18195.18
614.126	17939.18
614.321	18154.22
614.517	17777.39
614.712	17920.75
614.907	17801.97
615.103	17912.56
615.298	17615.6
615.493	17990.38
615.688	17574.64
615.884	17826.54
616.079	17603.32
616.274	17836.78
616.47	17689.33
616.665	17707.76
616.86	17285.88
617.055	17396.47
617.25	17584.88
617.445	17683.19
617.641	17222.39
617.836	17412.85
618.031	17109.75
618.226	17459.96
618.421	17093.37
618.616	17443.57
618.811	17158.91
619.006	17439.48
619.201	17007.36
619.396	17052.41
619.591	16771.84
619.786	17228.54
619.981	16573.19
620.176	16833.28
620.371	16438.02
620.566	16642.82
620.761	16593.67
620.956	16720.64
621.151	16237.32
621.346	16417.54
621.541	16136.97
621.735	16315.14
621.93	15956.75
622.125	15948.56
622.32	15850.25
622.515	16028.43
622.709	15788.82
622.904	15895.31
623.099	15508.24
623.294	15629.07
623.488	15479.57
623.683	15323.93
623.878	15364.89
624.072	15151.9
624.267	15321.88
624.462	15282.97
624.656	15227.67
624.851	15223.58
625.046	14807.84
625.24	14844.7
625.435	14652.19
625.629	14680.86
625.824	14504.74
626.018	14666.53
626.213	14226.21
626.407	14281.51
626.602	14461.73
626.796	14113.58
626.991	14406.44
627.185	13837.1
627.38	14129.96
627.574	13949.74
627.768	13771.57
627.963	13861.68
628.157	13808.43
628.352	13746.99
628.546	13398.84
628.74	13394.74
628.935	13300.53
629.129	13409.08
629.323	13282.1
629.517	13538.1
629.712	13202.23
629.906	13179.7
630.1	12784.44
630.294	13120.31
630.489	12872.51
630.683	12856.12
630.877	12774.21
631.071	12747.58
631.265	12735.29
631.459	12630.85
631.653	12503.87
631.848	12591.94
632.042	12233.54
632.236	12675.9
632.43	12208.97
632.624	12374.85
632.818	12084.04
633.012	11946.83
633.206	11995.98
633.4	12112.71
633.594	11963.21
633.788	11926.35
633.982	11961.16
634.176	11787.08
634.369	11539.28
634.563	11711.31
634.757	11504.46
634.951	11780.94
635.145	11518.8
635.339	11529.04
635.533	11254.61
635.726	11381.59
635.92	11203.41
636.114	11232.08
636.308	11178.84
636.501	11170.65
636.695	10920.79
636.889	10857.31
637.083	10988.38
637.276	11031.38
637.47	10812.25
637.664	10705.76
637.857	10738.52
638.051	10478.43
638.244	10546.02
638.438	10503.01
638.632	10576.73
638.825	10351.46
639.019	10369.89
639.212	10371.94
639.406	10234.72
639.599	10263.4
639.793	10249.06
639.986	10013.54
640.18	10238.82
640.373	10070.89
640.567	9853.8
640.76	10044.26
640.954	9984.87
641.147	9943.91
641.34	9798.51
641.534	9673.58
641.727	9448.3
641.92	9640.81
642.114	9683.82
642.307	9528.17
642.5	9528.17
642.694	9460.59
642.887	9304.95
643.08	9368.43
643.273	9147.25
643.467	9245.55
643.66	9280.37
643.853	9130.87
644.046	9073.53
644.239	9073.53
644.432	8760.19
644.626	9245.55
644.819	8967.03
645.012	8913.78
645.205	8887.16
645.398	8780.67
645.591	8557.44
645.784	8715.13
645.977	8555.39
646.17	8795
646.363	8590.2
646.556	8416.13
646.749	8498.05
646.942	8543.1
647.135	8395.65
647.328	8422.27
647.521	8469.37
647.714	8328.06
647.907	8213.38
648.099	8170.37
648.292	8184.71
648.485	8121.22
648.678	8010.63
648.871	7875.46
649.064	7887.75
649.256	8035.21
649.449	7842.7
649.642	7947.14
649.835	7781.26
650.027	7861.13
650.22	7732.11
650.413	7922.57
650.605	7709.58
650.798	7490.45
650.991	7654.28
651.183	7738.25
651.376	7535.5
651.568	7580.56
651.761	7408.53
651.954	7539.6
652.146	7576.46
652.339	7453.58
652.531	7388.05
652.724	7269.27
652.916	7091.09
653.109	7115.67
653.301	7121.81
653.494	7312.27
653.686	7121.81
653.879	7244.69
654.071	7058.32
654.263	7011.22
654.456	7039.89
654.648	6937.49
654.84	6822.81
655.033	6912.92
655.225	6638.49
655.417	6843.29
655.61	6706.07
655.802	6835.1
655.994	6583.2
656.186	6814.62
656.379	6781.85
656.571	6642.59
656.763	6632.35
656.955	6503.32
657.148	6521.76
657.34	6482.85
657.532	6536.09
657.724	6480.8
657.916	6316.96
658.108	6402.97
658.3	6263.71
658.492	6247.33
658.684	6110.11
658.876	6142.88
659.068	6192.03
659.26	6032.29
659.452	6163.36
659.644	6085.54
659.836	5942.18
660.028	6020
660.22	5741.48
660.412	5989.28
660.604	5874.6
660.796	5917.61
660.988	5905.32
661.18	5741.48
661.372	5663.66
661.563	5895.08
661.755	5680.04
661.947	5688.23
662.139	5602.22
662.331	5708.71
662.522	5495.72
662.714	5524.4
662.906	5651.37
663.097	5710.76
663.289	5454.76
663.481	5448.62
663.673	5680.04
663.864	5237.68
664.056	5321.65
664.247	5321.65
664.439	5372.85
664.631	5229.49
664.822	5407.66
665.014	5473.2
665.205	5211.06
665.397	5290.93
665.588	5209.01
665.78	5264.3
665.971	5155.76
666.163	5264.3
666.354	5176.24
666.546	5219.25
666.737	5047.22
666.929	5200.82
667.12	5127.09
667.311	5012.4
667.503	5049.27
667.694	4950.96
667.885	4979.64
668.077	4850.61
668.268	4940.72
668.459	4813.75
668.651	4901.81
668.842	4885.43
669.033	4830.13
669.224	4803.51
669.416	4803.51
669.607	4735.93
669.798	4799.41
669.989	4848.57
670.18	4815.8
670.371	4635.58
670.563	4713.4
670.754	4615.1
670.945	4629.43
671.136	4656.06
671.327	4703.16
671.518	4658.1
671.709	4506.56
671.9	4512.7
672.091	4447.16
672.282	4594.62
672.473	4352.96
672.664	4453.31
672.855	4545.47
673.046	4537.27
673.237	4332.48
673.428	4445.12
673.619	4268.99
673.809	4379.58
674	4391.87
674.191	4307.9
674.382	4252.61
674.573	4295.61
674.764	4234.18
674.954	4234.18
675.145	4258.75
675.336	4264.89
675.527	4287.42
675.717	4340.67
675.908	4219.84
676.099	4172.74
676.289	4107.2
676.48	4252.61
676.671	3955.65
676.861	4131.78
677.052	4123.59
677.243	4201.41
677.433	4047.81
677.624	4068.29
677.814	4033.47
678.005	4041.67
678.195	3972.04
678.386	4017.09
678.576	4021.19
678.767	3883.97
678.957	4051.91
679.148	4021.19
679.338	3845.06
679.529	4006.85
679.719	3967.94
679.909	3994.56
680.1	3941.32
680.29	3888.07
680.481	3984.32
680.671	3759.05
680.861	3763.14
681.052	3900.36
681.242	3802.05
681.432	3931.08
681.622	3787.72
681.813	3797.96
682.003	3761.09
682.193	3791.81
682.383	3777.48
682.573	3734.47
682.764	3724.23
682.954	3736.52
683.144	3828.68
683.334	3566.54
683.524	3836.87
683.714	3650.5
683.904	3652.55
684.094	3699.66
684.284	3662.79
684.474	3726.28
684.664	3740.61
684.854	3746.76
685.044	3640.26
685.234	3544.01
685.424	3523.53
685.614	3550.15
685.804	3580.87
685.994	3613.64
686.184	3523.53
686.374	3564.49
686.564	3515.34
686.753	3505.1
686.943	3482.57
687.133	3484.62
687.323	3576.78
687.513	3468.24
687.702	3533.77
687.892	3378.12
688.082	3447.76
688.272	3382.22
688.461	3429.32
688.651	3490.76
688.841	3367.88
689.03	3427.28
689.22	3365.84
689.41	3376.08
689.599	3314.64
689.789	3306.45
689.979	3394.51
690.168	3423.18
690.358	3337.17
690.547	3130.32
690.737	3341.26
690.926	3359.69
691.116	3124.18
691.305	3210.19
691.495	3144.66
691.684	3285.97
691.874	3150.8
692.063	3300.3
692.252	3126.22
692.442	3142.61
692.631	3197.9
692.82	3150.8
693.01	3064.79
693.199	3038.16
693.388	2980.82
693.578	2970.58
693.767	3134.42
693.956	3093.46
694.146	2958.29
694.335	3013.59
694.524	2991.06
694.713	2964.43
694.902	3070.93
695.092	3124.18
695.281	3056.59
695.47	2993.11
695.659	2948.05
695.848	2946
696.037	2931.67
696.226	3087.31
696.415	2962.39
696.604	2970.58
696.793	2903
696.982	2880.47
697.171	2995.15
697.36	2835.41
697.549	2874.32
697.738	2759.64
697.927	2966.48
698.116	2923.48
698.305	2753.49
698.494	2798.55
698.683	2866.13
698.872	2882.52
699.061	2968.53
699.25	2806.74
699.438	2921.43
699.627	2825.17
699.816	2948.05
700.005	2907.09
700.193	2782.17
700.382	2870.23
700.571	2739.16
700.76	2845.65
700.948	2837.46
701.137	2776.02
701.326	2810.84
701.514	2810.84
701.703	2767.83
701.892	2804.69
702.08	2937.81
702.269	2835.41
702.457	2812.89
702.646	2784.21
702.834	2755.54
703.023	2786.26
703.212	2892.76
703.4	2724.82
703.589	2759.64
703.777	2864.08
703.965	2851.8
704.154	2849.75
704.342	2900.95
704.531	2776.02
704.719	2690.01
704.907	2843.6
705.096	2765.78
705.284	2816.98
705.472	2835.41
705.661	2776.02
705.849	2687.96
706.037	2849.75
706.226	2614.23
706.414	2773.97
706.602	2839.51
706.79	2694.1
706.979	2714.58
707.167	2804.69
707.355	2718.68
707.543	2780.12
707.731	2636.76
707.919	2737.11
708.107	2681.82
708.296	2661.34
708.484	2675.67
708.672	2714.58
708.86	2735.06
709.048	2724.82
709.236	2710.49
709.424	2587.61
709.612	2657.24
709.8	2673.62
709.988	2608.09
710.176	2644.95
710.364	2726.87
710.551	2698.2
710.739	2663.38
710.927	2675.67
711.115	2620.38
711.303	2700.25
711.491	2573.27
711.679	2659.29
711.866	2661.34
712.054	2741.21
712.242	2583.51
712.43	2616.28
712.617	2632.66
712.805	2485.21
712.993	2692.05
713.181	2550.75
713.368	2620.38
713.556	2618.33
713.744	2665.43
713.931	2698.2
714.119	2632.66
714.306	2735.06
714.494	2644.95
714.682	2485.21
714.869	2552.79
715.057	2601.94
715.244	2567.13
715.432	2655.19
715.619	2542.55
715.807	2665.43
715.994	2626.52
716.182	2585.56
716.369	2653.14
716.556	2616.28
716.744	2550.75
716.931	2540.51
717.119	2626.52
717.306	2536.41
717.493	2679.77
717.681	2622.42
717.868	2634.71
718.055	2569.18
718.242	2603.99
718.43	2599.9
718.617	2655.19
718.804	2544.6
718.991	2583.51
719.179	2571.22
719.366	2466.78
719.553	2483.16
719.74	2368.48
719.927	2579.42
720.114	2651.1
720.301	2540.51
720.488	2474.97
720.676	2624.47
720.863	2556.89
721.05	2579.42
721.237	2563.03
721.424	2452.44
721.611	2419.68
721.798	2554.84
721.985	2458.59
722.172	2579.42
722.358	2575.32
722.545	2634.71
722.732	2452.44
722.919	2548.7
723.106	2569.18
723.293	2468.83
723.48	2560.98
723.667	2462.68
723.853	2517.98
724.04	2501.59
724.227	2501.59
724.414	2515.93
724.6	2391
724.787	2571.22
724.974	2530.27
725.161	2446.3
725.347	2419.68
725.534	2450.39
725.72	2413.53
725.907	2298.84
726.094	2450.39
726.28	2499.55
726.467	2436.06
726.653	2409.44
726.84	2513.88
727.027	2419.68
727.213	2341.85
727.4	2526.17
727.586	2431.96
727.773	2577.37
727.959	2481.11
728.145	2413.53
728.332	2382.81
728.518	2407.39
728.705	2411.48
728.891	2362.33
729.077	2397.15
729.264	2419.68
729.45	2358.24
729.636	2517.98
729.823	2366.43
730.009	2493.4
730.195	2462.68
730.382	2493.4
730.568	2280.41
730.754	2380.76
730.94	2460.63
731.126	2556.89
731.313	2434.01
731.499	2407.39
731.685	2423.77
731.871	2386.91
732.057	2421.72
732.243	2425.82
732.429	2438.11
732.615	2477.02
732.801	2423.77
732.987	2325.47
733.173	2345.95
733.359	2386.91
733.545	2413.53
733.731	2360.28
733.917	2333.66
734.103	2259.93
734.289	2419.68
734.475	2411.48
734.661	2468.83
734.847	2384.86
735.033	2407.39
735.219	2356.19
735.404	2313.18
735.59	2411.48
735.776	2329.56
735.962	2456.54
736.148	2317.28
736.333	2350.04
736.519	2272.22
736.705	2358.24
736.89	2231.26
737.076	2167.77
737.262	2319.32
737.447	2401.24
737.633	2325.47
737.819	2272.22
738.004	2309.08
738.19	2239.45
738.375	2261.98
738.561	2241.5
738.747	2139.1
738.932	2290.65
739.118	2233.31
739.303	2235.36
739.489	2255.84
739.674	2212.83
739.859	2124.77
740.045	2317.28
740.23	2188.25
740.416	2163.68
740.601	2333.66
740.786	2214.88
740.972	2345.95
741.157	2124.77
741.342	2206.69
741.528	2022.37
741.713	2175.97
741.898	2196.45
742.084	2171.87
742.269	2184.16
742.454	2087.9
742.639	2186.21
742.824	2075.62
743.01	2137.06
743.195	2130.91
743.38	2016.23
743.565	2079.71
743.75	2128.86
743.935	2014.18
744.12	2094.05
744.305	2155.49
744.49	2081.76
744.675	2051.04
744.86	1977.31
745.045	1967.07
745.23	1979.36
745.415	1950.69
745.6	1997.79
745.785	2030.56
745.97	2005.99
746.155	1922.02
746.34	1971.17
746.525	2003.94
746.71	1928.16
746.895	1786.85
747.079	1956.83
747.264	1907.68
747.449	1971.17
747.634	1899.49
747.819	1907.68
748.003	1786.85
748.188	1973.22
748.373	1752.04
748.557	1854.44
748.742	1766.37
748.927	1790.95
749.111	1913.83
749.296	1889.25
749.481	1803.24
749.665	1799.14
749.85	1889.25
750.034	1756.13
750.219	1780.71
750.404	1727.46
750.588	1774.56
750.773	1602.54
750.957	1758.18
751.141	1637.35
751.326	1647.59
751.51	1643.49
751.695	1590.25
751.879	1569.77
752.064	1627.11
752.248	1606.63
752.432	1608.68
752.617	1676.26
752.801	1598.44
752.985	1616.87
753.17	1625.06
753.354	1623.02
753.538	1623.02
753.722	1481.71
753.907	1463.27
754.091	1481.71
754.275	1514.47
754.459	1508.33
754.643	1532.9
754.828	1457.13
755.012	1410.03
755.196	1514.47
755.38	1557.48
755.564	1422.31
755.748	1410.03
755.932	1424.36
756.116	1311.72
756.3	1467.37
756.484	1364.97
756.668	1338.35
756.852	1375.21
757.036	1399.79
757.22	1354.73
757.404	1367.02
757.588	1336.3
757.772	1317.87
757.956	1336.3
758.14	1340.4
758.323	1278.96
758.507	1350.64
758.691	1252.33
758.875	1256.43
759.059	1299.44
759.242	1233.9
759.426	1131.5
759.61	1305.58
759.794	1127.41
759.977	1334.25
760.161	1219.57
760.345	1170.41
760.528	1248.24
760.712	1199.09
760.895	1203.18
761.079	1100.78
761.263	1199.09
761.446	1160.17
761.63	1186.8
761.813	1250.28
761.997	1104.88
762.18	1111.02
762.364	1184.75
762.547	1104.88
762.731	1131.5
762.914	1184.75
763.098	1141.74
763.281	1174.51
763.464	1125.36
763.648	1076.21
763.831	1139.69
764.015	1047.54
764.198	1100.78
764.381	1059.82
764.564	1088.5
764.748	1063.92
764.931	1090.54
765.114	1086.45
765.297	1111.02
765.481	1041.39
765.664	943.09
765.847	1086.45
766.03	1094.64
766.213	1014.77
766.397	1068.02
766.58	1000.43
766.763	1053.68
766.946	1070.06
767.129	1033.2
767.312	1002.48
767.495	1041.39
767.678	1004.53
767.861	973.81
768.044	959.47
768.227	990.19
768.41	943.09
768.593	975.86
768.776	1053.68
768.959	969.71
769.142	982
769.324	918.51
769.507	1002.48
769.69	846.84
769.873	996.34
770.056	949.23
770.239	982
770.421	830.45
770.604	869.36
770.787	865.27
770.97	904.18
771.152	918.51
771.335	920.56
771.518	924.66
771.7	920.56
771.883	881.65
772.066	908.27
772.248	852.98
772.431	908.27
772.613	926.71
772.796	900.08
772.978	824.31
773.161	834.55
773.343	760.82
773.526	801.78
773.708	857.07
773.891	848.88
774.073	865.27
774.256	809.97
774.438	908.27
774.621	814.07
774.803	795.64
774.985	668.66
775.168	816.12
775.35	748.53
775.532	816.12
775.715	742.39
775.897	791.54
776.079	752.63
776.261	762.87
776.444	818.16
776.626	691.19
776.808	719.86
776.99	779.25
777.173	738.29
777.355	740.34
777.537	664.57
777.719	748.53
777.901	654.33
778.083	703.48
778.265	674.81
778.447	756.72
778.629	771.06
778.811	683
778.993	654.33
779.175	734.2
779.357	693.24
779.539	625.65
779.721	685.05
779.903	666.61
780.085	680.95
780.267	668.66
780.449	668.66
780.631	599.03
780.812	674.81
780.994	670.71
781.176	586.74
781.358	617.46
781.54	539.64
781.721	543.74
781.903	652.28
782.085	584.7
782.267	605.17
782.448	648.18
782.63	633.85
782.812	582.65
782.993	611.32
783.175	588.79
783.357	629.75
783.538	541.69
783.72	531.45
783.901	588.79
784.083	549.88
784.264	476.15
784.446	457.72
784.627	410.62
784.809	576.5
784.99	506.87
785.172	547.83
785.353	609.27
785.535	605.17
785.716	492.54
785.897	517.11
786.079	527.35
786.26	594.93
786.441	459.77
786.623	508.92
786.804	416.76
786.985	453.63
787.167	521.21
787.348	488.44
787.529	531.45
787.71	510.97
787.891	447.48
788.073	449.53
788.254	451.58
788.435	447.48
788.616	445.43
788.797	390.14
788.978	472.06
789.159	420.86
789.34	422.91
789.522	316.41
789.703	492.54
789.884	390.14
790.065	396.28
790.246	447.48
790.427	433.15
790.607	392.19
790.788	349.18
790.969	336.89
791.15	379.9
791.331	414.71
791.512	437.24
791.693	347.13
791.874	433.15
792.054	486.39
792.235	517.11
792.416	322.56
792.597	326.65
792.778	259.07
792.958	359.42
793.139	420.86
793.32	347.13
793.5	365.56
793.681	353.27
793.862	318.46
794.042	326.65
794.223	343.03
794.404	347.13
794.584	322.56
794.765	396.28
794.945	381.95
795.126	386.04
795.306	379.9
795.487	369.66
795.667	289.79
795.848	306.17
796.028	302.08
796.209	345.08
796.389	361.47
796.57	326.65
796.75	287.74
796.93	343.03
797.111	322.56
797.291	279.55
797.471	355.32
797.652	332.79
797.832	214.01
798.012	357.37
798.192	263.16
798.373	300.03
798.553	250.88
798.733	314.36
798.913	351.23
799.093	283.64
799.274	351.23
799.454	349.18
799.634	250.88
799.814	263.16
799.994	267.26
800.174	318.46
800.354	293.88
800.534	312.32
800.714	306.17
800.894	300.03
801.074	232.44
801.254	257.02
801.434	326.65
801.614	295.93
801.794	271.36
801.974	648.18
802.154	236.54
802.334	297.98
802.514	340.99
802.693	211.96
802.873	218.11
803.053	334.84
803.233	242.68
803.413	244.73
803.592	289.79
803.772	283.64
803.952	244.73
804.131	232.44
804.311	265.21
804.491	267.26
804.67	205.82
804.85	285.69
805.03	300.03
805.209	263.16
805.389	220.16
805.568	195.58
805.748	234.49
805.928	240.64
806.107	232.44
806.287	240.64
806.466	263.16
806.646	211.96
806.825	150.53
807.004	197.63
807.184	211.96
807.363	156.67
807.543	259.07
807.722	254.97
807.901	187.39
808.081	214.01
808.26	173.05
808.439	220.16
808.619	195.58
808.798	205.82
808.977	211.96
809.156	246.78
809.336	156.67
809.515	191.49
809.694	187.39
809.873	171.01
810.052	234.49
810.231	250.88
810.411	195.58
810.59	254.97
810.769	218.11
810.948	216.06
811.127	209.92
811.306	207.87
811.485	201.72
811.664	314.36
811.843	209.92
812.022	146.43
812.201	140.29
812.38	187.39
812.559	193.53
812.737	144.38
812.916	183.29
813.095	164.86
813.274	136.19
813.453	203.77
813.632	207.87
813.811	234.49
813.989	191.49
814.168	166.91
814.347	150.53
814.526	171.01
814.704	185.34
814.883	185.34
815.062	150.53
815.24	132.09
815.419	193.53
815.598	199.68
815.776	140.29
815.955	148.48
816.133	138.24
816.312	197.63
816.49	177.15
816.669	222.2
816.847	150.53
817.026	130.05
817.204	183.29
817.383	144.38
817.561	189.44
817.74	234.49
817.918	146.43
818.097	185.34
818.275	128
818.453	123.9
818.632	185.34
818.81	119.81
818.988	201.72
819.167	150.53
819.345	177.15
819.523	175.1
819.701	162.81
819.879	199.68
820.058	66.56
820.236	162.81
820.414	123.9
820.592	144.38
820.77	142.33
820.948	160.77
821.127	152.57
821.305	160.77
821.483	111.61
821.661	185.34
821.839	173.05
822.017	156.67
822.195	175.1
822.373	187.39
822.551	117.76
822.729	166.91
822.907	113.66
823.085	201.72
823.262	99.33
823.44	82.94
823.618	156.67
823.796	158.72
823.974	156.67
824.152	128
824.329	113.66
824.507	177.15
824.685	146.43
824.863	134.14
825.04	183.29
825.218	177.15
825.396	158.72
825.574	132.09
825.751	144.38
825.929	220.16
826.107	37.89
826.284	160.77
826.462	130.05
826.639	222.2
826.817	72.7
826.994	203.77
827.172	109.57
827.349	105.47
827.527	148.48
827.704	123.9
827.882	220.16
828.059	125.95
828.237	72.7
828.414	191.49
828.591	76.8
828.769	191.49
828.946	197.63
829.124	144.38
829.301	132.09
829.478	107.52
829.655	156.67
829.833	80.89
830.01	111.61
830.187	177.15
830.364	117.76
830.542	183.29
830.719	128
830.896	101.37
831.073	220.16
831.25	74.75
831.427	113.66
831.604	179.2
831.782	142.33
831.959	84.99
832.136	101.37
832.313	171.01
832.49	103.42
832.667	130.05
832.844	119.81
833.021	142.33
833.198	128
833.374	140.29
833.551	82.94
833.728	105.47
833.905	146.43
834.082	138.24
834.259	62.46
834.436	121.85
834.612	72.7
834.789	181.25
834.966	109.57
835.143	166.91
835.319	76.8
835.496	152.57
835.673	80.89
835.85	138.24
836.026	150.53
836.203	152.57
836.38	48.13
836.556	105.47
836.733	205.82
836.909	82.94
837.086	123.9
837.262	140.29
837.439	111.61
837.616	68.61
837.792	87.04
837.968	105.47
838.145	35.84
838.321	97.28
838.498	105.47
838.674	185.34
838.851	128
839.027	72.7
839.203	121.85
839.38	89.09
839.556	58.37
839.732	109.57
839.909	134.14
840.085	27.65
840.261	72.7
840.437	148.48
840.614	146.43
840.79	162.81
840.966	80.89
841.142	76.8
841.318	113.66
841.494	130.05
841.671	74.75
841.847	78.85
842.023	78.85
842.199	89.09
842.375	60.42
842.551	78.85
842.727	156.67
842.903	222.2
843.079	70.65
843.255	152.57
843.431	48.13
843.607	158.72
843.783	19.46
843.959	64.51
844.134	-1.02
844.31	107.52
844.486	101.37
844.662	134.14
844.838	84.99
845.013	138.24
845.189	87.04
845.365	72.7
845.541	123.9
845.716	19.46
845.892	80.89
846.068	87.04
846.244	52.22
846.419	50.18
846.595	152.57
846.77	105.47
846.946	128
847.122	56.32
847.297	66.56
847.473	74.75
847.648	44.03
847.824	74.75
847.999	64.51
848.175	50.18
848.35	44.03
848.526	117.76
848.701	70.65
848.876	7.17
849.052	68.61
849.227	154.62
849.403	46.08
849.578	119.81
849.753	17.41
849.929	66.56
850.104	78.85
850.279	107.52
850.454	109.57
850.63	140.29
850.805	105.47
850.98	97.28
851.155	33.79
851.33	5.12
851.505	144.38
851.681	123.9
851.856	23.55
852.031	23.55
852.206	-1.02
852.381	74.75
852.556	72.7
852.731	109.57
852.906	138.24
853.081	46.08
853.256	68.61
853.431	105.47
853.606	-27.65
853.781	58.37
853.956	17.41
854.131	111.61
854.305	54.27
854.48	-5.12
854.655	68.61
854.83	39.94
855.005	82.94
855.18	148.48
855.354	95.23
855.529	50.18
855.704	52.22
855.879	80.89
856.053	101.37
856.228	52.22
856.403	52.22
856.577	46.08
856.752	15.36
856.926	146.43
857.101	72.7
857.276	50.18
857.45	64.51
857.625	37.89
857.799	58.37
857.974	101.37
858.148	-17.41
858.323	60.42
858.497	99.33
858.672	58.37
858.846	78.85
859.02	76.8
859.195	35.84
859.369	-11.26
859.543	64.51
859.718	78.85
859.892	58.37
860.066	15.36
860.241	56.32
860.415	107.52
860.589	68.61
860.763	48.13
860.938	60.42
861.112	17.41
861.286	41.98
861.46	23.55
861.634	50.18
861.808	46.08
861.982	72.7
862.157	13.31
862.331	19.46
862.505	99.33
862.679	15.36
862.853	11.26
863.027	37.89
863.201	105.47
863.375	-17.41
863.549	-17.41
863.722	35.84
863.896	95.23
864.07	56.32
864.244	58.37
864.418	5.12
864.592	97.28
864.766	-15.36
864.939	41.98
865.113	9.22
865.287	27.65
865.461	19.46
865.634	44.03
865.808	19.46
865.982	-70.65
866.156	29.7
866.329	35.84
866.503	115.71
866.676	50.18
866.85	74.75
867.024	33.79
867.197	60.42
867.371	-23.55
867.544	-21.5
867.718	62.46
867.891	103.42
868.065	29.7
868.238	89.09
868.412	56.32
868.585	87.04
868.759	91.13
868.932	70.65
869.105	101.37
869.279	70.65
869.452	31.74
869.625	113.66
869.799	50.18
869.972	76.8
870.145	-3.07
870.319	72.7
870.492	15.36
870.665	-15.36
870.838	109.57
871.011	50.18
871.185	64.51
871.358	33.79
871.531	52.22
871.704	66.56
871.877	31.74
872.05	72.7
872.223	95.23
872.396	29.7
872.569	68.61
872.742	19.46
872.915	23.55
873.088	44.03
873.261	35.84
873.434	29.7
873.607	58.37
873.78	48.13
873.953	109.57
874.126	54.27
874.299	78.85
874.471	93.18
874.644	80.89
874.817	76.8
874.99	68.61
875.163	46.08
875.335	58.37
875.508	-46.08
875.681	56.32
875.853	-35.84
876.026	33.79
876.199	13.31
876.371	11.26
876.544	11.26
876.717	27.65
876.889	-5.12
877.062	62.46
877.234	11.26
877.407	56.32
877.579	-70.65
877.752	82.94
877.924	105.47
878.097	9.22
878.269	-5.12
878.442	68.61
878.614	123.9
878.786	11.26
878.959	-27.65
879.131	78.85
879.303	-17.41
879.476	134.14
879.648	93.18
879.82	74.75
879.993	17.41
880.165	74.75
880.337	25.6
880.509	15.36
880.681	60.42
880.854	105.47
881.026	66.56
881.198	103.42
881.37	64.51
881.542	25.6
881.714	11.26
881.886	9.22
882.058	7.17
882.23	-11.26
882.402	15.36
882.574	70.65
882.746	31.74
882.918	13.31
883.09	68.61
883.262	23.55
883.434	-17.41
883.606	56.32
883.778	15.36
883.95	15.36
884.122	-25.6
884.293	29.7
884.465	99.33
884.637	52.22
884.809	25.6
884.98	80.89
885.152	-9.22
885.324	72.7
885.496	68.61
885.667	54.27
885.839	48.13
886.011	11.26
886.182	78.85
886.354	91.13
886.525	76.8
886.697	37.89
886.869	-17.41
887.04	15.36
887.212	105.47
887.383	136.19
887.555	27.65
887.726	107.52
887.897	50.18
888.069	56.32
888.24	76.8
888.412	5.12
888.583	21.5
888.754	5.12
888.926	-33.79
889.097	21.5
889.268	-21.5
889.44	-27.65
889.611	76.8
889.782	-31.74
889.953	64.51
890.125	44.03
890.296	31.74
890.467	44.03
890.638	3.07
890.809	113.66
890.98	-33.79
891.151	60.42
891.323	19.46
891.494	50.18
891.665	33.79
891.836	17.41
892.007	93.18
892.178	109.57
892.349	60.42
892.52	35.84
892.691	27.65
892.862	50.18
893.032	-66.56
893.203	72.7
893.374	136.19
893.545	95.23
893.716	11.26
893.887	87.04
894.057	60.42
894.228	111.61
894.399	41.98
894.57	105.47
894.74	-19.46
894.911	54.27
895.082	-37.89
895.253	27.65
895.423	113.66
895.594	44.03
895.764	52.22
895.935	-25.6
896.106	66.56
896.276	66.56
896.447	7.17
896.617	-44.03
896.788	48.13
896.958	7.17
897.129	-3.07
897.299	44.03
897.47	41.98
897.64	68.61
897.81	3.07
897.981	58.37
898.151	13.31
898.322	3.07
898.492	52.22
898.662	-9.22
898.832	66.56
899.003	29.7
899.173	25.6
899.343	33.79
899.513	-3.07
