Data from USB4F104151__95__11-06-49-301.txt Node

Date: Wed Mar 12 11:06:49 EDT 2025
User: louis
Spectrometer: USB4F10415
Trigger mode: 4
Integration Time (sec): 2.000000E-2
Scans to average: 1
Electric dark correction enabled: true
Nonlinearity correction enabled: false
Boxcar width: 0
XAxis mode: Wavelengths
Number of Pixels in Spectrum: 3648
>>>>>Begin Spectral Data<<<<<
178.204	-118.61
178.424	-118.61
178.644	-118.61
178.864	-112.47
179.084	-71.51
179.304	-32.6
179.524	-32.6
179.744	-69.46
179.964	22.7
180.184	26.79
180.404	20.65
180.624	18.6
180.844	-8.02
181.064	-40.79
181.283	-16.21
181.503	69.8
181.723	41.13
181.943	-18.26
182.163	41.13
182.383	-28.5
182.602	65.71
182.822	-32.6
183.042	84.14
183.262	-65.36
183.482	10.41
183.701	30.89
183.921	-26.45
184.141	-30.55
184.361	26.79
184.58	6.31
184.8	-28.5
185.02	16.55
185.239	51.37
185.459	2.22
185.679	20.65
185.898	-14.17
186.118	-14.17
186.338	-18.26
186.557	16.55
186.777	12.46
186.997	-12.12
187.216	-38.74
187.436	63.66
187.655	-10.07
187.875	71.85
188.095	-18.26
188.314	51.37
188.534	30.89
188.753	-8.02
188.973	51.37
189.192	6.31
189.412	28.84
189.631	18.6
189.851	-71.51
190.07	10.41
190.29	32.94
190.509	8.36
190.729	-12.12
190.948	32.94
191.168	61.61
191.387	0.17
191.607	18.6
191.826	67.75
192.045	26.79
192.265	-51.03
192.484	51.37
192.704	37.03
192.923	-16.21
193.142	-28.5
193.362	10.41
193.581	-32.6
193.8	73.9
194.02	-28.5
194.239	34.99
194.458	-22.36
194.678	-32.6
194.897	-1.88
195.116	12.46
195.335	-63.32
195.555	92.33
195.774	20.65
195.993	-26.45
196.212	4.27
196.432	-40.79
196.651	2.22
196.87	8.36
197.089	104.62
197.308	65.71
197.528	-3.93
197.747	-102.23
197.966	-30.55
198.185	57.51
198.404	-85.84
198.623	4.27
198.842	-34.64
199.062	34.99
199.281	-18.26
199.5	24.75
199.719	-22.36
199.938	-3.93
200.157	26.79
200.376	47.27
200.595	12.46
200.814	43.18
201.033	10.41
201.252	43.18
201.471	2.22
201.69	-16.21
201.909	-26.45
202.128	-20.31
202.347	-46.93
202.566	8.36
202.785	-1.88
203.004	-28.5
203.223	65.71
203.442	49.32
203.661	26.79
203.879	0.17
204.098	-30.55
204.317	-53.08
204.536	-55.12
204.755	-8.02
204.974	34.99
205.193	22.7
205.411	-14.17
205.63	-44.88
205.849	39.08
206.068	-12.12
206.287	-28.5
206.505	-51.03
206.724	-34.64
206.943	8.36
207.162	0.17
207.381	-12.12
207.599	-14.17
207.818	6.31
208.037	2.22
208.255	41.13
208.474	20.65
208.693	34.99
208.911	41.13
209.13	2.22
209.349	0.17
209.567	8.36
209.786	16.55
210.005	-51.03
210.223	-5.97
210.442	-44.88
210.661	-1.88
210.879	6.31
211.098	55.47
211.316	14.51
211.535	26.79
211.753	26.79
211.972	-81.75
212.191	2.22
212.409	-46.93
212.628	-18.26
212.846	-67.41
213.065	0.17
213.283	-24.4
213.502	4.27
213.72	-77.65
213.938	28.84
214.157	-18.26
214.375	10.41
214.594	-16.21
214.812	-38.74
215.031	47.27
215.249	-51.03
215.467	14.51
215.686	-20.31
215.904	12.46
216.122	-28.5
216.341	-14.17
216.559	34.99
216.778	80.04
216.996	8.36
217.214	12.46
217.432	-28.5
217.651	43.18
217.869	-36.69
218.087	-40.79
218.306	-8.02
218.524	-12.12
218.742	-63.32
218.96	24.75
219.179	6.31
219.397	-20.31
219.615	53.42
219.833	-36.69
220.051	-102.23
220.27	26.79
220.488	-55.12
220.706	34.99
220.924	-26.45
221.142	88.23
221.36	-20.31
221.578	14.51
221.796	-22.36
222.015	-10.07
222.233	-16.21
222.451	-67.41
222.669	-46.93
222.887	-46.93
223.105	10.41
223.323	8.36
223.541	-12.12
223.759	61.61
223.977	-24.4
224.195	-18.26
224.413	-71.51
224.631	-59.22
224.849	32.94
225.067	26.79
225.285	32.94
225.503	6.31
225.721	-46.93
225.939	-38.74
226.157	-46.93
226.375	55.47
226.592	24.75
226.81	6.31
227.028	59.56
227.246	65.71
227.464	16.55
227.682	-3.93
227.9	4.27
228.117	12.46
228.335	45.23
228.553	69.8
228.771	0.17
228.989	-1.88
229.206	65.71
229.424	-38.74
229.642	-53.08
229.86	-5.97
230.077	-67.41
230.295	-46.93
230.513	12.46
230.731	24.75
230.948	-22.36
231.166	41.13
231.384	-14.17
231.601	-71.51
231.819	71.85
232.037	-5.97
232.254	2.22
232.472	-20.31
232.689	41.13
232.907	12.46
233.125	10.41
233.342	18.6
233.56	-20.31
233.777	22.7
233.995	-8.02
234.213	8.36
234.43	-16.21
234.648	12.46
234.865	-3.93
235.083	6.31
235.3	-28.5
235.518	22.7
235.735	22.7
235.953	100.52
236.17	-24.4
236.388	-63.32
236.605	-24.4
236.822	-22.36
237.04	106.67
237.257	10.41
237.475	-34.64
237.692	39.08
237.909	43.18
238.127	-8.02
238.344	-12.12
238.562	-51.03
238.779	22.7
238.996	-34.64
239.214	-22.36
239.431	-28.5
239.648	47.27
239.865	-59.22
240.083	-48.98
240.3	-8.02
240.517	-8.02
240.735	-10.07
240.952	49.32
241.169	84.14
241.386	-42.84
241.603	14.51
241.821	-8.02
242.038	8.36
242.255	16.55
242.472	-48.98
242.689	6.31
242.907	30.89
243.124	-48.98
243.341	-5.97
243.558	-3.93
243.775	6.31
243.992	6.31
244.209	-12.12
244.426	30.89
244.643	-16.21
244.86	-57.17
245.078	-18.26
245.295	-46.93
245.512	-46.93
245.729	-36.69
245.946	-12.12
246.163	-1.88
246.38	4.27
246.597	-53.08
246.814	-14.17
247.031	20.65
247.248	-38.74
247.464	0.17
247.681	14.51
247.898	41.13
248.115	4.27
248.332	2.22
248.549	20.65
248.766	24.75
248.983	-1.88
249.2	-22.36
249.417	28.84
249.633	-24.4
249.85	-10.07
250.067	10.41
250.284	14.51
250.501	37.03
250.717	-24.4
250.934	6.31
251.151	-22.36
251.368	-14.17
251.585	75.95
251.801	-34.64
252.018	-67.41
252.235	-8.02
252.451	-1.88
252.668	57.51
252.885	41.13
253.102	-16.21
253.318	-42.84
253.535	0.17
253.752	-46.93
253.968	-16.21
254.185	-28.5
254.401	-69.46
254.618	-34.64
254.835	-65.36
255.051	20.65
255.268	47.27
255.484	-32.6
255.701	-22.36
255.917	47.27
256.134	-1.88
256.351	-61.27
256.567	-91.99
256.784	-24.4
257	-26.45
257.217	-8.02
257.433	-53.08
257.65	6.31
257.866	-22.36
258.082	12.46
258.299	41.13
258.515	-32.6
258.732	41.13
258.948	16.55
259.165	-22.36
259.381	2.22
259.597	-36.69
259.814	30.89
260.03	-44.88
260.246	22.7
260.463	16.55
260.679	-44.88
260.895	30.89
261.112	-20.31
261.328	-81.75
261.544	-28.5
261.761	51.37
261.977	-14.17
262.193	-18.26
262.409	2.22
262.626	26.79
262.842	-18.26
263.058	-77.65
263.274	-1.88
263.49	37.03
263.707	-26.45
263.923	-53.08
264.139	-44.88
264.355	-42.84
264.571	12.46
264.787	18.6
265.004	-53.08
265.22	30.89
265.436	-48.98
265.652	-59.22
265.868	61.61
266.084	0.17
266.3	-38.74
266.516	-10.07
266.732	-14.17
266.948	16.55
267.164	-59.22
267.38	8.36
267.596	-3.93
267.812	-65.36
268.028	0.17
268.244	10.41
268.46	-44.88
268.676	-30.55
268.892	55.47
269.108	30.89
269.324	6.31
269.54	-8.02
269.756	65.71
269.972	-63.32
270.188	75.95
270.403	-83.8
270.619	63.66
270.835	2.22
271.051	-42.84
271.267	57.51
271.483	6.31
271.698	-51.03
271.914	-18.26
272.13	10.41
272.346	-3.93
272.562	14.51
272.777	-57.17
272.993	-22.36
273.209	-34.64
273.425	8.36
273.64	-55.12
273.856	10.41
274.072	16.55
274.287	-8.02
274.503	67.75
274.719	-40.79
274.934	32.94
275.15	-83.8
275.366	16.55
275.581	34.99
275.797	92.33
276.012	0.17
276.228	39.08
276.444	-28.5
276.659	55.47
276.875	-114.52
277.09	61.61
277.306	59.56
277.521	-16.21
277.737	-1.88
277.952	34.99
278.168	-67.41
278.383	96.43
278.599	10.41
278.814	-14.17
279.03	32.94
279.245	10.41
279.461	18.6
279.676	16.55
279.892	34.99
280.107	-14.17
280.322	-18.26
280.538	-38.74
280.753	30.89
280.969	51.37
281.184	-63.32
281.399	-40.79
281.615	-34.64
281.83	2.22
282.045	-28.5
282.26	59.56
282.476	-26.45
282.691	32.94
282.906	-22.36
283.122	30.89
283.337	-38.74
283.552	63.66
283.767	-51.03
283.983	28.84
284.198	-34.64
284.413	-55.12
284.628	-10.07
284.843	10.41
285.058	10.41
285.274	16.55
285.489	12.46
285.704	-71.51
285.919	-135
286.134	41.13
286.349	-57.17
286.564	-61.27
286.779	-8.02
286.995	71.85
287.21	-10.07
287.425	51.37
287.64	-8.02
287.855	-18.26
288.07	-79.7
288.285	-22.36
288.5	63.66
288.715	22.7
288.93	-24.4
289.145	-5.97
289.36	-1.88
289.575	-42.84
289.79	-57.17
290.004	-61.27
290.219	6.31
290.434	59.56
290.649	-12.12
290.864	30.89
291.079	-24.4
291.294	32.94
291.509	51.37
291.724	20.65
291.938	-8.02
292.153	61.61
292.368	30.89
292.583	-1.88
292.798	41.13
293.012	-18.26
293.227	34.99
293.442	53.42
293.657	-10.07
293.871	20.65
294.086	-30.55
294.301	73.9
294.516	26.79
294.73	-26.45
294.945	-1.88
295.16	-69.46
295.374	18.6
295.589	2.22
295.804	8.36
296.018	22.7
296.233	34.99
296.447	4.27
296.662	-48.98
296.877	47.27
297.091	45.23
297.306	-91.99
297.52	20.65
297.735	4.27
297.949	-12.12
298.164	-3.93
298.378	-12.12
298.593	-12.12
298.807	-42.84
299.022	-40.79
299.236	-61.27
299.451	-12.12
299.665	12.46
299.88	26.79
300.094	10.41
300.309	-14.17
300.523	37.03
300.737	-38.74
300.952	-14.17
301.166	-8.02
301.381	8.36
301.595	-42.84
301.809	-55.12
302.024	-96.08
302.238	-16.21
302.452	12.46
302.667	26.79
302.881	22.7
303.095	-26.45
303.309	-12.12
303.524	-1.88
303.738	-12.12
303.952	-10.07
304.166	-12.12
304.381	-55.12
304.595	4.27
304.809	-22.36
305.023	84.14
305.237	-8.02
305.452	-34.64
305.666	14.51
305.88	16.55
306.094	-8.02
306.308	-18.26
306.522	-89.94
306.736	65.71
306.95	-26.45
307.164	-28.5
307.379	108.71
307.593	12.46
307.807	-14.17
308.021	-18.26
308.235	10.41
308.449	0.17
308.663	14.51
308.877	28.84
309.091	8.36
309.305	-38.74
309.519	-96.08
309.733	41.13
309.947	-28.5
310.161	8.36
310.374	41.13
310.588	-10.07
310.802	-59.22
311.016	-14.17
311.23	-30.55
311.444	-48.98
311.658	-24.4
311.872	57.51
312.085	-57.17
312.299	-18.26
312.513	-83.8
312.727	0.17
312.941	-18.26
313.154	-55.12
313.368	-30.55
313.582	-42.84
313.796	-42.84
314.009	18.6
314.223	-73.56
314.437	-8.02
314.651	41.13
314.864	4.27
315.078	-18.26
315.292	-77.65
315.505	2.22
315.719	26.79
315.933	-30.55
316.146	55.47
316.36	37.03
316.573	20.65
316.787	59.56
317.001	-40.79
317.214	-8.02
317.428	-24.4
317.641	-18.26
317.855	-3.93
318.068	34.99
318.282	18.6
318.495	-8.02
318.709	-16.21
318.922	-8.02
319.136	43.18
319.349	-10.07
319.563	-20.31
319.776	-18.26
319.99	4.27
320.203	39.08
320.417	18.6
320.63	77.99
320.843	45.23
321.057	22.7
321.27	43.18
321.483	-1.88
321.697	61.61
321.91	-53.08
322.124	59.56
322.337	-75.6
322.55	-79.7
322.763	-36.69
322.977	30.89
323.19	2.22
323.403	-5.97
323.617	6.31
323.83	12.46
324.043	-40.79
324.256	24.75
324.469	-55.12
324.683	-5.97
324.896	51.37
325.109	-1.88
325.322	-42.84
325.535	49.32
325.748	-14.17
325.962	8.36
326.175	10.41
326.388	-34.64
326.601	30.89
326.814	49.32
327.027	88.23
327.24	32.94
327.453	-38.74
327.666	-3.93
327.879	-48.98
328.092	20.65
328.305	14.51
328.518	10.41
328.731	-22.36
328.944	63.66
329.157	-16.21
329.37	75.95
329.583	12.46
329.796	37.03
330.009	-55.12
330.222	-3.93
330.435	18.6
330.648	-28.5
330.861	12.46
331.073	43.18
331.286	26.79
331.499	-5.97
331.712	-20.31
331.925	8.36
332.138	84.14
332.35	32.94
332.563	24.75
332.776	6.31
332.989	-5.97
333.202	34.99
333.414	43.18
333.627	-55.12
333.84	-104.28
334.053	53.42
334.265	-71.51
334.478	-48.98
334.691	-12.12
334.903	14.51
335.116	10.41
335.329	-20.31
335.541	30.89
335.754	30.89
335.966	-18.26
336.179	30.89
336.392	-3.93
336.604	34.99
336.817	-3.93
337.029	-18.26
337.242	-83.8
337.454	-20.31
337.667	-18.26
337.88	43.18
338.092	-14.17
338.305	24.75
338.517	-40.79
338.729	82.09
338.942	30.89
339.154	-3.93
339.367	4.27
339.579	57.51
339.792	39.08
340.004	55.47
340.217	-8.02
340.429	-24.4
340.641	37.03
340.854	-40.79
341.066	49.32
341.278	-12.12
341.491	-51.03
341.703	22.7
341.915	-28.5
342.128	47.27
342.34	10.41
342.552	-24.4
342.764	30.89
342.977	-16.21
343.189	-38.74
343.401	-5.97
343.613	-32.6
343.826	-28.5
344.038	-51.03
344.25	-3.93
344.462	-100.18
344.674	-22.36
344.886	-38.74
345.099	57.51
345.311	37.03
345.523	14.51
345.735	-14.17
345.947	-40.79
346.159	34.99
346.371	51.37
346.583	-91.99
346.795	104.62
347.007	-14.17
347.219	-55.12
347.431	32.94
347.643	69.8
347.855	45.23
348.067	49.32
348.279	0.17
348.491	0.17
348.703	55.47
348.915	10.41
349.127	-38.74
349.339	6.31
349.551	6.31
349.763	-26.45
349.975	28.84
350.187	80.04
350.399	-3.93
350.61	102.57
350.822	-48.98
351.034	14.51
351.246	-28.5
351.458	-59.22
351.669	14.51
351.881	8.36
352.093	-8.02
352.305	67.75
352.517	-44.88
352.728	-16.21
352.94	2.22
353.152	47.27
353.363	4.27
353.575	-10.07
353.787	37.03
353.999	41.13
354.21	0.17
354.422	-22.36
354.633	-1.88
354.845	-53.08
355.057	55.47
355.268	34.99
355.48	67.75
355.692	-63.32
355.903	-75.6
356.115	-32.6
356.326	-1.88
356.538	-10.07
356.749	-14.17
356.961	-12.12
357.172	-10.07
357.384	-22.36
357.595	-5.97
357.807	12.46
358.018	-5.97
358.23	28.84
358.441	-12.12
358.653	-3.93
358.864	51.37
359.075	-18.26
359.287	86.19
359.498	6.31
359.709	-16.21
359.921	55.47
360.132	26.79
360.344	-1.88
360.555	-38.74
360.766	-42.84
360.977	30.89
361.189	41.13
361.4	-46.93
361.611	-34.64
361.823	-48.98
362.034	20.65
362.245	-14.17
362.456	28.84
362.667	24.75
362.879	-22.36
363.09	12.46
363.301	26.79
363.512	30.89
363.723	10.41
363.935	4.27
364.146	69.8
364.357	30.89
364.568	14.51
364.779	-48.98
364.99	20.65
365.201	47.27
365.412	-34.64
365.623	-69.46
365.834	47.27
366.045	90.28
366.256	-16.21
366.467	43.18
366.678	22.7
366.889	37.03
367.1	-34.64
367.311	49.32
367.522	-106.32
367.733	6.31
367.944	49.32
368.155	-20.31
368.366	-14.17
368.577	-73.56
368.788	16.55
368.999	-32.6
369.209	-5.97
369.42	-8.02
369.631	-3.93
369.842	26.79
370.053	47.27
370.264	-8.02
370.474	80.04
370.685	-65.36
370.896	-32.6
371.107	-18.26
371.317	14.51
371.528	-10.07
371.739	2.22
371.95	-22.36
372.16	24.75
372.371	8.36
372.582	-42.84
372.792	32.94
373.003	16.55
373.214	-34.64
373.424	26.79
373.635	-24.4
373.846	51.37
374.056	-81.75
374.267	-38.74
374.477	10.41
374.688	59.56
374.898	73.9
375.109	8.36
375.319	59.56
375.53	14.51
375.74	-87.89
375.951	-10.07
376.161	59.56
376.372	-16.21
376.582	22.7
376.793	2.22
377.003	-10.07
377.214	8.36
377.424	28.84
377.635	45.23
377.845	-18.26
378.055	20.65
378.266	-42.84
378.476	-81.75
378.686	-16.21
378.897	-44.88
379.107	41.13
379.317	57.51
379.528	49.32
379.738	-26.45
379.948	-10.07
380.158	-8.02
380.369	-14.17
380.579	86.19
380.789	-34.64
380.999	80.04
381.21	-3.93
381.42	-1.88
381.63	-10.07
381.84	10.41
382.05	30.89
382.261	51.37
382.471	12.46
382.681	-16.21
382.891	57.51
383.101	-18.26
383.311	18.6
383.521	18.6
383.731	45.23
383.941	-1.88
384.151	-14.17
384.361	-8.02
384.571	30.89
384.781	-48.98
384.991	86.19
385.201	20.65
385.411	39.08
385.621	47.27
385.831	57.51
386.041	10.41
386.251	-1.88
386.461	-20.31
386.671	82.09
386.881	80.04
387.091	-42.84
387.301	65.71
387.511	-5.97
387.72	-40.79
387.93	39.08
388.14	0.17
388.35	-59.22
388.56	80.04
388.769	-8.02
388.979	123.05
389.189	-42.84
389.399	4.27
389.609	41.13
389.818	45.23
390.028	45.23
390.238	2.22
390.447	57.51
390.657	65.71
390.867	10.41
391.076	-42.84
391.286	-1.88
391.496	16.55
391.705	-34.64
391.915	41.13
392.125	16.55
392.334	-38.74
392.544	6.31
392.753	-36.69
392.963	24.75
393.172	-12.12
393.382	14.51
393.591	24.75
393.801	16.55
394.01	65.71
394.22	10.41
394.429	30.89
394.639	30.89
394.848	67.75
395.058	22.7
395.267	67.75
395.477	-26.45
395.686	71.85
395.895	77.99
396.105	80.04
396.314	-5.97
396.524	-10.07
396.733	55.47
396.942	-8.02
397.152	28.84
397.361	61.61
397.57	10.41
397.78	71.85
397.989	22.7
398.198	75.95
398.407	-10.07
398.617	20.65
398.826	-34.64
399.035	63.66
399.244	24.75
399.453	26.79
399.663	51.37
399.872	34.99
400.081	53.42
400.29	24.75
400.499	6.31
400.708	16.55
400.917	-14.17
401.127	69.8
401.336	2.22
401.545	26.79
401.754	75.95
401.963	73.9
402.172	4.27
402.381	16.55
402.59	98.47
402.799	-10.07
403.008	108.71
403.217	45.23
403.426	96.43
403.635	61.61
403.844	34.99
404.053	116.9
404.262	-16.21
404.471	149.67
404.68	30.89
404.888	92.33
405.097	16.55
405.306	80.04
405.515	-14.17
405.724	133.29
405.933	53.42
406.142	59.56
406.35	84.14
406.559	61.61
406.768	84.14
406.977	88.23
407.185	143.53
407.394	100.52
407.603	69.8
407.812	108.71
408.02	59.56
408.229	92.33
408.438	112.81
408.646	94.38
408.855	116.9
409.064	96.43
409.272	59.56
409.481	121
409.69	118.95
409.898	125.1
410.107	92.33
410.315	164.01
410.524	121
410.733	106.67
410.941	131.24
411.15	207.02
411.358	151.72
411.567	192.68
411.775	125.1
411.984	172.2
412.192	264.36
412.401	151.72
412.609	264.36
412.818	190.63
413.026	166.06
413.234	182.44
413.443	288.93
413.651	176.3
413.86	233.64
414.068	258.21
414.276	254.12
414.485	235.69
414.693	286.89
414.901	342.18
415.11	358.57
415.318	315.56
415.526	336.04
415.734	323.75
415.943	374.95
416.151	348.33
416.359	393.38
416.567	430.24
416.776	342.18
416.984	420
417.192	491.68
417.4	506.02
417.608	374.95
417.817	432.29
418.025	499.88
418.233	512.16
418.441	571.55
418.649	618.66
418.857	575.65
419.065	510.11
419.273	563.36
419.481	620.71
419.689	655.52
419.897	696.48
420.105	690.34
420.313	755.87
420.521	698.53
420.729	651.42
420.937	673.95
421.145	805.02
421.353	856.22
421.561	868.51
421.769	968.86
421.977	968.86
422.185	893.09
422.393	991.39
422.601	1009.82
422.809	993.44
423.017	932
423.224	1161.37
423.432	1077.4
423.64	1147.03
423.848	1196.18
424.056	1327.25
424.263	1394.84
424.471	1355.93
424.679	1292.44
424.887	1460.37
425.094	1493.14
425.302	1544.34
425.51	1540.24
425.718	1583.25
425.925	1575.06
426.133	1609.87
426.341	1765.52
426.548	1775.76
426.756	1761.42
426.964	1786
427.171	1917.07
427.379	1951.88
427.586	2136.2
427.794	2074.76
428.001	2115.72
428.209	2326.66
428.417	2289.8
428.624	2351.24
428.832	2467.97
429.039	2343.05
429.247	2338.95
429.454	2525.32
429.662	2760.83
429.869	2576.52
430.076	2797.7
430.284	2707.59
430.491	2924.67
430.699	2873.47
430.906	2992.25
431.114	3012.73
431.321	3127.42
431.528	3192.95
431.736	3278.97
431.943	3580.02
432.15	3518.58
432.358	3487.86
432.565	3776.63
432.772	3774.58
432.979	3831.92
433.187	3747.95
433.394	3928.17
433.601	4132.97
433.808	4188.27
434.016	4141.16
434.223	4261.99
434.43	4749.41
434.637	4601.96
434.844	4757.6
435.052	4933.73
435.259	4929.63
435.466	4958.3
435.673	4980.83
435.88	5019.74
436.087	5423.19
436.294	5431.38
436.501	5300.31
436.708	5439.58
436.915	5587.03
437.122	5933.14
437.329	5890.13
437.537	5945.42
437.743	6082.64
437.95	6240.33
438.157	6371.4
438.364	6647.88
438.571	6522.95
438.778	6629.45
438.985	7278.65
439.192	6840.39
439.399	7200.83
439.606	7086.14
439.813	7391.29
440.02	7956.53
440.227	7931.95
440.433	7759.92
440.64	8036.4
440.847	7882.8
441.054	8321.07
441.261	8658.98
441.467	8450.09
441.674	8708.13
441.881	8970.27
442.088	8984.61
442.294	8892.45
442.501	9195.55
442.708	9199.65
442.914	9732.12
443.121	10033.17
443.328	9732.12
443.534	10547.21
443.741	10315.79
443.948	10102.8
444.154	10926.08
444.361	10803.21
444.568	10680.33
444.774	10917.89
444.981	10995.71
445.187	11384.83
445.394	11692.02
445.6	11700.22
445.807	12713.96
446.013	11945.97
446.22	12632.04
446.426	13010.92
446.633	12957.67
446.839	13641.69
447.046	12953.57
447.252	13823.96
447.459	13627.35
447.665	13666.27
447.871	14370.77
448.078	14702.54
448.284	13774.81
448.491	14342.1
448.697	14987.21
448.903	15351.74
449.11	15179.72
449.316	15093.7
449.522	15280.07
449.728	15671.23
449.935	15878.07
450.141	15802.3
450.347	16062.39
450.553	15763.39
450.76	15927.22
450.966	16367.54
451.172	16183.22
451.378	16553.9
451.584	16402.35
451.791	16707.5
451.997	16467.89
452.203	16785.32
452.409	16951.21
452.615	17057.7
452.821	16152.5
453.027	16125.88
453.233	16842.67
453.44	16031.67
453.646	16082.87
453.852	16383.92
454.058	16455.6
454.264	15808.44
454.47	16508.85
454.676	16093.11
454.882	16689.07
455.088	15036.36
455.294	15472.57
455.5	15679.42
455.705	15869.88
455.911	15087.56
456.117	14993.35
456.323	14942.15
456.529	13848.54
456.735	14798.79
456.941	14114.77
457.147	14024.66
457.352	13455.33
457.558	13395.93
457.764	13291.49
457.97	13156.32
458.176	12929
458.381	12881.89
458.587	12064.75
458.793	12201.97
458.999	11589.63
459.204	12470.25
459.41	12150.77
459.616	11177.98
459.821	11302.91
460.027	11208.7
460.233	11005.95
460.438	10541.07
460.644	10543.11
460.85	9965.59
461.055	9832.47
461.261	9949.2
461.466	9302.04
461.672	8929.31
461.878	9609.24
462.083	9074.72
462.289	8667.17
462.494	8669.22
462.7	8364.08
462.905	7972.91
463.111	8525.86
463.316	8304.68
463.522	8218.67
463.727	8230.96
463.932	8267.82
464.138	8046.64
464.343	8224.81
464.549	7653.43
464.754	8235.05
464.959	7991.34
465.165	8013.87
465.37	7675.96
465.575	7706.68
465.781	7903.28
465.986	7800.88
466.191	7587.89
466.397	7495.74
466.602	7094.33
466.807	7272.51
467.012	7325.75
467.218	7225.4
467.423	7393.34
467.628	7213.12
467.833	7465.02
468.038	7278.65
468.244	7041.09
468.449	7104.57
468.654	7092.29
468.859	7053.38
469.064	6885.44
469.269	6651.97
469.474	6647.88
469.679	6713.41
469.885	6639.69
470.09	6633.54
470.295	6686.79
470.5	6473.8
470.705	6623.3
470.91	6436.94
471.115	6432.84
471.32	6629.45
471.525	6467.66
471.73	6246.48
471.935	6273.1
472.139	6185.04
472.344	6170.7
472.549	6039.63
472.754	6027.34
472.959	6187.08
473.164	5840.98
473.369	5654.61
473.574	6002.77
473.778	5781.59
473.983	5849.17
474.188	5871.7
474.393	5574.74
474.598	5525.59
474.802	5576.79
475.007	5429.34
475.212	5630.04
475.417	5210.2
475.621	5400.66
475.826	5408.86
476.031	5279.83
476.235	5032.03
476.44	5316.7
476.645	5021.79
476.849	5072.99
477.054	5032.03
477.259	4993.12
477.463	5044.32
477.668	4831.33
477.872	4782.18
478.077	4800.61
478.282	4647.01
478.486	4704.35
478.691	4720.74
478.895	4532.33
479.1	4651.11
479.304	4575.33
479.509	4425.83
479.713	4536.42
479.918	4354.15
480.122	4294.76
480.326	4397.16
480.531	4391.02
480.735	4436.07
480.94	4345.96
481.144	4454.5
481.348	4255.85
481.553	4376.68
481.757	4188.27
481.961	4327.53
482.166	4458.6
482.37	4423.78
482.574	4241.51
482.778	4276.33
482.983	4352.1
483.187	4274.28
483.391	4348.01
483.595	4216.94
483.8	4221.03
484.004	4241.51
484.208	4188.27
484.412	4178.03
484.616	4356.2
484.821	4317.29
485.025	4237.42
485.229	4272.23
485.433	4245.61
485.637	4139.12
485.841	4202.6
486.045	4343.91
486.249	4427.88
486.453	4194.41
486.657	4286.57
486.861	4300.91
487.065	4210.79
487.269	4253.8
487.473	4100.2
487.677	4276.33
487.881	4427.88
488.085	4178.03
488.289	4352.1
488.493	4143.21
488.697	4225.13
488.901	4341.86
489.105	4257.9
489.309	4382.82
489.512	4374.63
489.716	4417.64
489.92	4358.25
490.124	4331.62
490.328	4261.99
490.531	4208.75
490.735	4401.26
490.939	4348.01
491.143	4483.17
491.346	4331.62
491.55	4630.63
491.754	4423.78
491.958	4458.6
492.161	4436.07
492.365	4481.13
492.569	4415.59
492.772	4548.71
492.976	4509.8
493.18	4571.24
493.383	4515.94
493.587	4626.53
493.79	4864.1
493.994	4610.15
494.197	4581.48
494.401	4860
494.605	4819.04
494.808	4812.9
495.012	4868.19
495.215	4933.73
495.419	4970.59
495.622	4943.97
495.825	5101.66
496.029	4956.26
496.232	5023.84
496.436	5042.27
496.639	5183.58
496.843	5093.47
497.046	5306.46
497.249	5429.34
497.453	5240.92
497.656	5267.55
497.859	5421.14
498.063	5447.77
498.266	5603.41
498.469	5535.83
498.673	5578.84
498.876	5736.53
499.079	5785.68
499.282	5879.89
499.485	5947.47
499.689	5967.95
499.892	6164.56
500.095	6137.93
500.298	6109.26
500.501	6092.88
500.705	6309.96
500.908	6535.24
501.111	6502.47
501.314	6498.38
501.517	6555.72
501.72	6621.25
501.923	6674.5
502.126	6791.24
502.329	7016.51
502.532	6981.7
502.735	6860.87
502.938	7188.54
503.141	7100.48
503.344	7301.18
503.547	7233.6
503.75	7391.29
503.953	7346.23
504.156	7555.13
504.359	7532.6
504.562	7675.96
504.765	7862.32
504.968	8185.9
505.17	8124.46
505.373	8058.93
505.576	8149.04
505.779	8245.29
505.982	8296.49
506.185	8515.62
506.387	8587.3
506.59	8728.61
506.793	9005.09
506.996	8734.76
507.198	9068.58
507.401	8765.48
507.604	9115.68
507.807	9334.81
508.009	9383.96
508.212	9336.86
508.415	9580.57
508.617	9793.56
508.82	9707.54
509.022	9652.25
509.225	9844.76
509.428	10084.37
509.63	9859.09
509.833	10108.94
510.035	10397.71
510.238	10383.37
510.44	10459.15
510.643	10682.38
510.845	10938.37
511.048	10735.62
511.25	10854.41
511.453	11096.07
511.655	11401.21
511.858	11366.4
512.06	11311.1
512.262	11296.77
512.465	11483.13
512.667	11827.19
512.87	11634.68
513.072	11802.61
513.274	12279.79
513.477	12097.52
513.679	12179.44
513.881	12584.94
514.084	12617.71
514.286	12601.32
514.488	12720.1
514.69	13051.88
514.893	12984.29
515.095	13096.93
515.297	13223.9
515.499	13424.61
515.701	13744.09
515.904	13807.58
516.106	13948.89
516.308	13852.63
516.51	14018.52
516.712	14143.44
516.914	14540.75
517.116	14503.89
517.318	14657.48
517.52	14696.39
517.722	14862.28
517.925	15105.99
518.127	15355.84
518.329	15515.58
518.531	15425.47
518.733	15880.12
518.935	15949.75
519.136	15980.47
519.338	16150.45
519.54	16140.21
519.742	16379.82
519.944	16302
520.146	16547.76
520.348	17047.46
520.55	16918.44
520.752	17061.8
520.954	17420.19
521.155	17190.82
521.357	17432.48
521.559	17665.95
521.761	17829.79
521.963	18046.87
522.164	17823.64
522.366	17979.29
522.568	18648.97
522.77	18665.36
522.971	18812.81
523.173	18579.34
523.375	18907.02
523.576	19042.18
523.778	19003.27
523.98	19390.34
524.181	19537.79
524.383	19441.54
524.584	19888
524.786	19820.41
524.988	19943.29
525.189	20094.84
525.391	20219.77
525.592	20506.48
525.794	20461.43
525.995	20359.03
526.197	20492.15
526.398	20447.09
526.6	20928.36
526.801	20985.71
527.003	21016.43
527.204	20993.9
527.406	21505.89
527.607	21229.41
527.808	21593.95
528.01	21208.94
528.211	21366.63
528.412	21956.44
528.614	21571.43
528.815	21895
529.016	22058.84
529.218	21755.74
529.419	21929.82
529.62	22196.06
529.822	22107.99
530.023	22237.02
530.224	22228.82
530.425	22466.39
530.626	22302.55
530.828	22189.91
531.029	22712.14
531.23	22540.11
531.431	22474.58
531.632	22781.78
531.833	22619.99
532.035	23064.39
532.236	22818.64
532.437	23205.7
532.638	22738.77
532.839	23226.18
533.04	23099.21
533.241	22845.26
533.442	23396.17
533.643	22896.46
533.844	23271.24
534.045	23213.9
534.246	22933.32
534.447	23166.79
534.648	23129.93
534.849	23408.45
535.05	23379.78
535.251	23334.73
535.451	23328.58
535.652	23451.46
535.853	23134.03
536.054	23156.55
536.255	23607.11
536.456	23375.69
536.657	23426.89
536.857	23275.34
537.058	23430.98
537.259	23422.79
537.46	23543.62
537.66	23482.18
537.861	23381.83
538.062	23451.46
538.263	23607.11
538.463	23607.11
538.664	23732.03
538.865	23861.05
539.065	23713.6
539.266	23154.51
539.466	23584.58
539.667	23447.36
539.868	23803.71
540.068	23609.15
540.269	23297.86
540.469	23719.74
540.67	23488.32
540.87	23496.52
541.071	23553.86
541.271	23580.48
541.472	23473.99
541.672	23203.66
541.873	23381.83
542.073	23299.91
542.274	23889.73
542.474	23664.45
542.675	23291.72
542.875	23707.46
543.075	23621.44
543.276	23131.98
543.476	23672.64
543.676	23545.67
543.877	23359.3
544.077	23443.27
544.277	23623.49
544.478	23357.25
544.678	23428.93
544.878	23555.91
545.078	23574.34
545.279	23437.13
545.479	23433.03
545.679	23310.15
545.879	23213.9
546.079	23318.34
546.28	23693.12
546.48	23361.35
546.68	23596.87
546.88	23789.38
547.08	23404.36
547.28	23455.56
547.48	23430.98
547.68	23654.21
547.88	23326.53
548.081	23525.19
548.281	23506.76
548.481	23244.62
548.681	23668.55
548.881	23578.43
549.081	23521.09
549.28	23304.01
549.48	23408.45
549.68	23369.54
549.88	23705.41
550.08	23226.18
550.28	23392.07
550.48	23627.59
550.68	23433.03
550.88	23523.14
551.08	23361.35
551.279	23168.84
551.479	23492.42
551.679	23572.29
551.879	23377.73
552.079	23465.8
552.278	23322.44
552.478	23334.73
552.678	23289.67
552.878	23387.97
553.077	22935.37
553.277	23228.23
553.477	23428.93
553.676	22914.89
553.876	23318.34
554.076	22841.17
554.275	22992.72
554.475	22683.47
554.674	23172.94
554.874	23269.19
555.074	22972.24
555.273	23002.96
555.473	23248.71
555.672	23142.22
555.872	23007.05
556.071	23031.63
556.271	23396.17
556.47	22835.02
556.67	22650.71
556.869	22734.67
557.068	22976.33
557.268	22605.65
557.467	22939.47
557.667	22916.94
557.866	22763.34
558.065	22572.88
558.265	22486.87
558.464	22527.83
558.663	22947.66
558.863	22194.01
559.062	22531.92
559.261	22435.67
559.461	22605.65
559.66	22349.65
559.859	22288.21
560.058	21868.38
560.258	22144.86
560.457	21948.25
560.656	22437.72
560.855	22146.9
561.054	21915.48
561.253	21849.95
561.453	22126.43
561.652	22064.99
561.851	22116.19
562.05	21755.74
562.249	21630.82
562.448	21852
562.647	21647.2
562.846	21696.35
563.045	21604.19
563.244	21284.71
563.443	21659.49
563.642	21258.09
563.841	21579.62
564.04	21651.3
564.239	21311.33
564.438	21272.42
564.637	21284.71
564.836	21393.25
565.035	21063.53
565.234	21299.05
565.432	20819.82
565.631	21024.62
565.83	20954.99
566.029	21008.23
566.228	20756.33
566.427	20637.55
566.625	20467.57
566.824	20567.92
567.023	20578.16
567.222	20440.95
567.42	20359.03
567.619	20621.17
567.818	20195.19
568.016	20100.98
568.215	20645.74
568.414	20209.53
568.612	20463.47
568.811	19699.58
569.01	19867.52
569.208	19570.56
569.407	20172.66
569.605	19521.41
569.804	19810.17
570.002	19566.46
570.201	19623.81
570.4	19597.18
570.598	19433.35
570.797	19529.6
570.995	19197.83
571.193	19156.87
571.392	19156.87
571.59	19140.49
571.789	19077
571.987	19148.68
572.186	18915.21
572.384	18616.21
572.582	19033.99
572.781	18876.3
572.979	18550.67
573.177	18866.06
573.376	18708.37
573.574	18689.93
573.772	18749.32
573.971	18534.29
574.169	18384.79
574.367	18456.47
574.565	18509.71
574.763	18087.83
574.962	18333.59
575.16	18016.15
575.358	18335.63
575.556	18102.17
575.754	18179.99
575.952	17819.55
576.151	18028.44
576.349	17880.99
576.547	17844.12
576.745	18053.02
576.943	17940.38
577.141	17536.93
577.339	17923.99
577.537	17293.22
577.735	17575.84
577.933	17350.56
578.131	17477.54
578.329	17538.98
578.527	17113
578.725	17139.62
578.923	17368.99
579.121	17393.57
579.319	17174.44
579.516	17235.88
579.714	17158.05
579.912	17282.98
580.11	17047.46
580.308	16871.34
580.506	16764.84
580.704	16383.92
580.901	16684.97
581.099	16725.93
581.297	16398.26
581.495	16609.2
581.692	16740.27
581.89	16445.36
582.088	16463.79
582.285	16396.21
582.483	16465.84
582.681	16224.18
582.878	16258.99
583.076	15955.9
583.274	15980.47
583.471	16132.02
583.669	15878.07
583.866	16154.55
584.064	16258.99
584.262	15970.23
584.459	15835.07
584.657	15853.5
584.854	15753.15
585.052	15540.16
585.249	15785.91
585.447	15654.84
585.644	15439.81
585.841	15632.32
586.039	15675.32
586.236	15376.32
586.434	15323.07
586.631	15542.21
586.828	15574.97
587.026	15417.28
587.223	15357.89
587.42	15085.51
587.618	15192
587.815	14985.16
588.012	15062.98
588.21	15038.41
588.407	14886.86
588.604	14780.36
588.801	14882.76
588.999	14882.76
589.196	14884.81
589.393	14757.83
589.59	14712.78
589.787	14397.39
589.984	14630.86
590.182	14393.3
590.379	14571.47
590.576	14602.19
590.773	14436.3
590.97	14276.56
591.167	14567.37
591.364	14032.85
591.561	14350.29
591.758	14149.59
591.955	13864.92
592.152	14202.83
592.349	14137.3
592.546	14321.62
592.743	14131.16
592.94	14075.86
593.137	13967.32
593.334	13932.5
593.531	13674.46
593.727	13848.54
593.924	13838.3
594.121	13600.73
594.318	13932.5
594.515	13379.55
594.712	13862.87
594.908	13498.33
595.105	13649.88
595.302	13690.84
595.499	13555.68
595.696	13395.93
595.892	13246.43
596.089	13352.93
596.286	13428.7
596.482	13207.52
596.679	13498.33
596.876	13422.56
597.072	13141.99
597.269	13133.79
597.466	12832.74
597.662	12845.03
597.859	13010.92
598.055	13068.26
598.252	12832.74
598.448	12929
598.645	12550.12
598.841	12601.32
599.038	12826.6
599.234	12834.79
599.431	12320.75
599.627	12894.18
599.824	12675.05
600.02	12478.44
600.217	12769.26
600.413	12394.48
600.609	12556.27
600.806	12287.98
601.002	12402.67
601.198	12355.57
601.395	12388.33
601.591	12199.92
601.787	12259.31
601.984	12236.78
602.18	12257.26
602.376	12091.38
602.572	12183.54
602.769	11962.36
602.965	11909.11
603.161	11970.55
603.357	11823.09
603.553	11847.67
603.75	11909.11
603.946	11628.54
604.142	11655.16
604.338	11722.74
604.534	11714.55
604.73	11476.99
604.926	11640.83
605.122	11565.05
605.318	11706.36
605.514	11624.44
605.71	11468.8
605.906	11458.56
606.102	11329.53
606.298	11556.86
606.494	11364.35
606.69	11364.35
606.886	11304.96
607.082	11350.01
607.278	11245.57
607.474	11259.9
607.67	11061.25
607.866	10944.52
608.062	11243.52
608.257	10917.89
608.453	10960.9
608.649	11065.35
608.845	11106.31
609.041	11204.61
609.236	10999.81
609.432	10999.81
609.628	10936.32
609.824	10690.57
610.019	10942.47
610.215	10891.27
610.411	10842.12
610.606	10694.66
610.802	11048.96
610.998	11005.95
611.193	10893.32
611.389	10604.55
611.584	10833.93
611.78	10629.13
611.976	10780.68
612.171	10655.75
612.367	10485.77
612.562	10657.8
612.758	10371.08
612.953	10541.07
613.149	10532.87
613.344	10551.31
613.539	10444.81
613.735	10831.88
613.93	10369.04
614.126	10438.67
614.321	10369.04
614.517	10405.9
614.712	10463.24
614.907	10211.34
615.103	10309.65
615.298	10305.55
615.493	10383.37
615.688	10192.91
615.884	10004.5
616.079	9898
616.274	10168.34
616.47	9965.59
616.665	9938.96
616.86	9992.21
617.055	10123.28
617.25	10102.8
617.445	9986.07
617.641	9697.3
617.836	10164.24
618.031	9877.52
618.226	10029.07
618.421	9789.46
618.616	9936.92
618.811	9760.79
619.006	9797.65
619.201	9695.25
619.396	9871.38
619.591	9508.89
619.786	9599
619.981	9623.58
620.176	9631.77
620.371	9412.64
620.566	9515.03
620.761	9451.55
620.956	9558.04
621.151	9381.92
621.346	9291.8
621.541	9261.09
621.735	9291.8
621.93	9261.09
622.125	9242.65
622.32	9148.45
622.515	8980.51
622.709	9170.97
622.904	8908.83
623.099	8953.89
623.294	9080.86
623.488	8931.36
623.683	9005.09
623.878	8716.33
624.072	8874.02
624.267	8622.12
624.462	8624.17
624.656	8589.35
624.851	8505.38
625.046	8583.21
625.24	8489
625.435	8472.62
625.629	8527.91
625.824	8501.29
626.018	8230.96
626.213	8046.64
626.407	8226.86
626.602	8124.46
626.796	8183.85
626.991	8261.68
627.185	8005.68
627.38	7985.2
627.574	8022.06
627.768	7929.91
627.963	7837.75
628.157	7942.19
628.352	8001.58
628.546	7528.5
628.74	7749.68
628.935	7743.54
629.129	7479.35
629.323	7688.25
629.517	7567.42
629.712	7501.88
629.906	7528.5
630.1	7508.02
630.294	7473.21
630.489	7385.15
630.683	7292.99
630.877	7264.32
631.071	7260.22
631.265	7258.17
631.459	7206.97
631.653	7299.13
631.848	7221.31
632.042	7082.05
632.236	7018.56
632.43	6953.02
632.624	7045.18
632.818	7057.47
633.012	6998.08
633.206	6805.57
633.4	6813.76
633.594	6694.98
633.788	6797.38
633.982	6854.72
634.176	6776.9
634.369	6600.77
634.563	6602.82
634.757	6518.86
634.951	6535.24
635.145	6520.9
635.339	6547.53
635.533	6457.42
635.726	6361.16
635.92	6373.45
636.114	6404.17
636.308	6350.92
636.501	6387.79
636.695	6217.8
636.889	6301.77
637.083	6223.95
637.276	6182.99
637.47	6303.82
637.664	6099.02
637.857	6135.89
638.051	5898.32
638.244	6015.05
638.438	6039.63
638.632	6129.74
638.825	5910.61
639.019	5648.47
639.212	5951.57
639.406	5734.48
639.599	5898.32
639.793	5634.13
639.986	5664.85
640.18	5615.7
640.373	5566.55
640.567	5517.4
640.76	5648.47
640.954	5505.11
641.147	5476.44
641.34	5668.95
641.534	5552.21
641.727	5443.67
641.92	5408.86
642.114	5421.14
642.307	5257.31
642.5	5363.8
642.694	5312.6
642.887	5204.06
643.08	5398.62
643.273	5136.48
643.467	5099.61
643.66	5191.77
643.853	5122.14
644.046	5210.2
644.239	5048.41
644.432	5148.76
644.626	4950.11
644.819	4925.54
645.012	4864.1
645.205	5021.79
645.398	4900.96
645.591	4829.28
645.784	4823.14
645.977	4870.24
646.17	4827.23
646.363	4829.28
646.556	4687.97
646.749	4640.87
646.942	4780.13
647.135	4505.7
647.328	4655.2
647.521	4524.13
647.714	4589.67
647.907	4556.9
648.099	4622.44
648.292	4683.88
648.485	4565.09
648.678	4331.62
648.871	4464.74
649.064	4501.61
649.256	4319.34
649.449	4393.06
649.642	4345.96
649.835	4282.47
650.027	4352.1
650.22	4358.25
650.413	4388.97
650.605	4270.19
650.798	4094.06
650.991	4321.38
651.183	4223.08
651.376	4274.28
651.568	4376.68
651.761	4032.62
651.954	4143.21
652.146	4159.6
652.339	4081.77
652.531	4180.07
652.724	4075.63
652.916	3932.27
653.109	3944.56
653.301	3879.02
653.494	3829.87
653.686	3899.5
653.879	3969.13
654.071	3762.29
654.263	3936.37
654.456	3790.96
654.648	3905.65
654.84	3819.63
655.033	3801.2
655.225	3774.58
655.417	3600.5
655.61	3774.58
655.802	3721.33
655.994	3694.71
656.186	3653.75
656.379	3643.51
656.571	3594.36
656.763	3760.24
656.955	3506.29
657.148	3688.56
657.34	3596.4
657.532	3604.6
657.724	3577.97
657.916	3639.41
658.108	3551.35
658.3	3631.22
658.492	3481.72
658.684	3424.37
658.876	3381.37
659.068	3422.33
659.26	3541.11
659.452	3389.56
659.644	3344.5
659.836	3338.36
660.028	3405.94
660.22	3274.87
660.412	3328.12
660.604	3207.29
660.796	3385.46
660.988	3244.15
661.18	3154.04
661.372	3371.13
661.563	3225.72
661.755	3248.25
661.947	3115.13
662.139	3252.35
662.331	3172.47
662.522	3180.67
662.714	3074.17
662.906	3090.56
663.097	3057.79
663.289	3221.63
663.481	3068.03
663.673	2969.73
663.864	2986.11
664.056	3020.92
664.247	3002.49
664.439	2973.82
664.631	3025.02
664.822	2996.35
665.014	2961.53
665.205	2949.25
665.397	2994.3
665.588	2883.71
665.78	2898.05
665.971	2838.66
666.163	2951.29
666.354	2840.7
666.546	2818.18
666.737	2750.59
666.929	2762.88
667.12	2691.2
667.311	2795.65
667.503	2752.64
667.694	2701.44
667.885	2787.46
668.077	2850.94
668.268	2762.88
668.459	2787.46
668.651	2730.11
668.842	2783.36
669.033	2701.44
669.224	2738.3
669.416	2803.84
669.607	2736.26
669.798	2631.81
669.989	2828.42
670.18	2689.15
670.371	2728.07
670.563	2560.13
670.754	2687.11
670.945	2523.27
671.136	2562.18
671.327	2588.8
671.518	2566.28
671.709	2578.56
671.9	2431.11
672.091	2592.9
672.282	2472.07
672.473	2451.59
672.664	2660.48
672.855	2513.03
673.046	2467.97
673.237	2597
673.428	2568.32
673.619	2388.1
673.809	2457.73
674	2486.4
674.191	2369.67
674.382	2570.37
674.573	2515.08
674.764	2502.79
674.954	2465.93
675.145	2371.72
675.336	2506.88
675.527	2445.45
675.717	2597
675.908	2488.45
676.099	2371.72
676.289	2422.92
676.48	2416.77
676.671	2371.72
676.861	2363.53
677.052	2334.86
677.243	2410.63
677.433	2461.83
677.624	2381.96
677.814	2297.99
678.005	2406.53
678.195	2361.48
678.386	2373.77
678.576	2424.97
678.767	2414.73
678.957	2316.42
679.148	2418.82
679.338	2390.15
679.529	2318.47
679.719	2379.91
679.909	2363.53
680.1	2300.04
680.29	2455.69
680.481	2222.22
680.671	2400.39
680.861	2224.26
681.052	2408.58
681.242	2363.53
681.432	2330.76
681.622	2318.47
681.813	2341
682.003	2300.04
682.193	2402.44
682.383	2406.53
682.573	2224.26
682.764	2267.27
682.954	2279.56
683.144	2283.66
683.334	2316.42
683.524	2375.81
683.714	2336.9
683.904	2347.14
684.094	2349.19
684.284	2222.22
684.474	2302.09
684.664	2318.47
684.854	2232.46
685.044	2269.32
685.234	2293.9
685.424	2377.86
685.614	2222.22
685.804	2289.8
685.994	2269.32
686.184	2228.36
686.374	2314.38
686.564	2177.16
686.753	2119.82
686.943	2154.63
687.133	2277.51
687.323	2216.07
687.513	2240.65
687.702	2121.87
687.892	2064.52
688.082	2150.54
688.272	2189.45
688.461	2113.67
688.651	2171.02
688.841	2193.55
689.03	2050.19
689.22	2046.09
689.41	2148.49
689.599	2158.73
689.789	2050.19
689.979	2115.72
690.168	2107.53
690.358	2089.1
690.547	2050.19
690.737	1986.7
690.926	2072.72
691.116	2068.62
691.305	2035.85
691.495	2105.48
691.684	2050.19
691.874	2117.77
692.063	1929.36
692.252	2007.18
692.442	2029.71
692.631	1910.93
692.82	1925.26
693.01	1986.7
693.199	1908.88
693.388	1964.17
693.578	1921.17
693.767	2009.23
693.956	1917.07
694.146	1976.46
694.335	1845.39
694.524	1992.84
694.713	1857.68
694.902	1824.91
695.092	1923.21
695.281	1917.07
695.47	1960.08
695.659	1945.74
695.848	1917.07
696.037	1923.21
696.226	1976.46
696.415	1812.62
696.604	1861.77
696.793	1824.91
696.982	1869.97
697.171	1878.16
697.36	1921.17
697.549	1806.48
697.738	1861.77
697.927	1839.25
698.116	1818.77
698.305	1898.64
698.494	1921.17
698.683	1884.3
698.872	2035.85
699.061	1808.53
699.25	1872.01
699.438	1964.17
699.627	1878.16
699.816	1851.53
700.005	1788.05
700.193	1845.39
700.382	1923.21
700.571	1980.56
700.76	1861.77
700.948	1941.65
701.137	1958.03
701.326	1927.31
701.514	1829.01
701.703	1882.25
701.892	1874.06
702.08	1910.93
702.269	1921.17
702.457	1867.92
702.646	1792.14
702.834	1845.39
703.023	1865.87
703.212	1949.84
703.4	1931.41
703.589	1841.29
703.777	1988.75
703.965	1939.6
704.154	1906.83
704.342	1888.4
704.531	1874.06
704.719	1943.69
704.907	1876.11
705.096	1958.03
705.284	1972.36
705.472	1853.58
705.661	1925.26
705.849	1982.6
706.037	1878.16
706.226	1929.36
706.414	1863.82
706.602	2111.63
706.79	1958.03
706.979	1919.12
707.167	1874.06
707.355	1900.69
707.543	1931.41
707.731	1994.89
707.919	1986.7
708.107	1976.46
708.296	1915.02
708.484	1947.79
708.672	1937.55
708.86	1955.98
709.048	1915.02
709.236	1941.65
709.424	1859.73
709.612	1945.74
709.8	1915.02
709.988	1992.84
710.176	1894.54
710.364	1992.84
710.551	2035.85
710.739	2019.47
710.927	1998.99
711.115	1880.21
711.303	1966.22
711.491	1978.51
711.679	1900.69
711.866	2015.37
712.054	1962.12
712.242	1943.69
712.43	2031.76
712.617	2033.8
712.805	1929.36
712.993	1947.79
713.181	1992.84
713.368	1910.93
713.556	1943.69
713.744	1992.84
713.931	1980.56
714.119	1947.79
714.306	2005.13
714.494	2029.71
714.682	1837.2
714.869	1851.53
715.057	1937.55
715.244	1919.12
715.432	2021.52
715.619	1953.93
715.807	2048.14
715.994	1927.31
716.182	1972.36
716.369	1960.08
716.556	1949.84
716.744	2066.57
716.931	1876.11
717.119	2021.52
717.306	1915.02
717.493	1955.98
717.681	1947.79
717.868	1890.45
718.055	2013.32
718.242	1869.97
718.43	2056.33
718.617	1919.12
718.804	1976.46
718.991	1919.12
719.179	1982.6
719.366	2068.62
719.553	1917.07
719.74	1933.45
719.927	1974.41
720.114	1996.94
720.301	1888.4
720.488	1859.73
720.676	1863.82
720.863	1904.78
721.05	1910.93
721.237	1923.21
721.424	1996.94
721.611	2019.47
721.798	1898.64
721.985	1996.94
722.172	1943.69
722.358	1876.11
722.545	2072.72
722.732	1857.68
722.919	1915.02
723.106	2029.71
723.293	1968.27
723.48	2007.18
723.667	2027.66
723.853	1978.51
724.04	2013.32
724.227	1925.26
724.414	1872.01
724.6	1970.32
724.787	1910.93
724.974	1910.93
725.161	2017.42
725.347	1962.12
725.534	2074.76
725.72	1974.41
725.907	2029.71
726.094	1972.36
726.28	1976.46
726.467	1906.83
726.653	2001.04
726.84	1996.94
727.027	2019.47
727.213	1951.88
727.4	2017.42
727.586	1955.98
727.773	1902.73
727.959	1978.51
728.145	2033.8
728.332	1869.97
728.518	1853.58
728.705	2132.11
728.891	2029.71
729.077	1968.27
729.264	1915.02
729.45	1845.39
729.636	1974.41
729.823	2035.85
730.009	2033.8
730.195	1894.54
730.382	2005.13
730.568	1912.97
730.754	1966.22
730.94	1890.45
731.126	1935.5
731.313	2156.68
731.499	1890.45
731.685	2013.32
731.871	2066.57
732.057	1892.49
732.243	1962.12
732.429	2027.66
732.615	2074.76
732.801	1986.7
732.987	2054.28
733.173	1955.98
733.359	1998.99
733.545	1966.22
733.731	1906.83
733.917	1966.22
734.103	1968.27
734.289	2021.52
734.475	2001.04
734.661	2025.61
734.847	1917.07
735.033	2013.32
735.219	1953.93
735.404	2017.42
735.59	1974.41
735.776	1894.54
735.962	2033.8
736.148	1953.93
736.333	2009.23
736.519	1786
736.705	2046.09
736.89	1972.36
737.076	1988.75
737.262	1958.03
737.447	1960.08
737.633	1923.21
737.819	1970.32
738.004	1972.36
738.19	1929.36
738.375	1937.55
738.561	2021.52
738.747	1976.46
738.932	1990.8
739.118	1992.84
739.303	1865.87
739.489	1722.51
739.674	1794.19
739.859	1841.29
740.045	1847.44
740.23	1849.49
740.416	1929.36
740.601	1937.55
740.786	1794.19
740.972	1865.87
741.157	1896.59
741.342	1839.25
741.528	1788.05
741.713	1781.9
741.898	1796.24
742.084	1945.74
742.269	1808.53
742.454	1810.58
742.639	1771.66
742.824	1894.54
743.01	1796.24
743.195	1833.1
743.38	1759.38
743.565	1732.75
743.75	1841.29
743.935	1669.27
744.12	1919.12
744.305	1734.8
744.49	1804.43
744.675	1824.91
744.86	1718.42
745.045	1677.46
745.23	1724.56
745.415	1788.05
745.6	1720.46
745.785	1695.89
745.97	1734.8
746.155	1730.7
746.34	1683.6
746.525	1556.63
746.71	1644.69
746.895	1702.03
747.079	1646.74
747.264	1564.82
747.449	1609.87
747.634	1607.83
747.819	1579.15
748.003	1575.06
748.188	1558.67
748.373	1521.81
748.557	1603.73
748.742	1611.92
748.927	1601.68
749.111	1513.62
749.296	1566.87
749.481	1470.61
749.665	1450.13
749.85	1443.99
750.034	1585.3
750.219	1525.91
750.404	1511.57
750.588	1431.7
750.773	1519.76
750.957	1423.51
751.141	1411.22
751.326	1394.84
751.51	1431.7
751.695	1482.9
751.879	1497.24
752.064	1431.7
752.248	1337.49
752.432	1400.98
752.617	1394.84
752.801	1329.3
752.985	1237.14
753.17	1321.11
753.354	1327.25
753.538	1341.59
753.722	1267.86
753.907	1321.11
754.091	1231
754.275	1173.66
754.459	1239.19
754.643	1157.27
754.828	1169.56
755.012	1118.36
755.196	1280.15
755.38	1177.75
755.564	1181.85
755.748	1159.32
755.932	1183.9
756.116	1202.33
756.3	1263.77
756.484	1210.52
756.668	1089.69
756.852	1079.45
757.036	1089.69
757.22	1171.61
757.404	1218.71
757.588	1104.03
757.772	1126.55
757.956	1108.12
758.14	1165.46
758.323	977.05
758.507	1144.99
758.691	1075.35
758.875	1091.74
759.059	1099.93
759.242	1005.72
759.426	1079.45
759.61	956.57
759.794	1061.02
759.977	1011.87
760.161	1003.68
760.345	962.72
760.528	1020.06
760.712	1011.87
760.895	917.66
761.079	917.66
761.263	1058.97
761.446	1013.92
761.63	968.86
761.813	919.71
761.997	964.76
762.18	917.66
762.364	839.84
762.547	950.43
762.731	891.04
762.914	942.24
763.098	837.79
763.281	958.62
763.464	936.09
763.648	995.48
763.831	850.08
764.015	870.56
764.198	854.17
764.381	932
764.564	913.56
764.748	921.76
764.931	960.67
765.114	876.7
765.297	907.42
765.481	764.06
765.664	962.72
765.847	895.13
766.03	891.04
766.213	897.18
766.397	843.93
766.58	870.56
766.763	843.93
766.946	884.89
767.129	784.54
767.312	856.22
767.495	888.99
767.678	829.6
767.861	792.73
768.044	839.84
768.227	850.08
768.41	805.02
768.593	768.16
768.776	864.41
768.959	788.64
769.142	759.97
769.324	739.49
769.507	784.54
769.69	813.21
769.873	768.16
770.056	862.37
770.239	721.06
770.421	741.54
770.604	716.96
770.787	790.69
770.97	829.6
771.152	731.3
771.335	743.58
771.518	708.77
771.7	702.62
771.883	766.11
772.066	737.44
772.248	665.76
772.431	686.24
772.613	727.2
772.796	710.82
772.978	764.06
773.161	690.34
773.343	741.54
773.526	686.24
773.708	665.76
773.891	600.23
774.073	692.38
774.256	622.75
774.438	735.39
774.621	641.18
774.803	690.34
774.985	651.42
775.168	598.18
775.35	585.89
775.532	680.1
775.715	612.51
775.897	594.08
776.079	641.18
776.261	606.37
776.444	589.99
776.626	579.75
776.808	583.84
776.99	544.93
777.173	589.99
777.355	651.42
777.537	538.79
777.719	561.31
777.901	561.31
778.083	569.51
778.265	546.98
778.447	544.93
778.629	508.07
778.811	579.75
778.993	555.17
779.175	438.44
779.357	499.88
779.539	528.55
779.721	493.73
779.903	506.02
780.085	503.97
780.267	506.02
780.449	526.5
780.631	440.48
780.812	458.92
780.994	446.63
781.176	442.53
781.358	399.52
781.54	436.39
781.721	540.83
781.903	540.83
782.085	440.48
782.267	430.24
782.448	487.59
782.63	417.96
782.812	460.96
782.993	458.92
783.175	397.48
783.357	506.02
783.538	374.95
783.72	497.83
783.901	383.14
784.083	436.39
784.264	354.47
784.446	391.33
784.627	381.09
784.809	436.39
784.99	467.11
785.172	397.48
785.353	366.76
785.535	381.09
785.716	420
785.897	258.21
786.079	387.24
786.26	344.23
786.441	374.95
786.623	379.04
786.804	329.89
786.985	401.57
787.167	381.09
787.348	350.37
787.529	379.04
787.71	403.62
787.891	348.33
788.073	346.28
788.254	358.57
788.435	358.57
788.616	315.56
788.797	254.12
788.978	358.57
789.159	262.31
789.34	305.32
789.522	344.23
789.703	358.57
789.884	278.69
790.065	227.5
790.246	315.56
790.427	325.8
790.607	346.28
790.788	311.46
790.969	270.5
791.15	305.32
791.331	344.23
791.512	276.65
791.693	254.12
791.874	290.98
792.054	331.94
792.235	290.98
792.416	233.64
792.597	231.59
792.778	321.7
792.958	282.79
793.139	295.08
793.32	319.65
793.5	233.64
793.681	329.89
793.862	286.89
794.042	213.16
794.223	211.11
794.404	245.93
794.584	170.15
794.765	233.64
794.945	272.55
795.126	264.36
795.306	288.93
795.487	221.35
795.667	202.92
795.848	264.36
796.028	262.31
796.209	288.93
796.389	313.51
796.57	231.59
796.75	198.82
796.93	272.55
797.111	303.27
797.291	260.26
797.471	252.07
797.652	274.6
797.832	188.58
798.012	219.3
798.192	239.78
798.373	182.44
798.553	241.83
798.733	213.16
798.913	194.73
799.093	217.26
799.274	141.48
799.454	186.54
799.634	202.92
799.814	182.44
799.994	250.02
800.174	176.3
800.354	176.3
800.534	161.96
800.714	239.78
800.894	204.97
801.074	213.16
801.254	202.92
801.434	227.5
801.614	151.72
801.794	215.21
801.974	538.79
802.154	129.19
802.334	215.21
802.514	194.73
802.693	237.74
802.873	88.23
803.053	137.38
803.233	166.06
803.413	174.25
803.592	139.43
803.772	204.97
803.952	190.63
804.131	233.64
804.311	184.49
804.491	225.45
804.67	207.02
804.85	186.54
805.03	209.06
805.209	215.21
805.389	159.91
805.568	135.34
805.748	114.86
805.928	102.57
806.107	188.58
806.287	176.3
806.466	168.1
806.646	219.3
806.825	174.25
807.004	147.62
807.184	98.47
807.363	129.19
807.543	129.19
807.722	241.83
807.901	180.39
808.081	151.72
808.26	116.9
808.439	139.43
808.619	174.25
808.798	155.82
808.977	84.14
809.156	141.48
809.336	63.66
809.515	186.54
809.694	131.24
809.873	145.58
810.052	129.19
810.231	168.1
810.411	145.58
810.59	108.71
810.769	141.48
810.948	127.14
811.127	112.81
811.306	125.1
811.485	63.66
811.664	129.19
811.843	235.69
812.022	139.43
812.201	133.29
812.38	106.67
812.559	96.43
812.737	217.26
812.916	125.1
813.095	94.38
813.274	157.86
813.453	151.72
813.632	82.09
813.811	161.96
813.989	104.62
814.168	131.24
814.347	59.56
814.526	114.86
814.704	53.42
814.883	155.82
815.062	57.51
815.24	71.85
815.419	100.52
815.598	125.1
815.776	141.48
815.955	92.33
816.133	22.7
816.312	157.86
816.49	139.43
816.669	151.72
816.847	75.95
817.026	77.99
817.204	184.49
817.383	51.37
817.561	125.1
817.74	92.33
817.918	63.66
818.097	67.75
818.275	112.81
818.453	118.95
818.632	116.9
818.81	59.56
818.988	43.18
819.167	39.08
819.345	55.47
819.523	71.85
819.701	47.27
819.879	71.85
820.058	88.23
820.236	47.27
820.414	90.28
820.592	118.95
820.77	47.27
820.948	51.37
821.127	69.8
821.305	41.13
821.483	80.04
821.661	14.51
821.839	55.47
822.017	53.42
822.195	12.46
822.373	184.49
822.551	77.99
822.729	82.09
822.907	96.43
823.085	125.1
823.262	65.71
823.44	75.95
823.618	75.95
823.796	141.48
823.974	51.37
824.152	63.66
824.329	84.14
824.507	102.57
824.685	28.84
824.863	94.38
825.04	69.8
825.218	110.76
825.396	51.37
825.574	104.62
825.751	69.8
825.929	88.23
826.107	-22.36
826.284	94.38
826.462	-3.93
826.639	127.14
826.817	69.8
826.994	69.8
827.172	41.13
827.349	135.34
827.527	75.95
827.704	69.8
827.882	71.85
828.059	20.65
828.237	24.75
828.414	80.04
828.591	57.51
828.769	86.19
828.946	53.42
829.124	168.1
829.301	41.13
829.478	82.09
829.655	45.23
829.833	6.31
830.01	61.61
830.187	53.42
830.364	49.32
830.542	123.05
830.719	92.33
830.896	63.66
831.073	63.66
831.25	47.27
831.427	77.99
831.604	77.99
831.782	30.89
831.959	75.95
832.136	-16.21
832.313	18.6
832.49	61.61
832.667	-5.97
832.844	45.23
833.021	61.61
833.198	80.04
833.374	110.76
833.551	104.62
833.728	65.71
833.905	57.51
834.082	41.13
834.259	98.47
834.436	63.66
834.612	118.95
834.789	88.23
834.966	57.51
835.143	10.41
835.319	8.36
835.496	59.56
835.673	28.84
835.85	51.37
836.026	63.66
836.203	24.75
836.38	-28.5
836.556	28.84
836.733	84.14
836.909	96.43
837.086	84.14
837.262	69.8
837.439	14.51
837.616	59.56
837.792	88.23
837.968	-5.97
838.145	22.7
838.321	39.08
838.498	47.27
838.674	34.99
838.851	32.94
839.027	82.09
839.203	73.9
839.38	65.71
839.556	20.65
839.732	104.62
839.909	34.99
840.085	45.23
840.261	30.89
840.437	30.89
840.614	-22.36
840.79	43.18
840.966	47.27
841.142	55.47
841.318	-30.55
841.494	84.14
841.671	57.51
841.847	12.46
842.023	45.23
842.199	63.66
842.375	45.23
842.551	30.89
842.727	-77.65
842.903	26.79
843.079	-10.07
843.255	34.99
843.431	34.99
843.607	0.17
843.783	2.22
843.959	10.41
844.134	-10.07
844.31	71.85
844.486	22.7
844.662	24.75
844.838	37.03
845.013	49.32
845.189	49.32
845.365	12.46
845.541	41.13
845.716	-8.02
845.892	59.56
846.068	-32.6
846.244	32.94
846.419	34.99
846.595	37.03
846.77	-57.17
846.946	63.66
847.122	-26.45
847.297	-10.07
847.473	-5.97
847.648	16.55
847.824	-3.93
847.999	18.6
848.175	18.6
848.35	-63.32
848.526	82.09
848.701	43.18
848.876	-18.26
849.052	47.27
849.227	-28.5
849.403	45.23
849.578	22.7
849.753	30.89
849.929	-20.31
850.104	2.22
850.279	41.13
850.454	-1.88
850.63	12.46
850.805	43.18
850.98	55.47
851.155	14.51
851.33	41.13
851.505	-30.55
851.681	110.76
851.856	-40.79
852.031	49.32
852.206	-12.12
852.381	-30.55
852.556	-1.88
852.731	45.23
852.906	-8.02
853.081	53.42
853.256	14.51
853.431	-67.41
853.606	-26.45
853.781	84.14
853.956	-5.97
854.131	8.36
854.305	-26.45
854.48	26.79
854.655	63.66
854.83	30.89
855.005	24.75
855.18	16.55
855.354	32.94
855.529	-44.88
855.704	-3.93
855.879	32.94
856.053	-14.17
856.228	0.17
856.403	-8.02
856.577	6.31
856.752	0.17
856.926	-3.93
857.101	10.41
857.276	-10.07
857.45	-10.07
857.625	4.27
857.799	41.13
857.974	8.36
858.148	-59.22
858.323	34.99
858.497	39.08
858.672	-14.17
858.846	-26.45
859.02	-42.84
859.195	22.7
859.369	4.27
859.543	53.42
859.718	55.47
859.892	0.17
860.066	18.6
860.241	-34.64
860.415	-22.36
860.589	-16.21
860.763	-28.5
860.938	4.27
861.112	4.27
861.286	-16.21
861.46	-38.74
861.634	69.8
861.808	69.8
861.982	30.89
862.157	-79.7
862.331	59.56
862.505	-38.74
862.679	-26.45
862.853	20.65
863.027	-42.84
863.201	49.32
863.375	-71.51
863.549	-42.84
863.722	22.7
863.896	41.13
864.07	2.22
864.244	-98.13
864.418	-3.93
864.592	71.85
864.766	71.85
864.939	-28.5
865.113	34.99
865.287	-1.88
865.461	-28.5
865.634	8.36
865.808	22.7
865.982	-38.74
866.156	-10.07
866.329	-57.17
866.503	10.41
866.676	69.8
866.85	-26.45
867.024	-24.4
867.197	18.6
867.371	-51.03
867.544	-75.6
867.718	-26.45
867.891	12.46
868.065	71.85
868.238	-16.21
868.412	63.66
868.585	18.6
868.759	-22.36
868.932	-55.12
869.105	-16.21
869.279	47.27
869.452	-57.17
869.625	-5.97
869.799	-14.17
869.972	-40.79
870.145	-53.08
870.319	63.66
870.492	-91.99
870.665	8.36
870.838	-46.93
871.011	-3.93
871.185	-1.88
871.358	4.27
871.531	39.08
871.704	-10.07
871.877	-8.02
872.05	-63.32
872.223	-5.97
872.396	-22.36
872.569	43.18
872.742	-67.41
872.915	75.95
873.088	6.31
873.261	-98.13
873.434	-14.17
873.607	-3.93
873.78	-30.55
873.953	-20.31
874.126	18.6
874.299	-24.4
874.471	37.03
874.644	-14.17
874.817	18.6
874.99	26.79
875.163	-46.93
875.335	10.41
875.508	-38.74
875.681	-59.22
875.853	16.55
876.026	10.41
876.199	-18.26
876.371	24.75
876.544	-14.17
876.717	80.04
876.889	8.36
877.062	-24.4
877.234	75.95
877.407	-18.26
877.579	-34.64
877.752	-59.22
877.924	2.22
878.097	55.47
878.269	-5.97
878.442	-12.12
878.614	-16.21
878.786	0.17
878.959	-20.31
879.131	-34.64
879.303	-46.93
879.476	57.51
879.648	-34.64
879.82	43.18
879.993	12.46
880.165	-14.17
880.337	-81.75
880.509	63.66
880.681	-28.5
880.854	6.31
881.026	-18.26
881.198	-1.88
881.37	-8.02
881.542	20.65
881.714	-36.69
881.886	45.23
882.058	-1.88
882.23	47.27
882.402	0.17
882.574	41.13
882.746	-5.97
882.918	18.6
883.09	16.55
883.262	18.6
883.434	-28.5
883.606	18.6
883.778	55.47
883.95	0.17
884.122	0.17
884.293	47.27
884.465	-24.4
884.637	18.6
884.809	-5.97
884.98	6.31
885.152	22.7
885.324	4.27
885.496	-40.79
885.667	-55.12
885.839	-44.88
886.011	-14.17
886.182	-12.12
886.354	16.55
886.525	4.27
886.697	6.31
886.869	-48.98
887.04	14.51
887.212	49.32
887.383	-5.97
887.555	6.31
887.726	-8.02
887.897	8.36
888.069	0.17
888.24	55.47
888.412	14.51
888.583	-16.21
888.754	-26.45
888.926	-16.21
889.097	-24.4
889.268	-46.93
889.44	-5.97
889.611	8.36
889.782	-14.17
889.953	0.17
890.125	59.56
890.296	-51.03
890.467	-51.03
890.638	-67.41
890.809	-46.93
890.98	-8.02
891.151	-55.12
891.323	37.03
891.494	-10.07
891.665	-22.36
891.836	-30.55
892.007	-44.88
892.178	30.89
892.349	-36.69
892.52	-46.93
892.691	-18.26
892.862	-36.69
893.032	-30.55
893.203	-14.17
893.374	34.99
893.545	-22.36
893.716	6.31
893.887	-40.79
894.057	-65.36
894.228	26.79
894.399	-38.74
894.57	28.84
894.74	-42.84
894.911	-20.31
895.082	-38.74
895.253	-46.93
895.423	-26.45
895.594	2.22
895.764	-46.93
895.935	-36.69
896.106	26.79
896.276	28.84
896.447	-12.12
896.617	-53.08
896.788	-69.46
896.958	-102.23
897.129	22.7
897.299	-38.74
897.47	-34.64
897.64	-65.36
897.81	-32.6
897.981	-67.41
898.151	-14.17
898.322	30.89
898.492	-34.64
898.662	-83.8
898.832	-65.36
899.003	10.41
899.173	-8.02
899.343	-40.79
899.513	-57.17
