Data from USB4F104151__212__11-10-35-336.txt Node

Date: Wed Mar 12 11:10:35 EDT 2025
User: louis
Spectrometer: USB4F10415
Trigger mode: 4
Integration Time (sec): 2.000000E-2
Scans to average: 1
Electric dark correction enabled: true
Nonlinearity correction enabled: false
Boxcar width: 0
XAxis mode: Wavelengths
Number of Pixels in Spectrum: 3648
>>>>>Begin Spectral Data<<<<<
178.204	-32.94
178.424	-32.94
178.644	-32.94
178.864	-149.67
179.084	-2.22
179.304	-49.32
179.524	-39.08
179.744	-8.36
179.964	53.08
180.184	-16.55
180.404	1.88
180.624	-14.51
180.844	85.84
181.064	-57.51
181.283	-14.51
181.503	40.79
181.723	18.26
181.943	18.26
182.163	91.99
182.383	-41.13
182.602	38.74
182.822	59.22
183.042	18.26
183.262	36.69
183.482	-39.08
183.701	67.41
183.921	-6.31
184.141	1.88
184.361	1.88
184.58	53.08
184.8	53.08
185.02	-16.55
185.239	100.18
185.459	-14.51
185.679	3.93
185.898	-41.13
186.118	12.12
186.338	22.36
186.557	46.93
186.777	34.64
186.997	-16.55
187.216	-14.51
187.436	22.36
187.655	22.36
187.875	61.27
188.095	-8.36
188.314	48.98
188.534	26.45
188.753	73.56
188.973	57.17
189.192	79.7
189.412	24.4
189.631	5.97
189.851	12.12
190.07	28.5
190.29	-14.51
190.509	18.26
190.729	36.69
190.948	42.84
191.168	118.61
191.387	69.46
191.607	44.88
191.826	-71.85
192.045	16.21
192.265	40.79
192.484	38.74
192.704	87.89
192.923	-43.18
193.142	110.42
193.362	61.27
193.581	24.4
193.8	8.02
194.02	18.26
194.239	-2.22
194.458	53.08
194.678	40.79
194.897	67.41
195.116	24.4
195.335	24.4
195.555	-8.36
195.774	42.84
195.993	102.23
196.212	10.07
196.432	-2.22
196.651	-37.03
196.87	26.45
197.089	114.52
197.308	-61.61
197.528	57.17
197.747	34.64
197.966	-2.22
198.185	100.18
198.404	61.27
198.623	59.22
198.842	30.55
199.062	16.21
199.281	3.93
199.5	-18.6
199.719	96.08
199.938	44.88
200.157	26.45
200.376	91.99
200.595	12.12
200.814	8.02
201.033	59.22
201.252	38.74
201.471	-16.55
201.69	96.08
201.909	83.8
202.128	89.94
202.347	79.7
202.566	28.5
202.785	-55.47
203.004	-18.6
203.223	120.66
203.442	53.08
203.661	-30.89
203.879	61.27
204.098	83.8
204.317	1.88
204.536	34.64
204.755	-2.22
204.974	34.64
205.193	67.41
205.411	57.17
205.63	81.75
205.849	26.45
206.068	67.41
206.287	94.04
206.505	83.8
206.724	30.55
206.943	51.03
207.162	61.27
207.381	77.65
207.599	59.22
207.818	59.22
208.037	-10.41
208.255	38.74
208.474	16.21
208.693	32.6
208.911	55.12
209.13	42.84
209.349	20.31
209.567	-12.46
209.786	18.26
210.005	63.32
210.223	18.26
210.442	5.97
210.661	22.36
210.879	91.99
211.098	22.36
211.316	18.26
211.535	57.17
211.753	36.69
211.972	38.74
212.191	67.41
212.409	61.27
212.628	38.74
212.846	26.45
213.065	28.5
213.283	110.42
213.502	30.55
213.72	-10.41
213.938	12.12
214.157	118.61
214.375	8.02
214.594	16.21
214.812	71.51
215.031	18.26
215.249	100.18
215.467	36.69
215.686	18.26
215.904	65.36
216.122	26.45
216.341	48.98
216.559	57.17
216.778	143.19
216.996	42.84
217.214	59.22
217.432	-6.31
217.651	-24.75
217.869	44.88
218.087	-2.22
218.306	30.55
218.524	98.13
218.742	-14.51
218.96	22.36
219.179	-32.94
219.397	57.17
219.615	44.88
219.833	-22.7
220.051	67.41
220.27	48.98
220.488	36.69
220.706	102.23
220.924	-22.7
221.142	28.5
221.36	28.5
221.578	87.89
221.796	57.17
222.015	75.6
222.233	34.64
222.451	24.4
222.669	-57.51
222.887	94.04
223.105	65.36
223.323	51.03
223.541	20.31
223.759	126.8
223.977	51.03
224.195	59.22
224.413	-8.36
224.631	10.07
224.849	38.74
225.067	40.79
225.285	18.26
225.503	36.69
225.721	-16.55
225.939	51.03
226.157	65.36
226.375	112.47
226.592	-4.27
226.81	40.79
227.028	81.75
227.246	69.46
227.464	44.88
227.682	85.84
227.9	30.55
228.117	14.17
228.335	42.84
228.553	59.22
228.771	18.26
228.989	81.75
229.206	1.88
229.424	24.4
229.642	59.22
229.86	-10.41
230.077	59.22
230.295	-6.31
230.513	73.56
230.731	75.6
230.948	38.74
231.166	108.37
231.384	83.8
231.601	73.56
231.819	26.45
232.037	65.36
232.254	-30.89
232.472	30.55
232.689	73.56
232.907	48.98
233.125	22.36
233.342	-37.03
233.56	89.94
233.777	5.97
233.995	73.56
234.213	145.24
234.43	51.03
234.648	28.5
234.865	24.4
235.083	3.93
235.3	96.08
235.518	30.55
235.735	30.55
235.953	-0.17
236.17	30.55
236.388	32.6
236.605	73.56
236.822	14.17
237.04	55.12
237.257	28.5
237.475	69.46
237.692	30.55
237.909	46.93
238.127	-10.41
238.344	63.32
238.562	51.03
238.779	38.74
238.996	-6.31
239.214	44.88
239.431	71.51
239.648	59.22
239.865	38.74
240.083	114.52
240.3	18.26
240.517	63.32
240.735	22.36
240.952	32.6
241.169	40.79
241.386	-8.36
241.603	-30.89
241.821	59.22
242.038	48.98
242.255	79.7
242.472	77.65
242.689	196.43
242.907	91.99
243.124	-28.84
243.341	130.9
243.558	14.17
243.775	44.88
243.992	22.36
244.209	57.17
244.426	59.22
244.643	-8.36
244.86	67.41
245.078	-34.99
245.295	-18.6
245.512	75.6
245.729	59.22
245.946	69.46
246.163	42.84
246.38	44.88
246.597	96.08
246.814	22.36
247.031	63.32
247.248	42.84
247.464	10.07
247.681	-0.17
247.898	48.98
248.115	55.12
248.332	14.17
248.549	1.88
248.766	59.22
248.983	48.98
249.2	-8.36
249.417	-2.22
249.633	48.98
249.85	69.46
250.067	42.84
250.284	71.51
250.501	94.04
250.717	83.8
250.934	12.12
251.151	73.56
251.368	44.88
251.585	110.42
251.801	-10.41
252.018	73.56
252.235	5.97
252.451	34.64
252.668	53.08
252.885	130.9
253.102	-26.79
253.318	-0.17
253.535	32.6
253.752	44.88
253.968	26.45
254.185	77.65
254.401	-16.55
254.618	51.03
254.835	51.03
255.051	51.03
255.268	57.17
255.484	94.04
255.701	40.79
255.917	83.8
256.134	-8.36
256.351	3.93
256.567	34.64
256.784	79.7
257	-8.36
257.217	75.6
257.433	-0.17
257.65	77.65
257.866	5.97
258.082	42.84
258.299	-4.27
258.515	132.95
258.732	30.55
258.948	79.7
259.165	-20.65
259.381	65.36
259.597	-16.55
259.814	46.93
260.03	36.69
260.246	96.08
260.463	71.51
260.679	1.88
260.895	36.69
261.112	69.46
261.328	14.17
261.544	-16.55
261.761	100.18
261.977	42.84
262.193	20.31
262.409	36.69
262.626	59.22
262.842	26.45
263.058	20.31
263.274	130.9
263.49	26.45
263.707	48.98
263.923	44.88
264.139	32.6
264.355	63.32
264.571	30.55
264.787	100.18
265.004	-0.17
265.22	51.03
265.436	96.08
265.652	77.65
265.868	57.17
266.084	-8.36
266.3	96.08
266.516	79.7
266.732	53.08
266.948	40.79
267.164	73.56
267.38	51.03
267.596	22.36
267.812	24.4
268.028	59.22
268.244	30.55
268.46	67.41
268.676	71.51
268.892	104.28
269.108	3.93
269.324	65.36
269.54	22.36
269.756	38.74
269.972	44.88
270.188	73.56
270.403	71.51
270.619	48.98
270.835	32.6
271.051	59.22
271.267	8.02
271.483	53.08
271.698	130.9
271.914	79.7
272.13	94.04
272.346	51.03
272.562	24.4
272.777	32.6
272.993	-63.66
273.209	73.56
273.425	51.03
273.64	42.84
273.856	36.69
274.072	38.74
274.287	40.79
274.503	51.03
274.719	104.28
274.934	-12.46
275.15	-51.37
275.366	-2.22
275.581	69.46
275.797	40.79
276.012	40.79
276.228	36.69
276.444	-8.36
276.659	104.28
276.875	89.94
277.09	55.12
277.306	83.8
277.521	18.26
277.737	1.88
277.952	67.41
278.168	126.8
278.383	89.94
278.599	5.97
278.814	-12.46
279.03	-45.23
279.245	89.94
279.461	-47.27
279.676	83.8
279.892	-4.27
280.107	71.51
280.322	-0.17
280.538	83.8
280.753	-14.51
280.969	40.79
281.184	24.4
281.399	42.84
281.615	32.6
281.83	-6.31
282.045	-20.65
282.26	30.55
282.476	48.98
282.691	94.04
282.906	34.64
283.122	-14.51
283.337	44.88
283.552	63.32
283.767	34.64
283.983	65.36
284.198	16.21
284.413	14.17
284.628	-4.27
284.843	26.45
285.058	1.88
285.274	118.61
285.489	10.07
285.704	28.5
285.919	-67.75
286.134	83.8
286.349	18.26
286.564	28.5
286.779	18.26
286.995	51.03
287.21	-26.79
287.425	48.98
287.64	53.08
287.855	61.27
288.07	18.26
288.285	85.84
288.5	44.88
288.715	1.88
288.93	24.4
289.145	71.51
289.36	71.51
289.575	-14.51
289.79	5.97
290.004	65.36
290.219	34.64
290.434	44.88
290.649	-39.08
290.864	63.32
291.079	67.41
291.294	122.71
291.509	1.88
291.724	-8.36
291.938	-8.36
292.153	63.32
292.368	3.93
292.583	-86.19
292.798	75.6
293.012	14.17
293.227	30.55
293.442	59.22
293.657	30.55
293.871	-6.31
294.086	30.55
294.301	102.23
294.516	104.28
294.73	61.27
294.945	38.74
295.16	75.6
295.374	36.69
295.589	20.31
295.804	30.55
296.018	59.22
296.233	79.7
296.447	65.36
296.662	30.55
296.877	57.17
297.091	81.75
297.306	100.18
297.52	-4.27
297.735	75.6
297.949	89.94
298.164	14.17
298.378	3.93
298.593	28.5
298.807	108.37
299.022	98.13
299.236	36.69
299.451	-26.79
299.665	89.94
299.88	94.04
300.094	-22.7
300.309	51.03
300.523	112.47
300.737	8.02
300.952	36.69
301.166	83.8
301.381	10.07
301.595	40.79
301.809	18.26
302.024	91.99
302.238	-2.22
302.452	36.69
302.667	102.23
302.881	87.89
303.095	42.84
303.309	-8.36
303.524	73.56
303.738	63.32
303.952	8.02
304.166	22.36
304.381	61.27
304.595	63.32
304.809	48.98
305.023	67.41
305.237	48.98
305.452	48.98
305.666	79.7
305.88	46.93
306.094	108.37
306.308	36.69
306.522	42.84
306.736	120.66
306.95	112.47
307.164	28.5
307.379	46.93
307.593	96.08
307.807	96.08
308.021	20.31
308.235	67.41
308.449	-6.31
308.663	38.74
308.877	116.56
309.091	44.88
309.305	94.04
309.519	18.26
309.733	147.28
309.947	40.79
310.161	69.46
310.374	44.88
310.588	98.13
310.802	8.02
311.016	28.5
311.23	28.5
311.444	38.74
311.658	57.17
311.872	36.69
312.085	85.84
312.299	141.14
312.513	36.69
312.727	-12.46
312.941	28.5
313.154	26.45
313.368	69.46
313.582	32.6
313.796	91.99
314.009	-4.27
314.223	44.88
314.437	32.6
314.651	38.74
314.864	106.32
315.078	55.12
315.292	-37.03
315.505	40.79
315.719	40.79
315.933	44.88
316.146	116.56
316.36	-10.41
316.573	69.46
316.787	89.94
317.001	122.71
317.214	44.88
317.428	8.02
317.641	51.03
317.855	22.36
318.068	36.69
318.282	53.08
318.495	18.26
318.709	63.32
318.922	40.79
319.136	100.18
319.349	122.71
319.563	-6.31
319.776	-37.03
319.99	96.08
320.203	87.89
320.417	67.41
320.63	44.88
320.843	106.32
321.057	51.03
321.27	42.84
321.483	83.8
321.697	57.17
321.91	135
322.124	46.93
322.337	44.88
322.55	5.97
322.763	65.36
322.977	22.36
323.19	-43.18
323.403	40.79
323.617	38.74
323.83	128.85
324.043	67.41
324.256	89.94
324.469	81.75
324.683	87.89
324.896	12.12
325.109	71.51
325.322	24.4
325.535	63.32
325.748	79.7
325.962	65.36
326.175	67.41
326.388	77.65
326.601	36.69
326.814	38.74
327.027	71.51
327.24	161.62
327.453	8.02
327.666	32.6
327.879	91.99
328.092	91.99
328.305	83.8
328.518	96.08
328.731	42.84
328.944	96.08
329.157	75.6
329.37	71.51
329.583	79.7
329.796	118.61
330.009	16.21
330.222	55.12
330.435	110.42
330.648	73.56
330.861	20.31
331.073	108.37
331.286	46.93
331.499	120.66
331.712	116.56
331.925	42.84
332.138	69.46
332.35	57.17
332.563	38.74
332.776	171.86
332.989	-6.31
333.202	18.26
333.414	-6.31
333.627	44.88
333.84	26.45
334.053	46.93
334.265	-6.31
334.478	32.6
334.691	91.99
334.903	46.93
335.116	96.08
335.329	51.03
335.541	87.89
335.754	87.89
335.966	94.04
336.179	40.79
336.392	85.84
336.604	55.12
336.817	22.36
337.029	34.64
337.242	24.4
337.454	91.99
337.667	10.07
337.88	98.13
338.092	69.46
338.305	110.42
338.517	87.89
338.729	36.69
338.942	79.7
339.154	5.97
339.367	14.17
339.579	100.18
339.792	91.99
340.004	55.12
340.217	83.8
340.429	100.18
340.641	22.36
340.854	55.12
341.066	104.28
341.278	73.56
341.491	122.71
341.703	18.26
341.915	44.88
342.128	12.12
342.34	79.7
342.552	-2.22
342.764	34.64
342.977	100.18
343.189	67.41
343.401	98.13
343.613	24.4
343.826	75.6
344.038	16.21
344.25	-2.22
344.462	122.71
344.674	71.51
344.886	61.27
345.099	42.84
345.311	77.65
345.523	18.26
345.735	8.02
345.947	100.18
346.159	122.71
346.371	67.41
346.583	104.28
346.795	59.22
347.007	51.03
347.219	67.41
347.431	44.88
347.643	106.32
347.855	57.17
348.067	114.52
348.279	46.93
348.491	-18.6
348.703	36.69
348.915	83.8
349.127	55.12
349.339	149.33
349.551	18.26
349.763	5.97
349.975	155.47
350.187	-41.13
350.399	26.45
350.61	34.64
350.822	51.03
351.034	77.65
351.246	59.22
351.458	116.56
351.669	65.36
351.881	108.37
352.093	57.17
352.305	61.27
352.517	104.28
352.728	46.93
352.94	5.97
353.152	57.17
353.363	46.93
353.575	128.85
353.787	57.17
353.999	14.17
354.21	67.41
354.422	10.07
354.633	143.19
354.845	116.56
355.057	12.12
355.268	110.42
355.48	22.36
355.692	-10.41
355.903	69.46
356.115	5.97
356.326	38.74
356.538	98.13
356.749	44.88
356.961	108.37
357.172	20.31
357.384	10.07
357.595	65.36
357.807	36.69
358.018	73.56
358.23	3.93
358.441	100.18
358.653	57.17
358.864	-0.17
359.075	51.03
359.287	32.6
359.498	-32.94
359.709	53.08
359.921	114.52
360.132	28.5
360.344	-4.27
360.555	51.03
360.766	57.17
360.977	98.13
361.189	51.03
361.4	30.55
361.611	67.41
361.823	5.97
362.034	98.13
362.245	51.03
362.456	32.6
362.667	32.6
362.879	-20.65
363.09	20.31
363.301	48.98
363.512	57.17
363.723	67.41
363.935	53.08
364.146	116.56
364.357	26.45
364.568	12.12
364.779	69.46
364.99	104.28
365.201	22.36
365.412	83.8
365.623	126.8
365.834	135
366.045	67.41
366.256	42.84
366.467	87.89
366.678	102.23
366.889	46.93
367.1	34.64
367.311	87.89
367.522	75.6
367.733	-0.17
367.944	75.6
368.155	38.74
368.366	18.26
368.577	53.08
368.788	114.52
368.999	36.69
369.209	12.12
369.42	81.75
369.631	157.52
369.842	38.74
370.053	10.07
370.264	32.6
370.474	34.64
370.685	75.6
370.896	71.51
371.107	145.24
371.317	63.32
371.528	30.55
371.739	48.98
371.95	-14.51
372.16	67.41
372.371	85.84
372.582	48.98
372.792	83.8
373.003	106.32
373.214	75.6
373.424	83.8
373.635	89.94
373.846	98.13
374.056	77.65
374.267	55.12
374.477	57.17
374.688	22.36
374.898	32.6
375.109	83.8
375.319	75.6
375.53	122.71
375.74	96.08
375.951	141.14
376.161	67.41
376.372	53.08
376.582	-30.89
376.793	30.55
377.003	-2.22
377.214	18.26
377.424	149.33
377.635	26.45
377.845	48.98
378.055	108.37
378.266	69.46
378.476	57.17
378.686	87.89
378.897	55.12
379.107	38.74
379.317	59.22
379.528	91.99
379.738	53.08
379.948	-20.65
380.158	67.41
380.369	120.66
380.579	108.37
380.789	75.6
380.999	96.08
381.21	34.64
381.42	67.41
381.63	73.56
381.84	89.94
382.05	171.86
382.261	104.28
382.471	71.51
382.681	30.55
382.891	73.56
383.101	61.27
383.311	59.22
383.521	8.02
383.731	96.08
383.941	91.99
384.151	79.7
384.361	48.98
384.571	51.03
384.781	75.6
384.991	81.75
385.201	96.08
385.411	96.08
385.621	163.67
385.831	55.12
386.041	112.47
386.251	51.03
386.461	110.42
386.671	42.84
386.881	16.21
387.091	14.17
387.301	106.32
387.511	71.51
387.72	102.23
387.93	100.18
388.14	77.65
388.35	83.8
388.56	94.04
388.769	83.8
388.979	91.99
389.189	55.12
389.399	120.66
389.609	-14.51
389.818	100.18
390.028	51.03
390.238	55.12
390.447	100.18
390.657	79.7
390.867	91.99
391.076	65.36
391.286	57.17
391.496	10.07
391.705	73.56
391.915	46.93
392.125	46.93
392.334	38.74
392.544	36.69
392.753	46.93
392.963	114.52
393.172	118.61
393.382	83.8
393.591	96.08
393.801	59.22
394.01	63.32
394.22	24.4
394.429	38.74
394.639	106.32
394.848	67.41
395.058	85.84
395.267	75.6
395.477	71.51
395.686	102.23
395.895	167.76
396.105	104.28
396.314	153.43
396.524	89.94
396.733	36.69
396.942	120.66
397.152	36.69
397.361	69.46
397.57	130.9
397.78	124.76
397.989	124.76
398.198	89.94
398.407	124.76
398.617	137.04
398.826	163.67
399.035	96.08
399.244	79.7
399.453	128.85
399.663	116.56
399.872	124.76
400.081	106.32
400.29	65.36
400.499	18.26
400.708	71.51
400.917	137.04
401.127	204.63
401.336	57.17
401.545	116.56
401.754	116.56
401.963	151.38
402.172	63.32
402.381	171.86
402.59	106.32
402.799	112.47
403.008	77.65
403.217	178
403.426	104.28
403.635	124.76
403.844	167.76
404.053	81.75
404.262	91.99
404.471	198.48
404.68	57.17
404.888	231.25
405.097	223.06
405.306	274.26
405.515	139.09
405.724	227.15
405.933	106.32
406.142	202.58
406.35	208.72
406.559	161.62
406.768	196.43
406.977	221.01
407.185	169.81
407.394	247.63
407.603	165.71
407.812	214.87
408.02	180.05
408.229	208.72
408.438	196.43
408.646	237.39
408.855	218.96
409.064	233.3
409.272	259.92
409.481	225.11
409.69	237.39
409.898	261.97
410.107	276.31
410.315	266.07
410.524	276.31
410.733	315.22
410.941	347.98
411.15	395.09
411.358	264.02
411.567	304.98
411.775	382.8
411.984	325.46
412.192	360.27
412.401	405.33
412.609	454.48
412.818	440.14
413.026	417.61
413.234	395.09
413.443	446.29
413.651	460.62
413.86	464.72
414.068	517.97
414.276	571.21
414.485	487.25
414.693	614.22
414.901	612.17
415.11	628.56
415.318	597.84
415.526	651.08
415.734	649.04
415.943	698.19
416.151	689.99
416.359	730.95
416.567	747.34
416.776	823.11
416.984	835.4
417.192	964.42
417.4	816.97
417.608	878.41
417.817	859.98
418.025	905.03
418.233	989
418.441	989
418.649	1085.25
418.857	1175.36
419.065	1107.78
419.273	1050.44
419.481	1187.65
419.689	1195.84
419.897	1345.34
420.105	1367.87
420.313	1445.7
420.521	1357.63
420.729	1455.94
420.937	1492.8
421.145	1464.13
421.353	1697.6
421.561	1660.73
421.769	1726.27
421.977	1836.86
422.185	1670.97
422.393	1828.67
422.601	1933.11
422.809	1939.26
423.017	2002.74
423.224	1969.98
423.432	2139.96
423.64	2150.2
423.848	2381.62
424.056	2379.57
424.263	2416.43
424.471	2422.58
424.679	2428.72
424.887	2672.43
425.094	2684.72
425.302	2703.15
425.51	2891.56
425.718	2975.53
425.925	2934.57
426.133	3016.49
426.341	3245.86
426.548	3307.3
426.756	3237.67
426.964	3458.85
427.171	3508
427.379	3677.98
427.586	3800.86
427.794	3858.2
428.001	4032.28
428.209	4237.08
428.417	4120.34
428.624	4521.74
428.832	4693.77
429.039	4431.63
429.247	4439.83
429.454	4935.43
429.662	5281.54
429.869	4990.73
430.076	5160.71
430.284	5125.9
430.491	5156.61
430.699	5555.97
430.906	5764.86
431.114	5826.3
431.321	5678.85
431.528	5940.99
431.736	6444.79
431.943	6704.88
432.15	6565.62
432.358	6635.25
432.565	7071.47
432.772	7061.23
432.979	7313.13
433.187	7274.21
433.394	7415.52
433.601	7868.13
433.808	8074.97
434.016	7941.85
434.223	8193.75
434.43	8632.02
434.637	8527.57
434.844	9129.67
435.052	9270.98
435.259	9051.85
435.466	9330.37
435.673	9148.11
435.88	9914.05
436.087	10067.64
436.294	10530.48
436.501	10208.95
436.708	10184.38
436.915	10628.79
437.122	11220.65
437.329	11028.14
437.537	11452.07
437.743	11515.56
437.95	11609.76
438.157	12197.53
438.364	12418.71
438.571	12289.69
438.778	12600.98
438.985	13846.15
439.192	13078.16
439.399	13553.29
439.606	13311.63
439.813	14032.51
440.02	14673.53
440.227	14702.2
440.433	14593.65
440.64	15009.39
440.847	15009.39
441.054	15160.94
441.261	16111.2
441.467	16207.45
441.674	16356.96
441.881	16885.33
442.088	16922.2
442.294	16852.56
442.501	17090.13
442.708	17546.83
442.914	18236.99
443.121	19064.37
443.328	18597.43
443.534	19881.51
443.741	19187.25
443.948	19043.89
444.154	20172.32
444.361	20203.04
444.568	20422.17
444.774	20198.95
444.981	20725.27
445.187	21001.75
445.394	21892.62
445.6	22007.3
445.807	24145.38
446.013	22767.1
446.22	23815.66
446.426	24047.08
446.633	24458.72
446.839	25048.54
447.046	24415.71
447.252	25624.01
447.459	25589.2
447.665	25392.59
447.871	26437.06
448.078	27995.56
448.284	26471.87
448.491	27338.16
448.697	27864.49
448.903	28632.48
449.11	28439.97
449.316	28165.54
449.522	28777.89
449.728	29355.41
449.935	29771.15
450.141	29650.32
450.347	30256.52
450.553	29463.96
450.76	29877.65
450.966	30514.56
451.172	30119.31
451.378	30854.53
451.584	30324.1
451.791	31397.24
451.997	31159.67
452.203	31501.68
452.409	31622.51
452.615	31352.18
452.821	30115.21
453.027	29795.73
453.233	31235.45
453.44	29916.56
453.646	30635.39
453.852	30678.4
454.058	30969.21
454.264	29775.25
454.47	30700.93
454.676	29863.31
454.882	31006.08
455.088	27973.03
455.294	28745.12
455.5	28724.64
455.705	29414.8
455.911	28390.82
456.117	27479.47
456.323	26934.71
456.529	25675.21
456.735	26838.46
456.941	26228.17
457.147	25636.3
457.352	24810.97
457.558	24548.83
457.764	24686.04
457.97	24368.61
458.176	23961.06
458.381	23850.47
458.587	22654.46
458.793	22617.6
458.999	21145.11
459.204	22795.77
459.41	22470.14
459.616	20528.67
459.821	20973.08
460.027	20639.26
460.233	20096.55
460.438	19283.5
460.644	19220.02
460.85	18579
461.055	18196.03
461.261	18351.68
461.466	16813.65
461.672	16537.18
461.878	17610.31
462.083	16578.14
462.289	16172.64
462.494	16010.85
462.7	15240.81
462.905	14952.05
463.111	15523.43
463.316	15611.5
463.522	15257.2
463.727	15140.46
463.932	15124.08
464.138	15074.93
464.343	15038.06
464.549	14597.75
464.754	15074.93
464.959	14974.58
465.165	15036.02
465.37	14321.27
465.575	13690.5
465.781	14386.81
465.986	14503.54
466.191	14132.86
466.397	13819.52
466.602	13008.53
466.807	13637.25
467.012	13672.07
467.218	13454.98
467.423	13174.41
467.628	13432.46
467.833	13807.23
468.038	13702.79
468.244	12912.27
468.449	13682.31
468.654	13258.38
468.859	13035.15
469.064	12787.35
469.269	12514.97
469.474	12504.73
469.679	12707.48
469.885	12521.11
470.09	12574.36
470.295	12678.8
470.5	12433.05
470.705	12396.18
470.91	12013.21
471.115	11976.35
471.32	12132
471.525	11955.87
471.73	11718.31
471.935	11843.23
472.139	11245.23
472.344	11499.17
472.549	11331.24
472.754	11122.35
472.959	11081.39
473.164	10688.18
473.369	10761.91
473.574	11030.19
473.778	10725.04
473.983	10811.06
474.188	10776.24
474.393	10172.09
474.598	10266.3
474.802	10313.4
475.007	9973.44
475.212	10045.12
475.417	9731.78
475.621	9795.26
475.826	9713.35
476.031	9739.97
476.235	9516.74
476.44	9678.53
476.645	9281.22
476.849	9424.58
477.054	9141.96
477.259	9187.02
477.463	9387.72
477.668	8953.55
477.872	9088.71
478.077	8795.86
478.282	8677.07
478.486	8736.46
478.691	8500.95
478.895	8675.02
479.1	8599.25
479.304	8451.8
479.509	8226.52
479.713	8105.69
479.918	8279.77
480.122	8138.46
480.326	8167.13
480.531	8310.49
480.735	7956.19
480.94	8009.44
481.144	8290.01
481.348	7952.09
481.553	7927.52
481.757	7931.61
481.961	8115.93
482.166	8169.18
482.37	8074.97
482.574	7759.58
482.778	7775.97
482.983	7890.65
483.187	7950.04
483.391	7816.93
483.595	7968.48
483.8	7626.46
484.004	7978.72
484.208	8095.45
484.412	7913.18
484.616	7913.18
484.821	7921.37
485.025	7825.12
485.229	7911.13
485.433	7841.5
485.637	7851.74
485.841	7810.78
486.045	7931.61
486.249	7700.19
486.453	7823.07
486.657	7904.99
486.861	8038.11
487.065	7591.65
487.269	7898.84
487.473	7554.79
487.677	7921.37
487.881	7921.37
488.085	7800.54
488.289	7956.19
488.493	7888.6
488.697	7866.08
488.901	7915.23
489.105	7886.56
489.309	7919.32
489.512	8074.97
489.716	7968.48
489.92	7894.75
490.124	7986.91
490.328	8027.87
490.531	7948
490.735	8120.03
490.939	8146.65
491.143	7943.9
491.346	7999.2
491.55	8072.92
491.754	8031.96
491.958	8201.94
492.161	8304.34
492.365	8308.44
492.569	8144.6
492.772	8308.44
492.976	8322.77
493.18	8498.9
493.383	8564.43
493.587	8406.74
493.79	8560.34
493.994	8447.7
494.197	8711.89
494.401	8705.74
494.605	8654.55
494.808	8928.97
495.012	8783.57
495.215	9019.08
495.419	8908.49
495.622	8978.12
495.825	9125.58
496.029	8908.49
496.232	9180.87
496.436	9268.94
496.639	9518.79
496.843	9549.51
497.046	9690.82
497.249	9787.07
497.453	9715.39
497.656	9989.82
497.859	9844.42
498.063	9903.81
498.266	10268.34
498.469	10292.92
498.673	10182.33
498.876	10522.29
499.079	10682.03
499.282	10673.84
499.485	10835.63
499.689	10905.26
499.892	11224.75
500.095	10903.21
500.298	11284.14
500.501	11275.95
500.705	11538.09
500.908	11718.31
501.111	11683.49
501.314	11744.93
501.517	11841.18
501.72	12203.68
501.923	11929.25
502.126	12414.62
502.329	12414.62
502.532	12533.4
502.735	12619.41
502.938	12869.26
503.141	12975.76
503.344	13309.58
503.547	13254.28
503.75	13246.09
503.953	13598.34
504.156	13684.36
504.359	13862.53
504.562	14036.61
504.765	14124.67
504.968	14413.43
505.17	14431.87
505.373	14544.5
505.576	14628.47
505.779	15181.42
505.982	15072.88
506.185	15474.28
506.387	15214.19
506.59	15662.69
506.793	15914.59
506.996	15584.87
507.198	16172.64
507.401	15808.1
507.604	16561.75
507.807	16420.44
508.009	16893.52
508.212	16926.29
508.415	17038.93
508.617	17567.31
508.82	17188.43
509.022	17235.53
509.225	17872.45
509.428	17862.21
509.63	18013.76
509.833	18196.03
510.035	18425.4
510.238	18495.04
510.44	18675.26
510.643	18968.12
510.845	19068.47
511.048	19015.22
511.25	19357.23
511.453	19193.39
511.655	20307.49
511.858	19783.21
512.06	20055.59
512.262	20325.92
512.465	20471.32
512.667	20395.55
512.87	21204.5
513.072	20872.73
513.274	21237.27
513.477	21480.97
513.679	21759.5
513.881	21859.85
514.084	22078.98
514.286	22208
514.488	22457.85
514.69	22922.74
514.893	22787.58
515.095	23027.19
515.297	23225.84
515.499	23602.67
515.701	23956.97
515.904	24098.28
516.106	23971.3
516.308	24247.78
516.51	24776.16
516.712	24624.61
516.914	24915.42
517.116	25136.6
517.318	25368.02
517.52	25615.82
517.722	25740.75
517.925	26009.03
518.127	26308.04
518.329	26365.38
518.531	26611.14
518.733	26957.24
518.935	27454.9
519.136	27293.11
519.338	27700.65
519.54	27725.23
519.742	28149.16
519.944	28276.13
520.146	28714.4
520.348	28837.28
520.55	28925.34
520.752	28962.2
520.954	29449.62
521.155	29355.41
521.357	29734.29
521.559	29846.93
521.761	30172.55
521.963	30465.41
522.164	30649.73
522.366	30485.89
522.568	31333.75
522.77	31257.98
522.971	31565.17
523.173	31298.94
523.375	31651.19
523.576	31837.55
523.778	31569.27
523.98	32269.67
524.181	32601.44
524.383	32275.82
524.584	33107.29
524.786	32845.15
524.988	32861.54
525.189	33508.69
525.391	33586.52
525.592	33815.89
525.794	34057.55
525.995	33770.83
526.197	33969.49
526.398	33873.23
526.6	34547.01
526.801	34123.08
527.003	34846.02
527.204	34549.06
527.406	34977.09
527.607	35173.69
527.808	35163.45
528.01	34608.45
528.211	35251.52
528.412	35605.81
528.614	35689.78
528.815	35337.53
529.016	35788.08
529.218	35431.74
529.419	35763.51
529.62	36199.72
529.822	36148.53
530.023	36457.77
530.224	36191.53
530.425	36068.65
530.626	35951.92
530.828	35880.24
531.029	36810.02
531.23	36257.07
531.431	36617.51
531.632	36637.99
531.833	36590.89
532.035	36539.69
532.236	36681
532.437	36918.56
532.638	36693.29
532.839	36762.92
533.04	37236
533.241	36234.54
533.442	37610.78
533.643	37305.63
533.844	37217.57
534.045	36904.23
534.246	36533.54
534.447	37391.64
534.648	37098.78
534.849	37225.76
535.05	36730.15
535.251	36924.71
535.451	37129.5
535.652	37541.14
535.853	37451.03
536.054	37922.07
536.255	37162.27
536.456	36967.71
536.657	37639.45
536.857	37023.01
537.058	37063.97
537.259	37014.82
537.46	37487.9
537.66	37168.41
537.861	37170.46
538.062	37072.16
538.263	37211.42
538.463	37473.56
538.664	37051.68
538.865	37225.76
539.065	37342.49
539.266	36742.44
539.466	37573.91
539.667	36967.71
539.868	37434.65
540.068	36969.76
540.269	37242.14
540.469	36967.71
540.67	36934.95
540.87	37221.66
541.071	37309.72
541.271	36914.47
541.472	37276.96
541.672	37131.55
541.873	36994.34
542.073	36480.3
542.274	37518.62
542.474	37192.99
542.675	36936.99
542.875	37219.61
543.075	36951.33
543.276	36597.03
543.476	37526.81
543.676	37029.15
543.877	37319.96
544.077	37004.58
544.277	36461.86
544.478	37082.4
544.678	37072.16
544.878	37317.92
545.078	37102.88
545.279	36916.51
545.479	37016.86
545.679	37313.82
545.879	36621.61
546.079	36939.04
546.28	36771.11
546.48	36742.44
546.68	37205.28
546.88	36830.5
547.08	37096.74
547.28	36805.92
547.48	36982.05
547.68	36846.88
547.88	36738.34
548.081	37100.83
548.281	37031.2
548.481	36525.35
548.681	37096.74
548.881	36789.54
549.081	37121.31
549.28	36971.81
549.48	36834.6
549.68	36427.05
549.88	37115.17
550.08	36603.17
550.28	36943.14
550.48	36443.43
550.68	36914.47
550.88	36625.7
551.08	36871.46
551.279	36949.28
551.479	36541.74
551.679	36785.44
551.879	36594.98
552.079	37055.78
552.278	36515.11
552.478	36283.69
552.678	36867.36
552.878	36955.43
553.077	36302.12
553.277	36154.67
553.477	36705.57
553.676	36412.71
553.876	36605.22
554.076	36029.74
554.275	35956.02
554.475	35941.68
554.674	36390.19
554.874	36273.45
555.074	36349.23
555.273	36062.51
555.473	36664.61
555.672	36015.41
555.872	36087.09
556.071	35953.97
556.271	36568.36
556.47	36017.46
556.67	35460.41
556.869	35855.67
557.068	36011.31
557.268	35826.99
557.467	35800.37
557.667	35794.23
557.866	35867.95
558.065	35874.1
558.265	35810.61
558.464	35456.31
558.663	36171.05
558.863	35296.57
559.062	35806.51
559.261	35255.61
559.461	35484.98
559.66	35124.54
559.859	35401.02
560.058	35235.13
560.258	35224.89
560.457	34856.26
560.656	35396.92
560.855	34993.47
561.054	35298.62
561.253	34710.85
561.453	34471.24
561.652	35159.36
561.851	35059.01
562.05	34501.96
562.249	34495.81
562.448	34635.08
562.647	34518.34
562.846	34508.1
563.045	34413.9
563.244	34196.81
563.443	34551.11
563.642	34280.78
563.841	33996.11
564.04	34166.09
564.239	34450.76
564.438	33949.01
564.637	34006.35
564.836	34053.45
565.035	33592.66
565.234	33441.11
565.432	33619.28
565.631	33580.37
565.83	33705.3
566.029	33338.71
566.228	33260.89
566.427	33273.18
566.625	33033.57
566.824	32439.65
567.023	33224.03
567.222	32529.76
567.42	33125.72
567.619	32937.31
567.818	32951.65
568.016	32699.75
568.215	32757.09
568.414	32406.89
568.612	32537.96
568.811	32353.64
569.01	32157.03
569.208	32036.2
569.407	32410.98
569.605	31894.89
569.804	32507.24
570.002	31530.36
570.201	32365.93
570.4	31477.11
570.598	31446.39
570.797	31374.71
570.995	31538.55
571.193	31118.71
571.392	31624.56
571.59	31102.33
571.789	31311.22
571.987	31077.76
572.186	31116.67
572.384	30881.15
572.582	31196.54
572.781	30967.16
572.979	30883.2
573.177	30698.88
573.376	30836.09
573.574	30334.34
573.772	30555.52
573.971	30406.02
574.169	30135.69
574.367	30061.96
574.565	30324.1
574.763	30328.2
574.962	29846.93
575.16	29654.42
575.358	30033.29
575.556	29420.95
575.754	29808.01
575.952	29195.67
576.151	30035.34
576.349	29257.11
576.547	29371.8
576.745	29494.68
576.943	29263.25
577.141	29312.41
577.339	29379.99
577.537	29130.14
577.735	28911
577.933	28868
578.131	28917.15
578.329	28429.73
578.527	28528.03
578.725	28423.59
578.923	28568.99
579.121	28085.67
579.319	28229.03
579.516	28497.31
579.714	28126.63
579.912	28308.9
580.11	28173.74
580.308	28190.12
580.506	27905.45
580.704	27794.86
580.901	27653.55
581.099	27514.29
581.297	27426.23
581.495	27645.36
581.692	27581.87
581.89	27078.07
582.088	27518.39
582.285	27045.3
582.483	27076.02
582.681	27164.09
582.878	27129.27
583.076	26944.95
583.274	26969.53
583.471	26555.84
583.669	26973.63
583.866	26817.98
584.064	26807.74
584.262	26369.47
584.459	26674.62
584.657	26514.88
584.854	26695.1
585.052	26246.6
585.249	26277.32
585.447	26140.1
585.644	25775.56
585.841	26084.81
586.039	26136.01
586.236	25990.6
586.434	25712.08
586.631	25443.79
586.828	25818.57
587.026	25589.2
587.223	25527.76
587.42	25277.91
587.618	25093.59
587.815	25169.37
588.012	25316.82
588.21	25230.8
588.407	25374.16
588.604	24872.41
588.801	24901.08
588.999	24958.42
589.196	24806.87
589.393	24638.94
589.59	24714.72
589.787	24600.03
589.984	24344.03
590.182	24421.86
590.379	24628.7
590.576	24102.37
590.773	23991.78
590.97	24090.09
591.167	24190.44
591.364	23590.38
591.561	24075.75
591.758	23676.4
591.955	23856.62
592.152	23918.06
592.349	23862.76
592.546	23422.45
592.743	23729.64
592.94	23234.03
593.137	23426.54
593.334	23584.24
593.531	23277.04
593.727	23268.85
593.924	23399.92
594.121	22994.42
594.318	23322.1
594.515	22769.15
594.712	23014.9
594.908	22496.77
595.105	22650.36
595.302	22468.09
595.499	22638.08
595.696	22838.78
595.892	22445.57
596.089	22412.8
596.286	22365.7
596.482	22408.7
596.679	22289.92
596.876	22314.5
597.072	22054.4
597.269	22287.87
597.466	21761.55
597.662	21769.74
597.859	21929.48
598.055	21941.77
598.252	21775.88
598.448	21870.09
598.645	21769.74
598.841	21442.06
599.038	21681.67
599.234	21519.88
599.431	21157.39
599.627	21120.53
599.824	21288.46
600.02	21194.26
600.217	21143.06
600.413	21224.98
600.609	21171.73
600.806	20885.01
601.002	21190.16
601.198	20497.95
601.395	20723.23
601.591	20608.54
601.787	20817.43
601.984	20612.63
602.18	20594.2
602.376	20334.11
602.572	20358.69
602.769	20399.65
602.965	20145.7
603.161	20291.1
603.357	20284.96
603.553	19850.79
603.75	20217.38
603.946	19955.24
604.142	19867.17
604.338	19645.99
604.534	19883.56
604.73	19547.69
604.926	19365.42
605.122	19734.06
605.318	19385.9
605.514	19699.24
605.71	19043.89
605.906	19281.46
606.102	19412.53
606.298	19396.14
606.494	19168.82
606.69	19256.88
606.886	19017.27
607.082	18873.91
607.278	19054.13
607.474	18519.61
607.67	19080.75
607.866	18544.19
608.062	18990.64
608.257	18898.48
608.453	18726.46
608.649	18841.14
608.845	18650.68
609.041	18433.6
609.236	18841.14
609.432	18411.07
609.628	18542.14
609.824	18423.36
610.019	18386.49
610.215	18355.77
610.411	18550.33
610.606	18056.77
610.802	17874.5
610.998	18292.29
611.193	17993.28
611.389	18093.63
611.584	17935.94
611.78	17948.23
611.976	17921.6
612.171	18032.19
612.367	17962.56
612.562	17780.29
612.758	17659.46
612.953	17653.32
613.149	17856.07
613.344	17524.3
613.539	18036.29
613.735	17681.99
613.93	17524.3
614.126	17501.77
614.321	17854.02
614.517	17745.48
614.712	17301.07
614.907	17395.28
615.103	17190.48
615.298	17462.86
615.493	17466.95
615.688	17092.18
615.884	17669.7
616.079	17036.88
616.274	17253.97
616.47	17163.86
616.665	17274.45
616.86	16860.76
617.055	17038.93
617.25	17008.21
617.445	17221.2
617.641	16733.78
617.836	16784.98
618.031	16502.36
618.226	16895.57
618.421	16612.95
618.616	16987.73
618.811	16619.1
619.006	16799.32
619.201	16326.24
619.396	16670.29
619.591	16293.47
619.786	16367.2
619.981	16012.9
620.176	16119.39
620.371	16131.68
620.566	15830.63
620.761	16012.9
620.956	16027.23
621.151	15767.14
621.346	15638.12
621.541	15552.1
621.735	15906.4
621.93	15390.31
622.125	15519.34
622.32	15203.95
622.515	15310.44
622.709	15425.13
622.904	15060.59
623.099	15052.4
623.294	15412.84
623.488	14863.99
623.683	15042.16
623.878	14917.23
624.072	14745.2
624.267	15015.54
624.462	14653.05
624.656	14585.46
624.851	14626.42
625.046	14341.75
625.24	14325.37
625.435	14212.73
625.629	13942.4
625.824	14286.46
626.018	14143.1
626.213	13958.78
626.407	13821.57
626.602	13643.4
626.796	13846.15
626.991	14012.03
627.185	13399.69
627.38	13317.77
627.574	13409.93
627.768	13182.6
627.963	13029.01
628.157	13121.17
628.352	13219.47
628.546	13000.33
628.74	13100.69
628.935	13012.62
629.129	13149.84
629.323	12793.49
629.517	12830.35
629.712	12603.03
629.906	12611.22
630.1	12375.7
630.294	12502.68
630.489	12287.64
630.683	12576.41
630.877	12256.92
631.071	12306.07
631.265	12293.79
631.459	12113.56
631.653	12117.66
631.848	12091.04
632.042	11810.47
632.236	11892.38
632.43	11878.05
632.624	11658.92
632.818	11722.4
633.012	11568.8
633.206	11392.68
633.4	11427.49
633.594	11312.81
633.788	11454.12
633.982	11439.78
634.176	11325.1
634.369	11257.51
634.563	11134.64
634.757	11067.05
634.951	11058.86
635.145	10987.18
635.339	11013.81
635.533	11030.19
635.726	10649.27
635.92	10624.69
636.114	10733.23
636.308	10493.62
636.501	10516.15
636.695	10593.97
636.889	10446.52
637.083	10378.93
637.276	10473.14
637.47	10186.43
637.664	10327.74
637.857	10284.73
638.051	10170.04
638.244	10055.36
638.438	10159.8
638.632	9907.9
638.825	9819.84
639.019	9778.88
639.212	9756.35
639.406	9852.61
639.599	9701.06
639.793	9656
639.986	9641.67
640.18	9785.02
640.373	9637.57
640.567	9328.33
640.76	9778.88
640.954	9223.88
641.147	9504.45
641.34	9223.88
641.534	9121.48
641.727	9101
641.92	9340.61
642.114	9033.42
642.307	8914.64
642.5	8885.97
642.694	8890.06
642.887	8849.1
643.08	8980.17
643.273	8765.14
643.467	8924.88
643.66	8763.09
643.853	8627.92
644.046	8599.25
644.239	8746.7
644.432	8515.28
644.626	8490.71
644.819	8339.16
645.012	8394.45
645.205	8343.25
645.398	8367.83
645.591	8160.98
645.784	8230.62
645.977	8050.39
646.17	8355.54
646.363	8117.98
646.556	7964.38
646.749	7993.05
646.942	8009.44
647.135	7991
647.328	7857.89
647.521	7866.08
647.714	7763.68
647.907	7749.34
648.099	7724.77
648.292	7687.9
648.485	7698.14
648.678	7589.6
648.871	7423.72
649.064	7349.99
649.256	7468.77
649.449	7302.89
649.642	7528.16
649.835	7255.78
650.027	7372.52
650.22	7282.41
650.413	7225.06
650.605	7093.99
650.798	7151.34
650.991	7122.66
651.183	7120.62
651.376	7057.13
651.568	7059.18
651.761	7087.85
651.954	6991.59
652.146	6917.87
652.339	6954.73
652.531	6924.01
652.724	6629.1
652.916	6708.97
653.109	6813.42
653.301	6788.85
653.494	6668.02
653.686	6649.58
653.879	6643.44
654.071	6694.64
654.263	6510.32
654.456	6530.8
654.648	6534.9
654.84	6283
655.033	6188.79
655.225	6405.88
655.417	6418.16
655.61	6346.48
655.802	6311.67
655.994	6139.64
656.186	6221.56
656.379	6209.27
656.571	6166.26
656.763	6213.37
656.955	6010.62
657.148	6108.92
657.34	6072.06
657.532	5873.4
657.724	5957.37
657.916	5973.75
658.108	5850.88
658.3	5975.8
658.492	5691.13
658.684	5848.83
658.876	5668.61
659.068	5883.64
659.26	5588.74
659.452	5748.48
659.644	5607.17
659.836	5568.26
660.028	5594.88
660.22	5666.56
660.412	5486.34
660.604	5338.88
660.796	5455.62
660.988	5435.14
661.18	5449.47
661.372	5359.36
661.563	5095.18
661.755	5326.6
661.947	5467.91
662.139	5203.72
662.331	5324.55
662.522	5072.65
662.714	5011.21
662.906	5177.09
663.097	5129.99
663.289	5132.04
663.481	5064.46
663.673	5127.94
663.864	4990.73
664.056	5041.93
664.247	5046.02
664.439	4923.15
664.631	4912.91
664.822	5064.46
665.014	4917
665.205	4849.42
665.397	4888.33
665.588	4734.73
665.78	4802.32
665.971	4783.88
666.163	4830.99
666.354	4503.31
666.546	4828.94
666.737	4632.33
666.929	4847.37
667.12	4620.05
667.311	4679.44
667.503	4531.98
667.694	4624.14
667.885	4441.87
668.077	4579.09
668.268	4423.44
668.459	4441.87
668.651	4581.14
668.842	4443.92
669.033	4417.3
669.224	4300.56
669.416	4466.45
669.607	4204.31
669.798	4306.71
669.989	4288.28
670.18	4284.18
670.371	4210.45
670.563	4177.69
670.754	4306.71
670.945	4290.32
671.136	4284.18
671.327	4208.41
671.518	4167.45
671.709	4124.44
671.9	4196.12
672.091	4065.05
672.282	3989.27
672.473	4058.9
672.664	4042.52
672.855	4056.86
673.046	4026.14
673.237	3999.51
673.428	4040.47
673.619	4042.52
673.809	4087.57
674	4060.95
674.191	3809.05
674.382	3903.26
674.573	3850.01
674.764	3864.35
674.954	3858.2
675.145	3811.1
675.336	3731.23
675.527	3884.83
675.717	3807
675.908	3776.28
676.099	3831.58
676.289	3868.44
676.48	3753.76
676.671	3712.8
676.861	3800.86
677.052	3688.22
677.243	3764
677.433	3700.51
677.624	3657.5
677.814	3737.37
678.005	3622.69
678.195	3692.32
678.386	3663.65
678.576	3637.02
678.767	3512.1
678.957	3688.22
679.148	3696.41
679.338	3637.02
679.529	3755.8
679.719	3706.65
679.909	3544.86
680.1	3622.69
680.29	3563.29
680.481	3403.55
680.671	3610.4
680.861	3444.51
681.052	3528.48
681.242	3583.77
681.432	3571.49
681.622	3391.27
681.813	3362.59
682.003	3467.04
682.193	3385.12
682.383	3528.48
682.573	3401.51
682.764	3419.94
682.954	3575.58
683.144	3413.79
683.334	3485.47
683.524	3440.42
683.714	3440.42
683.904	3290.92
684.094	3282.72
684.284	3430.18
684.474	3385.12
684.664	3245.86
684.854	3227.43
685.044	3204.9
685.234	3231.52
685.424	3258.15
685.614	3319.59
685.804	3202.85
685.994	3266.34
686.184	3233.57
686.374	3243.81
686.564	3077.93
686.753	3206.95
686.943	3168.04
687.133	3194.66
687.323	3145.51
687.513	3172.13
687.702	3155.75
687.892	3030.82
688.082	3122.98
688.272	3116.84
688.461	3059.49
688.651	3075.88
688.841	2996.01
689.03	3139.37
689.22	3012.39
689.41	3065.64
689.599	2993.96
689.789	2979.62
689.979	2963.24
690.168	2985.77
690.358	2977.58
690.547	2961.19
690.737	2897.71
690.926	2930.47
691.116	2795.31
691.305	2864.94
691.495	2924.33
691.684	2862.89
691.874	2893.61
692.063	2850.6
692.252	2877.23
692.442	2762.54
692.631	2805.55
692.82	2834.22
693.01	2826.03
693.199	2733.87
693.388	2787.11
693.578	2797.35
693.767	2598.7
693.956	2770.73
694.146	2754.35
694.335	2660.14
694.524	2598.7
694.713	2629.42
694.902	2701.1
695.092	2656.04
695.281	2645.8
695.47	2553.65
695.659	2731.82
695.848	2613.04
696.037	2682.67
696.226	2627.37
696.415	2610.99
696.604	2606.89
696.793	2580.27
696.982	2539.31
697.171	2490.16
697.36	2715.44
697.549	2666.28
697.738	2512.69
697.927	2500.4
698.116	2645.8
698.305	2721.58
698.494	2461.49
698.683	2492.21
698.872	2635.57
699.061	2600.75
699.25	2494.26
699.438	2584.37
699.627	2498.35
699.816	2516.78
700.005	2481.97
700.193	2522.93
700.382	2533.17
700.571	2563.89
700.76	2553.65
700.948	2508.59
701.137	2516.78
701.326	2477.87
701.514	2488.11
701.703	2479.92
701.892	2492.21
702.08	2592.56
702.269	2484.02
702.457	2426.67
702.646	2486.06
702.834	2424.62
703.023	2406.19
703.212	2563.89
703.4	2447.15
703.589	2434.86
703.777	2354.99
703.965	2332.47
704.154	2398
704.342	2379.57
704.531	2361.14
704.719	2320.18
704.907	2467.63
705.096	2326.32
705.284	2328.37
705.472	2447.15
705.661	2512.69
705.849	2395.95
706.037	2393.9
706.226	2373.43
706.414	2375.47
706.602	2404.14
706.79	2340.66
706.979	2377.52
707.167	2414.38
707.355	2389.81
707.543	2381.62
707.731	2393.9
707.919	2449.2
708.107	2447.15
708.296	2377.52
708.484	2322.23
708.672	2400.05
708.86	2320.18
709.048	2402.1
709.236	2371.38
709.424	2400.05
709.612	2354.99
709.8	2330.42
709.988	2348.85
710.176	2418.48
710.364	2475.82
710.551	2379.57
710.739	2328.37
710.927	2303.79
711.115	2352.95
711.303	2350.9
711.491	2279.22
711.679	2344.75
711.866	2387.76
712.054	2225.97
712.242	2330.42
712.43	2398
712.617	2277.17
712.805	2434.86
712.993	2287.41
713.181	2318.13
713.368	2379.57
713.556	2301.75
713.744	2219.83
713.931	2273.07
714.119	2365.23
714.306	2228.02
714.494	2381.62
714.682	2314.03
714.869	2287.41
715.057	2338.61
715.244	2363.19
715.432	2283.31
715.619	2271.03
715.807	2303.79
715.994	2297.65
716.182	2197.3
716.369	2363.19
716.556	2387.76
716.744	2293.55
716.931	2400.05
717.119	2330.42
717.306	2264.88
717.493	2219.83
717.681	2275.12
717.868	2305.84
718.055	2275.12
718.242	2252.59
718.43	2191.16
718.617	2225.97
718.804	2127.67
718.991	2246.45
719.179	2238.26
719.366	2258.74
719.553	2221.88
719.74	2242.36
719.927	2217.78
720.114	2189.11
720.301	2236.21
720.488	2277.17
720.676	2221.88
720.863	2262.83
721.05	2234.16
721.237	2277.17
721.424	2242.36
721.611	2207.54
721.798	2223.92
721.985	2258.74
722.172	2209.59
722.358	2111.29
722.545	2142
722.732	2189.11
722.919	2250.55
723.106	2254.64
723.293	2268.98
723.48	2291.51
723.667	2182.96
723.853	2191.16
724.04	2262.83
724.227	2289.46
724.414	2207.54
724.6	2170.68
724.787	2225.97
724.974	2260.79
725.161	2264.88
725.347	2262.83
725.534	2180.92
725.72	2287.41
725.907	2148.15
726.094	2191.16
726.28	2176.82
726.467	2193.2
726.653	2158.39
726.84	2160.44
727.027	2193.2
727.213	2094.9
727.4	2236.21
727.586	2113.33
727.773	2160.44
727.959	2260.79
728.145	2185.01
728.332	2217.78
728.518	2117.43
728.705	2142
728.891	2289.46
729.077	2219.83
729.264	2195.25
729.45	2055.99
729.636	2168.63
729.823	2111.29
730.009	2236.21
730.195	2092.85
730.382	2158.39
730.568	2123.57
730.754	2166.58
730.94	2215.73
731.126	2072.37
731.313	2137.91
731.499	2146.1
731.685	2144.05
731.871	2074.42
732.057	2160.44
732.243	2133.81
732.429	2119.48
732.615	2207.54
732.801	2051.89
732.987	2156.34
733.173	2154.29
733.359	2135.86
733.545	2168.63
733.731	2154.29
733.917	2129.72
734.103	2189.11
734.289	2162.48
734.475	2133.81
734.661	2051.89
734.847	2281.27
735.033	2076.47
735.219	2107.19
735.404	2101.05
735.59	2092.85
735.776	2133.81
735.962	2133.81
736.148	2039.61
736.333	2137.91
736.519	2058.04
736.705	2027.32
736.89	2109.24
737.076	2121.52
737.262	2144.05
737.447	2008.89
737.633	2006.84
737.819	1998.65
738.004	1996.6
738.19	1984.31
738.375	2021.17
738.561	2029.37
738.747	1957.69
738.932	2000.69
739.118	1996.6
739.303	1982.26
739.489	2015.03
739.674	1924.92
739.859	2010.93
740.045	1998.65
740.23	1953.59
740.416	1883.96
740.601	1967.93
740.786	2004.79
740.972	1908.54
741.157	2076.47
741.342	1933.11
741.528	1902.39
741.713	1982.26
741.898	1951.54
742.084	1918.78
742.269	1941.3
742.454	1877.82
742.639	1974.07
742.824	1961.78
743.01	1906.49
743.195	2002.74
743.38	1879.86
743.565	1879.86
743.75	1976.12
743.935	1791.8
744.12	1904.44
744.305	1777.47
744.49	1695.55
744.675	1785.66
744.86	1752.89
745.045	1718.08
745.23	1742.65
745.415	1742.65
745.6	1720.12
745.785	1906.49
745.97	1713.98
746.155	1799.99
746.34	1744.7
746.525	1744.7
746.71	1722.17
746.895	1646.4
747.079	1697.6
747.264	1662.78
747.449	1658.68
747.634	1701.69
747.819	1556.29
748.003	1654.59
748.188	1627.96
748.373	1609.53
748.557	1644.35
748.742	1554.24
748.927	1664.83
749.111	1644.35
749.296	1521.47
749.481	1566.53
749.665	1584.96
749.85	1482.56
750.034	1582.91
750.219	1464.13
750.404	1541.95
750.588	1500.99
750.773	1449.79
750.957	1476.41
751.141	1466.17
751.326	1445.7
751.51	1517.37
751.695	1529.66
751.879	1412.93
752.064	1453.89
752.248	1433.41
752.432	1460.03
752.617	1347.39
752.801	1490.75
752.985	1410.88
753.17	1355.58
753.354	1457.98
753.538	1386.3
753.722	1333.06
753.907	1429.31
754.091	1285.95
754.275	1443.65
754.459	1236.8
754.643	1333.06
754.828	1253.19
755.012	1279.81
755.196	1337.15
755.38	1292.1
755.564	1302.34
755.748	1214.27
755.932	1314.63
756.116	1191.75
756.3	1249.09
756.484	1306.43
756.668	1220.42
756.852	1187.65
757.036	1226.56
757.22	1238.85
757.404	1300.29
757.588	1163.08
757.772	1197.89
757.956	1146.69
758.14	1185.6
758.323	1134.4
758.507	1154.88
758.691	1113.92
758.875	1091.4
759.059	1144.64
759.242	1023.81
759.426	1015.62
759.61	1148.74
759.794	1128.26
759.977	1085.25
760.161	1101.64
760.345	1025.86
760.528	1097.54
760.712	1066.82
760.895	1085.25
761.079	1068.87
761.263	964.42
761.446	1044.29
761.63	1044.29
761.813	1021.77
761.997	972.61
762.18	1021.77
762.364	1036.1
762.547	976.71
762.731	962.37
762.914	968.52
763.098	958.28
763.281	999.24
763.464	1017.67
763.648	941.89
763.831	999.24
764.015	1001.29
764.198	993.09
764.381	1036.1
764.564	962.37
764.748	958.28
764.931	982.85
765.114	911.18
765.297	941.89
765.481	876.36
765.664	960.33
765.847	886.6
766.03	964.42
766.213	941.89
766.397	986.95
766.58	864.07
766.763	952.13
766.946	845.64
767.129	999.24
767.312	915.27
767.495	925.51
767.678	864.07
767.861	810.82
768.044	902.98
768.227	915.27
768.41	902.98
768.593	1001.29
768.776	859.98
768.959	929.61
769.142	859.98
769.324	853.83
769.507	816.97
769.69	835.4
769.873	829.26
770.056	841.54
770.239	859.98
770.421	773.96
770.604	874.31
770.787	790.35
770.97	831.3
771.152	788.3
771.335	888.65
771.518	837.45
771.7	825.16
771.883	751.43
772.066	849.74
772.248	804.68
772.431	776.01
772.613	821.06
772.796	796.49
772.978	728.91
773.161	816.97
773.343	833.35
773.526	757.58
773.708	730.95
773.891	816.97
774.073	634.7
774.256	749.39
774.438	837.45
774.621	718.67
774.803	702.28
774.985	642.89
775.168	698.19
775.35	646.99
775.532	683.85
775.715	589.64
775.897	683.85
776.079	741.19
776.261	733
776.444	636.75
776.626	665.42
776.808	665.42
776.99	689.99
777.173	591.69
777.355	657.23
777.537	702.28
777.719	735.05
777.901	683.85
778.083	599.88
778.265	606.03
778.447	636.75
778.629	599.88
778.811	642.89
778.993	681.8
779.175	603.98
779.357	599.88
779.539	505.68
779.721	636.75
779.903	599.88
780.085	636.75
780.267	618.32
780.449	610.12
780.631	591.69
780.812	626.51
780.994	536.4
781.176	528.21
781.358	532.3
781.54	595.79
781.721	587.6
781.903	542.54
782.085	466.77
782.267	477.01
782.448	503.63
782.63	603.98
782.812	511.82
782.993	479.05
783.175	520.01
783.357	397.14
783.538	507.73
783.72	427.85
783.901	530.25
784.083	489.29
784.264	481.1
784.446	513.87
784.627	468.81
784.809	524.11
784.99	477.01
785.172	444.24
785.353	524.11
785.535	491.34
785.716	405.33
785.897	530.25
786.079	405.33
786.26	442.19
786.441	438.09
786.623	399.18
786.804	515.92
786.985	298.83
787.167	427.85
787.348	438.09
787.529	339.79
787.71	425.81
787.891	442.19
788.073	403.28
788.254	425.81
788.435	350.03
788.616	423.76
788.797	321.36
788.978	460.62
789.159	309.07
789.34	405.33
789.522	399.18
789.703	370.51
789.884	374.61
790.065	255.83
790.246	431.95
790.427	364.37
790.607	390.99
790.788	409.42
790.969	345.94
791.15	356.18
791.331	399.18
791.512	448.33
791.693	321.36
791.874	276.31
792.054	401.23
792.235	399.18
792.416	366.42
792.597	329.55
792.778	364.37
792.958	395.09
793.139	327.5
793.32	280.4
793.5	335.7
793.681	345.94
793.862	313.17
794.042	374.61
794.223	307.02
794.404	358.22
794.584	350.03
794.765	358.22
794.945	325.46
795.126	276.31
795.306	313.17
795.487	294.74
795.667	294.74
795.848	345.94
796.028	323.41
796.209	272.21
796.389	311.12
796.57	272.21
796.75	266.07
796.93	319.31
797.111	298.83
797.291	259.92
797.471	247.63
797.652	214.87
797.832	294.74
798.012	321.36
798.192	264.02
798.373	214.87
798.553	206.67
798.733	335.7
798.913	270.16
799.093	284.5
799.274	274.26
799.454	333.65
799.634	274.26
799.814	356.18
799.994	229.2
800.174	284.5
800.354	206.67
800.534	192.34
800.714	253.78
800.894	180.05
801.074	251.73
801.254	255.83
801.434	333.65
801.614	270.16
801.794	192.34
801.974	673.61
802.154	225.11
802.334	227.15
802.514	212.82
802.693	286.54
802.873	221.01
803.053	194.39
803.233	302.93
803.413	282.45
803.592	237.39
803.772	266.07
803.952	319.31
804.131	190.29
804.311	243.54
804.491	259.92
804.67	130.9
804.85	151.38
805.03	255.83
805.209	350.03
805.389	196.43
805.568	184.15
805.748	198.48
805.928	190.29
806.107	173.91
806.287	266.07
806.466	216.91
806.646	210.77
806.825	227.15
807.004	249.68
807.184	235.35
807.363	200.53
807.543	206.67
807.722	202.58
807.901	223.06
808.081	202.58
808.26	139.09
808.439	255.83
808.619	212.82
808.798	169.81
808.977	153.43
809.156	218.96
809.336	233.3
809.515	184.15
809.694	206.67
809.873	200.53
810.052	198.48
810.231	114.52
810.411	175.95
810.59	227.15
810.769	143.19
810.948	188.24
811.127	251.73
811.306	157.52
811.485	163.67
811.664	202.58
811.843	218.96
812.022	157.52
812.201	116.56
812.38	229.2
812.559	186.19
812.737	132.95
812.916	85.84
813.095	104.28
813.274	192.34
813.453	163.67
813.632	145.24
813.811	161.62
813.989	83.8
814.168	143.19
814.347	87.89
814.526	198.48
814.704	194.39
814.883	192.34
815.062	153.43
815.24	188.24
815.419	110.42
815.598	186.19
815.776	75.6
815.955	155.47
816.133	171.86
816.312	96.08
816.49	157.52
816.669	139.09
816.847	190.29
817.026	145.24
817.204	91.99
817.383	106.32
817.561	85.84
817.74	180.05
817.918	198.48
818.097	145.24
818.275	128.85
818.453	175.95
818.632	171.86
818.81	139.09
818.988	108.37
819.167	167.76
819.345	104.28
819.523	161.62
819.701	165.71
819.879	87.89
820.058	106.32
820.236	147.28
820.414	116.56
820.592	190.29
820.77	112.47
820.948	135
821.127	87.89
821.305	145.24
821.483	69.46
821.661	126.8
821.839	106.32
822.017	112.47
822.195	91.99
822.373	139.09
822.551	102.23
822.729	202.58
822.907	91.99
823.085	108.37
823.262	104.28
823.44	108.37
823.618	108.37
823.796	165.71
823.974	116.56
824.152	10.07
824.329	55.12
824.507	89.94
824.685	132.95
824.863	198.48
825.04	124.76
825.218	135
825.396	81.75
825.574	147.28
825.751	67.41
825.929	167.76
826.107	91.99
826.284	83.8
826.462	85.84
826.639	161.62
826.817	132.95
826.994	108.37
827.172	87.89
827.349	122.71
827.527	110.42
827.704	77.65
827.882	57.17
828.059	135
828.237	77.65
828.414	116.56
828.591	106.32
828.769	81.75
828.946	22.36
829.124	91.99
829.301	81.75
829.478	89.94
829.655	120.66
829.833	108.37
830.01	87.89
830.187	132.95
830.364	83.8
830.542	94.04
830.719	108.37
830.896	165.71
831.073	102.23
831.25	149.33
831.427	96.08
831.604	71.51
831.782	114.52
831.959	61.27
832.136	-16.55
832.313	38.74
832.49	165.71
832.667	126.8
832.844	128.85
833.021	71.51
833.198	102.23
833.374	34.64
833.551	143.19
833.728	87.89
833.905	163.67
834.082	96.08
834.259	55.12
834.436	96.08
834.612	145.24
834.789	98.13
834.966	132.95
835.143	44.88
835.319	67.41
835.496	77.65
835.673	20.31
835.85	102.23
836.026	91.99
836.203	85.84
836.38	73.56
836.556	122.71
836.733	65.36
836.909	69.46
837.086	67.41
837.262	132.95
837.439	124.76
837.616	81.75
837.792	57.17
837.968	73.56
838.145	55.12
838.321	87.89
838.498	32.6
838.674	100.18
838.851	73.56
839.027	114.52
839.203	71.51
839.38	139.09
839.556	22.36
839.732	98.13
839.909	73.56
840.085	14.17
840.261	100.18
840.437	89.94
840.614	42.84
840.79	61.27
840.966	87.89
841.142	22.36
841.318	26.45
841.494	67.41
841.671	196.43
841.847	67.41
842.023	143.19
842.199	94.04
842.375	104.28
842.551	42.84
842.727	130.9
842.903	116.56
843.079	46.93
843.255	151.38
843.431	30.55
843.607	71.51
843.783	67.41
843.959	85.84
844.134	46.93
844.31	128.85
844.486	98.13
844.662	32.6
844.838	63.32
845.013	120.66
845.189	77.65
845.365	67.41
845.541	38.74
845.716	69.46
845.892	96.08
846.068	61.27
846.244	20.31
846.419	12.12
846.595	46.93
846.77	42.84
846.946	104.28
847.122	32.6
847.297	75.6
847.473	91.99
847.648	57.17
847.824	75.6
847.999	34.64
848.175	100.18
848.35	67.41
848.526	48.98
848.701	57.17
848.876	38.74
849.052	18.26
849.227	63.32
849.403	73.56
849.578	-2.22
849.753	46.93
849.929	77.65
850.104	-37.03
850.279	79.7
850.454	106.32
850.63	75.6
850.805	24.4
850.98	12.12
851.155	51.03
851.33	46.93
851.505	67.41
851.681	77.65
851.856	32.6
852.031	91.99
852.206	67.41
852.381	16.21
852.556	81.75
852.731	53.08
852.906	61.27
853.081	102.23
853.256	30.55
853.431	22.36
853.606	8.02
853.781	14.17
853.956	10.07
854.131	-4.27
854.305	67.41
854.48	67.41
854.655	77.65
854.83	69.46
855.005	46.93
855.18	75.6
855.354	26.45
855.529	112.47
855.704	18.26
855.879	-24.75
856.053	85.84
856.228	38.74
856.403	-16.55
856.577	53.08
856.752	51.03
856.926	12.12
857.101	16.21
857.276	34.64
857.45	48.98
857.625	40.79
857.799	85.84
857.974	12.12
858.148	14.17
858.323	61.27
858.497	100.18
858.672	-0.17
858.846	42.84
859.02	34.64
859.195	89.94
859.369	28.5
859.543	55.12
859.718	69.46
859.892	-10.41
860.066	44.88
860.241	42.84
860.415	18.26
860.589	20.31
860.763	14.17
860.938	63.32
861.112	38.74
861.286	34.64
861.46	59.22
861.634	108.37
861.808	69.46
861.982	55.12
862.157	26.45
862.331	-16.55
862.505	30.55
862.679	12.12
862.853	-24.75
863.027	53.08
863.201	59.22
863.375	-30.89
863.549	24.4
863.722	55.12
863.896	96.08
864.07	22.36
864.244	20.31
864.418	38.74
864.592	30.55
864.766	67.41
864.939	-34.99
865.113	67.41
865.287	71.51
865.461	14.17
865.634	-4.27
865.808	44.88
865.982	-10.41
866.156	46.93
866.329	53.08
866.503	106.32
866.676	91.99
866.85	24.4
867.024	53.08
867.197	112.47
867.371	30.55
867.544	61.27
867.718	3.93
867.891	53.08
868.065	61.27
868.238	65.36
868.412	61.27
868.585	1.88
868.759	38.74
868.932	32.6
869.105	-39.08
869.279	106.32
869.452	5.97
869.625	-8.36
869.799	89.94
869.972	71.51
870.145	42.84
870.319	79.7
870.492	46.93
870.665	22.36
870.838	12.12
871.011	51.03
871.185	100.18
871.358	57.17
871.531	44.88
871.704	34.64
871.877	32.6
872.05	61.27
872.223	14.17
872.396	10.07
872.569	153.43
872.742	-14.51
872.915	53.08
873.088	10.07
873.261	63.32
873.434	126.8
873.607	36.69
873.78	34.64
873.953	-16.55
874.126	57.17
874.299	51.03
874.471	3.93
874.644	26.45
874.817	63.32
874.99	40.79
875.163	-2.22
875.335	1.88
875.508	-14.51
875.681	89.94
875.853	-18.6
876.026	83.8
876.199	-4.27
876.371	28.5
876.544	53.08
876.717	24.4
876.889	87.89
877.062	24.4
877.234	22.36
877.407	44.88
877.579	24.4
877.752	59.22
877.924	40.79
878.097	71.51
878.269	34.64
878.442	65.36
878.614	14.17
878.786	55.12
878.959	-51.37
879.131	-57.51
879.303	-20.65
879.476	83.8
879.648	83.8
879.82	51.03
879.993	3.93
880.165	-6.31
880.337	1.88
880.509	-10.41
880.681	-4.27
880.854	63.32
881.026	112.47
881.198	14.17
881.37	34.64
881.542	20.31
881.714	-16.55
881.886	14.17
882.058	-34.99
882.23	10.07
882.402	16.21
882.574	32.6
882.746	32.6
882.918	104.28
883.09	-67.75
883.262	61.27
883.434	40.79
883.606	61.27
883.778	42.84
883.95	102.23
884.122	-14.51
884.293	51.03
884.465	-49.32
884.637	22.36
884.809	63.32
884.98	73.56
885.152	57.17
885.324	69.46
885.496	-73.9
885.667	59.22
885.839	-59.56
886.011	65.36
886.182	26.45
886.354	46.93
886.525	20.31
886.697	10.07
886.869	10.07
887.04	22.36
887.212	57.17
887.383	20.31
887.555	26.45
887.726	22.36
887.897	32.6
888.069	-26.79
888.24	53.08
888.412	71.51
888.583	26.45
888.754	16.21
888.926	22.36
889.097	53.08
889.268	18.26
889.44	32.6
889.611	14.17
889.782	-61.61
889.953	40.79
890.125	24.4
890.296	-8.36
890.467	42.84
890.638	18.26
890.809	1.88
890.98	14.17
891.151	81.75
891.323	14.17
891.494	32.6
891.665	-20.65
891.836	55.12
892.007	-4.27
892.178	38.74
892.349	65.36
892.52	16.21
892.691	53.08
892.862	-0.17
893.032	-73.9
893.203	10.07
893.374	96.08
893.545	63.32
893.716	51.03
893.887	48.98
894.057	16.21
894.228	-12.46
894.399	-16.55
894.57	-2.22
894.74	-16.55
894.911	98.13
895.082	44.88
895.253	-24.75
895.423	-14.51
895.594	46.93
895.764	16.21
895.935	42.84
896.106	55.12
896.276	-20.65
896.447	46.93
896.617	46.93
896.788	-71.85
896.958	28.5
897.129	51.03
897.299	-8.36
897.47	85.84
897.64	122.71
897.81	-12.46
897.981	8.02
898.151	-30.89
898.322	32.6
898.492	14.17
898.662	-0.17
898.832	67.41
899.003	104.28
899.173	38.74
899.343	1.88
899.513	57.17
