Data from USB4F104151__126__11-07-36-856.txt Node

Date: Wed Mar 12 11:07:36 EDT 2025
User: louis
Spectrometer: USB4F10415
Trigger mode: 4
Integration Time (sec): 2.000000E-2
Scans to average: 1
Electric dark correction enabled: true
Nonlinearity correction enabled: false
Boxcar width: 0
XAxis mode: Wavelengths
Number of Pixels in Spectrum: 3648
>>>>>Begin Spectral Data<<<<<
178.204	-93.35
178.424	-93.35
178.644	-93.35
178.864	-70.83
179.084	-62.63
179.304	-15.53
179.524	17.24
179.744	41.81
179.964	13.14
180.184	17.24
180.404	23.38
180.624	-31.91
180.844	7
181.064	-15.53
181.283	2.9
181.503	-27.82
181.723	-31.91
181.943	-68.78
182.163	68.44
182.383	-42.15
182.602	56.15
182.822	-17.58
183.042	29.52
183.262	19.29
183.482	-33.96
183.701	47.96
183.921	7
184.141	-42.15
184.361	66.39
184.58	-9.39
184.8	-15.53
185.02	58.2
185.239	-11.43
185.459	-29.87
185.679	-42.15
185.898	45.91
186.118	50
186.338	2.9
186.557	21.33
186.777	-72.87
186.997	-27.82
187.216	11.09
187.436	70.48
187.655	33.62
187.875	13.14
188.095	-15.53
188.314	-1.19
188.534	-3.24
188.753	-25.77
188.973	-1.19
189.192	11.09
189.412	23.38
189.631	68.44
189.851	-11.43
190.07	68.44
190.29	58.2
190.509	17.24
190.729	47.96
190.948	88.92
191.168	70.48
191.387	25.43
191.607	-7.34
191.826	86.87
192.045	33.62
192.265	-25.77
192.484	-5.29
192.704	-9.39
192.923	-21.67
193.142	50
193.362	78.68
193.581	29.52
193.8	0.85
194.02	-7.34
194.239	-19.63
194.458	-11.43
194.678	9.05
194.897	17.24
195.116	11.09
195.335	45.91
195.555	-1.19
195.774	58.2
195.993	-9.39
196.212	-11.43
196.432	-27.82
196.651	39.76
196.87	43.86
197.089	56.15
197.308	45.91
197.528	115.54
197.747	-81.07
197.966	50
198.185	56.15
198.404	17.24
198.623	74.58
198.842	-15.53
199.062	50
199.281	45.91
199.5	76.63
199.719	35.67
199.938	33.62
200.157	68.44
200.376	-38.06
200.595	21.33
200.814	13.14
201.033	13.14
201.252	35.67
201.471	-9.39
201.69	-42.15
201.909	43.86
202.128	45.91
202.347	-17.58
202.566	13.14
202.785	-27.82
203.004	-56.49
203.223	64.34
203.442	9.05
203.661	4.95
203.879	-11.43
204.098	-52.39
204.317	0.85
204.536	47.96
204.755	43.86
204.974	62.29
205.193	37.72
205.411	25.43
205.63	-31.91
205.849	23.38
206.068	-3.24
206.287	-3.24
206.505	54.1
206.724	2.9
206.943	54.1
207.162	17.24
207.381	29.52
207.599	-27.82
207.818	0.85
208.037	41.81
208.255	66.39
208.474	41.81
208.693	-21.67
208.911	33.62
209.13	7
209.349	99.16
209.567	33.62
209.786	19.29
210.005	41.81
210.223	47.96
210.442	-44.2
210.661	13.14
210.879	-29.87
211.098	54.1
211.316	-31.91
211.535	80.72
211.753	-56.49
211.972	86.87
212.191	-7.34
212.409	0.85
212.628	25.43
212.846	-72.87
213.065	47.96
213.283	70.48
213.502	70.48
213.72	-56.49
213.938	-93.35
214.157	31.57
214.375	4.95
214.594	15.19
214.812	17.24
215.031	47.96
215.249	58.2
215.467	-5.29
215.686	17.24
215.904	23.38
216.122	39.76
216.341	64.34
216.559	54.1
216.778	-3.24
216.996	31.57
217.214	11.09
217.432	-25.77
217.651	9.05
217.869	-3.24
218.087	-1.19
218.306	21.33
218.524	-1.19
218.742	-19.63
218.96	62.29
219.179	60.24
219.397	-7.34
219.615	78.68
219.833	27.48
220.051	-50.35
220.27	9.05
220.488	54.1
220.706	-5.29
220.924	21.33
221.142	45.91
221.36	-29.87
221.578	4.95
221.796	39.76
222.015	-11.43
222.233	-13.48
222.451	50
222.669	17.24
222.887	93.01
223.105	4.95
223.323	-13.48
223.541	0.85
223.759	-1.19
223.977	-11.43
224.195	50
224.413	25.43
224.631	27.48
224.849	15.19
225.067	123.73
225.285	-15.53
225.503	43.86
225.721	-5.29
225.939	39.76
226.157	-7.34
226.375	35.67
226.592	11.09
226.81	76.63
227.028	33.62
227.246	62.29
227.464	-17.58
227.682	76.63
227.9	15.19
228.117	-1.19
228.335	-42.15
228.553	-3.24
228.771	56.15
228.989	-25.77
229.206	4.95
229.424	58.2
229.642	39.76
229.86	21.33
230.077	64.34
230.295	15.19
230.513	45.91
230.731	52.05
230.948	-5.29
231.166	82.77
231.384	15.19
231.601	43.86
231.819	17.24
232.037	-27.82
232.254	31.57
232.472	17.24
232.689	-29.87
232.907	17.24
233.125	19.29
233.342	-33.96
233.56	45.91
233.777	7
233.995	13.14
234.213	-13.48
234.43	23.38
234.648	45.91
234.865	35.67
235.083	31.57
235.3	0.85
235.518	-60.59
235.735	66.39
235.953	-21.67
236.17	31.57
236.388	88.92
236.605	0.85
236.822	-9.39
237.04	21.33
237.257	-29.87
237.475	17.24
237.692	56.15
237.909	-25.77
238.127	52.05
238.344	39.76
238.562	7
238.779	-15.53
238.996	4.95
239.214	33.62
239.431	31.57
239.648	39.76
239.865	25.43
240.083	4.95
240.3	66.39
240.517	9.05
240.735	29.52
240.952	29.52
241.169	47.96
241.386	21.33
241.603	-1.19
241.821	37.72
242.038	47.96
242.255	86.87
242.472	-3.24
242.689	19.29
242.907	56.15
243.124	76.63
243.341	25.43
243.558	17.24
243.775	-17.58
243.992	-21.67
244.209	-23.72
244.426	76.63
244.643	64.34
244.86	-11.43
245.078	17.24
245.295	-25.77
245.512	23.38
245.729	35.67
245.946	-7.34
246.163	-1.19
246.38	-44.2
246.597	-7.34
246.814	-3.24
247.031	-36.01
247.248	15.19
247.464	-27.82
247.681	50
247.898	-19.63
248.115	-25.77
248.332	2.9
248.549	21.33
248.766	-5.29
248.983	21.33
249.2	2.9
249.417	-9.39
249.633	-7.34
249.85	-36.01
250.067	17.24
250.284	23.38
250.501	-9.39
250.717	0.85
250.934	27.48
251.151	0.85
251.368	82.77
251.585	-44.2
251.801	-46.25
252.018	70.48
252.235	113.49
252.451	41.81
252.668	66.39
252.885	66.39
253.102	70.48
253.318	2.9
253.535	-19.63
253.752	41.81
253.968	-5.29
254.185	78.68
254.401	-25.77
254.618	23.38
254.835	0.85
255.051	41.81
255.268	54.1
255.484	0.85
255.701	11.09
255.917	35.67
256.134	39.76
256.351	27.48
256.567	7
256.784	95.06
257	-15.53
257.217	19.29
257.433	74.58
257.65	15.19
257.866	50
258.082	-38.06
258.299	-56.49
258.515	25.43
258.732	-5.29
258.948	17.24
259.165	-7.34
259.381	43.86
259.597	33.62
259.814	-7.34
260.03	-40.11
260.246	37.72
260.463	68.44
260.679	29.52
260.895	-15.53
261.112	84.82
261.328	4.95
261.544	-23.72
261.761	84.82
261.977	35.67
262.193	-5.29
262.409	33.62
262.626	0.85
262.842	39.76
263.058	-70.83
263.274	29.52
263.49	-76.97
263.707	76.63
263.923	-9.39
264.139	-17.58
264.355	-56.49
264.571	-5.29
264.787	-46.25
265.004	35.67
265.22	-1.19
265.436	35.67
265.652	23.38
265.868	11.09
266.084	-46.25
266.3	52.05
266.516	-11.43
266.732	9.05
266.948	-7.34
267.164	54.1
267.38	13.14
267.596	9.05
267.812	84.82
268.028	62.29
268.244	66.39
268.46	13.14
268.676	13.14
268.892	-25.77
269.108	-40.11
269.324	-5.29
269.54	-25.77
269.756	76.63
269.972	101.2
270.188	27.48
270.403	-5.29
270.619	47.96
270.835	58.2
271.051	33.62
271.267	-21.67
271.483	31.57
271.698	21.33
271.914	66.39
272.13	74.58
272.346	-44.2
272.562	17.24
272.777	13.14
272.993	-48.3
273.209	47.96
273.425	33.62
273.64	-46.25
273.856	21.33
274.072	15.19
274.287	-17.58
274.503	9.05
274.719	66.39
274.934	50
275.15	-31.91
275.366	-5.29
275.581	-40.11
275.797	-19.63
276.012	9.05
276.228	99.16
276.444	-29.87
276.659	45.91
276.875	29.52
277.09	62.29
277.306	-27.82
277.521	33.62
277.737	21.33
277.952	35.67
278.168	-13.48
278.383	76.63
278.599	-46.25
278.814	15.19
279.03	-3.24
279.245	37.72
279.461	-1.19
279.676	45.91
279.892	-23.72
280.107	17.24
280.322	68.44
280.538	15.19
280.753	-54.44
280.969	41.81
281.184	25.43
281.399	99.16
281.615	-21.67
281.83	72.53
282.045	-91.31
282.26	84.82
282.476	-38.06
282.691	15.19
282.906	19.29
283.122	54.1
283.337	0.85
283.552	4.95
283.767	25.43
283.983	-38.06
284.198	2.9
284.413	-64.68
284.628	-15.53
284.843	62.29
285.058	72.53
285.274	-46.25
285.489	-3.24
285.704	-31.91
285.919	41.81
286.134	-11.43
286.349	88.92
286.564	17.24
286.779	-7.34
286.995	50
287.21	2.9
287.425	-1.19
287.64	15.19
287.855	-1.19
288.07	9.05
288.285	7
288.5	-15.53
288.715	62.29
288.93	37.72
289.145	11.09
289.36	41.81
289.575	-40.11
289.79	37.72
290.004	37.72
290.219	33.62
290.434	47.96
290.649	-3.24
290.864	-13.48
291.079	50
291.294	-17.58
291.509	47.96
291.724	37.72
291.938	-5.29
292.153	2.9
292.368	9.05
292.583	88.92
292.798	29.52
293.012	50
293.227	62.29
293.442	17.24
293.657	-17.58
293.871	56.15
294.086	52.05
294.301	52.05
294.516	31.57
294.73	11.09
294.945	25.43
295.16	109.4
295.374	52.05
295.589	39.76
295.804	-60.59
296.018	-19.63
296.233	9.05
296.447	-33.96
296.662	88.92
296.877	15.19
297.091	-1.19
297.306	33.62
297.52	-62.63
297.735	47.96
297.949	52.05
298.164	-5.29
298.378	-19.63
298.593	-7.34
298.807	23.38
299.022	29.52
299.236	19.29
299.451	23.38
299.665	68.44
299.88	31.57
300.094	9.05
300.309	66.39
300.523	-11.43
300.737	7
300.952	45.91
301.166	4.95
301.381	31.57
301.595	-1.19
301.809	-31.91
302.024	103.25
302.238	-54.44
302.452	54.1
302.667	54.1
302.881	41.81
303.095	-76.97
303.309	84.82
303.524	-40.11
303.738	35.67
303.952	-11.43
304.166	13.14
304.381	-48.3
304.595	29.52
304.809	-33.96
305.023	68.44
305.237	11.09
305.452	17.24
305.666	21.33
305.88	43.86
306.094	9.05
306.308	45.91
306.522	41.81
306.736	58.2
306.95	-15.53
307.164	27.48
307.379	39.76
307.593	84.82
307.807	7
308.021	29.52
308.235	15.19
308.449	13.14
308.663	-1.19
308.877	21.33
309.091	-9.39
309.305	50
309.519	-1.19
309.733	80.72
309.947	4.95
310.161	33.62
310.374	25.43
310.588	27.48
310.802	82.77
311.016	-5.29
311.23	62.29
311.444	74.58
311.658	-31.91
311.872	86.87
312.085	-19.63
312.299	2.9
312.513	39.76
312.727	27.48
312.941	-11.43
313.154	56.15
313.368	138.07
313.582	54.1
313.796	-11.43
314.009	64.34
314.223	52.05
314.437	43.86
314.651	21.33
314.864	-54.44
315.078	33.62
315.292	29.52
315.505	86.87
315.719	50
315.933	31.57
316.146	39.76
316.36	37.72
316.573	41.81
316.787	103.25
317.001	23.38
317.214	54.1
317.428	88.92
317.641	33.62
317.855	33.62
318.068	64.34
318.282	45.91
318.495	21.33
318.709	64.34
318.922	33.62
319.136	35.67
319.349	66.39
319.563	-21.67
319.776	45.91
319.99	19.29
320.203	62.29
320.417	-9.39
320.63	78.68
320.843	90.96
321.057	60.24
321.27	66.39
321.483	78.68
321.697	111.44
321.91	93.01
322.124	47.96
322.337	86.87
322.55	-3.24
322.763	78.68
322.977	-15.53
323.19	58.2
323.403	72.53
323.617	19.29
323.83	58.2
324.043	-107.69
324.256	35.67
324.469	74.58
324.683	-44.2
324.896	27.48
325.109	-11.43
325.322	-3.24
325.535	58.2
325.748	-1.19
325.962	66.39
326.175	-27.82
326.388	-5.29
326.601	2.9
326.814	45.91
327.027	133.97
327.24	-5.29
327.453	23.38
327.666	43.86
327.879	47.96
328.092	138.07
328.305	-40.11
328.518	2.9
328.731	21.33
328.944	25.43
329.157	2.9
329.37	31.57
329.583	64.34
329.796	-68.78
330.009	-52.39
330.222	70.48
330.435	7
330.648	109.4
330.861	-3.24
331.073	76.63
331.286	-3.24
331.499	50
331.712	39.76
331.925	37.72
332.138	11.09
332.35	17.24
332.563	39.76
332.776	86.87
332.989	-9.39
333.202	80.72
333.414	-17.58
333.627	13.14
333.84	-17.58
334.053	9.05
334.265	-31.91
334.478	37.72
334.691	2.9
334.903	27.48
335.116	4.95
335.329	60.24
335.541	35.67
335.754	39.76
335.966	82.77
336.179	0.85
336.392	-44.2
336.604	7
336.817	-19.63
337.029	17.24
337.242	-19.63
337.454	4.95
337.667	93.01
337.88	-5.29
338.092	27.48
338.305	15.19
338.517	31.57
338.729	-21.67
338.942	-15.53
339.154	56.15
339.367	-38.06
339.579	45.91
339.792	-3.24
340.004	-3.24
340.217	27.48
340.429	-7.34
340.641	64.34
340.854	78.68
341.066	45.91
341.278	66.39
341.491	99.16
341.703	7
341.915	19.29
342.128	68.44
342.34	9.05
342.552	21.33
342.764	9.05
342.977	17.24
343.189	13.14
343.401	19.29
343.613	76.63
343.826	21.33
344.038	39.76
344.25	15.19
344.462	-27.82
344.674	39.76
344.886	45.91
345.099	50
345.311	9.05
345.523	21.33
345.735	33.62
345.947	37.72
346.159	27.48
346.371	43.86
346.583	37.72
346.795	45.91
347.007	33.62
347.219	39.76
347.431	21.33
347.643	76.63
347.855	-15.53
348.067	-11.43
348.279	70.48
348.491	127.83
348.703	23.38
348.915	29.52
349.127	9.05
349.339	43.86
349.551	60.24
349.763	90.96
349.975	9.05
350.187	54.1
350.399	80.72
350.61	54.1
350.822	27.48
351.034	76.63
351.246	-15.53
351.458	35.67
351.669	54.1
351.881	15.19
352.093	56.15
352.305	74.58
352.517	62.29
352.728	80.72
352.94	17.24
353.152	4.95
353.363	-33.96
353.575	25.43
353.787	76.63
353.999	39.76
354.21	54.1
354.422	19.29
354.633	56.15
354.845	62.29
355.057	-1.19
355.268	45.91
355.48	23.38
355.692	-3.24
355.903	31.57
356.115	0.85
356.326	-31.91
356.538	99.16
356.749	39.76
356.961	52.05
357.172	-42.15
357.384	-9.39
357.595	13.14
357.807	13.14
358.018	9.05
358.23	21.33
358.441	74.58
358.653	76.63
358.864	15.19
359.075	-5.29
359.287	-25.77
359.498	95.06
359.709	11.09
359.921	-3.24
360.132	15.19
360.344	29.52
360.555	-7.34
360.766	33.62
360.977	39.76
361.189	41.81
361.4	35.67
361.611	123.73
361.823	-46.25
362.034	29.52
362.245	35.67
362.456	-5.29
362.667	90.96
362.879	109.4
363.09	13.14
363.301	19.29
363.512	-1.19
363.723	17.24
363.935	-17.58
364.146	84.82
364.357	-38.06
364.568	13.14
364.779	47.96
364.99	66.39
365.201	29.52
365.412	31.57
365.623	21.33
365.834	33.62
366.045	115.54
366.256	35.67
366.467	56.15
366.678	60.24
366.889	17.24
367.1	35.67
367.311	21.33
367.522	9.05
367.733	29.52
367.944	78.68
368.155	-46.25
368.366	25.43
368.577	-11.43
368.788	45.91
368.999	70.48
369.209	45.91
369.42	117.59
369.631	64.34
369.842	66.39
370.053	21.33
370.264	41.81
370.474	70.48
370.685	21.33
370.896	17.24
371.107	39.76
371.317	21.33
371.528	21.33
371.739	107.35
371.95	58.2
372.16	13.14
372.371	-1.19
372.582	-21.67
372.792	27.48
373.003	99.16
373.214	82.77
373.424	-15.53
373.635	41.81
373.846	41.81
374.056	56.15
374.267	58.2
374.477	-17.58
374.688	72.53
374.898	-9.39
375.109	76.63
375.319	21.33
375.53	-42.15
375.74	-15.53
375.951	-13.48
376.161	-19.63
376.372	74.58
376.582	54.1
376.793	84.82
377.003	13.14
377.214	37.72
377.424	19.29
377.635	70.48
377.845	17.24
378.055	27.48
378.266	41.81
378.476	84.82
378.686	62.29
378.897	19.29
379.107	70.48
379.317	50
379.528	31.57
379.738	47.96
379.948	68.44
380.158	-3.24
380.369	88.92
380.579	133.97
380.789	25.43
380.999	80.72
381.21	62.29
381.42	76.63
381.63	99.16
381.84	76.63
382.05	43.86
382.261	21.33
382.471	50
382.681	70.48
382.891	37.72
383.101	7
383.311	64.34
383.521	50
383.731	68.44
383.941	19.29
384.151	-3.24
384.361	52.05
384.571	76.63
384.781	80.72
384.991	107.35
385.201	97.11
385.411	58.2
385.621	60.24
385.831	-23.72
386.041	56.15
386.251	66.39
386.461	2.9
386.671	119.64
386.881	4.95
387.091	15.19
387.301	68.44
387.511	17.24
387.72	9.05
387.93	7
388.14	29.52
388.35	41.81
388.56	60.24
388.769	25.43
388.979	88.92
389.189	72.53
389.399	21.33
389.609	33.62
389.818	97.11
390.028	62.29
390.238	45.91
390.447	-17.58
390.657	37.72
390.867	58.2
391.076	35.67
391.286	90.96
391.496	29.52
391.705	23.38
391.915	39.76
392.125	62.29
392.334	84.82
392.544	105.3
392.753	58.2
392.963	37.72
393.172	58.2
393.382	47.96
393.591	68.44
393.801	99.16
394.01	99.16
394.22	90.96
394.429	52.05
394.639	107.35
394.848	27.48
395.058	80.72
395.267	39.76
395.477	66.39
395.686	41.81
395.895	74.58
396.105	95.06
396.314	131.92
396.524	78.68
396.733	66.39
396.942	80.72
397.152	50
397.361	119.64
397.57	47.96
397.78	101.2
397.989	43.86
398.198	99.16
398.407	54.1
398.617	74.58
398.826	99.16
399.035	31.57
399.244	64.34
399.453	58.2
399.663	39.76
399.872	162.64
400.081	54.1
400.29	150.36
400.499	88.92
400.708	105.3
400.917	47.96
401.127	103.25
401.336	35.67
401.545	119.64
401.754	56.15
401.963	31.57
402.172	123.73
402.381	119.64
402.59	68.44
402.799	168.79
403.008	113.49
403.217	150.36
403.426	136.02
403.635	95.06
403.844	107.35
404.053	62.29
404.262	123.73
404.471	117.59
404.68	170.83
404.888	140.12
405.097	156.5
405.306	113.49
405.515	82.77
405.724	203.6
405.933	207.7
406.142	113.49
406.35	219.99
406.559	195.41
406.768	203.6
406.977	195.41
407.185	148.31
407.394	203.6
407.603	129.88
407.812	138.07
408.02	248.66
408.229	154.45
408.438	187.22
408.646	244.56
408.855	226.13
409.064	244.56
409.272	211.79
409.481	236.37
409.69	168.79
409.898	215.89
410.107	312.14
410.315	260.95
410.524	301.9
410.733	320.34
410.941	213.84
411.15	381.78
411.358	346.96
411.567	316.24
411.775	373.58
411.984	381.78
412.192	377.68
412.401	457.55
412.609	465.74
412.818	365.39
413.026	439.12
413.234	437.07
413.443	435.02
413.651	447.31
413.86	416.59
414.068	555.85
414.276	551.76
414.485	543.57
414.693	574.28
414.901	623.44
415.11	541.52
415.318	615.24
415.526	688.97
415.734	590.67
415.943	738.12
416.151	688.97
416.359	703.31
416.567	672.59
416.776	791.37
416.984	820.04
417.192	863.05
417.4	901.96
417.608	807.75
417.817	867.14
418.025	914.25
418.233	895.82
418.441	990.02
418.649	1022.79
418.857	1112.9
419.065	1100.61
419.273	1119.04
419.481	1170.24
419.689	1264.45
419.897	1254.21
420.105	1278.79
420.313	1334.08
420.521	1360.7
420.729	1332.03
420.937	1395.52
421.145	1561.41
421.353	1581.89
421.561	1696.57
421.769	1690.43
421.977	1755.96
422.185	1731.39
422.393	1917.75
422.601	2093.88
422.809	1993.53
423.017	1981.24
423.224	2083.64
423.432	2181.94
423.64	2091.83
423.848	2341.68
424.056	2368.31
424.263	2403.12
424.471	2489.14
424.679	2523.95
424.887	2743.08
425.094	2808.62
425.302	2818.86
425.51	2777.9
425.718	3031.85
425.925	3068.71
426.133	3189.54
426.341	3316.51
426.548	3328.8
426.756	3326.75
426.964	3408.67
427.171	3717.92
427.379	3709.72
427.586	3795.74
427.794	3959.58
428.001	4041.5
428.209	4367.12
428.417	4279.06
428.624	4481.81
428.832	4477.71
429.039	4547.34
429.247	4504.34
429.454	4815.63
429.662	4985.61
429.869	4842.25
430.076	5237.51
430.284	5047.05
430.491	5323.52
430.699	5647.1
430.906	5530.37
431.114	5776.13
431.321	5948.15
431.528	6052.6
431.736	6318.84
431.943	6816.49
432.15	6406.9
432.358	6681.33
432.565	6912.75
432.772	6898.41
432.979	7439.08
433.187	7281.38
433.394	7477.99
433.601	8129.24
433.808	7906.01
434.016	8008.41
434.223	8209.11
434.43	8878.8
434.637	8604.37
434.844	9171.66
435.052	9423.56
435.259	9106.12
435.466	9292.49
435.673	9220.81
435.88	9710.27
436.087	10470.07
436.294	10089.15
436.501	10056.38
436.708	10193.59
436.915	10658.48
437.122	10980.01
437.329	11164.33
437.537	11385.51
437.743	11659.94
437.95	11377.32
438.157	12245.66
438.364	12808.85
438.571	12651.16
438.778	12657.3
438.985	14043.78
439.192	13283.98
439.399	13759.11
439.606	13249.16
439.813	14234.24
440.02	14893.68
440.227	14713.46
440.433	14545.53
440.64	14996.08
440.847	15002.22
441.054	15338.09
441.261	16343.64
441.467	15977.06
441.674	16634.46
441.881	17314.38
442.088	16910.93
442.294	17205.84
442.501	17355.34
442.708	17609.29
442.914	18588.22
443.121	19165.74
443.328	18756.15
443.534	20064.8
443.741	19425.84
443.948	19024.44
444.154	20644.38
444.361	20466.21
444.568	20904.47
444.774	20931.09
444.981	20816.41
445.187	21527.05
445.394	22333.95
445.6	22120.96
445.807	24314.34
446.013	23112.18
446.22	23507.44
446.426	24289.76
446.633	24756.7
446.839	25491.92
447.046	24183.27
447.252	25635.28
447.459	25702.86
447.665	25790.92
447.871	26776
448.078	27646.38
448.284	26630.59
448.491	27449.78
448.697	28492.19
448.903	29082.01
449.11	29229.46
449.316	28494.24
449.522	29116.83
449.728	29800.85
449.935	29739.41
450.141	29946.25
450.347	30978.43
450.553	29714.83
450.76	30228.87
450.966	30640.51
451.172	30501.25
451.378	31320.44
451.584	30626.18
451.791	31183.23
451.997	31172.99
452.203	31617.39
452.409	31912.3
452.615	31914.35
452.821	30417.29
453.027	30290.31
453.233	31836.53
453.44	30777.73
453.646	30583.17
453.852	30751.1
454.058	31840.62
454.264	30294.41
454.47	31232.38
454.676	30253.45
454.882	31084.92
455.088	28606.88
455.294	28993.95
455.5	29559.19
455.705	29856.14
455.911	28565.92
456.117	27933.1
456.323	27070.9
456.529	26157.51
456.735	27251.13
456.941	26577.34
457.147	26016.2
457.352	25342.42
457.558	25047.51
457.764	25180.63
457.97	24654.3
458.176	23972.33
458.381	23894.5
458.587	22915.58
458.793	22542.85
458.999	21699.08
459.204	23155.19
459.41	22409.73
459.616	21285.39
459.821	21070.36
460.027	21010.96
460.233	20734.49
460.438	19671.59
460.644	19958.31
460.85	18919.99
461.055	18758.2
461.261	18666.04
461.466	17181.26
461.672	16810.58
461.878	17953.35
462.083	16656.98
462.289	16288.35
462.494	16376.41
462.7	15655.53
462.905	15467.11
463.111	15729.25
463.316	15659.62
463.522	15280.75
463.727	15366.76
463.932	15270.51
464.138	15481.45
464.343	15223.41
464.549	14873.2
464.754	15499.88
464.959	15217.26
465.165	15088.24
465.37	14455.42
465.575	14254.72
465.781	14615.16
465.986	14615.16
466.191	14279.29
466.397	13965.95
466.602	13386.38
466.807	13886.08
467.012	13666.95
467.218	13681.28
467.423	13695.62
467.628	13658.76
467.833	14215.8
468.038	13771.4
468.244	13240.97
468.449	13767.3
468.654	13578.89
468.859	13060.75
469.064	13005.45
469.269	12810.9
469.474	12855.95
469.679	13021.84
469.885	12489.37
470.09	12804.75
470.295	12755.6
470.5	12421.78
470.705	12417.69
470.91	12001.95
471.115	12229.27
471.32	12268.19
471.525	12253.85
471.73	11979.42
471.935	11977.37
472.139	11489.96
472.344	11545.25
472.549	11537.06
472.754	11502.25
472.959	11131.56
473.164	10889.9
473.369	10869.42
473.574	11154.09
473.778	10975.92
473.983	10955.44
474.188	11047.6
474.393	10449.59
474.598	10685.11
474.802	10580.66
475.007	10306.23
475.212	10291.9
475.417	10064.57
475.621	10095.29
475.826	10148.54
476.031	9792.19
476.235	9491.14
476.44	9724.61
476.645	9710.27
476.849	9757.38
477.054	9687.75
477.259	9509.57
477.463	9288.39
477.668	9304.78
477.872	9333.45
478.077	9022.16
478.282	8948.43
478.486	8993.48
478.691	8622.8
478.895	8858.32
479.1	8708.82
479.304	8557.27
479.509	8434.39
479.713	8651.47
479.918	8307.41
480.122	8282.84
480.326	8499.92
480.531	8438.48
480.735	8413.91
480.94	8307.41
481.144	8491.73
481.348	8235.74
481.553	8116.95
481.757	8131.29
481.961	8235.74
482.166	8291.03
482.37	8301.27
482.574	8170.2
482.778	8223.45
482.983	8288.98
483.187	7983.84
483.391	8264.41
483.595	8164.06
483.8	7971.55
484.004	8088.28
484.208	8151.77
484.412	7863.01
484.616	8207.06
484.821	8176.34
485.025	7985.88
485.229	8233.69
485.433	8016.6
485.637	8147.67
485.841	7920.35
486.045	8059.61
486.249	8135.39
486.453	8102.62
486.657	8006.36
486.861	8190.68
487.065	7787.23
487.269	8139.48
487.473	8114.91
487.677	8157.91
487.881	8112.86
488.085	8051.42
488.289	8209.11
488.493	8061.66
488.697	8055.51
488.901	8164.06
489.105	8037.08
489.309	8340.18
489.512	8196.82
489.716	8331.99
489.92	8415.96
490.124	8084.19
490.328	8469.2
490.531	8358.61
490.735	8434.39
490.939	8448.72
491.143	8268.5
491.346	8387.29
491.55	8667.86
491.754	8610.51
491.958	8471.25
492.161	8495.83
492.365	8620.75
492.569	8643.28
492.772	8805.07
492.976	8831.69
493.18	8944.33
493.383	8893.13
493.587	8952.52
493.79	9087.69
493.994	8891.09
494.197	8901.33
494.401	9036.49
494.605	8927.95
494.808	9226.95
495.012	9300.68
495.215	9347.78
495.419	9327.3
495.622	9235.14
495.825	9452.23
496.029	9405.13
496.232	9693.89
496.436	9573.06
496.639	9933.5
496.843	9904.83
497.046	10283.7
497.249	10171.07
497.453	10171.07
497.656	10242.75
497.859	10470.07
498.063	10414.77
498.266	10996.4
498.469	10545.84
498.673	10865.33
498.876	10805.94
499.079	11199.15
499.282	11035.31
499.485	11252.39
499.689	11354.79
499.892	11584.16
500.095	11639.46
500.298	11821.73
500.501	11772.58
500.705	12110.49
500.908	12079.77
501.111	12219.03
501.314	12333.72
501.517	12497.56
501.72	13011.6
501.923	12712.6
502.126	12847.76
502.329	13165.2
502.532	13210.25
502.735	13408.9
502.938	13619.85
503.141	13746.82
503.344	13748.87
503.547	13988.48
503.75	14273.15
503.953	14578.29
504.156	14326.39
504.359	14445.18
504.562	14660.21
504.765	15049.33
504.968	14991.98
505.17	15250.03
505.373	15051.38
505.576	15491.69
505.779	15569.51
505.982	15811.17
506.185	16089.7
506.387	16177.76
506.59	16370.27
506.793	16671.32
506.996	16708.18
507.198	16960.08
507.401	17193.55
507.604	17183.31
507.807	17439.31
508.009	17793.61
508.212	17836.61
508.415	17912.39
508.617	18289.21
508.82	18588.22
509.022	18436.67
509.225	19067.44
509.428	18983.48
509.63	19057.2
509.833	19139.12
510.035	19745.32
510.238	19300.91
510.44	19778.09
510.643	19958.31
510.845	20179.49
511.048	20193.83
511.25	20623.9
511.453	20650.52
511.655	21318.16
511.858	21244.43
512.06	21473.81
512.262	21729.8
512.465	21709.32
512.667	22125.06
512.87	22491.65
513.072	22233.6
513.274	22753.79
513.477	22993.4
513.679	23212.53
513.881	23699.95
514.084	23831.02
514.286	23589.36
514.488	23998.95
514.69	24553.95
514.893	24678.88
515.095	24502.75
515.297	25065.94
515.499	24975.83
515.701	25283.03
515.904	25569.74
516.106	26018.25
516.308	26284.48
516.51	26266.05
516.712	26415.55
516.914	26667.45
517.116	27410.87
517.318	26927.55
517.52	27378.1
517.722	27609.52
517.925	28033.45
518.127	28449.19
518.329	28322.21
518.531	28144.04
518.733	28998.04
518.935	29297.05
519.136	29192.6
519.338	29731.22
519.54	29868.43
519.742	30284.17
519.944	30527.88
520.146	30515.59
520.348	30615.94
520.55	31351.16
520.752	31637.87
520.954	31660.4
521.155	31428.98
521.357	32074.09
521.559	32455.01
521.761	32729.44
521.963	32629.09
522.164	33208.67
522.366	33233.24
522.568	33556.82
522.77	33788.24
522.971	33952.08
523.173	33624.4
523.375	34498.89
523.576	34316.62
523.778	34324.81
523.98	35115.33
524.181	35254.59
524.383	35025.21
524.584	35694.9
524.786	35518.78
524.988	35483.96
525.189	36057.39
525.391	36399.4
525.592	36524.33
525.794	36831.52
525.995	36487.46
526.197	36845.86
526.398	36919.59
526.6	37054.75
526.801	37462.3
527.003	37386.52
527.204	37912.85
527.406	38187.28
527.607	38252.81
527.808	38312.2
528.01	37964.05
528.211	38107.41
528.412	39162.11
528.614	38514.95
528.815	38564.1
529.016	39115.01
529.218	38836.48
529.419	39096.58
529.62	39246.08
529.822	39274.75
530.023	39004.42
530.224	39540.99
530.425	38908.16
530.626	39284.99
530.828	38799.62
531.029	40212.72
531.23	39368.96
531.431	39446.78
531.632	39848.18
531.833	39704.82
532.035	40040.69
532.236	40114.42
532.437	40276.21
532.638	39954.68
532.839	40087.79
533.04	40304.88
533.241	39432.44
533.442	40644.84
533.643	40507.63
533.844	40376.56
534.045	40567.02
534.246	39983.35
534.447	40302.83
534.648	40626.41
534.849	40782.06
535.05	40528.11
535.251	40767.72
535.451	40366.32
535.652	40853.73
535.853	40732.9
536.054	40806.63
536.255	40630.51
536.456	40272.11
536.657	41036
536.857	40542.44
537.058	40435.95
537.259	40714.47
537.46	40650.99
537.66	40540.39
537.861	40820.97
538.062	40319.21
538.263	40700.14
538.463	40710.38
538.664	40642.79
538.865	40521.96
539.065	41009.38
539.266	40360.17
539.466	41091.3
539.667	40382.7
539.868	41099.49
540.068	41105.63
540.269	40317.17
540.469	41087.2
540.67	40474.86
540.87	40739.05
541.071	40747.24
541.271	40757.48
541.472	40687.85
541.672	40536.3
541.873	40519.92
542.073	40102.13
542.274	41220.32
542.474	40515.82
542.675	40188.14
542.875	41234.66
543.075	40728.81
543.276	40237.3
543.476	41003.24
543.676	40800.49
543.877	40882.41
544.077	40282.35
544.277	40833.25
544.478	40730.86
544.678	40843.49
544.878	40745.19
545.078	40708.33
545.279	40415.47
545.479	40474.86
545.679	40761.58
545.879	40638.7
546.079	40696.04
546.28	40233.2
546.48	40528.11
546.68	40548.59
546.88	40769.77
547.08	40786.15
547.28	40427.76
547.48	40499.44
547.68	40362.22
547.88	40247.54
548.081	40761.58
548.281	40521.96
548.481	40235.25
548.681	40841.45
548.881	40751.34
549.081	40491.24
549.28	40177.9
549.48	40685.8
549.68	40499.44
549.88	40659.18
550.08	40237.3
550.28	40896.74
550.48	40440.04
550.68	40737
550.88	40036.59
551.08	40405.23
551.279	40534.25
551.479	40120.56
551.679	40384.75
551.879	40153.33
552.079	40427.76
552.278	40108.27
552.478	39979.25
552.678	40466.67
552.878	40308.97
553.077	40120.56
553.277	39954.68
553.477	40476.91
553.676	39956.72
553.876	40362.22
554.076	40276.21
554.275	39954.68
554.475	39438.59
554.674	39860.47
554.874	39950.58
555.074	39770.36
555.273	40263.92
555.473	40065.27
555.672	39698.68
555.872	39676.15
556.071	40155.38
556.271	40138.99
556.47	39782.65
556.67	39706.87
556.869	39596.28
557.068	39637.24
557.268	39729.4
557.467	39633.14
557.667	39553.27
557.866	39735.54
558.065	39612.66
558.265	39631.1
558.464	39262.46
558.663	39594.23
558.863	39022.85
559.062	39336.19
559.261	38689.03
559.461	39465.21
559.66	38482.19
559.859	38967.55
560.058	38560.01
560.258	38869.25
560.457	38607.11
560.656	38809.86
560.855	38727.94
561.054	38791.43
561.253	38181.13
561.453	38521.1
561.652	38738.18
561.851	38637.83
562.05	38095.12
562.249	38318.35
562.448	38508.81
562.647	37900.56
562.846	38275.34
563.045	37824.79
563.244	38009.11
563.443	37869.84
563.642	37679.38
563.841	37450.01
564.04	37906.71
564.239	37720.34
564.438	37556.5
564.637	37447.96
564.836	37538.07
565.035	37290.27
565.234	37308.7
565.432	37013.79
565.631	36944.16
565.83	37124.38
566.029	36890.91
566.228	36915.49
566.427	36546.86
566.625	36985.12
566.824	36380.97
567.023	36395.31
567.222	35727.67
567.42	36413.74
567.619	36630.82
567.818	36385.07
568.016	36124.97
568.215	36344.11
568.414	36165.93
568.612	35952.94
568.811	35686.71
569.01	35981.62
569.208	35455.29
569.407	35948.85
569.605	35514.68
569.804	35830.07
570.002	35293.5
570.201	35340.6
570.4	35156.28
570.598	35121.47
570.797	34914.62
570.995	34982.21
571.193	34394.44
571.392	34722.12
571.59	34490.7
571.789	34666.82
571.987	34410.82
572.186	34511.17
572.384	34113.87
572.582	34451.78
572.781	34187.6
572.979	33960.27
573.177	34134.35
573.376	34548.04
573.574	33974.61
573.772	33982.8
573.971	33694.04
574.169	33618.26
574.367	33419.61
574.565	33677.65
574.763	33374.55
574.962	33298.78
575.16	33102.17
575.358	33288.54
575.556	33032.54
575.754	33147.23
575.952	32407.91
576.151	33200.47
576.349	32393.58
576.547	32450.92
576.745	32706.91
576.943	33053.02
577.141	32633.19
577.339	32088.43
577.537	31844.72
577.735	32373.1
577.933	32061.8
578.131	32305.51
578.329	31977.84
578.527	31508.85
578.725	31863.15
578.923	31807.86
579.121	31361.4
579.319	31560.05
579.516	31713.65
579.714	31474.04
579.912	31111.55
580.11	31461.75
580.308	31089.02
580.506	31025.53
580.704	30916.99
580.901	31021.44
581.099	30968.19
581.297	30783.87
581.495	30626.18
581.692	30501.25
581.89	30310.79
582.088	30495.11
582.285	30261.64
582.483	30335.37
582.681	30495.11
582.878	30114.19
583.076	29919.63
583.274	30220.68
583.471	29526.42
583.669	30026.12
583.866	29778.32
584.064	29979.02
584.262	29352.34
584.459	29821.33
584.657	29266.33
584.854	29837.71
585.052	28869.02
585.249	29428.12
585.447	28879.26
585.644	28789.15
585.841	29030.81
586.039	28971.42
586.236	29135.26
586.434	28907.93
586.631	28600.74
586.828	28733.85
587.026	28645.79
587.223	28619.17
587.42	28436.9
587.618	28635.55
587.815	28170.66
588.012	28062.12
588.21	27906.48
588.407	28088.74
588.604	28303.78
588.801	28043.69
588.999	27716.01
589.196	27646.38
589.393	27865.52
589.59	27756.97
589.787	27681.2
589.984	27541.94
590.182	27249.08
590.379	27351.48
590.576	27249.08
590.773	27064.76
590.97	27242.93
591.167	27367.86
591.364	26880.44
591.561	26759.61
591.758	26718.65
591.955	26421.7
592.152	27077.05
592.349	26825.15
592.546	26618.3
592.743	26352.07
592.94	26307.01
593.137	26413.51
593.334	26405.31
593.531	26141.13
593.727	26010.06
593.924	26333.64
594.121	25995.72
594.318	26151.37
594.515	25317.84
594.712	25688.53
594.908	25338.32
595.105	25965
595.302	25410
595.499	25557.46
595.696	25426.39
595.892	25301.46
596.089	25397.71
596.286	25328.08
596.482	25072.09
596.679	25262.55
596.876	24959.45
597.072	24881.63
597.269	24820.19
597.466	24984.02
597.662	24463.84
597.859	24541.66
598.055	24965.59
598.252	24443.36
598.448	24484.32
598.645	24226.28
598.841	24271.33
599.038	24338.91
599.234	24336.87
599.431	23876.07
599.627	23874.03
599.824	23912.94
600.02	23527.92
600.217	23974.38
600.413	23570.93
600.609	23546.35
600.806	23544.3
601.002	23521.77
601.198	23267.83
601.395	23165.43
601.591	23484.91
601.787	23198.2
601.984	23024.12
602.18	23384.56
602.376	23130.61
602.572	22911.48
602.769	23050.74
602.965	22782.46
603.161	22843.9
603.357	22542.85
603.553	22694.4
603.75	22657.53
603.946	22536.7
604.142	22780.41
604.338	22198.79
604.534	22534.65
604.73	22301.19
604.926	22123.01
605.122	22290.95
605.318	21932.55
605.514	22153.73
605.71	21776.91
605.906	21785.1
606.102	22096.39
606.298	21742.09
606.494	21883.4
606.69	21860.87
606.886	22030.85
607.082	21361.17
607.278	21879.3
607.474	21352.98
607.67	21664.27
607.866	21463.57
608.062	21494.29
608.257	21201.43
608.453	21508.62
608.649	21320.21
608.845	21103.12
609.041	21137.94
609.236	21107.22
609.432	21131.79
609.628	20744.73
609.824	21195.28
610.019	20771.35
610.215	20832.79
610.411	20949.53
610.606	20714.01
610.802	20838.94
610.998	20785.69
611.193	20797.98
611.389	20623.9
611.584	20664.86
611.78	20570.65
611.976	20443.68
612.171	20548.12
612.367	20288.03
612.562	20132.39
612.758	20111.91
612.953	20044.32
613.149	20584.99
613.344	20089.38
613.539	20515.36
613.735	20322.85
613.93	20359.71
614.126	19759.66
614.321	20210.21
614.517	20066.85
614.712	20001.32
614.907	20001.32
615.103	20285.98
615.298	19780.14
615.493	19849.77
615.688	19491.37
615.884	19946.02
616.079	19534.38
616.274	19804.71
616.47	19542.57
616.665	19956.26
616.86	19438.12
617.055	19548.72
617.25	19298.86
617.445	19454.51
617.641	19225.14
617.836	19636.78
618.031	19169.84
618.226	19223.09
618.421	19128.88
618.616	19259.95
618.811	18831.93
619.006	19214.9
619.201	18823.73
619.396	18778.68
619.591	18692.66
619.786	19194.42
619.981	18496.06
620.176	18774.58
620.371	18086.47
620.566	18663.99
620.761	18434.62
620.956	18707
621.151	18035.27
621.346	18321.98
621.541	18088.51
621.735	18238.02
621.93	17814.09
622.125	18043.46
622.32	17775.17
622.515	17627.72
622.709	17410.64
622.904	17459.79
623.099	17252.94
623.294	17197.65
623.488	17085.01
623.683	17300.05
623.878	16783.96
624.072	16927.32
624.267	17293.9
624.462	16835.16
624.656	16525.91
624.851	16587.35
625.046	16798.29
625.24	16507.48
625.435	16357.98
625.629	16519.77
625.824	16212.57
626.018	16337.5
626.213	15792.74
626.407	15915.62
626.602	15802.98
626.796	16034.4
626.991	15678.05
627.185	15983.2
627.38	15411.82
627.574	15553.13
627.768	15321.71
627.963	15260.27
628.157	15276.65
628.352	15155.82
628.546	14942.83
628.74	15532.65
628.935	14957.17
629.129	14836.34
629.323	14635.64
629.517	14529.14
629.712	14695.03
629.906	14639.73
630.1	14375.55
630.294	14389.88
630.489	14432.89
630.683	14451.32
630.877	14109.31
631.071	14097.02
631.265	14469.75
631.459	13859.46
631.653	13877.89
631.848	14023.3
632.042	13628.04
632.236	13597.32
632.43	13787.78
632.624	13716.1
632.818	13722.24
633.012	13425.29
633.206	13445.77
633.4	13349.51
633.594	13138.57
633.788	13312.65
633.982	13195.92
634.176	12921.49
634.369	12954.26
634.563	12989.07
634.757	12804.75
634.951	12878.48
635.145	12901.01
635.339	12669.59
635.533	12577.43
635.726	12657.3
635.92	12524.18
636.114	12419.74
636.308	12272.28
636.501	12259.99
636.695	12202.65
636.889	12368.54
637.083	12001.95
637.276	12077.73
637.47	11893.41
637.664	11944.61
637.857	12106.4
638.051	11717.28
638.244	11909.79
638.438	11782.82
638.632	11782.82
638.825	11569.83
639.019	11405.99
639.212	11350.7
639.406	11397.8
639.599	11340.46
639.793	11274.92
639.986	11106.99
640.18	11156.14
640.373	11176.62
640.567	10953.39
640.76	10934.96
640.954	10959.53
641.147	10814.13
641.34	10887.86
641.534	10771.12
641.727	10506.93
641.92	10685.11
642.114	10439.35
642.307	10291.9
642.5	10484.41
642.694	10314.42
642.887	10222.27
643.08	10379.96
643.273	10347.19
643.467	10076.86
643.66	10136.25
643.853	10044.09
644.046	10023.61
644.239	10128.06
644.432	9986.75
644.626	9894.59
644.819	9769.66
645.012	9878.21
645.205	9755.33
645.398	9544.39
645.591	9827.01
645.784	9697.99
645.977	9546.44
646.17	9347.78
646.363	9439.94
646.556	9229
646.749	9423.56
646.942	9294.54
647.135	9218.76
647.328	9147.08
647.521	9099.98
647.714	9028.3
647.907	9093.83
648.099	8952.52
648.292	8962.76
648.485	8944.33
648.678	8651.47
648.871	8846.03
649.064	8872.65
649.256	8809.17
649.449	8682.19
649.642	8749.78
649.835	8633.04
650.027	8284.89
650.22	8504.02
650.413	8454.87
650.605	8481.49
650.798	8278.74
650.991	8237.78
651.183	8301.27
651.376	8164.06
651.568	8323.8
651.761	8041.18
651.954	8061.66
652.146	8114.91
652.339	7955.16
652.531	8075.99
652.724	7930.59
652.916	7881.44
653.109	7748.32
653.301	7873.25
653.494	7922.4
653.686	7725.79
653.879	7897.82
654.071	7703.26
654.263	7682.78
654.456	7647.97
654.648	7582.43
654.84	7527.14
655.033	7459.56
655.225	7561.95
655.417	7246.57
655.61	7351.01
655.802	7445.22
655.994	7293.67
656.186	7273.19
656.379	7312.1
656.571	7160.55
656.763	7039.72
656.955	6959.85
657.148	7234.28
657.34	6918.89
657.532	6855.4
657.724	6877.93
657.916	7052.01
658.108	6990.57
658.3	6826.73
658.492	6916.84
658.684	6693.62
658.876	6744.81
659.068	6724.33
659.26	6701.81
659.452	6779.63
659.644	6648.56
659.836	6621.94
660.028	6615.79
660.22	6658.8
660.412	6658.8
660.604	6439.67
660.796	6533.87
660.988	6486.77
661.18	6337.27
661.372	6347.51
661.563	6314.74
661.755	6226.68
661.947	6161.14
662.139	6300.41
662.331	6273.78
662.522	5985.02
662.714	5982.97
662.906	6003.45
663.097	6073.08
663.289	5980.92
663.481	5810.94
663.673	6062.84
663.864	6025.98
664.056	5866.24
664.247	5790.46
664.439	5739.26
664.631	5651.2
664.822	5860.09
665.014	5794.56
665.205	5729.02
665.397	5749.5
665.588	5796.6
665.78	5602.05
665.971	5591.81
666.163	5516.03
666.354	5645.06
666.546	5503.75
666.737	5524.23
666.929	5524.23
667.12	5534.46
667.311	5427.97
667.503	5604.1
667.694	5479.17
667.885	5575.42
668.077	5376.77
668.268	5499.65
668.459	5276.42
668.651	5335.81
668.842	5155.59
669.033	5167.88
669.224	5141.25
669.416	5219.08
669.607	5128.97
669.798	5024.52
669.989	5206.79
670.18	5116.68
670.371	5163.78
670.563	4954.89
670.754	4940.55
670.945	4860.68
671.136	5137.16
671.327	4864.78
671.518	5022.47
671.709	5049.1
671.9	4944.65
672.091	4903.69
672.282	4942.6
672.473	4780.81
672.664	4817.68
672.855	4735.76
673.046	4797.2
673.237	4799.24
673.428	4930.31
673.619	4928.27
673.809	4684.56
674	4694.8
674.191	4731.66
674.382	4633.36
674.573	4588.3
674.764	4735.76
674.954	4588.3
675.145	4518.67
675.336	4571.92
675.527	4709.13
675.717	4662.03
675.908	4485.9
676.099	4674.32
676.289	4500.24
676.48	4485.9
676.671	4625.17
676.861	4598.54
677.052	4561.68
677.243	4360.98
677.433	4432.66
677.624	4449.04
677.814	4473.62
678.005	4295.44
678.195	4399.89
678.386	4334.36
678.576	4291.35
678.767	4348.69
678.957	4401.94
679.148	4381.46
679.338	4225.81
679.529	4510.48
679.719	4156.18
679.909	4285.2
680.1	4246.29
680.29	4225.81
680.481	4154.13
680.671	4221.72
680.861	4104.98
681.052	4201.24
681.242	4160.28
681.432	4051.74
681.622	4068.12
681.813	4092.69
682.003	4109.08
682.193	4039.45
682.383	4227.86
682.573	4113.17
682.764	3945.24
682.954	4076.31
683.144	4072.22
683.334	3953.43
683.524	3986.2
683.714	4023.06
683.904	3842.84
684.094	4037.4
684.284	4012.82
684.474	4100.89
684.664	4051.74
684.854	4000.54
685.044	3986.2
685.234	3947.29
685.424	3969.82
685.614	3949.34
685.804	3803.93
685.994	3848.99
686.184	4072.22
686.374	3900.19
686.564	3736.35
686.753	3879.71
686.943	3791.64
687.133	3756.83
687.323	3769.12
687.513	3769.12
687.702	3765.02
687.892	3801.88
688.082	3732.25
688.272	3734.3
688.461	3777.31
688.651	3754.78
688.841	3773.21
689.03	3605.28
689.22	3654.43
689.41	3545.89
689.599	3578.65
689.789	3564.32
689.979	3494.69
690.168	3623.71
690.358	3582.75
690.547	3595.04
690.737	3623.71
690.926	3533.6
691.116	3547.94
691.305	3580.7
691.495	3529.5
691.684	3349.28
691.874	3320.61
692.063	3502.88
692.252	3525.41
692.442	3339.04
692.631	3468.06
692.82	3443.49
693.01	3431.2
693.199	3232.55
693.388	3285.8
693.578	3334.95
693.767	3349.28
693.956	3496.74
694.146	3312.42
694.335	3257.12
694.524	3173.16
694.713	3283.75
694.902	3414.82
695.092	3263.27
695.281	3246.88
695.47	3197.73
695.659	3302.18
695.848	3081
696.037	3214.12
696.226	3201.83
696.415	3103.53
696.604	3267.36
696.793	3261.22
696.982	3199.78
697.171	3193.64
697.36	3152.68
697.549	3162.92
697.738	3054.37
697.927	3124.01
698.116	3169.06
698.305	3167.01
698.494	3154.73
698.683	3259.17
698.872	3124.01
699.061	3138.34
699.25	3087.14
699.438	3121.96
699.627	3044.13
699.816	3148.58
700.005	3103.53
700.193	3128.1
700.382	3181.35
700.571	3167.01
700.76	3091.24
700.948	3203.88
701.137	3097.38
701.326	3244.84
701.514	3132.2
701.703	3048.23
701.892	3095.33
702.08	3134.25
702.269	3107.62
702.457	3046.18
702.646	3001.13
702.834	3064.61
703.023	3019.56
703.212	3078.95
703.4	3029.8
703.589	3025.7
703.777	3101.48
703.965	3046.18
704.154	3017.51
704.342	3007.27
704.531	2994.98
704.719	2990.89
704.907	3009.32
705.096	3056.42
705.284	2978.6
705.472	3076.9
705.661	2949.93
705.849	3015.46
706.037	2956.07
706.226	2976.55
706.414	3164.97
706.602	3025.7
706.79	3070.76
706.979	3027.75
707.167	3013.42
707.355	3033.9
707.543	3013.42
707.731	3070.76
707.919	2982.7
708.107	3009.32
708.296	3029.8
708.484	3001.13
708.672	3001.13
708.86	2847.53
709.048	2974.5
709.236	3003.18
709.424	2943.78
709.612	2937.64
709.8	2865.96
709.988	2945.83
710.176	3054.37
710.364	2884.39
710.551	2814.76
710.739	2870.06
710.927	2949.93
711.115	2845.48
711.303	2870.06
711.491	2777.9
711.679	2863.91
711.866	2958.12
712.054	2904.87
712.242	2876.2
712.43	2913.06
712.617	2822.95
712.805	2820.91
712.993	2890.54
713.181	2904.87
713.368	2937.64
713.556	2833.19
713.744	2927.4
713.931	2939.69
714.119	2966.31
714.306	2949.93
714.494	2800.43
714.682	2908.97
714.869	2849.58
715.057	2960.17
715.244	2886.44
715.432	2829.1
715.619	2855.72
715.807	2884.39
715.994	2722.6
716.182	2921.26
716.369	2765.61
716.556	2837.29
716.744	2857.77
716.931	2798.38
717.119	2915.11
717.306	2884.39
717.493	2773.8
717.681	2812.71
717.868	2868.01
718.055	2777.9
718.242	2863.91
718.43	2794.28
718.617	2788.14
718.804	2845.48
718.991	2839.34
719.179	2773.8
719.366	2786.09
719.553	2702.12
719.74	2790.19
719.927	2825
720.114	2710.32
720.301	2818.86
720.488	2775.85
720.676	2784.04
720.863	2755.37
721.05	2792.23
721.237	2763.56
721.424	2814.76
721.611	2743.08
721.798	2763.56
721.985	2761.52
722.172	2798.38
722.358	2745.13
722.545	2736.94
722.732	2638.64
722.919	2734.89
723.106	2773.8
723.293	2773.8
723.48	2755.37
723.667	2745.13
723.853	2661.16
724.04	2814.76
724.227	2833.19
724.414	2732.84
724.6	2616.11
724.787	2802.47
724.974	2773.8
725.161	2769.71
725.347	2693.93
725.534	2655.02
725.72	2691.88
725.907	2736.94
726.094	2609.97
726.28	2763.56
726.467	2628.4
726.653	2564.91
726.84	2790.19
727.027	2882.35
727.213	2749.23
727.4	2650.92
727.586	2657.07
727.773	2761.52
727.959	2650.92
728.145	2753.32
728.332	2644.78
728.518	2669.36
728.705	2702.12
728.891	2614.06
729.077	2683.69
729.264	2591.53
729.45	2655.02
729.636	2601.77
729.823	2655.02
730.009	2575.15
730.195	2669.36
730.382	2745.13
730.568	2509.62
730.754	2743.08
730.94	2618.16
731.126	2738.99
731.313	2591.53
731.499	2675.5
731.685	2546.48
731.871	2634.54
732.057	2663.21
732.243	2685.74
732.429	2636.59
732.615	2708.27
732.801	2632.49
732.987	2769.71
733.173	2685.74
733.359	2632.49
733.545	2612.01
733.731	2581.29
733.917	2644.78
734.103	2618.16
734.289	2577.2
734.475	2605.87
734.661	2652.97
734.847	2591.53
735.033	2734.89
735.219	2624.3
735.404	2640.69
735.59	2755.37
735.776	2618.16
735.962	2671.4
736.148	2548.53
736.333	2409.26
736.519	2528.05
736.705	2593.58
736.89	2587.44
737.076	2474.8
737.262	2528.05
737.447	2556.72
737.633	2515.76
737.819	2618.16
738.004	2636.59
738.19	2577.2
738.375	2530.09
738.561	2532.14
738.747	2489.14
738.932	2581.29
739.118	2513.71
739.303	2480.94
739.489	2362.16
739.674	2556.72
739.859	2581.29
740.045	2491.18
740.23	2487.09
740.416	2417.46
740.601	2421.55
740.786	2444.08
740.972	2423.6
741.157	2433.84
741.342	2339.63
741.528	2655.02
741.713	2411.31
741.898	2380.59
742.084	2437.94
742.269	2405.17
742.454	2380.59
742.639	2349.87
742.824	2292.53
743.01	2419.5
743.195	2388.78
743.38	2327.35
743.565	2267.95
743.75	2349.87
743.935	2249.52
744.12	2237.24
744.305	2214.71
744.49	2210.61
744.675	2198.32
744.86	2188.08
745.045	2325.3
745.23	2206.52
745.415	2310.96
745.6	2140.98
745.785	2315.06
745.97	2165.56
746.155	2210.61
746.34	2210.61
746.525	2241.33
746.71	2196.28
746.895	2161.46
747.079	2075.45
747.264	2032.44
747.449	2102.07
747.634	2071.35
747.819	2026.29
748.003	1991.48
748.188	2024.25
748.373	2110.26
748.557	1882.94
748.742	2020.15
748.927	2030.39
749.111	1997.62
749.296	1884.98
749.481	2011.96
749.665	2016.05
749.85	1864.5
750.034	1932.09
750.219	1829.69
750.404	1950.52
750.588	1913.66
750.773	1790.78
750.957	1876.79
751.141	1825.59
751.326	1891.13
751.51	1882.94
751.695	1782.59
751.879	1796.92
752.064	1731.39
752.248	1805.11
752.432	1876.79
752.617	1764.15
752.801	1735.48
752.985	1600.32
753.17	1710.91
753.354	1708.86
753.538	1776.44
753.722	1674.04
753.907	1631.04
754.091	1669.95
754.275	1674.04
754.459	1618.75
754.643	1655.61
754.828	1649.47
755.012	1631.04
755.196	1538.88
755.38	1626.94
755.564	1624.89
755.748	1526.59
755.932	1559.36
756.116	1448.77
756.3	1383.23
756.484	1487.68
756.668	1452.86
756.852	1438.53
757.036	1444.67
757.22	1434.43
757.404	1446.72
757.588	1497.92
757.772	1436.48
757.956	1389.38
758.14	1502.01
758.323	1418.05
758.507	1407.81
758.691	1422.14
758.875	1385.28
759.059	1463.1
759.242	1385.28
759.426	1393.47
759.61	1391.42
759.794	1422.14
759.977	1385.28
760.161	1452.86
760.345	1403.71
760.528	1387.33
760.712	1282.88
760.895	1274.69
761.079	1299.27
761.263	1241.92
761.446	1334.08
761.63	1278.79
761.813	1254.21
761.997	1323.84
762.18	1227.59
762.364	1299.27
762.547	1215.3
762.731	1239.87
762.914	1237.83
763.098	1282.88
763.281	1215.3
763.464	1192.77
763.648	1192.77
763.831	1129.28
764.015	1194.82
764.198	1205.06
764.381	1065.8
764.564	1227.59
764.748	1117
764.931	1143.62
765.114	1153.86
765.297	1119.04
765.481	1084.23
765.664	1205.06
765.847	1053.51
766.03	1112.9
766.213	1106.76
766.397	1102.66
766.58	1131.33
766.763	1096.52
766.946	1137.48
767.129	1073.99
767.312	1137.48
767.495	1076.04
767.678	1039.17
767.861	1086.28
768.044	1139.52
768.227	1024.84
768.41	1037.13
768.593	1045.32
768.776	1024.84
768.959	1004.36
769.142	1014.6
769.324	1026.89
769.507	1012.55
769.69	934.73
769.873	1004.36
770.056	1024.84
770.239	1030.98
770.421	1033.03
770.604	1002.31
770.787	1033.03
770.97	1051.46
771.152	1010.5
771.335	893.77
771.518	936.78
771.7	1035.08
771.883	1037.13
772.066	1000.26
772.248	906.06
772.431	889.67
772.613	963.4
772.796	959.3
772.978	979.78
773.161	959.3
773.343	861
773.526	883.53
773.708	942.92
773.891	918.34
774.073	883.53
774.256	908.1
774.438	904.01
774.621	824.14
774.803	912.2
774.985	809.8
775.168	877.38
775.35	863.05
775.532	879.43
775.715	846.66
775.897	881.48
776.079	822.09
776.261	815.94
776.444	840.52
776.626	711.5
776.808	727.88
776.99	848.71
777.173	793.42
777.355	688.97
777.537	734.03
777.719	764.75
777.901	740.17
778.083	762.7
778.265	852.81
778.447	697.16
778.629	738.12
778.811	617.29
778.993	691.02
779.175	697.16
779.357	695.11
779.539	627.53
779.721	639.82
779.903	721.74
780.085	791.37
780.267	723.79
780.449	650.06
780.631	686.92
780.812	691.02
780.994	715.59
781.176	729.93
781.358	695.11
781.54	693.07
781.721	627.53
781.903	697.16
782.085	666.44
782.267	637.77
782.448	566.09
782.63	598.86
782.812	547.66
782.993	588.62
783.175	637.77
783.357	600.91
783.538	637.77
783.72	600.91
783.901	545.61
784.083	576.33
784.264	582.48
784.446	533.33
784.627	498.51
784.809	537.42
784.99	553.8
785.172	475.98
785.353	543.57
785.535	578.38
785.716	533.33
785.897	588.62
786.079	586.57
786.26	559.95
786.441	568.14
786.623	475.98
786.804	455.5
786.985	502.61
787.167	453.45
787.348	424.78
787.529	506.7
787.71	480.08
787.891	471.89
788.073	457.55
788.254	371.54
788.435	506.7
788.616	422.73
788.797	486.22
788.978	414.54
789.159	475.98
789.34	572.24
789.522	371.54
789.703	381.78
789.884	484.17
790.065	453.45
790.246	449.36
790.427	455.5
790.607	428.88
790.788	398.16
790.969	430.93
791.15	482.13
791.331	312.14
791.512	281.43
791.693	326.48
791.874	398.16
792.054	432.97
792.235	465.74
792.416	344.91
792.597	445.26
792.778	361.3
792.958	336.72
793.139	439.12
793.32	365.39
793.5	340.82
793.681	461.65
793.862	396.11
794.042	377.68
794.223	301.9
794.404	365.39
794.584	267.09
794.765	349.01
794.945	355.15
795.126	340.82
795.306	297.81
795.487	308.05
795.667	340.82
795.848	349.01
796.028	320.34
796.209	250.71
796.389	381.78
796.57	344.91
796.75	291.66
796.93	332.62
797.111	371.54
797.291	353.1
797.471	338.77
797.652	379.73
797.832	328.53
798.012	361.3
798.192	344.91
798.373	334.67
798.553	244.56
798.733	209.75
798.913	332.62
799.093	293.71
799.274	299.86
799.454	303.95
799.634	254.8
799.814	324.43
799.994	246.61
800.174	277.33
800.354	312.14
800.534	275.28
800.714	306
800.894	281.43
801.074	207.7
801.254	240.47
801.434	211.79
801.614	314.19
801.794	219.99
801.974	617.29
802.154	260.95
802.334	230.23
802.514	222.03
802.693	260.95
802.873	279.38
803.053	330.58
803.233	252.75
803.413	265.04
803.592	207.7
803.772	222.03
803.952	310.1
804.131	277.33
804.311	197.46
804.491	273.23
804.67	197.46
804.85	273.23
805.03	289.62
805.209	207.7
805.389	269.14
805.568	314.19
805.748	254.8
805.928	303.95
806.107	181.07
806.287	197.46
806.466	144.21
806.646	310.1
806.825	234.32
807.004	152.4
807.184	265.04
807.363	293.71
807.543	148.31
807.722	267.09
807.901	168.79
808.081	308.05
808.26	222.03
808.439	234.32
808.619	254.8
808.798	217.94
808.977	279.38
809.156	213.84
809.336	176.98
809.515	205.65
809.694	234.32
809.873	217.94
810.052	203.6
810.231	209.75
810.411	236.37
810.59	183.12
810.769	211.79
810.948	197.46
811.127	144.21
811.306	197.46
811.485	265.04
811.664	117.59
811.843	166.74
812.022	228.18
812.201	156.5
812.38	228.18
812.559	140.12
812.737	232.27
812.916	172.88
813.095	166.74
813.274	181.07
813.453	189.27
813.632	189.27
813.811	142.16
813.989	107.35
814.168	146.26
814.347	142.16
814.526	144.21
814.704	191.31
814.883	156.5
815.062	140.12
815.24	248.66
815.419	127.83
815.598	176.98
815.776	144.21
815.955	154.45
816.133	146.26
816.312	164.69
816.49	156.5
816.669	129.88
816.847	107.35
817.026	172.88
817.204	62.29
817.383	133.97
817.561	250.71
817.74	58.2
817.918	140.12
818.097	140.12
818.275	111.44
818.453	181.07
818.632	162.64
818.81	160.59
818.988	82.77
819.167	160.59
819.345	142.16
819.523	158.55
819.701	111.44
819.879	156.5
820.058	117.59
820.236	176.98
820.414	187.22
820.592	160.59
820.77	148.31
820.948	158.55
821.127	162.64
821.305	119.64
821.483	50
821.661	101.2
821.839	129.88
822.017	150.36
822.195	74.58
822.373	138.07
822.551	58.2
822.729	160.59
822.907	158.55
823.085	107.35
823.262	58.2
823.44	45.91
823.618	45.91
823.796	37.72
823.974	54.1
824.152	101.2
824.329	156.5
824.507	56.15
824.685	90.96
824.863	158.55
825.04	109.4
825.218	142.16
825.396	52.05
825.574	140.12
825.751	168.79
825.929	156.5
826.107	168.79
826.284	76.63
826.462	131.92
826.639	88.92
826.817	127.83
826.994	95.06
827.172	33.62
827.349	121.68
827.527	86.87
827.704	74.58
827.882	144.21
828.059	72.53
828.237	86.87
828.414	142.16
828.591	90.96
828.769	117.59
828.946	66.39
829.124	84.82
829.301	115.54
829.478	90.96
829.655	56.15
829.833	138.07
830.01	47.96
830.187	144.21
830.364	158.55
830.542	84.82
830.719	80.72
830.896	76.63
831.073	105.3
831.25	41.81
831.427	66.39
831.604	103.25
831.782	97.11
831.959	54.1
832.136	95.06
832.313	144.21
832.49	11.09
832.667	97.11
832.844	99.16
833.021	68.44
833.198	86.87
833.374	99.16
833.551	123.73
833.728	68.44
833.905	166.74
834.082	60.24
834.259	19.29
834.436	99.16
834.612	31.57
834.789	23.38
834.966	127.83
835.143	121.68
835.319	113.49
835.496	37.72
835.673	70.48
835.85	90.96
836.026	107.35
836.203	152.4
836.38	111.44
836.556	103.25
836.733	29.52
836.909	164.69
837.086	70.48
837.262	41.81
837.439	70.48
837.616	35.67
837.792	-5.29
837.968	37.72
838.145	-3.24
838.321	78.68
838.498	93.01
838.674	103.25
838.851	33.62
839.027	52.05
839.203	82.77
839.38	58.2
839.556	80.72
839.732	27.48
839.909	70.48
840.085	107.35
840.261	50
840.437	117.59
840.614	-25.77
840.79	47.96
840.966	43.86
841.142	45.91
841.318	-7.34
841.494	31.57
841.671	25.43
841.847	66.39
842.023	41.81
842.199	115.54
842.375	39.76
842.551	-7.34
842.727	74.58
842.903	76.63
843.079	86.87
843.255	37.72
843.431	27.48
843.607	74.58
843.783	70.48
843.959	82.77
844.134	43.86
844.31	23.38
844.486	52.05
844.662	52.05
844.838	19.29
845.013	78.68
845.189	97.11
845.365	27.48
845.541	0.85
845.716	2.9
845.892	66.39
846.068	93.01
846.244	64.34
846.419	31.57
846.595	-56.49
846.77	76.63
846.946	129.88
847.122	23.38
847.297	39.76
847.473	68.44
847.648	82.77
847.824	15.19
847.999	29.52
848.175	21.33
848.35	60.24
848.526	84.82
848.701	-33.96
848.876	9.05
849.052	64.34
849.227	13.14
849.403	99.16
849.578	62.29
849.753	54.1
849.929	0.85
850.104	37.72
850.279	7
850.454	-64.68
850.63	-5.29
850.805	58.2
850.98	41.81
851.155	11.09
851.33	50
851.505	70.48
851.681	125.78
851.856	21.33
852.031	82.77
852.206	25.43
852.381	37.72
852.556	74.58
852.731	-5.29
852.906	97.11
853.081	68.44
853.256	-9.39
853.431	25.43
853.606	41.81
853.781	-17.58
853.956	0.85
854.131	58.2
854.305	70.48
854.48	37.72
854.655	11.09
854.83	19.29
855.005	45.91
855.18	50
855.354	41.81
855.529	2.9
855.704	-11.43
855.879	70.48
856.053	15.19
856.228	47.96
856.403	-81.07
856.577	50
856.752	15.19
856.926	-52.39
857.101	-1.19
857.276	33.62
857.45	-3.24
857.625	54.1
857.799	15.19
857.974	80.72
858.148	-33.96
858.323	2.9
858.497	-17.58
858.672	0.85
858.846	-74.92
859.02	29.52
859.195	101.2
859.369	4.95
859.543	-7.34
859.718	0.85
859.892	29.52
860.066	21.33
860.241	25.43
860.415	43.86
860.589	33.62
860.763	54.1
860.938	-15.53
861.112	-17.58
861.286	35.67
861.46	19.29
861.634	-27.82
861.808	82.77
861.982	56.15
862.157	-3.24
862.331	47.96
862.505	2.9
862.679	-15.53
862.853	-11.43
863.027	66.39
863.201	70.48
863.375	23.38
863.549	15.19
863.722	-7.34
863.896	11.09
864.07	76.63
864.244	19.29
864.418	39.76
864.592	15.19
864.766	-25.77
864.939	72.53
865.113	29.52
865.287	64.34
865.461	41.81
865.634	-5.29
865.808	-38.06
865.982	90.96
866.156	-11.43
866.329	33.62
866.503	11.09
866.676	-9.39
866.85	-17.58
867.024	-29.87
867.197	33.62
867.371	43.86
867.544	66.39
867.718	-31.91
867.891	29.52
868.065	-33.96
868.238	-9.39
868.412	25.43
868.585	-9.39
868.759	78.68
868.932	-50.35
869.105	-19.63
869.279	23.38
869.452	19.29
869.625	29.52
869.799	11.09
869.972	4.95
870.145	9.05
870.319	-19.63
870.492	-25.77
870.665	11.09
870.838	-36.01
871.011	-46.25
871.185	25.43
871.358	19.29
871.531	33.62
871.704	7
871.877	-15.53
872.05	2.9
872.223	-7.34
872.396	31.57
872.569	52.05
872.742	-1.19
872.915	-38.06
873.088	-1.19
873.261	-48.3
873.434	31.57
873.607	-23.72
873.78	33.62
873.953	9.05
874.126	13.14
874.299	25.43
874.471	-42.15
874.644	-13.48
874.817	43.86
874.99	29.52
875.163	-36.01
875.335	56.15
875.508	-23.72
875.681	-11.43
875.853	-31.91
876.026	-33.96
876.199	-19.63
876.371	4.95
876.544	62.29
876.717	35.67
876.889	37.72
877.062	27.48
877.234	-31.91
877.407	-42.15
877.579	17.24
877.752	54.1
877.924	39.76
878.097	-25.77
878.269	7
878.442	25.43
878.614	103.25
878.786	33.62
878.959	7
879.131	13.14
879.303	-31.91
879.476	27.48
879.648	95.06
879.82	90.96
879.993	0.85
880.165	25.43
880.337	4.95
880.509	21.33
880.681	35.67
880.854	21.33
881.026	13.14
881.198	68.44
881.37	0.85
881.542	45.91
881.714	-40.11
881.886	11.09
882.058	76.63
882.23	11.09
882.402	17.24
882.574	-40.11
882.746	-101.55
882.918	-7.34
883.09	-72.87
883.262	4.95
883.434	-33.96
883.606	-29.87
883.778	13.14
883.95	23.38
884.122	-44.2
884.293	-9.39
884.465	2.9
884.637	9.05
884.809	37.72
884.98	-7.34
885.152	9.05
885.324	33.62
885.496	-3.24
885.667	9.05
885.839	-27.82
886.011	-44.2
886.182	35.67
886.354	-11.43
886.525	-70.83
886.697	41.81
886.869	58.2
887.04	58.2
887.212	60.24
887.383	-7.34
887.555	-40.11
887.726	19.29
887.897	-74.92
888.069	4.95
888.24	-40.11
888.412	29.52
888.583	13.14
888.754	-44.2
888.926	-7.34
889.097	-27.82
889.268	45.91
889.44	2.9
889.611	-42.15
889.782	17.24
889.953	0.85
890.125	13.14
890.296	-38.06
890.467	11.09
890.638	-31.91
890.809	-11.43
890.98	-105.64
891.151	-48.3
891.323	31.57
891.494	9.05
891.665	25.43
891.836	-29.87
892.007	-29.87
892.178	-17.58
892.349	41.81
892.52	33.62
892.691	-21.67
892.862	7
893.032	-50.35
893.203	-36.01
893.374	54.1
893.545	-11.43
893.716	15.19
893.887	21.33
894.057	74.58
894.228	-1.19
894.399	-7.34
894.57	35.67
894.74	-46.25
894.911	43.86
895.082	-60.59
895.253	2.9
895.423	68.44
895.594	7
895.764	45.91
895.935	4.95
896.106	31.57
896.276	-40.11
896.447	33.62
896.617	-54.44
896.788	-50.35
896.958	27.48
897.129	-19.63
897.299	-42.15
897.47	-11.43
897.64	4.95
897.81	-19.63
897.981	27.48
898.151	-7.34
898.322	21.33
898.492	15.19
898.662	-44.2
898.832	-19.63
899.003	37.72
899.173	-13.48
899.343	-56.49
899.513	-36.01
