Data from USB4F104151__267__11-12-04-892.txt Node

Date: Wed Mar 12 11:12:04 EDT 2025
User: louis
Spectrometer: USB4F10415
Trigger mode: 4
Integration Time (sec): 2.000000E-2
Scans to average: 1
Electric dark correction enabled: true
Nonlinearity correction enabled: false
Boxcar width: 0
XAxis mode: Wavelengths
Number of Pixels in Spectrum: 3648
>>>>>Begin Spectral Data<<<<<
178.204	-83.8
178.424	-83.8
178.644	-83.8
178.864	-53.08
179.084	-87.89
179.304	22.7
179.524	18.6
179.744	-3.93
179.964	-53.08
180.184	18.6
180.404	-3.93
180.624	2.22
180.844	10.41
181.064	-34.64
181.283	0.17
181.503	28.84
181.723	-5.97
181.943	12.46
182.163	53.42
182.383	26.79
182.602	92.33
182.822	34.99
183.042	16.55
183.262	-81.75
183.482	34.99
183.701	-30.55
183.921	41.13
184.141	69.8
184.361	28.84
184.58	-16.21
184.8	51.37
185.02	-30.55
185.239	45.23
185.459	24.75
185.679	59.56
185.898	6.31
186.118	49.32
186.338	24.75
186.557	39.08
186.777	0.17
186.997	-26.45
187.216	43.18
187.436	53.42
187.655	43.18
187.875	34.99
188.095	14.51
188.314	69.8
188.534	65.71
188.753	16.55
188.973	80.04
189.192	22.7
189.412	30.89
189.631	41.13
189.851	51.37
190.07	67.75
190.29	-42.84
190.509	57.51
190.729	-8.02
190.948	108.71
191.168	49.32
191.387	77.99
191.607	10.41
191.826	10.41
192.045	12.46
192.265	-16.21
192.484	49.32
192.704	47.27
192.923	-44.88
193.142	55.47
193.362	-57.17
193.581	26.79
193.8	-30.55
194.02	-12.12
194.239	73.9
194.458	37.03
194.678	32.94
194.897	86.19
195.116	-28.5
195.335	2.22
195.555	16.55
195.774	22.7
195.993	-8.02
196.212	28.84
196.432	37.03
196.651	41.13
196.87	-32.6
197.089	125.1
197.308	6.31
197.528	43.18
197.747	-5.97
197.966	49.32
198.185	57.51
198.404	14.51
198.623	108.71
198.842	-22.36
199.062	84.14
199.281	43.18
199.5	100.52
199.719	55.47
199.938	24.75
200.157	2.22
200.376	4.27
200.595	71.85
200.814	-26.45
201.033	61.61
201.252	-16.21
201.471	2.22
201.69	45.23
201.909	28.84
202.128	12.46
202.347	24.75
202.566	-40.79
202.785	12.46
203.004	10.41
203.223	118.95
203.442	37.03
203.661	0.17
203.879	30.89
204.098	12.46
204.317	-20.31
204.536	28.84
204.755	14.51
204.974	73.9
205.193	-20.31
205.411	-3.93
205.63	18.6
205.849	37.03
206.068	-3.93
206.287	26.79
206.505	-12.12
206.724	8.36
206.943	-28.5
207.162	16.55
207.381	-28.5
207.599	0.17
207.818	12.46
208.037	49.32
208.255	51.37
208.474	-22.36
208.693	-30.55
208.911	22.7
209.13	28.84
209.349	55.47
209.567	90.28
209.786	47.27
210.005	-24.4
210.223	61.61
210.442	0.17
210.661	47.27
210.879	47.27
211.098	43.18
211.316	73.9
211.535	55.47
211.753	16.55
211.972	32.94
212.191	-36.69
212.409	18.6
212.628	18.6
212.846	108.71
213.065	43.18
213.283	-16.21
213.502	20.65
213.72	-71.51
213.938	10.41
214.157	24.75
214.375	69.8
214.594	-34.64
214.812	24.75
215.031	71.85
215.249	71.85
215.467	34.99
215.686	39.08
215.904	-8.02
216.122	-8.02
216.341	77.99
216.559	45.23
216.778	0.17
216.996	10.41
217.214	82.09
217.432	28.84
217.651	6.31
217.869	2.22
218.087	20.65
218.306	30.89
218.524	-3.93
218.742	10.41
218.96	-5.97
219.179	24.75
219.397	41.13
219.615	-42.84
219.833	43.18
220.051	-38.74
220.27	80.04
220.488	45.23
220.706	4.27
220.924	51.37
221.142	61.61
221.36	43.18
221.578	86.19
221.796	10.41
222.015	73.9
222.233	28.84
222.451	94.38
222.669	108.71
222.887	4.27
223.105	96.43
223.323	-51.03
223.541	16.55
223.759	59.56
223.977	6.31
224.195	100.52
224.413	30.89
224.631	65.71
224.849	30.89
225.067	16.55
225.285	-18.26
225.503	12.46
225.721	-28.5
225.939	30.89
226.157	32.94
226.375	-1.88
226.592	30.89
226.81	51.37
227.028	24.75
227.246	86.19
227.464	49.32
227.682	71.85
227.9	0.17
228.117	18.6
228.335	53.42
228.553	45.23
228.771	34.99
228.989	-3.93
229.206	18.6
229.424	30.89
229.642	77.99
229.86	51.37
230.077	18.6
230.295	0.17
230.513	14.51
230.731	2.22
230.948	32.94
231.166	110.76
231.384	4.27
231.601	34.99
231.819	2.22
232.037	-12.12
232.254	112.81
232.472	-32.6
232.689	8.36
232.907	20.65
233.125	-14.17
233.342	51.37
233.56	-24.4
233.777	86.19
233.995	26.79
234.213	49.32
234.43	53.42
234.648	-8.02
234.865	22.7
235.083	-1.88
235.3	67.75
235.518	57.51
235.735	88.23
235.953	39.08
236.17	14.51
236.388	20.65
236.605	6.31
236.822	75.95
237.04	32.94
237.257	-24.4
237.475	-16.21
237.692	45.23
237.909	37.03
238.127	14.51
238.344	28.84
238.562	28.84
238.779	-20.31
238.996	26.79
239.214	-14.17
239.431	69.8
239.648	18.6
239.865	-22.36
240.083	16.55
240.3	30.89
240.517	49.32
240.735	53.42
240.952	53.42
241.169	118.95
241.386	20.65
241.603	49.32
241.821	45.23
242.038	39.08
242.255	55.47
242.472	24.75
242.689	12.46
242.907	45.23
243.124	49.32
243.341	2.22
243.558	4.27
243.775	37.03
243.992	-24.4
244.209	0.17
244.426	-12.12
244.643	108.71
244.86	16.55
245.078	90.28
245.295	49.32
245.512	59.56
245.729	57.51
245.946	55.47
246.163	110.76
246.38	53.42
246.597	32.94
246.814	-10.07
247.031	24.75
247.248	39.08
247.464	22.7
247.681	26.79
247.898	32.94
248.115	-16.21
248.332	10.41
248.549	-30.55
248.766	28.84
248.983	39.08
249.2	-3.93
249.417	47.27
249.633	-55.12
249.85	80.04
250.067	45.23
250.284	37.03
250.501	-5.97
250.717	32.94
250.934	34.99
251.151	41.13
251.368	34.99
251.585	28.84
251.801	-3.93
252.018	53.42
252.235	8.36
252.451	16.55
252.668	57.51
252.885	37.03
253.102	51.37
253.318	-40.79
253.535	-8.02
253.752	-10.07
253.968	39.08
254.185	63.66
254.401	0.17
254.618	53.42
254.835	28.84
255.051	73.9
255.268	28.84
255.484	34.99
255.701	53.42
255.917	59.56
256.134	12.46
256.351	116.9
256.567	37.03
256.784	30.89
257	-20.31
257.217	24.75
257.433	0.17
257.65	16.55
257.866	-38.74
258.082	-3.93
258.299	22.7
258.515	82.09
258.732	24.75
258.948	-71.51
259.165	-16.21
259.381	-34.64
259.597	43.18
259.814	39.08
260.03	12.46
260.246	88.23
260.463	20.65
260.679	34.99
260.895	51.37
261.112	18.6
261.328	41.13
261.544	4.27
261.761	39.08
261.977	39.08
262.193	-20.31
262.409	63.66
262.626	43.18
262.842	63.66
263.058	22.7
263.274	71.85
263.49	28.84
263.707	53.42
263.923	-28.5
264.139	-16.21
264.355	0.17
264.571	-10.07
264.787	75.95
265.004	65.71
265.22	24.75
265.436	-14.17
265.652	14.51
265.868	-10.07
266.084	-1.88
266.3	12.46
266.516	30.89
266.732	22.7
266.948	39.08
267.164	71.85
267.38	73.9
267.596	-8.02
267.812	55.47
268.028	49.32
268.244	8.36
268.46	30.89
268.676	-1.88
268.892	14.51
269.108	-73.56
269.324	47.27
269.54	98.47
269.756	18.6
269.972	-18.26
270.188	37.03
270.403	30.89
270.619	16.55
270.835	-1.88
271.051	73.9
271.267	-18.26
271.483	-14.17
271.698	47.27
271.914	30.89
272.13	112.81
272.346	2.22
272.562	24.75
272.777	110.76
272.993	37.03
273.209	-96.08
273.425	94.38
273.64	-28.5
273.856	53.42
274.072	47.27
274.287	-3.93
274.503	82.09
274.719	22.7
274.934	37.03
275.15	18.6
275.366	-22.36
275.581	-22.36
275.797	37.03
276.012	16.55
276.228	-20.31
276.444	6.31
276.659	147.62
276.875	32.94
277.09	37.03
277.306	43.18
277.521	45.23
277.737	59.56
277.952	82.09
278.168	10.41
278.383	84.14
278.599	61.61
278.814	39.08
279.03	24.75
279.245	20.65
279.461	61.61
279.676	41.13
279.892	22.7
280.107	20.65
280.322	-16.21
280.538	67.75
280.753	2.22
280.969	32.94
281.184	6.31
281.399	90.28
281.615	-22.36
281.83	59.56
282.045	26.79
282.26	0.17
282.476	53.42
282.691	45.23
282.906	28.84
283.122	59.56
283.337	106.67
283.552	61.61
283.767	65.71
283.983	12.46
284.198	4.27
284.413	39.08
284.628	-5.97
284.843	39.08
285.058	-8.02
285.274	41.13
285.489	24.75
285.704	49.32
285.919	-12.12
286.134	63.66
286.349	53.42
286.564	43.18
286.779	116.9
286.995	-8.02
287.21	39.08
287.425	110.76
287.64	-8.02
287.855	12.46
288.07	6.31
288.285	24.75
288.5	106.67
288.715	55.47
288.93	-3.93
289.145	39.08
289.36	6.31
289.575	20.65
289.79	32.94
290.004	-40.79
290.219	45.23
290.434	37.03
290.649	116.9
290.864	28.84
291.079	10.41
291.294	8.36
291.509	53.42
291.724	86.19
291.938	32.94
292.153	39.08
292.368	28.84
292.583	43.18
292.798	84.14
293.012	-22.36
293.227	4.27
293.442	-14.17
293.657	16.55
293.871	43.18
294.086	47.27
294.301	30.89
294.516	37.03
294.73	32.94
294.945	-30.55
295.16	-5.97
295.374	53.42
295.589	26.79
295.804	-28.5
296.018	0.17
296.233	63.66
296.447	14.51
296.662	-73.56
296.877	-3.93
297.091	43.18
297.306	-38.74
297.52	45.23
297.735	67.75
297.949	12.46
298.164	37.03
298.378	61.61
298.593	71.85
298.807	-3.93
299.022	63.66
299.236	26.79
299.451	41.13
299.665	45.23
299.88	-38.74
300.094	-18.26
300.309	30.89
300.523	20.65
300.737	-14.17
300.952	67.75
301.166	22.7
301.381	4.27
301.595	-8.02
301.809	-28.5
302.024	69.8
302.238	-1.88
302.452	30.89
302.667	2.22
302.881	53.42
303.095	6.31
303.309	-5.97
303.524	4.27
303.738	30.89
303.952	61.61
304.166	82.09
304.381	26.79
304.595	53.42
304.809	47.27
305.023	-34.64
305.237	47.27
305.452	-3.93
305.666	16.55
305.88	2.22
306.094	20.65
306.308	82.09
306.522	65.71
306.736	-40.79
306.95	-18.26
307.164	-8.02
307.379	55.47
307.593	20.65
307.807	57.51
308.021	26.79
308.235	118.95
308.449	55.47
308.663	-5.97
308.877	80.04
309.091	10.41
309.305	51.37
309.519	-57.17
309.733	82.09
309.947	57.51
310.161	53.42
310.374	114.86
310.588	32.94
310.802	26.79
311.016	43.18
311.23	61.61
311.444	6.31
311.658	47.27
311.872	24.75
312.085	106.67
312.299	0.17
312.513	98.47
312.727	69.8
312.941	69.8
313.154	26.79
313.368	75.95
313.582	34.99
313.796	53.42
314.009	73.9
314.223	77.99
314.437	59.56
314.651	30.89
314.864	8.36
315.078	2.22
315.292	-24.4
315.505	59.56
315.719	47.27
315.933	61.61
316.146	61.61
316.36	14.51
316.573	45.23
316.787	123.05
317.001	-5.97
317.214	-38.74
317.428	82.09
317.641	-57.17
317.855	6.31
318.068	-12.12
318.282	67.75
318.495	6.31
318.709	129.19
318.922	4.27
319.136	73.9
319.349	100.52
319.563	63.66
319.776	6.31
319.99	-26.45
320.203	32.94
320.417	8.36
320.63	49.32
320.843	102.57
321.057	59.56
321.27	37.03
321.483	28.84
321.697	61.61
321.91	69.8
322.124	49.32
322.337	100.52
322.55	24.75
322.763	57.51
322.977	-42.84
323.19	10.41
323.403	90.28
323.617	43.18
323.83	20.65
324.043	24.75
324.256	41.13
324.469	-3.93
324.683	80.04
324.896	45.23
325.109	71.85
325.322	-3.93
325.535	49.32
325.748	65.71
325.962	16.55
326.175	37.03
326.388	67.75
326.601	75.95
326.814	59.56
327.027	41.13
327.24	73.9
327.453	-16.21
327.666	65.71
327.879	67.75
328.092	84.14
328.305	129.19
328.518	32.94
328.731	82.09
328.944	73.9
329.157	28.84
329.37	61.61
329.583	39.08
329.796	118.95
330.009	10.41
330.222	-40.79
330.435	43.18
330.648	18.6
330.861	-36.69
331.073	20.65
331.286	12.46
331.499	30.89
331.712	104.62
331.925	16.55
332.138	80.04
332.35	129.19
332.563	24.75
332.776	16.55
332.989	-57.17
333.202	45.23
333.414	34.99
333.627	86.19
333.84	73.9
334.053	55.47
334.265	20.65
334.478	32.94
334.691	28.84
334.903	12.46
335.116	73.9
335.329	2.22
335.541	45.23
335.754	82.09
335.966	-38.74
336.179	26.79
336.392	55.47
336.604	-18.26
336.817	43.18
337.029	39.08
337.242	53.42
337.454	53.42
337.667	47.27
337.88	80.04
338.092	63.66
338.305	41.13
338.517	-12.12
338.729	67.75
338.942	71.85
339.154	49.32
339.367	104.62
339.579	4.27
339.792	63.66
340.004	12.46
340.217	55.47
340.429	82.09
340.641	43.18
340.854	4.27
341.066	28.84
341.278	98.47
341.491	53.42
341.703	18.6
341.915	32.94
342.128	37.03
342.34	55.47
342.552	61.61
342.764	43.18
342.977	-10.07
343.189	73.9
343.401	94.38
343.613	55.47
343.826	63.66
344.038	-20.31
344.25	92.33
344.462	110.76
344.674	80.04
344.886	-28.5
345.099	104.62
345.311	69.8
345.523	24.75
345.735	34.99
345.947	112.81
346.159	49.32
346.371	102.57
346.583	16.55
346.795	47.27
347.007	32.94
347.219	8.36
347.431	37.03
347.643	22.7
347.855	69.8
348.067	45.23
348.279	63.66
348.491	71.85
348.703	-14.17
348.915	53.42
349.127	0.17
349.339	16.55
349.551	59.56
349.763	-10.07
349.975	-18.26
350.187	47.27
350.399	55.47
350.61	86.19
350.822	65.71
351.034	-10.07
351.246	37.03
351.458	49.32
351.669	45.23
351.881	110.76
352.093	34.99
352.305	131.24
352.517	34.99
352.728	53.42
352.94	84.14
353.152	80.04
353.363	-26.45
353.575	86.19
353.787	20.65
353.999	26.79
354.21	26.79
354.422	14.51
354.633	8.36
354.845	30.89
355.057	57.51
355.268	28.84
355.48	37.03
355.692	32.94
355.903	45.23
356.115	0.17
356.326	4.27
356.538	67.75
356.749	67.75
356.961	37.03
357.172	4.27
357.384	4.27
357.595	43.18
357.807	37.03
358.018	10.41
358.23	65.71
358.441	102.57
358.653	49.32
358.864	98.47
359.075	75.95
359.287	82.09
359.498	90.28
359.709	-22.36
359.921	-10.07
360.132	55.47
360.344	51.37
360.555	-3.93
360.766	47.27
360.977	4.27
361.189	4.27
361.4	4.27
361.611	37.03
361.823	73.9
362.034	90.28
362.245	84.14
362.456	45.23
362.667	45.23
362.879	63.66
363.09	82.09
363.301	49.32
363.512	20.65
363.723	90.28
363.935	41.13
364.146	57.51
364.357	-3.93
364.568	34.99
364.779	-5.97
364.99	86.19
365.201	-87.89
365.412	96.43
365.623	-40.79
365.834	-22.36
366.045	30.89
366.256	0.17
366.467	30.89
366.678	53.42
366.889	55.47
367.1	71.85
367.311	53.42
367.522	20.65
367.733	147.62
367.944	57.51
368.155	104.62
368.366	90.28
368.577	51.37
368.788	94.38
368.999	10.41
369.209	49.32
369.42	77.99
369.631	145.58
369.842	75.95
370.053	53.42
370.264	-12.12
370.474	41.13
370.685	84.14
370.896	75.95
371.107	43.18
371.317	8.36
371.528	-94.04
371.739	71.85
371.95	-5.97
372.16	-5.97
372.371	8.36
372.582	80.04
372.792	-3.93
373.003	75.95
373.214	43.18
373.424	110.76
373.635	39.08
373.846	43.18
374.056	51.37
374.267	47.27
374.477	82.09
374.688	-32.6
374.898	34.99
375.109	73.9
375.319	102.57
375.53	67.75
375.74	61.61
375.951	-1.88
376.161	41.13
376.372	51.37
376.582	-42.84
376.793	-51.03
377.003	71.85
377.214	69.8
377.424	65.71
377.635	104.62
377.845	30.89
378.055	82.09
378.266	65.71
378.476	43.18
378.686	26.79
378.897	53.42
379.107	80.04
379.317	67.75
379.528	77.99
379.738	34.99
379.948	14.51
380.158	77.99
380.369	49.32
380.579	34.99
380.789	49.32
380.999	45.23
381.21	32.94
381.42	41.13
381.63	14.51
381.84	28.84
382.05	28.84
382.261	80.04
382.471	-8.02
382.681	37.03
382.891	47.27
383.101	86.19
383.311	-10.07
383.521	20.65
383.731	84.14
383.941	92.33
384.151	86.19
384.361	41.13
384.571	61.61
384.781	32.94
384.991	112.81
385.201	80.04
385.411	88.23
385.621	55.47
385.831	41.13
386.041	18.6
386.251	92.33
386.461	57.51
386.671	80.04
386.881	16.55
387.091	82.09
387.301	20.65
387.511	92.33
387.72	12.46
387.93	-3.93
388.14	-14.17
388.35	88.23
388.56	53.42
388.769	77.99
388.979	-12.12
389.189	118.95
389.399	112.81
389.609	108.71
389.818	8.36
390.028	-3.93
390.238	77.99
390.447	28.84
390.657	127.14
390.867	82.09
391.076	106.67
391.286	67.75
391.496	84.14
391.705	41.13
391.915	127.14
392.125	75.95
392.334	20.65
392.544	61.61
392.753	90.28
392.963	96.43
393.172	59.56
393.382	39.08
393.591	94.38
393.801	-22.36
394.01	147.62
394.22	88.23
394.429	37.03
394.639	71.85
394.848	67.75
395.058	22.7
395.267	30.89
395.477	69.8
395.686	45.23
395.895	88.23
396.105	168.1
396.314	41.13
396.524	151.72
396.733	53.42
396.942	96.43
397.152	121
397.361	127.14
397.57	123.05
397.78	49.32
397.989	73.9
398.198	166.06
398.407	135.34
398.617	55.47
398.826	61.61
399.035	24.75
399.244	43.18
399.453	98.47
399.663	100.52
399.872	137.38
400.081	161.96
400.29	86.19
400.499	80.04
400.708	73.9
400.917	104.62
401.127	102.57
401.336	61.61
401.545	88.23
401.754	110.76
401.963	84.14
402.172	116.9
402.381	51.37
402.59	96.43
402.799	102.57
403.008	69.8
403.217	143.53
403.426	143.53
403.635	86.19
403.844	92.33
404.053	155.82
404.262	77.99
404.471	151.72
404.68	88.23
404.888	108.71
405.097	94.38
405.306	116.9
405.515	166.06
405.724	145.58
405.933	239.78
406.142	157.86
406.35	155.82
406.559	143.53
406.768	166.06
406.977	172.2
407.185	225.45
407.394	172.2
407.603	112.81
407.812	200.87
408.02	186.54
408.229	184.49
408.438	229.54
408.646	155.82
408.855	209.06
409.064	254.12
409.272	172.2
409.481	260.26
409.69	235.69
409.898	258.21
410.107	209.06
410.315	278.69
410.524	262.31
410.733	286.89
410.941	303.27
411.15	299.17
411.358	368.81
411.567	413.86
411.775	299.17
411.984	389.28
412.192	358.57
412.401	356.52
412.609	370.85
412.818	473.25
413.026	426.15
413.234	452.77
413.443	454.82
413.651	491.68
413.86	536.74
414.068	536.74
414.276	618.66
414.485	553.12
414.693	594.08
414.901	647.33
415.11	602.27
415.318	565.41
415.526	577.7
415.734	635.04
415.943	721.06
416.151	749.73
416.359	712.86
416.567	725.15
416.776	815.26
416.984	854.17
417.192	874.65
417.4	800.93
417.608	870.56
417.817	831.65
418.025	946.33
418.233	1007.77
418.441	942.24
418.649	999.58
418.857	1048.73
419.065	1175.7
419.273	1165.46
419.481	1245.34
419.689	1239.19
419.897	1335.45
420.105	1333.4
420.313	1263.77
420.521	1380.5
420.729	1446.04
420.937	1429.65
421.145	1497.24
421.353	1644.69
421.561	1634.45
421.769	1663.12
421.977	1808.53
422.185	1763.47
422.393	1910.93
422.601	1888.4
422.809	2080.91
423.017	1988.75
423.224	2031.76
423.432	2271.37
423.64	2203.79
423.848	2367.62
424.056	2287.75
424.263	2490.5
424.471	2408.58
424.679	2508.93
424.887	2666.63
425.094	2584.71
425.302	2664.58
425.51	2820.22
425.718	2844.8
425.925	2961.53
426.133	3000.44
426.341	3188.86
426.548	3364.98
426.756	3354.74
426.964	3410.04
427.171	3747.95
427.379	3696.75
427.586	3805.3
427.794	3833.97
428.001	4034.67
428.209	4169.84
428.417	4157.55
428.624	4429.93
428.832	4448.36
429.039	4434.02
429.247	4526.18
429.454	4956.26
429.662	5154.91
429.869	4767.84
430.076	5324.89
430.284	5042.27
430.491	5193.82
430.699	5589.08
430.906	5490.77
431.114	5742.68
431.321	6027.34
431.528	5902.42
431.736	6221.9
431.943	6717.51
432.15	6481.99
432.358	6553.67
432.565	6711.36
432.772	6686.79
432.979	7301.18
433.187	7340.09
433.394	7288.89
433.601	7798.84
433.808	8054.83
434.016	7893.04
434.223	8013.87
434.43	8691.75
434.637	8523.82
434.844	8978.47
435.052	9107.49
435.259	9044
435.466	9220.13
435.673	8998.95
435.88	9803.8
436.087	10049.55
436.294	10076.18
436.501	9990.16
436.708	10237.97
436.915	10395.66
437.122	11089.92
437.329	10858.5
437.537	11266.05
437.743	11485.18
437.95	11356.16
438.157	12074.99
438.364	12265.46
438.571	12382.19
438.778	12398.57
438.985	13891.54
439.192	12992.48
439.399	13531.1
439.606	13131.75
439.813	13793.24
440.02	14888.9
440.227	14219.22
440.433	14249.94
440.64	14868.42
440.847	14727.11
441.054	14893
441.261	16048.05
441.467	15959.99
441.674	16465.84
441.881	16713.64
442.088	16705.45
442.294	16431.02
442.501	17094.57
442.708	17706.91
442.914	18036.63
443.121	18587.54
443.328	17856.41
443.534	19545.98
443.741	18886.54
443.948	18724.75
444.154	20207.48
444.361	19756.93
444.568	20160.38
444.774	20033.4
444.981	20152.18
445.187	21198.7
445.394	21780.32
445.6	21544.8
445.807	23797.57
446.013	22568.79
446.22	22916.94
446.426	23695.17
446.633	23832.38
446.839	24962.86
447.046	23680.83
447.252	25138.99
447.459	25024.3
447.665	24966.96
447.871	26068.76
448.078	27211.53
448.284	26019.61
448.491	26517.27
448.697	27639.56
448.903	28358.39
449.11	27940.61
449.316	27748.1
449.522	28063.49
449.728	28679.93
449.935	29169.39
450.141	29107.95
450.347	30037.73
450.553	28659.45
450.76	29099.76
450.966	29732.58
451.172	30002.91
451.378	30514.91
451.584	30023.39
451.791	30668.5
451.997	30285.53
452.203	30969.55
452.409	31190.73
452.615	30717.65
452.821	30117.6
453.027	29546.22
453.233	31037.14
453.44	29816.55
453.646	30074.59
453.852	30265.05
454.058	30957.27
454.264	29492.97
454.47	30078.69
454.676	29564.65
454.882	30674.65
455.088	28122.88
455.294	28428.02
455.5	28854
455.705	28784.37
455.911	27989.76
456.117	27158.28
456.323	26613.52
456.529	25356.07
456.735	26474.26
456.941	25845.54
457.147	25360.17
457.352	24547.12
457.558	24561.46
457.764	24596.28
457.97	24125.24
458.176	23365.45
458.381	23482.18
458.587	22556.5
458.793	22622.03
458.999	21217.13
459.204	22357.85
459.41	22081.37
459.616	20561.78
459.821	20621.17
460.027	20735.85
460.233	19945.34
460.438	18950.03
460.644	19376
460.85	18442.13
461.055	18116.5
461.261	18343.83
461.466	16881.58
461.672	16201.65
461.878	17485.73
462.083	16480.18
462.289	16093.11
462.494	15734.71
462.7	15138.76
462.905	14768.07
463.111	15130.56
463.316	15378.37
463.522	15083.46
463.727	15046.6
463.932	15128.52
464.138	14739.4
464.343	14827.46
464.549	14274.51
464.754	15138.76
464.959	14825.42
465.165	14555.08
465.37	14061.52
465.575	13713.37
465.781	14131.16
465.986	14342.1
466.191	13715.42
466.397	13469.66
466.602	12896.23
466.807	13627.35
467.012	13430.75
467.218	13412.32
467.423	13109.22
467.628	13244.38
467.833	13922.26
468.038	13346.78
468.244	13015.01
468.449	13524.96
468.654	12959.72
468.859	12916.71
469.064	12847.08
469.269	12283.89
469.474	12480.49
469.679	12537.84
469.885	12343.28
470.09	12439.53
470.295	12384.24
470.5	12015.6
470.705	12175.34
470.91	11845.62
471.115	11831.29
471.32	11952.12
471.525	11778.04
471.73	11663.35
471.935	11511.8
472.139	11102.21
472.344	11462.65
472.549	11120.64
472.754	10897.41
472.959	10844.17
473.164	10539.02
473.369	10575.88
473.574	10862.6
473.778	10936.32
473.983	10635.27
474.188	10584.07
474.393	10008.59
474.598	10178.58
474.802	10186.77
475.007	10070.03
475.212	10088.46
475.417	9697.3
475.621	9676.82
475.826	9580.57
476.031	9541.66
476.235	9410.59
476.44	9527.32
476.645	9271.33
476.849	9277.47
477.054	8996.9
477.259	9101.34
477.463	9087.01
477.668	8900.64
477.872	8964.13
478.077	8650.79
478.282	8554.54
478.486	8579.11
478.691	8554.54
478.895	8534.06
479.1	8458.28
479.304	8302.64
479.509	8075.31
479.713	8304.68
479.918	8177.71
480.122	8077.36
480.326	8159.28
480.531	8306.73
480.735	8146.99
480.94	7895.09
481.144	8022.06
481.348	7827.51
481.553	8056.88
481.757	7755.83
481.961	7985.2
482.166	8011.82
482.37	7897.14
482.574	7753.78
482.778	7854.13
482.983	7977.01
483.187	7977.01
483.391	7768.12
483.595	7882.8
483.8	7546.94
484.004	7796.79
484.208	7835.7
484.412	7737.4
484.616	7790.64
484.821	7804.98
485.025	7684.15
485.229	7651.38
485.433	7671.86
485.637	7747.64
485.841	7731.25
486.045	7639.09
486.249	7761.97
486.453	7751.73
486.657	7696.44
486.861	7927.86
487.065	7663.67
487.269	7749.68
487.473	7688.25
487.677	7794.74
487.881	7835.7
488.085	7614.52
488.289	7866.42
488.493	7745.59
488.697	7893.04
488.901	7977.01
489.105	7733.3
489.309	7890.99
489.512	7979.06
489.716	7780.4
489.92	7835.7
490.124	7890.99
490.328	8126.51
490.531	7866.42
490.735	8063.02
490.939	8028.21
491.143	8032.3
491.346	7915.57
491.55	8136.75
491.754	8007.73
491.958	8116.27
492.161	7977.01
492.365	8347.69
492.569	8183.85
492.772	8265.77
492.976	8271.92
493.18	8233.01
493.383	8476.71
493.587	8431.66
493.79	8425.51
493.994	8429.61
494.197	8423.47
494.401	8579.11
494.605	8370.22
494.808	8640.55
495.012	8704.04
495.215	8960.03
495.419	8906.79
495.622	8785.96
495.825	9058.34
496.029	9105.44
496.232	9277.47
496.436	9039.9
496.639	9213.98
496.843	9392.16
497.046	9642.01
497.249	9502.75
497.453	9730.07
497.656	9754.65
497.859	9789.46
498.063	9809.94
498.266	10182.67
498.469	10147.86
498.673	10256.4
498.876	10309.65
499.079	10344.46
499.282	10418.19
499.485	10696.71
499.689	10616.84
499.892	10723.34
500.095	10909.7
500.298	11083.78
500.501	10831.88
500.705	11231.23
500.908	11575.29
501.111	11636.73
501.314	11755.51
501.517	11888.63
501.72	11741.18
501.923	11851.77
502.126	12255.22
502.329	12361.71
502.532	12212.21
502.735	12222.45
502.938	12646.38
503.141	12728.3
503.344	12924.9
503.547	12875.75
503.75	13103.07
503.953	13072.36
504.156	13307.87
504.359	13627.35
504.562	13699.03
504.765	13799.38
504.968	14006.23
505.17	14157.78
505.373	14202.83
505.576	14262.23
505.779	14845.9
505.982	14688.2
506.185	14626.76
506.387	15179.72
506.59	15351.74
506.793	15198.15
506.996	15335.36
507.198	15650.75
507.401	15542.21
507.604	16089.01
507.807	16324.53
508.009	16306.1
508.212	16361.39
508.415	16465.84
508.617	16736.17
508.82	16809.9
509.022	16721.84
509.225	17436.58
509.428	17596.32
509.63	17680.28
509.833	17612.7
510.035	18007.96
510.238	17999.77
510.44	18202.52
510.643	18429.84
510.845	18556.82
511.048	18511.76
511.25	18909.07
511.453	18745.23
511.655	19636.1
511.858	19330.95
512.06	19560.32
512.262	19736.45
512.465	19871.61
512.667	20146.04
512.87	20344.69
513.072	20305.78
513.274	20459.38
513.477	20830.06
513.679	20942.7
513.881	21288.81
514.084	21444.45
514.286	21368.68
514.488	21673.82
514.69	22351.7
514.893	22419.28
515.095	22355.8
515.297	22554.45
515.499	22665.04
515.701	22845.26
515.904	23308.1
516.106	23234.38
516.308	23678.79
516.51	24170.3
516.712	23990.08
516.914	24069.95
517.116	24557.36
517.318	24590.13
517.52	24774.45
517.722	24688.43
517.925	25016.11
518.127	25646.88
518.329	25605.92
518.531	25863.97
518.733	26148.64
518.935	26003.23
519.136	26511.13
519.338	26621.72
519.54	26533.65
519.742	26933.01
519.944	27076.37
520.146	27344.65
520.348	27805.44
520.55	27862.79
520.752	27688.71
520.954	28411.64
521.155	28008.19
521.357	28509.94
521.559	29021.94
521.761	29214.44
521.963	29118.19
522.164	29243.12
522.366	29638.37
522.568	29783.78
522.77	30082.78
522.971	30379.74
523.173	30070.5
523.375	30230.24
523.576	30656.21
523.778	30631.64
523.98	30949.07
524.181	31411.92
524.383	31295.18
524.584	31594.18
524.786	31602.38
524.988	31321.8
525.189	32077.51
525.391	31962.82
525.592	32530.11
525.794	32450.24
525.995	32640.7
526.197	32564.92
526.398	32683.7
526.6	33109.68
526.801	33035.95
527.003	32804.53
527.204	32837.3
527.406	33437.36
527.607	33291.95
527.808	33527.47
528.01	33447.6
528.211	33244.85
528.412	34250.4
528.614	33920.68
528.815	34242.21
529.016	34238.11
529.218	33633.96
529.419	34414.24
529.62	34465.44
529.822	34049.7
530.023	34176.67
530.224	34457.24
530.425	34465.44
530.626	34399.9
530.828	34205.34
531.029	34926.23
531.23	34449.05
531.431	34907.8
531.632	34944.66
531.833	34965.14
532.035	34725.53
532.236	35190.42
532.437	35253.9
532.638	34739.86
532.839	35096.21
533.04	35405.45
533.241	34950.81
533.442	35845.77
533.643	35327.63
533.844	35053.2
534.045	35405.45
534.246	34893.46
534.447	35237.52
534.648	35083.92
534.849	35309.2
535.05	35214.99
535.251	35296.91
535.451	35362.45
535.652	35309.2
535.853	35632.78
536.054	35755.66
536.255	35804.81
536.456	35128.98
536.657	35927.69
536.857	35460.75
537.058	35075.73
537.259	35860.1
537.46	35436.17
537.66	35264.14
537.861	35755.66
538.062	35485.33
538.263	35526.28
538.463	34967.19
538.664	35397.26
538.865	35587.72
539.065	35792.52
539.266	35286.67
539.466	35366.54
539.667	35079.83
539.868	35692.17
540.068	35479.18
540.269	35247.76
540.469	35219.09
540.67	35247.76
540.87	35610.25
541.071	35409.55
541.271	35305.1
541.472	35251.86
541.672	35372.69
541.873	34909.85
542.073	34809.5
542.274	35542.67
542.474	35448.46
542.675	34948.76
542.875	35571.34
543.075	35315.34
543.276	34983.57
543.476	35413.65
543.676	35169.94
543.877	35266.19
544.077	35014.29
544.277	35075.73
544.478	35237.52
544.678	35204.75
544.878	34913.94
545.078	34979.48
545.279	34821.78
545.479	34875.03
545.679	35083.92
545.879	35317.39
546.079	35188.37
546.28	34959
546.48	34584.22
546.68	35122.83
546.88	35133.07
547.08	34756.25
547.28	34803.35
547.48	34485.92
547.68	34711.19
547.88	34553.5
548.081	35333.78
548.281	35278.48
548.481	34913.94
548.681	35260.05
548.881	35040.92
549.081	34881.17
549.28	35042.96
549.48	35264.14
549.68	34825.88
549.88	35448.46
550.08	34780.82
550.28	34791.06
550.48	34459.29
550.68	35157.65
550.88	34760.34
551.08	34932.37
551.279	34625.18
551.479	34444.96
551.679	34748.06
551.879	34674.33
552.079	35128.98
552.278	34520.73
552.478	34549.4
552.678	34739.86
552.878	35059.35
553.077	34506.4
553.277	34397.85
553.477	35014.29
553.676	34469.53
553.876	34723.48
554.076	34528.92
554.275	34436.77
554.475	34127.52
554.674	34481.82
554.874	34248.35
555.074	34252.45
555.273	34496.16
555.473	34240.16
555.672	34164.39
555.872	34168.48
556.071	34377.37
556.271	34506.4
556.47	34133.67
556.67	34121.38
556.869	34141.86
557.068	34158.24
557.268	33502.89
557.467	34246.3
557.667	33828.52
557.866	34141.86
558.065	33748.65
558.265	33693.35
558.464	33291.95
558.663	34104.99
558.863	32913.08
559.062	33762.98
559.261	33179.31
559.461	33814.18
559.66	32884.4
559.859	33429.16
560.058	32814.77
560.258	33357.49
560.457	32972.47
560.656	33750.7
560.855	32976.56
561.054	33119.92
561.253	32401.08
561.453	32917.17
561.652	32884.4
561.851	33173.17
562.05	32595.64
562.249	32353.98
562.448	32990.9
562.647	32868.02
562.846	32564.92
563.045	32474.81
563.244	31999.68
563.443	32585.4
563.642	31876.8
563.841	32188.1
564.04	31848.13
564.239	32843.45
564.438	32028.35
564.637	31973.06
564.836	31887.04
565.035	31669.96
565.234	32020.16
565.432	31733.45
565.631	31882.95
565.83	31678.15
566.029	31760.07
566.228	31676.1
566.427	31418.06
566.625	31157.97
566.824	30961.36
567.023	31299.28
567.222	30650.07
567.42	31569.61
567.619	30959.31
567.818	30815.96
568.016	30709.46
568.215	30875.35
568.414	30867.16
568.612	31186.64
568.811	30674.65
569.01	30519
569.208	30666.45
569.407	30650.07
569.605	30312.16
569.804	30564.06
570.002	30228.19
570.201	30258.91
570.4	30033.63
570.598	29980.39
570.797	29912.8
570.995	29955.81
571.193	29599.46
571.392	29744.87
571.59	29626.09
571.789	29376.23
571.987	29636.33
572.186	29525.74
572.384	29179.63
572.582	29097.71
572.781	29327.08
572.979	28870.39
573.177	29296.36
573.376	29271.79
573.574	29136.62
573.772	28786.42
573.971	28634.87
574.169	28483.32
574.367	27961.09
574.565	28589.81
574.763	28110.59
574.962	28616.44
575.16	28372.73
575.358	28249.85
575.556	28077.82
575.754	28503.8
575.952	28040.96
576.151	28057.34
576.349	27793.15
576.547	27754.24
576.745	27762.44
576.943	27924.22
577.141	27623.17
577.339	27660.04
577.537	27682.56
577.735	27555.59
577.933	27330.31
578.131	27768.58
578.329	27342.6
578.527	27404.04
578.725	27102.99
578.923	27322.12
579.121	26969.87
579.319	26967.82
579.516	27272.97
579.714	26865.42
579.912	26654.48
580.11	26793.75
580.308	26535.7
580.506	26527.51
580.704	26099.48
580.901	26574.61
581.099	26382.1
581.297	26068.76
581.495	26160.92
581.692	26400.54
581.89	26027.81
582.088	26062.62
582.285	25667.36
582.483	25984.8
582.681	25902.88
582.878	25671.46
583.076	25818.91
583.274	25782.05
583.471	25462.57
583.669	25825.06
583.866	25392.94
584.064	25530.15
584.262	24936.24
584.459	25212.71
584.657	25014.06
584.854	25235.24
585.052	24842.03
585.249	25069.36
585.447	24913.71
585.644	24682.29
585.841	24801.07
586.039	25001.77
586.236	24500.02
586.434	24596.28
586.631	24463.16
586.828	24391.48
587.026	24366.9
587.223	24424.25
587.42	24051.52
587.618	24084.28
587.815	23758.66
588.012	23754.56
588.21	24047.42
588.407	24016.7
588.604	23777.09
588.801	23656.26
588.999	23576.39
589.196	23490.37
589.393	23912.25
589.59	23465.8
589.787	23539.52
589.984	23377.73
590.182	23197.51
590.379	23279.43
590.576	23043.92
590.773	23226.18
590.97	22785.87
591.167	22990.67
591.364	22697.81
591.561	23017.29
591.758	22763.34
591.955	22624.08
592.152	22910.8
592.349	22673.23
592.546	22892.37
592.743	22144.86
592.94	21948.25
593.137	22617.94
593.334	22435.67
593.531	22114.14
593.727	22046.55
593.924	21784.41
594.121	21704.54
594.318	21954.4
594.515	21460.84
594.712	22298.45
594.908	21735.26
595.105	21690.21
595.302	21532.51
595.499	21593.95
595.696	21456.74
595.892	21432.16
596.089	21555.04
596.286	21542.75
596.482	21104.49
596.679	21094.25
596.876	21307.24
597.072	21084.01
597.269	21196.65
597.466	20799.34
597.662	20828.01
597.859	20989.8
598.055	20721.52
598.252	20848.49
598.448	20854.64
598.645	20572.02
598.841	20352.88
599.038	20754.29
599.234	20426.61
599.431	20184.95
599.627	20090.74
599.824	20492.15
600.02	20000.63
600.217	20162.42
600.413	20115.32
600.609	19949.43
600.806	20084.6
601.002	20082.55
601.198	19609.47
601.395	19533.7
601.591	19507.07
601.787	19775.36
601.984	19275.65
602.18	19359.62
602.376	19333
602.572	19365.76
602.769	19355.52
602.965	19273.6
603.161	19322.76
603.357	19193.73
603.553	19003.27
603.75	18947.98
603.946	18964.36
604.142	19107.72
604.338	18816.91
604.534	18784.14
604.73	18493.33
604.926	18646.93
605.122	18816.91
605.318	18548.62
605.514	18565.01
605.71	18198.42
605.906	18425.75
606.102	18311.06
606.298	18380.69
606.494	18268.05
606.69	18130.84
606.886	18392.98
607.082	18063.26
607.278	18282.39
607.474	17885.08
607.67	18067.35
607.866	17733.53
608.062	18161.56
608.257	17848.22
608.453	18134.93
608.649	17741.72
608.845	17651.61
609.041	18032.54
609.236	17414.05
609.432	17819.55
609.628	17837.98
609.824	17571.74
610.019	17596.32
610.215	17455.01
610.411	17682.33
610.606	17180.58
610.802	17407.91
610.998	17465.25
611.193	17491.87
611.389	17399.71
611.584	17262.5
611.78	17217.44
611.976	17438.62
612.171	17260.45
612.367	17127.33
612.562	17024.93
612.758	16869.29
612.953	16783.27
613.149	16914.34
613.344	16844.71
613.539	17143.72
613.735	17072.04
613.93	16783.27
614.126	16629.68
614.321	17010.6
614.517	16760.75
614.712	16859.05
614.907	16758.7
615.103	16502.7
615.298	16498.61
615.493	16666.54
615.688	16590.77
615.884	16707.5
616.079	16478.13
616.274	16564.14
616.47	16193.46
616.665	16480.18
616.86	16158.64
617.055	16215.99
617.25	16340.91
617.445	16385.97
617.641	15857.59
617.836	16310.19
618.031	15984.57
618.226	16156.6
618.421	16080.82
618.616	16007.09
618.811	15744.95
619.006	16070.58
619.201	15826.87
619.396	15935.42
619.591	15380.42
619.786	15742.91
619.981	15450.05
620.176	15630.27
620.371	15310.79
620.566	15415.23
620.761	15318.98
620.956	15413.18
621.151	14905.29
621.346	15235.01
621.541	14831.56
621.735	15237.06
621.93	14737.35
622.125	14714.83
622.32	14729.16
622.515	15019.97
622.709	14745.55
622.904	14548.94
623.099	14710.73
623.294	14620.62
623.488	14204.88
623.683	14239.7
623.878	14305.23
624.072	13985.75
624.267	14149.59
624.462	14032.85
624.656	13795.29
624.851	13651.93
625.046	13656.03
625.24	13774.81
625.435	13467.61
625.629	13447.13
625.824	13414.37
626.018	13553.63
626.213	13160.42
626.407	13379.55
626.602	13258.72
626.796	13232.1
626.991	12816.36
627.185	12955.62
627.38	12697.58
627.574	12875.75
627.768	12814.31
627.963	12535.79
628.157	12462.06
628.352	12509.16
628.546	12589.03
628.74	12562.41
628.935	12423.15
629.129	12455.92
629.323	12224.5
629.517	12234.74
629.712	12064.75
629.906	12152.82
630.1	11788.28
630.294	11905.01
630.489	11747.32
630.683	11925.49
630.877	11653.11
631.071	11757.56
631.265	11679.74
631.459	11354.11
631.653	11472.89
631.848	11411.45
632.042	11235.33
632.236	11356.16
632.43	11345.92
632.624	11345.92
632.818	11036.67
633.012	11216.9
633.206	10893.32
633.4	11137.02
633.594	10797.06
633.788	10950.66
633.982	10889.22
634.176	10960.9
634.369	10711.05
634.563	10647.56
634.757	10688.52
634.951	10600.46
635.145	10573.83
635.339	10469.39
635.533	10387.47
635.726	10307.6
635.92	10160.14
636.114	10262.54
636.308	10102.8
636.501	10098.7
636.695	9908.24
636.889	10049.55
637.083	10086.42
637.276	9859.09
637.47	9760.79
637.664	9658.39
637.857	9746.45
638.051	9738.26
638.244	9623.58
638.438	9703.45
638.632	9588.76
638.825	9660.44
639.019	9361.44
639.212	9302.04
639.406	9283.61
639.599	9295.9
639.793	9402.4
639.986	9230.37
640.18	9256.99
640.373	9244.7
640.567	9017.38
640.76	8962.08
640.954	9183.26
641.147	8953.89
641.34	9039.9
641.534	9044
641.727	8847.4
641.92	8747.05
642.114	8695.85
642.307	8847.4
642.5	8583.21
642.694	8532.01
642.887	8429.61
643.08	8595.5
643.273	8556.58
643.467	8269.87
643.66	8233.01
643.853	8316.97
644.046	8167.47
644.239	8359.98
644.432	8273.96
644.626	7925.81
644.819	8060.98
645.012	8058.93
645.205	7987.25
645.398	7995.44
645.591	7874.61
645.784	7995.44
645.977	7684.15
646.17	7864.37
646.363	7800.88
646.556	7702.58
646.749	7759.92
646.942	7530.55
647.135	7624.76
647.328	7499.83
647.521	7520.31
647.714	7440.44
647.907	7276.6
648.099	7262.27
648.292	7315.52
648.485	7268.41
648.678	7178.3
648.871	7174.21
649.064	7174.21
649.256	7204.92
649.449	7045.18
649.642	7030.85
649.835	7006.27
650.027	6924.35
650.22	7145.53
650.413	6928.45
650.605	7022.66
650.798	6977.6
650.991	6713.41
651.183	6811.71
651.376	6672.45
651.568	6813.76
651.761	6711.36
651.954	6676.55
652.146	6727.75
652.339	6602.82
652.531	6574.15
652.724	6668.36
652.916	6219.85
653.109	6434.89
653.301	6520.9
653.494	6291.53
653.686	6316.11
653.879	6369.35
654.071	6256.72
654.263	6273.1
654.456	6205.52
654.648	6287.43
654.84	6017.1
655.033	6053.97
655.225	6189.13
655.417	6078.54
655.61	6086.73
655.802	6105.17
655.994	5959.76
656.186	6049.87
656.379	5828.69
656.571	5906.51
656.763	5910.61
656.955	5855.31
657.148	5689.43
657.34	5750.87
657.532	5546.07
657.724	5566.55
657.916	5593.17
658.108	5677.14
658.3	5750.87
658.492	5634.13
658.684	5466.2
658.876	5544.02
659.068	5378.14
659.26	5417.05
659.452	5466.2
659.644	5474.39
659.836	5374.04
660.028	5408.86
660.22	5324.89
660.412	5300.31
660.604	5279.83
660.796	5228.63
660.988	5267.55
661.18	5161.05
661.372	5204.06
661.563	5337.18
661.755	5116
661.947	5107.8
662.139	5130.33
662.331	4976.73
662.522	5097.56
662.714	4937.82
662.906	4704.35
663.097	5034.08
663.289	4847.71
663.481	4767.84
663.673	4868.19
663.864	4874.34
664.056	4800.61
664.247	4767.84
664.439	4771.94
664.631	4739.17
664.822	4726.88
665.014	4677.73
665.205	4663.4
665.397	4710.5
665.588	4677.73
665.78	4624.48
665.971	4585.57
666.163	4589.67
666.354	4575.33
666.546	4563.05
666.737	4456.55
666.929	4337.77
667.12	4497.51
667.311	4460.65
667.503	4456.55
667.694	4431.98
667.885	4270.19
668.077	4286.57
668.268	4319.34
668.459	4292.71
668.651	4350.06
668.842	4112.49
669.033	4282.47
669.224	4120.68
669.416	4249.71
669.607	4241.51
669.798	4247.66
669.989	4204.65
670.18	4128.88
670.371	4120.68
670.563	4069.48
670.754	4122.73
670.945	3940.46
671.136	4067.44
671.327	4030.57
671.518	3977.33
671.709	4159.6
671.9	3895.41
672.091	3856.5
672.282	3932.27
672.473	3903.6
672.664	4096.11
672.855	3977.33
673.046	3905.65
673.237	3903.6
673.428	3866.74
673.619	3838.06
673.809	3762.29
674	3831.92
674.191	3879.02
674.382	3668.08
674.573	3780.72
674.764	3709.04
674.954	3754.1
675.145	3711.09
675.336	3674.23
675.527	3731.57
675.717	3762.29
675.908	3711.09
676.099	3532.92
676.289	3606.64
676.48	3518.58
676.671	3594.36
676.861	3661.94
677.052	3502.2
677.243	3539.06
677.433	3418.23
677.624	3436.66
677.814	3489.91
678.005	3489.91
678.195	3530.87
678.386	3602.55
678.576	3614.84
678.767	3448.95
678.957	3453.05
679.148	3455.09
679.338	3436.66
679.529	3354.74
679.719	3424.37
679.909	3440.76
680.1	3500.15
680.29	3428.47
680.481	3336.31
680.671	3274.87
680.861	3352.7
681.052	3350.65
681.242	3199.1
681.432	3344.5
681.622	3225.72
681.813	3328.12
682.003	3346.55
682.193	3246.2
682.383	3407.99
682.573	3225.72
682.764	3262.58
682.954	3270.78
683.144	3258.49
683.334	3289.21
683.524	3197.05
683.714	3246.2
683.904	3088.51
684.094	3186.81
684.284	3158.14
684.474	3252.35
684.664	3287.16
684.854	3209.34
685.044	3123.32
685.234	3182.71
685.424	3115.13
685.614	3240.06
685.804	3156.09
685.994	3088.51
686.184	3053.69
686.374	3033.21
686.564	2941.05
686.753	3104.89
686.943	3029.12
687.133	3139.71
687.323	2951.29
687.513	3098.75
687.702	3039.36
687.892	2922.62
688.082	2928.77
688.272	2930.81
688.461	2922.62
688.651	2902.14
688.841	2994.3
689.03	2838.66
689.22	2846.85
689.41	2883.71
689.599	2850.94
689.789	2828.42
689.979	2805.89
690.168	2752.64
690.358	2775.17
690.547	2648.19
690.737	2867.33
690.926	2832.51
691.116	2775.17
691.305	2773.12
691.495	2742.4
691.684	2721.92
691.874	2738.3
692.063	2652.29
692.252	2594.95
692.442	2662.53
692.631	2576.52
692.82	2572.42
693.01	2537.6
693.199	2764.93
693.388	2605.19
693.578	2543.75
693.767	2633.86
693.956	2674.82
694.146	2613.38
694.335	2611.33
694.524	2603.14
694.713	2605.19
694.902	2539.65
695.092	2562.18
695.281	2472.07
695.47	2588.8
695.659	2478.21
695.848	2422.92
696.037	2586.76
696.226	2476.16
696.415	2457.73
696.604	2461.83
696.793	2453.64
696.982	2467.97
697.171	2422.92
697.36	2474.12
697.549	2533.51
697.738	2375.81
697.927	2324.62
698.116	2398.34
698.305	2539.65
698.494	2441.35
698.683	2314.38
698.872	2402.44
699.061	2435.21
699.25	2498.69
699.438	2353.29
699.627	2467.97
699.816	2322.57
700.005	2357.38
700.193	2351.24
700.382	2439.3
700.571	2332.81
700.76	2388.1
700.948	2478.21
701.137	2330.76
701.326	2482.31
701.514	2236.55
701.703	2363.53
701.892	2125.96
702.08	2404.49
702.269	2338.95
702.457	2310.28
702.646	2441.35
702.834	2240.65
703.023	2332.81
703.212	2418.82
703.4	2320.52
703.589	2297.99
703.777	2297.99
703.965	2254.98
704.154	2351.24
704.342	2334.86
704.531	2320.52
704.719	2269.32
704.907	2310.28
705.096	2308.23
705.284	2379.91
705.472	2363.53
705.661	2297.99
705.849	2390.15
706.037	2410.63
706.226	2304.14
706.414	2447.49
706.602	2236.55
706.79	2386.05
706.979	2222.22
707.167	2275.46
707.355	2293.9
707.543	2216.07
707.731	2308.23
707.919	2394.25
708.107	2207.88
708.296	2312.33
708.484	2246.79
708.672	2375.81
708.86	2228.36
709.048	2336.9
709.236	2240.65
709.424	2265.22
709.612	2242.7
709.8	2173.07
709.988	2189.45
710.176	2379.91
710.364	2273.42
710.551	2175.11
710.739	2226.31
710.927	2367.62
711.115	2304.14
711.303	2211.98
711.491	2281.61
711.679	2330.76
711.866	2238.6
712.054	2285.7
712.242	2254.98
712.43	2216.07
712.617	2267.27
712.805	2291.85
712.993	2158.73
713.181	2146.44
713.368	2228.36
713.556	2271.37
713.744	2214.02
713.931	2410.63
714.119	2314.38
714.306	2209.93
714.494	2246.79
714.682	2263.18
714.869	2224.26
715.057	2318.47
715.244	2162.83
715.432	2244.74
715.619	2224.26
715.807	2271.37
715.994	2242.7
716.182	2248.84
716.369	2173.07
716.556	2318.47
716.744	2218.12
716.931	2177.16
717.119	2273.42
717.306	2146.44
717.493	2148.49
717.681	2269.32
717.868	2199.69
718.055	2289.8
718.242	2044.04
718.43	2312.33
718.617	2222.22
718.804	2173.07
718.991	2214.02
719.179	2197.64
719.366	2238.6
719.553	2252.94
719.74	2156.68
719.927	2177.16
720.114	2242.7
720.301	2205.83
720.488	2207.88
720.676	2095.24
720.863	2181.26
721.05	2240.65
721.237	2285.7
721.424	2162.83
721.611	2295.94
721.798	2199.69
721.985	2125.96
722.172	2146.44
722.358	2113.67
722.545	2156.68
722.732	2183.31
722.919	2205.83
723.106	2166.92
723.293	2211.98
723.48	2275.46
723.667	2214.02
723.853	2195.59
724.04	2109.58
724.227	2218.12
724.414	2189.45
724.6	2224.26
724.787	2187.4
724.974	2254.98
725.161	2166.92
725.347	2132.11
725.534	2228.36
725.72	2060.43
725.907	2297.99
726.094	2242.7
726.28	2191.5
726.467	2138.25
726.653	2111.63
726.84	2246.79
727.027	2107.53
727.213	2109.58
727.4	2207.88
727.586	2029.71
727.773	2195.59
727.959	2015.37
728.145	2156.68
728.332	2177.16
728.518	2257.03
728.705	2175.11
728.891	2263.18
729.077	2205.83
729.264	2156.68
729.45	2154.63
729.636	2187.4
729.823	2179.21
730.009	2085
730.195	2132.11
730.382	2279.56
730.568	2158.73
730.754	2166.92
730.94	2105.48
731.126	2238.6
731.313	2218.12
731.499	2142.35
731.685	2099.34
731.871	2220.17
732.057	2283.66
732.243	2199.69
732.429	2103.43
732.615	2175.11
732.801	2166.92
732.987	2314.38
733.173	2076.81
733.359	2046.09
733.545	2240.65
733.731	2121.87
733.917	2173.07
734.103	2142.35
734.289	2101.39
734.475	2066.57
734.661	2097.29
734.847	2101.39
735.033	2130.06
735.219	2093.19
735.404	2082.95
735.59	2187.4
735.776	2087.05
735.962	2087.05
736.148	2128.01
736.333	2150.54
736.519	2091.15
736.705	2166.92
736.89	2144.39
737.076	2156.68
737.262	2072.72
737.447	2060.43
737.633	2117.77
737.819	2136.2
738.004	2080.91
738.19	2076.81
738.375	2185.35
738.561	2107.53
738.747	2140.3
738.932	2003.08
739.118	2125.96
739.303	2156.68
739.489	2001.04
739.674	1978.51
739.859	1998.99
740.045	2101.39
740.23	2062.48
740.416	2009.23
740.601	1996.94
740.786	1892.49
740.972	1962.12
741.157	1960.08
741.342	2042
741.528	2054.28
741.713	1960.08
741.898	2042
742.084	1953.93
742.269	1964.17
742.454	2007.18
742.639	1921.17
742.824	1906.83
743.01	2019.47
743.195	1953.93
743.38	1929.36
743.565	1919.12
743.75	1896.59
743.935	1863.82
744.12	1865.87
744.305	1898.64
744.49	1925.26
744.675	1872.01
744.86	1863.82
745.045	1849.49
745.23	1802.38
745.415	1837.2
745.6	1702.03
745.785	1892.49
745.97	1804.43
746.155	1855.63
746.34	1753.23
746.525	1810.58
746.71	1831.05
746.895	1730.7
747.079	1730.7
747.264	1806.48
747.449	1716.37
747.634	1810.58
747.819	1693.84
748.003	1654.93
748.188	1745.04
748.373	1638.55
748.557	1618.07
748.742	1697.94
748.927	1626.26
749.111	1712.27
749.296	1628.31
749.481	1650.83
749.665	1640.59
749.85	1542.29
750.034	1628.31
750.219	1667.22
750.404	1628.31
750.588	1630.35
750.773	1507.48
750.957	1609.87
751.141	1556.63
751.326	1495.19
751.51	1546.39
751.695	1460.37
751.879	1521.81
752.064	1523.86
752.248	1458.32
752.432	1560.72
752.617	1513.62
752.801	1470.61
752.985	1497.24
753.17	1450.13
753.354	1386.65
753.538	1425.56
753.722	1409.17
753.907	1364.12
754.091	1454.23
754.275	1417.37
754.459	1409.17
754.643	1364.12
754.828	1353.88
755.012	1384.6
755.196	1351.83
755.38	1339.54
755.564	1335.45
755.748	1255.58
755.932	1300.63
756.116	1321.11
756.3	1347.73
756.484	1181.85
756.668	1321.11
756.852	1161.37
757.036	1243.29
757.22	1198.23
757.404	1294.49
757.588	1286.3
757.772	1190.04
757.956	1167.51
758.14	1171.61
758.323	1206.42
758.507	1198.23
758.691	1343.64
758.875	1114.27
759.059	1155.23
759.242	1122.46
759.426	1157.27
759.61	1056.92
759.794	1169.56
759.977	1083.55
760.161	1120.41
760.345	1136.79
760.528	1097.88
760.712	1091.74
760.895	1104.03
761.079	1063.07
761.263	1018.01
761.446	1140.89
761.63	1011.87
761.813	1044.63
761.997	1030.3
762.18	1011.87
762.364	1032.35
762.547	972.96
762.731	1081.5
762.914	1013.92
763.098	1036.44
763.281	1058.97
763.464	1003.68
763.648	940.19
763.831	991.39
764.015	999.58
764.198	1001.63
764.381	1032.35
764.564	1077.4
764.748	1003.68
764.931	940.19
765.114	977.05
765.297	993.44
765.481	952.48
765.664	1030.3
765.847	950.43
766.03	1007.77
766.213	1003.68
766.397	929.95
766.58	917.66
766.763	989.34
766.946	874.65
767.129	897.18
767.312	946.33
767.495	905.37
767.678	862.37
767.861	921.76
768.044	938.14
768.227	925.85
768.41	903.32
768.593	960.67
768.776	888.99
768.959	815.26
769.142	936.09
769.324	940.19
769.507	911.52
769.69	880.8
769.873	878.75
770.056	895.13
770.239	841.89
770.421	972.96
770.604	880.8
770.787	852.13
770.97	827.55
771.152	831.65
771.335	823.45
771.518	809.12
771.7	776.35
771.883	825.5
772.066	805.02
772.248	874.65
772.431	794.78
772.613	864.41
772.796	788.64
772.978	770.21
773.161	753.82
773.343	807.07
773.526	741.54
773.708	698.53
773.891	766.11
774.073	731.3
774.256	755.87
774.438	749.73
774.621	737.44
774.803	802.97
774.985	735.39
775.168	833.69
775.35	684.19
775.532	811.17
775.715	729.25
775.897	686.24
776.079	602.27
776.261	729.25
776.444	719.01
776.626	688.29
776.808	630.95
776.99	737.44
777.173	647.33
777.355	688.29
777.537	649.38
777.719	641.18
777.901	671.9
778.083	659.62
778.265	546.98
778.447	598.18
778.629	647.33
778.811	651.42
778.993	602.27
779.175	536.74
779.357	624.8
779.539	641.18
779.721	614.56
779.903	655.52
780.085	661.66
780.267	614.56
780.449	585.89
780.631	596.13
780.812	587.94
780.994	510.11
781.176	540.83
781.358	536.74
781.54	600.23
781.721	635.04
781.903	526.5
782.085	532.64
782.267	551.07
782.448	637.09
782.63	477.35
782.812	583.84
782.993	471.2
783.175	536.74
783.357	440.48
783.538	483.49
783.72	524.45
783.901	532.64
784.083	510.11
784.264	571.55
784.446	448.68
784.627	487.59
784.809	495.78
784.99	399.52
785.172	495.78
785.353	489.64
785.535	485.54
785.716	409.76
785.897	510.11
786.079	510.11
786.26	436.39
786.441	479.4
786.623	448.68
786.804	407.72
786.985	524.45
787.167	420
787.348	422.05
787.529	399.52
787.71	487.59
787.891	477.35
788.073	393.38
788.254	340.13
788.435	387.24
788.616	426.15
788.797	383.14
788.978	393.38
789.159	389.28
789.34	403.62
789.522	405.67
789.703	333.99
789.884	401.57
790.065	350.37
790.246	346.28
790.427	395.43
790.607	307.37
790.788	411.81
790.969	420
791.15	397.48
791.331	325.8
791.512	309.41
791.693	319.65
791.874	342.18
792.054	342.18
792.235	315.56
792.416	379.04
792.597	286.89
792.778	379.04
792.958	299.17
793.139	356.52
793.32	364.71
793.5	348.33
793.681	262.31
793.862	356.52
794.042	270.5
794.223	268.45
794.404	301.22
794.584	270.5
794.765	387.24
794.945	258.21
795.126	309.41
795.306	340.13
795.487	356.52
795.667	293.03
795.848	350.37
796.028	342.18
796.209	327.85
796.389	297.13
796.57	278.69
796.75	186.54
796.93	241.83
797.111	286.89
797.291	266.41
797.471	286.89
797.652	217.26
797.832	207.02
798.012	213.16
798.192	186.54
798.373	237.74
798.553	278.69
798.733	282.79
798.913	268.45
799.093	301.22
799.274	245.93
799.454	241.83
799.634	282.79
799.814	211.11
799.994	229.54
800.174	327.85
800.354	227.5
800.534	250.02
800.714	239.78
800.894	221.35
801.074	241.83
801.254	233.64
801.434	227.5
801.614	176.3
801.794	221.35
801.974	512.16
802.154	297.13
802.334	274.6
802.514	260.26
802.693	178.34
802.873	200.87
803.053	245.93
803.233	194.73
803.413	303.27
803.592	243.88
803.772	239.78
803.952	315.56
804.131	305.32
804.311	196.78
804.491	258.21
804.67	200.87
804.85	141.48
805.03	211.11
805.209	239.78
805.389	164.01
805.568	200.87
805.748	196.78
805.928	192.68
806.107	196.78
806.287	180.39
806.466	188.58
806.646	155.82
806.825	135.34
807.004	211.11
807.184	192.68
807.363	155.82
807.543	182.44
807.722	207.02
807.901	188.58
808.081	108.71
808.26	149.67
808.439	252.07
808.619	164.01
808.798	219.3
808.977	194.73
809.156	161.96
809.336	241.83
809.515	200.87
809.694	121
809.873	143.53
810.052	151.72
810.231	143.53
810.411	141.48
810.59	127.14
810.769	188.58
810.948	229.54
811.127	151.72
811.306	159.91
811.485	239.78
811.664	209.06
811.843	112.81
812.022	225.45
812.201	147.62
812.38	174.25
812.559	98.47
812.737	166.06
812.916	147.62
813.095	200.87
813.274	129.19
813.453	129.19
813.632	159.91
813.811	127.14
813.989	164.01
814.168	176.3
814.347	123.05
814.526	180.39
814.704	192.68
814.883	149.67
815.062	98.47
815.24	166.06
815.419	172.2
815.598	184.49
815.776	137.38
815.955	131.24
816.133	172.2
816.312	114.86
816.49	116.9
816.669	100.52
816.847	141.48
817.026	135.34
817.204	200.87
817.383	194.73
817.561	131.24
817.74	164.01
817.918	110.76
818.097	123.05
818.275	131.24
818.453	73.9
818.632	77.99
818.81	82.09
818.988	118.95
819.167	96.43
819.345	61.61
819.523	116.9
819.701	96.43
819.879	118.95
820.058	137.38
820.236	127.14
820.414	182.44
820.592	123.05
820.77	166.06
820.948	157.86
821.127	129.19
821.305	129.19
821.483	77.99
821.661	127.14
821.839	43.18
822.017	75.95
822.195	41.13
822.373	155.82
822.551	133.29
822.729	143.53
822.907	116.9
823.085	88.23
823.262	131.24
823.44	125.1
823.618	96.43
823.796	129.19
823.974	118.95
824.152	53.42
824.329	26.79
824.507	153.77
824.685	127.14
824.863	71.85
825.04	149.67
825.218	88.23
825.396	114.86
825.574	147.62
825.751	96.43
825.929	174.25
826.107	18.6
826.284	116.9
826.462	123.05
826.639	28.84
826.817	84.14
826.994	110.76
827.172	49.32
827.349	127.14
827.527	131.24
827.704	127.14
827.882	166.06
828.059	69.8
828.237	59.56
828.414	96.43
828.591	80.04
828.769	47.27
828.946	98.47
829.124	55.47
829.301	110.76
829.478	157.86
829.655	106.67
829.833	49.32
830.01	2.22
830.187	49.32
830.364	112.81
830.542	65.71
830.719	84.14
830.896	110.76
831.073	118.95
831.25	49.32
831.427	114.86
831.604	57.51
831.782	75.95
831.959	161.96
832.136	84.14
832.313	61.61
832.49	41.13
832.667	127.14
832.844	94.38
833.021	157.86
833.198	14.51
833.374	102.57
833.551	61.61
833.728	45.23
833.905	75.95
834.082	143.53
834.259	75.95
834.436	92.33
834.612	84.14
834.789	82.09
834.966	49.32
835.143	96.43
835.319	41.13
835.496	-30.55
835.673	133.29
835.85	98.47
836.026	157.86
836.203	129.19
836.38	-1.88
836.556	24.75
836.733	75.95
836.909	65.71
837.086	18.6
837.262	100.52
837.439	67.75
837.616	41.13
837.792	65.71
837.968	26.79
838.145	28.84
838.321	39.08
838.498	106.67
838.674	108.71
838.851	104.62
839.027	102.57
839.203	34.99
839.38	30.89
839.556	59.56
839.732	88.23
839.909	67.75
840.085	57.51
840.261	71.85
840.437	98.47
840.614	22.7
840.79	41.13
840.966	63.66
841.142	77.99
841.318	118.95
841.494	47.27
841.671	116.9
841.847	-5.97
842.023	61.61
842.199	41.13
842.375	102.57
842.551	-16.21
842.727	24.75
842.903	67.75
843.079	108.71
843.255	106.67
843.431	45.23
843.607	121
843.783	14.51
843.959	98.47
844.134	45.23
844.31	106.67
844.486	63.66
844.662	-1.88
844.838	24.75
845.013	45.23
845.189	65.71
845.365	80.04
845.541	28.84
845.716	28.84
845.892	22.7
846.068	137.38
846.244	73.9
846.419	88.23
846.595	22.7
846.77	0.17
846.946	20.65
847.122	86.19
847.297	88.23
847.473	116.9
847.648	65.71
847.824	65.71
847.999	84.14
848.175	18.6
848.35	82.09
848.526	98.47
848.701	18.6
848.876	80.04
849.052	24.75
849.227	6.31
849.403	73.9
849.578	57.51
849.753	6.31
849.929	49.32
850.104	-22.36
850.279	63.66
850.454	12.46
850.63	32.94
850.805	77.99
850.98	59.56
851.155	94.38
851.33	-8.02
851.505	51.37
851.681	118.95
851.856	86.19
852.031	41.13
852.206	51.37
852.381	53.42
852.556	32.94
852.731	145.58
852.906	12.46
853.081	57.51
853.256	69.8
853.431	69.8
853.606	49.32
853.781	0.17
853.956	77.99
854.131	47.27
854.305	12.46
854.48	10.41
854.655	-20.31
854.83	14.51
855.005	-14.17
855.18	104.62
855.354	6.31
855.529	45.23
855.704	12.46
855.879	-5.97
856.053	-22.36
856.228	71.85
856.403	45.23
856.577	127.14
856.752	108.71
856.926	-44.88
857.101	-12.12
857.276	-38.74
857.45	71.85
857.625	32.94
857.799	32.94
857.974	2.22
858.148	14.51
858.323	20.65
858.497	-5.97
858.672	14.51
858.846	10.41
859.02	65.71
859.195	8.36
859.369	-5.97
859.543	-38.74
859.718	55.47
859.892	43.18
860.066	49.32
860.241	-16.21
860.415	55.47
860.589	75.95
860.763	63.66
860.938	28.84
861.112	34.99
861.286	49.32
861.46	45.23
861.634	-59.22
861.808	90.28
861.982	53.42
862.157	61.61
862.331	-10.07
862.505	55.47
862.679	-8.02
862.853	-48.98
863.027	-14.17
863.201	51.37
863.375	49.32
863.549	104.62
863.722	12.46
863.896	65.71
864.07	-1.88
864.244	0.17
864.418	-8.02
864.592	-20.31
864.766	45.23
864.939	90.28
865.113	18.6
865.287	59.56
865.461	-20.31
865.634	32.94
865.808	57.51
865.982	-3.93
866.156	-46.93
866.329	37.03
866.503	-26.45
866.676	18.6
866.85	24.75
867.024	43.18
867.197	94.38
867.371	4.27
867.544	2.22
867.718	20.65
867.891	73.9
868.065	4.27
868.238	43.18
868.412	88.23
868.585	45.23
868.759	57.51
868.932	10.41
869.105	-48.98
869.279	43.18
869.452	12.46
869.625	-73.56
869.799	82.09
869.972	82.09
870.145	55.47
870.319	63.66
870.492	-32.6
870.665	49.32
870.838	37.03
871.011	32.94
871.185	6.31
871.358	-38.74
871.531	16.55
871.704	-3.93
871.877	61.61
872.05	49.32
872.223	49.32
872.396	32.94
872.569	-14.17
872.742	-3.93
872.915	32.94
873.088	51.37
873.261	37.03
873.434	49.32
873.607	-16.21
873.78	-40.79
873.953	10.41
874.126	-10.07
874.299	65.71
874.471	-63.32
874.644	4.27
874.817	49.32
874.99	-8.02
875.163	10.41
875.335	51.37
875.508	-12.12
875.681	45.23
875.853	-12.12
876.026	4.27
876.199	26.79
876.371	-51.03
876.544	22.7
876.717	-14.17
876.889	-14.17
877.062	71.85
877.234	16.55
877.407	-5.97
877.579	92.33
877.752	8.36
877.924	10.41
878.097	73.9
878.269	-44.88
878.442	24.75
878.614	114.86
878.786	-8.02
878.959	16.55
879.131	10.41
879.303	4.27
879.476	90.28
879.648	49.32
879.82	26.79
879.993	12.46
880.165	10.41
880.337	8.36
880.509	57.51
880.681	-24.4
880.854	-18.26
881.026	57.51
881.198	61.61
881.37	32.94
881.542	26.79
881.714	16.55
881.886	45.23
882.058	0.17
882.23	18.6
882.402	30.89
882.574	37.03
882.746	28.84
882.918	112.81
883.09	63.66
883.262	10.41
883.434	-57.17
883.606	-18.26
883.778	61.61
883.95	75.95
884.122	-48.98
884.293	65.71
884.465	73.9
884.637	14.51
884.809	24.75
884.98	-20.31
885.152	24.75
885.324	2.22
885.496	6.31
885.667	-44.88
885.839	24.75
886.011	-38.74
886.182	10.41
886.354	24.75
886.525	2.22
886.697	20.65
886.869	32.94
887.04	-20.31
887.212	14.51
887.383	65.71
887.555	34.99
887.726	-8.02
887.897	12.46
888.069	39.08
888.24	-10.07
888.412	-1.88
888.583	98.47
888.754	55.47
888.926	53.42
889.097	49.32
889.268	14.51
889.44	37.03
889.611	18.6
889.782	10.41
889.953	71.85
890.125	28.84
890.296	-96.08
890.467	22.7
890.638	-5.97
890.809	-10.07
890.98	43.18
891.151	-18.26
891.323	-12.12
891.494	16.55
891.665	-3.93
891.836	12.46
892.007	18.6
892.178	69.8
892.349	-18.26
892.52	16.55
892.691	-34.64
892.862	82.09
893.032	-34.64
893.203	16.55
893.374	-3.93
893.545	-26.45
893.716	84.14
893.887	49.32
894.057	6.31
894.228	41.13
894.399	39.08
894.57	59.56
894.74	45.23
894.911	-14.17
895.082	45.23
895.253	80.04
895.423	24.75
895.594	39.08
895.764	10.41
895.935	102.57
896.106	16.55
896.276	32.94
896.447	-24.4
896.617	-44.88
896.788	-46.93
896.958	2.22
897.129	-22.36
897.299	30.89
897.47	51.37
897.64	-16.21
897.81	28.84
897.981	43.18
898.151	-16.21
898.322	-57.17
898.492	77.99
898.662	32.94
898.832	57.51
899.003	98.47
899.173	-8.02
899.343	-12.12
899.513	-28.5
