Data from USB4F104151__245__11-11-35-909.txt Node

Date: Wed Mar 12 11:11:35 EDT 2025
User: louis
Spectrometer: USB4F10415
Trigger mode: 4
Integration Time (sec): 2.000000E-2
Scans to average: 1
Electric dark correction enabled: true
Nonlinearity correction enabled: false
Boxcar width: 0
XAxis mode: Wavelengths
Number of Pixels in Spectrum: 3648
>>>>>Begin Spectral Data<<<<<
178.204	-122.02
178.424	-122.02
178.644	-122.02
178.864	-81.07
179.084	-13.48
179.304	72.53
179.524	-25.77
179.744	-83.11
179.964	70.48
180.184	17.24
180.404	4.95
180.624	35.67
180.844	-27.82
181.064	-40.11
181.283	-31.91
181.503	-31.91
181.723	39.76
181.943	-50.35
182.163	80.72
182.383	-42.15
182.602	58.2
182.822	23.38
183.042	4.95
183.262	9.05
183.482	54.1
183.701	47.96
183.921	-13.48
184.141	54.1
184.361	13.14
184.58	-64.68
184.8	11.09
185.02	-15.53
185.239	39.76
185.459	43.86
185.679	17.24
185.898	17.24
186.118	66.39
186.338	-23.72
186.557	-23.72
186.777	2.9
186.997	25.43
187.216	74.58
187.436	45.91
187.655	68.44
187.875	52.05
188.095	41.81
188.314	60.24
188.534	-15.53
188.753	54.1
188.973	-13.48
189.192	58.2
189.412	70.48
189.631	68.44
189.851	88.92
190.07	-36.01
190.29	-56.49
190.509	54.1
190.729	-1.19
190.948	39.76
191.168	74.58
191.387	47.96
191.607	-81.07
191.826	21.33
192.045	-1.19
192.265	60.24
192.484	15.19
192.704	31.57
192.923	4.95
193.142	4.95
193.362	45.91
193.581	23.38
193.8	23.38
194.02	-5.29
194.239	-29.87
194.458	54.1
194.678	-7.34
194.897	-19.63
195.116	-25.77
195.335	39.76
195.555	11.09
195.774	54.1
195.993	-5.29
196.212	23.38
196.432	19.29
196.651	0.85
196.87	-62.63
197.089	72.53
197.308	-38.06
197.528	50
197.747	-13.48
197.966	37.72
198.185	-36.01
198.404	56.15
198.623	-7.34
198.842	0.85
199.062	-5.29
199.281	21.33
199.5	-15.53
199.719	19.29
199.938	60.24
200.157	41.81
200.376	-11.43
200.595	35.67
200.814	15.19
201.033	21.33
201.252	52.05
201.471	-5.29
201.69	-9.39
201.909	68.44
202.128	-52.39
202.347	21.33
202.566	13.14
202.785	25.43
203.004	-42.15
203.223	74.58
203.442	11.09
203.661	-19.63
203.879	17.24
204.098	41.81
204.317	13.14
204.536	47.96
204.755	31.57
204.974	45.91
205.193	-31.91
205.411	39.76
205.63	84.82
205.849	37.72
206.068	-7.34
206.287	-5.29
206.505	82.77
206.724	15.19
206.943	68.44
207.162	-3.24
207.381	-11.43
207.599	-19.63
207.818	70.48
208.037	45.91
208.255	37.72
208.474	-3.24
208.693	2.9
208.911	37.72
209.13	0.85
209.349	107.35
209.567	-7.34
209.786	21.33
210.005	-36.01
210.223	17.24
210.442	35.67
210.661	-1.19
210.879	-17.58
211.098	-3.24
211.316	11.09
211.535	76.63
211.753	-19.63
211.972	62.29
212.191	37.72
212.409	111.44
212.628	15.19
212.846	9.05
213.065	50
213.283	-5.29
213.502	17.24
213.72	74.58
213.938	33.62
214.157	13.14
214.375	0.85
214.594	27.48
214.812	-27.82
215.031	7
215.249	70.48
215.467	56.15
215.686	-5.29
215.904	25.43
216.122	84.82
216.341	19.29
216.559	43.86
216.778	-21.67
216.996	64.34
217.214	-46.25
217.432	25.43
217.651	25.43
217.869	11.09
218.087	64.34
218.306	58.2
218.524	86.87
218.742	-33.96
218.96	-17.58
219.179	-15.53
219.397	27.48
219.615	80.72
219.833	-15.53
220.051	31.57
220.27	84.82
220.488	7
220.706	17.24
220.924	-48.3
221.142	45.91
221.36	43.86
221.578	60.24
221.796	68.44
222.015	17.24
222.233	-38.06
222.451	101.2
222.669	-3.24
222.887	23.38
223.105	-54.44
223.323	27.48
223.541	-7.34
223.759	-66.73
223.977	9.05
224.195	41.81
224.413	68.44
224.631	-7.34
224.849	33.62
225.067	17.24
225.285	-5.29
225.503	-46.25
225.721	9.05
225.939	19.29
226.157	70.48
226.375	86.87
226.592	-31.91
226.81	31.57
227.028	-62.63
227.246	50
227.464	9.05
227.682	17.24
227.9	-40.11
228.117	50
228.335	54.1
228.553	133.97
228.771	-3.24
228.989	-5.29
229.206	-11.43
229.424	15.19
229.642	13.14
229.86	41.81
230.077	70.48
230.295	66.39
230.513	13.14
230.731	-27.82
230.948	9.05
231.166	15.19
231.384	-19.63
231.601	70.48
231.819	45.91
232.037	-33.96
232.254	0.85
232.472	21.33
232.689	-5.29
232.907	43.86
233.125	25.43
233.342	27.48
233.56	-11.43
233.777	-3.24
233.995	74.58
234.213	54.1
234.43	56.15
234.648	-7.34
234.865	72.53
235.083	29.52
235.3	-7.34
235.518	-7.34
235.735	-15.53
235.953	97.11
236.17	11.09
236.388	-11.43
236.605	43.86
236.822	121.68
237.04	74.58
237.257	74.58
237.475	31.57
237.692	25.43
237.909	-7.34
238.127	-38.06
238.344	52.05
238.562	-13.48
238.779	27.48
238.996	-46.25
239.214	37.72
239.431	101.2
239.648	17.24
239.865	-1.19
240.083	25.43
240.3	-13.48
240.517	17.24
240.735	35.67
240.952	136.02
241.169	95.06
241.386	82.77
241.603	43.86
241.821	15.19
242.038	74.58
242.255	-5.29
242.472	47.96
242.689	-15.53
242.907	23.38
243.124	66.39
243.341	35.67
243.558	-7.34
243.775	4.95
243.992	-3.24
244.209	33.62
244.426	-5.29
244.643	33.62
244.86	9.05
245.078	33.62
245.295	-38.06
245.512	4.95
245.729	68.44
245.946	13.14
246.163	25.43
246.38	-23.72
246.597	-36.01
246.814	72.53
247.031	11.09
247.248	-3.24
247.464	-58.54
247.681	50
247.898	86.87
248.115	17.24
248.332	45.91
248.549	39.76
248.766	-15.53
248.983	78.68
249.2	-31.91
249.417	62.29
249.633	21.33
249.85	74.58
250.067	-27.82
250.284	-19.63
250.501	-36.01
250.717	25.43
250.934	0.85
251.151	-5.29
251.368	27.48
251.585	64.34
251.801	37.72
252.018	37.72
252.235	7
252.451	11.09
252.668	58.2
252.885	88.92
253.102	68.44
253.318	-13.48
253.535	29.52
253.752	11.09
253.968	-31.91
254.185	41.81
254.401	17.24
254.618	-64.68
254.835	35.67
255.051	50
255.268	-15.53
255.484	-23.72
255.701	21.33
255.917	31.57
256.134	17.24
256.351	56.15
256.567	45.91
256.784	35.67
257	0.85
257.217	31.57
257.433	45.91
257.65	35.67
257.866	25.43
258.082	-3.24
258.299	-44.2
258.515	107.35
258.732	-21.67
258.948	-11.43
259.165	127.83
259.381	-17.58
259.597	62.29
259.814	62.29
260.03	-3.24
260.246	29.52
260.463	21.33
260.679	37.72
260.895	84.82
261.112	23.38
261.328	-27.82
261.544	-54.44
261.761	45.91
261.977	4.95
262.193	50
262.409	78.68
262.626	70.48
262.842	-23.72
263.058	25.43
263.274	62.29
263.49	23.38
263.707	50
263.923	0.85
264.139	-44.2
264.355	50
264.571	33.62
264.787	9.05
265.004	37.72
265.22	13.14
265.436	25.43
265.652	-1.19
265.868	-11.43
266.084	78.68
266.3	119.64
266.516	78.68
266.732	41.81
266.948	-19.63
267.164	103.25
267.38	60.24
267.596	62.29
267.812	-15.53
268.028	82.77
268.244	-36.01
268.46	-9.39
268.676	13.14
268.892	68.44
269.108	15.19
269.324	15.19
269.54	27.48
269.756	90.96
269.972	25.43
270.188	13.14
270.403	29.52
270.619	52.05
270.835	107.35
271.051	41.81
271.267	-5.29
271.483	-17.58
271.698	-38.06
271.914	60.24
272.13	0.85
272.346	86.87
272.562	-5.29
272.777	-11.43
272.993	129.88
273.209	0.85
273.425	4.95
273.64	70.48
273.856	31.57
274.072	35.67
274.287	35.67
274.503	7
274.719	45.91
274.934	50
275.15	-36.01
275.366	84.82
275.581	54.1
275.797	95.06
276.012	50
276.228	37.72
276.444	45.91
276.659	109.4
276.875	-1.19
277.09	-11.43
277.306	-15.53
277.521	47.96
277.737	58.2
277.952	117.59
278.168	-17.58
278.383	50
278.599	-40.11
278.814	-31.91
279.03	-7.34
279.245	47.96
279.461	11.09
279.676	90.96
279.892	2.9
280.107	0.85
280.322	-46.25
280.538	86.87
280.753	-27.82
280.969	39.76
281.184	35.67
281.399	99.16
281.615	0.85
281.83	76.63
282.045	-5.29
282.26	19.29
282.476	68.44
282.691	21.33
282.906	13.14
283.122	-31.91
283.337	35.67
283.552	-5.29
283.767	86.87
283.983	62.29
284.198	-17.58
284.413	56.15
284.628	11.09
284.843	58.2
285.058	62.29
285.274	31.57
285.489	33.62
285.704	45.91
285.919	29.52
286.134	70.48
286.349	17.24
286.564	70.48
286.779	39.76
286.995	15.19
287.21	4.95
287.425	-13.48
287.64	-19.63
287.855	33.62
288.07	7
288.285	45.91
288.5	-7.34
288.715	113.49
288.93	4.95
289.145	66.39
289.36	-23.72
289.575	-27.82
289.79	21.33
290.004	19.29
290.219	60.24
290.434	7
290.649	-13.48
290.864	62.29
291.079	99.16
291.294	-15.53
291.509	70.48
291.724	66.39
291.938	-17.58
292.153	27.48
292.368	-11.43
292.583	-27.82
292.798	2.9
293.012	62.29
293.227	33.62
293.442	2.9
293.657	2.9
293.871	37.72
294.086	0.85
294.301	43.86
294.516	2.9
294.73	99.16
294.945	21.33
295.16	35.67
295.374	37.72
295.589	4.95
295.804	66.39
296.018	23.38
296.233	64.34
296.447	15.19
296.662	27.48
296.877	117.59
297.091	-9.39
297.306	37.72
297.52	52.05
297.735	-79.02
297.949	35.67
298.164	35.67
298.378	-1.19
298.593	95.06
298.807	31.57
299.022	-23.72
299.236	76.63
299.451	25.43
299.665	43.86
299.88	-21.67
300.094	41.81
300.309	54.1
300.523	27.48
300.737	33.62
300.952	54.1
301.166	47.96
301.381	-44.2
301.595	64.34
301.809	17.24
302.024	50
302.238	-1.19
302.452	27.48
302.667	41.81
302.881	39.76
303.095	35.67
303.309	-11.43
303.524	-11.43
303.738	21.33
303.952	45.91
304.166	80.72
304.381	-21.67
304.595	52.05
304.809	2.9
305.023	27.48
305.237	-11.43
305.452	-7.34
305.666	-7.34
305.88	37.72
306.094	27.48
306.308	60.24
306.522	62.29
306.736	136.02
306.95	115.54
307.164	29.52
307.379	45.91
307.593	113.49
307.807	21.33
308.021	47.96
308.235	-19.63
308.449	43.86
308.663	54.1
308.877	68.44
309.091	27.48
309.305	-44.2
309.519	72.53
309.733	84.82
309.947	15.19
310.161	-40.11
310.374	41.81
310.588	19.29
310.802	-52.39
311.016	31.57
311.23	-19.63
311.444	21.33
311.658	93.01
311.872	72.53
312.085	41.81
312.299	15.19
312.513	-42.15
312.727	39.76
312.941	-11.43
313.154	-42.15
313.368	31.57
313.582	25.43
313.796	-17.58
314.009	31.57
314.223	58.2
314.437	72.53
314.651	33.62
314.864	64.34
315.078	-40.11
315.292	58.2
315.505	52.05
315.719	11.09
315.933	17.24
316.146	103.25
316.36	-21.67
316.573	37.72
316.787	70.48
317.001	-11.43
317.214	68.44
317.428	13.14
317.641	-5.29
317.855	76.63
318.068	64.34
318.282	70.48
318.495	19.29
318.709	-1.19
318.922	25.43
319.136	23.38
319.349	2.9
319.563	39.76
319.776	-5.29
319.99	70.48
320.203	33.62
320.417	25.43
320.63	33.62
320.843	56.15
321.057	15.19
321.27	11.09
321.483	29.52
321.697	15.19
321.91	-1.19
322.124	60.24
322.337	17.24
322.55	-44.2
322.763	-15.53
322.977	-5.29
323.19	21.33
323.403	-3.24
323.617	82.77
323.83	68.44
324.043	-36.01
324.256	21.33
324.469	19.29
324.683	19.29
324.896	78.68
325.109	33.62
325.322	21.33
325.535	50
325.748	-5.29
325.962	101.2
326.175	52.05
326.388	-13.48
326.601	80.72
326.814	93.01
327.027	35.67
327.24	52.05
327.453	-42.15
327.666	29.52
327.879	54.1
328.092	17.24
328.305	82.77
328.518	25.43
328.731	-60.59
328.944	62.29
329.157	-13.48
329.37	-19.63
329.583	7
329.796	19.29
330.009	43.86
330.222	88.92
330.435	78.68
330.648	58.2
330.861	27.48
331.073	-23.72
331.286	-50.35
331.499	93.01
331.712	-33.96
331.925	119.64
332.138	111.44
332.35	29.52
332.563	50
332.776	56.15
332.989	35.67
333.202	90.96
333.414	21.33
333.627	117.59
333.84	58.2
334.053	37.72
334.265	7
334.478	2.9
334.691	21.33
334.903	62.29
335.116	-3.24
335.329	41.81
335.541	76.63
335.754	80.72
335.966	2.9
336.179	35.67
336.392	56.15
336.604	41.81
336.817	62.29
337.029	95.06
337.242	50
337.454	19.29
337.667	-44.2
337.88	78.68
338.092	17.24
338.305	84.82
338.517	43.86
338.729	43.86
338.942	62.29
339.154	109.4
339.367	-1.19
339.579	-7.34
339.792	52.05
340.004	52.05
340.217	-13.48
340.429	68.44
340.641	88.92
340.854	90.96
341.066	15.19
341.278	0.85
341.491	84.82
341.703	39.76
341.915	-31.91
342.128	23.38
342.34	68.44
342.552	13.14
342.764	82.77
342.977	-27.82
343.189	115.54
343.401	52.05
343.613	82.77
343.826	27.48
344.038	13.14
344.25	62.29
344.462	60.24
344.674	21.33
344.886	41.81
345.099	-15.53
345.311	58.2
345.523	70.48
345.735	13.14
345.947	66.39
346.159	66.39
346.371	35.67
346.583	90.96
346.795	109.4
347.007	-1.19
347.219	27.48
347.431	-25.77
347.643	25.43
347.855	13.14
348.067	45.91
348.279	62.29
348.491	66.39
348.703	74.58
348.915	-11.43
349.127	29.52
349.339	41.81
349.551	37.72
349.763	25.43
349.975	7
350.187	74.58
350.399	45.91
350.61	76.63
350.822	80.72
351.034	82.77
351.246	25.43
351.458	41.81
351.669	66.39
351.881	80.72
352.093	109.4
352.305	60.24
352.517	19.29
352.728	19.29
352.94	-3.24
353.152	39.76
353.363	4.95
353.575	-42.15
353.787	60.24
353.999	60.24
354.21	113.49
354.422	-7.34
354.633	109.4
354.845	-31.91
355.057	23.38
355.268	54.1
355.48	72.53
355.692	62.29
355.903	35.67
356.115	103.25
356.326	76.63
356.538	88.92
356.749	93.01
356.961	62.29
357.172	54.1
357.384	58.2
357.595	66.39
357.807	41.81
358.018	37.72
358.23	33.62
358.441	37.72
358.653	45.91
358.864	25.43
359.075	66.39
359.287	54.1
359.498	52.05
359.709	25.43
359.921	115.54
360.132	21.33
360.344	54.1
360.555	43.86
360.766	2.9
360.977	7
361.189	37.72
361.4	0.85
361.611	105.3
361.823	17.24
362.034	84.82
362.245	27.48
362.456	-23.72
362.667	54.1
362.879	2.9
363.09	39.76
363.301	27.48
363.512	97.11
363.723	39.76
363.935	90.96
364.146	50
364.357	47.96
364.568	103.25
364.779	13.14
364.99	17.24
365.201	33.62
365.412	50
365.623	19.29
365.834	19.29
366.045	70.48
366.256	78.68
366.467	84.82
366.678	15.19
366.889	52.05
367.1	-40.11
367.311	41.81
367.522	-7.34
367.733	35.67
367.944	54.1
368.155	54.1
368.366	21.33
368.577	68.44
368.788	54.1
368.999	17.24
369.209	41.81
369.42	37.72
369.631	52.05
369.842	35.67
370.053	41.81
370.264	107.35
370.474	13.14
370.685	0.85
370.896	62.29
371.107	64.34
371.317	95.06
371.528	29.52
371.739	103.25
371.95	97.11
372.16	-5.29
372.371	50
372.582	23.38
372.792	21.33
373.003	2.9
373.214	66.39
373.424	29.52
373.635	-7.34
373.846	27.48
374.056	76.63
374.267	2.9
374.477	11.09
374.688	107.35
374.898	19.29
375.109	66.39
375.319	9.05
375.53	62.29
375.74	101.2
375.951	84.82
376.161	7
376.372	68.44
376.582	37.72
376.793	133.97
377.003	43.86
377.214	113.49
377.424	129.88
377.635	119.64
377.845	62.29
378.055	41.81
378.266	33.62
378.476	56.15
378.686	17.24
378.897	66.39
379.107	41.81
379.317	127.83
379.528	21.33
379.738	105.3
379.948	41.81
380.158	43.86
380.369	45.91
380.579	72.53
380.789	39.76
380.999	62.29
381.21	54.1
381.42	84.82
381.63	52.05
381.84	37.72
382.05	68.44
382.261	88.92
382.471	74.58
382.681	82.77
382.891	64.34
383.101	58.2
383.311	62.29
383.521	33.62
383.731	95.06
383.941	127.83
384.151	52.05
384.361	-11.43
384.571	64.34
384.781	29.52
384.991	76.63
385.201	103.25
385.411	52.05
385.621	164.69
385.831	86.87
386.041	70.48
386.251	88.92
386.461	78.68
386.671	50
386.881	41.81
387.091	109.4
387.301	80.72
387.511	50
387.72	58.2
387.93	111.44
388.14	62.29
388.35	78.68
388.56	54.1
388.769	25.43
388.979	66.39
389.189	7
389.399	103.25
389.609	29.52
389.818	29.52
390.028	33.62
390.238	68.44
390.447	-1.19
390.657	80.72
390.867	64.34
391.076	39.76
391.286	82.77
391.496	62.29
391.705	84.82
391.915	80.72
392.125	25.43
392.334	31.57
392.544	101.2
392.753	117.59
392.963	117.59
393.172	121.68
393.382	-15.53
393.591	88.92
393.801	84.82
394.01	152.4
394.22	133.97
394.429	70.48
394.639	47.96
394.848	66.39
395.058	131.92
395.267	-13.48
395.477	62.29
395.686	115.54
395.895	21.33
396.105	125.78
396.314	70.48
396.524	70.48
396.733	41.81
396.942	95.06
397.152	144.21
397.361	146.26
397.57	107.35
397.78	107.35
397.989	76.63
398.198	148.31
398.407	97.11
398.617	13.14
398.826	76.63
399.035	131.92
399.244	144.21
399.453	101.2
399.663	101.2
399.872	125.78
400.081	140.12
400.29	160.59
400.499	111.44
400.708	150.36
400.917	133.97
401.127	60.24
401.336	166.74
401.545	197.46
401.754	168.79
401.963	166.74
402.172	74.58
402.381	99.16
402.59	179.03
402.799	156.5
403.008	109.4
403.217	152.4
403.426	166.74
403.635	47.96
403.844	166.74
404.053	144.21
404.262	119.64
404.471	183.12
404.68	146.26
404.888	150.36
405.097	90.96
405.306	113.49
405.515	205.65
405.724	168.79
405.933	238.42
406.142	158.55
406.35	138.07
406.559	166.74
406.768	238.42
406.977	258.9
407.185	144.21
407.394	213.84
407.603	215.89
407.812	181.07
408.02	215.89
408.229	224.08
408.438	195.41
408.646	215.89
408.855	258.9
409.064	324.43
409.272	308.05
409.481	277.33
409.69	201.55
409.898	283.47
410.107	359.25
410.315	330.58
410.524	389.97
410.733	355.15
410.941	308.05
411.15	467.79
411.358	447.31
411.567	496.46
411.775	389.97
411.984	402.26
412.192	504.65
412.401	469.84
412.609	467.79
412.818	590.67
413.026	504.65
413.234	529.23
413.443	471.89
413.651	562
413.86	596.81
414.068	676.68
414.276	682.83
414.485	699.21
414.693	731.98
414.901	752.46
415.11	756.55
415.318	711.5
415.526	815.94
415.734	779.08
415.943	830.28
416.151	901.96
416.359	947.01
416.567	1063.75
416.776	1004.36
416.984	1028.93
417.192	1010.5
417.4	1016.65
417.608	1092.42
417.817	1182.53
418.025	1143.62
418.233	1248.07
418.441	1180.48
418.649	1385.28
418.857	1309.51
419.065	1307.46
419.273	1413.95
419.481	1514.3
419.689	1569.6
419.897	1653.56
420.105	1719.1
420.313	1704.76
420.521	1807.16
420.729	1706.81
420.937	1809.21
421.145	1927.99
421.353	1882.94
421.561	2132.79
421.769	2145.08
421.977	2210.61
422.185	2167.6
422.393	2276.15
422.601	2448.18
422.809	2427.7
423.017	2523.95
423.224	2644.78
423.432	2661.16
423.64	2790.19
423.848	2921.26
424.056	2988.84
424.263	3011.37
424.471	3175.2
424.679	3259.17
424.887	3314.47
425.094	3357.47
425.302	3474.21
425.51	3556.13
425.718	3724.06
425.925	3795.74
426.133	3803.93
426.341	3982.1
426.548	4174.61
426.756	4285.2
426.964	4295.44
427.171	4600.59
427.379	4735.76
427.586	4729.61
427.794	4889.35
428.001	5139.21
428.209	5395.2
428.417	5079.82
428.624	5571.33
428.832	5481.22
429.039	5581.57
429.247	5704.45
429.454	5972.73
429.662	6562.55
429.869	6017.79
430.076	6472.43
430.284	6263.54
430.491	6623.98
430.699	6918.89
430.906	7064.3
431.114	7015.15
431.321	7221.99
431.528	7564
431.736	7989.98
431.943	8313.56
432.15	8231.64
432.358	8262.36
432.565	8645.33
432.772	8749.78
432.979	9173.71
433.187	9233.1
433.394	9304.78
433.601	9829.06
433.808	10037.95
434.016	9855.68
434.223	10359.48
434.43	10699.44
434.637	10633.91
434.844	11143.85
435.052	11606.69
435.259	11276.97
435.466	11379.37
435.673	11436.71
435.88	12094.11
436.087	13005.45
436.294	12993.17
436.501	12569.24
436.708	12843.67
436.915	13423.24
437.122	13687.43
437.329	13730.44
437.537	14193.28
437.743	14701.17
437.95	14078.59
438.157	15014.51
438.364	15665.77
438.571	15540.84
438.778	15561.32
438.985	17140.3
439.192	16075.36
439.399	16663.13
439.606	16386.65
439.813	17713.74
440.02	18457.15
440.227	18156.1
440.433	17873.48
440.64	18627.13
440.847	18739.77
441.054	18874.93
441.261	20183.59
441.467	20034.08
441.674	20337.18
441.881	21129.75
442.088	21041.68
442.294	20877.85
442.501	21338.64
442.708	21680.65
442.914	22757.88
443.121	23796.2
443.328	22792.7
443.534	24283.62
443.741	23988.71
443.948	23638.51
444.154	25264.6
444.361	24691.16
444.568	25289.17
444.774	25295.32
444.981	25498.06
445.187	26341.83
445.394	27562.42
445.6	26917.31
445.807	29555.09
446.013	28606.88
446.22	28979.61
446.426	29966.73
446.633	30192.01
446.839	31349.11
447.046	30177.67
447.252	31478.13
447.459	31431.03
447.665	31414.65
447.871	33184.09
448.078	33855.82
448.284	32414.05
448.491	33687.89
448.697	34709.83
448.903	35322.17
449.11	35354.94
449.316	34541.89
449.522	35426.62
449.728	36477.22
449.935	36817.19
450.141	36565.29
450.347	37351.71
450.553	36282.67
450.76	36829.48
450.966	37777.68
451.172	37093.66
451.378	38066.45
451.584	37511.45
451.791	38291.73
451.997	38457.61
452.203	38697.22
452.409	38945.03
452.615	38654.22
452.821	37409.05
453.027	36770.08
453.233	38803.72
453.44	37349.66
453.646	37759.25
453.852	37951.76
454.058	38101.26
454.264	37036.32
454.47	37839.12
454.676	37083.42
454.882	38136.08
455.088	34945.34
455.294	35711.28
455.5	35594.55
455.705	36473.13
455.911	34978.11
456.117	34406.73
456.323	34087.25
456.529	31719.79
456.735	33200.47
456.941	32076.14
457.147	32051.56
457.352	31074.68
457.558	30493.06
457.764	30691.71
457.97	30083.47
458.176	29137.3
458.381	29403.54
458.587	27644.34
458.793	27861.42
458.999	26603.97
459.204	28326.31
459.41	27789.74
459.616	25958.86
459.821	25799.12
460.027	25596.37
460.233	25131.48
460.438	24099.3
460.644	24238.56
460.85	23480.82
461.055	22807.03
461.261	22635
461.466	21154.32
461.672	20353.57
461.878	21824.01
462.083	20390.43
462.289	20095.52
462.494	19778.09
462.7	19128.88
462.905	18549.31
463.111	18983.48
463.316	19135.03
463.522	18795.06
463.727	18766.39
463.932	18358.85
464.138	18723.38
464.343	18381.37
464.549	18088.51
464.754	18793.01
464.959	18508.35
465.165	18283.07
465.37	17723.97
465.575	17351.24
465.781	17990.21
465.986	18102.85
466.191	17142.35
466.397	16902.74
466.602	16210.53
466.807	16925.27
467.012	16679.51
467.218	16759.38
467.423	16282.2
467.628	16562.78
467.833	17289.81
468.038	16677.46
468.244	15921.76
468.449	16763.48
468.654	16243.29
468.859	16167.52
469.064	15811.17
469.269	15452.78
469.474	15671.91
469.679	15919.71
469.885	15438.44
470.09	15436.39
470.295	15458.92
470.5	14858.87
470.705	15071.86
470.91	14838.39
471.115	14809.72
471.32	15041.14
471.525	14779
471.73	14443.13
471.935	14475.9
472.139	13914.75
472.344	14115.45
472.549	13849.22
472.754	13740.68
472.959	13820.55
473.164	13126.29
473.369	13214.35
473.574	13673.09
473.778	13433.48
473.983	13413
474.188	13220.49
474.393	12550.81
474.598	12585.62
474.802	12518.04
475.007	12565.14
475.212	12573.33
475.417	11987.61
475.621	12190.36
475.826	12305.05
476.031	11950.75
476.235	11553.45
476.44	11846.3
476.645	11385.51
476.849	11625.12
477.054	11479.72
477.259	11379.37
477.463	11399.85
477.668	11051.69
477.872	11311.78
478.077	10887.86
478.282	10793.65
478.486	10635.96
478.691	10535.6
478.895	10605.24
479.1	10488.5
479.304	10609.33
479.509	10148.54
479.713	10248.89
479.918	10207.93
480.122	9933.5
480.326	10103.48
480.531	10070.72
480.735	9906.88
480.94	9816.77
481.144	10140.35
481.348	9579.2
481.553	9908.93
481.757	9798.34
481.961	9880.25
482.166	9976.51
482.37	9671.36
482.574	9702.08
482.778	9697.99
482.983	9759.42
483.187	9736.9
483.391	9798.34
483.595	9689.79
483.8	9669.31
484.004	9837.25
484.208	9941.69
484.412	9614.02
484.616	9579.2
484.821	9630.4
485.025	9585.35
485.229	9767.62
485.433	9667.27
485.637	9634.5
485.841	9493.19
486.045	9562.82
486.249	9906.88
486.453	9751.23
486.657	9683.65
486.861	9874.11
487.065	9530.05
487.269	9697.99
487.473	9417.41
487.677	9827.01
487.881	9788.1
488.085	9593.54
488.289	9675.46
488.493	9673.41
488.697	9872.06
488.901	9755.33
489.105	9716.42
489.309	9818.82
489.512	9648.83
489.716	9870.01
489.92	9661.12
490.124	9736.9
490.328	9798.34
490.531	9726.66
490.735	9824.96
490.939	9941.69
491.143	9777.86
491.346	9902.78
491.55	9984.7
491.754	10175.16
491.958	10185.4
492.161	10058.43
492.365	10134.2
492.569	10162.87
492.772	10066.62
492.976	10271.42
493.18	10349.24
493.383	10433.21
493.587	10472.12
493.79	10633.91
493.994	10529.46
494.197	10543.8
494.401	10535.6
494.605	10658.48
494.808	10816.18
495.012	10752.69
495.215	10658.48
495.419	10932.91
495.622	10867.38
495.825	11127.47
496.029	11209.39
496.232	11152.04
496.436	11193
496.639	11569.83
496.843	11498.15
497.046	11872.93
497.249	11895.46
497.453	11917.98
497.656	12114.59
497.859	12104.35
498.063	12231.32
498.266	12481.17
498.469	12485.27
498.673	12532.37
498.876	12874.38
499.079	12864.15
499.282	12767.89
499.485	13034.13
499.689	13472.39
499.892	13669
500.095	13628.04
500.298	13724.29
500.501	13705.86
500.705	14021.25
500.908	14105.21
501.111	14076.54
501.314	14443.13
501.517	14525.05
501.72	14791.28
501.923	14582.39
502.126	15184.49
502.329	15170.16
502.532	15389.29
502.735	15374.95
502.938	15708.77
503.141	15741.54
503.344	16034.4
503.547	16050.78
503.75	16489.05
503.953	16730.71
504.156	16616.02
504.359	17132.11
504.562	16996.95
504.765	17361.48
504.968	17416.78
505.17	17578.57
505.373	17613.38
505.576	18111.04
505.779	18010.69
505.982	18317.89
506.185	18668.09
506.387	18534.97
506.59	18817.59
506.793	19315.25
506.996	19065.39
507.198	19741.22
507.401	19335.73
507.604	20087.33
507.807	20255.26
508.009	20347.42
508.212	20429.34
508.415	20617.75
508.617	21125.65
508.82	21178.9
509.022	21027.35
509.225	21271.06
509.428	21535.24
509.63	21613.07
509.833	21887.5
510.035	22534.65
510.238	22182.4
510.44	22512.13
510.643	23075.32
510.845	23116.28
511.048	23103.99
511.25	23306.74
511.453	23448.05
511.655	24314.34
511.858	24138.21
512.06	24537.57
512.262	24732.12
512.465	24453.6
512.667	24945.11
512.87	25053.66
513.072	25455.06
513.274	25768.4
513.477	26327.49
513.679	26212.81
513.881	26098.12
514.084	27011.51
514.286	26608.06
514.488	26653.12
514.69	27697.58
514.893	27277.75
515.095	27738.54
515.297	28082.6
515.499	27787.69
515.701	28610.98
515.904	28817.82
516.106	29186.46
516.308	28850.59
516.51	29340.05
516.712	29446.55
516.914	30169.48
517.116	30126.47
517.318	30556.55
517.52	30646.66
517.722	30654.85
517.925	31086.97
518.127	31385.97
518.329	31627.63
518.531	31410.55
518.733	31803.76
518.935	32381.29
519.136	32303.46
519.338	32985.44
519.54	33114.46
519.742	33368.41
519.944	33681.75
520.146	33939.79
520.348	34115.92
520.55	34324.81
520.752	34476.36
520.954	35129.66
521.155	34505.03
521.357	35381.56
521.559	35213.63
521.761	35907.89
521.963	35729.72
522.164	36309.29
522.366	35809.59
522.568	36692.26
522.77	36821.28
522.971	37194.01
523.173	37198.11
523.375	37511.45
523.576	37335.32
523.778	37732.63
523.98	38367.5
524.181	38013.2
524.383	38394.12
524.584	38572.3
524.786	38672.65
524.988	38541.58
525.189	39287.04
525.391	39321.85
525.592	39753.97
525.794	39643.38
525.995	39756.02
526.197	40200.43
526.398	39661.82
526.6	40251.63
526.801	40253.68
527.003	40462.57
527.204	40597.74
527.406	41287.9
527.607	40927.46
527.808	41246.94
528.01	40562.92
528.211	41070.82
528.412	41879.77
528.614	41607.39
528.815	41666.78
529.016	41777.37
529.218	41304.29
529.419	42000.6
529.62	41851.09
529.822	41758.94
530.023	41967.83
530.224	42023.12
530.425	42358.99
530.626	41720.02
530.828	42084.56
531.029	42705.1
531.23	41701.59
531.431	42330.32
531.632	43047.11
531.833	42477.77
532.035	42778.82
532.236	42760.39
532.437	42537.16
532.638	42713.29
532.839	42862.79
533.04	42719.43
533.241	42502.35
533.442	43405.5
533.643	43155.65
533.844	42754.25
534.045	43077.83
534.246	42330.32
534.447	43083.97
534.648	42584.27
534.849	42760.39
535.05	43043.01
535.251	42891.46
535.451	42834.12
535.652	42993.86
535.853	42850.5
536.054	43321.54
536.255	43344.06
536.456	43071.68
536.657	43473.09
536.857	43034.82
537.058	42686.67
537.259	43573.44
537.46	43309.25
537.66	42899.65
537.861	43262.15
538.062	43317.44
538.263	43165.89
538.463	43172.03
538.664	43294.91
538.865	42901.7
539.065	43063.49
539.266	42539.21
539.466	43688.12
539.667	42514.64
539.868	43724.99
540.068	42653.9
540.269	42924.23
540.469	42905.8
540.67	43100.36
540.87	42936.52
541.071	42821.83
541.271	42991.81
541.472	42942.66
541.672	42621.13
541.873	42641.61
542.073	42037.46
542.274	43086.02
542.474	42535.12
542.675	42504.4
542.875	43106.5
543.075	42649.8
543.276	42338.51
543.476	42938.57
543.676	42602.7
543.877	42844.36
544.077	42657.99
544.277	42684.62
544.478	42729.67
544.678	42791.11
544.878	42733.77
545.078	42784.97
545.279	42531.02
545.479	42481.87
545.679	42655.95
545.879	42512.59
546.079	42324.18
546.28	42469.58
546.48	42238.16
546.68	42541.26
546.88	42422.48
547.08	42393.81
547.28	42473.68
547.48	41912.53
547.68	42567.88
547.88	42283.22
548.081	42674.38
548.281	42535.12
548.481	42272.98
548.681	42600.65
548.881	42369.23
549.081	42412.24
549.28	42180.82
549.48	42334.42
549.68	42088.66
549.88	42510.54
550.08	42293.46
550.28	42549.45
550.48	41920.73
550.68	42623.18
550.88	41916.63
551.08	42397.9
551.279	42295.5
551.479	42031.32
551.679	42250.45
551.879	41748.7
552.079	42221.78
552.278	41892.05
552.478	42322.13
552.678	42291.41
552.878	42268.88
553.077	41943.25
553.277	41924.82
553.477	42502.35
553.676	42117.33
553.876	41715.93
554.076	41818.33
554.275	41939.16
554.475	41384.16
554.674	41836.76
554.874	41812.18
555.074	41359.58
555.273	41691.35
555.473	41924.82
555.672	41504.99
555.872	41580.76
556.071	41605.34
556.271	41580.76
556.47	41242.85
556.67	40847.59
556.869	41425.12
557.068	41517.28
557.268	41181.41
557.467	41466.08
557.667	40880.36
557.866	40816.87
558.065	40827.11
558.265	40386.8
558.464	40583.4
558.663	41130.21
558.863	40745.19
559.062	41486.56
559.261	40749.29
559.461	41070.82
559.66	40278.25
559.859	40866.02
560.058	40298.73
560.258	40663.27
560.457	40016.11
560.656	40589.55
560.855	39930.1
561.054	40405.23
561.253	40638.7
561.453	40055.03
561.652	40112.37
561.851	40206.58
562.05	40216.82
562.249	39557.37
562.448	39688.44
562.647	39770.36
562.846	39577.85
563.045	39530.75
563.244	39653.62
563.443	40138.99
563.642	39246.08
563.841	39454.97
564.04	39342.33
564.239	39545.08
564.438	39244.03
564.637	39035.14
564.836	38885.64
565.035	39020.8
565.234	38729.99
565.432	39041.28
565.631	38639.88
565.83	38635.78
566.029	38564.1
566.228	38600.97
566.427	38492.43
566.625	38404.36
566.824	38203.66
567.023	38437.13
567.222	38101.26
567.42	38674.7
567.619	38213.9
567.818	37732.63
568.016	38222.09
568.215	38459.66
568.414	37837.08
568.612	37927.19
568.811	37703.96
569.01	37407
569.208	37085.47
569.407	37972.24
569.605	37314.84
569.804	37474.59
570.002	36911.39
570.201	37056.8
570.4	36688.17
570.598	37026.08
570.797	36540.71
570.995	36917.54
571.193	36288.81
571.392	36778.28
571.59	36241.71
571.789	36403.5
571.987	36225.32
572.186	36493.61
572.384	36297
572.582	36475.18
572.781	35967.28
572.979	35576.12
573.177	36182.32
573.376	36022.58
573.574	35617.08
573.772	35873.07
573.971	35399.99
574.169	35187
574.367	34718.02
574.565	35268.92
574.763	35076.41
574.962	34832.71
575.16	34488.65
575.358	35082.56
575.556	34433.35
575.754	34955.58
575.952	34822.47
576.151	34791.75
576.349	34472.26
576.547	34527.56
576.745	34339.15
576.943	34570.57
577.141	33880.4
577.339	34310.47
577.537	33970.51
577.735	33925.46
577.933	33536.34
578.131	33995.09
578.329	33700.18
578.527	33349.98
578.725	33722.71
578.923	33786.19
579.121	33089.88
579.319	33182.04
579.516	33565.01
579.714	33304.92
579.912	33010.01
580.11	32952.67
580.308	32868.7
580.506	32426.34
580.704	32342.38
580.901	32934.24
581.099	32616.8
581.297	32579.94
581.495	32164.2
581.692	32661.86
581.89	32006.51
582.088	32297.32
582.285	32219.5
582.483	32065.9
582.681	32096.62
582.878	31846.77
583.076	31404.41
583.274	32379.24
583.471	31418.74
583.669	31746.42
583.866	31289.72
584.064	31615.35
584.262	31232.38
584.459	31263.1
584.657	31082.88
584.854	31355.25
585.052	30609.79
585.249	30966.14
585.447	30783.87
585.644	30683.52
585.841	30611.84
586.039	30732.67
586.236	30427.53
586.434	30583.17
586.631	30376.33
586.828	30255.5
587.026	30482.82
587.223	30024.08
587.42	30028.17
587.618	29952.4
587.815	29710.74
588.012	29901.2
588.21	29499.8
588.407	30065.03
588.604	29745.55
588.801	29290.9
588.999	28918.17
589.196	29321.62
589.393	29335.96
589.59	29178.26
589.787	28764.57
589.984	28869.02
590.182	28729.76
590.379	28866.97
590.576	28496.29
590.773	28660.13
590.97	28600.74
591.167	28651.94
591.364	28121.51
591.561	28549.54
591.758	27947.43
591.955	28107.18
592.152	28207.53
592.349	27883.95
592.546	27777.45
592.743	28006.83
592.94	27437.49
593.137	27797.93
593.334	27984.3
593.531	27249.08
593.727	27918.76
593.924	27408.82
594.121	27265.46
594.318	27398.58
594.515	26870.2
594.712	27283.89
594.908	27228.6
595.105	27015.61
595.302	26569.15
595.499	26810.81
595.696	26552.77
595.892	26784.19
596.089	26982.84
596.286	26487.23
596.482	26126.79
596.679	26368.45
596.876	26429.89
597.072	26091.98
597.269	25768.4
597.466	25811.4
597.662	25891.27
597.859	25782.73
598.055	25862.6
598.252	25713.1
598.448	25762.25
598.645	25797.07
598.841	25502.16
599.038	25248.21
599.234	25530.83
599.431	24910.3
599.627	24961.5
599.824	25283.03
600.02	24879.58
600.217	24986.07
600.413	24916.44
600.609	24832.47
600.806	24861.15
601.002	24447.46
601.198	24367.59
601.395	24619.49
601.591	24453.6
601.787	24488.42
601.984	24390.11
602.18	24381.92
602.376	23992.81
602.572	24025.57
602.769	24175.08
602.965	23894.5
603.161	23863.79
603.357	23656.94
603.553	23667.18
603.75	23861.74
603.946	23392.75
604.142	23792.11
604.338	23368.18
604.534	23280.11
604.73	22942.2
604.926	23155.19
605.122	23273.97
605.318	22903.29
605.514	23060.98
605.71	22739.45
605.906	23069.17
606.102	22635
606.298	22856.18
606.494	22845.94
606.69	22372.86
606.886	22678.01
607.082	22583.8
607.278	22823.42
607.474	22106.63
607.67	22675.96
607.866	22184.45
608.062	22602.24
608.257	22366.72
608.453	22327.81
608.649	22221.31
608.845	21856.78
609.041	22186.5
609.236	21803.53
609.432	21971.46
609.628	22002.18
609.824	21807.62
610.019	21531.15
610.215	21737.99
610.411	21920.26
610.606	21453.33
610.802	21676.55
610.998	21369.36
611.193	21518.86
611.389	21510.67
611.584	21639.69
611.78	21230.1
611.976	21178.9
612.171	21377.55
612.367	21389.84
612.562	21289.49
612.758	21080.6
612.953	20912.66
613.149	21289.49
613.344	20998.68
613.539	21191.19
613.735	21060.12
613.93	21004.82
614.126	20636.19
614.321	20953.62
614.517	20933.14
614.712	20738.58
614.907	20693.53
615.103	20757.02
615.298	20673.05
615.493	20855.32
615.688	20460.06
615.884	21043.73
616.079	20242.98
616.274	20627.99
616.47	20263.46
616.665	20630.04
616.86	20402.72
617.055	20040.23
617.25	20435.49
617.445	20365.85
617.641	20044.32
617.836	20146.72
618.031	20077.09
618.226	20120.1
618.421	19773.99
618.616	20093.47
618.811	19780.14
619.006	19946.02
619.201	19573.29
619.396	19769.9
619.591	19241.52
619.786	19706.41
619.981	19132.98
620.176	19622.44
620.371	19202.61
620.566	19255.86
620.761	19036.72
620.956	19184.18
621.151	18778.68
621.346	18805.3
621.541	18281.02
621.735	18829.88
621.93	18436.67
622.125	18446.91
622.32	18332.22
622.515	18195.01
622.709	18096.71
622.904	18301.5
623.099	18197.06
623.294	17875.52
623.488	17750.6
623.683	17961.54
623.878	17568.33
624.072	17746.5
624.267	17619.53
624.462	17359.44
624.656	17220.17
624.851	17263.18
625.046	17238.61
625.24	16978.51
625.435	16964.18
625.629	17115.73
625.824	16826.96
626.018	16867.92
626.213	16343.64
626.407	16220.77
626.602	16165.47
626.796	16507.48
626.991	16286.3
627.185	16159.33
627.38	16124.51
627.574	16122.46
627.768	15762.02
627.963	15702.63
628.157	15790.69
628.352	15719.01
628.546	15508.07
628.74	15557.22
628.935	15397.48
629.129	15323.76
629.323	15340.14
629.517	15288.94
629.712	15112.81
629.906	15090.29
630.1	14715.51
630.294	14946.93
630.489	14899.83
630.683	14713.46
630.877	14649.97
631.071	14379.64
631.265	14654.07
631.459	14385.79
631.653	14158.46
631.848	14318.2
632.042	14283.39
632.236	14338.68
632.43	14011.01
632.624	14117.5
632.818	13929.09
633.012	13570.69
633.206	13771.4
633.4	13664.9
633.594	13404.81
633.788	13730.44
633.982	13599.37
634.176	13251.21
634.369	13335.18
634.563	13185.68
634.757	13195.92
634.951	13318.79
635.145	13003.41
635.339	12950.16
635.533	12982.93
635.726	12847.76
635.92	12630.68
636.114	12964.5
636.308	12771.99
636.501	12337.82
636.695	12690.07
636.889	12495.51
637.083	12427.93
637.276	12452.5
637.47	12380.82
637.664	12167.84
637.857	12112.54
638.051	12001.95
638.244	11879.07
638.438	11907.74
638.632	11952.8
638.825	11707.04
639.019	11735.71
639.212	11862.69
639.406	11737.76
639.599	11492.01
639.793	11537.06
639.986	11424.42
640.18	11309.74
640.373	11393.7
640.567	11158.19
640.76	11143.85
640.954	11082.41
641.147	11240.11
641.34	11145.9
641.534	10887.86
641.727	10973.87
641.92	10904.24
642.114	10750.64
642.307	10875.57
642.5	10717.87
642.694	10502.84
642.887	10445.49
643.08	10625.72
643.273	10580.66
643.467	10578.61
643.66	10279.61
643.853	10171.07
644.046	10140.35
644.239	10369.72
644.432	10281.66
644.626	9958.08
644.819	9939.65
645.012	10060.48
645.205	9835.2
645.398	10130.11
645.591	9790.14
645.784	9851.58
645.977	9618.11
646.17	9765.57
646.363	9411.27
646.556	9503.43
646.749	9462.47
646.942	9470.66
647.135	9558.72
647.328	9343.69
647.521	9470.66
647.714	9198.28
647.907	9229
648.099	9220.81
648.292	9038.54
648.485	9050.83
648.678	8997.58
648.871	8942.28
649.064	8975.05
649.256	8966.86
649.449	8907.47
649.642	8747.73
649.835	8647.38
650.027	8899.28
650.22	8733.39
650.413	8674
650.605	8641.23
650.798	8534.74
650.991	8409.81
651.183	8592.08
651.376	8174.3
651.568	8430.29
651.761	8352.47
651.954	8346.33
652.146	8207.06
652.339	8133.34
652.531	8260.31
652.724	7940.83
652.916	8008.41
653.109	8063.71
653.301	7973.6
653.494	8071.9
653.686	7779.04
653.879	7961.31
654.071	7881.44
654.263	7703.26
654.456	7580.39
654.648	7791.33
654.84	7574.24
655.033	7592.67
655.225	7639.78
655.417	7766.75
655.61	7676.64
655.802	7580.39
655.994	7277.29
656.186	7428.84
656.379	7267.05
656.571	7242.47
656.763	7242.47
656.955	7252.71
657.148	7254.76
657.34	7160.55
657.532	6994.67
657.724	7090.92
657.916	7135.98
658.108	7092.97
658.3	7076.59
658.492	6914.8
658.684	6857.45
658.876	6890.22
659.068	6867.69
659.26	6832.88
659.452	6920.94
659.644	6687.47
659.836	6576.88
660.028	6669.04
660.22	6523.63
660.412	6636.27
660.604	6492.91
660.796	6576.88
660.988	6275.83
661.18	6466.29
661.372	6345.46
661.563	6509.3
661.755	6302.45
661.947	6279.93
662.139	6249.21
662.331	6212.34
662.522	6265.59
662.714	6097.66
662.906	6071.03
663.097	6216.44
663.289	6275.83
663.481	6228.73
663.673	6214.39
663.864	5790.46
664.056	5911.29
664.247	5948.15
664.439	5890.81
664.631	5923.58
664.822	5872.38
665.014	5890.81
665.205	5913.34
665.397	5743.36
665.588	5690.11
665.78	5657.34
665.971	5600
666.163	5769.98
666.354	5657.34
666.546	5614.34
666.737	5671.68
666.929	5593.86
667.12	5626.62
667.311	5427.97
667.503	5380.87
667.694	5411.59
667.885	5395.2
668.077	5313.28
668.268	5301
668.459	5348.1
668.651	5409.54
668.842	5309.19
669.033	5247.75
669.224	5239.56
669.416	5182.21
669.607	5395.2
669.798	5081.86
669.989	5260.04
670.18	5174.02
670.371	5079.82
670.563	4975.37
670.754	5190.41
670.945	5122.82
671.136	4940.55
671.327	4936.46
671.518	4889.35
671.709	4836.11
671.9	5098.25
672.091	4893.45
672.282	4866.83
672.473	4860.68
672.664	4920.07
672.855	4721.42
673.046	4768.52
673.237	4895.5
673.428	4809.48
673.619	4659.98
673.809	4655.89
674	4750.09
674.191	4709.13
674.382	4688.65
674.573	4549.39
674.764	4713.23
674.954	4678.41
675.145	4561.68
675.336	4666.13
675.527	4711.18
675.717	4565.78
675.908	4500.24
676.099	4598.54
676.289	4596.5
676.48	4416.27
676.671	4504.34
676.861	4612.88
677.052	4416.27
677.243	4379.41
677.433	4451.09
677.624	4426.51
677.814	4520.72
678.005	4395.79
678.195	4252.44
678.386	4459.28
678.576	4399.89
678.767	4369.17
678.957	4229.91
679.148	4274.96
679.338	4078.36
679.529	4238.1
679.719	4268.82
679.909	4311.83
680.1	4182.81
680.29	4289.3
680.481	3990.3
680.671	4174.61
680.861	4186.9
681.052	4193.05
681.242	4147.99
681.432	4193.05
681.622	4012.82
681.813	4033.3
682.003	4098.84
682.193	4109.08
682.383	4084.5
682.573	4010.78
682.764	4000.54
682.954	4070.17
683.144	4147.99
683.334	4010.78
683.524	3963.67
683.714	4025.11
683.904	3920.67
684.094	3842.84
684.284	4004.63
684.474	3996.44
684.664	3967.77
684.854	3978.01
685.044	3871.51
685.234	3875.61
685.424	3879.71
685.614	3896.09
685.804	3914.52
685.994	3859.23
686.184	3801.88
686.374	3765.02
686.564	3681.05
686.753	3928.86
686.943	3676.96
687.133	3760.92
687.323	3592.99
687.513	3783.45
687.702	3463.97
687.892	3660.57
688.082	3650.33
688.272	3654.43
688.461	3769.12
688.651	3695.39
688.841	3554.08
689.03	3601.18
689.22	3472.16
689.41	3437.34
689.599	3543.84
689.789	3488.54
689.979	3547.94
690.168	3564.32
690.358	3437.34
690.547	3453.73
690.737	3357.47
690.926	3402.53
691.116	3377.95
691.305	3390.24
691.495	3390.24
691.684	3302.18
691.874	3353.38
692.063	3316.51
692.252	3302.18
692.442	3246.88
692.631	3226.4
692.82	3267.36
693.01	3158.82
693.199	3103.53
693.388	3105.57
693.578	3148.58
693.767	3199.78
693.956	3199.78
694.146	3140.39
694.335	3140.39
694.524	3160.87
694.713	3154.73
694.902	3078.95
695.092	3025.7
695.281	3068.71
695.47	3128.1
695.659	3173.16
695.848	2994.98
696.037	2937.64
696.226	3031.85
696.415	3029.8
696.604	3066.66
696.793	2929.45
696.982	3029.8
697.171	2999.08
697.36	2968.36
697.549	2980.65
697.738	2966.31
697.927	2880.3
698.116	2843.43
698.305	3040.04
698.494	2870.06
698.683	2945.83
698.872	2951.98
699.061	2947.88
699.25	2949.93
699.438	2794.28
699.627	2841.39
699.816	2911.02
700.005	2849.58
700.193	2964.26
700.382	2902.83
700.571	2954.02
700.76	2843.43
700.948	2915.11
701.137	2781.99
701.326	3027.75
701.514	2890.54
701.703	2861.87
701.892	2749.23
702.08	2825
702.269	2902.83
702.457	2904.87
702.646	2691.88
702.834	2800.43
703.023	2872.11
703.212	2878.25
703.4	2855.72
703.589	2747.18
703.777	2822.95
703.965	2722.6
704.154	2736.94
704.342	2642.73
704.531	2695.98
704.719	2743.08
704.907	2706.22
705.096	2718.51
705.284	2790.19
705.472	2728.75
705.661	2847.53
705.849	2761.52
706.037	2734.89
706.226	2687.79
706.414	2724.65
706.602	2642.73
706.79	2704.17
706.979	2642.73
707.167	2659.12
707.355	2632.49
707.543	2763.56
707.731	2808.62
707.919	2732.84
708.107	2757.42
708.296	2757.42
708.484	2577.2
708.672	2667.31
708.86	2724.65
709.048	2612.01
709.236	2640.69
709.424	2757.42
709.612	2681.64
709.8	2695.98
709.988	2659.12
710.176	2601.77
710.364	2683.69
710.551	2646.83
710.739	2786.09
710.927	2669.36
711.115	2675.5
711.303	2620.21
711.491	2601.77
711.679	2591.53
711.866	2573.1
712.054	2720.56
712.242	2544.43
712.43	2612.01
712.617	2585.39
712.805	2521.9
712.993	2595.63
713.181	2509.62
713.368	2648.88
713.556	2569.01
713.744	2599.73
713.931	2571.05
714.119	2702.12
714.306	2620.21
714.494	2710.32
714.682	2571.05
714.869	2554.67
715.057	2626.35
715.244	2513.71
715.432	2597.68
715.619	2544.43
715.807	2548.53
715.994	2644.78
716.182	2605.87
716.369	2577.2
716.556	2638.64
716.744	2507.57
716.931	2642.73
717.119	2569.01
717.306	2521.9
717.493	2599.73
717.681	2487.09
717.868	2394.93
718.055	2710.32
718.242	2538.29
718.43	2595.63
718.617	2544.43
718.804	2503.47
718.991	2489.14
719.179	2579.25
719.366	2558.77
719.553	2493.23
719.74	2614.06
719.927	2581.29
720.114	2589.49
720.301	2437.94
720.488	2632.49
720.676	2368.31
720.863	2491.18
721.05	2560.81
721.237	2528.05
721.424	2575.15
721.611	2509.62
721.798	2556.72
721.985	2589.49
722.172	2595.63
722.358	2538.29
722.545	2505.52
722.732	2579.25
722.919	2538.29
723.106	2585.39
723.293	2425.65
723.48	2532.14
723.667	2528.05
723.853	2558.77
724.04	2476.85
724.227	2521.9
724.414	2536.24
724.6	2487.09
724.787	2622.25
724.974	2622.25
725.161	2482.99
725.347	2431.79
725.534	2478.9
725.72	2458.42
725.907	2491.18
726.094	2417.46
726.28	2509.62
726.467	2415.41
726.653	2523.95
726.84	2620.21
727.027	2540.33
727.213	2460.46
727.4	2466.61
727.586	2523.95
727.773	2478.9
727.959	2480.94
728.145	2491.18
728.332	2487.09
728.518	2526
728.705	2466.61
728.891	2519.85
729.077	2526
729.264	2497.33
729.45	2495.28
729.636	2591.53
729.823	2442.03
730.009	2517.81
730.195	2444.08
730.382	2470.7
730.568	2419.5
730.754	2454.32
730.94	2413.36
731.126	2476.85
731.313	2511.66
731.499	2399.02
731.685	2501.42
731.871	2544.43
732.057	2425.65
732.243	2448.18
732.429	2497.33
732.615	2542.38
732.801	2560.81
732.987	2595.63
733.173	2368.31
733.359	2509.62
733.545	2444.08
733.731	2487.09
733.917	2499.38
734.103	2446.13
734.289	2558.77
734.475	2485.04
734.661	2528.05
734.847	2392.88
735.033	2466.61
735.219	2452.27
735.404	2548.53
735.59	2466.61
735.776	2528.05
735.962	2609.97
736.148	2517.81
736.333	2431.79
736.519	2472.75
736.705	2462.51
736.89	2317.11
737.076	2476.85
737.262	2415.41
737.447	2442.03
737.633	2450.22
737.819	2366.26
738.004	2337.59
738.19	2394.93
738.375	2356.02
738.561	2513.71
738.747	2308.91
738.932	2351.92
739.118	2341.68
739.303	2292.53
739.489	2401.07
739.674	2224.95
739.859	2315.06
740.045	2368.31
740.23	2376.5
740.416	2261.81
740.601	2376.5
740.786	2319.15
740.972	2272.05
741.157	2222.9
741.342	2220.85
741.528	2282.29
741.713	2276.15
741.898	2347.83
742.084	2200.37
742.269	2296.63
742.454	2175.8
742.639	2280.24
742.824	2327.35
743.01	2218.8
743.195	2224.95
743.38	2190.13
743.565	2306.87
743.75	2126.64
743.935	2253.62
744.12	2169.65
744.305	2198.32
744.49	2126.64
744.675	2167.6
744.86	2210.61
745.045	2046.77
745.23	2171.7
745.415	2089.78
745.6	2167.6
745.785	2136.88
745.97	2073.4
746.155	2130.74
746.34	2143.03
746.525	1999.67
746.71	2048.82
746.895	2009.91
747.079	1962.81
747.264	2024.25
747.449	1997.62
747.634	2118.45
747.819	2016.05
748.003	1927.99
748.188	1901.37
748.373	1983.29
748.557	1790.78
748.742	1893.18
748.927	1858.36
749.111	1923.9
749.296	1903.42
749.481	1962.81
749.665	1844.03
749.85	1856.31
750.034	1823.55
750.219	1760.06
750.404	1796.92
750.588	1825.59
750.773	1729.34
750.957	1829.69
751.141	1792.83
751.326	1766.2
751.51	1745.72
751.695	1739.58
751.879	1770.3
752.064	1762.11
752.248	1831.74
752.432	1772.35
752.617	1698.62
752.801	1770.3
752.985	1540.93
753.17	1708.86
753.354	1631.04
753.538	1743.67
753.722	1622.84
753.907	1608.51
754.091	1504.06
754.275	1506.11
754.459	1598.27
754.643	1538.88
754.828	1561.41
755.012	1502.01
755.196	1557.31
755.38	1432.38
755.564	1444.67
755.748	1448.77
755.932	1411.9
756.116	1579.84
756.3	1579.84
756.484	1614.65
756.668	1520.45
756.852	1444.67
757.036	1418.05
757.22	1366.85
757.404	1397.57
757.588	1387.33
757.772	1469.25
757.956	1397.57
758.14	1438.53
758.323	1354.56
758.507	1430.34
758.691	1350.46
758.875	1340.22
759.059	1299.27
759.242	1354.56
759.426	1254.21
759.61	1297.22
759.794	1301.31
759.977	1258.31
760.161	1413.95
760.345	1356.61
760.528	1329.99
760.712	1272.64
760.895	1346.37
761.079	1110.85
761.263	1200.96
761.446	1295.17
761.63	1209.15
761.813	1184.58
761.997	1209.15
762.18	1213.25
762.364	1190.72
762.547	1143.62
762.731	1162.05
762.914	1133.38
763.098	1106.76
763.281	1295.17
763.464	1104.71
763.648	1188.68
763.831	1121.09
764.015	1229.63
764.198	1078.08
764.381	1170.24
764.564	1231.68
764.748	1067.85
764.931	1235.78
765.114	1160
765.297	1205.06
765.481	1141.57
765.664	1141.57
765.847	1157.96
766.03	1141.57
766.213	1059.65
766.397	1114.95
766.58	1026.89
766.763	1153.86
766.946	1045.32
767.129	1119.04
767.312	1043.27
767.495	1041.22
767.678	1065.8
767.861	1061.7
768.044	1028.93
768.227	1076.04
768.41	992.07
768.593	1123.14
768.776	1014.6
768.959	1008.45
769.142	1020.74
769.324	1041.22
769.507	1039.17
769.69	1016.65
769.873	951.11
770.056	1047.37
770.239	1037.13
770.421	1014.6
770.604	1010.5
770.787	963.4
770.97	934.73
771.152	922.44
771.335	979.78
771.518	906.06
771.7	979.78
771.883	947.01
772.066	955.21
772.248	944.97
772.431	942.92
772.613	965.45
772.796	871.24
772.978	863.05
773.161	944.97
773.343	895.82
773.526	930.63
773.708	877.38
773.891	940.87
774.073	867.14
774.256	879.43
774.438	861
774.621	891.72
774.803	906.06
774.985	842.57
775.168	799.56
775.35	805.71
775.532	811.85
775.715	756.55
775.897	772.94
776.079	754.51
776.261	867.14
776.444	820.04
776.626	822.09
776.808	783.18
776.99	768.84
777.173	820.04
777.355	787.27
777.537	803.66
777.719	789.32
777.901	713.55
778.083	713.55
778.265	760.65
778.447	758.6
778.629	734.03
778.811	662.35
778.993	750.41
779.175	744.27
779.357	750.41
779.539	707.4
779.721	670.54
779.903	717.64
780.085	684.87
780.267	701.26
780.449	725.83
780.631	797.51
780.812	750.41
780.994	664.4
781.176	734.03
781.358	684.87
781.54	666.44
781.721	586.57
781.903	637.77
782.085	678.73
782.267	576.33
782.448	559.95
782.63	666.44
782.812	557.9
782.993	676.68
783.175	615.24
783.357	619.34
783.538	578.38
783.72	615.24
783.901	535.37
784.083	564.04
784.264	529.23
784.446	545.61
784.627	539.47
784.809	584.52
784.99	570.19
785.172	564.04
785.353	498.51
785.535	545.61
785.716	455.5
785.897	568.14
786.079	529.23
786.26	506.7
786.441	537.42
786.623	490.32
786.804	553.8
786.985	502.61
787.167	490.32
787.348	602.96
787.529	420.69
787.71	564.04
787.891	572.24
788.073	512.85
788.254	416.59
788.435	518.99
788.616	496.46
788.797	443.21
788.978	322.38
789.159	389.97
789.34	422.73
789.522	418.64
789.703	342.86
789.884	496.46
790.065	420.69
790.246	451.41
790.427	400.21
790.607	451.41
790.788	430.93
790.969	404.3
791.15	475.98
791.331	357.2
791.512	361.3
791.693	445.26
791.874	402.26
792.054	453.45
792.235	375.63
792.416	369.49
792.597	312.14
792.778	412.5
792.958	363.34
793.139	338.77
793.32	355.15
793.5	326.48
793.681	359.25
793.862	371.54
794.042	400.21
794.223	312.14
794.404	424.78
794.584	283.47
794.765	330.58
794.945	324.43
795.126	312.14
795.306	316.24
795.487	267.09
795.667	330.58
795.848	326.48
796.028	267.09
796.209	303.95
796.389	383.82
796.57	281.43
796.75	260.95
796.93	297.81
797.111	330.58
797.291	271.19
797.471	308.05
797.652	316.24
797.832	287.57
798.012	346.96
798.192	283.47
798.373	271.19
798.553	291.66
798.733	242.51
798.913	283.47
799.093	234.32
799.274	330.58
799.454	306
799.634	279.38
799.814	320.34
799.994	316.24
800.174	262.99
800.354	283.47
800.534	285.52
800.714	273.23
800.894	279.38
801.074	287.57
801.254	273.23
801.434	256.85
801.614	262.99
801.794	265.04
801.974	652.11
802.154	250.71
802.334	277.33
802.514	179.03
802.693	267.09
802.873	285.52
803.053	273.23
803.233	230.23
803.413	324.43
803.592	213.84
803.772	265.04
803.952	279.38
804.131	238.42
804.311	246.61
804.491	234.32
804.67	226.13
804.85	236.37
805.03	254.8
805.209	252.75
805.389	158.55
805.568	203.6
805.748	199.51
805.928	265.04
806.107	297.81
806.287	224.08
806.466	271.19
806.646	281.43
806.825	258.9
807.004	244.56
807.184	203.6
807.363	303.95
807.543	172.88
807.722	254.8
807.901	215.89
808.081	252.75
808.26	160.59
808.439	176.98
808.619	252.75
808.798	260.95
808.977	172.88
809.156	222.03
809.336	219.99
809.515	199.51
809.694	179.03
809.873	246.61
810.052	201.55
810.231	265.04
810.411	158.55
810.59	70.48
810.769	152.4
810.948	228.18
811.127	103.25
811.306	185.17
811.485	201.55
811.664	246.61
811.843	168.79
812.022	224.08
812.201	127.83
812.38	166.74
812.559	183.12
812.737	289.62
812.916	154.45
813.095	119.64
813.274	209.75
813.453	228.18
813.632	156.5
813.811	201.55
813.989	197.46
814.168	195.41
814.347	162.64
814.526	230.23
814.704	211.79
814.883	140.12
815.062	127.83
815.24	189.27
815.419	183.12
815.598	140.12
815.776	176.98
815.955	228.18
816.133	164.69
816.312	164.69
816.49	176.98
816.669	265.04
816.847	179.03
817.026	164.69
817.204	97.11
817.383	90.96
817.561	166.74
817.74	170.83
817.918	176.98
818.097	156.5
818.275	101.2
818.453	162.64
818.632	93.01
818.81	148.31
818.988	129.88
819.167	156.5
819.345	213.84
819.523	201.55
819.701	101.2
819.879	123.73
820.058	156.5
820.236	123.73
820.414	172.88
820.592	142.16
820.77	101.2
820.948	105.3
821.127	203.6
821.305	142.16
821.483	150.36
821.661	144.21
821.839	172.88
822.017	119.64
822.195	150.36
822.373	127.83
822.551	125.78
822.729	111.44
822.907	123.73
823.085	152.4
823.262	160.59
823.44	88.92
823.618	60.24
823.796	111.44
823.974	125.78
824.152	156.5
824.329	154.45
824.507	99.16
824.685	164.69
824.863	107.35
825.04	136.02
825.218	125.78
825.396	78.68
825.574	131.92
825.751	66.39
825.929	152.4
826.107	97.11
826.284	133.97
826.462	113.49
826.639	131.92
826.817	70.48
826.994	107.35
827.172	144.21
827.349	127.83
827.527	189.27
827.704	105.3
827.882	86.87
828.059	115.54
828.237	156.5
828.414	115.54
828.591	80.72
828.769	172.88
828.946	74.58
829.124	41.81
829.301	88.92
829.478	45.91
829.655	101.2
829.833	97.11
830.01	111.44
830.187	117.59
830.364	66.39
830.542	156.5
830.719	93.01
830.896	60.24
831.073	66.39
831.25	86.87
831.427	170.83
831.604	99.16
831.782	19.29
831.959	47.96
832.136	107.35
832.313	90.96
832.49	105.3
832.667	115.54
832.844	90.96
833.021	101.2
833.198	93.01
833.374	140.12
833.551	101.2
833.728	99.16
833.905	78.68
834.082	103.25
834.259	107.35
834.436	80.72
834.612	58.2
834.789	72.53
834.966	107.35
835.143	64.34
835.319	31.57
835.496	166.74
835.673	70.48
835.85	181.07
836.026	84.82
836.203	164.69
836.38	17.24
836.556	-1.19
836.733	113.49
836.909	86.87
837.086	13.14
837.262	72.53
837.439	93.01
837.616	19.29
837.792	133.97
837.968	111.44
838.145	103.25
838.321	52.05
838.498	39.76
838.674	109.4
838.851	109.4
839.027	80.72
839.203	-36.01
839.38	103.25
839.556	70.48
839.732	13.14
839.909	47.96
840.085	60.24
840.261	35.67
840.437	11.09
840.614	17.24
840.79	50
840.966	45.91
841.142	37.72
841.318	58.2
841.494	76.63
841.671	37.72
841.847	76.63
842.023	33.62
842.199	37.72
842.375	107.35
842.551	7
842.727	86.87
842.903	17.24
843.079	23.38
843.255	11.09
843.431	47.96
843.607	125.78
843.783	60.24
843.959	41.81
844.134	45.91
844.31	74.58
844.486	2.9
844.662	76.63
844.838	72.53
845.013	45.91
845.189	93.01
845.365	4.95
845.541	136.02
845.716	27.48
845.892	101.2
846.068	45.91
846.244	7
846.419	64.34
846.595	64.34
846.77	41.81
846.946	58.2
847.122	33.62
847.297	17.24
847.473	84.82
847.648	23.38
847.824	74.58
847.999	-21.67
848.175	66.39
848.35	11.09
848.526	45.91
848.701	76.63
848.876	54.1
849.052	160.59
849.227	111.44
849.403	2.9
849.578	103.25
849.753	23.38
849.929	80.72
850.104	13.14
850.279	86.87
850.454	101.2
850.63	56.15
850.805	29.52
850.98	15.19
851.155	43.86
851.33	11.09
851.505	-5.29
851.681	88.92
851.856	39.76
852.031	11.09
852.206	140.12
852.381	78.68
852.556	0.85
852.731	-1.19
852.906	76.63
853.081	78.68
853.256	-23.72
853.431	4.95
853.606	19.29
853.781	93.01
853.956	54.1
854.131	2.9
854.305	15.19
854.48	27.48
854.655	11.09
854.83	-38.06
855.005	-1.19
855.18	129.88
855.354	45.91
855.529	25.43
855.704	-107.69
855.879	43.86
856.053	2.9
856.228	72.53
856.403	11.09
856.577	60.24
856.752	0.85
856.926	23.38
857.101	2.9
857.276	60.24
857.45	23.38
857.625	90.96
857.799	78.68
857.974	33.62
858.148	13.14
858.323	21.33
858.497	19.29
858.672	86.87
858.846	23.38
859.02	41.81
859.195	31.57
859.369	29.52
859.543	78.68
859.718	78.68
859.892	29.52
860.066	95.06
860.241	13.14
860.415	7
860.589	13.14
860.763	45.91
860.938	68.44
861.112	52.05
861.286	82.77
861.46	50
861.634	23.38
861.808	52.05
861.982	-13.48
862.157	41.81
862.331	35.67
862.505	-31.91
862.679	43.86
862.853	70.48
863.027	60.24
863.201	72.53
863.375	-79.02
863.549	50
863.722	2.9
863.896	33.62
864.07	9.05
864.244	60.24
864.418	93.01
864.592	33.62
864.766	9.05
864.939	-36.01
865.113	54.1
865.287	31.57
865.461	-87.21
865.634	97.11
865.808	-48.3
865.982	35.67
866.156	52.05
866.329	-27.82
866.503	17.24
866.676	25.43
866.85	4.95
867.024	21.33
867.197	109.4
867.371	17.24
867.544	47.96
867.718	-68.78
867.891	90.96
868.065	4.95
868.238	21.33
868.412	25.43
868.585	13.14
868.759	-40.11
868.932	29.52
869.105	35.67
869.279	-11.43
869.452	45.91
869.625	70.48
869.799	-3.24
869.972	-68.78
870.145	-29.87
870.319	31.57
870.492	41.81
870.665	52.05
870.838	11.09
871.011	-33.96
871.185	7
871.358	58.2
871.531	4.95
871.704	54.1
871.877	23.38
872.05	37.72
872.223	45.91
872.396	-36.01
872.569	0.85
872.742	-68.78
872.915	45.91
873.088	-36.01
873.261	62.29
873.434	7
873.607	2.9
873.78	45.91
873.953	50
874.126	-7.34
874.299	2.9
874.471	31.57
874.644	-21.67
874.817	62.29
874.99	15.19
875.163	74.58
875.335	11.09
875.508	2.9
875.681	13.14
875.853	-48.3
876.026	64.34
876.199	4.95
876.371	-3.24
876.544	52.05
876.717	-15.53
876.889	0.85
877.062	9.05
877.234	-17.58
877.407	45.91
877.579	62.29
877.752	15.19
877.924	-3.24
878.097	43.86
878.269	-13.48
878.442	33.62
878.614	-33.96
878.786	68.44
878.959	60.24
879.131	-38.06
879.303	-1.19
879.476	31.57
879.648	54.1
879.82	29.52
879.993	4.95
880.165	64.34
880.337	4.95
880.509	7
880.681	-1.19
880.854	47.96
881.026	-19.63
881.198	7
881.37	7
881.542	13.14
881.714	45.91
881.886	-17.58
882.058	31.57
882.23	-50.35
882.402	-27.82
882.574	-11.43
882.746	-25.77
882.918	56.15
883.09	-1.19
883.262	-9.39
883.434	4.95
883.606	-79.02
883.778	25.43
883.95	-23.72
884.122	-31.91
884.293	39.76
884.465	-19.63
884.637	68.44
884.809	-7.34
884.98	-11.43
885.152	13.14
885.324	56.15
885.496	-42.15
885.667	27.48
885.839	7
886.011	13.14
886.182	-25.77
886.354	4.95
886.525	-11.43
886.697	-64.68
886.869	-1.19
887.04	-7.34
887.212	23.38
887.383	9.05
887.555	-5.29
887.726	-7.34
887.897	0.85
888.069	-25.77
888.24	4.95
888.412	11.09
888.583	-7.34
888.754	66.39
888.926	0.85
889.097	-36.01
889.268	2.9
889.44	50
889.611	-56.49
889.782	-52.39
889.953	-9.39
890.125	-58.54
890.296	-117.93
890.467	0.85
890.638	39.76
890.809	-25.77
890.98	21.33
891.151	27.48
891.323	-62.63
891.494	-52.39
891.665	9.05
891.836	-40.11
892.007	-11.43
892.178	13.14
892.349	-5.29
892.52	62.29
892.691	-23.72
892.862	25.43
893.032	31.57
893.203	45.91
893.374	45.91
893.545	68.44
893.716	13.14
893.887	0.85
894.057	4.95
894.228	-1.19
894.399	17.24
894.57	27.48
894.74	-60.59
894.911	86.87
895.082	-3.24
895.253	-56.49
895.423	-72.87
895.594	-60.59
895.764	-29.87
895.935	-56.49
896.106	54.1
896.276	9.05
896.447	-15.53
896.617	-5.29
896.788	-9.39
896.958	35.67
897.129	-79.02
897.299	31.57
897.47	4.95
897.64	45.91
897.81	-11.43
897.981	-5.29
898.151	-19.63
898.322	-7.34
898.492	-3.24
898.662	72.53
898.832	-17.58
899.003	-3.24
899.173	39.76
899.343	29.52
899.513	-5.29
