Data from USB4F104151__146__11-08-18-111.txt Node

Date: Wed Mar 12 11:08:18 EDT 2025
User: louis
Spectrometer: USB4F10415
Trigger mode: 4
Integration Time (sec): 2.000000E-2
Scans to average: 1
Electric dark correction enabled: true
Nonlinearity correction enabled: false
Boxcar width: 0
XAxis mode: Wavelengths
Number of Pixels in Spectrum: 3648
>>>>>Begin Spectral Data<<<<<
178.204	-76.63
178.424	-76.63
178.644	-76.63
178.864	-84.82
179.084	-45.91
179.304	-41.81
179.524	-31.57
179.744	-45.91
179.964	5.29
180.184	13.48
180.404	126.12
180.624	-58.2
180.844	46.25
181.064	-58.2
181.283	38.06
181.503	-0.85
181.723	7.34
181.943	-19.29
182.163	97.45
182.383	81.07
182.602	62.63
182.822	64.68
183.042	54.44
183.262	-58.2
183.482	-17.24
183.701	3.24
183.921	66.73
184.141	31.91
184.361	11.43
184.58	66.73
184.8	44.2
185.02	-25.43
185.239	68.78
185.459	-11.09
185.679	9.39
185.898	-101.2
186.118	-21.33
186.338	25.77
186.557	3.24
186.777	68.78
186.997	54.44
187.216	52.39
187.436	81.07
187.655	83.11
187.875	-2.9
188.095	31.91
188.314	70.83
188.534	58.54
188.753	50.35
188.973	103.59
189.192	81.07
189.412	25.77
189.631	38.06
189.851	5.29
190.07	62.63
190.29	50.35
190.509	-7
190.729	25.77
190.948	64.68
191.168	95.4
191.387	105.64
191.607	-2.9
191.826	31.91
192.045	13.48
192.265	99.5
192.484	56.49
192.704	5.29
192.923	117.93
193.142	29.87
193.362	46.25
193.581	27.82
193.8	33.96
194.02	74.92
194.239	72.87
194.458	87.21
194.678	-15.19
194.897	-4.95
195.116	29.87
195.335	-15.19
195.555	-2.9
195.774	58.54
195.993	103.59
196.212	-15.19
196.432	-7
196.651	9.39
196.87	66.73
197.089	105.64
197.308	58.54
197.528	48.3
197.747	-29.52
197.966	40.11
198.185	50.35
198.404	66.73
198.623	46.25
198.842	17.58
199.062	11.43
199.281	58.54
199.5	-39.76
199.719	-0.85
199.938	29.87
200.157	-33.62
200.376	52.39
200.595	50.35
200.814	23.72
201.033	62.63
201.252	62.63
201.471	29.87
201.69	31.91
201.909	-39.76
202.128	56.49
202.347	89.26
202.566	70.83
202.785	72.87
203.004	25.77
203.223	119.98
203.442	-23.38
203.661	74.92
203.879	29.87
204.098	11.43
204.317	15.53
204.536	111.78
204.755	-4.95
204.974	29.87
205.193	42.15
205.411	66.73
205.63	23.72
205.849	42.15
206.068	42.15
206.287	-11.09
206.505	70.83
206.724	-62.29
206.943	-45.91
207.162	74.92
207.381	11.43
207.599	15.53
207.818	36.01
208.037	68.78
208.255	7.34
208.474	36.01
208.693	42.15
208.911	101.55
209.13	21.67
209.349	23.72
209.567	-15.19
209.786	48.3
210.005	44.2
210.223	60.59
210.442	38.06
210.661	-7
210.879	21.67
211.098	44.2
211.316	72.87
211.535	33.96
211.753	91.31
211.972	52.39
212.191	5.29
212.409	-7
212.628	54.44
212.846	91.31
213.065	81.07
213.283	52.39
213.502	29.87
213.72	62.63
213.938	76.97
214.157	9.39
214.375	31.91
214.594	19.63
214.812	46.25
215.031	31.91
215.249	42.15
215.467	54.44
215.686	5.29
215.904	42.15
216.122	48.3
216.341	29.87
216.559	-19.29
216.778	52.39
216.996	29.87
217.214	27.82
217.432	-27.48
217.651	-13.14
217.869	48.3
218.087	13.48
218.306	-45.91
218.524	36.01
218.742	-4.95
218.96	25.77
219.179	29.87
219.397	52.39
219.615	109.74
219.833	109.74
220.051	13.48
220.27	52.39
220.488	17.58
220.706	-17.24
220.924	19.63
221.142	-19.29
221.36	25.77
221.578	33.96
221.796	-11.09
222.015	31.91
222.233	-19.29
222.451	25.77
222.669	3.24
222.887	5.29
223.105	5.29
223.323	38.06
223.541	46.25
223.759	56.49
223.977	44.2
224.195	83.11
224.413	-19.29
224.631	9.39
224.849	68.78
225.067	79.02
225.285	19.63
225.503	-23.38
225.721	-41.81
225.939	29.87
226.157	-2.9
226.375	115.88
226.592	103.59
226.81	15.53
227.028	83.11
227.246	66.73
227.464	64.68
227.682	29.87
227.9	56.49
228.117	83.11
228.335	-11.09
228.553	111.78
228.771	58.54
228.989	54.44
229.206	-11.09
229.424	64.68
229.642	27.82
229.86	-9.05
230.077	9.39
230.295	-7
230.513	-2.9
230.731	46.25
230.948	79.02
231.166	19.63
231.384	33.96
231.601	29.87
231.819	38.06
232.037	54.44
232.254	36.01
232.472	-21.33
232.689	23.72
232.907	15.53
233.125	-11.09
233.342	1.19
233.56	-2.9
233.777	21.67
233.995	1.19
234.213	29.87
234.43	29.87
234.648	1.19
234.865	52.39
235.083	19.63
235.3	42.15
235.518	40.11
235.735	48.3
235.953	83.11
236.17	-7
236.388	17.58
236.605	68.78
236.822	124.07
237.04	31.91
237.257	11.43
237.475	58.54
237.692	58.54
237.909	40.11
238.127	44.2
238.344	58.54
238.562	76.97
238.779	-27.48
238.996	17.58
239.214	-43.86
239.431	58.54
239.648	81.07
239.865	64.68
240.083	44.2
240.3	62.63
240.517	15.53
240.735	66.73
240.952	56.49
241.169	54.44
241.386	79.02
241.603	79.02
241.821	-21.33
242.038	64.68
242.255	97.45
242.472	19.63
242.689	62.63
242.907	130.22
243.124	74.92
243.341	-13.14
243.558	91.31
243.775	-66.39
243.992	-9.05
244.209	3.24
244.426	68.78
244.643	42.15
244.86	3.24
245.078	62.63
245.295	107.69
245.512	79.02
245.729	56.49
245.946	74.92
246.163	33.96
246.38	50.35
246.597	36.01
246.814	58.54
247.031	-19.29
247.248	70.83
247.464	27.82
247.681	74.92
247.898	38.06
248.115	31.91
248.332	54.44
248.549	103.59
248.766	56.49
248.983	19.63
249.2	9.39
249.417	15.53
249.633	-13.14
249.85	-31.57
250.067	52.39
250.284	23.72
250.501	40.11
250.717	42.15
250.934	36.01
251.151	21.67
251.368	5.29
251.585	11.43
251.801	17.58
252.018	38.06
252.235	33.96
252.451	40.11
252.668	-21.33
252.885	15.53
253.102	95.4
253.318	7.34
253.535	31.91
253.752	36.01
253.968	70.83
254.185	62.63
254.401	5.29
254.618	70.83
254.835	40.11
255.051	44.2
255.268	33.96
255.484	48.3
255.701	44.2
255.917	25.77
256.134	87.21
256.351	-33.62
256.567	38.06
256.784	56.49
257	5.29
257.217	74.92
257.433	3.24
257.65	46.25
257.866	66.73
258.082	58.54
258.299	3.24
258.515	101.55
258.732	128.17
258.948	-25.43
259.165	66.73
259.381	64.68
259.597	70.83
259.814	-9.05
260.03	44.2
260.246	-15.19
260.463	38.06
260.679	48.3
260.895	58.54
261.112	33.96
261.328	79.02
261.544	9.39
261.761	66.73
261.977	29.87
262.193	3.24
262.409	81.07
262.626	109.74
262.842	-13.14
263.058	7.34
263.274	7.34
263.49	130.22
263.707	74.92
263.923	91.31
264.139	27.82
264.355	50.35
264.571	105.64
264.787	-4.95
265.004	33.96
265.22	3.24
265.436	23.72
265.652	58.54
265.868	-35.67
266.084	21.67
266.3	33.96
266.516	1.19
266.732	95.4
266.948	113.83
267.164	11.43
267.38	27.82
267.596	111.78
267.812	5.29
268.028	3.24
268.244	72.87
268.46	70.83
268.676	113.83
268.892	-11.09
269.108	42.15
269.324	1.19
269.54	7.34
269.756	19.63
269.972	-74.58
270.188	64.68
270.403	5.29
270.619	31.91
270.835	50.35
271.051	-4.95
271.267	62.63
271.483	-23.38
271.698	-7
271.914	44.2
272.13	76.97
272.346	87.21
272.562	-43.86
272.777	5.29
272.993	3.24
273.209	95.4
273.425	62.63
273.64	-19.29
273.856	31.91
274.072	46.25
274.287	54.44
274.503	29.87
274.719	36.01
274.934	87.21
275.15	44.2
275.366	-4.95
275.581	5.29
275.797	60.59
276.012	66.73
276.228	17.58
276.444	58.54
276.659	23.72
276.875	-9.05
277.09	58.54
277.306	103.59
277.521	60.59
277.737	27.82
277.952	54.44
278.168	19.63
278.383	50.35
278.599	74.92
278.814	62.63
279.03	21.67
279.245	5.29
279.461	103.59
279.676	-11.09
279.892	-4.95
280.107	21.67
280.322	50.35
280.538	103.59
280.753	54.44
280.969	3.24
281.184	95.4
281.399	93.35
281.615	-33.62
281.83	42.15
282.045	72.87
282.26	-39.76
282.476	38.06
282.691	13.48
282.906	79.02
283.122	50.35
283.337	-11.09
283.552	66.73
283.767	19.63
283.983	48.3
284.198	21.67
284.413	56.49
284.628	-35.67
284.843	54.44
285.058	103.59
285.274	52.39
285.489	-21.33
285.704	99.5
285.919	36.01
286.134	52.39
286.349	7.34
286.564	29.87
286.779	62.63
286.995	48.3
287.21	60.59
287.425	-7
287.64	54.44
287.855	40.11
288.07	68.78
288.285	19.63
288.5	103.59
288.715	89.26
288.93	-41.81
289.145	-33.62
289.36	42.15
289.575	42.15
289.79	66.73
290.004	87.21
290.219	56.49
290.434	-7
290.649	11.43
290.864	91.31
291.079	-17.24
291.294	60.59
291.509	52.39
291.724	21.67
291.938	38.06
292.153	79.02
292.368	38.06
292.583	93.35
292.798	48.3
293.012	9.39
293.227	52.39
293.442	60.59
293.657	5.29
293.871	25.77
294.086	19.63
294.301	138.41
294.516	74.92
294.73	38.06
294.945	-4.95
295.16	79.02
295.374	50.35
295.589	-13.14
295.804	27.82
296.018	7.34
296.233	91.31
296.447	126.12
296.662	17.58
296.877	74.92
297.091	25.77
297.306	11.43
297.52	-7
297.735	56.49
297.949	74.92
298.164	3.24
298.378	5.29
298.593	97.45
298.807	13.48
299.022	60.59
299.236	38.06
299.451	9.39
299.665	38.06
299.88	101.55
300.094	62.63
300.309	103.59
300.523	68.78
300.737	101.55
300.952	70.83
301.166	74.92
301.381	19.63
301.595	11.43
301.809	13.48
302.024	9.39
302.238	-35.67
302.452	17.58
302.667	-68.44
302.881	79.02
303.095	13.48
303.309	9.39
303.524	11.43
303.738	-45.91
303.952	50.35
304.166	9.39
304.381	-4.95
304.595	25.77
304.809	-25.43
305.023	79.02
305.237	70.83
305.452	134.31
305.666	81.07
305.88	50.35
306.094	64.68
306.308	36.01
306.522	62.63
306.736	5.29
306.95	13.48
307.164	17.58
307.379	95.4
307.593	38.06
307.807	17.58
308.021	50.35
308.235	56.49
308.449	19.63
308.663	-9.05
308.877	119.98
309.091	29.87
309.305	76.97
309.519	-31.57
309.733	72.87
309.947	-2.9
310.161	29.87
310.374	44.2
310.588	50.35
310.802	62.63
311.016	15.53
311.23	83.11
311.444	38.06
311.658	54.44
311.872	72.87
312.085	93.35
312.299	93.35
312.513	95.4
312.727	33.96
312.941	-23.38
313.154	13.48
313.368	93.35
313.582	1.19
313.796	74.92
314.009	-7
314.223	140.46
314.437	21.67
314.651	70.83
314.864	9.39
315.078	27.82
315.292	60.59
315.505	-33.62
315.719	7.34
315.933	48.3
316.146	-54.1
316.36	-35.67
316.573	-27.48
316.787	27.82
317.001	-15.19
317.214	40.11
317.428	36.01
317.641	1.19
317.855	5.29
318.068	-11.09
318.282	85.16
318.495	56.49
318.709	74.92
318.922	83.11
319.136	76.97
319.349	38.06
319.563	23.72
319.776	27.82
319.99	103.59
320.203	79.02
320.417	50.35
320.63	91.31
320.843	38.06
321.057	107.69
321.27	33.96
321.483	21.67
321.697	85.16
321.91	-19.29
322.124	68.78
322.337	85.16
322.55	42.15
322.763	33.96
322.977	15.53
323.19	29.87
323.403	83.11
323.617	81.07
323.83	48.3
324.043	-37.72
324.256	-35.67
324.469	50.35
324.683	52.39
324.896	46.25
325.109	85.16
325.322	66.73
325.535	132.26
325.748	25.77
325.962	56.49
326.175	54.44
326.388	130.22
326.601	111.78
326.814	19.63
327.027	76.97
327.24	60.59
327.453	76.97
327.666	36.01
327.879	119.98
328.092	68.78
328.305	23.72
328.518	23.72
328.731	44.2
328.944	13.48
329.157	13.48
329.37	11.43
329.583	70.83
329.796	68.78
330.009	72.87
330.222	128.17
330.435	44.2
330.648	68.78
330.861	46.25
331.073	50.35
331.286	-21.33
331.499	87.21
331.712	27.82
331.925	31.91
332.138	62.63
332.35	27.82
332.563	33.96
332.776	48.3
332.989	38.06
333.202	-4.95
333.414	91.31
333.627	7.34
333.84	27.82
334.053	19.63
334.265	33.96
334.478	60.59
334.691	79.02
334.903	-29.52
335.116	9.39
335.329	62.63
335.541	99.5
335.754	103.59
335.966	50.35
336.179	60.59
336.392	38.06
336.604	66.73
336.817	-4.95
337.029	54.44
337.242	5.29
337.454	126.12
337.667	36.01
337.88	-2.9
338.092	15.53
338.305	87.21
338.517	15.53
338.729	81.07
338.942	68.78
339.154	124.07
339.367	79.02
339.579	38.06
339.792	38.06
340.004	60.59
340.217	79.02
340.429	46.25
340.641	33.96
340.854	29.87
341.066	11.43
341.278	117.93
341.491	33.96
341.703	50.35
341.915	33.96
342.128	-25.43
342.34	9.39
342.552	58.54
342.764	5.29
342.977	85.16
343.189	89.26
343.401	140.46
343.613	-31.57
343.826	70.83
344.038	46.25
344.25	-13.14
344.462	36.01
344.674	76.97
344.886	13.48
345.099	-2.9
345.311	70.83
345.523	13.48
345.735	-2.9
345.947	101.55
346.159	68.78
346.371	68.78
346.583	79.02
346.795	38.06
347.007	23.72
347.219	72.87
347.431	33.96
347.643	5.29
347.855	-31.57
348.067	85.16
348.279	27.82
348.491	46.25
348.703	44.2
348.915	38.06
349.127	29.87
349.339	40.11
349.551	13.48
349.763	87.21
349.975	70.83
350.187	72.87
350.399	91.31
350.61	60.59
350.822	29.87
351.034	107.69
351.246	76.97
351.458	70.83
351.669	9.39
351.881	66.73
352.093	38.06
352.305	72.87
352.517	44.2
352.728	-15.19
352.94	1.19
353.152	103.59
353.363	-74.58
353.575	107.69
353.787	21.67
353.999	-9.05
354.21	56.49
354.422	40.11
354.633	-64.34
354.845	79.02
355.057	9.39
355.268	11.43
355.48	58.54
355.692	81.07
355.903	27.82
356.115	9.39
356.326	-19.29
356.538	119.98
356.749	9.39
356.961	62.63
357.172	48.3
357.384	58.54
357.595	81.07
357.807	-11.09
358.018	66.73
358.23	46.25
358.441	9.39
358.653	13.48
358.864	21.67
359.075	103.59
359.287	72.87
359.498	64.68
359.709	21.67
359.921	52.39
360.132	54.44
360.344	85.16
360.555	93.35
360.766	60.59
360.977	44.2
361.189	46.25
361.4	64.68
361.611	-0.85
361.823	42.15
362.034	66.73
362.245	44.2
362.456	81.07
362.667	140.46
362.879	36.01
363.09	11.43
363.301	52.39
363.512	29.87
363.723	11.43
363.935	85.16
364.146	81.07
364.357	48.3
364.568	58.54
364.779	-31.57
364.99	33.96
365.201	23.72
365.412	46.25
365.623	89.26
365.834	58.54
366.045	-11.09
366.256	44.2
366.467	15.53
366.678	93.35
366.889	52.39
367.1	46.25
367.311	19.63
367.522	126.12
367.733	33.96
367.944	70.83
368.155	-19.29
368.366	101.55
368.577	70.83
368.788	9.39
368.999	76.97
369.209	58.54
369.42	99.5
369.631	40.11
369.842	95.4
370.053	58.54
370.264	38.06
370.474	27.82
370.685	60.59
370.896	48.3
371.107	146.6
371.317	117.93
371.528	23.72
371.739	50.35
371.95	128.17
372.16	15.53
372.371	60.59
372.582	19.63
372.792	21.67
373.003	36.01
373.214	103.59
373.424	105.64
373.635	29.87
373.846	74.92
374.056	31.91
374.267	-35.67
374.477	36.01
374.688	58.54
374.898	70.83
375.109	87.21
375.319	74.92
375.53	109.74
375.74	99.5
375.951	40.11
376.161	56.49
376.372	138.41
376.582	97.45
376.793	115.88
377.003	44.2
377.214	52.39
377.424	72.87
377.635	15.53
377.845	-11.09
378.055	85.16
378.266	60.59
378.476	60.59
378.686	21.67
378.897	83.11
379.107	9.39
379.317	56.49
379.528	52.39
379.738	52.39
379.948	62.63
380.158	42.15
380.369	74.92
380.579	70.83
380.789	70.83
380.999	87.21
381.21	103.59
381.42	40.11
381.63	70.83
381.84	76.97
382.05	105.64
382.261	140.46
382.471	107.69
382.681	27.82
382.891	105.64
383.101	40.11
383.311	-4.95
383.521	60.59
383.731	95.4
383.941	27.82
384.151	48.3
384.361	58.54
384.571	36.01
384.781	122.02
384.991	107.69
385.201	91.31
385.411	113.83
385.621	38.06
385.831	13.48
386.041	111.78
386.251	87.21
386.461	40.11
386.671	101.55
386.881	70.83
387.091	113.83
387.301	109.74
387.511	68.78
387.72	124.07
387.93	52.39
388.14	62.63
388.35	68.78
388.56	44.2
388.769	68.78
388.979	42.15
389.189	76.97
389.399	132.26
389.609	99.5
389.818	85.16
390.028	-17.24
390.238	83.11
390.447	74.92
390.657	68.78
390.867	48.3
391.076	64.68
391.286	103.59
391.496	15.53
391.705	62.63
391.915	148.65
392.125	87.21
392.334	64.68
392.544	103.59
392.753	91.31
392.963	107.69
393.172	87.21
393.382	79.02
393.591	81.07
393.801	70.83
394.01	64.68
394.22	95.4
394.429	72.87
394.639	66.73
394.848	87.21
395.058	81.07
395.267	93.35
395.477	70.83
395.686	165.03
395.895	79.02
396.105	111.78
396.314	117.93
396.524	48.3
396.733	124.07
396.942	62.63
397.152	142.5
397.361	117.93
397.57	93.35
397.78	97.45
397.989	38.06
398.198	189.61
398.407	109.74
398.617	134.31
398.826	111.78
399.035	99.5
399.244	64.68
399.453	150.7
399.663	138.41
399.872	148.65
400.081	103.59
400.29	128.17
400.499	142.5
400.708	128.17
400.917	165.03
401.127	140.46
401.336	103.59
401.545	93.35
401.754	93.35
401.963	132.26
402.172	87.21
402.381	101.55
402.59	72.87
402.799	128.17
403.008	85.16
403.217	126.12
403.426	64.68
403.635	105.64
403.844	101.55
404.053	87.21
404.262	115.88
404.471	117.93
404.68	173.22
404.888	124.07
405.097	85.16
405.306	140.46
405.515	76.97
405.724	156.84
405.933	191.66
406.142	160.94
406.35	208.04
406.559	244.9
406.768	156.84
406.977	150.7
407.185	220.33
407.394	197.8
407.603	201.9
407.812	189.61
408.02	240.81
408.229	238.76
408.438	179.37
408.646	111.78
408.855	220.33
409.064	205.99
409.272	292.01
409.481	314.53
409.69	316.58
409.898	222.38
410.107	246.95
410.315	351.4
410.524	351.4
410.733	275.62
410.941	263.33
411.15	330.92
411.358	369.83
411.567	339.11
411.775	359.59
411.984	367.78
412.192	394.4
412.401	421.03
412.609	398.5
412.818	449.7
413.026	500.9
413.234	496.8
413.443	439.46
413.651	502.95
413.86	490.66
414.068	621.73
414.276	625.83
414.485	533.67
414.693	615.59
414.901	644.26
415.11	593.06
415.318	640.16
415.526	664.74
415.734	699.55
415.943	738.46
416.151	767.13
416.359	783.52
416.567	763.04
416.776	779.42
416.984	801.95
417.192	912.54
417.4	949.4
417.608	851.1
417.817	980.12
418.025	990.36
418.233	1037.47
418.441	1041.56
418.649	1035.42
418.857	1137.82
419.065	1234.07
419.273	1191.06
419.481	1180.82
419.689	1346.71
419.897	1385.62
420.105	1395.86
420.313	1492.12
420.521	1418.39
420.729	1547.41
420.937	1604.75
421.145	1582.23
421.353	1754.26
421.561	1746.06
421.769	1889.42
421.977	1868.94
422.185	1883.28
422.393	1893.52
422.601	2069.64
422.809	2051.21
423.017	2112.65
423.224	2245.77
423.432	2256.01
423.64	2303.11
423.848	2485.38
424.056	2391.17
424.263	2577.54
424.471	2434.18
424.679	2612.35
424.887	2911.36
425.094	2901.12
425.302	2819.2
425.51	3032.19
425.718	3114.11
425.925	3189.88
426.133	3193.98
426.341	3331.19
426.548	3466.36
426.756	3535.99
426.964	3650.67
427.171	3867.76
427.379	3841.14
427.586	3900.53
427.794	4021.36
428.001	4246.63
428.209	4414.57
428.417	4516.97
428.624	4715.62
428.832	4791.39
429.039	4695.14
429.247	4752.48
429.454	5078.11
429.662	5442.65
429.869	5235.8
430.076	5483.61
430.284	5307.48
430.491	5659.73
430.699	5854.29
430.906	5764.18
431.114	5973.07
431.321	6157.39
431.528	6386.76
431.736	6775.88
431.943	7003.2
432.15	6851.65
432.358	6976.58
432.565	7068.73
432.772	7343.16
432.979	7566.39
433.187	7617.59
433.394	7662.65
433.601	8029.23
433.808	8311.85
434.016	8365.1
434.223	8576.04
434.43	9149.47
434.637	9020.45
434.844	9511.96
435.052	9591.83
435.259	9618.46
435.466	9714.71
435.673	9673.75
435.88	10177.55
436.087	10757.13
436.294	10568.71
436.501	10320.91
436.708	10726.41
436.915	11197.44
437.122	11549.69
437.329	11531.26
437.537	11998.2
437.743	12127.22
437.95	12065.78
438.157	12665.83
438.364	13118.43
438.571	12764.14
438.778	13046.76
438.985	14300.11
439.192	13786.07
439.399	14271.44
439.606	13683.67
439.813	14838.73
440.02	15535.04
440.227	15193.03
440.433	15211.46
440.64	15457.21
440.847	15492.03
441.054	15766.46
441.261	16761.77
441.467	16645.04
441.674	17071.01
441.881	17623.97
442.088	17863.58
442.294	17402.79
442.501	17806.23
442.708	18398.1
442.914	19161.99
443.121	19798.91
443.328	19344.26
443.534	20573.04
443.741	20177.78
443.948	19968.89
444.154	21371.75
444.361	21093.22
444.568	21095.27
444.774	21255.01
444.981	21543.78
445.187	22162.26
445.394	22885.2
445.6	22563.67
445.807	24970.03
446.013	23749.44
446.22	23935.81
446.426	25035.56
446.633	25316.14
446.839	26161.95
447.046	24937.26
447.252	26575.64
447.459	26350.36
447.665	26585.88
447.871	27435.78
448.078	28400.38
448.284	27624.2
448.491	28156.67
448.697	29283.05
448.903	29457.13
449.11	29670.12
449.316	29039.34
449.522	29858.53
449.728	30554.84
449.935	30503.64
450.141	30554.84
450.347	31378.12
450.553	30597.85
450.76	30763.73
450.966	31562.44
451.172	31398.6
451.378	32250.56
451.584	31283.92
451.791	32035.52
451.997	31951.56
452.203	32492.22
452.409	32574.14
452.615	32234.17
452.821	31105.74
453.027	30980.82
453.233	32463.55
453.44	31009.49
453.646	31541.96
453.852	31308.49
454.058	31980.23
454.264	31333.07
454.47	31527.63
454.676	31046.35
454.882	31834.82
455.088	29123.31
455.294	29684.45
455.5	29678.31
455.705	30143.2
455.911	28758.77
456.117	28128
456.323	27978.5
456.529	26309.4
456.735	27706.12
456.941	27040.53
457.147	26491.67
457.352	25606.95
457.558	25336.62
457.764	25369.38
457.97	24734.51
458.176	24392.5
458.381	24486.71
458.587	23159.63
458.793	23296.84
458.999	22195.03
459.204	23647.04
459.41	22977.36
459.616	21214.05
459.821	21451.62
460.027	21445.48
460.233	20876.14
460.438	19788.67
460.644	20015.99
460.85	18951.05
461.055	18879.37
461.261	18748.3
461.466	17347.49
461.672	16827.31
461.878	18355.09
462.083	16812.97
462.289	16614.32
462.494	16532.4
462.7	15655.87
462.905	15039.43
463.111	16012.21
463.316	16180.15
463.522	15545.28
463.727	15485.89
463.932	15487.93
464.138	15160.26
464.343	15315.9
464.549	14908.36
464.754	15678.4
464.959	15539.13
465.165	14998.47
465.37	14758.86
465.575	14306.26
465.781	14906.31
465.986	14732.23
466.191	14343.12
466.397	14052.31
466.602	13399.01
466.807	13683.67
467.012	14095.32
467.218	13788.12
467.423	13661.15
467.628	13917.14
467.833	14298.06
468.038	13964.25
468.244	13476.83
468.449	13806.55
468.654	13736.92
468.859	13343.71
469.064	13386.72
469.269	12757.99
469.474	12948.45
469.679	13093.86
469.885	12688.36
470.09	12706.79
470.295	12948.45
470.5	12559.34
470.705	12663.79
470.91	12241.9
471.115	12155.89
471.32	12264.43
471.525	12411.89
471.73	11928.56
471.935	12225.52
472.139	11719.67
472.344	11719.67
472.549	11662.33
472.754	11561.98
472.959	11359.23
473.164	10949.64
473.369	10853.38
473.574	11172.86
473.778	11187.2
473.983	11000.83
474.188	10904.58
474.393	10576.91
474.598	10691.59
474.802	10447.88
475.007	10398.73
475.212	10429.45
475.417	9921.56
475.621	10058.77
475.826	10052.63
476.031	9886.74
476.235	9665.56
476.44	9710.61
476.645	9628.7
476.849	9477.15
477.054	9659.42
477.259	9278.49
477.463	9466.91
477.668	9077.79
477.872	9210.91
478.077	8950.82
478.282	8774.69
478.486	8674.34
478.691	8795.17
478.895	8662.05
479.1	8487.98
479.304	8688.68
479.509	8346.67
479.713	8684.58
479.918	8518.7
480.122	8143.92
480.326	8354.86
480.531	8502.31
480.735	8457.26
480.94	8150.06
481.144	8469.55
481.348	8135.73
481.553	8315.95
481.757	8021.04
481.961	8119.34
482.166	8102.96
482.37	8084.53
482.574	8037.42
482.778	8150.06
482.983	8170.54
483.187	7978.03
483.391	8098.86
483.595	8213.55
483.8	8086.58
484.004	8062
484.208	8191.02
484.412	8217.65
484.616	8039.47
484.821	7930.93
485.025	8057.9
485.229	8033.33
485.433	7928.88
485.637	8016.94
485.841	7978.03
486.045	7838.77
486.249	7912.5
486.453	7767.09
486.657	8010.8
486.861	8123.44
487.065	7887.92
487.269	7965.75
487.473	7885.87
487.677	8023.09
487.881	8053.81
488.085	7986.22
488.289	8016.94
488.493	7998.51
488.697	8008.75
488.901	7943.22
489.105	7955.51
489.309	8115.25
489.512	8178.73
489.716	8145.97
489.92	8201.26
490.124	8328.24
490.328	8299.56
490.531	8168.49
490.735	8178.73
490.939	8356.91
491.143	8229.93
491.346	8154.16
491.55	8391.72
491.754	8309.8
491.958	8291.37
492.161	8444.97
492.365	8477.74
492.569	8406.06
492.772	8430.63
492.976	8682.53
493.18	8473.64
493.383	8637.48
493.587	8848.42
493.79	8909.86
493.994	8719.4
494.197	8875.04
494.401	8852.52
494.605	8889.38
494.808	9038.88
495.012	9182.24
495.215	9114.66
495.419	9116.7
495.622	9110.56
495.825	9446.43
496.029	9389.08
496.232	9544.73
496.436	9438.23
496.639	9737.24
496.843	9770.01
497.046	9776.15
497.249	9985.04
497.453	9915.41
497.656	10175.5
497.859	10138.64
498.063	10128.4
498.266	10603.53
498.469	10421.26
498.673	10443.79
498.876	10654.73
499.079	10779.65
499.282	10963.97
499.485	11142.14
499.689	11101.19
499.892	11205.63
500.095	11353.09
500.298	11523.07
500.501	11437.05
500.705	11566.07
500.908	11914.23
501.111	11830.26
501.314	12119.03
501.517	12116.98
501.72	12350.45
501.923	12434.41
502.126	12633.07
502.329	12872.68
502.532	12801
502.735	13013.99
502.938	13396.96
503.141	13171.68
503.344	13241.31
503.547	13624.28
503.75	13874.13
503.953	14169.04
504.156	14150.61
504.359	14169.04
504.562	14398.41
504.765	14689.23
504.968	14678.99
505.17	14818.25
505.373	14791.62
505.576	15074.24
505.779	15512.51
505.982	15422.4
506.185	15760.31
506.387	15578.04
506.59	15973.3
506.793	16092.09
506.996	15948.73
507.198	16577.45
507.401	16298.93
507.604	16581.55
507.807	16585.65
508.009	17060.77
508.212	17200.04
508.415	17284
508.617	17748.89
508.82	17769.37
509.022	17752.99
509.225	18066.33
509.428	18426.77
509.63	18338.71
509.833	18688.91
510.035	18871.18
510.238	18752.4
510.44	19055.5
510.643	19450.75
510.845	19575.68
511.048	19596.16
511.25	19952.51
511.453	19993.47
511.655	20521.84
511.858	20358
512.06	20214.65
512.262	20941.68
512.465	20837.23
512.667	21019.5
512.87	21345.12
513.072	21529.44
513.274	21977.95
513.477	21906.27
513.679	22070.11
513.881	22121.31
514.084	22651.73
514.286	22797.13
514.488	22424.4
514.69	23165.77
514.893	23628.61
515.095	23395.14
515.297	23724.86
515.499	23868.22
515.701	24292.15
515.904	24625.97
516.106	24636.21
516.308	24724.27
516.51	25234.22
516.712	25570.08
516.914	25762.59
517.116	25666.34
517.318	26065.69
517.52	26000.16
517.722	26090.27
517.925	26546.97
518.127	26987.28
518.329	26936.08
518.531	27011.85
518.733	27800.32
518.935	27843.33
519.136	27685.64
519.338	28173.05
519.54	28058.37
519.742	28457.72
519.944	28592.89
520.146	29244.14
520.348	29149.93
520.55	29442.79
520.752	29768.42
520.954	30270.17
521.155	29764.32
521.357	30241.5
521.559	30606.04
521.761	31253.2
521.963	31087.31
522.164	31236.81
522.366	30831.32
522.568	31691.46
522.77	31505.1
522.971	32414.4
523.173	32352.96
523.375	32608.95
523.576	32660.15
523.778	32494.27
523.98	32883.38
524.181	32975.54
524.383	32780.98
524.584	33620.65
524.786	33866.41
524.988	33757.86
525.189	33686.18
525.391	34505.37
525.592	34488.99
525.794	34898.58
525.995	34556.57
526.197	34425.5
526.398	34947.73
526.6	35101.33
526.801	34964.12
527.003	35424.91
527.204	35492.49
527.406	35535.5
527.607	35584.65
527.808	36035.2
528.01	35418.77
528.211	35900.04
528.412	36194.95
528.614	36164.23
528.815	36303.49
529.016	36639.36
529.218	36317.82
529.419	36698.75
529.62	36661.88
529.822	36692.6
530.023	36733.56
530.224	36960.89
530.425	37007.99
530.626	36909.69
530.828	36659.84
531.029	37745.26
531.23	36846.2
531.431	36801.15
531.632	37231.22
531.833	37137.01
532.035	37649
532.236	37352.05
532.437	37497.45
532.638	37747.31
532.839	37601.9
533.04	37927.53
533.241	37223.03
533.442	38005.35
533.643	37630.57
533.844	37665.39
534.045	37976.68
534.246	37448.3
534.447	37907.05
534.648	37495.41
534.849	37927.53
535.05	37606
535.251	37913.19
535.451	37874.28
535.652	38058.6
535.853	38185.57
536.054	37939.82
536.255	38072.93
536.456	37427.82
536.657	38488.67
536.857	37626.48
537.058	37710.44
537.259	37753.45
537.46	37874.28
537.66	37632.62
537.861	37997.16
538.062	38081.13
538.263	37978.73
538.463	37808.75
538.664	37896.81
538.865	37870.18
539.065	37966.44
539.266	37958.25
539.466	38103.65
539.667	37599.85
539.868	38257.25
540.068	37747.31
540.269	37632.62
540.469	38029.93
540.67	38046.31
540.87	37663.34
541.071	37898.86
541.271	37898.86
541.472	37835.37
541.672	37491.31
541.873	37597.8
542.073	36930.17
542.274	37902.95
542.474	38070.89
542.675	37165.68
542.875	38054.5
543.075	37747.31
543.276	37393.01
543.476	38333.03
543.676	37272.18
543.877	37741.16
544.077	37515.89
544.277	37524.08
544.478	37259.89
544.678	37855.85
544.878	37544.56
545.078	37882.47
545.279	37116.53
545.479	37579.37
545.679	37599.85
545.879	37495.41
546.079	37620.33
546.28	37352.05
546.48	37413.49
546.68	37436.02
546.88	37698.16
547.08	37984.87
547.28	37339.76
547.48	37329.52
547.68	37689.96
547.88	37022.33
548.081	37657.2
548.281	37663.34
548.481	37302.9
548.681	37884.52
548.881	37177.97
549.081	37331.57
549.28	37190.26
549.48	37552.75
549.68	36946.55
549.88	37470.83
550.08	37251.7
550.28	37411.44
550.48	36981.37
550.68	37462.64
550.88	37139.06
551.08	37599.85
551.279	37137.01
551.479	36899.45
551.679	36854.39
551.879	36999.8
552.079	37440.11
552.278	37128.82
552.478	37075.57
552.678	36956.79
552.878	37352.05
553.077	37022.33
553.277	36821.62
553.477	37108.34
553.676	36983.41
553.876	37053.05
554.076	36631.16
554.275	36725.37
554.475	36502.14
554.674	36917.88
554.874	36676.22
555.074	36844.15
555.273	36600.44
555.473	36407.94
555.672	36469.37
555.872	36627.07
556.071	36711.03
556.271	36969.08
556.47	36336.26
556.67	36579.96
556.869	36082.31
557.068	36727.42
557.268	36188.8
557.467	36164.23
557.667	36221.57
557.866	35945.09
558.065	36166.27
558.265	35902.09
558.464	35959.43
558.663	36190.85
558.863	35592.84
559.062	36342.4
559.261	35689.1
559.461	36151.94
559.66	35531.4
559.859	35695.24
560.058	35357.33
560.258	35938.95
560.457	35228.31
560.656	35641.99
560.855	35379.85
561.054	35115.67
561.253	35189.39
561.453	35549.84
561.652	35467.92
561.851	35076.76
562.05	35525.26
562.249	35089.04
562.448	35320.46
562.647	34939.54
562.846	35109.52
563.045	34923.16
563.244	34298.53
563.443	34867.86
563.642	34398.88
563.841	34230.94
564.04	34355.87
564.239	34599.58
564.438	34366.11
564.637	34245.28
564.836	34212.51
565.035	34288.29
565.234	33985.19
565.432	33577.64
565.631	33884.84
565.83	33917.61
566.029	33634.99
566.228	33700.52
566.427	33782.44
566.625	33237.68
566.824	33018.55
567.023	33598.12
567.222	32936.63
567.42	33342.13
567.619	33227.44
567.818	33147.57
568.016	33002.16
568.215	33467.05
568.414	32721.59
568.612	33274.54
568.811	32735.93
569.01	32750.26
569.208	32154.3
569.407	32510.65
569.605	32393.92
569.804	32570.04
570.002	32027.33
570.201	32471.74
570.4	32072.39
570.598	31691.46
570.797	31556.3
570.995	31664.84
571.193	31523.53
571.392	32060.1
571.59	31660.74
571.789	31505.1
571.987	31793.86
572.186	31105.74
572.384	31118.03
572.582	31277.77
572.781	31308.49
572.979	30868.18
573.177	31050.45
573.376	31060.69
573.574	30761.69
573.772	30921.43
573.971	30700.25
574.169	30413.53
574.367	29887.2
574.565	30708.44
574.763	30223.07
574.962	30339.8
575.16	29897.44
575.358	30405.34
575.556	29807.33
575.754	30325.47
575.952	29643.49
576.151	29856.48
576.349	29344.49
576.547	29270.76
576.745	29678.31
576.943	29491.94
577.141	29606.63
577.339	29403.88
577.537	29151.98
577.735	28965.62
577.933	29008.62
578.131	29045.49
578.329	28838.64
578.527	28715.76
578.725	28633.85
578.923	28805.88
579.121	28285.69
579.319	28584.69
579.516	28668.66
579.714	28517.11
579.912	28441.34
580.11	28132.09
580.308	28326.65
580.506	27964.16
580.704	27648.77
580.901	28515.06
581.099	28488.44
581.297	27779.84
581.495	27536.13
581.692	27949.82
581.89	27468.55
582.088	27828.99
582.285	27384.58
582.483	27689.73
582.681	27329.29
582.878	27183.88
583.076	26927.89
583.274	27073.29
583.471	26589.97
583.669	27181.84
583.866	26575.64
584.064	27042.57
584.262	26606.36
584.459	26692.37
584.657	26540.82
584.854	26667.8
585.052	26252.06
585.249	26598.16
585.447	26397.46
585.644	26227.48
585.841	25955.1
586.039	26448.66
586.236	25926.43
586.434	25697.06
586.631	25750.31
586.828	25983.77
587.026	25787.17
587.223	25652
587.42	25623.33
587.618	25799.46
587.815	25326.38
588.012	25217.83
588.21	25334.57
588.407	25344.81
588.604	25338.66
588.801	24941.36
588.999	25033.52
589.196	24986.41
589.393	25123.63
589.59	24568.63
589.787	24548.15
589.984	24662.83
590.182	24331.06
590.379	24574.77
590.576	24259.38
590.773	24304.44
590.97	24195.9
591.167	24253.24
591.364	23898.94
591.561	24187.71
591.758	23931.71
591.955	23927.61
592.152	23905.09
592.349	23675.71
592.546	23745.34
592.743	23829.31
592.94	23343.94
593.137	23933.76
593.334	23534.4
593.531	23194.44
593.727	23423.81
593.924	23446.34
594.121	23067.47
594.318	23339.85
594.515	23032.65
594.712	23296.84
594.908	22860.62
595.105	23135.05
595.302	22680.4
595.499	22688.59
595.696	22539.09
595.892	22606.67
596.089	22524.75
596.286	22553.43
596.482	22612.82
596.679	22442.84
596.876	22143.83
597.072	22018.91
597.269	22410.07
597.466	22049.63
597.662	21971.8
597.859	22004.57
598.055	21773.15
598.252	21873.5
598.448	21732.19
598.645	21742.43
598.841	21627.74
599.038	21463.91
599.234	21646.18
599.431	21404.52
599.627	21433.19
599.824	21756.77
600.02	21121.9
600.217	21363.56
600.413	21386.08
600.609	20878.19
600.806	21013.35
601.002	20933.48
601.198	20870
601.395	20714.35
601.591	21039.98
601.787	20917.1
601.984	20487.03
602.18	20933.48
602.376	20616.05
602.572	20523.89
602.769	20472.69
602.965	20374.39
603.161	20507.51
603.357	19884.92
603.553	20126.58
603.75	20257.65
603.946	20095.86
604.142	19919.74
604.338	19786.62
604.534	19907.45
604.73	19628.93
604.926	19899.26
605.122	19876.73
605.318	19432.32
605.514	19737.47
605.71	19506.05
605.906	19508.1
606.102	19270.53
606.298	19385.22
606.494	19209.09
606.69	19331.97
606.886	19008.39
607.082	18617.23
607.278	19309.44
607.474	18996.1
607.67	18985.86
607.866	18613.13
608.062	19063.69
608.257	18703.25
608.453	18922.38
608.649	18766.73
608.845	18817.93
609.041	18631.57
609.236	18553.74
609.432	18754.44
609.628	18350.99
609.824	18439.06
610.019	18307.99
610.215	18418.58
610.411	18387.86
610.606	18170.77
610.802	18303.89
610.998	18295.7
611.193	18424.72
611.389	18158.49
611.584	18107.29
611.78	18127.77
611.976	18174.87
612.171	18092.95
612.367	17965.98
612.562	17785.76
612.758	17611.68
612.953	17654.69
613.149	17839
613.344	17759.13
613.539	18168.73
613.735	17736.6
613.93	17927.07
614.126	17564.57
614.321	17744.8
614.517	17558.43
614.712	17789.85
614.907	17566.62
615.103	17284
615.298	17601.44
615.493	17507.23
615.688	17046.44
615.884	17562.53
616.079	17259.43
616.274	17400.74
616.47	17259.43
616.665	17169.32
616.86	16919.46
617.055	17099.69
617.25	17023.91
617.445	17195.94
617.641	16632.75
617.836	17101.73
618.031	16602.03
618.226	16708.52
618.421	16526.25
618.616	16960.42
618.811	16503.73
619.006	16903.08
619.201	16352.18
619.396	16477.1
619.591	16331.7
619.786	16245.68
619.981	16378.8
620.176	16333.75
620.371	15946.68
620.566	15866.81
620.761	15940.54
620.956	16055.22
621.151	15778.75
621.346	16008.12
621.541	15741.88
621.735	15743.93
621.93	15389.63
622.125	15436.74
622.32	15430.59
622.515	15420.35
622.709	15178.69
622.904	15256.51
623.099	15025.09
623.294	15049.67
623.488	15166.4
623.683	15121.35
623.878	14775.24
624.072	14918.6
624.267	14599.12
624.462	14836.68
624.656	14482.38
624.851	14519.25
625.046	14406.61
625.24	14255.06
625.435	14345.17
625.629	14103.51
625.824	14183.38
626.018	13847.51
626.213	13698.01
626.407	14029.78
626.602	13800.41
626.796	14029.78
626.991	13673.43
627.185	13452.25
627.38	13519.84
627.574	13501.4
627.768	13347.81
627.963	13296.61
628.157	13202.4
628.352	13411.29
628.546	12977.12
628.74	13042.66
628.935	12829.67
629.129	13122.53
629.323	12815.34
629.517	12784.62
629.712	12848.1
629.906	12776.42
630.1	12489.71
630.294	12649.45
630.489	12372.97
630.683	12461.04
630.877	11996.15
631.071	12155.89
631.265	12438.51
631.459	12184.56
631.653	11969.52
631.848	11949.04
632.042	12112.88
632.236	11897.85
632.43	11713.53
632.624	11836.41
632.818	11598.84
633.012	11516.92
633.206	11666.42
633.4	11478.01
633.594	11400.19
633.788	11222.02
633.982	11152.38
634.176	11107.33
634.369	11185.15
634.563	11117.57
634.757	10994.69
634.951	11076.61
635.145	10759.17
635.339	10970.12
635.533	10896.39
635.726	10779.65
635.92	10486.79
636.114	10621.96
636.308	10707.98
636.501	10613.77
636.695	10490.89
636.889	10589.19
637.083	10306.57
637.276	10415.12
637.47	10433.55
637.664	10300.43
637.857	10255.37
638.051	10132.5
638.244	10228.75
638.438	9995.28
638.632	10120.21
638.825	9948.18
639.019	9823.25
639.212	9720.85
639.406	9757.72
639.599	9473.05
639.793	9501.72
639.986	9460.76
640.18	9673.75
640.373	9448.47
640.567	9423.9
640.76	9352.22
640.954	9280.54
641.147	9266.21
641.34	9200.67
641.534	9182.24
641.727	9030.69
641.92	9274.4
642.114	9100.32
642.307	9169.95
642.5	9040.93
642.694	8989.73
642.887	8752.17
643.08	8895.52
643.273	8760.36
643.467	8895.52
643.66	8674.34
643.853	8535.08
644.046	8592.42
644.239	8580.14
644.432	8508.46
644.626	8418.35
644.819	8258.6
645.012	8401.96
645.205	8260.65
645.398	8356.91
645.591	8264.75
645.784	8207.41
645.977	8119.34
646.17	8068.14
646.363	7869.49
646.556	7951.41
646.749	8002.61
646.942	7896.11
647.135	7711.8
647.328	7941.17
647.521	7955.51
647.714	7658.55
647.907	7574.58
648.099	7789.62
648.292	7719.99
648.485	7664.69
648.678	7787.57
648.871	7558.2
649.064	7443.51
649.256	7494.71
649.449	7337.02
649.642	7509.05
649.835	7304.25
650.027	7148.61
650.22	7420.99
650.413	7138.37
650.605	7144.51
650.798	7115.84
650.991	7081.02
651.183	7083.07
651.376	7105.6
651.568	6960.19
651.761	6954.05
651.954	7072.83
652.146	6945.86
652.339	6806.59
652.531	6837.31
652.724	6782.02
652.916	6698.05
653.109	6741.06
653.301	6728.77
653.494	6657.09
653.686	6517.83
653.879	6663.24
654.071	6566.98
654.263	6599.75
654.456	6511.69
654.648	6427.72
654.84	6313.03
655.033	6435.91
655.225	6351.95
655.417	6319.18
655.61	6298.7
655.802	6149.2
655.994	6214.73
656.186	6302.79
656.379	6014.03
656.571	6196.3
656.763	6100.05
656.955	6118.48
657.148	5971.02
657.34	6061.13
657.532	5940.3
657.724	5854.29
657.916	5864.53
658.108	5956.69
658.3	6001.74
658.492	5778.51
658.684	5721.17
658.876	5813.33
659.068	5798.99
659.26	5663.83
659.452	5700.69
659.644	5600.34
659.836	5641.3
660.028	5629.01
660.22	5473.37
660.412	5309.53
660.604	5377.11
660.796	5379.16
660.988	5360.73
661.18	5426.26
661.372	5323.87
661.563	5473.37
661.755	5327.96
661.947	5284.95
662.139	5170.27
662.331	5174.36
662.522	5028.96
662.714	5166.17
662.906	4973.66
663.097	5092.44
663.289	5074.01
663.481	5057.63
663.673	4949.09
663.864	4906.08
664.056	4916.32
664.247	4969.57
664.439	4809.83
664.631	4783.2
664.822	4996.19
665.014	4803.68
665.205	4969.57
665.397	4863.07
665.588	4789.35
665.78	4727.91
665.971	4732
666.163	4707.43
666.354	4652.13
666.546	4662.37
666.737	4596.84
666.929	4625.51
667.12	4619.36
667.311	4686.95
667.503	4529.25
667.694	4516.97
667.885	4424.81
668.077	4525.16
668.268	4594.79
668.459	4406.38
668.651	4535.4
668.842	4375.66
669.033	4428.9
669.224	4433
669.416	4443.24
669.607	4320.36
669.798	4351.08
669.989	4308.07
670.18	4271.21
670.371	4256.87
670.563	4187.24
670.754	4191.34
670.945	4222.06
671.136	4263.02
671.327	4248.68
671.518	4129.9
671.709	4316.26
671.9	4248.68
672.091	4011.12
672.282	4115.56
672.473	4056.17
672.664	4125.8
672.855	4023.41
673.046	4152.43
673.237	4080.75
673.428	3900.53
673.619	3871.86
673.809	4017.26
674	3994.73
674.191	4121.71
674.382	3873.9
674.573	3863.66
674.764	3843.18
674.954	3974.25
675.145	3875.95
675.336	3822.7
675.527	3857.52
675.717	3847.28
675.908	3771.51
676.099	3708.02
676.289	3794.03
676.48	3753.07
676.671	3794.03
676.861	3896.43
677.052	3775.6
677.243	3603.57
677.433	3703.92
677.624	3687.54
677.814	3742.83
678.005	3667.06
678.195	3767.41
678.386	3693.68
678.576	3681.39
678.767	3644.53
678.957	3662.96
679.148	3671.15
679.338	3751.03
679.529	3626.1
679.719	3609.72
679.909	3628.15
680.1	3613.81
680.29	3607.67
680.481	3638.39
680.671	3531.89
680.861	3628.15
681.052	3464.31
681.242	3640.44
681.432	3568.76
681.622	3458.17
681.813	3499.13
682.003	3564.66
682.193	3495.03
682.383	3585.14
682.573	3454.07
682.764	3462.26
682.954	3458.17
683.144	3581.04
683.334	3429.49
683.524	3576.95
683.714	3411.06
683.904	3447.93
684.094	3318.9
684.284	3478.65
684.474	3411.06
684.664	3474.55
684.854	3439.73
685.044	3261.56
685.234	3310.71
685.424	3263.61
685.614	3296.38
685.804	3447.93
685.994	3366.01
686.184	3318.9
686.374	3247.23
686.564	3279.99
686.753	3169.4
686.943	3208.31
687.133	3230.84
687.323	3286.14
687.513	3234.94
687.702	3234.94
687.892	3263.61
688.082	3232.89
688.272	3216.51
688.461	3071.1
688.651	3112.06
688.841	3212.41
689.03	3155.07
689.22	3003.52
689.41	3073.15
689.599	3046.52
689.789	3056.76
689.979	2985.09
690.168	2970.75
690.358	2931.84
690.547	2962.56
690.737	3103.87
690.926	2993.28
691.116	2931.84
691.305	2960.51
691.495	2929.79
691.684	2980.99
691.874	2999.42
692.063	2821.25
692.252	2811.01
692.442	2954.37
692.631	2737.28
692.82	2827.39
693.01	2800.77
693.199	2829.44
693.388	2837.63
693.578	2722.95
693.767	2778.24
693.956	2755.71
694.146	2522.24
694.335	2751.62
694.524	2698.37
694.713	2718.85
694.902	2792.58
695.092	2727.04
695.281	2765.95
695.47	2647.17
695.659	2692.23
695.848	2696.32
696.037	2677.89
696.226	2727.04
696.415	2636.93
696.604	2657.41
696.793	2653.31
696.982	2686.08
697.171	2765.95
697.36	2587.78
697.549	2616.45
697.738	2626.69
697.927	2555.01
698.116	2634.88
698.305	2577.54
698.494	2536.58
698.683	2600.07
698.872	2626.69
699.061	2516.1
699.25	2604.16
699.438	2575.49
699.627	2561.16
699.816	2622.59
700.005	2606.21
700.193	2604.16
700.382	2548.87
700.571	2469
700.76	2585.73
700.948	2528.39
701.137	2524.29
701.326	2561.16
701.514	2489.48
701.703	2690.18
701.892	2493.57
702.08	2514.05
702.269	2647.17
702.457	2569.35
702.646	2475.14
702.834	2528.39
703.023	2456.71
703.212	2534.53
703.4	2608.26
703.589	2471.04
703.777	2561.16
703.965	2458.76
704.154	2557.06
704.342	2466.95
704.531	2485.38
704.719	2509.96
704.907	2557.06
705.096	2507.91
705.284	2409.61
705.472	2524.29
705.661	2526.34
705.849	2450.57
706.037	2464.9
706.226	2495.62
706.414	2428.04
706.602	2477.19
706.79	2561.16
706.979	2444.42
707.167	2518.15
707.355	2425.99
707.543	2489.48
707.731	2514.05
707.919	2458.76
708.107	2499.72
708.296	2454.66
708.484	2403.46
708.672	2487.43
708.86	2548.87
709.048	2411.65
709.236	2419.85
709.424	2440.33
709.612	2518.15
709.8	2376.84
709.988	2534.53
710.176	2419.85
710.364	2466.95
710.551	2356.36
710.739	2376.84
710.927	2333.83
711.115	2479.24
711.303	2378.89
711.491	2438.28
711.679	2432.13
711.866	2346.12
712.054	2387.08
712.242	2350.21
712.43	2450.57
712.617	2378.89
712.805	2405.51
712.993	2471.04
713.181	2374.79
713.368	2434.18
713.556	2368.65
713.744	2303.11
713.931	2473.09
714.119	2456.71
714.306	2380.93
714.494	2454.66
714.682	2475.14
714.869	2415.75
715.057	2380.93
715.244	2380.93
715.432	2477.19
715.619	2393.22
715.807	2266.25
715.994	2352.26
716.182	2352.26
716.369	2366.6
716.556	2385.03
716.744	2399.37
716.931	2346.12
717.119	2315.4
717.306	2385.03
717.493	2313.35
717.681	2419.85
717.868	2323.59
718.055	2274.44
718.242	2417.8
718.43	2382.98
718.617	2329.74
718.804	2342.02
718.991	2462.85
719.179	2399.37
719.366	2358.41
719.553	2397.32
719.74	2325.64
719.927	2395.27
720.114	2323.59
720.301	2327.69
720.488	2477.19
720.676	2288.78
720.863	2430.09
721.05	2321.54
721.237	2366.6
721.424	2382.98
721.611	2270.34
721.798	2321.54
721.985	2229.38
722.172	2337.93
722.358	2213
722.545	2264.2
722.732	2321.54
722.919	2262.15
723.106	2253.96
723.293	2358.41
723.48	2352.26
723.667	2358.41
723.853	2288.78
724.04	2342.02
724.227	2229.38
724.414	2329.74
724.6	2272.39
724.787	2335.88
724.974	2315.4
725.161	2303.11
725.347	2270.34
725.534	2305.16
725.72	2274.44
725.907	2221.19
726.094	2374.79
726.28	2239.62
726.467	2215.05
726.653	2264.2
726.84	2333.83
727.027	2362.5
727.213	2311.3
727.4	2325.64
727.586	2278.54
727.773	2348.17
727.959	2165.9
728.145	2206.86
728.332	2243.72
728.518	2268.3
728.705	2260.1
728.891	2274.44
729.077	2235.53
729.264	2243.72
729.45	2344.07
729.636	2372.74
729.823	2309.26
730.009	2331.78
730.195	2264.2
730.382	2290.82
730.568	2184.33
730.754	2188.43
730.94	2253.96
731.126	2167.95
731.313	2165.9
731.499	2223.24
731.685	2307.21
731.871	2223.24
732.057	2253.96
732.243	2178.19
732.429	2196.62
732.615	2348.17
732.801	2256.01
732.987	2206.86
733.173	2202.76
733.359	2317.45
733.545	2219.14
733.731	2247.82
733.917	2362.5
734.103	2249.86
734.289	2143.37
734.475	2282.63
734.661	2235.53
734.847	2235.53
735.033	2237.58
735.219	2161.8
735.404	2243.72
735.59	2278.54
735.776	2180.23
735.962	2241.67
736.148	2102.41
736.333	2155.66
736.519	2213
736.705	2194.57
736.89	2215.05
737.076	2139.27
737.262	2096.27
737.447	2305.16
737.633	2151.56
737.819	2241.67
738.004	2135.18
738.19	2368.65
738.375	2188.43
738.561	2149.51
738.747	2165.9
738.932	2278.54
739.118	2149.51
739.303	2225.29
739.489	2176.14
739.674	2104.46
739.859	2294.92
740.045	2126.99
740.23	2198.67
740.416	2124.94
740.601	2075.79
740.786	2190.47
740.972	1954.96
741.157	2083.98
741.342	2059.4
741.528	2073.74
741.713	2088.07
741.898	2094.22
742.084	2141.32
742.269	2014.35
742.454	1995.92
742.639	2135.18
742.824	1995.92
743.01	2114.7
743.195	1957
743.38	1983.63
743.565	1936.53
743.75	1995.92
743.935	1952.91
744.12	2065.55
744.305	2004.11
744.49	1948.81
744.675	1827.98
744.86	1952.91
745.045	2002.06
745.23	1954.96
745.415	1928.33
745.6	2010.25
745.785	1815.69
745.97	2040.97
746.155	1918.09
746.34	1844.37
746.525	1885.33
746.71	1809.55
746.895	1819.79
747.079	1881.23
747.264	1860.75
747.449	1821.84
747.634	1784.98
747.819	1801.36
748.003	1772.69
748.188	1789.07
748.373	1780.88
748.557	1832.08
748.742	1698.96
748.927	1762.45
749.111	1703.06
749.296	1768.59
749.481	1731.73
749.665	1713.3
749.85	1701.01
750.034	1703.06
750.219	1684.62
750.404	1545.36
750.588	1629.33
750.773	1668.24
750.957	1645.71
751.141	1655.95
751.326	1551.51
751.51	1655.95
751.695	1633.43
751.879	1571.99
752.064	1631.38
752.248	1576.08
752.432	1660.05
752.617	1522.84
752.801	1557.65
752.985	1494.16
753.17	1672.34
753.354	1463.44
753.538	1479.83
753.722	1473.68
753.907	1385.62
754.091	1408.15
754.275	1373.33
754.459	1385.62
754.643	1391.77
754.828	1399.96
755.012	1418.39
755.196	1375.38
755.38	1500.31
755.564	1338.52
755.748	1361.05
755.932	1447.06
756.116	1455.25
756.3	1311.89
756.484	1225.88
756.668	1383.57
756.852	1250.46
757.036	1379.48
757.22	1260.7
757.404	1215.64
757.588	1225.88
757.772	1277.08
757.956	1182.87
758.14	1356.95
758.323	1150.11
758.507	1258.65
758.691	1283.22
758.875	1129.63
759.059	1242.26
759.242	1223.83
759.426	1240.22
759.61	1115.29
759.794	1133.72
759.977	1189.02
760.161	1064.09
760.345	1225.88
760.528	1141.91
760.712	1137.82
760.895	1113.24
761.079	1207.45
761.263	1100.95
761.446	1103
761.63	1092.76
761.813	1113.24
761.997	1084.57
762.18	1082.52
762.364	1064.09
762.547	1047.71
762.731	1094.81
762.914	994.46
763.098	1027.23
763.281	1068.19
763.464	1053.85
763.648	978.08
763.831	976.03
764.015	1049.75
764.198	949.4
764.381	1100.95
764.564	1033.37
764.748	980.12
764.931	988.32
765.114	1025.18
765.297	1010.84
765.481	959.64
765.664	1103
765.847	953.5
766.03	1029.27
766.213	1004.7
766.397	1004.7
766.58	996.51
766.763	1041.56
766.946	904.35
767.129	1057.95
767.312	916.64
767.495	963.74
767.678	941.21
767.861	1019.04
768.044	1043.61
768.227	922.78
768.41	863.39
768.593	894.11
768.776	894.11
768.959	951.45
769.142	943.26
769.324	896.16
769.507	896.16
769.69	904.35
769.873	818.33
770.056	900.25
770.239	900.25
770.421	945.31
770.604	842.91
770.787	896.16
770.97	875.68
771.152	898.2
771.335	996.51
771.518	769.18
771.7	887.97
771.883	861.34
772.066	849.05
772.248	951.45
772.431	916.64
772.613	832.67
772.796	840.86
772.978	824.48
773.161	775.33
773.343	795.81
773.526	863.39
773.708	732.32
773.891	871.58
774.073	806.05
774.256	855.2
774.438	826.53
774.621	744.61
774.803	865.44
774.985	767.13
775.168	746.66
775.35	773.28
775.532	701.6
775.715	736.42
775.897	748.7
776.079	742.56
776.261	779.42
776.444	734.37
776.626	756.9
776.808	715.94
776.99	717.98
777.173	654.5
777.355	738.46
777.537	724.13
777.719	691.36
777.901	777.37
778.083	715.94
778.265	699.55
778.447	699.55
778.629	588.96
778.811	631.97
778.993	726.18
779.175	636.06
779.357	677.02
779.539	713.89
779.721	611.49
779.903	679.07
780.085	609.44
780.267	609.44
780.449	533.67
780.631	668.83
780.812	570.53
780.994	543.91
781.176	642.21
781.358	611.49
781.54	607.39
781.721	613.54
781.903	582.82
782.085	539.81
782.267	617.63
782.448	548
782.63	500.9
782.812	586.91
782.993	494.76
783.175	613.54
783.357	545.95
783.538	511.14
783.72	568.48
783.901	521.38
784.083	511.14
784.264	470.18
784.446	599.2
784.627	494.76
784.809	554.15
784.99	484.52
785.172	586.91
785.353	527.52
785.535	453.8
785.716	464.04
785.897	461.99
786.079	433.32
786.26	429.22
786.441	525.47
786.623	418.98
786.804	496.8
786.985	459.94
787.167	425.12
787.348	492.71
787.529	443.56
787.71	472.23
787.891	429.22
788.073	398.5
788.254	382.12
788.435	378.02
788.616	406.69
788.797	347.3
788.978	423.08
789.159	425.12
789.34	502.95
789.522	384.16
789.703	431.27
789.884	517.28
790.065	429.22
790.246	492.71
790.427	324.77
790.607	365.73
790.788	437.41
790.969	353.45
791.15	394.4
791.331	359.59
791.512	322.73
791.693	324.77
791.874	343.21
792.054	410.79
792.235	347.3
792.416	314.53
792.597	345.25
792.778	326.82
792.958	404.64
793.139	318.63
793.32	396.45
793.5	347.3
793.681	349.35
793.862	433.32
794.042	343.21
794.223	361.64
794.404	308.39
794.584	294.05
794.765	392.36
794.945	380.07
795.126	322.73
795.306	341.16
795.487	332.97
795.667	373.92
795.848	318.63
796.028	298.15
796.209	353.45
796.389	330.92
796.57	375.97
796.75	203.94
796.93	316.58
797.111	265.38
797.291	265.38
797.471	294.05
797.652	271.53
797.832	324.77
798.012	298.15
798.192	236.71
798.373	337.06
798.553	283.81
798.733	294.05
798.913	232.62
799.093	267.43
799.274	316.58
799.454	296.1
799.634	316.58
799.814	216.23
799.994	380.07
800.174	292.01
800.354	267.43
800.534	183.46
800.714	228.52
800.894	283.81
801.074	228.52
801.254	265.38
801.434	253.09
801.614	281.77
801.794	187.56
801.974	625.83
802.154	265.38
802.334	220.33
802.514	222.38
802.693	283.81
802.873	218.28
803.053	226.47
803.233	177.32
803.413	175.27
803.592	212.14
803.772	226.47
803.952	287.91
804.131	212.14
804.311	296.1
804.491	228.52
804.67	218.28
804.85	226.47
805.03	177.32
805.209	253.09
805.389	230.57
805.568	267.43
805.748	167.08
805.928	253.09
806.107	181.42
806.287	234.66
806.466	249
806.646	187.56
806.825	201.9
807.004	259.24
807.184	185.51
807.363	337.06
807.543	222.38
807.722	246.95
807.901	167.08
808.081	255.14
808.26	140.46
808.439	199.85
808.619	175.27
808.798	144.55
808.977	199.85
809.156	246.95
809.336	171.18
809.515	234.66
809.694	205.99
809.873	181.42
810.052	169.13
810.231	246.95
810.411	191.66
810.59	167.08
810.769	150.7
810.948	169.13
811.127	165.03
811.306	218.28
811.485	148.65
811.664	257.19
811.843	173.22
812.022	156.84
812.201	126.12
812.38	205.99
812.559	156.84
812.737	150.7
812.916	162.98
813.095	187.56
813.274	79.02
813.453	187.56
813.632	222.38
813.811	122.02
813.989	152.74
814.168	175.27
814.347	175.27
814.526	109.74
814.704	246.95
814.883	167.08
815.062	140.46
815.24	162.98
815.419	124.07
815.598	214.18
815.776	81.07
815.955	214.18
816.133	89.26
816.312	185.51
816.49	220.33
816.669	132.26
816.847	148.65
817.026	185.51
817.204	154.79
817.383	119.98
817.561	107.69
817.74	201.9
817.918	136.36
818.097	146.6
818.275	91.31
818.453	165.03
818.632	197.8
818.81	160.94
818.988	148.65
819.167	124.07
819.345	162.98
819.523	109.74
819.701	218.28
819.879	179.37
820.058	140.46
820.236	173.22
820.414	132.26
820.592	177.32
820.77	111.78
820.948	136.36
821.127	140.46
821.305	169.13
821.483	115.88
821.661	160.94
821.839	117.93
822.017	193.7
822.195	177.32
822.373	134.31
822.551	79.02
822.729	275.62
822.907	109.74
823.085	160.94
823.262	140.46
823.44	181.42
823.618	119.98
823.796	72.87
823.974	126.12
824.152	85.16
824.329	158.89
824.507	122.02
824.685	128.17
824.863	70.83
825.04	56.49
825.218	169.13
825.396	128.17
825.574	140.46
825.751	158.89
825.929	146.6
826.107	81.07
826.284	134.31
826.462	113.83
826.639	185.51
826.817	111.78
826.994	177.32
827.172	97.45
827.349	76.97
827.527	119.98
827.704	132.26
827.882	117.93
828.059	87.21
828.237	183.46
828.414	152.74
828.591	54.44
828.769	122.02
828.946	148.65
829.124	76.97
829.301	165.03
829.478	93.35
829.655	56.49
829.833	117.93
830.01	103.59
830.187	158.89
830.364	66.73
830.542	177.32
830.719	160.94
830.896	99.5
831.073	107.69
831.25	99.5
831.427	83.11
831.604	81.07
831.782	36.01
831.959	134.31
832.136	97.45
832.313	107.69
832.49	70.83
832.667	156.84
832.844	62.63
833.021	132.26
833.198	113.83
833.374	128.17
833.551	154.79
833.728	42.15
833.905	70.83
834.082	36.01
834.259	95.4
834.436	111.78
834.612	83.11
834.789	113.83
834.966	101.55
835.143	64.68
835.319	21.67
835.496	74.92
835.673	31.91
835.85	107.69
836.026	29.87
836.203	109.74
836.38	29.87
836.556	119.98
836.733	60.59
836.909	122.02
837.086	68.78
837.262	113.83
837.439	122.02
837.616	101.55
837.792	79.02
837.968	95.4
838.145	1.19
838.321	119.98
838.498	101.55
838.674	27.82
838.851	148.65
839.027	25.77
839.203	105.64
839.38	140.46
839.556	81.07
839.732	128.17
839.909	97.45
840.085	99.5
840.261	42.15
840.437	62.63
840.614	54.44
840.79	148.65
840.966	150.7
841.142	27.82
841.318	68.78
841.494	81.07
841.671	72.87
841.847	56.49
842.023	136.36
842.199	60.59
842.375	122.02
842.551	46.25
842.727	-23.38
842.903	140.46
843.079	87.21
843.255	117.93
843.431	101.55
843.607	97.45
843.783	64.68
843.959	66.73
844.134	105.64
844.31	97.45
844.486	134.31
844.662	25.77
844.838	19.63
845.013	40.11
845.189	76.97
845.365	79.02
845.541	103.59
845.716	44.2
845.892	74.92
846.068	105.64
846.244	-11.09
846.419	31.91
846.595	76.97
846.77	85.16
846.946	29.87
847.122	97.45
847.297	62.63
847.473	142.5
847.648	-31.57
847.824	21.67
847.999	-7
848.175	124.07
848.35	46.25
848.526	68.78
848.701	70.83
848.876	17.58
849.052	79.02
849.227	46.25
849.403	-11.09
849.578	42.15
849.753	-2.9
849.929	15.53
850.104	-31.57
850.279	81.07
850.454	156.84
850.63	81.07
850.805	48.3
850.98	5.29
851.155	85.16
851.33	74.92
851.505	27.82
851.681	62.63
851.856	60.59
852.031	15.53
852.206	36.01
852.381	62.63
852.556	50.35
852.731	42.15
852.906	62.63
853.081	21.67
853.256	62.63
853.431	40.11
853.606	74.92
853.781	40.11
853.956	-45.91
854.131	29.87
854.305	68.78
854.48	89.26
854.655	19.63
854.83	70.83
855.005	7.34
855.18	58.54
855.354	70.83
855.529	56.49
855.704	-29.52
855.879	97.45
856.053	38.06
856.228	60.59
856.403	21.67
856.577	105.64
856.752	1.19
856.926	68.78
857.101	38.06
857.276	21.67
857.45	66.73
857.625	142.5
857.799	-15.19
857.974	48.3
858.148	19.63
858.323	122.02
858.497	58.54
858.672	-19.29
858.846	-29.52
859.02	58.54
859.195	54.44
859.369	17.58
859.543	29.87
859.718	5.29
859.892	62.63
860.066	68.78
860.241	-13.14
860.415	40.11
860.589	66.73
860.763	62.63
860.938	-2.9
861.112	9.39
861.286	-11.09
861.46	74.92
861.634	56.49
861.808	152.74
861.982	-0.85
862.157	21.67
862.331	42.15
862.505	42.15
862.679	-4.95
862.853	89.26
863.027	-45.91
863.201	122.02
863.375	107.69
863.549	62.63
863.722	58.54
863.896	50.35
864.07	31.91
864.244	15.53
864.418	101.55
864.592	7.34
864.766	52.39
864.939	27.82
865.113	-62.29
865.287	-7
865.461	19.63
865.634	62.63
865.808	29.87
865.982	23.72
866.156	-9.05
866.329	-47.96
866.503	5.29
866.676	23.72
866.85	66.73
867.024	36.01
867.197	46.25
867.371	91.31
867.544	74.92
867.718	1.19
867.891	23.72
868.065	-9.05
868.238	19.63
868.412	3.24
868.585	13.48
868.759	66.73
868.932	5.29
869.105	56.49
869.279	48.3
869.452	-4.95
869.625	-0.85
869.799	-7
869.972	42.15
870.145	91.31
870.319	23.72
870.492	21.67
870.665	91.31
870.838	46.25
871.011	-19.29
871.185	50.35
871.358	58.54
871.531	48.3
871.704	-2.9
871.877	33.96
872.05	-15.19
872.223	-11.09
872.396	101.55
872.569	38.06
872.742	42.15
872.915	-4.95
873.088	-23.38
873.261	56.49
873.434	-17.24
873.607	25.77
873.78	46.25
873.953	5.29
874.126	23.72
874.299	46.25
874.471	29.87
874.644	7.34
874.817	83.11
874.99	44.2
875.163	111.78
875.335	29.87
875.508	7.34
875.681	-4.95
875.853	-64.34
876.026	87.21
876.199	19.63
876.371	25.77
876.544	40.11
876.717	101.55
876.889	54.44
877.062	89.26
877.234	36.01
877.407	27.82
877.579	48.3
877.752	17.58
877.924	38.06
878.097	27.82
878.269	91.31
878.442	62.63
878.614	136.36
878.786	81.07
878.959	91.31
879.131	50.35
879.303	31.91
879.476	29.87
879.648	-11.09
879.82	15.53
879.993	60.59
880.165	36.01
880.337	72.87
880.509	-13.14
880.681	62.63
880.854	15.53
881.026	27.82
881.198	85.16
881.37	58.54
881.542	50.35
881.714	-19.29
881.886	19.63
882.058	5.29
882.23	23.72
882.402	15.53
882.574	-9.05
882.746	-13.14
882.918	58.54
883.09	85.16
883.262	-4.95
883.434	-37.72
883.606	31.91
883.778	-7
883.95	23.72
884.122	79.02
884.293	-25.43
884.465	-45.91
884.637	42.15
884.809	13.48
884.98	-13.14
885.152	25.77
885.324	54.44
885.496	-74.58
885.667	52.39
885.839	9.39
886.011	31.91
886.182	48.3
886.354	68.78
886.525	83.11
886.697	62.63
886.869	-27.48
887.04	3.24
887.212	23.72
887.383	103.59
887.555	1.19
887.726	7.34
887.897	36.01
888.069	7.34
888.24	31.91
888.412	5.29
888.583	15.53
888.754	-9.05
888.926	33.96
889.097	74.92
889.268	-88.92
889.44	38.06
889.611	52.39
889.782	66.73
889.953	-9.05
890.125	27.82
890.296	-2.9
890.467	-17.24
890.638	-19.29
890.809	83.11
890.98	33.96
891.151	38.06
891.323	-2.9
891.494	58.54
891.665	42.15
891.836	-7
892.007	42.15
892.178	15.53
892.349	23.72
892.52	60.59
892.691	95.4
892.862	29.87
893.032	-54.1
893.203	1.19
893.374	-23.38
893.545	44.2
893.716	48.3
893.887	-0.85
894.057	-35.67
894.228	7.34
894.399	1.19
894.57	33.96
894.74	-11.09
894.911	-7
895.082	13.48
895.253	17.58
895.423	-54.1
895.594	89.26
895.764	29.87
895.935	-13.14
896.106	103.59
896.276	-7
896.447	91.31
896.617	-23.38
896.788	-2.9
896.958	64.68
897.129	99.5
897.299	5.29
897.47	58.54
897.64	9.39
897.81	99.5
897.981	56.49
898.151	-2.9
898.322	58.54
898.492	25.77
898.662	17.58
898.832	-17.24
899.003	40.11
899.173	87.21
899.343	-0.85
899.513	-62.29
