Data from USB4F104151__36__11-05-21-470.txt Node

Date: Wed Mar 12 11:05:21 EDT 2025
User: louis
Spectrometer: USB4F10415
Trigger mode: 4
Integration Time (sec): 2.000000E-2
Scans to average: 1
Electric dark correction enabled: true
Nonlinearity correction enabled: false
Boxcar width: 0
XAxis mode: Wavelengths
Number of Pixels in Spectrum: 3648
>>>>>Begin Spectral Data<<<<<
178.204	-97.62
178.424	-97.62
178.644	-97.62
178.864	-97.62
179.084	-50.52
179.304	-27.99
179.524	-34.13
179.744	-36.18
179.964	-30.04
180.184	4.78
180.404	2.73
180.624	2.73
180.844	62.12
181.064	-56.66
181.283	21.16
181.503	25.26
181.723	66.22
181.943	-27.99
182.163	10.92
182.383	-3.41
182.602	45.74
182.822	19.11
183.042	70.31
183.262	-11.61
183.482	17.07
183.701	21.16
183.921	0.68
184.141	6.83
184.361	62.12
184.58	-7.51
184.8	37.55
185.02	-44.37
185.239	-9.56
185.459	-85.33
185.679	39.59
185.898	0.68
186.118	23.21
186.338	-19.8
186.557	27.31
186.777	23.21
186.997	55.98
187.216	-17.75
187.436	6.83
187.655	-25.94
187.875	68.27
188.095	-27.99
188.314	31.4
188.534	103.08
188.753	-75.09
188.973	-9.56
189.192	68.27
189.412	37.55
189.631	-1.37
189.851	-3.41
190.07	76.46
190.29	-73.04
190.509	62.12
190.729	-11.61
190.948	-5.46
191.168	146.09
191.387	-48.47
191.607	-15.7
191.826	39.59
192.045	-36.18
192.265	-1.37
192.484	-34.13
192.704	0.68
192.923	-7.51
193.142	23.21
193.362	41.64
193.581	35.5
193.8	10.92
194.02	33.45
194.239	72.36
194.458	27.31
194.678	17.07
194.897	53.93
195.116	-15.7
195.335	68.27
195.555	2.73
195.774	68.27
195.993	21.16
196.212	15.02
196.432	-75.09
196.651	-3.41
196.87	-17.75
197.089	-3.41
197.308	62.12
197.528	117.42
197.747	15.02
197.966	60.07
198.185	43.69
198.404	49.83
198.623	31.4
198.842	-1.37
199.062	27.31
199.281	72.36
199.5	-1.37
199.719	66.22
199.938	25.26
200.157	76.46
200.376	12.97
200.595	21.16
200.814	-13.65
201.033	31.4
201.252	66.22
201.471	2.73
201.69	39.59
201.909	17.07
202.128	-5.46
202.347	82.6
202.566	-44.37
202.785	2.73
203.004	2.73
203.223	66.22
203.442	-34.13
203.661	-83.28
203.879	43.69
204.098	60.07
204.317	39.59
204.536	33.45
204.755	37.55
204.974	53.93
205.193	43.69
205.411	25.26
205.63	23.21
205.849	-36.18
206.068	31.4
206.287	-1.37
206.505	27.31
206.724	2.73
206.943	-1.37
207.162	41.64
207.381	10.92
207.599	37.55
207.818	82.6
208.037	39.59
208.255	-42.32
208.474	37.55
208.693	-36.18
208.911	29.35
209.13	-27.99
209.349	41.64
209.567	88.75
209.786	-46.42
210.005	70.31
210.223	88.75
210.442	17.07
210.661	70.31
210.879	2.73
211.098	17.07
211.316	-75.09
211.535	74.41
211.753	27.31
211.972	60.07
212.191	6.83
212.409	66.22
212.628	84.65
212.846	-23.89
213.065	15.02
213.283	6.83
213.502	-5.46
213.72	21.16
213.938	-23.89
214.157	-7.51
214.375	43.69
214.594	60.07
214.812	10.92
215.031	19.11
215.249	37.55
215.467	27.31
215.686	31.4
215.904	-17.75
216.122	-36.18
216.341	47.79
216.559	25.26
216.778	86.7
216.996	-30.04
217.214	6.83
217.432	8.87
217.651	-25.94
217.869	23.21
218.087	27.31
218.306	70.31
218.524	21.16
218.742	-23.89
218.96	2.73
219.179	21.16
219.397	17.07
219.615	-34.13
219.833	43.69
220.051	-27.99
220.27	-30.04
220.488	-50.52
220.706	55.98
220.924	-5.46
221.142	6.83
221.36	-46.42
221.578	21.16
221.796	2.73
222.015	27.31
222.233	88.75
222.451	8.87
222.669	41.64
222.887	33.45
223.105	-77.14
223.323	-11.61
223.541	-11.61
223.759	37.55
223.977	-97.62
224.195	119.46
224.413	-58.71
224.631	68.27
224.849	2.73
225.067	47.79
225.285	-42.32
225.503	31.4
225.721	-25.94
225.939	-7.51
226.157	-3.41
226.375	66.22
226.592	0.68
226.81	31.4
227.028	8.87
227.246	60.07
227.464	31.4
227.682	-5.46
227.9	60.07
228.117	-40.28
228.335	-66.9
228.553	-13.65
228.771	-9.56
228.989	-1.37
229.206	-7.51
229.424	31.4
229.642	-17.75
229.86	29.35
230.077	60.07
230.295	-19.8
230.513	31.4
230.731	4.78
230.948	45.74
231.166	-9.56
231.384	-30.04
231.601	-66.9
231.819	96.94
232.037	12.97
232.254	-38.23
232.472	6.83
232.689	25.26
232.907	17.07
233.125	12.97
233.342	-1.37
233.56	-40.28
233.777	47.79
233.995	31.4
234.213	37.55
234.43	47.79
234.648	10.92
234.865	-50.52
235.083	-25.94
235.3	-1.37
235.518	6.83
235.735	17.07
235.953	27.31
236.17	76.46
236.388	31.4
236.605	-1.37
236.822	37.55
237.04	55.98
237.257	49.83
237.475	-25.94
237.692	-46.42
237.909	-44.37
238.127	-54.61
238.344	23.21
238.562	35.5
238.779	43.69
238.996	-64.85
239.214	2.73
239.431	8.87
239.648	-56.66
239.865	70.31
240.083	-1.37
240.3	15.02
240.517	58.03
240.735	10.92
240.952	60.07
241.169	29.35
241.386	39.59
241.603	29.35
241.821	-48.47
242.038	58.03
242.255	82.6
242.472	-62.8
242.689	15.02
242.907	-30.04
243.124	51.88
243.341	2.73
243.558	-64.85
243.775	4.78
243.992	27.31
244.209	51.88
244.426	19.11
244.643	25.26
244.86	-13.65
245.078	43.69
245.295	-1.37
245.512	-19.8
245.729	-25.94
245.946	10.92
246.163	-21.85
246.38	-7.51
246.597	37.55
246.814	107.18
247.031	4.78
247.248	-9.56
247.464	35.5
247.681	80.55
247.898	25.26
248.115	15.02
248.332	-5.46
248.549	-7.51
248.766	94.89
248.983	29.35
249.2	-5.46
249.417	58.03
249.633	19.11
249.85	17.07
250.067	0.68
250.284	12.97
250.501	60.07
250.717	33.45
250.934	35.5
251.151	33.45
251.368	17.07
251.585	31.4
251.801	80.55
252.018	-25.94
252.235	96.94
252.451	-44.37
252.668	-5.46
252.885	31.4
253.102	-32.08
253.318	58.03
253.535	-19.8
253.752	23.21
253.968	4.78
254.185	-23.89
254.401	25.26
254.618	8.87
254.835	4.78
255.051	78.51
255.268	31.4
255.484	21.16
255.701	64.17
255.917	-9.56
256.134	31.4
256.351	35.5
256.567	6.83
256.784	-11.61
257	45.74
257.217	70.31
257.433	35.5
257.65	31.4
257.866	96.94
258.082	-25.94
258.299	19.11
258.515	-9.56
258.732	-25.94
258.948	45.74
259.165	-13.65
259.381	25.26
259.597	43.69
259.814	19.11
260.03	55.98
260.246	10.92
260.463	19.11
260.679	58.03
260.895	94.89
261.112	53.93
261.328	-52.56
261.544	-36.18
261.761	21.16
261.977	43.69
262.193	-38.23
262.409	-25.94
262.626	4.78
262.842	-42.32
263.058	27.31
263.274	45.74
263.49	37.55
263.707	74.41
263.923	17.07
264.139	37.55
264.355	27.31
264.571	80.55
264.787	-38.23
265.004	15.02
265.22	-9.56
265.436	29.35
265.652	-40.28
265.868	27.31
266.084	-19.8
266.3	8.87
266.516	31.4
266.732	39.59
266.948	-17.75
267.164	119.46
267.38	-1.37
267.596	31.4
267.812	-13.65
268.028	53.93
268.244	70.31
268.46	8.87
268.676	6.83
268.892	58.03
269.108	31.4
269.324	10.92
269.54	31.4
269.756	39.59
269.972	31.4
270.188	37.55
270.403	2.73
270.619	0.68
270.835	31.4
271.051	6.83
271.267	-54.61
271.483	4.78
271.698	31.4
271.914	39.59
272.13	35.5
272.346	-1.37
272.562	33.45
272.777	23.21
272.993	-40.28
273.209	4.78
273.425	4.78
273.64	2.73
273.856	64.17
274.072	-1.37
274.287	-5.46
274.503	12.97
274.719	66.22
274.934	0.68
275.15	-7.51
275.366	58.03
275.581	-42.32
275.797	-40.28
276.012	23.21
276.228	8.87
276.444	37.55
276.659	-9.56
276.875	-42.32
277.09	-15.7
277.306	-23.89
277.521	43.69
277.737	25.26
277.952	76.46
278.168	-32.08
278.383	2.73
278.599	-19.8
278.814	27.31
279.03	25.26
279.245	98.99
279.461	64.17
279.676	6.83
279.892	37.55
280.107	-17.75
280.322	-64.85
280.538	21.16
280.753	2.73
280.969	37.55
281.184	25.26
281.399	-23.89
281.615	-60.76
281.83	10.92
282.045	-9.56
282.26	23.21
282.476	29.35
282.691	27.31
282.906	-5.46
283.122	-11.61
283.337	15.02
283.552	80.55
283.767	49.83
283.983	2.73
284.198	-13.65
284.413	-62.8
284.628	-11.61
284.843	-3.41
285.058	45.74
285.274	-11.61
285.489	-15.7
285.704	80.55
285.919	88.75
286.134	-9.56
286.349	51.88
286.564	23.21
286.779	23.21
286.995	62.12
287.21	-27.99
287.425	-5.46
287.64	-50.52
287.855	33.45
288.07	-17.75
288.285	43.69
288.5	-1.37
288.715	-13.65
288.93	-34.13
289.145	41.64
289.36	19.11
289.575	-87.38
289.79	19.11
290.004	-11.61
290.219	33.45
290.434	29.35
290.649	166.57
290.864	19.11
291.079	12.97
291.294	58.03
291.509	15.02
291.724	0.68
291.938	-38.23
292.153	-3.41
292.368	74.41
292.583	39.59
292.798	27.31
293.012	19.11
293.227	-1.37
293.442	-27.99
293.657	39.59
293.871	39.59
294.086	-11.61
294.301	-17.75
294.516	80.55
294.73	101.03
294.945	70.31
295.16	53.93
295.374	-1.37
295.589	-11.61
295.804	33.45
296.018	49.83
296.233	92.84
296.447	105.13
296.662	-30.04
296.877	62.12
297.091	66.22
297.306	31.4
297.52	15.02
297.735	-1.37
297.949	35.5
298.164	39.59
298.378	88.75
298.593	-42.32
298.807	-50.52
299.022	15.02
299.236	8.87
299.451	31.4
299.665	19.11
299.88	45.74
300.094	49.83
300.309	76.46
300.523	64.17
300.737	47.79
300.952	4.78
301.166	31.4
301.381	47.79
301.595	76.46
301.809	25.26
302.024	78.51
302.238	31.4
302.452	70.31
302.667	41.64
302.881	27.31
303.095	31.4
303.309	6.83
303.524	23.21
303.738	25.26
303.952	37.55
304.166	27.31
304.381	2.73
304.595	31.4
304.809	55.98
305.023	70.31
305.237	4.78
305.452	33.45
305.666	47.79
305.88	-3.41
306.094	129.7
306.308	23.21
306.522	74.41
306.736	25.26
306.95	51.88
307.164	12.97
307.379	68.27
307.593	51.88
307.807	47.79
308.021	-11.61
308.235	80.55
308.449	-48.47
308.663	23.21
308.877	31.4
309.091	70.31
309.305	27.31
309.519	58.03
309.733	68.27
309.947	72.36
310.161	49.83
310.374	109.22
310.588	141.99
310.802	-30.04
311.016	35.5
311.23	27.31
311.444	-62.8
311.658	-34.13
311.872	41.64
312.085	94.89
312.299	17.07
312.513	51.88
312.727	-1.37
312.941	-21.85
313.154	39.59
313.368	-15.7
313.582	51.88
313.796	53.93
314.009	0.68
314.223	-9.56
314.437	43.69
314.651	12.97
314.864	0.68
315.078	-42.32
315.292	-15.7
315.505	-3.41
315.719	25.26
315.933	-1.37
316.146	62.12
316.36	6.83
316.573	113.32
316.787	45.74
317.001	25.26
317.214	-30.04
317.428	62.12
317.641	31.4
317.855	-23.89
318.068	-13.65
318.282	6.83
318.495	31.4
318.709	66.22
318.922	-32.08
319.136	23.21
319.349	80.55
319.563	60.07
319.776	-17.75
319.99	-66.9
320.203	0.68
320.417	29.35
320.63	33.45
320.843	76.46
321.057	-9.56
321.27	8.87
321.483	80.55
321.697	55.98
321.91	29.35
322.124	-17.75
322.337	70.31
322.55	-46.42
322.763	47.79
322.977	33.45
323.19	-25.94
323.403	76.46
323.617	-11.61
323.83	2.73
324.043	53.93
324.256	-21.85
324.469	8.87
324.683	43.69
324.896	43.69
325.109	-36.18
325.322	39.59
325.535	2.73
325.748	-9.56
325.962	17.07
326.175	41.64
326.388	55.98
326.601	72.36
326.814	68.27
327.027	23.21
327.24	103.08
327.453	45.74
327.666	27.31
327.879	39.59
328.092	49.83
328.305	117.42
328.518	21.16
328.731	33.45
328.944	76.46
329.157	-25.94
329.37	-11.61
329.583	74.41
329.796	23.21
330.009	51.88
330.222	31.4
330.435	23.21
330.648	60.07
330.861	8.87
331.073	74.41
331.286	-1.37
331.499	25.26
331.712	-9.56
331.925	55.98
332.138	35.5
332.35	21.16
332.563	33.45
332.776	41.64
332.989	27.31
333.202	-30.04
333.414	49.83
333.627	-13.65
333.84	-34.13
334.053	-46.42
334.265	55.98
334.478	12.97
334.691	2.73
334.903	-30.04
335.116	-38.23
335.329	76.46
335.541	-9.56
335.754	66.22
335.966	-40.28
336.179	15.02
336.392	45.74
336.604	17.07
336.817	76.46
337.029	0.68
337.242	37.55
337.454	-15.7
337.667	72.36
337.88	0.68
338.092	86.7
338.305	53.93
338.517	-34.13
338.729	101.03
338.942	47.79
339.154	4.78
339.367	29.35
339.579	-40.28
339.792	-13.65
340.004	37.55
340.217	17.07
340.429	37.55
340.641	19.11
340.854	45.74
341.066	-17.75
341.278	74.41
341.491	33.45
341.703	31.4
341.915	-48.47
342.128	39.59
342.34	25.26
342.552	19.11
342.764	70.31
342.977	35.5
343.189	62.12
343.401	4.78
343.613	31.4
343.826	21.16
344.038	10.92
344.25	17.07
344.462	19.11
344.674	45.74
344.886	68.27
345.099	-19.8
345.311	66.22
345.523	33.45
345.735	31.4
345.947	27.31
346.159	76.46
346.371	25.26
346.583	4.78
346.795	129.7
347.007	25.26
347.219	-1.37
347.431	-50.52
347.643	-15.7
347.855	19.11
348.067	-17.75
348.279	6.83
348.491	41.64
348.703	-21.85
348.915	23.21
349.127	-42.32
349.339	19.11
349.551	4.78
349.763	17.07
349.975	82.6
350.187	8.87
350.399	-15.7
350.61	45.74
350.822	43.69
351.034	88.75
351.246	10.92
351.458	-21.85
351.669	80.55
351.881	-3.41
352.093	-19.8
352.305	-15.7
352.517	29.35
352.728	53.93
352.94	41.64
353.152	123.56
353.363	41.64
353.575	6.83
353.787	6.83
353.999	62.12
354.21	19.11
354.422	10.92
354.633	2.73
354.845	23.21
355.057	33.45
355.268	51.88
355.48	131.75
355.692	6.83
355.903	33.45
356.115	-21.85
356.326	43.69
356.538	25.26
356.749	29.35
356.961	19.11
357.172	58.03
357.384	29.35
357.595	37.55
357.807	-1.37
358.018	-1.37
358.23	29.35
358.441	-40.28
358.653	39.59
358.864	72.36
359.075	17.07
359.287	-3.41
359.498	103.08
359.709	82.6
359.921	-1.37
360.132	-1.37
360.344	4.78
360.555	2.73
360.766	60.07
360.977	47.79
361.189	41.64
361.4	-25.94
361.611	76.46
361.823	-13.65
362.034	86.7
362.245	-34.13
362.456	33.45
362.667	0.68
362.879	47.79
363.09	-71
363.301	72.36
363.512	47.79
363.723	21.16
363.935	41.64
364.146	53.93
364.357	23.21
364.568	33.45
364.779	-7.51
364.99	55.98
365.201	-62.8
365.412	17.07
365.623	-27.99
365.834	41.64
366.045	33.45
366.256	37.55
366.467	2.73
366.678	60.07
366.889	15.02
367.1	-68.95
367.311	-5.46
367.522	17.07
367.733	-25.94
367.944	-11.61
368.155	15.02
368.366	33.45
368.577	10.92
368.788	45.74
368.999	41.64
369.209	-56.66
369.42	-54.61
369.631	101.03
369.842	-58.71
370.053	72.36
370.264	25.26
370.474	86.7
370.685	53.93
370.896	64.17
371.107	41.64
371.317	33.45
371.528	49.83
371.739	15.02
371.95	41.64
372.16	17.07
372.371	86.7
372.582	-5.46
372.792	-7.51
373.003	0.68
373.214	146.09
373.424	86.7
373.635	68.27
373.846	43.69
374.056	70.31
374.267	55.98
374.477	2.73
374.688	2.73
374.898	25.26
375.109	31.4
375.319	62.12
375.53	31.4
375.74	41.64
375.951	31.4
376.161	4.78
376.372	25.26
376.582	6.83
376.793	58.03
377.003	-23.89
377.214	-11.61
377.424	45.74
377.635	27.31
377.845	66.22
378.055	31.4
378.266	6.83
378.476	12.97
378.686	35.5
378.897	92.84
379.107	-25.94
379.317	64.17
379.528	41.64
379.738	103.08
379.948	76.46
380.158	68.27
380.369	4.78
380.579	74.41
380.789	70.31
380.999	47.79
381.21	53.93
381.42	78.51
381.63	55.98
381.84	53.93
382.05	121.51
382.261	64.17
382.471	78.51
382.681	92.84
382.891	53.93
383.101	10.92
383.311	39.59
383.521	-7.51
383.731	62.12
383.941	17.07
384.151	-5.46
384.361	-21.85
384.571	84.65
384.781	-13.65
384.991	55.98
385.201	51.88
385.411	117.42
385.621	60.07
385.831	43.69
386.041	94.89
386.251	37.55
386.461	33.45
386.671	84.65
386.881	33.45
387.091	-13.65
387.301	43.69
387.511	58.03
387.72	35.5
387.93	43.69
388.14	64.17
388.35	170.66
388.56	58.03
388.769	10.92
388.979	8.87
389.189	80.55
389.399	27.31
389.609	15.02
389.818	103.08
390.028	68.27
390.238	119.46
390.447	-19.8
390.657	2.73
390.867	8.87
391.076	17.07
391.286	41.64
391.496	-9.56
391.705	68.27
391.915	41.64
392.125	10.92
392.334	53.93
392.544	15.02
392.753	101.03
392.963	31.4
393.172	27.31
393.382	41.64
393.591	10.92
393.801	76.46
394.01	113.32
394.22	27.31
394.429	154.28
394.639	-7.51
394.848	51.88
395.058	115.37
395.267	43.69
395.477	129.7
395.686	131.75
395.895	64.17
396.105	84.65
396.314	92.84
396.524	51.88
396.733	92.84
396.942	43.69
397.152	15.02
397.361	80.55
397.57	92.84
397.78	82.6
397.989	90.79
398.198	80.55
398.407	47.79
398.617	133.8
398.826	53.93
399.035	72.36
399.244	78.51
399.453	19.11
399.663	72.36
399.872	58.03
400.081	144.04
400.29	105.13
400.499	96.94
400.708	94.89
400.917	88.75
401.127	90.79
401.336	60.07
401.545	113.32
401.754	127.66
401.963	160.42
402.172	137.9
402.381	148.14
402.59	51.88
402.799	76.46
403.008	66.22
403.217	101.03
403.426	35.5
403.635	37.55
403.844	53.93
404.053	107.18
404.262	119.46
404.471	47.79
404.68	182.95
404.888	146.09
405.097	193.19
405.306	172.71
405.515	113.32
405.724	84.65
405.933	113.32
406.142	109.22
406.35	62.12
406.559	86.7
406.768	234.15
406.977	178.86
407.185	191.14
407.394	141.99
407.603	164.52
407.812	213.67
408.02	240.3
408.229	158.38
408.438	187.05
408.646	172.71
408.855	174.76
409.064	225.96
409.272	168.62
409.481	264.87
409.69	189.1
409.898	195.24
410.107	264.87
410.315	246.44
410.524	250.53
410.733	250.53
410.941	234.15
411.15	260.77
411.358	291.49
411.567	350.89
411.775	344.74
411.984	373.41
412.192	340.65
412.401	408.23
412.609	416.42
412.818	334.5
413.026	365.22
413.234	346.79
413.443	516.77
413.651	496.29
413.86	572.07
414.068	477.86
414.276	524.96
414.485	473.76
414.693	547.49
414.901	604.83
415.11	537.25
415.318	647.84
415.526	608.93
415.734	639.65
415.943	684.7
416.151	674.46
416.359	705.18
416.567	737.95
416.776	811.68
416.984	832.16
417.192	881.31
417.4	914.08
417.608	795.29
417.817	959.13
418.025	903.84
418.233	877.21
418.441	955.04
418.649	996
418.857	1176.22
419.065	1151.64
419.273	1139.35
419.481	1133.21
419.689	1233.56
419.897	1323.67
420.105	1200.79
420.313	1297.05
420.521	1213.08
420.729	1364.63
420.937	1358.49
421.145	1413.78
421.353	1514.13
421.561	1637.01
421.769	1598.1
421.977	1671.83
422.185	1772.18
422.393	1720.98
422.601	1886.86
422.809	1952.4
423.017	1976.97
423.224	2030.22
423.432	2241.16
423.64	2226.82
423.848	2245.26
424.056	2212.49
424.263	2441.86
424.471	2488.96
424.679	2513.54
424.887	2663.04
425.094	2724.48
425.302	2642.56
425.51	2957.95
425.718	2925.18
425.925	2966.14
426.133	3070.59
426.341	3242.62
426.548	3267.19
426.756	3351.16
426.964	3431.03
427.171	3537.52
427.379	3553.91
427.586	3713.65
427.794	3842.67
428.001	4045.42
428.209	4256.36
428.417	4188.78
428.624	4711.01
428.832	4409.96
429.039	4491.88
429.247	4371.05
429.454	4686.44
429.662	5247.58
429.869	4868.7
430.076	5163.61
430.284	5034.59
430.491	5202.52
430.699	5640.79
430.906	5585.49
431.114	5804.63
431.321	5694.04
431.528	5909.07
431.736	6298.19
431.943	6523.46
432.15	6425.16
432.358	6582.85
432.565	6697.54
432.772	6734.4
432.979	7293.5
433.187	7316.03
433.394	7445.05
433.601	7858.74
433.808	7973.42
434.016	7868.98
434.223	8210.99
434.43	8569.38
434.637	8415.79
434.844	9024.03
435.052	9144.86
435.259	9038.37
435.466	9081.38
435.673	9071.14
435.88	9746.97
436.087	10301.97
436.294	10228.24
436.501	9951.76
436.708	10177.04
436.915	10410.51
437.122	10945.03
437.329	11059.71
437.537	11305.47
437.743	11545.08
437.95	11307.52
438.157	12108.27
438.364	12429.81
438.571	12364.27
438.778	12351.98
438.985	13451.74
439.192	13156.83
439.399	13693.4
439.606	13314.53
439.813	13941.21
440.02	14809.54
440.227	14649.8
440.433	14385.62
440.64	14827.98
440.847	14567.88
441.054	15231.43
441.261	16110
441.467	15999.41
441.674	16458.16
441.881	16667.05
442.088	16705.96
442.294	16644.52
442.501	17248.68
442.708	17414.56
442.914	17936.79
443.121	18758.03
443.328	18596.24
443.534	20009.34
443.741	19255.68
443.948	18960.78
444.154	20392.31
444.361	20328.82
444.568	20244.85
444.774	20066.68
444.981	20533.62
445.187	21227.88
445.394	22071.64
445.6	21944.67
445.807	23765.31
446.013	22862.16
446.22	23226.7
446.426	24039.74
446.633	24412.47
446.839	25084.2
447.046	24291.64
447.252	25090.35
447.459	25729.31
447.665	25364.78
447.871	26405.14
448.078	27486.47
448.284	26390.81
448.491	26802.45
448.697	28020.99
448.903	28459.26
449.11	28229.88
449.316	27934.98
449.522	28330.23
449.728	29180.14
449.935	29223.15
450.141	29241.58
450.347	30220.51
450.553	29325.55
450.76	29477.1
450.966	30370.01
451.172	30474.46
451.378	30931.15
451.584	30341.34
451.791	30955.73
451.997	30714.07
452.203	31244.49
452.409	31250.64
452.615	31029.46
452.821	29571.3
453.027	29380.84
453.233	30863.57
453.44	29722.85
453.646	29929.7
453.852	30036.19
454.058	30554.33
454.264	29307.12
454.47	30533.85
454.676	29294.83
454.882	30400.73
455.088	27547.91
455.294	28029.18
455.5	28444.92
455.705	28711.16
455.911	27525.38
456.117	27091.21
456.323	26741.01
456.529	25016.62
456.735	26472.73
456.941	25409.83
457.147	24877.36
457.352	24125.75
457.558	24070.46
457.764	24049.98
457.97	23488.84
458.176	22724.94
458.381	22985.04
458.587	21811.55
458.793	21977.44
458.999	20668.78
459.204	22315.35
459.41	21526.88
459.616	20291.96
459.821	20177.27
460.027	19984.76
460.233	19833.21
460.438	18553.23
460.644	18680.21
460.85	18049.43
461.055	17832.35
461.261	17562.01
461.466	16265.65
461.672	15862.2
461.878	17121.7
462.083	15991.22
462.289	15346.11
462.494	15514.05
462.7	14825.93
462.905	14268.88
463.111	14916.04
463.316	14770.63
463.522	14758.35
463.727	14799.3
463.932	14606.8
464.138	14463.44
464.343	14662.09
464.549	14129.62
464.754	14512.59
464.959	14490.06
465.165	14354.9
465.37	13713.88
465.575	13541.85
465.781	13814.23
465.986	14129.62
466.191	13312.48
466.397	13457.89
466.602	12601.83
466.807	13187.55
467.012	13310.43
467.218	13027.81
467.423	13033.96
467.628	12952.04
467.833	13603.29
468.038	12900.84
468.244	12575.21
468.449	13095.39
468.654	12720.62
468.859	12689.9
469.064	12456.43
469.269	12057.07
469.474	12003.83
469.679	12304.88
469.885	11977.2
470.09	12347.89
470.295	12163.57
470.5	11700.73
470.705	11860.47
470.91	11487.74
471.115	11532.79
471.32	11627
471.525	11514.36
471.73	11364.86
471.935	11321.85
472.139	10926.6
472.344	10869.25
472.549	10975.75
472.754	10754.57
472.959	10658.31
473.164	10392.08
473.369	10504.71
473.574	10652.17
473.778	10498.57
473.983	10234.38
474.188	10236.43
474.393	9849.36
474.598	10056.21
474.802	9691.67
475.007	9703.96
475.212	9736.73
475.417	9427.48
475.621	9349.66
475.826	9533.98
476.031	9118.24
476.235	9132.58
476.44	9169.44
476.645	9034.27
476.849	8931.87
477.054	8940.07
477.259	8731.17
477.463	8813.09
477.668	8679.97
477.872	8507.94
478.077	8518.18
478.282	8358.44
478.486	8364.59
478.691	8342.06
478.895	8073.78
479.1	8061.49
479.304	8202.8
479.509	8047.15
479.713	8081.97
479.918	7940.66
480.122	7836.21
480.326	7961.14
480.531	7717.43
480.735	7805.49
480.94	7860.79
481.144	8026.67
481.348	7563.83
481.553	7641.65
481.757	7592.5
481.961	7514.68
482.166	7709.24
482.37	7670.33
482.574	7610.93
482.778	7561.78
482.983	7674.42
483.187	7567.93
483.391	7635.51
483.595	7514.68
483.8	7629.37
484.004	7596.6
484.208	7776.82
484.412	7643.7
484.616	7625.27
484.821	7598.65
485.025	7352.89
485.229	7731.76
485.433	7600.69
485.637	7617.08
485.841	7643.7
486.045	7365.18
486.249	7567.93
486.453	7623.22
486.657	7418.43
486.861	7658.04
487.065	7467.58
487.269	7488.06
487.473	7492.15
487.677	7653.94
487.881	7780.92
488.085	7506.49
488.289	7633.46
488.493	7506.49
488.697	7543.35
488.901	7764.53
489.105	7727.67
489.309	7692.85
489.512	7569.98
489.716	7744.05
489.92	7778.87
490.124	7621.17
490.328	7778.87
490.531	7799.35
490.735	7764.53
490.939	7770.68
491.143	7735.86
491.346	7752.24
491.55	7952.95
491.754	7875.12
491.958	7930.42
492.161	8008.24
492.365	8088.11
492.569	8020.53
492.772	8014.38
492.976	8043.06
493.18	8172.08
493.383	8051.25
493.587	8305.2
493.79	8415.79
493.994	8274.48
494.197	8401.45
494.401	8401.45
494.605	8311.34
494.808	8899.11
495.012	8544.81
495.215	8673.83
495.419	8872.48
495.622	8688.17
495.825	8725.03
496.029	8819.24
496.232	9142.82
496.436	8991.27
496.639	9300.51
496.843	9079.33
497.046	9282.08
497.249	9427.48
497.453	9660.95
497.656	9703.96
497.859	9826.84
498.063	9906.71
498.266	9837.08
498.469	9904.66
498.673	9968.15
498.876	10154.51
499.079	10400.27
499.282	10519.05
499.485	10576.39
499.689	10562.06
499.892	10799.62
500.095	10826.25
500.298	11151.87
500.501	10811.91
500.705	11393.53
500.908	11233.79
501.111	11549.18
501.314	11702.78
501.517	11923.96
501.72	11938.29
501.923	11821.56
502.126	12055.03
502.329	12456.43
502.532	12423.66
502.735	12417.52
502.938	12667.37
503.141	12949.99
503.344	12986.85
503.547	13128.16
503.75	13097.44
503.953	13416.93
504.156	13361.63
504.359	13595.1
504.562	13664.73
504.765	14152.15
504.968	14023.12
505.17	14387.66
505.373	14219.73
505.576	14723.53
505.779	14721.48
505.982	14819.78
506.185	15339.97
506.387	14823.88
506.59	15032.77
506.793	15395.26
506.996	15559.1
507.198	16087.48
507.401	15778.23
507.604	16191.92
507.807	16103.86
508.009	16409.01
508.212	16517.55
508.415	16871.85
508.617	16808.36
508.82	17140.13
509.022	17164.71
509.225	17504.67
509.428	17691.04
509.63	17721.76
509.833	17850.78
510.035	18330
510.238	17975.7
510.44	18487.7
510.643	18786.7
510.845	19102.09
511.048	19118.47
511.25	19073.42
511.453	19327.36
511.655	20103.54
511.858	19587.46
512.06	19888.51
512.262	20013.43
512.465	19982.71
512.667	20414.84
512.87	20803.95
513.072	20779.37
513.274	21217.64
513.477	21428.58
513.679	21434.72
513.881	21965.15
514.084	22182.23
514.286	21891.42
514.488	22481.24
514.69	22735.18
514.893	23253.32
515.095	22913.36
515.297	23308.61
515.499	23134.54
515.701	23443.78
515.904	24092.99
516.106	24269.11
516.308	24357.17
516.51	24564.02
516.712	24514.87
516.914	25096.49
517.116	24981.81
517.318	25600.29
517.52	25569.57
517.722	25594.15
517.925	26044.7
518.127	26474.77
518.329	26474.77
518.531	26591.51
518.733	26956.05
518.935	27093.26
519.136	27156.75
519.338	27547.91
519.54	27504.9
519.742	28061.95
519.944	28227.84
520.146	28954.86
520.348	28991.73
520.55	28684.53
520.752	29225.2
520.954	29729
521.155	29493.48
521.357	30226.65
521.559	30003.42
521.761	30515.42
521.963	30327
522.164	30765.27
522.366	30970.07
522.568	31299.79
522.77	31205.58
522.971	31639.75
523.173	31523.02
523.375	32071.87
523.576	32037.06
523.778	32260.29
523.98	32594.11
524.181	32393.4
524.383	32575.67
524.584	33394.86
524.786	32827.57
524.988	32989.36
525.189	33763.5
525.391	33925.28
525.592	34031.78
525.794	34298.02
525.995	33996.96
526.197	34406.56
526.398	34267.3
526.6	34680.99
526.801	34891.93
527.003	35246.22
527.204	34996.37
527.406	35643.53
527.607	35260.56
527.808	35745.93
528.01	34992.28
528.211	35670.15
528.412	36169.86
528.614	36014.21
528.815	35917.96
529.016	36556.92
529.218	36079.75
529.419	36573.31
529.62	36331.65
529.822	36673.66
530.023	36573.31
530.224	36501.63
530.425	37070.96
530.626	36591.74
530.828	36356.22
531.029	37474.41
531.23	36429.95
531.431	36921.46
531.632	37259.38
531.833	37329.01
532.035	37093.49
532.236	37351.54
532.437	37257.33
532.638	36911.22
532.839	37914.73
533.04	37851.24
533.241	37232.75
533.442	37619.82
533.643	37183.6
533.844	37542
534.045	37519.47
534.246	37240.95
534.447	37498.99
534.648	37363.82
534.849	37982.31
535.05	37402.74
535.251	37759.08
535.451	37271.67
535.652	38013.03
535.853	37824.62
536.054	37900.39
536.255	38072.42
536.456	37714.03
536.657	38166.63
536.857	37802.09
537.058	37609.58
537.259	38084.71
537.46	38019.17
537.66	37775.47
537.861	37822.57
538.062	37701.74
538.263	37683.31
538.463	37933.16
538.664	37797.99
538.865	38201.44
539.065	37673.07
539.266	37683.31
539.466	38191.2
539.667	37783.66
539.868	38479.97
540.068	37978.22
540.269	37988.46
540.469	38240.36
540.67	37685.36
540.87	37998.69
541.071	37707.88
541.271	38105.19
541.472	37980.26
541.672	37660.78
541.873	37781.61
542.073	37365.87
542.274	37980.26
542.474	37785.71
542.675	37761.13
542.875	37890.15
543.075	37480.56
543.276	37314.67
543.476	37816.43
543.676	37773.42
543.877	37808.23
544.077	37757.03
544.277	37558.38
544.478	37742.7
544.678	37707.88
544.878	37619.82
545.078	37744.75
545.279	37476.46
545.479	37726.31
545.679	37929.06
545.879	37630.06
546.079	37603.44
546.28	37533.81
546.48	37507.18
546.68	37736.55
546.88	37720.17
547.08	37634.16
547.28	37671.02
547.48	37148.79
547.68	37646.44
547.88	37245.04
548.081	37490.8
548.281	37861.48
548.481	37595.24
548.681	37564.53
548.881	37570.67
549.081	37675.12
549.28	37140.6
549.48	37822.57
549.68	37326.96
549.88	37970.02
550.08	37466.22
550.28	37552.24
550.48	37204.08
550.68	37494.89
550.88	37380.21
551.08	37159.03
551.279	37851.24
551.479	37169.27
551.679	37355.63
551.879	37107.83
552.079	37517.42
552.278	37390.45
552.478	37390.45
552.678	37298.29
552.878	37509.23
553.077	37175.41
553.277	36956.28
553.477	37472.37
553.676	36853.88
553.876	37064.82
554.076	36943.99
554.275	36960.37
554.475	36546.68
554.674	37052.53
554.874	37187.7
555.074	36649.08
555.273	36952.18
555.473	37421.17
555.672	36743.29
555.872	36589.69
556.071	36937.85
556.271	37027.96
556.47	36552.83
556.67	36477.05
556.869	36391.04
557.068	36812.92
557.268	36581.5
557.467	36575.36
557.667	36372.61
557.866	36208.77
558.065	36393.09
558.265	36405.38
558.464	35995.78
558.663	36415.61
558.863	36053.12
559.062	36407.42
559.261	35823.75
559.461	36323.46
559.66	35993.73
559.859	36151.43
560.058	35823.75
560.258	36176
560.457	35358.86
560.656	35793.03
560.855	35252.37
561.054	35477.65
561.253	35123.35
561.453	35334.29
561.652	35414.16
561.851	35340.43
562.05	34990.23
562.249	34836.63
562.448	35545.23
562.647	35016.85
562.846	34943.13
563.045	35047.57
563.244	34455.71
563.443	35006.61
563.642	34558.11
563.841	34824.34
564.04	34373.79
564.239	34865.3
564.438	34162.85
564.637	34259.1
564.836	34754.71
565.035	33972.39
565.234	34289.82
565.432	34224.29
565.631	33849.51
565.83	33867.94
566.029	33958.05
566.228	33691.82
566.427	33564.84
566.625	33392.81
566.824	32889.01
567.023	33978.53
567.222	33091.76
567.42	33843.37
567.619	33405.1
567.818	33175.73
568.016	32958.64
568.215	33028.27
568.414	32919.73
568.612	33165.49
568.811	32692.41
569.01	33091.76
569.208	32411.84
569.407	32669.88
569.605	32264.38
569.804	32618.68
570.002	32078.02
570.201	32336.06
570.4	31795.4
570.598	31973.57
570.797	31862.98
570.995	31985.86
571.193	31662.28
571.392	31621.32
571.59	31457.48
571.789	31664.33
571.987	31852.74
572.186	31215.82
572.384	31170.77
572.582	31160.53
572.781	31359.18
572.979	30697.69
573.177	31080.66
573.376	31006.93
573.574	30574.81
573.772	30785.75
573.971	30443.74
574.169	30236.89
574.367	30204.13
574.565	30578.9
574.763	30388.44
574.962	29753.57
575.16	30048.48
575.358	30216.41
575.556	29636.84
575.754	30111.97
575.952	29366.51
576.151	29585.64
576.349	29235.44
576.547	29241.58
576.745	29260.01
576.943	29425.9
577.141	29333.74
577.339	29468.9
577.537	29077.74
577.735	29317.36
577.933	28891.38
578.131	29231.34
578.329	28729.59
578.527	28422.39
578.725	28524.79
578.923	28602.61
579.121	28299.51
579.319	28371.19
579.516	28721.4
579.714	28565.75
579.912	28418.3
580.11	27912.45
580.308	28147.97
580.506	28272.89
580.704	27607.3
580.901	28012.8
581.099	28055.81
581.297	27431.18
581.495	27306.25
581.692	27670.79
581.89	27459.85
582.088	27416.84
582.285	27222.28
582.483	27465.99
582.681	27109.65
582.878	26763.54
583.076	26689.81
583.274	27050.25
583.471	26595.6
583.669	26706.2
583.866	26738.96
584.064	26857.74
584.262	26345.75
584.459	26851.6
584.657	26476.82
584.854	26480.92
585.052	26190.11
585.249	26429.72
585.447	26288.41
585.644	25792.8
585.841	26282.27
586.039	26349.85
586.236	25588
586.434	25739.55
586.631	25641.25
586.828	26081.56
587.026	25829.66
587.223	25098.54
587.42	25110.83
587.618	25678.11
587.815	24969.52
588.012	25069.87
588.21	25221.42
588.407	25368.87
588.604	24719.67
588.801	24670.51
588.999	24893.74
589.196	24783.15
589.393	24938.8
589.59	24801.58
589.787	24482.1
589.984	24568.12
590.182	24107.32
590.379	24432.95
590.576	24166.71
590.773	23836.99
590.97	24361.27
591.167	24117.56
591.364	23855.42
591.561	24060.22
591.758	23648.58
591.955	23609.67
592.152	23871.81
592.349	23726.4
592.546	23843.13
592.743	23728.45
592.94	23312.71
593.137	23499.08
593.334	23615.81
593.531	22933.84
593.727	23339.33
593.924	22974.8
594.121	22925.64
594.318	23241.03
594.515	22526.29
594.712	22950.22
594.908	22716.75
595.105	22669.65
595.302	22626.64
595.499	22597.97
595.696	22587.73
595.892	22305.11
596.089	22505.81
596.286	22471
596.482	22237.53
596.679	22391.12
596.876	22069.59
597.072	21940.57
597.269	22038.87
597.466	21795.17
597.662	21598.56
597.859	22038.87
598.055	21926.24
598.252	21625.18
598.448	21506.4
598.645	21930.33
598.841	21203.3
599.038	21528.93
599.234	21250.41
599.431	21205.35
599.627	21125.48
599.824	21148.01
600.02	20779.37
600.217	21191.02
600.413	20838.76
600.609	20584.82
600.806	20740.46
601.002	20894.06
601.198	20808.05
601.395	20480.37
601.591	20429.17
601.787	20670.83
601.984	20470.13
602.18	20685.17
602.376	20775.28
602.572	20418.93
602.769	20550
602.965	20189.56
603.161	20025.72
603.357	20111.74
603.553	19861.88
603.75	20298.1
603.946	19532.16
604.142	19894.65
604.338	19435.91
604.534	19571.07
604.73	19442.05
604.926	19646.85
605.122	19679.61
605.318	19290.5
605.514	19118.47
605.71	19372.42
605.906	19124.61
606.102	19171.72
606.298	19052.94
606.494	18997.64
606.69	19276.16
606.886	19128.71
607.082	19087.75
607.278	18911.63
607.474	18868.62
607.67	18903.43
607.866	18481.55
608.062	18891.15
608.257	18680.21
608.453	18727.31
608.649	18672.01
608.845	18602.38
609.041	18471.31
609.236	18497.94
609.432	18686.35
609.628	18420.11
609.824	18180.5
610.019	18198.93
610.215	18258.32
610.411	18323.86
610.606	18125.21
610.802	18098.58
610.998	17830.3
611.193	18135.45
611.389	17977.75
611.584	18000.28
611.78	17766.81
611.976	17760.67
612.171	17981.85
612.367	17504.67
612.562	17787.29
612.758	17275.3
612.953	17564.06
613.149	18026.9
613.344	17359.27
613.539	17648.03
613.735	17449.38
613.93	17785.24
614.126	17324.45
614.321	17445.28
614.517	17705.37
614.712	17205.67
614.907	17312.16
615.103	17572.25
615.298	17244.58
615.493	17076.65
615.688	16951.72
615.884	17510.82
616.079	16691.63
616.274	17152.42
616.47	17109.41
616.665	17078.69
616.86	16912.81
617.055	16939.43
617.25	16718.25
617.445	16964.01
617.641	16542.13
617.836	16665
618.031	16542.13
618.226	16669.1
618.421	16460.21
618.616	16830.89
618.811	16394.67
619.006	16734.64
619.201	15958.46
619.396	16314.8
619.591	15915.45
619.786	16001.46
619.981	15770.04
620.176	16079.29
620.371	15690.17
620.566	15997.37
620.761	15876.54
620.956	15913.4
621.151	15491.52
621.346	15788.47
621.541	15331.78
621.735	15544.77
621.93	15208.9
622.125	15638.97
622.32	14866.89
622.515	15282.63
622.709	14979.53
622.904	15049.16
623.099	15088.07
623.294	14627.28
623.488	14807.5
623.683	14873.03
623.878	14182.87
624.072	14524.88
624.267	14488.01
624.462	14320.08
624.656	14350.8
624.851	14297.55
625.046	14164.43
625.24	14191.06
625.435	14154.19
625.629	14168.53
625.824	13828.57
626.018	13933.01
626.213	13576.67
626.407	13636.06
626.602	13472.22
626.796	13654.49
626.991	13533.66
627.185	13457.89
627.38	13451.74
627.574	13017.57
627.768	13257.18
627.963	13218.27
628.157	12947.94
628.352	12900.84
628.546	13009.38
628.74	12732.9
628.935	12693.99
629.129	12648.94
629.323	12712.42
629.517	12933.61
629.712	12474.86
629.906	12503.53
630.1	12397.04
630.294	12554.73
630.489	12417.52
630.683	12169.71
630.877	12044.79
631.071	12124.66
631.265	12167.66
631.459	12018.16
631.653	11829.75
631.848	11923.96
632.042	11764.22
632.236	11854.33
632.43	11704.82
632.624	11553.27
632.818	11403.77
633.012	11397.63
633.206	11352.57
633.4	11153.92
633.594	11231.74
633.788	11221.5
633.982	11342.33
634.176	11141.63
634.369	10967.56
634.563	11162.11
634.757	11096.58
634.951	11217.41
635.145	10666.5
635.339	10746.37
635.533	10734.09
635.726	10451.47
635.92	10517
636.114	10557.96
636.308	10566.15
636.501	10621.45
636.695	10578.44
636.889	10387.98
637.083	10463.75
637.276	10103.31
637.47	9982.48
637.664	10056.21
637.857	10037.78
638.051	9992.72
638.244	9845.27
638.438	9916.95
638.632	9943.57
638.825	9611.8
639.019	9611.8
639.212	9759.25
639.406	9648.66
639.599	9550.36
639.793	9527.83
639.986	9241.12
640.18	9482.78
640.373	9443.87
640.567	9132.58
640.76	9368.09
640.954	9435.67
641.147	9161.25
641.34	9312.8
641.534	8960.55
641.727	9140.77
641.92	9001.51
642.114	8895.01
642.307	8876.58
642.5	8757.8
642.694	8604.2
642.887	8753.7
643.08	8782.37
643.273	8524.33
643.467	8628.77
643.66	8542.76
643.853	8374.83
644.046	8423.98
644.239	8366.64
644.432	8305.2
644.626	8411.69
644.819	8305.2
645.012	8323.63
645.205	8215.09
645.398	8112.69
645.591	7991.86
645.784	8198.7
645.977	8012.34
646.17	8030.77
646.363	7998
646.556	7938.61
646.749	7879.22
646.942	7936.56
647.135	7854.64
647.328	7862.83
647.521	7754.29
647.714	7586.36
647.907	7651.89
648.099	7678.52
648.292	7608.89
648.485	7412.28
648.678	7367.23
648.871	7434.81
649.064	7471.67
649.256	7529.02
649.449	7176.77
649.642	7338.55
649.835	7111.23
650.027	7162.43
650.22	7242.3
650.413	7084.61
650.605	6928.96
650.798	7084.61
650.991	6963.78
651.183	6888
651.376	6947.39
651.568	6842.95
651.761	6752.84
651.954	6810.18
652.146	6666.82
652.339	6826.56
652.531	6756.93
652.724	6584.9
652.916	6402.63
653.109	6613.57
653.301	6638.15
653.494	6754.88
653.686	6294.09
653.879	6535.75
654.071	6361.67
654.263	6341.19
654.456	6488.65
654.648	6419.02
654.84	6267.47
655.033	6310.47
655.225	6302.28
655.417	6156.88
655.61	6253.13
655.802	6218.32
655.994	5986.9
656.186	6099.53
656.379	6152.78
656.571	6036.05
656.763	5997.14
656.955	5915.22
657.148	6011.47
657.34	5974.61
657.532	5921.36
657.724	5802.58
657.916	5917.26
658.108	5845.59
658.3	5503.57
658.492	5737.04
658.684	5726.8
658.876	5651.03
659.068	5630.55
659.26	5626.45
659.452	5544.53
659.644	5603.93
659.836	5362.26
660.028	5585.49
660.22	5542.49
660.412	5431.9
660.604	5565.01
660.796	5282.39
660.988	5429.85
661.18	5390.94
661.372	5243.48
661.563	5337.69
661.755	5282.39
661.947	5214.81
662.139	5153.37
662.331	5085.79
662.522	4944.48
662.714	5149.28
662.906	5253.72
663.097	5024.35
663.289	5030.49
663.481	4870.75
663.673	5007.97
663.864	4825.7
664.056	4936.29
664.247	4897.38
664.439	4924
664.631	4786.79
664.822	4801.12
665.014	4919.9
665.205	4842.08
665.397	4584.04
665.588	4764.26
665.78	4770.4
665.971	4846.18
666.163	4784.74
666.354	4661.86
666.546	4571.75
666.737	4661.86
666.929	4713.06
667.12	4756.07
667.311	4522.6
667.503	4371.05
667.694	4483.69
667.885	4422.25
668.077	4377.19
668.268	4448.87
668.459	4467.3
668.651	4330.09
668.842	4469.35
669.033	4303.47
669.224	4379.24
669.416	4448.87
669.607	4362.86
669.798	4217.45
669.989	4233.83
670.18	4362.86
670.371	4260.46
670.563	4168.3
670.754	4205.16
670.945	4024.94
671.136	4160.11
671.327	4180.59
671.518	4123.24
671.709	4242.03
671.9	4158.06
672.091	4045.42
672.282	4047.47
672.473	4022.89
672.664	4059.76
672.855	4002.41
673.046	4117.1
673.237	3963.5
673.428	4049.52
673.619	3975.79
673.809	3918.45
674	3848.82
674.191	3840.62
674.382	3842.67
674.573	3807.86
674.764	3865.2
674.954	3975.79
675.145	3619.44
675.336	3891.82
675.527	3660.4
675.717	3830.38
675.908	3854.96
676.099	3840.62
676.289	3748.47
676.48	3816.05
676.671	3842.67
676.861	3846.77
677.052	3660.4
677.243	3744.37
677.433	3609.2
677.624	3770.99
677.814	3629.68
678.005	3631.73
678.195	3725.94
678.386	3730.03
678.576	3662.45
678.767	3592.82
678.957	3611.25
679.148	3471.99
679.338	3590.77
679.529	3547.76
679.719	3525.24
679.909	3592.82
680.1	3646.07
680.29	3588.72
680.481	3408.5
680.671	3601.01
680.861	3684.98
681.052	3521.14
681.242	3598.96
681.432	3486.33
681.622	3400.31
681.813	3502.71
682.003	3510.9
682.193	3406.45
682.383	3367.54
682.573	3570.29
682.764	3545.72
682.954	3465.85
683.144	3482.23
683.334	3461.75
683.524	3428.98
683.714	3388.02
683.904	3363.45
684.094	3359.35
684.284	3279.48
684.474	3496.57
684.664	3351.16
684.854	3435.13
685.044	3351.16
685.234	3484.28
685.424	3244.67
685.614	3304.06
685.804	3340.92
685.994	3308.15
686.184	3230.33
686.374	3318.39
686.564	3250.81
686.753	3322.49
686.943	3261.05
687.133	3160.7
687.323	3140.22
687.513	3195.51
687.702	3205.75
687.892	3218.04
688.082	3181.18
688.272	3224.19
688.461	3201.66
688.651	3138.17
688.841	3019.39
689.03	3091.07
689.22	3005.05
689.41	3054.2
689.599	2945.66
689.789	3099.26
689.979	2953.85
690.168	3097.21
690.358	2945.66
690.547	2927.23
690.737	2953.85
690.926	3000.96
691.116	2900.61
691.305	2980.48
691.495	2906.75
691.684	2976.38
691.874	2962.05
692.063	2957.95
692.252	2773.63
692.442	2974.33
692.631	2826.88
692.82	2960
693.01	2792.06
693.199	2914.94
693.388	2880.13
693.578	2820.74
693.767	2804.35
693.956	2921.09
694.146	2837.12
694.335	2835.07
694.524	2742.91
694.713	2704
694.902	2665.09
695.092	2769.54
695.281	2753.15
695.47	2728.58
695.659	2650.75
695.848	2716.29
696.037	2734.72
696.226	2710.15
696.415	2738.82
696.604	2773.63
696.793	2695.81
696.982	2648.71
697.171	2771.58
697.36	2620.03
697.549	2697.86
697.738	2611.84
697.927	2644.61
698.116	2865.79
698.305	2579.08
698.494	2736.77
698.683	2669.19
698.872	2695.81
699.061	2740.86
699.25	2652.8
699.438	2761.34
699.627	2620.03
699.816	2689.67
700.005	2591.36
700.193	2738.82
700.382	2787.97
700.571	2597.51
700.76	2693.76
700.948	2597.51
701.137	2675.33
701.326	2642.56
701.514	2677.38
701.703	2636.42
701.892	2630.27
702.08	2714.24
702.269	2660.99
702.457	2632.32
702.646	2587.27
702.834	2556.55
703.023	2546.31
703.212	2663.04
703.4	2622.08
703.589	2630.27
703.777	2648.71
703.965	2536.07
704.154	2566.79
704.342	2601.6
704.531	2646.66
704.719	2568.84
704.907	2679.43
705.096	2431.62
705.284	2636.42
705.472	2577.03
705.661	2611.84
705.849	2577.03
706.037	2636.42
706.226	2636.42
706.414	2701.95
706.602	2648.71
706.79	2671.23
706.979	2513.54
707.167	2574.98
707.355	2593.41
707.543	2677.38
707.731	2595.46
707.919	2513.54
708.107	2574.98
708.296	2538.12
708.484	2593.41
708.672	2579.08
708.86	2687.62
709.048	2712.19
709.236	2525.83
709.424	2646.66
709.612	2572.93
709.8	2468.48
709.988	2499.2
710.176	2529.92
710.364	2568.84
710.551	2603.65
710.739	2521.73
710.927	2593.41
711.115	2597.51
711.303	2499.2
711.491	2540.16
711.679	2527.88
711.866	2552.45
712.054	2538.12
712.242	2554.5
712.43	2574.98
712.617	2601.6
712.805	2622.08
712.993	2632.32
713.181	2429.57
713.368	2456.2
713.556	2583.17
713.744	2425.48
713.931	2613.89
714.119	2458.25
714.306	2552.45
714.494	2437.77
714.682	2613.89
714.869	2503.3
715.057	2632.32
715.244	2505.35
715.432	2503.3
715.619	2513.54
715.807	2556.55
715.994	2640.51
716.182	2542.21
716.369	2525.83
716.556	2665.09
716.744	2566.79
716.931	2456.2
717.119	2538.12
717.306	2480.77
717.493	2638.47
717.681	2550.4
717.868	2515.59
718.055	2468.48
718.242	2527.88
718.43	2544.26
718.617	2574.98
718.804	2558.6
718.991	2577.03
719.179	2607.75
719.366	2706.05
719.553	2488.96
719.74	2491.01
719.927	2607.75
720.114	2456.2
720.301	2488.96
720.488	2523.78
720.676	2560.64
720.863	2517.64
721.05	2476.68
721.237	2640.51
721.424	2652.8
721.611	2329.22
721.798	2564.74
721.985	2476.68
722.172	2368.13
722.358	2460.29
722.545	2488.96
722.732	2415.24
722.919	2517.64
723.106	2486.92
723.293	2671.23
723.48	2689.67
723.667	2450.05
723.853	2507.4
724.04	2480.77
724.227	2558.6
724.414	2499.2
724.6	2431.62
724.787	2620.03
724.974	2523.78
725.161	2570.88
725.347	2478.72
725.534	2488.96
725.72	2581.12
725.907	2531.97
726.094	2529.92
726.28	2427.53
726.467	2521.73
726.653	2400.9
726.84	2472.58
727.027	2448.01
727.213	2370.18
727.4	2517.64
727.586	2550.4
727.773	2521.73
727.959	2517.64
728.145	2624.13
728.332	2566.79
728.518	2548.36
728.705	2531.97
728.891	2435.72
729.077	2423.43
729.264	2536.07
729.45	2609.79
729.636	2531.97
729.823	2388.61
730.009	2419.33
730.195	2486.92
730.382	2517.64
730.568	2624.13
730.754	2466.44
730.94	2577.03
731.126	2550.4
731.313	2599.56
731.499	2534.02
731.685	2542.21
731.871	2456.2
732.057	2560.64
732.243	2464.39
732.429	2476.68
732.615	2515.59
732.801	2572.93
732.987	2546.31
733.173	2583.17
733.359	2460.29
733.545	2441.86
733.731	2505.35
733.917	2503.3
734.103	2421.38
734.289	2579.08
734.475	2433.67
734.661	2413.19
734.847	2495.11
735.033	2462.34
735.219	2474.63
735.404	2503.3
735.59	2437.77
735.776	2501.25
735.962	2390.66
736.148	2349.7
736.333	2556.55
736.519	2540.16
736.705	2402.95
736.89	2531.97
737.076	2417.29
737.262	2431.62
737.447	2321.03
737.633	2353.8
737.819	2419.33
738.004	2347.65
738.19	2349.7
738.375	2464.39
738.561	2368.13
738.747	2368.13
738.932	2273.93
739.118	2405
739.303	2370.18
739.489	2415.24
739.674	2294.41
739.859	2339.46
740.045	2337.41
740.23	2374.28
740.416	2314.89
740.601	2267.78
740.786	2294.41
740.972	2366.09
741.157	2392.71
741.342	2245.26
741.528	2347.65
741.713	2452.1
741.898	2259.59
742.084	2261.64
742.269	2224.78
742.454	2402.95
742.639	2296.46
742.824	2290.31
743.01	2189.96
743.195	2288.26
743.38	2208.39
743.565	2222.73
743.75	2292.36
743.935	2044.56
744.12	2183.82
744.305	2060.94
744.49	2134.67
744.675	2237.06
744.86	2173.58
745.045	2165.39
745.23	2179.72
745.415	2167.43
745.6	2034.32
745.785	2099.85
745.97	2073.23
746.155	2124.43
746.34	2081.42
746.525	2062.99
746.71	1966.73
746.895	1954.44
747.079	2110.09
747.264	1983.12
747.449	1974.92
747.634	1997.45
747.819	2005.64
748.003	1956.49
748.188	1989.26
748.373	1952.4
748.557	2007.69
748.742	1860.24
748.927	1833.61
749.111	1890.96
749.296	1923.73
749.481	1895.05
749.665	1747.6
749.85	1882.77
750.034	1860.24
750.219	1839.76
750.404	1890.96
750.588	1782.42
750.773	1743.5
750.957	1815.18
751.141	1813.13
751.326	1766.03
751.51	1776.27
751.695	1700.5
751.879	1735.31
752.064	1706.64
752.248	1714.83
752.432	1792.66
752.617	1626.77
752.801	1725.07
752.985	1657.49
753.17	1671.83
753.354	1675.92
753.538	1587.86
753.722	1534.61
753.907	1641.11
754.091	1546.9
754.275	1600.15
754.459	1628.82
754.643	1495.7
754.828	1567.38
755.012	1503.89
755.196	1430.16
755.38	1551
755.564	1487.51
755.748	1460.88
755.932	1456.79
756.116	1507.99
756.3	1534.61
756.484	1436.31
756.668	1493.65
756.852	1434.26
757.036	1460.88
757.22	1376.92
757.404	1419.92
757.588	1452.69
757.772	1417.88
757.956	1436.31
758.14	1409.69
758.323	1348.25
758.507	1342.1
758.691	1325.72
758.875	1329.81
759.059	1383.06
759.242	1342.1
759.426	1295
759.61	1315.48
759.794	1383.06
759.977	1307.29
760.161	1444.5
760.345	1268.38
760.528	1260.18
760.712	1223.32
760.895	1219.22
761.079	1223.32
761.263	1186.46
761.446	1211.03
761.63	1192.6
761.813	1114.78
761.997	1192.6
762.18	1157.79
762.364	1241.75
762.547	1133.21
762.731	1176.22
762.914	1135.26
763.098	1249.94
763.281	1137.31
763.464	1147.55
763.648	1153.69
763.831	1225.37
764.015	1118.87
764.198	1077.91
764.381	1198.74
764.564	1094.3
764.748	1163.93
764.931	1075.87
765.114	1112.73
765.297	1180.31
765.481	1016.48
765.664	1174.17
765.847	1039
766.03	1094.3
766.213	1067.67
766.397	1104.54
766.58	1090.2
766.763	1090.2
766.946	1071.77
767.129	996
767.312	993.95
767.495	1024.67
767.678	1118.87
767.861	1086.11
768.044	1067.67
768.227	1043.1
768.41	1088.15
768.593	1016.48
768.776	1002.14
768.959	991.9
769.142	1032.86
769.324	942.75
769.507	1004.19
769.69	916.12
769.873	879.26
770.056	993.95
770.239	948.89
770.421	1014.43
770.604	1026.71
770.787	924.32
770.97	897.69
771.152	907.93
771.335	977.56
771.518	967.32
771.7	942.75
771.883	965.28
772.066	930.46
772.248	918.17
772.431	916.12
772.613	883.36
772.796	909.98
772.978	946.84
773.161	948.89
773.343	940.7
773.526	866.97
773.708	946.84
773.891	842.4
774.073	809.63
774.256	801.44
774.438	879.26
774.621	815.77
774.803	783.01
774.985	764.58
775.168	912.03
775.35	768.67
775.532	760.48
775.715	770.72
775.897	752.29
776.079	733.86
776.261	785.05
776.444	740
776.626	760.48
776.808	713.38
776.99	752.29
777.173	766.62
777.355	707.23
777.537	721.57
777.719	801.44
777.901	731.81
778.083	785.05
778.265	686.75
778.447	744.1
778.629	699.04
778.811	748.19
778.993	707.23
779.175	746.14
779.357	619.17
779.539	672.42
779.721	694.94
779.903	596.64
780.085	596.64
780.267	686.75
780.449	639.65
780.631	625.31
780.812	680.61
780.994	602.79
781.176	643.74
781.358	621.22
781.54	604.83
781.721	563.87
781.903	596.64
782.085	629.41
782.267	602.79
782.448	629.41
782.63	592.55
782.812	637.6
782.993	610.98
783.175	508.58
783.357	533.15
783.538	559.78
783.72	500.39
783.901	547.49
784.083	506.53
784.264	582.31
784.446	539.3
784.627	537.25
784.809	524.96
784.99	547.49
785.172	486.05
785.353	545.44
785.535	555.68
785.716	481.96
785.897	426.66
786.079	453.28
786.26	574.11
786.441	529.06
786.623	465.57
786.804	449.19
786.985	479.91
787.167	424.61
787.348	438.95
787.529	461.48
787.71	395.94
787.891	400.04
788.073	404.13
788.254	418.47
788.435	479.91
788.616	469.67
788.797	322.21
788.978	471.72
789.159	424.61
789.34	451.24
789.522	428.71
789.703	430.76
789.884	400.04
790.065	506.53
790.246	432.8
790.427	391.84
790.607	361.13
790.788	365.22
790.969	395.94
791.15	408.23
791.331	422.56
791.512	320.17
791.693	416.42
791.874	408.23
792.054	420.52
792.235	459.43
792.416	342.69
792.597	371.37
792.778	385.7
792.958	326.31
793.139	363.17
793.32	404.13
793.5	389.8
793.681	334.5
793.862	342.69
794.042	412.32
794.223	281.25
794.404	334.5
794.584	285.35
794.765	301.73
794.945	408.23
795.126	393.89
795.306	314.02
795.487	309.93
795.667	379.56
795.848	252.58
796.028	348.84
796.209	266.92
796.389	328.36
796.57	381.6
796.75	260.77
796.93	279.21
797.111	287.4
797.291	228.01
797.471	336.55
797.652	260.77
797.832	342.69
798.012	309.93
798.192	236.2
798.373	273.06
798.553	318.12
798.733	287.4
798.913	297.64
799.093	287.4
799.274	283.3
799.454	293.54
799.634	268.97
799.814	258.73
799.994	242.34
800.174	209.58
800.354	273.06
800.534	187.05
800.714	230.06
800.894	256.68
801.074	201.38
801.254	195.24
801.434	256.68
801.614	293.54
801.794	236.2
801.974	610.98
802.154	215.72
802.334	271.01
802.514	201.38
802.693	203.43
802.873	215.72
803.053	316.07
803.233	328.36
803.413	207.53
803.592	197.29
803.772	195.24
803.952	271.01
804.131	223.91
804.311	211.62
804.491	207.53
804.67	228.01
804.85	242.34
805.03	211.62
805.209	236.2
805.389	158.38
805.568	217.77
805.748	260.77
805.928	219.82
806.107	252.58
806.287	113.32
806.466	172.71
806.646	193.19
806.825	117.42
807.004	248.49
807.184	215.72
807.363	242.34
807.543	113.32
807.722	219.82
807.901	195.24
808.081	268.97
808.26	141.99
808.439	166.57
808.619	201.38
808.798	180.9
808.977	174.76
809.156	174.76
809.336	148.14
809.515	209.58
809.694	178.86
809.873	174.76
810.052	193.19
810.231	203.43
810.411	213.67
810.59	178.86
810.769	193.19
810.948	195.24
811.127	158.38
811.306	158.38
811.485	131.75
811.664	256.68
811.843	203.43
812.022	209.58
812.201	182.95
812.38	176.81
812.559	82.6
812.737	203.43
812.916	187.05
813.095	117.42
813.274	148.14
813.453	174.76
813.632	182.95
813.811	131.75
813.989	137.9
814.168	209.58
814.347	180.9
814.526	162.47
814.704	215.72
814.883	172.71
815.062	223.91
815.24	199.34
815.419	90.79
815.598	168.62
815.776	154.28
815.955	146.09
816.133	101.03
816.312	258.73
816.49	117.42
816.669	193.19
816.847	119.46
817.026	234.15
817.204	68.27
817.383	98.99
817.561	109.22
817.74	146.09
817.918	123.56
818.097	144.04
818.275	201.38
818.453	96.94
818.632	154.28
818.81	146.09
818.988	148.14
819.167	152.23
819.345	187.05
819.523	172.71
819.701	131.75
819.879	156.33
820.058	125.61
820.236	105.13
820.414	174.76
820.592	199.34
820.77	164.52
820.948	180.9
821.127	172.71
821.305	92.84
821.483	64.17
821.661	193.19
821.839	166.57
822.017	137.9
822.195	139.94
822.373	115.37
822.551	125.61
822.729	119.46
822.907	152.23
823.085	117.42
823.262	148.14
823.44	113.32
823.618	164.52
823.796	105.13
823.974	119.46
824.152	70.31
824.329	137.9
824.507	172.71
824.685	152.23
824.863	154.28
825.04	144.04
825.218	146.09
825.396	146.09
825.574	131.75
825.751	107.18
825.929	150.18
826.107	70.31
826.284	195.24
826.462	88.75
826.639	127.66
826.817	43.69
826.994	78.51
827.172	162.47
827.349	137.9
827.527	66.22
827.704	123.56
827.882	133.8
828.059	105.13
828.237	113.32
828.414	96.94
828.591	90.79
828.769	191.14
828.946	86.7
829.124	115.37
829.301	76.46
829.478	60.07
829.655	72.36
829.833	53.93
830.01	113.32
830.187	86.7
830.364	51.88
830.542	123.56
830.719	113.32
830.896	64.17
831.073	113.32
831.25	133.8
831.427	47.79
831.604	86.7
831.782	64.17
831.959	60.07
832.136	55.98
832.313	64.17
832.49	70.31
832.667	72.36
832.844	12.97
833.021	105.13
833.198	78.51
833.374	119.46
833.551	125.61
833.728	6.83
833.905	64.17
834.082	-5.46
834.259	35.5
834.436	103.08
834.612	23.21
834.789	60.07
834.966	141.99
835.143	166.57
835.319	31.4
835.496	64.17
835.673	62.12
835.85	109.22
836.026	60.07
836.203	41.64
836.38	-3.41
836.556	35.5
836.733	90.79
836.909	25.26
837.086	-5.46
837.262	80.55
837.439	51.88
837.616	-5.46
837.792	23.21
837.968	150.18
838.145	64.17
838.321	-17.75
838.498	80.55
838.674	78.51
838.851	64.17
839.027	27.31
839.203	49.83
839.38	107.18
839.556	17.07
839.732	62.12
839.909	92.84
840.085	25.26
840.261	23.21
840.437	15.02
840.614	35.5
840.79	82.6
840.966	94.89
841.142	41.64
841.318	43.69
841.494	74.41
841.671	-25.94
841.847	49.83
842.023	6.83
842.199	92.84
842.375	72.36
842.551	76.46
842.727	64.17
842.903	115.37
843.079	23.21
843.255	125.61
843.431	21.16
843.607	47.79
843.783	60.07
843.959	47.79
844.134	74.41
844.31	47.79
844.486	-3.41
844.662	60.07
844.838	39.59
845.013	74.41
845.189	41.64
845.365	2.73
845.541	58.03
845.716	33.45
845.892	47.79
846.068	43.69
846.244	31.4
846.419	29.35
846.595	80.55
846.77	33.45
846.946	2.73
847.122	6.83
847.297	4.78
847.473	146.09
847.648	31.4
847.824	74.41
847.999	-44.37
848.175	88.75
848.35	109.22
848.526	80.55
848.701	88.75
848.876	21.16
849.052	0.68
849.227	35.5
849.403	-23.89
849.578	96.94
849.753	55.98
849.929	2.73
850.104	78.51
850.279	53.93
850.454	96.94
850.63	51.88
850.805	98.99
850.98	55.98
851.155	6.83
851.33	4.78
851.505	-7.51
851.681	84.65
851.856	-50.52
852.031	74.41
852.206	31.4
852.381	-36.18
852.556	-25.94
852.731	101.03
852.906	23.21
853.081	88.75
853.256	10.92
853.431	25.26
853.606	39.59
853.781	55.98
853.956	2.73
854.131	105.13
854.305	-105.81
854.48	127.66
854.655	76.46
854.83	-56.66
855.005	8.87
855.18	27.31
855.354	8.87
855.529	84.65
855.704	33.45
855.879	27.31
856.053	17.07
856.228	129.7
856.403	53.93
856.577	33.45
856.752	23.21
856.926	76.46
857.101	-34.13
857.276	-38.23
857.45	-30.04
857.625	45.74
857.799	35.5
857.974	133.8
858.148	-13.65
858.323	35.5
858.497	37.55
858.672	2.73
858.846	-38.23
859.02	137.9
859.195	-13.65
859.369	21.16
859.543	35.5
859.718	-36.18
859.892	58.03
860.066	37.55
860.241	-25.94
860.415	29.35
860.589	-54.61
860.763	-36.18
860.938	66.22
861.112	27.31
861.286	43.69
861.46	10.92
861.634	-50.52
861.808	135.85
861.982	39.59
862.157	82.6
862.331	12.97
862.505	37.55
862.679	29.35
862.853	-11.61
863.027	-9.56
863.201	8.87
863.375	4.78
863.549	31.4
863.722	8.87
863.896	-13.65
864.07	-21.85
864.244	6.83
864.418	33.45
864.592	2.73
864.766	12.97
864.939	35.5
865.113	37.55
865.287	68.27
865.461	-73.04
865.634	43.69
865.808	39.59
865.982	-48.47
866.156	-1.37
866.329	12.97
866.503	43.69
866.676	4.78
866.85	21.16
867.024	-25.94
867.197	2.73
867.371	-1.37
867.544	62.12
867.718	74.41
867.891	-3.41
868.065	27.31
868.238	-75.09
868.412	-3.41
868.585	-13.65
868.759	33.45
868.932	39.59
869.105	-1.37
869.279	-9.56
869.452	-27.99
869.625	55.98
869.799	-9.56
869.972	-3.41
870.145	-7.51
870.319	43.69
870.492	41.64
870.665	35.5
870.838	27.31
871.011	-44.37
871.185	-7.51
871.358	72.36
871.531	-11.61
871.704	-75.09
871.877	72.36
872.05	-46.42
872.223	-11.61
872.396	-27.99
872.569	58.03
872.742	21.16
872.915	23.21
873.088	53.93
873.261	-89.43
873.434	41.64
873.607	-7.51
873.78	64.17
873.953	31.4
874.126	-44.37
874.299	39.59
874.471	-44.37
874.644	-27.99
874.817	-58.71
874.99	43.69
875.163	2.73
875.335	-3.41
875.508	-27.99
875.681	45.74
875.853	41.64
876.026	-13.65
876.199	19.11
876.371	17.07
876.544	27.31
876.717	17.07
876.889	-17.75
877.062	2.73
877.234	-1.37
877.407	-30.04
877.579	-60.76
877.752	33.45
877.924	10.92
878.097	49.83
878.269	35.5
878.442	23.21
878.614	-48.47
878.786	-58.71
878.959	21.16
879.131	70.31
879.303	-32.08
879.476	39.59
879.648	6.83
879.82	2.73
879.993	31.4
880.165	29.35
880.337	-95.57
880.509	-34.13
880.681	60.07
880.854	-50.52
881.026	82.6
881.198	74.41
881.37	-40.28
881.542	60.07
881.714	10.92
881.886	27.31
882.058	19.11
882.23	45.74
882.402	-15.7
882.574	-46.42
882.746	21.16
882.918	-9.56
883.09	-36.18
883.262	10.92
883.434	-71
883.606	-58.71
883.778	6.83
883.95	49.83
884.122	-54.61
884.293	10.92
884.465	21.16
884.637	41.64
884.809	27.31
884.98	53.93
885.152	8.87
885.324	-5.46
885.496	8.87
885.667	29.35
885.839	-38.23
886.011	17.07
886.182	-13.65
886.354	2.73
886.525	-68.95
886.697	55.98
886.869	-54.61
887.04	41.64
887.212	43.69
887.383	43.69
887.555	55.98
887.726	-13.65
887.897	37.55
888.069	92.84
888.24	90.79
888.412	25.26
888.583	31.4
888.754	4.78
888.926	-1.37
889.097	-5.46
889.268	-25.94
889.44	-25.94
889.611	103.08
889.782	6.83
889.953	39.59
890.125	19.11
890.296	-5.46
890.467	-54.61
890.638	29.35
890.809	39.59
890.98	-36.18
891.151	-3.41
891.323	-11.61
891.494	-40.28
891.665	15.02
891.836	6.83
892.007	-48.47
892.178	-1.37
892.349	-13.65
892.52	-11.61
892.691	-11.61
892.862	78.51
893.032	-9.56
893.203	-1.37
893.374	47.79
893.545	6.83
893.716	45.74
893.887	-64.85
894.057	-64.85
894.228	0.68
894.399	31.4
894.57	23.21
894.74	-40.28
894.911	10.92
895.082	-54.61
895.253	4.78
895.423	29.35
895.594	-21.85
895.764	-21.85
895.935	-3.41
896.106	-5.46
896.276	-11.61
896.447	-7.51
896.617	10.92
896.788	66.22
896.958	-27.99
897.129	74.41
897.299	-50.52
897.47	-17.75
897.64	72.36
897.81	4.78
897.981	53.93
898.151	-79.19
898.322	41.64
898.492	10.92
898.662	15.02
898.832	-11.61
899.003	23.21
899.173	-38.23
899.343	21.16
899.513	68.27
