Data from USB4F104151__38__11-05-22-670.txt Node

Date: Wed Mar 12 11:05:22 EDT 2025
User: louis
Spectrometer: USB4F10415
Trigger mode: 4
Integration Time (sec): 2.000000E-2
Scans to average: 1
Electric dark correction enabled: true
Nonlinearity correction enabled: false
Boxcar width: 0
XAxis mode: Wavelengths
Number of Pixels in Spectrum: 3648
>>>>>Begin Spectral Data<<<<<
178.204	-89.09
178.424	-89.09
178.644	-89.09
178.864	-89.09
179.084	-82.94
179.304	-11.26
179.524	-19.46
179.744	1.02
179.964	-3.07
180.184	-27.65
180.404	29.7
180.624	-15.36
180.844	41.98
181.064	-9.22
181.283	35.84
181.503	-3.07
181.723	-19.46
181.943	39.94
182.163	52.22
182.383	5.12
182.602	93.18
182.822	9.22
183.042	70.65
183.262	52.22
183.482	64.51
183.701	41.98
183.921	50.18
184.141	-3.07
184.361	93.18
184.58	54.27
184.8	44.03
185.02	-23.55
185.239	5.12
185.459	-9.22
185.679	46.08
185.898	-3.07
186.118	-7.17
186.338	-76.8
186.557	89.09
186.777	-11.26
186.997	-7.17
187.216	50.18
187.436	87.04
187.655	82.94
187.875	29.7
188.095	-44.03
188.314	87.04
188.534	54.27
188.753	-15.36
188.973	-11.26
189.192	58.37
189.412	19.46
189.631	50.18
189.851	72.7
190.07	66.56
190.29	-80.89
190.509	5.12
190.729	-5.12
190.948	21.5
191.168	31.74
191.387	80.89
191.607	50.18
191.826	3.07
192.045	13.31
192.265	80.89
192.484	52.22
192.704	68.61
192.923	76.8
193.142	82.94
193.362	58.37
193.581	52.22
193.8	19.46
194.02	-19.46
194.239	62.46
194.458	19.46
194.678	37.89
194.897	23.55
195.116	31.74
195.335	56.32
195.555	44.03
195.774	-19.46
195.993	60.42
196.212	19.46
196.432	-9.22
196.651	62.46
196.87	33.79
197.089	48.13
197.308	50.18
197.528	80.89
197.747	56.32
197.966	33.79
198.185	64.51
198.404	19.46
198.623	103.42
198.842	-23.55
199.062	66.56
199.281	41.98
199.5	-41.98
199.719	17.41
199.938	46.08
200.157	68.61
200.376	101.37
200.595	162.81
200.814	29.7
201.033	35.84
201.252	-35.84
201.471	41.98
201.69	82.94
201.909	-35.84
202.128	7.17
202.347	-29.7
202.566	48.13
202.785	52.22
203.004	19.46
203.223	64.51
203.442	15.36
203.661	64.51
203.879	52.22
204.098	68.61
204.317	9.22
204.536	-17.41
204.755	101.37
204.974	46.08
205.193	80.89
205.411	60.42
205.63	78.85
205.849	25.6
206.068	56.32
206.287	46.08
206.505	17.41
206.724	46.08
206.943	44.03
207.162	23.55
207.381	41.98
207.599	15.36
207.818	-15.36
208.037	35.84
208.255	37.89
208.474	31.74
208.693	99.33
208.911	33.79
209.13	-1.02
209.349	27.65
209.567	9.22
209.786	23.55
210.005	64.51
210.223	15.36
210.442	11.26
210.661	41.98
210.879	-52.22
211.098	66.56
211.316	17.41
211.535	3.07
211.753	62.46
211.972	68.61
212.191	74.75
212.409	35.84
212.628	33.79
212.846	66.56
213.065	39.94
213.283	91.13
213.502	41.98
213.72	19.46
213.938	39.94
214.157	23.55
214.375	72.7
214.594	5.12
214.812	35.84
215.031	99.33
215.249	3.07
215.467	97.28
215.686	35.84
215.904	11.26
216.122	1.02
216.341	56.32
216.559	-9.22
216.778	52.22
216.996	97.28
217.214	44.03
217.432	-31.74
217.651	11.26
217.869	80.89
218.087	15.36
218.306	46.08
218.524	82.94
218.742	44.03
218.96	31.74
219.179	17.41
219.397	3.07
219.615	125.95
219.833	52.22
220.051	-15.36
220.27	35.84
220.488	74.75
220.706	-17.41
220.924	33.79
221.142	19.46
221.36	-17.41
221.578	-31.74
221.796	9.22
222.015	74.75
222.233	3.07
222.451	44.03
222.669	52.22
222.887	54.27
223.105	-23.55
223.323	76.8
223.541	39.94
223.759	25.6
223.977	31.74
224.195	64.51
224.413	70.65
224.631	58.37
224.849	50.18
225.067	23.55
225.285	78.85
225.503	33.79
225.721	7.17
225.939	66.56
226.157	37.89
226.375	150.53
226.592	35.84
226.81	17.41
227.028	99.33
227.246	105.47
227.464	21.5
227.682	54.27
227.9	60.42
228.117	29.7
228.335	39.94
228.553	72.7
228.771	54.27
228.989	80.89
229.206	-3.07
229.424	41.98
229.642	1.02
229.86	-1.02
230.077	70.65
230.295	46.08
230.513	91.13
230.731	58.37
230.948	103.42
231.166	-5.12
231.384	-1.02
231.601	13.31
231.819	33.79
232.037	23.55
232.254	31.74
232.472	99.33
232.689	7.17
232.907	70.65
233.125	37.89
233.342	-15.36
233.56	27.65
233.777	21.5
233.995	54.27
234.213	-17.41
234.43	19.46
234.648	37.89
234.865	66.56
235.083	91.13
235.3	-5.12
235.518	44.03
235.735	107.52
235.953	99.33
236.17	-5.12
236.388	21.5
236.605	60.42
236.822	87.04
237.04	66.56
237.257	31.74
237.475	17.41
237.692	64.51
237.909	17.41
238.127	37.89
238.344	54.27
238.562	54.27
238.779	60.42
238.996	25.6
239.214	97.28
239.431	56.32
239.648	-11.26
239.865	101.37
240.083	19.46
240.3	25.6
240.517	-27.65
240.735	60.42
240.952	58.37
241.169	17.41
241.386	60.42
241.603	80.89
241.821	17.41
242.038	19.46
242.255	39.94
242.472	99.33
242.689	95.23
242.907	1.02
243.124	50.18
243.341	82.94
243.558	-3.07
243.775	52.22
243.992	72.7
244.209	50.18
244.426	37.89
244.643	80.89
244.86	-17.41
245.078	60.42
245.295	107.52
245.512	48.13
245.729	95.23
245.946	21.5
246.163	17.41
246.38	13.31
246.597	9.22
246.814	46.08
247.031	-1.02
247.248	66.56
247.464	17.41
247.681	27.65
247.898	31.74
248.115	17.41
248.332	50.18
248.549	56.32
248.766	140.29
248.983	78.85
249.2	58.37
249.417	74.75
249.633	9.22
249.85	87.04
250.067	39.94
250.284	7.17
250.501	31.74
250.717	140.29
250.934	7.17
251.151	11.26
251.368	23.55
251.585	29.7
251.801	48.13
252.018	39.94
252.235	58.37
252.451	13.31
252.668	-27.65
252.885	52.22
253.102	29.7
253.318	33.79
253.535	58.37
253.752	70.65
253.968	23.55
254.185	-46.08
254.401	99.33
254.618	72.7
254.835	27.65
255.051	87.04
255.268	23.55
255.484	31.74
255.701	9.22
255.917	44.03
256.134	-19.46
256.351	50.18
256.567	1.02
256.784	37.89
257	21.5
257.217	44.03
257.433	46.08
257.65	66.56
257.866	7.17
258.082	66.56
258.299	31.74
258.515	128
258.732	54.27
258.948	-17.41
259.165	70.65
259.381	64.51
259.597	41.98
259.814	48.13
260.03	-31.74
260.246	68.61
260.463	74.75
260.679	39.94
260.895	21.5
261.112	-9.22
261.328	76.8
261.544	62.46
261.761	138.24
261.977	72.7
262.193	70.65
262.409	97.28
262.626	58.37
262.842	68.61
263.058	33.79
263.274	15.36
263.49	62.46
263.707	33.79
263.923	1.02
264.139	-33.79
264.355	21.5
264.571	152.57
264.787	31.74
265.004	91.13
265.22	25.6
265.436	23.55
265.652	17.41
265.868	-3.07
266.084	31.74
266.3	13.31
266.516	25.6
266.732	48.13
266.948	60.42
267.164	29.7
267.38	44.03
267.596	115.71
267.812	41.98
268.028	56.32
268.244	9.22
268.46	140.29
268.676	68.61
268.892	74.75
269.108	76.8
269.324	78.85
269.54	41.98
269.756	52.22
269.972	9.22
270.188	21.5
270.403	11.26
270.619	25.6
270.835	7.17
271.051	44.03
271.267	44.03
271.483	54.27
271.698	39.94
271.914	146.43
272.13	56.32
272.346	17.41
272.562	9.22
272.777	50.18
272.993	60.42
273.209	7.17
273.425	9.22
273.64	56.32
273.856	62.46
274.072	-64.51
274.287	72.7
274.503	58.37
274.719	111.61
274.934	7.17
275.15	-37.89
275.366	29.7
275.581	80.89
275.797	27.65
276.012	31.74
276.228	17.41
276.444	48.13
276.659	128
276.875	46.08
277.09	21.5
277.306	50.18
277.521	87.04
277.737	-3.07
277.952	111.61
278.168	-46.08
278.383	33.79
278.599	58.37
278.814	21.5
279.03	33.79
279.245	58.37
279.461	113.66
279.676	64.51
279.892	-1.02
280.107	-1.02
280.322	52.22
280.538	15.36
280.753	21.5
280.969	37.89
281.184	5.12
281.399	41.98
281.615	50.18
281.83	105.47
282.045	50.18
282.26	52.22
282.476	121.85
282.691	93.18
282.906	82.94
283.122	44.03
283.337	27.65
283.552	39.94
283.767	-5.12
283.983	89.09
284.198	-1.02
284.413	123.9
284.628	82.94
284.843	41.98
285.058	62.46
285.274	31.74
285.489	-7.17
285.704	105.47
285.919	62.46
286.134	74.75
286.349	33.79
286.564	119.81
286.779	54.27
286.995	19.46
287.21	50.18
287.425	76.8
287.64	29.7
287.855	89.09
288.07	17.41
288.285	64.51
288.5	-3.07
288.715	58.37
288.93	-5.12
289.145	62.46
289.36	60.42
289.575	70.65
289.79	109.57
290.004	138.24
290.219	54.27
290.434	44.03
290.649	125.95
290.864	44.03
291.079	78.85
291.294	66.56
291.509	91.13
291.724	89.09
291.938	33.79
292.153	29.7
292.368	5.12
292.583	72.7
292.798	148.48
293.012	-7.17
293.227	-7.17
293.442	103.42
293.657	66.56
293.871	113.66
294.086	46.08
294.301	101.37
294.516	3.07
294.73	89.09
294.945	1.02
295.16	50.18
295.374	46.08
295.589	128
295.804	29.7
296.018	-1.02
296.233	105.47
296.447	41.98
296.662	1.02
296.877	50.18
297.091	52.22
297.306	-37.89
297.52	46.08
297.735	13.31
297.949	60.42
298.164	142.33
298.378	87.04
298.593	9.22
298.807	33.79
299.022	31.74
299.236	84.99
299.451	56.32
299.665	44.03
299.88	72.7
300.094	29.7
300.309	46.08
300.523	5.12
300.737	132.09
300.952	23.55
301.166	130.05
301.381	-1.02
301.595	89.09
301.809	70.65
302.024	70.65
302.238	33.79
302.452	128
302.667	1.02
302.881	87.04
303.095	23.55
303.309	72.7
303.524	48.13
303.738	80.89
303.952	50.18
304.166	46.08
304.381	-9.22
304.595	80.89
304.809	33.79
305.023	80.89
305.237	66.56
305.452	37.89
305.666	62.46
305.88	105.47
306.094	5.12
306.308	52.22
306.522	25.6
306.736	21.5
306.95	54.27
307.164	136.19
307.379	101.37
307.593	46.08
307.807	54.27
308.021	23.55
308.235	58.37
308.449	11.26
308.663	80.89
308.877	119.81
309.091	93.18
309.305	29.7
309.519	-25.6
309.733	1.02
309.947	-5.12
310.161	31.74
310.374	39.94
310.588	62.46
310.802	7.17
311.016	29.7
311.23	33.79
311.444	84.99
311.658	-33.79
311.872	119.81
312.085	60.42
312.299	54.27
312.513	74.75
312.727	95.23
312.941	-7.17
313.154	72.7
313.368	3.07
313.582	78.85
313.796	54.27
314.009	72.7
314.223	91.13
314.437	33.79
314.651	-27.65
314.864	-31.74
315.078	48.13
315.292	-1.02
315.505	39.94
315.719	97.28
315.933	80.89
316.146	35.84
316.36	17.41
316.573	54.27
316.787	52.22
317.001	48.13
317.214	44.03
317.428	46.08
317.641	11.26
317.855	21.5
318.068	15.36
318.282	119.81
318.495	54.27
318.709	78.85
318.922	19.46
319.136	39.94
319.349	50.18
319.563	111.61
319.776	13.31
319.99	29.7
320.203	23.55
320.417	62.46
320.63	78.85
320.843	46.08
321.057	-33.79
321.27	48.13
321.483	60.42
321.697	87.04
321.91	80.89
322.124	37.89
322.337	97.28
322.55	64.51
322.763	121.85
322.977	91.13
323.19	23.55
323.403	70.65
323.617	13.31
323.83	1.02
324.043	52.22
324.256	78.85
324.469	50.18
324.683	103.42
324.896	58.37
325.109	115.71
325.322	13.31
325.535	52.22
325.748	-37.89
325.962	80.89
326.175	107.52
326.388	99.33
326.601	82.94
326.814	25.6
327.027	29.7
327.24	74.75
327.453	-23.55
327.666	109.57
327.879	117.76
328.092	39.94
328.305	56.32
328.518	39.94
328.731	17.41
328.944	37.89
329.157	82.94
329.37	39.94
329.583	97.28
329.796	136.19
330.009	99.33
330.222	99.33
330.435	-9.22
330.648	105.47
330.861	52.22
331.073	23.55
331.286	37.89
331.499	41.98
331.712	62.46
331.925	82.94
332.138	37.89
332.35	62.46
332.563	111.61
332.776	66.56
332.989	-19.46
333.202	58.37
333.414	19.46
333.627	-17.41
333.84	115.71
334.053	17.41
334.265	103.42
334.478	48.13
334.691	19.46
334.903	74.75
335.116	50.18
335.329	25.6
335.541	5.12
335.754	107.52
335.966	84.99
336.179	44.03
336.392	74.75
336.604	78.85
336.817	72.7
337.029	44.03
337.242	107.52
337.454	37.89
337.667	132.09
337.88	23.55
338.092	74.75
338.305	52.22
338.517	95.23
338.729	121.85
338.942	74.75
339.154	99.33
339.367	15.36
339.579	113.66
339.792	60.42
340.004	82.94
340.217	-15.36
340.429	-13.31
340.641	37.89
340.854	-11.26
341.066	70.65
341.278	44.03
341.491	70.65
341.703	68.61
341.915	87.04
342.128	74.75
342.34	64.51
342.552	80.89
342.764	-3.07
342.977	19.46
343.189	76.8
343.401	84.99
343.613	-17.41
343.826	76.8
344.038	72.7
344.25	109.57
344.462	58.37
344.674	54.27
344.886	54.27
345.099	41.98
345.311	80.89
345.523	80.89
345.735	74.75
345.947	70.65
346.159	-1.02
346.371	107.52
346.583	44.03
346.795	80.89
347.007	105.47
347.219	109.57
347.431	84.99
347.643	48.13
347.855	31.74
348.067	97.28
348.279	11.26
348.491	64.51
348.703	132.09
348.915	-1.02
349.127	-7.17
349.339	80.89
349.551	56.32
349.763	21.5
349.975	101.37
350.187	54.27
350.399	130.05
350.61	60.42
350.822	101.37
351.034	70.65
351.246	46.08
351.458	84.99
351.669	58.37
351.881	64.51
352.093	146.43
352.305	99.33
352.517	66.56
352.728	107.52
352.94	21.5
353.152	68.61
353.363	-11.26
353.575	-1.02
353.787	17.41
353.999	123.9
354.21	46.08
354.422	21.5
354.633	31.74
354.845	87.04
355.057	78.85
355.268	82.94
355.48	33.79
355.692	60.42
355.903	50.18
356.115	111.61
356.326	121.85
356.538	66.56
356.749	19.46
356.961	48.13
357.172	70.65
357.384	33.79
357.595	105.47
357.807	136.19
358.018	78.85
358.23	56.32
358.441	119.81
358.653	68.61
358.864	-35.84
359.075	68.61
359.287	-9.22
359.498	74.75
359.709	105.47
359.921	17.41
360.132	52.22
360.344	37.89
360.555	54.27
360.766	146.43
360.977	115.71
361.189	39.94
361.4	41.98
361.611	56.32
361.823	60.42
362.034	70.65
362.245	62.46
362.456	39.94
362.667	84.99
362.879	50.18
363.09	97.28
363.301	82.94
363.512	15.36
363.723	101.37
363.935	97.28
364.146	87.04
364.357	87.04
364.568	46.08
364.779	50.18
364.99	19.46
365.201	39.94
365.412	87.04
365.623	48.13
365.834	17.41
366.045	78.85
366.256	62.46
366.467	72.7
366.678	105.47
366.889	99.33
367.1	56.32
367.311	66.56
367.522	76.8
367.733	70.65
367.944	150.53
368.155	70.65
368.366	119.81
368.577	66.56
368.788	95.23
368.999	1.02
369.209	9.22
369.42	84.99
369.631	54.27
369.842	41.98
370.053	76.8
370.264	150.53
370.474	52.22
370.685	31.74
370.896	48.13
371.107	62.46
371.317	156.67
371.528	74.75
371.739	17.41
371.95	68.61
372.16	164.86
372.371	19.46
372.582	52.22
372.792	82.94
373.003	103.42
373.214	29.7
373.424	37.89
373.635	93.18
373.846	76.8
374.056	111.61
374.267	46.08
374.477	82.94
374.688	46.08
374.898	50.18
375.109	80.89
375.319	82.94
375.53	93.18
375.74	64.51
375.951	68.61
376.161	78.85
376.372	109.57
376.582	111.61
376.793	44.03
377.003	3.07
377.214	95.23
377.424	39.94
377.635	74.75
377.845	-23.55
378.055	5.12
378.266	-33.79
378.476	66.56
378.686	21.5
378.897	44.03
379.107	72.7
379.317	109.57
379.528	66.56
379.738	113.66
379.948	5.12
380.158	128
380.369	74.75
380.579	95.23
380.789	91.13
380.999	105.47
381.21	140.29
381.42	158.72
381.63	50.18
381.84	109.57
382.05	64.51
382.261	105.47
382.471	113.66
382.681	11.26
382.891	46.08
383.101	89.09
383.311	-9.22
383.521	31.74
383.731	58.37
383.941	119.81
384.151	-1.02
384.361	54.27
384.571	48.13
384.781	115.71
384.991	66.56
385.201	115.71
385.411	87.04
385.621	99.33
385.831	138.24
386.041	144.38
386.251	-13.31
386.461	117.76
386.671	72.7
386.881	62.46
387.091	87.04
387.301	72.7
387.511	80.89
387.72	125.95
387.93	142.33
388.14	60.42
388.35	64.51
388.56	5.12
388.769	93.18
388.979	19.46
389.189	64.51
389.399	58.37
389.609	48.13
389.818	103.42
390.028	68.61
390.238	179.2
390.447	101.37
390.657	70.65
390.867	64.51
391.076	72.7
391.286	64.51
391.496	56.32
391.705	33.79
391.915	62.46
392.125	17.41
392.334	78.85
392.544	113.66
392.753	62.46
392.963	160.77
393.172	111.61
393.382	-3.07
393.591	181.25
393.801	78.85
394.01	185.34
394.22	89.09
394.429	68.61
394.639	54.27
394.848	37.89
395.058	93.18
395.267	54.27
395.477	66.56
395.686	91.13
395.895	123.9
396.105	105.47
396.314	99.33
396.524	50.18
396.733	103.42
396.942	109.57
397.152	21.5
397.361	105.47
397.57	72.7
397.78	107.52
397.989	82.94
398.198	171.01
398.407	44.03
398.617	50.18
398.826	50.18
399.035	128
399.244	99.33
399.453	146.43
399.663	105.47
399.872	99.33
400.081	80.89
400.29	142.33
400.499	105.47
400.708	130.05
400.917	82.94
401.127	177.15
401.336	35.84
401.545	123.9
401.754	156.67
401.963	140.29
402.172	185.34
402.381	132.09
402.59	113.66
402.799	144.38
403.008	138.24
403.217	220.16
403.426	177.15
403.635	72.7
403.844	119.81
404.053	216.06
404.262	82.94
404.471	76.8
404.68	162.81
404.888	177.15
405.097	134.14
405.306	164.86
405.515	115.71
405.724	140.29
405.933	220.16
406.142	136.19
406.35	158.72
406.559	183.29
406.768	162.81
406.977	185.34
407.185	99.33
407.394	177.15
407.603	160.77
407.812	166.91
408.02	230.4
408.229	203.77
408.438	197.63
408.646	228.35
408.855	205.82
409.064	275.45
409.272	199.68
409.481	283.64
409.69	281.6
409.898	242.68
410.107	279.55
410.315	302.08
410.524	304.12
410.733	355.32
410.941	338.94
411.15	357.37
411.358	312.32
411.567	351.23
411.775	392.19
411.984	375.8
412.192	369.66
412.401	414.71
412.609	377.85
412.818	463.86
413.026	467.96
413.234	478.2
413.443	492.54
413.651	451.58
413.86	490.49
414.068	607.22
414.276	609.27
414.485	558.07
414.693	631.8
414.901	605.17
415.11	596.98
415.318	588.79
415.526	635.89
415.734	697.33
415.943	648.18
416.151	742.39
416.359	678.9
416.567	740.34
416.776	820.21
416.984	873.46
417.192	756.72
417.4	855.03
417.608	828.4
417.817	887.79
418.025	984.05
418.233	957.43
418.441	1020.91
418.649	1020.91
418.857	1065.97
419.065	1149.93
419.273	1174.51
419.481	1194.99
419.689	1350.64
419.897	1364.97
420.105	1338.35
420.313	1401.83
420.521	1414.12
420.729	1457.13
420.937	1506.28
421.145	1633.26
421.353	1618.92
421.561	1629.16
421.769	1768.42
421.977	1799.14
422.185	1901.54
422.393	1887.2
422.601	2114.53
422.809	2051.04
423.017	2003.94
423.224	2040.8
423.432	2135.01
423.64	2190.3
423.848	2391
424.056	2343.9
424.263	2540.51
424.471	2536.41
424.679	2610.14
424.887	2690.01
425.094	2743.25
425.302	2769.88
425.51	3021.78
425.718	3077.07
425.925	2966.48
426.133	3118.03
426.341	3292.11
426.548	3347.4
426.756	3402.7
426.964	3441.61
427.171	3720.14
427.379	3834.82
427.586	3853.25
427.794	3945.41
428.001	4146.11
428.209	4326.33
428.417	4211.65
428.624	4606.91
428.832	4529.08
429.039	4385.73
429.247	4455.36
429.454	5061.55
429.662	5307.31
429.869	5051.31
430.076	5184.43
430.284	5026.74
430.491	5329.84
430.699	5626.79
430.906	5653.42
431.114	5706.66
431.321	5845.93
431.528	6241.18
431.736	6407.07
431.943	6595.48
432.15	6695.83
432.358	6744.99
432.565	6869.91
432.772	7117.72
432.979	7338.9
433.187	7383.95
433.394	7664.52
433.601	8065.92
433.808	8049.54
434.016	7889.8
434.223	8295.3
434.43	8838.01
434.637	8741.75
434.844	9161.59
435.052	9487.22
435.259	9286.51
435.466	9323.38
435.673	9376.62
435.88	9864.04
436.087	10455.9
436.294	10244.96
436.501	10275.68
436.708	10396.51
436.915	10582.88
437.122	11303.76
437.329	11113.3
437.537	11553.62
437.743	11608.91
437.95	11688.78
438.157	12456.77
438.364	12616.51
438.571	12643.14
438.778	12591.94
438.985	13910.83
439.192	13202.23
439.399	13955.88
439.606	13464.37
439.813	14103.34
440.02	15115.03
440.227	14641.95
440.433	14879.52
440.64	15274.77
440.847	14816.03
441.054	15569.68
441.261	16538.37
441.467	16231.18
441.674	16442.12
441.881	17146.62
442.088	17017.6
442.294	17046.27
442.501	17562.36
442.708	17930.99
442.914	18555.62
443.121	19075.8
443.328	18885.34
443.534	19851.99
443.741	19643.09
443.948	19114.72
444.154	20579.01
444.361	20400.84
444.568	20624.07
444.774	20673.22
444.981	20867.78
445.187	21494.46
445.394	22522.54
445.6	22123.18
445.807	24550.03
446.013	23046.82
446.22	23610.01
446.426	24621.7
446.633	25115.26
446.839	25651.83
447.046	24814.21
447.252	26026.61
447.459	26059.38
447.665	26065.52
447.871	26784.36
448.078	27914.84
448.284	26831.46
448.491	27564.64
448.697	28541.52
448.903	28936.77
449.11	28914.25
449.316	28336.72
449.522	28899.91
449.728	29882.94
449.935	30259.76
450.141	30001.72
450.347	30544.43
450.553	30034.49
450.76	29864.5
450.966	30849.58
451.172	30847.53
451.378	31203.88
451.584	30900.78
451.791	31736.35
451.997	31328.8
452.203	31404.58
452.409	31730.2
452.615	31601.18
452.821	30173.75
453.027	29991.48
453.233	31175.2
453.44	30171.7
453.646	30429.74
453.852	30569.01
454.058	31128.1
454.264	29966.9
454.47	30781.99
454.676	30186.04
454.882	31216.16
455.088	28346.96
455.294	28439.12
455.5	29092.42
455.705	29035.08
455.911	28213.84
456.117	27511.39
456.323	26802.79
456.529	25514.62
456.735	26833.51
456.941	25936.5
457.147	25563.77
457.352	24732.29
457.558	24402.57
457.764	24570.51
457.97	23943.83
458.176	23188.13
458.381	23564.95
458.587	22194.86
458.793	22088.37
458.999	21242.56
459.204	22721.19
459.41	22219.44
459.616	20638.41
459.821	20482.76
460.027	20353.74
460.233	19899.09
460.438	19165.92
460.644	19485.4
460.85	18428.65
461.055	18217.71
461.261	18225.9
461.466	16849.66
461.672	16233.22
461.878	17269.5
462.083	16134.92
462.289	16016.14
462.494	15807.25
462.7	15330.07
462.905	14707.49
463.111	15217.43
463.316	15268.63
463.522	14924.57
463.727	15051.55
463.932	14633.76
464.138	14766.88
464.343	14689.06
464.549	14422.82
464.754	14928.67
464.959	14662.43
465.165	14676.77
465.37	14150.44
465.575	13902.64
465.781	14363.43
465.986	14453.54
466.191	13765.42
466.397	13609.78
466.602	13042.49
466.807	13460.27
467.012	13376.31
467.218	13204.28
467.423	13151.03
467.628	13343.54
467.833	13763.37
468.038	13179.7
468.244	12864.32
468.449	13388.6
468.654	13151.03
468.859	12782.4
469.064	12872.51
469.269	12235.59
469.474	12356.42
469.679	12516.16
469.885	12168.01
470.09	12493.63
470.295	12350.28
470.5	12055.37
470.705	11930.44
470.91	11682.64
471.115	11807.56
471.32	12010.31
471.525	11797.32
471.73	11430.74
471.935	11330.39
472.139	11471.7
472.344	11017.05
472.549	11334.48
472.754	10990.42
472.959	10519.39
473.164	10632.03
473.369	10367.84
473.574	10916.7
473.778	10632.03
473.983	10447.71
474.188	10460
474.393	10095.46
474.598	10142.57
474.802	10064.74
475.007	9960.3
475.212	9952.1
475.417	9401.2
475.621	9581.42
475.826	9562.99
476.031	9466.74
476.235	9257.84
476.44	9401.2
476.645	9102.2
476.849	9057.14
477.054	9270.13
477.259	9075.57
477.463	9036.66
477.668	8702.84
477.872	8819.58
478.077	8809.34
478.282	8354.69
478.486	8377.22
478.691	8330.11
478.895	8432.51
479.1	8309.63
479.304	8338.3
479.509	8098.69
479.713	8192.9
479.918	8225.67
480.122	7891.85
480.326	8022.92
480.531	8080.26
480.735	8045.45
480.94	8008.58
481.144	8164.23
481.348	7631.76
481.553	7830.41
481.757	7760.78
481.961	7850.89
482.166	7936.9
482.37	7951.24
482.574	7768.97
482.778	7689.1
482.983	7875.46
483.187	7697.29
483.391	8045.45
483.595	7711.63
483.8	7711.63
484.004	7752.59
484.208	7828.36
484.412	7781.26
484.616	7721.87
484.821	7820.17
485.025	7705.48
485.229	7832.46
485.433	7615.37
485.637	7789.45
485.841	7680.91
486.045	7783.31
486.249	7830.41
486.453	7725.96
486.657	7791.5
486.861	7676.81
487.065	7642
487.269	7895.94
487.473	7553.93
487.677	7867.27
487.881	7824.26
488.085	7699.34
488.289	8027.01
488.493	7609.23
488.697	7752.59
488.901	7852.94
489.105	7775.11
489.309	7834.5
489.512	7932.81
489.716	7891.85
489.92	7912.33
490.124	7713.67
490.328	7895.94
490.531	7807.88
490.735	7947.14
490.939	7830.41
491.143	7895.94
491.346	7965.57
491.55	8344.45
491.754	8201.09
491.958	8084.36
492.161	8104.84
492.365	8184.71
492.569	8121.22
492.772	8141.7
492.976	8283.01
493.18	8186.76
493.383	8338.3
493.587	8565.63
493.79	8393.6
493.994	8489.85
494.197	8672.12
494.401	8620.92
494.605	8539.01
494.808	8641.4
495.012	8842.11
495.215	8641.4
495.419	9005.94
495.622	8842.11
495.825	8881.02
496.029	8934.26
496.232	9522.03
496.436	9274.23
496.639	9390.96
496.843	9476.98
497.046	9794.41
497.249	9839.47
497.453	9702.25
497.656	9800.55
497.859	9835.37
498.063	10031.97
498.266	10457.95
498.469	10285.92
498.673	10353.51
498.876	10152.81
499.079	10537.82
499.282	10589.02
499.485	10691.42
499.689	10842.97
499.892	10941.27
500.095	11035.48
500.298	11187.03
500.501	11148.12
500.705	11471.7
500.908	11391.83
501.111	11737.93
501.314	11854.67
501.517	12006.22
501.72	12219.21
501.923	12104.52
502.126	12198.73
502.329	12458.82
502.532	12686.14
502.735	12643.14
502.938	13089.59
503.141	13120.31
503.344	13134.65
503.547	13447.99
503.75	13386.55
503.953	13671.22
504.156	13876.01
504.359	13802.29
504.562	13923.12
504.765	14258.98
504.968	14232.36
505.17	14590.75
505.373	14478.12
505.576	14914.33
505.779	15037.21
505.982	15006.49
506.185	15522.58
506.387	15360.79
506.59	15670.03
506.793	15842.06
506.996	15745.81
507.198	16255.75
507.401	15960.84
507.604	16337.67
507.807	16505.6
508.009	16575.24
508.212	16694.02
508.415	17306.36
508.617	17492.73
508.82	17578.74
509.022	17406.71
509.225	17883.89
509.428	17912.56
509.63	18318.06
509.833	18311.91
510.035	18574.05
510.238	18391.78
510.44	18813.66
510.643	19198.68
510.845	19155.68
511.048	19233.5
511.25	19563.22
511.453	19604.18
511.655	20116.17
511.858	20247.24
512.06	20267.72
512.262	20658.88
512.465	20619.97
512.667	20892.35
512.87	21015.23
513.072	21054.14
513.274	21433.02
513.477	21658.29
513.679	21838.51
513.881	22174.38
514.084	22407.85
514.286	22459.05
514.488	22530.73
514.69	23323.29
514.893	23378.59
515.095	23227.04
515.297	23483.03
515.499	23653.02
515.701	23759.51
515.904	24267.41
516.106	24808.07
516.308	24609.42
516.51	24922.76
516.712	24984.19
516.914	25016.96
517.116	25827.96
517.318	25703.03
517.52	25948.79
517.722	26370.67
517.925	26557.03
518.127	26815.08
518.329	27150.95
518.531	27130.47
518.733	27808.34
518.935	27644.51
519.136	27546.2
519.338	28191.31
519.54	28291.66
519.742	28688.97
519.944	28680.78
520.146	28867.14
520.348	29055.56
520.55	29532.73
520.752	29547.07
520.954	29956.66
521.155	29833.78
521.357	30487.09
521.559	30708.27
521.761	30868.01
521.963	30888.49
522.164	31384.1
522.366	31361.57
522.568	31728.16
522.77	31543.84
522.971	32412.18
523.173	32070.17
523.375	32256.53
523.576	32659.98
523.778	32639.5
523.98	33243.65
524.181	33479.17
524.383	32971.27
524.584	33561.09
524.786	33655.29
524.988	33708.54
525.189	34312.69
525.391	34666.99
525.592	34732.53
525.794	34841.07
525.995	34736.62
526.197	34732.53
526.398	34884.08
526.6	35043.82
526.801	35324.39
527.003	35453.41
527.204	35690.98
527.406	35906.01
527.607	35867.1
527.808	36194.78
528.01	35416.55
528.211	36272.6
528.412	36628.95
528.614	36604.37
528.815	36698.58
529.016	37218.76
529.218	36669.9
529.419	37024.2
529.62	37099.98
529.822	37374.41
530.023	37120.46
530.224	37202.38
530.425	37175.75
530.626	37185.99
530.828	36780.49
531.029	37974.46
531.23	37304.77
531.431	37775.81
531.632	37485
531.833	37528
532.035	37628.35
532.236	37820.86
532.437	37716.42
532.638	37786.05
532.839	38291.9
533.04	38158.78
533.241	37667.27
533.442	38234.55
533.643	38113.72
533.844	37929.41
534.045	38107.58
534.246	38078.91
534.447	38539.7
534.648	38089.15
534.849	38357.43
535.05	38312.38
535.251	38527.41
535.451	38386.1
535.652	38382.01
535.853	38216.12
536.054	38441.4
536.255	38715.83
536.456	37863.87
536.657	39123.37
536.857	38683.06
537.058	38152.63
537.259	38648.24
537.46	38574.52
537.66	38267.32
537.861	38611.38
538.062	38013.37
538.263	38453.69
538.463	38339
538.664	38134.2
538.865	38685.11
539.065	38605.23
539.266	38382.01
539.466	38977.97
539.667	38218.17
539.868	38955.44
540.068	38461.88
540.269	38414.77
540.469	38957.49
540.67	38562.23
540.87	38275.51
541.071	38339
541.271	38470.07
541.472	38416.82
541.672	38152.63
541.873	38447.54
542.073	38117.82
542.274	38832.56
542.474	38445.49
542.675	38046.14
542.875	38709.68
543.075	38787.5
543.276	37800.38
543.476	38597.04
543.676	38070.72
543.877	38361.53
544.077	38603.19
544.277	38492.6
544.478	38185.4
544.678	38500.79
544.878	38300.09
545.078	38549.94
545.279	38152.63
545.479	38478.26
545.679	38281.66
545.879	38353.33
546.079	38269.37
546.28	38392.25
546.48	38023.61
546.68	38570.42
546.88	38478.26
547.08	38375.86
547.28	38019.52
547.48	38062.52
547.68	38074.81
547.88	37927.36
548.081	38476.21
548.281	38058.43
548.481	38169.02
548.681	38361.53
548.881	38224.31
549.081	38177.21
549.28	37790.14
549.48	38363.57
549.68	37841.34
549.88	38496.69
550.08	38058.43
550.28	37990.84
550.48	37888.45
550.68	38597.04
550.88	38263.22
551.08	38193.59
551.279	37763.52
551.479	37861.82
551.679	38343.09
551.879	37941.69
552.079	38169.02
552.278	38021.56
552.478	37751.23
552.678	38035.9
552.878	38095.29
553.077	38115.77
553.277	37892.54
553.477	38394.29
553.676	37781.95
553.876	37824.96
554.076	37448.13
554.275	37437.89
554.475	37611.97
554.674	37687.74
554.874	37517.76
555.074	37622.21
555.273	37673.41
555.473	37642.69
555.672	37427.65
555.872	37628.35
556.071	37417.41
556.271	37591.49
556.47	37374.41
556.67	37253.58
556.869	36815.31
557.068	37280.2
557.268	37065.16
557.467	37265.86
557.667	37218.76
557.866	37134.79
558.065	37265.86
558.265	36618.71
558.464	36825.55
558.663	37153.23
558.863	36389.33
559.062	37421.51
559.261	36338.13
559.461	36694.48
559.66	36182.49
559.859	36418
560.058	36155.86
560.258	36405.72
560.457	36063.71
560.656	36604.37
560.855	36049.37
561.054	36002.27
561.253	35764.7
561.453	36133.34
561.652	36026.84
561.851	36024.79
562.05	36032.99
562.249	35518.95
562.448	36297.17
562.647	35467.75
562.846	35625.44
563.045	35723.74
563.244	35150.31
563.443	35492.32
563.642	34949.61
563.841	35138.02
564.04	35170.79
564.239	35320.29
564.438	34802.16
564.637	35252.71
564.836	34693.61
565.035	34816.49
565.234	34869.74
565.432	34482.67
565.631	34710
565.83	34660.85
566.029	34464.24
566.228	34163.19
566.427	34595.31
566.625	33921.53
566.824	33583.62
567.023	34507.25
567.222	33430.02
567.42	34284.02
567.619	33753.6
567.818	33544.7
568.016	33501.7
568.215	33733.12
568.414	33397.25
568.612	33597.95
568.811	33245.7
569.01	33655.29
569.208	32987.66
569.407	33438.21
569.605	32926.22
569.804	33237.51
570.002	32807.44
570.201	33194.5
570.4	32504.34
570.598	32479.76
570.797	32162.33
570.995	32666.13
571.193	32014.87
571.392	32860.68
571.59	31754.78
571.789	31996.44
571.987	31855.13
572.186	31760.92
572.384	31668.76
572.582	31955.48
572.781	31623.71
572.979	31423.01
573.177	31363.62
573.376	31545.89
573.574	31072.81
573.772	31246.88
573.971	30943.78
574.169	31040.04
574.367	30951.98
574.565	31142.44
574.763	31142.44
574.962	30747.18
575.16	30450.22
575.358	30446.13
575.556	30370.35
575.754	30456.37
575.952	30097.97
576.151	30624.3
576.349	29837.88
576.547	30521.9
576.745	29887.03
576.943	29860.41
577.141	29526.59
577.339	30102.07
577.537	29631.04
577.735	29715
577.933	29651.52
578.131	29440.57
578.329	29141.57
578.527	29413.95
578.725	29276.74
578.923	29194.82
579.121	28932.68
579.319	28887.62
579.516	29289.03
579.714	28625.48
579.912	28774.98
580.11	28949.06
580.308	28553.8
580.506	28852.81
580.704	28002.9
580.901	28402.25
581.099	28760.65
581.297	28217.94
581.495	28279.38
581.692	28506.7
581.89	28037.72
582.088	27968.09
582.285	27787.86
582.483	27920.98
582.681	27720.28
582.878	27458.14
583.076	27478.62
583.274	27599.45
583.471	27345.5
583.669	27406.94
583.866	27019.88
584.064	27365.98
584.262	27019.88
584.459	27026.02
584.657	26786.41
584.854	27003.49
585.052	26813.03
585.249	26841.7
585.447	26747.5
585.644	26342
585.841	26352.24
586.039	26595.95
586.236	26708.58
586.434	26186.35
586.631	25985.65
586.828	26090.1
587.026	26335.85
587.223	26026.61
587.42	25895.54
587.618	25922.16
587.815	25780.85
588.012	25537.15
588.21	25524.86
588.407	25981.56
588.604	25318.01
588.801	25117.31
588.999	25299.58
589.196	25492.09
589.393	25027.2
589.59	24941.19
589.787	25082.5
589.984	24767.11
590.182	24844.93
590.379	24799.88
590.576	24515.21
590.773	24726.15
590.97	24779.4
591.167	24586.89
591.364	24208.01
591.561	24353.42
591.758	23949.97
591.955	24187.53
592.152	24101.52
592.349	24111.76
592.546	24197.77
592.743	23921.3
592.94	23653.02
593.137	23730.84
593.334	23949.97
593.531	23356.06
593.727	23726.74
593.924	23612.06
594.121	23544.47
594.318	23861.91
594.515	23116.45
594.712	23491.23
594.908	23093.92
595.105	22979.23
595.302	23071.39
595.499	22829.73
595.696	23055.01
595.892	22536.87
596.089	22954.66
596.286	22536.87
596.482	22610.6
596.679	22672.04
596.876	22858.4
597.072	22471.34
597.269	22442.67
597.466	22244.01
597.662	22180.53
597.859	22307.5
598.055	22196.91
598.252	21975.73
598.448	21940.91
598.645	22018.74
598.841	21693.11
599.038	21971.63
599.234	21840.56
599.431	21686.97
599.627	21678.77
599.824	21779.12
600.02	21326.52
600.217	21449.4
600.413	21684.92
600.609	21281.47
600.806	21213.88
601.002	21129.92
601.198	21351.1
601.395	20669.12
601.591	20806.34
601.787	21168.83
601.984	20923.07
602.18	20961.98
602.376	20822.72
602.572	20468.42
602.769	20550.34
602.965	20314.83
603.161	20411.08
603.357	20253.39
603.553	20411.08
603.75	20550.34
603.946	20253.39
604.142	20329.16
604.338	19878.61
604.534	20048.59
604.73	20138.7
604.926	19712.72
605.122	19960.53
605.318	19833.55
605.514	19835.6
605.71	19864.27
605.906	19700.44
606.102	19815.12
606.298	19550.93
606.494	19339.99
606.69	19360.47
606.886	19272.41
607.082	19217.11
607.278	19385.05
607.474	19073.76
607.67	19426.01
607.866	19014.37
608.062	19299.03
608.257	19043.04
608.453	19192.54
608.649	19165.92
608.845	18678.5
609.041	18655.97
609.236	18895.58
609.432	18549.48
609.628	18965.21
609.824	18752.23
610.019	18504.42
610.215	18514.66
610.411	18535.14
610.606	18553.57
610.802	18549.48
610.998	18414.31
611.193	18477.8
611.389	18248.43
611.584	18348.78
611.78	18303.72
611.976	17988.33
612.171	18264.81
612.367	18080.49
612.562	17930.99
612.758	17746.67
612.953	17763.06
613.149	18221.8
613.344	18033.39
613.539	18066.16
613.735	17705.71
613.93	18021.1
614.126	17662.71
614.321	17865.46
614.517	17793.78
614.712	17593.08
614.907	17631.99
615.103	17629.94
615.298	17433.33
615.493	17808.11
615.688	17375.99
615.884	17726.19
616.079	17396.47
616.274	17599.22
616.47	17138.43
616.665	17367.8
616.86	17296.12
617.055	17279.74
617.25	17146.62
617.445	17322.74
617.641	17005.31
617.836	17234.68
618.031	16900.86
618.226	17201.91
618.421	17138.43
618.616	17238.78
618.811	16714.5
619.006	16960.25
619.201	16679.68
619.396	16528.13
619.591	16317.19
619.786	16384.77
619.981	16270.09
620.176	16575.24
620.371	16466.69
620.566	16356.1
620.761	16050.96
620.956	16145.16
621.151	16114.44
621.346	16220.94
621.541	15670.03
621.735	16046.86
621.93	15700.75
622.125	15594.26
622.32	15594.26
622.515	15579.92
622.709	15356.69
622.904	15123.23
623.099	15211.29
623.294	15252.25
623.488	15115.03
623.683	14975.77
623.878	14818.08
624.072	15008.54
624.267	14678.82
624.462	14760.73
624.656	14557.99
624.851	14555.94
625.046	14625.57
625.24	14404.39
625.435	14132.01
625.629	14215.98
625.824	13992.75
626.018	14009.13
626.213	13861.68
626.407	13943.6
626.602	13740.85
626.796	14068.52
626.991	13794.09
627.185	13652.78
627.38	13566.77
627.574	13468.47
627.768	13372.21
627.963	13386.55
628.157	13314.87
628.352	13542.19
628.546	13120.31
628.74	13146.94
628.935	13058.87
629.129	13013.82
629.323	12868.41
629.517	12872.51
629.712	12804.92
629.906	12892.99
630.1	12669.76
630.294	12579.65
630.489	12471.11
630.683	12708.67
630.877	12329.8
631.071	12118.86
631.265	12436.29
631.459	12118.86
631.653	12100.42
631.848	12014.41
632.042	11977.55
632.236	11850.57
632.43	11934.54
632.624	11850.57
632.818	11748.17
633.012	11414.35
633.206	11653.97
633.4	11670.35
633.594	11346.77
633.788	11590.48
633.982	11371.35
634.176	11361.11
634.369	11217.75
634.563	11152.21
634.757	11201.37
634.951	11064.15
635.145	10974.04
635.339	10974.04
635.533	11103.06
635.726	11008.86
635.92	10679.13
636.114	10869.59
636.308	10738.52
636.501	10574.69
636.695	10808.16
636.889	10597.21
637.083	10466.14
637.276	10386.27
637.47	10367.84
637.664	10392.42
637.857	10367.84
638.051	10247.01
638.244	10367.84
638.438	10367.84
638.632	10074.98
638.825	9773.93
639.019	9925.48
639.212	9935.72
639.406	9956.2
639.599	9780.07
639.793	9993.06
639.986	9522.03
640.18	9661.29
640.373	9501.55
640.567	9474.93
640.76	9528.17
640.954	9241.46
641.147	9356.15
641.34	9100.15
641.534	9276.27
641.727	9317.23
641.92	9292.66
642.114	9102.2
642.307	9147.25
642.5	9012.09
642.694	8971.13
642.887	8704.89
643.08	8909.69
643.273	8790.91
643.467	8889.21
643.66	8688.51
643.853	8930.17
644.046	8629.12
644.239	8571.77
644.432	8547.2
644.626	8416.13
644.819	8553.34
645.012	8420.22
645.205	8399.74
645.398	8516.48
645.591	8307.59
645.784	8334.21
645.977	8018.82
646.17	8272.77
646.363	8143.75
646.556	8010.63
646.749	8078.21
646.942	8098.69
647.135	7959.43
647.328	7809.93
647.521	7908.23
647.714	7834.5
647.907	7748.49
648.099	7717.77
648.292	7701.39
648.485	7678.86
648.678	7517.07
648.871	7691.15
649.064	7580.56
649.256	7402.38
649.449	7515.02
649.642	7340.94
649.835	7472.01
650.027	7326.61
650.22	7349.14
650.413	7179.15
650.605	7386
650.798	7195.54
650.991	7123.86
651.183	7230.35
651.376	7093.14
651.568	7066.52
651.761	6851.48
651.954	6802.33
652.146	6947.73
652.339	7021.46
652.531	6775.7
652.724	6882.2
652.916	6751.13
653.109	6822.81
653.301	6757.27
653.494	6742.94
653.686	6476.7
653.879	6622.11
654.071	6722.46
654.263	6564.76
654.456	6402.97
654.648	6529.95
654.84	6388.64
655.033	6345.63
655.225	6372.25
655.417	6189.99
655.61	6298.53
655.802	6286.24
655.994	6251.42
656.186	6390.69
656.379	6122.4
656.571	6271.9
656.763	6353.82
656.955	6159.27
657.148	6106.02
657.34	6095.78
657.532	5839.78
657.724	5852.07
657.916	5866.41
658.108	5862.31
658.3	5843.88
658.492	6020
658.684	5751.72
658.876	5727.14
659.068	5764.01
659.26	5661.61
659.452	5655.47
659.644	5618.6
659.836	5600.17
660.028	5616.55
660.22	5538.73
660.412	5569.45
660.604	5399.47
660.796	5520.3
660.988	5536.68
661.18	5417.9
661.372	5335.98
661.563	5434.29
661.755	5286.83
661.947	5282.74
662.139	5452.72
662.331	5321.65
662.522	5286.83
662.714	5241.78
662.906	5243.82
663.097	5178.29
663.289	5016.5
663.481	5075.89
663.673	5073.84
663.864	4934.58
664.056	5002.16
664.247	5084.08
664.439	4926.39
664.631	4981.68
664.822	5028.79
665.014	4957.11
665.205	4887.48
665.397	4848.57
665.588	4944.82
665.78	4998.07
665.971	4854.71
666.163	4916.15
666.354	4760.5
666.546	4783.03
666.737	4615.1
666.929	4746.17
667.12	4662.2
667.311	4643.77
667.503	4520.89
667.694	4625.34
667.885	4545.47
668.077	4535.23
668.268	4518.84
668.459	4529.08
668.651	4422.59
668.842	4424.64
669.033	4395.96
669.224	4398.01
669.416	4422.59
669.607	4293.57
669.798	4277.18
669.989	4297.66
670.18	4432.83
670.371	4395.96
670.563	4281.28
670.754	4336.57
670.945	4297.66
671.136	4250.56
671.327	4234.18
671.518	4225.98
671.709	4148.16
671.9	4160.45
672.091	4238.27
672.282	4139.97
672.473	4056
672.664	4105.15
672.855	4006.85
673.046	4185.02
673.237	4139.97
673.428	4035.52
673.619	3951.56
673.809	4072.39
674	4017.09
674.191	4015.04
674.382	3980.23
674.573	4002.75
674.764	3980.23
674.954	3969.99
675.145	3851.21
675.336	3959.75
675.527	3873.73
675.717	3867.59
675.908	3963.84
676.099	3963.84
676.289	3769.29
676.48	3791.81
676.671	3816.39
676.861	3836.87
677.052	3808.2
677.243	3787.72
677.433	3843.01
677.624	3757
677.814	3877.83
678.005	3668.94
678.195	3890.12
678.386	3787.72
678.576	3677.13
678.767	3625.93
678.957	3759.05
679.148	3718.09
679.338	3793.86
679.529	3707.85
679.719	3711.94
679.909	3783.62
680.1	3677.13
680.29	3609.54
680.481	3478.47
680.671	3537.87
680.861	3572.68
681.052	3619.78
681.242	3625.93
681.432	3593.16
681.622	3591.11
681.813	3554.25
682.003	3701.7
682.193	3488.71
682.383	3468.24
682.573	3605.45
682.764	3480.52
682.954	3468.24
683.144	3490.76
683.334	3423.18
683.524	3441.61
683.714	3462.09
683.904	3388.36
684.094	3458
684.284	3339.21
684.474	3447.76
684.664	3455.95
684.854	3437.52
685.044	3453.9
685.234	3353.55
685.424	3378.12
685.614	3392.46
685.804	3482.57
685.994	3324.88
686.184	3300.3
686.374	3183.57
686.564	3363.79
686.753	3380.17
686.943	3183.57
687.133	3294.16
687.323	3224.53
687.513	3271.63
687.702	3261.39
687.892	3240.91
688.082	3199.95
688.272	3220.43
688.461	3212.24
688.651	3206.1
688.841	3150.8
689.03	3038.16
689.22	3124.18
689.41	3095.5
689.599	3099.6
689.789	3046.35
689.979	3081.17
690.168	3077.07
690.358	3029.97
690.547	3056.59
690.737	3023.83
690.926	2917.33
691.116	2939.86
691.305	3128.27
691.495	2982.87
691.684	3034.07
691.874	3032.02
692.063	2913.24
692.252	2919.38
692.442	2876.37
692.631	2757.59
692.82	2927.57
693.01	2874.32
693.199	2857.94
693.388	2755.54
693.578	2892.76
693.767	2943.96
693.956	2866.13
694.146	2870.23
694.335	2878.42
694.524	2825.17
694.713	2857.94
694.902	2773.97
695.092	2917.33
695.281	2679.77
695.47	2726.87
695.659	2696.15
695.848	2794.45
696.037	2628.57
696.226	2698.2
696.415	2749.4
696.604	2739.16
696.793	2685.91
696.982	2782.17
697.171	2640.86
697.36	2792.41
697.549	2665.43
697.738	2638.81
697.927	2751.45
698.116	2733.01
698.305	2599.9
698.494	2788.31
698.683	2649.05
698.872	2720.73
699.061	2763.73
699.25	2722.77
699.438	2745.3
699.627	2743.25
699.816	2644.95
700.005	2651.1
700.193	2679.77
700.382	2681.82
700.571	2698.2
700.76	2741.21
700.948	2778.07
701.137	2665.43
701.326	2751.45
701.514	2692.05
701.703	2653.14
701.892	2696.15
702.08	2765.78
702.269	2761.69
702.457	2614.23
702.646	2675.67
702.834	2644.95
703.023	2769.88
703.212	2628.57
703.4	2583.51
703.589	2716.63
703.777	2690.01
703.965	2692.05
704.154	2622.42
704.342	2733.01
704.531	2479.07
704.719	2696.15
704.907	2712.53
705.096	2681.82
705.284	2730.97
705.472	2677.72
705.661	2610.14
705.849	2632.66
706.037	2696.15
706.226	2647
706.414	2667.48
706.602	2663.38
706.79	2690.01
706.979	2628.57
707.167	2524.12
707.355	2659.29
707.543	2608.09
707.731	2687.96
707.919	2554.84
708.107	2569.18
708.296	2632.66
708.484	2632.66
708.672	2675.67
708.86	2558.94
709.048	2675.67
709.236	2601.94
709.424	2667.48
709.612	2704.34
709.8	2626.52
709.988	2620.38
710.176	2681.82
710.364	2722.77
710.551	2673.62
710.739	2655.19
710.927	2608.09
711.115	2690.01
711.303	2606.04
711.491	2679.77
711.679	2552.79
711.866	2782.17
712.054	2702.29
712.242	2579.42
712.43	2644.95
712.617	2591.7
712.805	2651.1
712.993	2636.76
713.181	2479.07
713.368	2552.79
713.556	2606.04
713.744	2550.75
713.931	2614.23
714.119	2610.14
714.306	2675.67
714.494	2669.53
714.682	2575.32
714.869	2601.94
715.057	2515.93
715.244	2450.39
715.432	2622.42
715.619	2556.89
715.807	2606.04
715.994	2589.66
716.182	2556.89
716.369	2569.18
716.556	2534.36
716.744	2581.46
716.931	2587.61
717.119	2505.69
717.306	2575.32
717.493	2599.9
717.681	2517.98
717.868	2544.6
718.055	2722.77
718.242	2687.96
718.43	2513.88
718.617	2587.61
718.804	2730.97
718.991	2591.7
719.179	2644.95
719.366	2655.19
719.553	2630.62
719.74	2599.9
719.927	2466.78
720.114	2456.54
720.301	2483.16
720.488	2515.93
720.676	2565.08
720.863	2573.27
721.05	2560.98
721.237	2589.66
721.424	2509.79
721.611	2520.03
721.798	2522.07
721.985	2493.4
722.172	2538.46
722.358	2442.2
722.545	2552.79
722.732	2593.75
722.919	2524.12
723.106	2517.98
723.293	2520.03
723.48	2610.14
723.667	2505.69
723.853	2522.07
724.04	2638.81
724.227	2571.22
724.414	2554.84
724.6	2522.07
724.787	2522.07
724.974	2528.22
725.161	2538.46
725.347	2462.68
725.534	2501.59
725.72	2540.51
725.907	2499.55
726.094	2575.32
726.28	2630.62
726.467	2511.83
726.653	2397.15
726.84	2386.91
727.027	2507.74
727.213	2567.13
727.4	2448.35
727.586	2634.71
727.773	2536.41
727.959	2507.74
728.145	2671.58
728.332	2630.62
728.518	2442.2
728.705	2520.03
728.891	2522.07
729.077	2571.22
729.264	2540.51
729.45	2534.36
729.636	2462.68
729.823	2413.53
730.009	2515.93
730.195	2440.15
730.382	2497.5
730.568	2552.79
730.754	2550.75
730.94	2454.49
731.126	2554.84
731.313	2538.46
731.499	2583.51
731.685	2548.7
731.871	2466.78
732.057	2560.98
732.243	2509.79
732.429	2413.53
732.615	2540.51
732.801	2333.66
732.987	2456.54
733.173	2530.27
733.359	2489.31
733.545	2460.63
733.731	2511.83
733.917	2509.79
734.103	2511.83
734.289	2610.14
734.475	2499.55
734.661	2505.69
734.847	2409.44
735.033	2460.63
735.219	2481.11
735.404	2405.34
735.59	2401.24
735.776	2415.58
735.962	2456.54
736.148	2565.08
736.333	2499.55
736.519	2399.2
736.705	2468.83
736.89	2524.12
737.076	2454.49
737.262	2423.77
737.447	2493.4
737.633	2515.93
737.819	2528.22
738.004	2425.82
738.19	2382.81
738.375	2393.05
738.561	2294.75
738.747	2536.41
738.932	2352.09
739.118	2438.11
739.303	2352.09
739.489	2368.48
739.674	2317.28
739.859	2386.91
740.045	2352.09
740.23	2327.52
740.416	2442.2
740.601	2364.38
740.786	2309.08
740.972	2388.96
741.157	2323.42
741.342	2167.77
741.528	2352.09
741.713	2388.96
741.898	2321.37
742.084	2286.56
742.269	2278.37
742.454	2221.02
742.639	2206.69
742.824	2155.49
743.01	2333.66
743.195	2348
743.38	2284.51
743.565	2348
743.75	2218.97
743.935	2079.71
744.12	2182.11
744.305	2118.62
744.49	2122.72
744.675	2274.27
744.86	2139.1
745.045	2223.07
745.23	2071.52
745.415	2233.31
745.6	2040.8
745.785	2141.15
745.97	2188.25
746.155	2147.3
746.34	2065.38
746.525	2016.23
746.71	2016.23
746.895	2003.94
747.079	2059.23
747.264	2061.28
747.449	2077.66
747.634	1938.4
747.819	1975.27
748.003	1948.64
748.188	2010.08
748.373	1971.17
748.557	1954.79
748.742	1864.68
748.927	1776.61
749.111	1885.16
749.296	1926.11
749.481	1909.73
749.665	1940.45
749.85	1868.77
750.034	1952.74
750.219	1907.68
750.404	1833.96
750.588	1782.76
750.773	1737.7
750.957	1723.37
751.141	1825.76
751.326	1813.48
751.51	1852.39
751.695	1807.33
751.879	1659.88
752.064	1690.6
752.248	1674.21
752.432	1670.12
752.617	1663.97
752.801	1623.02
752.985	1676.26
753.17	1729.51
753.354	1713.13
753.538	1696.74
753.722	1606.63
753.907	1674.21
754.091	1649.64
754.275	1598.44
754.459	1590.25
754.643	1618.92
754.828	1551.34
755.012	1541.1
755.196	1491.95
755.38	1496.04
755.564	1559.53
755.748	1506.28
755.932	1618.92
756.116	1469.42
756.3	1401.83
756.484	1485.8
756.668	1410.03
756.852	1512.42
757.036	1532.9
757.22	1379.31
757.404	1463.27
757.588	1395.69
757.772	1444.84
757.956	1399.79
758.14	1426.41
758.323	1369.07
758.507	1434.6
758.691	1412.07
758.875	1399.79
759.059	1309.68
759.242	1383.4
759.426	1362.92
759.61	1307.63
759.794	1309.68
759.977	1364.97
760.161	1334.25
760.345	1207.28
760.528	1250.28
760.712	1283.05
760.895	1371.12
761.079	1242.09
761.263	1319.92
761.446	1223.66
761.63	1192.94
761.813	1211.37
761.997	1176.56
762.18	1141.74
762.364	1297.39
762.547	1182.7
762.731	1225.71
762.914	1332.2
763.098	1217.52
763.281	1252.33
763.464	1219.57
763.648	1149.93
763.831	1129.45
764.015	1135.6
764.198	1297.39
764.381	1190.89
764.564	1219.57
764.748	1111.02
764.931	1111.02
765.114	1102.83
765.297	1174.51
765.481	1098.74
765.664	1086.45
765.847	1086.45
766.03	1106.93
766.213	1037.3
766.397	1018.86
766.58	1033.2
766.763	1168.37
766.946	1047.54
767.129	1084.4
767.312	1098.74
767.495	1092.59
767.678	1053.68
767.861	1117.17
768.044	1033.2
768.227	967.67
768.41	1035.25
768.593	1117.17
768.776	1029.1
768.959	969.71
769.142	1049.58
769.324	1108.98
769.507	1022.96
769.69	1027.06
769.873	922.61
770.056	1027.06
770.239	963.57
770.421	1029.1
770.604	1068.02
770.787	1055.73
770.97	955.38
771.152	971.76
771.335	943.09
771.518	910.32
771.7	1080.3
771.883	938.99
772.066	924.66
772.248	988.14
772.431	1043.44
772.613	916.47
772.796	941.04
772.978	887.79
773.161	918.51
773.343	908.27
773.526	904.18
773.708	869.36
773.891	984.05
774.073	928.75
774.256	850.93
774.438	908.27
774.621	861.17
774.803	826.36
774.985	871.41
775.168	850.93
775.35	803.83
775.532	834.55
775.715	836.6
775.897	812.02
776.079	850.93
776.261	875.51
776.444	824.31
776.626	762.87
776.808	756.72
776.99	852.98
777.173	775.16
777.355	693.24
777.537	785.4
777.719	797.68
777.901	762.87
778.083	703.48
778.265	695.29
778.447	744.44
778.629	658.42
778.811	758.77
778.993	734.2
779.175	701.43
779.357	775.16
779.539	756.72
779.721	654.33
779.903	742.39
780.085	744.44
780.267	633.85
780.449	672.76
780.631	609.27
780.812	572.41
780.994	615.41
781.176	586.74
781.358	746.48
781.54	707.57
781.721	740.34
781.903	644.09
782.085	549.88
782.267	599.03
782.448	574.46
782.63	611.32
782.812	556.02
782.993	623.61
783.175	615.41
783.357	578.55
783.538	556.02
783.72	568.31
783.901	578.55
784.083	568.31
784.264	527.35
784.446	568.31
784.627	463.86
784.809	523.26
784.99	480.25
785.172	564.22
785.353	545.78
785.535	578.55
785.716	594.93
785.897	427
786.079	486.39
786.26	525.3
786.441	506.87
786.623	566.26
786.804	525.3
786.985	568.31
787.167	543.74
787.348	414.71
787.529	504.82
787.71	472.06
787.891	433.15
788.073	463.86
788.254	437.24
788.435	490.49
788.616	523.26
788.797	447.48
788.978	459.77
789.159	504.82
789.34	459.77
789.522	402.43
789.703	451.58
789.884	484.34
790.065	394.23
790.246	461.82
790.427	416.76
790.607	451.58
790.788	457.72
790.969	353.27
791.15	381.95
791.331	398.33
791.512	451.58
791.693	340.99
791.874	367.61
792.054	390.14
792.235	394.23
792.416	457.72
792.597	398.33
792.778	400.38
792.958	383.99
793.139	381.95
793.32	427
793.5	383.99
793.681	474.1
793.862	414.71
794.042	398.33
794.223	332.79
794.404	328.7
794.584	386.04
794.765	371.71
794.945	373.75
795.126	353.27
795.306	308.22
795.487	377.85
795.667	332.79
795.848	386.04
796.028	336.89
796.209	259.07
796.389	369.66
796.57	322.56
796.75	336.89
796.93	343.03
797.111	279.55
797.291	390.14
797.471	281.6
797.652	359.42
797.832	230.4
798.012	377.85
798.192	340.99
798.373	261.12
798.553	242.68
798.733	320.51
798.913	300.03
799.093	283.64
799.274	287.74
799.454	271.36
799.634	435.19
799.814	340.99
799.994	279.55
800.174	300.03
800.354	324.6
800.534	240.64
800.714	293.88
800.894	287.74
801.074	291.84
801.254	297.98
801.434	246.78
801.614	320.51
801.794	234.49
801.974	691.19
802.154	224.25
802.334	240.64
802.514	273.4
802.693	347.13
802.873	320.51
803.053	304.12
803.233	285.69
803.413	312.32
803.592	277.5
803.772	232.44
803.952	228.35
804.131	275.45
804.311	156.67
804.491	289.79
804.67	254.97
804.85	244.73
805.03	257.02
805.209	257.02
805.389	312.32
805.568	236.54
805.748	230.4
805.928	230.4
806.107	283.64
806.287	273.4
806.466	216.06
806.646	136.19
806.825	224.25
807.004	242.68
807.184	230.4
807.363	230.4
807.543	252.92
807.722	259.07
807.901	205.82
808.081	277.5
808.26	146.43
808.439	216.06
808.619	277.5
808.798	252.92
808.977	328.7
809.156	238.59
809.336	181.25
809.515	164.86
809.694	293.88
809.873	146.43
810.052	238.59
810.231	269.31
810.411	199.68
810.59	187.39
810.769	199.68
810.948	226.3
811.127	191.49
811.306	242.68
811.485	230.4
811.664	275.45
811.843	207.87
812.022	156.67
812.201	136.19
812.38	148.48
812.559	214.01
812.737	146.43
812.916	158.72
813.095	154.62
813.274	171.01
813.453	228.35
813.632	164.86
813.811	240.64
813.989	195.58
814.168	211.96
814.347	238.59
814.526	168.96
814.704	242.68
814.883	222.2
815.062	207.87
815.24	201.72
815.419	187.39
815.598	168.96
815.776	142.33
815.955	119.81
816.133	156.67
816.312	166.91
816.49	168.96
816.669	171.01
816.847	128
817.026	103.42
817.204	195.58
817.383	195.58
817.561	191.49
817.74	177.15
817.918	197.63
818.097	144.38
818.275	164.86
818.453	242.68
818.632	222.2
818.81	68.61
818.988	189.44
819.167	195.58
819.345	140.29
819.523	142.33
819.701	121.85
819.879	179.2
820.058	140.29
820.236	193.53
820.414	89.09
820.592	218.11
820.77	156.67
820.948	144.38
821.127	64.51
821.305	121.85
821.483	64.51
821.661	224.25
821.839	216.06
822.017	144.38
822.195	158.72
822.373	168.96
822.551	134.14
822.729	224.25
822.907	107.52
823.085	115.71
823.262	211.96
823.44	123.9
823.618	156.67
823.796	166.91
823.974	121.85
824.152	58.37
824.329	121.85
824.507	168.96
824.685	156.67
824.863	136.19
825.04	113.66
825.218	119.81
825.396	234.49
825.574	140.29
825.751	187.39
825.929	195.58
826.107	70.65
826.284	148.48
826.462	134.14
826.639	154.62
826.817	121.85
826.994	58.37
827.172	87.04
827.349	144.38
827.527	150.53
827.704	111.61
827.882	105.47
828.059	72.7
828.237	166.91
828.414	193.53
828.591	46.08
828.769	164.86
828.946	101.37
829.124	119.81
829.301	136.19
829.478	187.39
829.655	132.09
829.833	105.47
830.01	119.81
830.187	160.77
830.364	201.72
830.542	84.99
830.719	132.09
830.896	140.29
831.073	78.85
831.25	66.56
831.427	99.33
831.604	181.25
831.782	107.52
831.959	101.37
832.136	119.81
832.313	138.24
832.49	60.42
832.667	84.99
832.844	23.55
833.021	107.52
833.198	140.29
833.374	111.61
833.551	62.46
833.728	119.81
833.905	142.33
834.082	70.65
834.259	78.85
834.436	82.94
834.612	89.09
834.789	97.28
834.966	62.46
835.143	146.43
835.319	134.14
835.496	111.61
835.673	175.1
835.85	66.56
836.026	171.01
836.203	140.29
836.38	93.18
836.556	132.09
836.733	82.94
836.909	115.71
837.086	50.18
837.262	91.13
837.439	99.33
837.616	37.89
837.792	74.75
837.968	70.65
838.145	89.09
838.321	154.62
838.498	103.42
838.674	103.42
838.851	156.67
839.027	66.56
839.203	66.56
839.38	37.89
839.556	-17.41
839.732	121.85
839.909	130.05
840.085	74.75
840.261	111.61
840.437	80.89
840.614	140.29
840.79	39.94
840.966	107.52
841.142	105.47
841.318	123.9
841.494	31.74
841.671	93.18
841.847	89.09
842.023	101.37
842.199	117.76
842.375	148.48
842.551	93.18
842.727	78.85
842.903	132.09
843.079	27.65
843.255	80.89
843.431	144.38
843.607	103.42
843.783	76.8
843.959	76.8
844.134	50.18
844.31	60.42
844.486	50.18
844.662	25.6
844.838	48.13
845.013	123.9
845.189	54.27
845.365	128
845.541	39.94
845.716	37.89
845.892	70.65
846.068	140.29
846.244	-64.51
846.419	130.05
846.595	54.27
846.77	70.65
846.946	37.89
847.122	19.46
847.297	132.09
847.473	164.86
847.648	50.18
847.824	56.32
847.999	60.42
848.175	109.57
848.35	50.18
848.526	107.52
848.701	58.37
848.876	60.42
849.052	152.57
849.227	64.51
849.403	60.42
849.578	-19.46
849.753	80.89
849.929	99.33
850.104	9.22
850.279	35.84
850.454	78.85
850.63	93.18
850.805	60.42
850.98	13.31
851.155	1.02
851.33	-7.17
851.505	-1.02
851.681	76.8
851.856	50.18
852.031	54.27
852.206	-23.55
852.381	37.89
852.556	27.65
852.731	84.99
852.906	87.04
853.081	48.13
853.256	93.18
853.431	15.36
853.606	95.23
853.781	109.57
853.956	21.5
854.131	23.55
854.305	46.08
854.48	48.13
854.655	140.29
854.83	9.22
855.005	76.8
855.18	93.18
855.354	33.79
855.529	31.74
855.704	130.05
855.879	-3.07
856.053	68.61
856.228	41.98
856.403	76.8
856.577	87.04
856.752	41.98
856.926	48.13
857.101	72.7
857.276	103.42
857.45	-1.02
857.625	70.65
857.799	15.36
857.974	97.28
858.148	111.61
858.323	52.22
858.497	33.79
858.672	97.28
858.846	44.03
859.02	48.13
859.195	91.13
859.369	27.65
859.543	27.65
859.718	41.98
859.892	29.7
860.066	74.75
860.241	62.46
860.415	-3.07
860.589	-17.41
860.763	62.46
860.938	31.74
861.112	-19.46
861.286	15.36
861.46	50.18
861.634	64.51
861.808	37.89
861.982	21.5
862.157	52.22
862.331	78.85
862.505	-5.12
862.679	3.07
862.853	21.5
863.027	50.18
863.201	68.61
863.375	-11.26
863.549	31.74
863.722	84.99
863.896	-11.26
864.07	113.66
864.244	93.18
864.418	121.85
864.592	84.99
864.766	25.6
864.939	39.94
865.113	33.79
865.287	130.05
865.461	-25.6
865.634	11.26
865.808	44.03
865.982	74.75
866.156	48.13
866.329	27.65
866.503	66.56
866.676	44.03
866.85	17.41
867.024	89.09
867.197	60.42
867.371	58.37
867.544	64.51
867.718	-11.26
867.891	37.89
868.065	80.89
868.238	-9.22
868.412	54.27
868.585	33.79
868.759	5.12
868.932	62.46
869.105	-13.31
869.279	33.79
869.452	58.37
869.625	46.08
869.799	25.6
869.972	84.99
870.145	9.22
870.319	-23.55
870.492	-3.07
870.665	25.6
870.838	29.7
871.011	-37.89
871.185	44.03
871.358	1.02
871.531	54.27
871.704	-19.46
871.877	82.94
872.05	-48.13
872.223	74.75
872.396	82.94
872.569	9.22
872.742	64.51
872.915	76.8
873.088	35.84
873.261	13.31
873.434	27.65
873.607	123.9
873.78	29.7
873.953	-33.79
874.126	48.13
874.299	15.36
874.471	-5.12
874.644	19.46
874.817	74.75
874.99	41.98
875.163	87.04
875.335	56.32
875.508	60.42
875.681	21.5
875.853	-1.02
876.026	-23.55
876.199	54.27
876.371	17.41
876.544	-15.36
876.717	52.22
876.889	66.56
877.062	-7.17
877.234	5.12
877.407	37.89
877.579	80.89
877.752	78.85
877.924	52.22
878.097	5.12
878.269	62.46
878.442	64.51
878.614	56.32
878.786	35.84
878.959	17.41
879.131	62.46
879.303	-5.12
879.476	64.51
879.648	107.52
879.82	58.37
879.993	-46.08
880.165	23.55
880.337	-11.26
880.509	37.89
880.681	-3.07
880.854	1.02
881.026	41.98
881.198	91.13
881.37	-13.31
881.542	29.7
881.714	44.03
881.886	50.18
882.058	1.02
882.23	-13.31
882.402	91.13
882.574	136.19
882.746	66.56
882.918	15.36
883.09	13.31
883.262	93.18
883.434	52.22
883.606	64.51
883.778	-44.03
883.95	21.5
884.122	35.84
884.293	74.75
884.465	5.12
884.637	33.79
884.809	31.74
884.98	76.8
885.152	54.27
885.324	78.85
885.496	31.74
885.667	25.6
885.839	29.7
886.011	60.42
886.182	41.98
886.354	70.65
886.525	27.65
886.697	17.41
886.869	17.41
887.04	44.03
887.212	52.22
887.383	78.85
887.555	19.46
887.726	19.46
887.897	1.02
888.069	84.99
888.24	58.37
888.412	50.18
888.583	72.7
888.754	21.5
888.926	27.65
889.097	60.42
889.268	-7.17
889.44	62.46
889.611	5.12
889.782	25.6
889.953	-7.17
890.125	-3.07
890.296	-19.46
890.467	54.27
890.638	5.12
890.809	84.99
890.98	17.41
891.151	-1.02
891.323	19.46
891.494	-21.5
891.665	66.56
891.836	-11.26
892.007	13.31
892.178	60.42
892.349	46.08
892.52	19.46
892.691	46.08
892.862	15.36
893.032	-50.18
893.203	39.94
893.374	19.46
893.545	80.89
893.716	-15.36
893.887	-17.41
894.057	66.56
894.228	11.26
894.399	-3.07
894.57	27.65
894.74	29.7
894.911	60.42
895.082	-1.02
895.253	50.18
895.423	-23.55
895.594	41.98
895.764	-19.46
895.935	-11.26
896.106	-27.65
896.276	27.65
896.447	78.85
896.617	52.22
896.788	-60.42
896.958	46.08
897.129	54.27
897.299	-27.65
897.47	37.89
897.64	52.22
897.81	13.31
897.981	87.04
898.151	-50.18
898.322	58.37
898.492	35.84
898.662	97.28
898.832	-11.26
899.003	-19.46
899.173	-11.26
899.343	48.13
899.513	15.36
