Data from USB4F104151__172__11-08-58-047.txt Node

Date: Wed Mar 12 11:08:58 EDT 2025
User: louis
Spectrometer: USB4F10415
Trigger mode: 4
Integration Time (sec): 2.000000E-2
Scans to average: 1
Electric dark correction enabled: true
Nonlinearity correction enabled: false
Boxcar width: 0
XAxis mode: Wavelengths
Number of Pixels in Spectrum: 3648
>>>>>Begin Spectral Data<<<<<
178.204	-37.03
178.424	-37.03
178.644	-37.03
178.864	-139.43
179.084	-61.61
179.304	-4.27
179.524	-24.75
179.744	-32.94
179.964	22.36
180.184	16.21
180.404	26.45
180.624	63.32
180.844	-2.22
181.064	-80.04
181.283	-28.84
181.503	38.74
181.723	5.97
181.943	-34.99
182.163	48.98
182.383	8.02
182.602	-16.55
182.822	-22.7
183.042	-69.8
183.262	-16.55
183.482	79.7
183.701	-28.84
183.921	40.79
184.141	5.97
184.361	3.93
184.58	65.36
184.8	30.55
185.02	8.02
185.239	46.93
185.459	51.03
185.679	20.31
185.898	18.26
186.118	-6.31
186.338	67.41
186.557	-51.37
186.777	14.17
186.997	28.5
187.216	30.55
187.436	89.94
187.655	44.88
187.875	75.6
188.095	34.64
188.314	46.93
188.534	104.28
188.753	-20.65
188.973	77.65
189.192	14.17
189.412	-37.03
189.631	-16.55
189.851	71.51
190.07	-41.13
190.29	34.64
190.509	3.93
190.729	-28.84
190.948	85.84
191.168	51.03
191.387	51.03
191.607	110.42
191.826	20.31
192.045	-16.55
192.265	5.97
192.484	-14.51
192.704	-57.51
192.923	14.17
193.142	81.75
193.362	5.97
193.581	5.97
193.8	38.74
194.02	1.88
194.239	53.08
194.458	67.41
194.678	28.5
194.897	22.36
195.116	22.36
195.335	8.02
195.555	30.55
195.774	12.12
195.993	30.55
196.212	-4.27
196.432	-37.03
196.651	-12.46
196.87	-10.41
197.089	-6.31
197.308	44.88
197.528	59.22
197.747	3.93
197.966	3.93
198.185	46.93
198.404	12.12
198.623	36.69
198.842	22.36
199.062	28.5
199.281	18.26
199.5	-4.27
199.719	104.28
199.938	34.64
200.157	104.28
200.376	3.93
200.595	98.13
200.814	28.5
201.033	-2.22
201.252	81.75
201.471	79.7
201.69	-4.27
201.909	-63.66
202.128	46.93
202.347	1.88
202.566	122.71
202.785	40.79
203.004	-10.41
203.223	102.23
203.442	36.69
203.661	42.84
203.879	67.41
204.098	79.7
204.317	42.84
204.536	16.21
204.755	-28.84
204.974	-34.99
205.193	67.41
205.411	61.27
205.63	3.93
205.849	14.17
206.068	91.99
206.287	-20.65
206.505	44.88
206.724	-14.51
206.943	73.56
207.162	34.64
207.381	38.74
207.599	28.5
207.818	28.5
208.037	-18.6
208.255	30.55
208.474	-2.22
208.693	36.69
208.911	44.88
209.13	20.31
209.349	20.31
209.567	-16.55
209.786	106.32
210.005	26.45
210.223	40.79
210.442	-2.22
210.661	-8.36
210.879	-57.51
211.098	48.98
211.316	59.22
211.535	40.79
211.753	5.97
211.972	118.61
212.191	-2.22
212.409	3.93
212.628	28.5
212.846	8.02
213.065	26.45
213.283	36.69
213.502	10.07
213.72	18.26
213.938	28.5
214.157	12.12
214.375	24.4
214.594	-6.31
214.812	44.88
215.031	24.4
215.249	55.12
215.467	-0.17
215.686	28.5
215.904	18.26
216.122	38.74
216.341	-2.22
216.559	61.27
216.778	44.88
216.996	16.21
217.214	57.17
217.432	-41.13
217.651	-39.08
217.869	26.45
218.087	-14.51
218.306	65.36
218.524	30.55
218.742	53.08
218.96	3.93
219.179	12.12
219.397	38.74
219.615	89.94
219.833	69.46
220.051	77.65
220.27	28.5
220.488	44.88
220.706	16.21
220.924	59.22
221.142	-22.7
221.36	59.22
221.578	75.6
221.796	-0.17
222.015	36.69
222.233	5.97
222.451	42.84
222.669	8.02
222.887	51.03
223.105	12.12
223.323	8.02
223.541	-100.52
223.759	51.03
223.977	34.64
224.195	-6.31
224.413	28.5
224.631	-12.46
224.849	34.64
225.067	89.94
225.285	65.36
225.503	42.84
225.721	69.46
225.939	28.5
226.157	55.12
226.375	104.28
226.592	8.02
226.81	-16.55
227.028	69.46
227.246	114.52
227.464	44.88
227.682	44.88
227.9	91.99
228.117	22.36
228.335	79.7
228.553	20.31
228.771	16.21
228.989	-20.65
229.206	-12.46
229.424	20.31
229.642	-49.32
229.86	14.17
230.077	-2.22
230.295	-37.03
230.513	22.36
230.731	48.98
230.948	26.45
231.166	42.84
231.384	14.17
231.601	42.84
231.819	-2.22
232.037	63.32
232.254	69.46
232.472	32.6
232.689	40.79
232.907	51.03
233.125	-4.27
233.342	20.31
233.56	44.88
233.777	16.21
233.995	-14.51
234.213	85.84
234.43	-20.65
234.648	-30.89
234.865	59.22
235.083	-8.36
235.3	34.64
235.518	-28.84
235.735	26.45
235.953	-10.41
236.17	44.88
236.388	12.12
236.605	16.21
236.822	53.08
237.04	-2.22
237.257	40.79
237.475	14.17
237.692	61.27
237.909	3.93
238.127	12.12
238.344	75.6
238.562	46.93
238.779	32.6
238.996	-30.89
239.214	38.74
239.431	34.64
239.648	-12.46
239.865	79.7
240.083	-10.41
240.3	40.79
240.517	48.98
240.735	40.79
240.952	87.89
241.169	38.74
241.386	12.12
241.603	1.88
241.821	26.45
242.038	124.76
242.255	-14.51
242.472	28.5
242.689	81.75
242.907	40.79
243.124	-41.13
243.341	10.07
243.558	38.74
243.775	3.93
243.992	67.41
244.209	75.6
244.426	77.65
244.643	67.41
244.86	73.56
245.078	65.36
245.295	36.69
245.512	81.75
245.729	-8.36
245.946	26.45
246.163	10.07
246.38	77.65
246.597	-18.6
246.814	30.55
247.031	14.17
247.248	-10.41
247.464	46.93
247.681	83.8
247.898	36.69
248.115	-2.22
248.332	26.45
248.549	85.84
248.766	128.85
248.983	112.47
249.2	128.85
249.417	14.17
249.633	24.4
249.85	57.17
250.067	3.93
250.284	44.88
250.501	-4.27
250.717	57.17
250.934	-18.6
251.151	44.88
251.368	-45.23
251.585	34.64
251.801	-24.75
252.018	34.64
252.235	75.6
252.451	5.97
252.668	46.93
252.885	73.56
253.102	10.07
253.318	38.74
253.535	10.07
253.752	40.79
253.968	-16.55
254.185	-20.65
254.401	10.07
254.618	3.93
254.835	22.36
255.051	94.04
255.268	85.84
255.484	44.88
255.701	-8.36
255.917	44.88
256.134	57.17
256.351	48.98
256.567	-67.75
256.784	44.88
257	18.26
257.217	44.88
257.433	77.65
257.65	44.88
257.866	77.65
258.082	3.93
258.299	-26.79
258.515	57.17
258.732	-18.6
258.948	12.12
259.165	-6.31
259.381	-28.84
259.597	106.32
259.814	108.37
260.03	22.36
260.246	-14.51
260.463	-30.89
260.679	-4.27
260.895	24.4
261.112	24.4
261.328	-37.03
261.544	40.79
261.761	-26.79
261.977	-55.47
262.193	-37.03
262.409	63.32
262.626	-34.99
262.842	51.03
263.058	28.5
263.274	57.17
263.49	71.51
263.707	89.94
263.923	16.21
264.139	-16.55
264.355	22.36
264.571	91.99
264.787	5.97
265.004	28.5
265.22	14.17
265.436	51.03
265.652	110.42
265.868	-18.6
266.084	32.6
266.3	40.79
266.516	8.02
266.732	71.51
266.948	8.02
267.164	12.12
267.38	-49.32
267.596	18.26
267.812	42.84
268.028	1.88
268.244	20.31
268.46	67.41
268.676	-34.99
268.892	40.79
269.108	8.02
269.324	16.21
269.54	-84.14
269.756	26.45
269.972	67.41
270.188	1.88
270.403	-43.18
270.619	28.5
270.835	16.21
271.051	14.17
271.267	57.17
271.483	-4.27
271.698	-20.65
271.914	-2.22
272.13	1.88
272.346	42.84
272.562	71.51
272.777	40.79
272.993	42.84
273.209	46.93
273.425	36.69
273.64	44.88
273.856	24.4
274.072	-55.47
274.287	30.55
274.503	69.46
274.719	42.84
274.934	85.84
275.15	-8.36
275.366	42.84
275.581	3.93
275.797	22.36
276.012	12.12
276.228	-0.17
276.444	16.21
276.659	79.7
276.875	36.69
277.09	53.08
277.306	71.51
277.521	38.74
277.737	65.36
277.952	61.27
278.168	36.69
278.383	69.46
278.599	1.88
278.814	-37.03
279.03	10.07
279.245	28.5
279.461	32.6
279.676	16.21
279.892	14.17
280.107	-14.51
280.322	1.88
280.538	24.4
280.753	36.69
280.969	55.12
281.184	14.17
281.399	20.31
281.615	24.4
281.83	-0.17
282.045	-67.75
282.26	32.6
282.476	87.89
282.691	32.6
282.906	53.08
283.122	5.97
283.337	-0.17
283.552	89.94
283.767	26.45
283.983	118.61
284.198	26.45
284.413	118.61
284.628	-22.7
284.843	-39.08
285.058	5.97
285.274	63.32
285.489	-22.7
285.704	53.08
285.919	-14.51
286.134	10.07
286.349	-6.31
286.564	20.31
286.779	34.64
286.995	42.84
287.21	-6.31
287.425	42.84
287.64	-47.27
287.855	-2.22
288.07	20.31
288.285	18.26
288.5	51.03
288.715	91.99
288.93	-55.47
289.145	55.12
289.36	8.02
289.575	59.22
289.79	98.13
290.004	48.98
290.219	67.41
290.434	32.6
290.649	-34.99
290.864	5.97
291.079	1.88
291.294	-8.36
291.509	28.5
291.724	-32.94
291.938	18.26
292.153	-69.8
292.368	42.84
292.583	34.64
292.798	67.41
293.012	-12.46
293.227	36.69
293.442	38.74
293.657	48.98
293.871	16.21
294.086	77.65
294.301	53.08
294.516	77.65
294.73	3.93
294.945	42.84
295.16	75.6
295.374	38.74
295.589	65.36
295.804	14.17
296.018	77.65
296.233	-2.22
296.447	40.79
296.662	-4.27
296.877	69.46
297.091	51.03
297.306	14.17
297.52	-28.84
297.735	20.31
297.949	26.45
298.164	59.22
298.378	67.41
298.593	24.4
298.807	83.8
299.022	22.36
299.236	48.98
299.451	18.26
299.665	20.31
299.88	-10.41
300.094	106.32
300.309	67.41
300.523	16.21
300.737	73.56
300.952	77.65
301.166	46.93
301.381	59.22
301.595	32.6
301.809	10.07
302.024	3.93
302.238	48.98
302.452	79.7
302.667	44.88
302.881	-24.75
303.095	46.93
303.309	42.84
303.524	59.22
303.738	-2.22
303.952	32.6
304.166	22.36
304.381	3.93
304.595	14.17
304.809	96.08
305.023	40.79
305.237	36.69
305.452	94.04
305.666	135
305.88	-6.31
306.094	14.17
306.308	42.84
306.522	81.75
306.736	44.88
306.95	10.07
307.164	-20.65
307.379	34.64
307.593	24.4
307.807	38.74
308.021	112.47
308.235	46.93
308.449	71.51
308.663	-30.89
308.877	53.08
309.091	89.94
309.305	69.46
309.519	-8.36
309.733	-45.23
309.947	-20.65
310.161	69.46
310.374	55.12
310.588	5.97
310.802	-28.84
311.016	-2.22
311.23	65.36
311.444	12.12
311.658	12.12
311.872	44.88
312.085	67.41
312.299	114.52
312.513	53.08
312.727	26.45
312.941	85.84
313.154	-4.27
313.368	-16.55
313.582	24.4
313.796	-26.79
314.009	44.88
314.223	87.89
314.437	-14.51
314.651	36.69
314.864	-4.27
315.078	3.93
315.292	38.74
315.505	-22.7
315.719	16.21
315.933	53.08
316.146	10.07
316.36	-110.76
316.573	55.12
316.787	79.7
317.001	20.31
317.214	16.21
317.428	40.79
317.641	30.55
317.855	71.51
318.068	96.08
318.282	48.98
318.495	14.17
318.709	63.32
318.922	18.26
319.136	10.07
319.349	22.36
319.563	-10.41
319.776	46.93
319.99	10.07
320.203	22.36
320.417	36.69
320.63	38.74
320.843	32.6
321.057	51.03
321.27	26.45
321.483	22.36
321.697	104.28
321.91	5.97
322.124	24.4
322.337	59.22
322.55	65.36
322.763	59.22
322.977	22.36
323.19	-14.51
323.403	96.08
323.617	44.88
323.83	48.98
324.043	-12.46
324.256	110.42
324.469	-10.41
324.683	48.98
324.896	120.66
325.109	102.23
325.322	-22.7
325.535	14.17
325.748	22.36
325.962	10.07
326.175	67.41
326.388	96.08
326.601	112.47
326.814	85.84
327.027	22.36
327.24	135
327.453	10.07
327.666	-37.03
327.879	46.93
328.092	34.64
328.305	48.98
328.518	1.88
328.731	24.4
328.944	-6.31
329.157	42.84
329.37	-8.36
329.583	75.6
329.796	8.02
330.009	22.36
330.222	10.07
330.435	-4.27
330.648	42.84
330.861	12.12
331.073	75.6
331.286	55.12
331.499	12.12
331.712	10.07
331.925	20.31
332.138	73.56
332.35	106.32
332.563	87.89
332.776	38.74
332.989	61.27
333.202	24.4
333.414	22.36
333.627	38.74
333.84	-8.36
334.053	-18.6
334.265	73.56
334.478	-30.89
334.691	42.84
334.903	20.31
335.116	14.17
335.329	14.17
335.541	38.74
335.754	-2.22
335.966	-6.31
336.179	98.13
336.392	-10.41
336.604	-37.03
336.817	65.36
337.029	36.69
337.242	91.99
337.454	75.6
337.667	5.97
337.88	1.88
338.092	-8.36
338.305	81.75
338.517	14.17
338.729	40.79
338.942	26.45
339.154	-8.36
339.367	75.6
339.579	36.69
339.792	44.88
340.004	48.98
340.217	18.26
340.429	18.26
340.641	61.27
340.854	139.09
341.066	65.36
341.278	46.93
341.491	14.17
341.703	1.88
341.915	63.32
342.128	38.74
342.34	12.12
342.552	91.99
342.764	1.88
342.977	22.36
343.189	-0.17
343.401	-86.19
343.613	-20.65
343.826	51.03
344.038	10.07
344.25	40.79
344.462	40.79
344.674	71.51
344.886	30.55
345.099	85.84
345.311	36.69
345.523	38.74
345.735	-18.6
345.947	53.08
346.159	83.8
346.371	24.4
346.583	40.79
346.795	75.6
347.007	63.32
347.219	130.9
347.431	46.93
347.643	79.7
347.855	57.17
348.067	-8.36
348.279	14.17
348.491	55.12
348.703	51.03
348.915	106.32
349.127	-10.41
349.339	22.36
349.551	20.31
349.763	51.03
349.975	-59.56
350.187	18.26
350.399	34.64
350.61	81.75
350.822	8.02
351.034	81.75
351.246	63.32
351.458	106.32
351.669	71.51
351.881	46.93
352.093	42.84
352.305	120.66
352.517	51.03
352.728	32.6
352.94	59.22
353.152	75.6
353.363	38.74
353.575	55.12
353.787	106.32
353.999	12.12
354.21	22.36
354.422	10.07
354.633	75.6
354.845	-12.46
355.057	48.98
355.268	61.27
355.48	30.55
355.692	-34.99
355.903	28.5
356.115	22.36
356.326	57.17
356.538	96.08
356.749	71.51
356.961	81.75
357.172	40.79
357.384	32.6
357.595	83.8
357.807	57.17
358.018	57.17
358.23	81.75
358.441	102.23
358.653	12.12
358.864	32.6
359.075	18.26
359.287	26.45
359.498	42.84
359.709	34.64
359.921	96.08
360.132	42.84
360.344	67.41
360.555	38.74
360.766	67.41
360.977	83.8
361.189	-6.31
361.4	34.64
361.611	61.27
361.823	89.94
362.034	46.93
362.245	-57.51
362.456	30.55
362.667	130.9
362.879	71.51
363.09	-47.27
363.301	46.93
363.512	55.12
363.723	30.55
363.935	5.97
364.146	75.6
364.357	26.45
364.568	108.37
364.779	42.84
364.99	3.93
365.201	28.5
365.412	118.61
365.623	-2.22
365.834	79.7
366.045	10.07
366.256	81.75
366.467	40.79
366.678	18.26
366.889	32.6
367.1	-34.99
367.311	85.84
367.522	16.21
367.733	40.79
367.944	1.88
368.155	87.89
368.366	42.84
368.577	128.85
368.788	38.74
368.999	-22.7
369.209	38.74
369.42	40.79
369.631	30.55
369.842	65.36
370.053	30.55
370.264	-14.51
370.474	53.08
370.685	-12.46
370.896	81.75
371.107	3.93
371.317	67.41
371.528	20.31
371.739	28.5
371.95	22.36
372.16	61.27
372.371	42.84
372.582	96.08
372.792	32.6
373.003	61.27
373.214	81.75
373.424	98.13
373.635	63.32
373.846	8.02
374.056	28.5
374.267	94.04
374.477	34.64
374.688	100.18
374.898	53.08
375.109	118.61
375.319	44.88
375.53	59.22
375.74	55.12
375.951	51.03
376.161	24.4
376.372	69.46
376.582	-14.51
376.793	30.55
377.003	40.79
377.214	53.08
377.424	59.22
377.635	63.32
377.845	5.97
378.055	57.17
378.266	81.75
378.476	-18.6
378.686	87.89
378.897	38.74
379.107	59.22
379.317	32.6
379.528	83.8
379.738	61.27
379.948	-26.79
380.158	77.65
380.369	14.17
380.579	20.31
380.789	-4.27
380.999	96.08
381.21	-26.79
381.42	83.8
381.63	26.45
381.84	61.27
382.05	63.32
382.261	108.37
382.471	44.88
382.681	59.22
382.891	48.98
383.101	75.6
383.311	12.12
383.521	75.6
383.731	120.66
383.941	38.74
384.151	108.37
384.361	-2.22
384.571	61.27
384.781	59.22
384.991	89.94
385.201	67.41
385.411	24.4
385.621	83.8
385.831	77.65
386.041	116.56
386.251	-20.65
386.461	98.13
386.671	71.51
386.881	71.51
387.091	20.31
387.301	104.28
387.511	53.08
387.72	83.8
387.93	30.55
388.14	5.97
388.35	61.27
388.56	89.94
388.769	130.9
388.979	5.97
389.189	28.5
389.399	3.93
389.609	96.08
389.818	59.22
390.028	-0.17
390.238	-18.6
390.447	18.26
390.657	91.99
390.867	12.12
391.076	-61.61
391.286	44.88
391.496	24.4
391.705	114.52
391.915	34.64
392.125	79.7
392.334	46.93
392.544	89.94
392.753	98.13
392.963	-4.27
393.172	53.08
393.382	22.36
393.591	91.99
393.801	28.5
394.01	42.84
394.22	79.7
394.429	100.18
394.639	44.88
394.848	102.23
395.058	79.7
395.267	145.24
395.477	132.95
395.686	53.08
395.895	104.28
396.105	102.23
396.314	65.36
396.524	81.75
396.733	48.98
396.942	55.12
397.152	104.28
397.361	79.7
397.57	89.94
397.78	89.94
397.989	77.65
398.198	126.8
398.407	24.4
398.617	59.22
398.826	145.24
399.035	100.18
399.244	75.6
399.453	96.08
399.663	108.37
399.872	81.75
400.081	73.56
400.29	83.8
400.499	26.45
400.708	159.57
400.917	106.32
401.127	57.17
401.336	120.66
401.545	106.32
401.754	85.84
401.963	61.27
402.172	118.61
402.381	102.23
402.59	53.08
402.799	30.55
403.008	182.1
403.217	145.24
403.426	122.71
403.635	30.55
403.844	98.13
404.053	180.05
404.262	85.84
404.471	112.47
404.68	161.62
404.888	108.37
405.097	145.24
405.306	163.67
405.515	175.95
405.724	91.99
405.933	102.23
406.142	126.8
406.35	124.76
406.559	155.47
406.768	178
406.977	171.86
407.185	218.96
407.394	128.85
407.603	155.47
407.812	184.15
408.02	196.43
408.229	206.67
408.438	169.81
408.646	180.05
408.855	186.19
409.064	237.39
409.272	210.77
409.481	233.3
409.69	200.53
409.898	272.21
410.107	223.06
410.315	223.06
410.524	249.68
410.733	298.83
410.941	288.59
411.15	274.26
411.358	325.46
411.567	307.02
411.775	247.63
411.984	251.73
412.192	366.42
412.401	253.78
412.609	489.29
412.818	429.9
413.026	446.29
413.234	366.42
413.443	407.38
413.651	403.28
413.86	399.18
414.068	577.36
414.276	468.81
414.485	499.53
414.693	560.97
414.901	513.87
415.11	560.97
415.318	517.97
415.526	649.04
415.734	556.88
415.943	571.21
416.151	681.8
416.359	649.04
416.567	597.84
416.776	700.23
416.984	780.11
417.192	730.95
417.4	786.25
417.608	862.02
417.817	816.97
418.025	866.12
418.233	1007.43
418.441	991.05
418.649	958.28
418.857	1058.63
419.065	1107.78
419.273	1070.92
419.481	1066.82
419.689	1128.26
419.897	1195.84
420.105	1275.71
420.313	1259.33
420.521	1322.82
420.729	1410.88
420.937	1410.88
421.145	1505.09
421.353	1410.88
421.561	1597.24
421.769	1517.37
421.977	1646.4
422.185	1570.62
422.393	1779.51
422.601	1867.58
422.809	1916.73
423.017	1832.76
423.224	1924.92
423.432	2029.37
423.64	2029.37
423.848	2283.31
424.056	2271.03
424.263	2367.28
424.471	2213.68
424.679	2344.75
424.887	2557.74
425.094	2631.47
425.302	2660.14
425.51	2641.71
425.718	2643.76
425.925	2713.39
426.133	2864.94
426.341	3032.87
426.548	3209
426.756	3229.48
426.964	3225.38
427.171	3325.73
427.379	3487.52
427.586	3594.01
427.794	3698.46
428.001	3837.72
428.209	4042.52
428.417	3804.96
428.624	4280.08
428.832	4292.37
429.039	4022.04
429.247	4173.59
429.454	4667.15
429.662	4765.45
429.869	4687.63
430.076	4888.33
430.284	4736.78
430.491	4921.1
430.699	5234.44
430.906	5056.26
431.114	5277.44
431.321	5461.76
431.528	5637.89
431.736	5881.6
431.943	6143.74
432.15	5957.37
432.358	6264.57
432.565	6448.88
432.772	6416.12
432.979	6749.93
433.187	6829.81
433.394	6921.96
433.601	7352.04
433.808	7337.7
434.016	7544.55
434.223	7593.7
434.43	8070.87
434.637	7954.14
434.844	8367.83
435.052	8496.85
435.259	8531.67
435.466	8689.36
435.673	8546
435.88	9058
436.087	9737.92
436.294	9686.72
436.501	9338.57
436.708	9488.07
436.915	9684.67
437.122	10407.61
437.329	10225.34
437.537	10606.26
437.743	10991.28
437.95	10548.92
438.157	11105.96
438.364	11529.89
438.571	11572.9
438.778	11703.97
438.985	12777.11
439.192	12361.37
439.399	12662.42
439.606	12371.61
439.813	12990.1
440.02	13895.3
440.227	13432.46
440.433	13303.43
440.64	13915.78
440.847	13840
441.054	13975.17
441.261	15119.98
441.467	14880.37
441.674	15220.33
441.881	15529.58
442.088	15644.26
442.294	15406.7
442.501	15869.54
442.708	16399.96
442.914	16938.58
443.121	17477.19
443.328	17262.16
443.534	18368.06
443.741	17815.11
443.948	17643.08
444.154	18652.73
444.361	18695.74
444.568	19093.04
444.774	18904.63
444.981	19287.6
445.187	19555.88
445.394	20534.81
445.6	20127.27
445.807	22040.07
446.013	21124.63
446.22	21491.21
446.426	22447.61
446.633	22414.85
446.839	23143.92
447.046	22119.94
447.252	23578.09
447.459	23735.79
447.665	23111.16
447.871	24313.31
448.078	25429.46
448.284	24092.13
448.491	25060.82
448.697	25896.39
448.903	26451.39
449.11	26492.35
449.316	25996.74
449.522	26408.39
449.728	27123.13
449.935	27270.58
450.141	27469.23
450.347	27626.93
450.553	26488.26
450.76	27366.84
450.966	27944.36
451.172	27901.36
451.378	28489.12
451.584	27868.59
451.791	28233.13
451.997	28462.5
452.203	28976.54
452.409	28757.41
452.615	28788.13
452.821	27360.69
453.027	27286.96
453.233	28571.04
453.44	27565.49
453.646	28081.58
453.852	27696.56
454.058	28327.33
454.264	27348.4
454.47	28112.3
454.676	27372.98
454.882	28321.19
455.088	25681.36
455.294	26275.27
455.5	26549.7
455.705	26615.23
455.911	25736.65
456.117	25239
456.323	24763.87
456.529	23449.07
456.735	24507.87
456.941	23944.68
457.147	23539.18
457.352	22453.76
457.558	22439.42
457.764	22509.05
457.97	21923.33
458.176	21366.29
458.381	21579.28
458.587	20405.79
458.793	20450.85
458.999	19183.15
459.204	20573.72
459.41	20303.39
459.616	18724.41
459.821	18957.88
460.027	19025.46
460.233	18486.84
460.438	17679.94
460.644	17759.81
460.85	16678.49
461.055	16551.51
461.261	16606.81
461.466	15087.22
461.672	14978.67
461.878	16103.01
462.083	14890.61
462.289	14612.09
462.494	14345.85
462.7	13903.49
462.905	13622.92
463.111	13946.5
463.316	13907.59
463.522	13700.74
463.727	13692.55
463.932	13817.47
464.138	13432.46
464.343	13608.58
464.549	13192.84
464.754	13774.47
464.959	13319.82
465.165	13545.09
465.37	12904.08
465.575	12443.29
465.781	13010.57
465.986	13287.05
466.191	12570.26
466.397	12465.82
466.602	11818.66
466.807	12304.03
467.012	12258.97
467.218	12193.44
467.423	11984.54
467.628	12365.46
467.833	12414.62
468.038	12267.16
468.244	11878.05
468.449	12254.87
468.654	11878.05
468.859	11826.85
469.064	11523.75
469.269	11347.62
469.474	11378.34
469.679	11480.74
469.885	11234.99
470.09	11323.05
470.295	11103.92
470.5	11138.73
470.705	11175.59
470.91	10639.03
471.115	10806.96
471.32	10935.98
471.525	10860.21
471.73	10716.85
471.935	10514.1
472.139	10010.3
472.344	10141.37
472.549	10254.01
472.754	10038.97
472.959	9793.22
473.164	9758.4
473.369	9551.56
473.574	9981.63
473.778	9746.11
473.983	9541.32
474.188	9387.72
474.393	9305.8
474.598	9193.16
474.802	9154.25
475.007	9115.34
475.212	9170.63
475.417	8822.48
475.621	8859.34
475.826	8845.01
476.031	8523.48
476.235	8486.61
476.44	8568.53
476.645	8445.65
476.849	8349.4
477.054	8359.64
477.259	8261.34
477.463	8423.12
477.668	7997.15
477.872	7997.15
478.077	7935.71
478.282	7810.78
478.486	7702.24
478.691	7802.59
478.895	7728.86
479.1	7765.73
479.304	7755.49
479.509	7456.48
479.713	7634.66
479.918	7319.27
480.122	7352.04
480.326	7374.56
480.531	7501.54
480.735	7280.36
480.94	7317.22
481.144	7315.17
481.348	7024.36
481.553	7028.46
481.757	6975.21
481.961	7165.67
482.166	7315.17
482.37	7278.31
482.574	7098.09
482.778	7182.06
482.983	7268.07
483.187	7132.9
483.391	7214.82
483.595	7106.28
483.8	7016.17
484.004	6842.09
484.208	7288.55
484.412	7005.93
484.616	7145.19
484.821	7147.24
485.025	6946.54
485.229	7126.76
485.433	7030.51
485.637	7034.6
485.841	7030.51
486.045	6846.19
486.249	6987.5
486.453	6899.44
486.657	7046.89
486.861	7147.24
487.065	7020.27
487.269	7110.38
487.473	6991.59
487.677	7216.87
487.881	7157.48
488.085	7100.14
488.289	6999.79
488.493	6960.88
488.697	7059.18
488.901	7130.86
489.105	7032.55
489.309	7247.59
489.512	7210.73
489.716	6997.74
489.92	7141.1
490.124	6969.07
490.328	7284.45
490.531	7112.42
490.735	7370.47
490.939	7214.82
491.143	7349.99
491.346	7167.72
491.55	7321.32
491.754	7448.29
491.958	7493.35
492.161	7366.37
492.365	7505.63
492.569	7286.5
492.772	7460.58
492.976	7630.56
493.18	7495.39
493.383	7632.61
493.587	7810.78
493.79	7685.86
493.994	7571.17
494.197	7749.34
494.401	7851.74
494.605	7886.56
494.808	7923.42
495.012	7917.28
495.215	7919.32
495.419	8187.61
495.622	7976.67
495.825	8079.07
496.029	8232.66
496.232	8566.48
496.436	8416.98
496.639	8449.75
496.843	8408.79
497.046	8601.3
497.249	8842.96
497.453	8865.49
497.656	8953.55
497.859	8691.41
498.063	8953.55
498.266	9113.29
498.469	9033.42
498.673	9385.67
498.876	9383.62
499.079	9461.44
499.282	9420.49
499.485	9672.39
499.689	9641.67
499.892	9680.58
500.095	9832.13
500.298	10231.48
500.501	10063.55
500.705	10331.83
500.908	10221.24
501.111	10497.72
501.314	10757.81
501.517	10651.31
501.72	10823.34
501.923	10907.31
502.126	11105.96
502.329	11398.82
502.532	11337.38
502.735	11411.11
502.938	11292.33
503.141	11523.75
503.344	11730.59
503.547	11812.51
503.75	11855.52
503.953	12150.43
504.156	12404.38
504.359	12404.38
504.562	12238.49
504.765	12705.43
504.968	12834.45
505.17	12824.21
505.373	13192.84
505.576	13270.67
505.779	13352.59
505.982	13637.25
506.185	13876.87
506.387	13584.01
506.59	13778.56
506.793	14212.73
506.996	13950.59
507.198	14575.22
507.401	14302.84
507.604	14423.67
507.807	14704.24
508.009	14964.34
508.212	14970.48
508.415	14956.15
508.617	15429.23
508.82	15545.96
509.022	15408.75
509.225	15885.92
509.428	16031.33
509.63	16109.15
509.833	16078.43
510.035	16307.8
510.238	16369.24
510.44	16682.58
510.643	16782.93
510.845	17000.02
511.048	16901.72
511.25	17323.6
511.453	17481.29
511.655	18089.54
511.858	17946.18
512.06	17991.23
512.262	18103.87
512.465	18218.56
512.667	18474.56
512.87	18462.27
513.072	18921.01
513.274	19244.59
513.477	19346.99
513.679	19545.64
513.881	19709.48
514.084	19748.39
514.286	19867.17
514.488	19713.58
514.69	20426.27
514.893	20604.44
515.095	20643.35
515.297	20936.21
515.499	20923.93
515.701	21257.74
515.904	21650.95
516.106	21360.14
516.308	21861.9
516.51	22130.18
516.712	21956.1
516.914	22167.04
517.116	22902.26
517.318	22703.61
517.52	22670.84
517.722	23291.38
517.925	23227.89
518.127	23571.95
518.329	23483.89
518.531	23811.56
518.733	24202.72
518.935	24452.58
519.136	24415.71
519.338	24649.18
519.54	25224.66
519.742	25118.17
519.944	25275.86
520.146	25550.29
520.348	25787.85
520.55	26021.32
520.752	25843.15
520.954	26559.94
521.155	26322.37
521.357	26637.76
521.559	26965.43
521.761	27700.65
521.963	27114.94
522.164	27377.08
522.366	27389.36
522.568	27696.56
522.77	28054.95
522.971	28552.61
523.173	28124.58
523.375	28382.63
523.576	28261.8
523.778	28822.94
523.98	28753.31
524.181	29164.95
524.383	29162.9
524.584	29474.2
524.786	29498.77
524.988	29674.9
525.189	30078.35
525.391	30272.9
525.592	30152.07
525.794	30268.81
525.995	30160.27
526.197	30487.94
526.398	30565.76
526.6	31034.75
526.801	30705.02
527.003	30944.64
527.204	31245.69
527.406	31229.3
527.607	31464.82
527.808	31556.98
528.01	31163.77
528.211	31575.41
528.412	32032.11
528.614	31667.57
528.815	31784.3
529.016	32654.69
529.218	32007.53
529.419	32439.65
529.62	32386.41
529.822	32091.5
530.023	31931.76
530.224	32468.33
530.425	32570.72
530.626	32277.86
530.828	32406.89
531.029	33107.29
531.23	32372.07
531.431	32716.13
531.632	32658.79
531.833	32736.61
532.035	32763.23
532.236	32777.57
532.437	32968.03
532.638	32830.82
532.839	33082.72
533.04	33244.51
533.241	32791.9
533.442	33635.67
533.643	33103.2
533.844	33162.59
534.045	33359.19
534.246	32898.4
534.447	33039.71
534.648	33207.64
534.849	33381.72
535.05	33152.35
535.251	33176.92
535.451	32822.62
535.652	33549.65
535.853	33301.85
536.054	33316.18
536.255	33828.18
536.456	33095
536.657	33375.58
536.857	33391.96
537.058	33299.8
537.259	33850.7
537.46	33600.85
537.66	33375.58
537.861	33264.99
538.062	33056.09
538.263	33566.04
538.463	33111.39
538.664	33084.76
538.865	33650
539.065	33729.87
539.266	33004.89
539.466	33555.8
539.667	32994.65
539.868	33537.37
540.068	33293.66
540.269	33164.64
540.469	32949.6
540.67	33238.36
540.87	33256.79
541.071	33439.06
541.271	33346.9
541.472	33078.62
541.672	33199.45
541.873	33187.16
542.073	32511.33
542.274	33541.46
542.474	33176.92
542.675	32990.56
542.875	33525.08
543.075	33168.73
543.276	32619.88
543.476	33332.57
543.676	33105.24
543.877	33125.72
544.077	32996.7
544.277	33129.82
544.478	33176.92
544.678	33559.89
544.878	32726.37
545.078	33017.18
545.279	32949.6
545.479	32896.35
545.679	32984.41
545.879	33316.18
546.079	33213.79
546.28	32804.19
546.48	32701.79
546.68	32785.76
546.88	32746.85
547.08	32769.38
547.28	33004.89
547.48	32834.91
547.68	32939.36
547.88	32566.63
548.081	32865.63
548.281	32894.3
548.481	32791.9
548.681	33307.99
548.881	32777.57
549.081	32779.62
549.28	32494.95
549.48	33156.44
549.68	32804.19
549.88	33201.5
550.08	32632.16
550.28	32832.86
550.48	32478.57
550.68	33262.94
550.88	32304.49
551.08	32683.36
551.279	32720.23
551.479	32587.11
551.679	32660.83
551.879	32855.39
552.079	33142.11
552.278	32791.9
552.478	32478.57
552.678	32691.55
552.878	32499.05
553.077	32726.37
553.277	32365.93
553.477	32748.9
553.676	32365.93
553.876	32480.61
554.076	32361.83
554.275	32146.79
554.475	32175.47
554.674	32570.72
554.874	32269.67
555.074	32058.73
555.273	32439.65
555.473	32402.79
555.672	31825.26
555.872	32042.35
556.071	32247.15
556.271	32509.29
556.47	32122.22
556.67	32427.37
556.869	32116.08
557.068	32327.02
557.268	31599.99
557.467	32126.32
557.667	31833.46
557.866	32050.54
558.065	31632.75
558.265	31622.51
558.464	31573.36
558.663	31917.42
558.863	31272.31
559.062	31653.23
559.261	31427.96
559.461	31985.01
559.66	31081.85
559.859	31083.9
560.058	31585.65
560.258	31300.98
560.457	30920.06
560.656	31378.81
560.855	30797.18
561.054	31272.31
561.253	30995.84
561.453	31182.2
561.652	30899.58
561.851	31069.56
562.05	30838.14
562.249	30832
562.448	30817.66
562.647	30512.52
562.846	30645.63
563.045	30832
563.244	30256.52
563.443	30713.22
563.642	30010.76
563.841	30330.25
564.04	30305.67
564.239	30551.43
564.438	30115.21
564.637	30211.46
564.836	30047.63
565.035	29433.24
565.234	29928.84
565.432	29582.74
565.631	29722
565.83	29904.27
566.029	29767.06
566.228	29179.29
566.427	29633.94
566.625	29244.82
566.824	29070.75
567.023	29625.75
567.222	28550.56
567.42	29175.19
567.619	28999.07
567.818	28855.71
568.016	28921.24
568.215	29185.43
568.414	28880.28
568.612	28724.64
568.811	28552.61
569.01	28712.35
569.208	28243.37
569.407	28476.83
569.605	28376.48
569.804	28337.57
570.002	28231.08
570.201	28532.13
570.4	27751.85
570.598	27975.08
570.797	27786.67
570.995	27952.55
571.193	27385.27
571.392	27858.35
571.59	27383.22
571.789	27669.94
571.987	27606.45
572.186	27624.88
572.384	27231.67
572.582	27502
572.781	27528.63
572.979	26869.18
573.177	26928.57
573.376	27159.99
573.574	26648
573.772	26705.34
573.971	26750.4
574.169	26344.9
574.367	26326.47
574.565	26568.13
574.763	26355.14
574.962	26334.66
575.16	26090.95
575.358	26449.35
575.556	26174.92
575.754	26230.21
575.952	26090.95
576.151	25947.59
576.349	25798.09
576.547	25839.05
576.745	25972.17
576.943	25873.87
577.141	25722.32
577.339	25413.07
577.537	25480.66
577.735	25581.01
577.933	25048.54
578.131	25599.44
578.329	25109.97
578.527	24870.36
578.725	24921.56
578.923	25015.77
579.121	25032.15
579.319	24681.95
579.516	24978.9
579.714	24800.73
579.912	24540.64
580.11	24749.53
580.308	24620.51
580.506	24559.07
580.704	24305.12
580.901	24315.36
581.099	24571.36
581.297	24135.14
581.495	24241.64
581.692	24196.58
581.89	23973.35
582.088	24210.92
582.285	23600.62
582.483	23574
582.681	23858.67
582.878	23617
583.076	23479.79
583.274	23563.76
583.471	23404.02
583.669	23559.66
583.866	23225.84
584.064	23582.19
584.262	23195.12
584.459	23512.56
584.657	22779.39
584.854	23463.41
585.052	22586.88
585.249	23035.38
585.447	23016.95
585.644	22539.77
585.841	22658.56
586.039	22662.65
586.236	22478.33
586.434	22527.49
586.631	22593.02
586.828	22302.21
587.026	22439.42
587.223	22101.51
587.42	22314.5
587.618	22322.69
587.815	22115.84
588.012	21820.94
588.21	21892.62
588.407	22183.43
588.604	21831.18
588.801	22070.79
588.999	21820.94
589.196	21691.91
589.393	21542.41
589.59	21212.69
589.787	21530.12
589.984	21530.12
590.182	21274.13
590.379	21368.34
590.576	21155.35
590.773	21233.17
590.97	20839.96
591.167	21239.31
591.364	20676.12
591.561	21347.86
591.758	20639.26
591.955	20612.63
592.152	20987.41
592.349	20618.78
592.546	20753.94
592.743	20678.17
592.94	20387.36
593.137	20534.81
593.334	20315.68
593.531	20061.73
593.727	20287.01
593.924	20373.02
594.121	19981.86
594.318	20227.62
594.515	19893.8
594.712	20086.31
594.908	20147.75
595.105	19826.21
595.302	19715.62
595.499	19598.89
595.696	19377.71
595.892	19504.68
596.089	19371.57
596.286	19453.48
596.482	19363.37
596.679	19359.28
596.876	19373.61
597.072	19414.57
597.269	19349.04
597.466	19105.33
597.662	18769.46
597.859	19226.16
598.055	18980.4
598.252	18937.4
598.448	18855.48
598.645	18689.59
598.841	18726.46
599.038	18769.46
599.234	18730.55
599.431	18366.01
599.627	18603.58
599.824	18470.46
600.02	18290.24
600.217	18658.87
600.413	18226.75
600.609	18206.27
600.806	18110.02
601.002	18036.29
601.198	17901.12
601.395	17942.08
601.591	18112.06
601.787	17888.84
601.984	17878.6
602.18	17909.32
602.376	17628.74
602.572	17555.02
602.769	17841.73
602.965	17331.79
603.161	17647.18
603.357	17710.66
603.553	17436.24
603.75	17423.95
603.946	17170
604.142	17305.17
604.338	16727.64
604.534	17215.05
604.73	16854.61
604.926	16696.92
605.122	17137.23
605.318	17040.98
605.514	16754.26
605.71	16789.08
605.906	16852.56
606.102	16881.24
606.298	16696.92
606.494	16784.98
606.69	16696.92
606.886	16567.9
607.082	16408.15
607.278	16723.54
607.474	16260.7
607.67	16125.54
607.866	16352.86
608.062	16434.78
608.257	16086.62
608.453	16113.25
608.649	16369.24
608.845	16027.23
609.041	16238.17
609.236	15918.69
609.432	15818.34
609.628	16111.2
609.824	15894.11
610.019	15814.24
610.215	15855.2
610.411	15791.72
610.606	15697.51
610.802	15894.11
610.998	15625.83
611.193	15662.69
611.389	15648.36
611.584	15611.5
611.78	15636.07
611.976	15732.33
612.171	15615.59
612.367	15466.09
612.562	15453.8
612.758	15343.21
612.953	15457.9
613.149	15443.56
613.344	15105.65
613.539	15316.59
613.735	15386.22
613.93	15304.3
614.126	15154.8
614.321	15228.52
614.517	15218.29
614.712	15240.81
614.907	15044.21
615.103	15267.44
615.298	14845.55
615.493	15412.84
615.688	14947.95
615.884	15101.55
616.079	14956.15
616.274	15079.02
616.47	14835.31
616.665	14978.67
616.86	14868.08
617.055	14833.27
617.25	14855.79
617.445	14818.93
617.641	14280.32
617.836	14737.01
618.031	14388.86
618.226	14474.87
618.421	14493.3
618.616	14554.74
618.811	14280.32
619.006	14462.58
619.201	14186.11
619.396	14231.16
619.591	14108.29
619.786	14190.2
619.981	14026.37
620.176	14108.29
620.371	13706.88
620.566	14040.7
620.761	13848.19
620.956	13907.59
621.151	13702.79
621.346	13702.79
621.541	13446.79
621.735	13665.92
621.93	13336.2
622.125	13588.1
622.32	13180.56
622.515	13596.29
622.709	13010.57
622.904	13311.63
623.099	13282.95
623.294	13100.69
623.488	12854.93
623.683	12977.81
623.878	12885.65
624.072	12824.21
624.267	12689.04
624.462	12588.69
624.656	12609.17
624.851	12678.8
625.046	12484.25
625.24	12412.57
625.435	12258.97
625.629	12134.04
625.824	12140.19
626.018	12205.72
626.213	11980.45
626.407	12107.42
626.602	11832.99
626.796	12000.93
626.991	11783.84
627.185	11742.88
627.38	11761.31
627.574	11593.38
627.768	11429.54
627.963	11624.1
628.157	11337.38
628.352	11364.01
628.546	11169.45
628.74	11226.79
628.935	11077.29
629.129	11282.09
629.323	10948.27
629.517	10991.28
629.712	11142.83
629.906	10927.79
630.1	10559.16
630.294	10655.41
630.489	10829.49
630.683	10925.74
630.877	10571.44
631.071	10415.8
631.265	10364.6
631.459	10411.7
631.653	10346.17
631.848	10450.61
632.042	10190.52
632.236	10235.58
632.43	9991.87
632.624	10176.19
632.818	9991.87
633.012	10061.5
633.206	9785.02
633.4	9920.19
633.594	9717.44
633.788	9825.98
633.982	9922.24
634.176	9959.1
634.369	9768.64
634.563	9754.3
634.757	9547.46
634.951	9483.97
635.145	9508.55
635.339	9520.84
635.533	9305.8
635.726	9307.85
635.92	9193.16
636.114	9240.26
636.308	9338.57
636.501	9254.6
636.695	9258.7
636.889	8994.51
637.083	8867.53
637.276	8955.6
637.47	8812.24
637.664	8812.24
637.857	8928.97
638.051	8824.53
638.244	8695.5
638.438	8535.76
638.632	8746.7
638.825	8541.91
639.019	8423.12
639.212	8339.16
639.406	8500.95
639.599	8476.37
639.793	8337.11
639.986	8373.97
640.18	8335.06
640.373	8169.18
640.567	8230.62
640.76	8373.97
640.954	8279.77
641.147	8007.39
641.34	7808.73
641.534	7855.84
641.727	7935.71
641.92	7892.7
642.114	7880.41
642.307	7958.24
642.5	7708.38
642.694	7399.14
642.887	7667.42
643.08	7636.7
643.273	7565.03
643.467	7474.92
643.66	7399.14
643.853	7562.98
644.046	7341.8
644.239	7413.48
644.432	7288.55
644.626	7284.45
644.819	7227.11
645.012	7229.16
645.205	7141.1
645.398	7108.33
645.591	7032.55
645.784	7104.23
645.977	7077.61
646.17	6962.92
646.363	7030.51
646.556	6887.15
646.749	6891.24
646.942	6876.91
647.135	6960.88
647.328	6774.51
647.521	6655.73
647.714	6575.86
647.907	6629.1
648.099	6629.1
648.292	6551.28
648.485	6649.58
648.678	6532.85
648.871	6446.83
649.064	6403.83
649.256	6326
649.449	6293.24
649.642	6383.35
649.835	6231.8
650.027	6213.37
650.22	6256.37
650.413	6035.19
650.605	6162.17
650.798	6207.22
650.991	6018.81
651.183	6139.64
651.376	6096.63
651.568	5883.64
651.761	5902.08
651.954	5947.13
652.146	5957.37
652.339	5715.71
652.531	5930.75
652.724	5814.01
652.916	5613.31
653.109	5838.59
653.301	5635.84
653.494	5691.13
653.686	5506.82
653.879	5670.65
654.071	5648.13
654.263	5613.31
654.456	5533.44
654.648	5545.73
654.84	5408.51
655.033	5574.4
655.225	5338.88
655.417	5232.39
655.61	5445.38
655.802	5318.4
655.994	5238.53
656.186	5332.74
656.379	5189.38
656.571	5177.09
656.763	5291.78
656.955	5287.68
657.148	5216.01
657.34	5246.73
657.532	5037.83
657.724	5035.78
657.916	5138.18
658.108	5187.33
658.3	5064.46
658.492	4974.35
658.684	4855.56
658.876	4947.72
659.068	4974.35
659.26	4880.14
659.452	4845.32
659.644	4767.5
659.836	4734.73
660.028	4931.34
660.22	4732.69
660.412	4822.8
660.604	4695.82
660.796	4527.89
660.988	4671.25
661.18	4661.01
661.372	4732.69
661.563	4656.91
661.755	4601.62
661.947	4656.91
662.139	4411.15
662.331	4437.78
662.522	4441.87
662.714	4452.11
662.906	4339.48
663.097	4345.62
663.289	4372.24
663.481	4255.51
663.673	4265.75
663.864	4218.64
664.056	4282.13
664.247	4280.08
664.439	4230.93
664.631	4224.79
664.822	4206.36
665.014	4319
665.205	4304.66
665.397	4114.2
665.588	4085.53
665.78	4183.83
665.971	4181.78
666.163	4159.25
666.354	4034.33
666.546	4044.57
666.737	4022.04
666.929	3983.13
667.12	3974.94
667.311	3991.32
667.503	3907.35
667.694	3958.55
667.885	3899.16
668.077	3938.07
668.268	3880.73
668.459	3811.1
668.651	3782.43
668.842	3864.35
669.033	3829.53
669.224	3837.72
669.416	3747.61
669.607	3792.67
669.798	3835.67
669.989	3729.18
670.18	3823.39
670.371	3792.67
670.563	3647.26
670.754	3733.28
670.945	3671.84
671.136	3659.55
671.327	3639.07
671.518	3632.93
671.709	3598.11
671.9	3725.08
672.091	3540.77
672.282	3448.61
672.473	3606.3
672.664	3467.04
672.855	3563.29
673.046	3376.93
673.237	3600.16
673.428	3407.65
673.619	3548.96
673.809	3503.9
674	3489.57
674.191	3442.46
674.382	3323.68
674.573	3311.39
674.764	3368.74
674.954	3303.2
675.145	3313.44
675.336	3327.78
675.527	3381.03
675.717	3364.64
675.908	3266.34
676.099	3307.3
676.289	3325.73
676.48	3268.39
676.671	3231.52
676.861	3231.52
677.052	3219.24
677.243	3290.92
677.433	3143.46
677.624	3192.61
677.814	3225.38
678.005	3168.04
678.195	3192.61
678.386	3215.14
678.576	3209
678.767	3127.08
678.957	3252
679.148	3272.48
679.338	3090.21
679.529	3182.37
679.719	3094.31
679.909	3184.42
680.1	3184.42
680.29	3020.58
680.481	3110.69
680.671	3192.61
680.861	2873.13
681.052	3043.11
681.242	3065.64
681.432	3196.71
681.622	2987.82
681.813	2989.86
682.003	3114.79
682.193	2918.18
682.383	3077.93
682.573	2977.58
682.764	3006.25
682.954	3026.73
683.144	3125.03
683.334	3079.97
683.524	3051.3
683.714	3057.45
683.904	2967.34
684.094	3061.54
684.284	2844.46
684.474	3018.54
684.664	2973.48
684.854	2895.66
685.044	2967.34
685.234	2928.42
685.424	2934.57
685.614	3022.63
685.804	3018.54
685.994	2901.8
686.184	2914.09
686.374	2848.55
686.564	2811.69
686.753	2981.67
686.943	2830.12
687.133	2768.68
687.323	2840.36
687.513	2907.94
687.702	2897.71
687.892	2799.4
688.082	2793.26
688.272	2926.38
688.461	2643.76
688.651	2805.55
688.841	2637.61
689.03	2862.89
689.22	2666.28
689.41	2613.04
689.599	2711.34
689.789	2686.76
689.979	2848.55
690.168	2684.72
690.358	2619.18
690.547	2727.72
690.737	2582.32
690.926	2694.96
691.116	2629.42
691.305	2713.39
691.495	2553.65
691.684	2481.97
691.874	2678.57
692.063	2572.08
692.252	2551.6
692.442	2537.26
692.631	2471.73
692.82	2619.18
693.01	2545.45
693.199	2537.26
693.388	2365.23
693.578	2504.5
693.767	2535.21
693.956	2496.3
694.146	2377.52
694.335	2457.39
694.524	2496.3
694.713	2410.29
694.902	2422.58
695.092	2479.92
695.281	2438.96
695.47	2369.33
695.659	2348.85
695.848	2271.03
696.037	2336.56
696.226	2436.91
696.415	2256.69
696.604	2451.25
696.793	2348.85
696.982	2307.89
697.171	2434.86
697.36	2375.47
697.549	2223.92
697.738	2338.61
697.927	2291.51
698.116	2295.6
698.305	2324.27
698.494	2467.63
698.683	2352.95
698.872	2348.85
699.061	2391.86
699.25	2391.86
699.438	2182.96
699.627	2185.01
699.816	2262.83
700.005	2316.08
700.193	2254.64
700.382	2371.38
700.571	2271.03
700.76	2387.76
700.948	2285.36
701.137	2180.92
701.326	2297.65
701.514	2201.4
701.703	2314.03
701.892	2260.79
702.08	2242.36
702.269	2322.23
702.457	2297.65
702.646	2262.83
702.834	2250.55
703.023	2228.02
703.212	2334.51
703.4	2236.21
703.589	2301.75
703.777	2258.74
703.965	2281.27
704.154	2365.23
704.342	2234.16
704.531	2193.2
704.719	2252.59
704.907	2262.83
705.096	2209.59
705.284	2215.73
705.472	2379.57
705.661	2314.03
705.849	2328.37
706.037	2287.41
706.226	2309.94
706.414	2244.4
706.602	2219.83
706.79	2307.89
706.979	2225.97
707.167	2328.37
707.355	2205.49
707.543	2254.64
707.731	2322.23
707.919	2195.25
708.107	2291.51
708.296	2086.71
708.484	2211.64
708.672	2211.64
708.86	2328.37
709.048	2318.13
709.236	2213.68
709.424	2383.66
709.612	2254.64
709.8	2250.55
709.988	2234.16
710.176	2291.51
710.364	2164.53
710.551	2168.63
710.739	2318.13
710.927	2228.02
711.115	2111.29
711.303	2217.78
711.491	2240.31
711.679	2232.12
711.866	2234.16
712.054	2199.35
712.242	2086.71
712.43	2199.35
712.617	2115.38
712.805	2187.06
712.993	2158.39
713.181	2293.55
713.368	2244.4
713.556	2279.22
713.744	2154.29
713.931	2381.62
714.119	2189.11
714.306	2299.7
714.494	2242.36
714.682	2262.83
714.869	2283.31
715.057	2232.12
715.244	2201.4
715.432	2158.39
715.619	2287.41
715.807	2111.29
715.994	2236.21
716.182	2144.05
716.369	2295.6
716.556	2273.07
716.744	2182.96
716.931	2182.96
717.119	2262.83
717.306	2400.05
717.493	2283.31
717.681	2228.02
717.868	2142
718.055	2283.31
718.242	2242.36
718.43	2295.6
718.617	2252.59
718.804	2195.25
718.991	2174.77
719.179	2232.12
719.366	2324.27
719.553	2197.3
719.74	2352.95
719.927	2299.7
720.114	2256.69
720.301	2268.98
720.488	2242.36
720.676	2225.97
720.863	2223.92
721.05	2139.96
721.237	2164.53
721.424	2223.92
721.611	2228.02
721.798	2260.79
721.985	2193.2
722.172	2148.15
722.358	2213.68
722.545	2215.73
722.732	2271.03
722.919	2260.79
723.106	2254.64
723.293	2248.5
723.48	2271.03
723.667	2168.63
723.853	2111.29
724.04	2189.11
724.227	2328.37
724.414	2246.45
724.6	2230.07
724.787	2193.2
724.974	2299.7
725.161	2217.78
725.347	2326.32
725.534	2166.58
725.72	2289.46
725.907	2170.68
726.094	2230.07
726.28	2129.72
726.467	2228.02
726.653	2209.59
726.84	2234.16
727.027	2395.95
727.213	2258.74
727.4	2207.54
727.586	2205.49
727.773	2373.43
727.959	2268.98
728.145	2260.79
728.332	2180.92
728.518	2234.16
728.705	2287.41
728.891	2205.49
729.077	2113.33
729.264	2320.18
729.45	2209.59
729.636	2336.56
729.823	2445.1
730.009	2352.95
730.195	2223.92
730.382	2295.6
730.568	2289.46
730.754	2232.12
730.94	2225.97
731.126	2217.78
731.313	2328.37
731.499	2178.87
731.685	2228.02
731.871	2357.04
732.057	2225.97
732.243	2357.04
732.429	2142
732.615	2185.01
732.801	2291.51
732.987	2240.31
733.173	2256.69
733.359	2199.35
733.545	2254.64
733.731	2197.3
733.917	2217.78
734.103	2162.48
734.289	2320.18
734.475	2166.58
734.661	2150.2
734.847	2185.01
735.033	2219.83
735.219	2332.47
735.404	2197.3
735.59	2195.25
735.776	2201.4
735.962	2195.25
736.148	2264.88
736.333	2213.68
736.519	2144.05
736.705	2156.34
736.89	2049.85
737.076	2133.81
737.262	2185.01
737.447	2236.21
737.633	2137.91
737.819	2213.68
738.004	2164.53
738.19	2209.59
738.375	2160.44
738.561	2311.99
738.747	2207.54
738.932	2152.24
739.118	2213.68
739.303	2178.87
739.489	2256.69
739.674	2148.15
739.859	2105.14
740.045	2066.23
740.23	2187.06
740.416	2137.91
740.601	2199.35
740.786	2060.09
740.972	2015.03
741.157	2119.48
741.342	2008.89
741.528	2090.81
741.713	2111.29
741.898	2033.46
742.084	1980.22
742.269	2027.32
742.454	2045.75
742.639	2215.73
742.824	2092.85
743.01	2031.41
743.195	2041.65
743.38	2027.32
743.565	1961.78
743.75	1982.26
743.935	2027.32
744.12	1963.83
744.305	1906.49
744.49	1865.53
744.675	2060.09
744.86	1976.12
745.045	1945.4
745.23	1990.45
745.415	1959.74
745.6	1947.45
745.785	1937.21
745.97	1982.26
746.155	1986.36
746.34	1902.39
746.525	1793.85
746.71	1890.1
746.895	1836.86
747.079	1865.53
747.264	1845.05
747.449	1818.43
747.634	1875.77
747.819	1808.19
748.003	1797.95
748.188	1750.84
748.373	1804.09
748.557	1840.95
748.742	1716.03
748.927	1632.06
749.111	1718.08
749.296	1564.48
749.481	1681.21
749.665	1744.7
749.85	1625.92
750.034	1664.83
750.219	1666.88
750.404	1720.12
750.588	1656.64
750.773	1544
750.957	1666.88
751.141	1613.63
751.326	1668.92
751.51	1648.44
751.695	1666.88
751.879	1652.54
752.064	1742.65
752.248	1607.48
752.432	1478.46
752.617	1615.68
752.801	1576.77
752.985	1515.33
753.17	1431.36
753.354	1527.61
753.538	1476.41
753.722	1468.22
753.907	1505.09
754.091	1390.4
754.275	1507.13
754.459	1396.54
754.643	1412.93
754.828	1443.65
755.012	1421.12
755.196	1396.54
755.38	1439.55
755.564	1369.92
755.748	1468.22
755.932	1423.17
756.116	1271.62
756.3	1304.39
756.484	1300.29
756.668	1378.11
756.852	1331.01
757.036	1148.74
757.22	1357.63
757.404	1249.09
757.588	1304.39
757.772	1294.15
757.956	1224.51
758.14	1247.04
758.323	1242.95
758.507	1298.24
758.691	1126.21
758.875	1144.64
759.059	1234.75
759.242	1263.43
759.426	1216.32
759.61	1214.27
759.794	1124.16
759.977	1232.71
760.161	1128.26
760.345	1165.12
760.528	1132.36
760.712	1173.32
760.895	1158.98
761.079	1216.32
761.263	1156.93
761.446	1195.84
761.63	1093.44
761.813	1187.65
761.997	1195.84
762.18	1105.73
762.364	1072.96
762.547	1095.49
762.731	1056.58
762.914	1007.43
763.098	1034.05
763.281	1021.77
763.464	1077.06
763.648	1038.15
763.831	1101.64
764.015	1052.49
764.198	1050.44
764.381	1056.58
764.564	1021.77
764.748	1048.39
764.931	1066.82
765.114	941.89
765.297	1066.82
765.481	991.05
765.664	974.66
765.847	1042.25
766.03	1042.25
766.213	1021.77
766.397	1015.62
766.58	1015.62
766.763	956.23
766.946	991.05
767.129	923.46
767.312	1046.34
767.495	1019.72
767.678	917.32
767.861	937.8
768.044	948.04
768.227	995.14
768.41	927.56
768.593	972.61
768.776	849.74
768.959	958.28
769.142	900.94
769.324	958.28
769.507	1048.39
769.69	923.46
769.873	851.78
770.056	894.79
770.239	888.65
770.421	886.6
770.604	888.65
770.787	864.07
770.97	821.06
771.152	812.87
771.335	960.33
771.518	921.42
771.7	857.93
771.883	849.74
772.066	784.2
772.248	890.7
772.431	888.65
772.613	876.36
772.796	864.07
772.978	749.39
773.161	945.99
773.343	804.68
773.526	720.71
773.708	778.06
773.891	874.31
774.073	827.21
774.256	685.9
774.438	776.01
774.621	802.63
774.803	763.72
774.985	792.39
775.168	812.87
775.35	771.91
775.532	771.91
775.715	771.91
775.897	784.2
776.079	700.23
776.261	718.67
776.444	702.28
776.626	667.47
776.808	679.75
776.99	739.15
777.173	712.52
777.355	708.43
777.537	667.47
777.719	683.85
777.901	739.15
778.083	667.47
778.265	679.75
778.447	665.42
778.629	644.94
778.811	606.03
778.993	704.33
779.175	657.23
779.357	665.42
779.539	610.12
779.721	667.47
779.903	612.17
780.085	624.46
780.267	632.65
780.449	560.97
780.631	634.7
780.812	636.75
780.994	624.46
781.176	452.43
781.358	573.26
781.54	522.06
781.721	620.36
781.903	542.54
782.085	622.41
782.267	638.8
782.448	632.65
782.63	489.29
782.812	565.07
782.993	497.49
783.175	679.75
783.357	477.01
783.538	569.16
783.72	530.25
783.901	468.81
784.083	411.47
784.264	522.06
784.446	472.91
784.627	411.47
784.809	501.58
784.99	597.84
785.172	567.12
785.353	442.19
785.535	460.62
785.716	493.39
785.897	470.86
786.079	407.38
786.26	472.91
786.441	466.77
786.623	415.57
786.804	448.33
786.985	468.81
787.167	509.77
787.348	460.62
787.529	419.66
787.71	448.33
787.891	362.32
788.073	413.52
788.254	427.85
788.435	425.81
788.616	407.38
788.797	395.09
788.978	431.95
789.159	386.9
789.34	397.14
789.522	419.66
789.703	452.43
789.884	388.94
790.065	386.9
790.246	417.61
790.427	417.61
790.607	395.09
790.788	350.03
790.969	427.85
791.15	331.6
791.331	366.42
791.512	315.22
791.693	309.07
791.874	350.03
792.054	403.28
792.235	409.42
792.416	354.13
792.597	329.55
792.778	274.26
792.958	317.26
793.139	345.94
793.32	423.76
793.5	329.55
793.681	405.33
793.862	317.26
794.042	399.18
794.223	284.5
794.404	323.41
794.584	337.74
794.765	253.78
794.945	343.89
795.126	270.16
795.306	378.7
795.487	341.84
795.667	331.6
795.848	345.94
796.028	302.93
796.209	302.93
796.389	341.84
796.57	329.55
796.75	347.98
796.93	280.4
797.111	292.69
797.291	266.07
797.471	304.98
797.652	284.5
797.832	270.16
798.012	259.92
798.192	251.73
798.373	241.49
798.553	216.91
798.733	280.4
798.913	231.25
799.093	261.97
799.274	313.17
799.454	298.83
799.634	304.98
799.814	251.73
799.994	274.26
800.174	278.35
800.354	247.63
800.534	239.44
800.714	241.49
800.894	272.21
801.074	319.31
801.254	259.92
801.434	200.53
801.614	171.86
801.794	208.72
801.974	599.88
802.154	257.87
802.334	225.11
802.514	284.5
802.693	210.77
802.873	235.35
803.053	268.11
803.233	280.4
803.413	229.2
803.592	202.58
803.772	243.54
803.952	223.06
804.131	196.43
804.311	221.01
804.491	202.58
804.67	198.48
804.85	243.54
805.03	247.63
805.209	272.21
805.389	202.58
805.568	139.09
805.748	243.54
805.928	221.01
806.107	235.35
806.287	153.43
806.466	194.39
806.646	192.34
806.825	190.29
807.004	157.52
807.184	141.14
807.363	206.67
807.543	175.95
807.722	204.63
807.901	163.67
808.081	218.96
808.26	202.58
808.439	255.83
808.619	249.68
808.798	198.48
808.977	141.14
809.156	227.15
809.336	188.24
809.515	89.94
809.694	157.52
809.873	155.47
810.052	143.19
810.231	225.11
810.411	173.91
810.59	223.06
810.769	149.33
810.948	204.63
811.127	137.04
811.306	116.56
811.485	122.71
811.664	247.63
811.843	137.04
812.022	239.44
812.201	151.38
812.38	100.18
812.559	180.05
812.737	182.1
812.916	194.39
813.095	100.18
813.274	167.76
813.453	206.67
813.632	171.86
813.811	153.43
813.989	87.89
814.168	194.39
814.347	161.62
814.526	124.76
814.704	157.52
814.883	104.28
815.062	89.94
815.24	192.34
815.419	153.43
815.598	114.52
815.776	108.37
815.955	145.24
816.133	34.64
816.312	100.18
816.49	161.62
816.669	208.72
816.847	128.85
817.026	145.24
817.204	132.95
817.383	178
817.561	186.19
817.74	182.1
817.918	141.14
818.097	141.14
818.275	151.38
818.453	155.47
818.632	200.53
818.81	57.17
818.988	83.8
819.167	67.41
819.345	100.18
819.523	42.84
819.701	137.04
819.879	141.14
820.058	161.62
820.236	85.84
820.414	124.76
820.592	147.28
820.77	124.76
820.948	135
821.127	157.52
821.305	173.91
821.483	104.28
821.661	143.19
821.839	135
822.017	102.23
822.195	69.46
822.373	46.93
822.551	143.19
822.729	102.23
822.907	83.8
823.085	130.9
823.262	161.62
823.44	149.33
823.618	79.7
823.796	124.76
823.974	26.45
824.152	139.09
824.329	153.43
824.507	165.71
824.685	145.24
824.863	116.56
825.04	163.67
825.218	87.89
825.396	83.8
825.574	106.32
825.751	83.8
825.929	102.23
826.107	96.08
826.284	94.04
826.462	118.61
826.639	110.42
826.817	71.51
826.994	182.1
827.172	53.08
827.349	128.85
827.527	73.56
827.704	106.32
827.882	91.99
828.059	159.57
828.237	102.23
828.414	46.93
828.591	98.13
828.769	63.32
828.946	24.4
829.124	153.43
829.301	175.95
829.478	186.19
829.655	73.56
829.833	163.67
830.01	59.22
830.187	102.23
830.364	55.12
830.542	104.28
830.719	173.91
830.896	38.74
831.073	91.99
831.25	118.61
831.427	122.71
831.604	102.23
831.782	77.65
831.959	120.66
832.136	30.55
832.313	63.32
832.49	36.69
832.667	96.08
832.844	55.12
833.021	73.56
833.198	110.42
833.374	65.36
833.551	118.61
833.728	137.04
833.905	100.18
834.082	38.74
834.259	100.18
834.436	126.8
834.612	100.18
834.789	55.12
834.966	79.7
835.143	79.7
835.319	75.6
835.496	108.37
835.673	91.99
835.85	110.42
836.026	55.12
836.203	91.99
836.38	30.55
836.556	61.27
836.733	94.04
836.909	120.66
837.086	46.93
837.262	98.13
837.439	81.75
837.616	51.03
837.792	26.45
837.968	55.12
838.145	44.88
838.321	94.04
838.498	87.89
838.674	44.88
838.851	42.84
839.027	18.26
839.203	89.94
839.38	139.09
839.556	112.47
839.732	118.61
839.909	69.46
840.085	104.28
840.261	36.69
840.437	141.14
840.614	32.6
840.79	126.8
840.966	75.6
841.142	46.93
841.318	30.55
841.494	48.98
841.671	75.6
841.847	26.45
842.023	71.51
842.199	132.95
842.375	128.85
842.551	18.26
842.727	-4.27
842.903	71.51
843.079	24.4
843.255	87.89
843.431	85.84
843.607	81.75
843.783	24.4
843.959	59.22
844.134	38.74
844.31	71.51
844.486	16.21
844.662	51.03
844.838	8.02
845.013	114.52
845.189	53.08
845.365	81.75
845.541	14.17
845.716	91.99
845.892	87.89
846.068	85.84
846.244	28.5
846.419	51.03
846.595	67.41
846.77	44.88
846.946	-55.47
847.122	98.13
847.297	59.22
847.473	24.4
847.648	40.79
847.824	83.8
847.999	-12.46
848.175	63.32
848.35	-14.51
848.526	67.41
848.701	26.45
848.876	77.65
849.052	61.27
849.227	67.41
849.403	28.5
849.578	114.52
849.753	75.6
849.929	38.74
850.104	55.12
850.279	-16.55
850.454	102.23
850.63	69.46
850.805	26.45
850.98	102.23
851.155	16.21
851.33	10.07
851.505	59.22
851.681	61.27
851.856	16.21
852.031	40.79
852.206	104.28
852.381	-39.08
852.556	110.42
852.731	46.93
852.906	57.17
853.081	91.99
853.256	38.74
853.431	-2.22
853.606	-47.27
853.781	10.07
853.956	18.26
854.131	44.88
854.305	79.7
854.48	55.12
854.655	24.4
854.83	14.17
855.005	32.6
855.18	40.79
855.354	46.93
855.529	16.21
855.704	85.84
855.879	-16.55
856.053	3.93
856.228	69.46
856.403	79.7
856.577	-10.41
856.752	-8.36
856.926	67.41
857.101	40.79
857.276	44.88
857.45	3.93
857.625	28.5
857.799	-22.7
857.974	-20.65
858.148	34.64
858.323	10.07
858.497	44.88
858.672	1.88
858.846	34.64
859.02	42.84
859.195	-6.31
859.369	10.07
859.543	-55.47
859.718	20.31
859.892	51.03
860.066	26.45
860.241	36.69
860.415	51.03
860.589	-10.41
860.763	69.46
860.938	-30.89
861.112	91.99
861.286	14.17
861.46	22.36
861.634	26.45
861.808	-45.23
861.982	89.94
862.157	30.55
862.331	12.12
862.505	79.7
862.679	46.93
862.853	8.02
863.027	79.7
863.201	-2.22
863.375	14.17
863.549	3.93
863.722	75.6
863.896	16.21
864.07	3.93
864.244	57.17
864.418	16.21
864.592	40.79
864.766	57.17
864.939	51.03
865.113	34.64
865.287	55.12
865.461	-2.22
865.634	-47.27
865.808	48.98
865.982	120.66
866.156	-30.89
866.329	59.22
866.503	8.02
866.676	34.64
866.85	5.97
867.024	34.64
867.197	63.32
867.371	83.8
867.544	42.84
867.718	8.02
867.891	-18.6
868.065	46.93
868.238	-24.75
868.412	57.17
868.585	30.55
868.759	16.21
868.932	10.07
869.105	46.93
869.279	-16.55
869.452	-22.7
869.625	-20.65
869.799	-26.79
869.972	22.36
870.145	30.55
870.319	51.03
870.492	-2.22
870.665	-24.75
870.838	-12.46
871.011	-16.55
871.185	57.17
871.358	36.69
871.531	18.26
871.704	3.93
871.877	10.07
872.05	-2.22
872.223	100.18
872.396	87.89
872.569	18.26
872.742	83.8
872.915	48.98
873.088	-24.75
873.261	10.07
873.434	26.45
873.607	26.45
873.78	-2.22
873.953	-80.04
874.126	-24.75
874.299	22.36
874.471	28.5
874.644	48.98
874.817	61.27
874.99	28.5
875.163	40.79
875.335	40.79
875.508	-77.99
875.681	30.55
875.853	-6.31
876.026	10.07
876.199	10.07
876.371	-8.36
876.544	-8.36
876.717	20.31
876.889	-22.7
877.062	10.07
877.234	-14.51
877.407	44.88
877.579	38.74
877.752	26.45
877.924	38.74
878.097	12.12
878.269	-2.22
878.442	32.6
878.614	-16.55
878.786	42.84
878.959	-4.27
879.131	5.97
879.303	1.88
879.476	30.55
879.648	-10.41
879.82	-32.94
879.993	3.93
880.165	26.45
880.337	24.4
880.509	38.74
880.681	5.97
880.854	24.4
881.026	10.07
881.198	26.45
881.37	42.84
881.542	-2.22
881.714	38.74
881.886	-41.13
882.058	-59.56
882.23	12.12
882.402	20.31
882.574	34.64
882.746	12.12
882.918	63.32
883.09	48.98
883.262	-10.41
883.434	55.12
883.606	40.79
883.778	46.93
883.95	-43.18
884.122	46.93
884.293	12.12
884.465	94.04
884.637	32.6
884.809	61.27
884.98	28.5
885.152	-6.31
885.324	59.22
885.496	-26.79
885.667	26.45
885.839	-12.46
886.011	-6.31
886.182	10.07
886.354	-37.03
886.525	32.6
886.697	34.64
886.869	-75.95
887.04	-16.55
887.212	79.7
887.383	65.36
887.555	-39.08
887.726	8.02
887.897	-39.08
888.069	46.93
888.24	59.22
888.412	-80.04
888.583	83.8
888.754	100.18
888.926	71.51
889.097	-41.13
889.268	12.12
889.44	-14.51
889.611	67.41
889.782	-37.03
889.953	28.5
890.125	5.97
890.296	24.4
890.467	34.64
890.638	28.5
890.809	30.55
890.98	51.03
891.151	46.93
891.323	83.8
891.494	-10.41
891.665	12.12
891.836	-39.08
892.007	48.98
892.178	16.21
892.349	3.93
892.52	-75.95
892.691	-28.84
892.862	3.93
893.032	-4.27
893.203	14.17
893.374	-37.03
893.545	-22.7
893.716	-14.51
893.887	46.93
894.057	-20.65
894.228	-43.18
894.399	38.74
894.57	-18.6
894.74	1.88
894.911	79.7
895.082	-32.94
895.253	-14.51
895.423	28.5
895.594	96.08
895.764	14.17
895.935	5.97
896.106	34.64
896.276	-22.7
896.447	3.93
896.617	32.6
896.788	57.17
896.958	-32.94
897.129	-16.55
897.299	1.88
897.47	83.8
897.64	40.79
897.81	-22.7
897.981	81.75
898.151	26.45
898.322	42.84
898.492	5.97
898.662	26.45
898.832	16.21
899.003	-4.27
899.173	22.36
899.343	24.4
899.513	-24.75
