Data from USB4F104151__279__11-12-49-942.txt Node

Date: Wed Mar 12 11:12:49 EDT 2025
User: louis
Spectrometer: USB4F10415
Trigger mode: 4
Integration Time (sec): 2.000000E-2
Scans to average: 1
Electric dark correction enabled: true
Nonlinearity correction enabled: false
Boxcar width: 0
XAxis mode: Wavelengths
Number of Pixels in Spectrum: 3648
>>>>>Begin Spectral Data<<<<<
178.204	-36.69
178.424	-36.69
178.644	-36.69
178.864	-102.23
179.084	-57.17
179.304	-26.45
179.524	47.27
179.744	-42.84
179.964	34.99
180.184	30.89
180.404	-12.12
180.624	-5.97
180.844	39.08
181.064	-26.45
181.283	-32.6
181.503	-10.07
181.723	4.27
181.943	-28.5
182.163	82.09
182.383	30.89
182.602	-73.56
182.822	8.36
183.042	-30.55
183.262	49.32
183.482	43.18
183.701	-20.31
183.921	57.51
184.141	49.32
184.361	75.95
184.58	32.94
184.8	53.42
185.02	22.7
185.239	43.18
185.459	-8.02
185.679	30.89
185.898	41.13
186.118	84.14
186.338	-14.17
186.557	39.08
186.777	-1.88
186.997	112.81
187.216	20.65
187.436	32.94
187.655	-12.12
187.875	45.23
188.095	-5.97
188.314	55.47
188.534	100.52
188.753	75.95
188.973	59.56
189.192	98.47
189.412	22.7
189.631	-8.02
189.851	39.08
190.07	26.79
190.29	-81.75
190.509	90.28
190.729	-5.97
190.948	61.61
191.168	141.48
191.387	37.03
191.607	12.46
191.826	49.32
192.045	-26.45
192.265	-14.17
192.484	6.31
192.704	-20.31
192.923	37.03
193.142	43.18
193.362	34.99
193.581	2.22
193.8	12.46
194.02	45.23
194.239	61.61
194.458	28.84
194.678	-3.93
194.897	-18.26
195.116	100.52
195.335	84.14
195.555	-24.4
195.774	32.94
195.993	24.75
196.212	20.65
196.432	22.7
196.651	39.08
196.87	8.36
197.089	100.52
197.308	6.31
197.528	28.84
197.747	22.7
197.966	-1.88
198.185	61.61
198.404	32.94
198.623	34.99
198.842	18.6
199.062	65.71
199.281	59.56
199.5	-34.64
199.719	-26.45
199.938	100.52
200.157	92.33
200.376	24.75
200.595	77.99
200.814	69.8
201.033	-36.69
201.252	47.27
201.471	10.41
201.69	-10.07
201.909	14.51
202.128	26.79
202.347	16.55
202.566	-18.26
202.785	41.13
203.004	71.85
203.223	-12.12
203.442	137.38
203.661	-46.93
203.879	63.66
204.098	61.61
204.317	24.75
204.536	-32.6
204.755	32.94
204.974	118.95
205.193	-10.07
205.411	49.32
205.63	84.14
205.849	55.47
206.068	47.27
206.287	22.7
206.505	61.61
206.724	63.66
206.943	30.89
207.162	55.47
207.381	34.99
207.599	41.13
207.818	-1.88
208.037	37.03
208.255	63.66
208.474	28.84
208.693	4.27
208.911	114.86
209.13	51.37
209.349	73.9
209.567	63.66
209.786	18.6
210.005	51.37
210.223	-65.36
210.442	16.55
210.661	51.37
210.879	41.13
211.098	69.8
211.316	-3.93
211.535	12.46
211.753	-1.88
211.972	-14.17
212.191	6.31
212.409	61.61
212.628	10.41
212.846	69.8
213.065	45.23
213.283	32.94
213.502	30.89
213.72	143.53
213.938	20.65
214.157	-14.17
214.375	10.41
214.594	26.79
214.812	49.32
215.031	77.99
215.249	55.47
215.467	20.65
215.686	71.85
215.904	-12.12
216.122	16.55
216.341	96.43
216.559	65.71
216.778	149.67
216.996	32.94
217.214	51.37
217.432	51.37
217.651	22.7
217.869	-18.26
218.087	80.04
218.306	47.27
218.524	92.33
218.742	-46.93
218.96	24.75
219.179	-16.21
219.397	-12.12
219.615	45.23
219.833	18.6
220.051	-14.17
220.27	84.14
220.488	28.84
220.706	34.99
220.924	-10.07
221.142	-14.17
221.36	57.51
221.578	43.18
221.796	45.23
222.015	67.75
222.233	51.37
222.451	47.27
222.669	6.31
222.887	80.04
223.105	47.27
223.323	30.89
223.541	0.17
223.759	34.99
223.977	92.33
224.195	96.43
224.413	26.79
224.631	118.95
224.849	-1.88
225.067	-5.97
225.285	80.04
225.503	-38.74
225.721	-12.12
225.939	77.99
226.157	4.27
226.375	63.66
226.592	-59.22
226.81	-26.45
227.028	47.27
227.246	96.43
227.464	116.9
227.682	30.89
227.9	61.61
228.117	10.41
228.335	49.32
228.553	24.75
228.771	57.51
228.989	20.65
229.206	69.8
229.424	10.41
229.642	10.41
229.86	96.43
230.077	114.86
230.295	34.99
230.513	69.8
230.731	84.14
230.948	94.38
231.166	18.6
231.384	39.08
231.601	16.55
231.819	75.95
232.037	41.13
232.254	14.51
232.472	18.6
232.689	51.37
232.907	65.71
233.125	45.23
233.342	82.09
233.56	6.31
233.777	53.42
233.995	-22.36
234.213	24.75
234.43	28.84
234.648	55.47
234.865	12.46
235.083	63.66
235.3	-12.12
235.518	0.17
235.735	28.84
235.953	-18.26
236.17	90.28
236.388	77.99
236.605	71.85
236.822	0.17
237.04	43.18
237.257	-1.88
237.475	24.75
237.692	57.51
237.909	32.94
238.127	30.89
238.344	61.61
238.562	57.51
238.779	67.75
238.996	22.7
239.214	51.37
239.431	53.42
239.648	18.6
239.865	51.37
240.083	-42.84
240.3	34.99
240.517	28.84
240.735	-3.93
240.952	43.18
241.169	96.43
241.386	71.85
241.603	45.23
241.821	-1.88
242.038	41.13
242.255	30.89
242.472	-112.47
242.689	6.31
242.907	43.18
243.124	14.51
243.341	26.79
243.558	12.46
243.775	37.03
243.992	14.51
244.209	69.8
244.426	77.99
244.643	39.08
244.86	34.99
245.078	69.8
245.295	63.66
245.512	47.27
245.729	-5.97
245.946	84.14
246.163	-12.12
246.38	125.1
246.597	18.6
246.814	55.47
247.031	-36.69
247.248	8.36
247.464	104.62
247.681	10.41
247.898	26.79
248.115	8.36
248.332	94.38
248.549	16.55
248.766	41.13
248.983	-18.26
249.2	71.85
249.417	75.95
249.633	-32.6
249.85	110.76
250.067	30.89
250.284	16.55
250.501	61.61
250.717	14.51
250.934	-34.64
251.151	75.95
251.368	22.7
251.585	53.42
251.801	75.95
252.018	24.75
252.235	43.18
252.451	34.99
252.668	-10.07
252.885	2.22
253.102	43.18
253.318	37.03
253.535	55.47
253.752	-42.84
253.968	18.6
254.185	-32.6
254.401	-30.55
254.618	47.27
254.835	47.27
255.051	121
255.268	63.66
255.484	59.56
255.701	34.99
255.917	30.89
256.134	39.08
256.351	129.19
256.567	55.47
256.784	67.75
257	65.71
257.217	59.56
257.433	71.85
257.65	41.13
257.866	43.18
258.082	-30.55
258.299	59.56
258.515	106.67
258.732	80.04
258.948	45.23
259.165	98.47
259.381	98.47
259.597	34.99
259.814	8.36
260.03	-26.45
260.246	26.79
260.463	51.37
260.679	14.51
260.895	110.76
261.112	63.66
261.328	-22.36
261.544	16.55
261.761	121
261.977	4.27
262.193	-5.97
262.409	61.61
262.626	80.04
262.842	75.95
263.058	24.75
263.274	100.52
263.49	168.1
263.707	26.79
263.923	22.7
264.139	-14.17
264.355	118.95
264.571	55.47
264.787	30.89
265.004	20.65
265.22	-12.12
265.436	6.31
265.652	-20.31
265.868	106.67
266.084	32.94
266.3	32.94
266.516	-26.45
266.732	8.36
266.948	73.9
267.164	30.89
267.38	24.75
267.596	84.14
267.812	67.75
268.028	67.75
268.244	61.61
268.46	37.03
268.676	45.23
268.892	69.8
269.108	32.94
269.324	2.22
269.54	37.03
269.756	71.85
269.972	43.18
270.188	71.85
270.403	67.75
270.619	30.89
270.835	41.13
271.051	2.22
271.267	53.42
271.483	108.71
271.698	59.56
271.914	12.46
272.13	20.65
272.346	47.27
272.562	-36.69
272.777	100.52
272.993	41.13
273.209	49.32
273.425	63.66
273.64	-5.97
273.856	-3.93
274.072	-69.46
274.287	94.38
274.503	55.47
274.719	88.23
274.934	135.34
275.15	63.66
275.366	12.46
275.581	71.85
275.797	43.18
276.012	47.27
276.228	45.23
276.444	75.95
276.659	108.71
276.875	-10.07
277.09	12.46
277.306	71.85
277.521	49.32
277.737	34.99
277.952	67.75
278.168	43.18
278.383	94.38
278.599	6.31
278.814	26.79
279.03	22.7
279.245	16.55
279.461	12.46
279.676	45.23
279.892	-3.93
280.107	39.08
280.322	47.27
280.538	55.47
280.753	37.03
280.969	63.66
281.184	26.79
281.399	96.43
281.615	-3.93
281.83	61.61
282.045	57.51
282.26	-3.93
282.476	26.79
282.691	57.51
282.906	-10.07
283.122	65.71
283.337	39.08
283.552	39.08
283.767	14.51
283.983	47.27
284.198	59.56
284.413	88.23
284.628	-42.84
284.843	41.13
285.058	69.8
285.274	-10.07
285.489	-1.88
285.704	63.66
285.919	-48.98
286.134	16.55
286.349	-16.21
286.564	26.79
286.779	45.23
286.995	-18.26
287.21	34.99
287.425	47.27
287.64	-14.17
287.855	-30.55
288.07	0.17
288.285	123.05
288.5	127.14
288.715	28.84
288.93	14.51
289.145	34.99
289.36	49.32
289.575	55.47
289.79	71.85
290.004	73.9
290.219	22.7
290.434	30.89
290.649	-36.69
290.864	37.03
291.079	41.13
291.294	116.9
291.509	49.32
291.724	8.36
291.938	41.13
292.153	37.03
292.368	30.89
292.583	53.42
292.798	26.79
293.012	55.47
293.227	139.43
293.442	18.6
293.657	69.8
293.871	47.27
294.086	-12.12
294.301	-3.93
294.516	32.94
294.73	61.61
294.945	22.7
295.16	57.51
295.374	34.99
295.589	30.89
295.804	71.85
296.018	16.55
296.233	82.09
296.447	-8.02
296.662	73.9
296.877	53.42
297.091	45.23
297.306	41.13
297.52	20.65
297.735	65.71
297.949	10.41
298.164	55.47
298.378	20.65
298.593	92.33
298.807	108.71
299.022	57.51
299.236	127.14
299.451	51.37
299.665	84.14
299.88	53.42
300.094	57.51
300.309	61.61
300.523	51.37
300.737	84.14
300.952	-8.02
301.166	-38.74
301.381	59.56
301.595	94.38
301.809	-1.88
302.024	14.51
302.238	84.14
302.452	67.75
302.667	14.51
302.881	39.08
303.095	47.27
303.309	94.38
303.524	63.66
303.738	-3.93
303.952	24.75
304.166	16.55
304.381	51.37
304.595	43.18
304.809	121
305.023	57.51
305.237	51.37
305.452	22.7
305.666	55.47
305.88	43.18
306.094	32.94
306.308	43.18
306.522	92.33
306.736	4.27
306.95	100.52
307.164	71.85
307.379	41.13
307.593	110.76
307.807	96.43
308.021	43.18
308.235	51.37
308.449	55.47
308.663	67.75
308.877	121
309.091	149.67
309.305	145.58
309.519	65.71
309.733	43.18
309.947	71.85
310.161	24.75
310.374	32.94
310.588	63.66
310.802	41.13
311.016	10.41
311.23	63.66
311.444	18.6
311.658	100.52
311.872	63.66
312.085	88.23
312.299	-1.88
312.513	98.47
312.727	57.51
312.941	-36.69
313.154	57.51
313.368	94.38
313.582	-16.21
313.796	59.56
314.009	47.27
314.223	75.95
314.437	2.22
314.651	34.99
314.864	26.79
315.078	106.67
315.292	94.38
315.505	30.89
315.719	112.81
315.933	77.99
316.146	34.99
316.36	-14.17
316.573	18.6
316.787	47.27
317.001	86.19
317.214	53.42
317.428	24.75
317.641	43.18
317.855	18.6
318.068	67.75
318.282	118.95
318.495	125.1
318.709	43.18
318.922	10.41
319.136	59.56
319.349	75.95
319.563	32.94
319.776	28.84
319.99	20.65
320.203	0.17
320.417	34.99
320.63	59.56
320.843	37.03
321.057	47.27
321.27	47.27
321.483	71.85
321.697	145.58
321.91	30.89
322.124	75.95
322.337	65.71
322.55	41.13
322.763	16.55
322.977	49.32
323.19	28.84
323.403	114.86
323.617	34.99
323.83	92.33
324.043	-10.07
324.256	90.28
324.469	14.51
324.683	131.24
324.896	51.37
325.109	69.8
325.322	28.84
325.535	63.66
325.748	98.47
325.962	61.61
326.175	80.04
326.388	-18.26
326.601	129.19
326.814	2.22
327.027	102.57
327.24	116.9
327.453	69.8
327.666	53.42
327.879	67.75
328.092	75.95
328.305	80.04
328.518	75.95
328.731	55.47
328.944	2.22
329.157	-1.88
329.37	-28.5
329.583	84.14
329.796	41.13
330.009	59.56
330.222	-3.93
330.435	49.32
330.648	47.27
330.861	14.51
331.073	24.75
331.286	67.75
331.499	114.86
331.712	20.65
331.925	84.14
332.138	12.46
332.35	86.19
332.563	0.17
332.776	47.27
332.989	20.65
333.202	16.55
333.414	34.99
333.627	92.33
333.84	47.27
334.053	8.36
334.265	47.27
334.478	18.6
334.691	149.67
334.903	110.76
335.116	45.23
335.329	57.51
335.541	34.99
335.754	98.47
335.966	49.32
336.179	47.27
336.392	10.41
336.604	14.51
336.817	53.42
337.029	8.36
337.242	37.03
337.454	43.18
337.667	51.37
337.88	22.7
338.092	6.31
338.305	80.04
338.517	106.67
338.729	63.66
338.942	45.23
339.154	-20.31
339.367	-3.93
339.579	112.81
339.792	-5.97
340.004	90.28
340.217	-14.17
340.429	49.32
340.641	-42.84
340.854	6.31
341.066	14.51
341.278	104.62
341.491	12.46
341.703	8.36
341.915	24.75
342.128	157.86
342.34	30.89
342.552	6.31
342.764	28.84
342.977	80.04
343.189	47.27
343.401	104.62
343.613	73.9
343.826	30.89
344.038	28.84
344.25	30.89
344.462	-3.93
344.674	90.28
344.886	51.37
345.099	92.33
345.311	57.51
345.523	135.34
345.735	6.31
345.947	12.46
346.159	16.55
346.371	41.13
346.583	6.31
346.795	100.52
347.007	112.81
347.219	71.85
347.431	45.23
347.643	43.18
347.855	65.71
348.067	104.62
348.279	90.28
348.491	114.86
348.703	28.84
348.915	26.79
349.127	51.37
349.339	88.23
349.551	28.84
349.763	30.89
349.975	43.18
350.187	147.62
350.399	112.81
350.61	92.33
350.822	55.47
351.034	96.43
351.246	32.94
351.458	106.67
351.669	16.55
351.881	100.52
352.093	94.38
352.305	100.52
352.517	53.42
352.728	75.95
352.94	84.14
353.152	2.22
353.363	80.04
353.575	112.81
353.787	55.47
353.999	86.19
354.21	94.38
354.422	65.71
354.633	75.95
354.845	84.14
355.057	45.23
355.268	104.62
355.48	65.71
355.692	80.04
355.903	16.55
356.115	100.52
356.326	-1.88
356.538	71.85
356.749	6.31
356.961	94.38
357.172	8.36
357.384	90.28
357.595	80.04
357.807	88.23
358.018	51.37
358.23	32.94
358.441	34.99
358.653	127.14
358.864	63.66
359.075	30.89
359.287	125.1
359.498	51.37
359.709	41.13
359.921	137.38
360.132	22.7
360.344	51.37
360.555	88.23
360.766	133.29
360.977	84.14
361.189	59.56
361.4	61.61
361.611	90.28
361.823	86.19
362.034	166.06
362.245	-1.88
362.456	0.17
362.667	110.76
362.879	92.33
363.09	14.51
363.301	92.33
363.512	39.08
363.723	71.85
363.935	6.31
364.146	90.28
364.357	100.52
364.568	34.99
364.779	22.7
364.99	88.23
365.201	61.61
365.412	67.75
365.623	71.85
365.834	135.34
366.045	45.23
366.256	26.79
366.467	69.8
366.678	82.09
366.889	39.08
367.1	2.22
367.311	43.18
367.522	71.85
367.733	14.51
367.944	49.32
368.155	71.85
368.366	0.17
368.577	92.33
368.788	63.66
368.999	22.7
369.209	0.17
369.42	102.57
369.631	137.38
369.842	73.9
370.053	45.23
370.264	30.89
370.474	47.27
370.685	69.8
370.896	-34.64
371.107	67.75
371.317	45.23
371.528	80.04
371.739	69.8
371.95	18.6
372.16	53.42
372.371	-24.4
372.582	-28.5
372.792	71.85
373.003	57.51
373.214	80.04
373.424	112.81
373.635	131.24
373.846	41.13
374.056	98.47
374.267	139.43
374.477	100.52
374.688	75.95
374.898	121
375.109	94.38
375.319	77.99
375.53	86.19
375.74	63.66
375.951	86.19
376.161	67.75
376.372	45.23
376.582	90.28
376.793	34.99
377.003	59.56
377.214	112.81
377.424	28.84
377.635	104.62
377.845	80.04
378.055	123.05
378.266	37.03
378.476	16.55
378.686	53.42
378.897	63.66
379.107	104.62
379.317	86.19
379.528	51.37
379.738	10.41
379.948	24.75
380.158	135.34
380.369	75.95
380.579	104.62
380.789	159.91
380.999	75.95
381.21	118.95
381.42	65.71
381.63	-5.97
381.84	86.19
382.05	88.23
382.261	112.81
382.471	114.86
382.681	73.9
382.891	55.47
383.101	108.71
383.311	47.27
383.521	16.55
383.731	71.85
383.941	104.62
384.151	-18.26
384.361	45.23
384.571	110.76
384.781	104.62
384.991	61.61
385.201	8.36
385.411	0.17
385.621	106.67
385.831	75.95
386.041	77.99
386.251	73.9
386.461	96.43
386.671	6.31
386.881	22.7
387.091	20.65
387.301	110.76
387.511	65.71
387.72	20.65
387.93	84.14
388.14	129.19
388.35	12.46
388.56	80.04
388.769	151.72
388.979	71.85
389.189	65.71
389.399	43.18
389.609	45.23
389.818	114.86
390.028	75.95
390.238	57.51
390.447	43.18
390.657	88.23
390.867	127.14
391.076	47.27
391.286	47.27
391.496	110.76
391.705	63.66
391.915	102.57
392.125	92.33
392.334	51.37
392.544	88.23
392.753	123.05
392.963	69.8
393.172	188.58
393.382	55.47
393.591	207.02
393.801	65.71
394.01	75.95
394.22	108.71
394.429	59.56
394.639	108.71
394.848	172.2
395.058	61.61
395.267	116.9
395.477	227.5
395.686	94.38
395.895	116.9
396.105	145.58
396.314	104.62
396.524	92.33
396.733	161.96
396.942	145.58
397.152	139.43
397.361	41.13
397.57	28.84
397.78	178.34
397.989	166.06
398.198	178.34
398.407	106.67
398.617	116.9
398.826	108.71
399.035	121
399.244	192.68
399.453	88.23
399.663	133.29
399.872	135.34
400.081	116.9
400.29	188.58
400.499	121
400.708	172.2
400.917	168.1
401.127	184.49
401.336	149.67
401.545	250.02
401.754	149.67
401.963	178.34
402.172	63.66
402.381	170.15
402.59	71.85
402.799	164.01
403.008	198.82
403.217	110.76
403.426	159.91
403.635	180.39
403.844	182.44
404.053	157.86
404.262	202.92
404.471	180.39
404.68	121
404.888	180.39
405.097	149.67
405.306	133.29
405.515	166.06
405.724	145.58
405.933	254.12
406.142	194.73
406.35	293.03
406.559	202.92
406.768	194.73
406.977	252.07
407.185	233.64
407.394	237.74
407.603	211.11
407.812	227.5
408.02	235.69
408.229	290.98
408.438	309.41
408.646	262.31
408.855	241.83
409.064	309.41
409.272	250.02
409.481	387.24
409.69	309.41
409.898	342.18
410.107	366.76
410.315	331.94
410.524	399.52
410.733	377
410.941	358.57
411.15	483.49
411.358	546.98
411.567	479.4
411.775	391.33
411.984	467.11
412.192	456.87
412.401	485.54
412.609	544.93
412.818	585.89
413.026	495.78
413.234	577.7
413.443	612.51
413.651	598.18
413.86	698.53
414.068	680.1
414.276	796.83
414.485	712.86
414.693	825.5
414.901	772.25
415.11	772.25
415.318	788.64
415.526	800.93
415.734	827.55
415.943	903.32
416.151	989.34
416.359	923.8
416.567	979.1
416.776	1001.63
416.984	1091.74
417.192	1149.08
417.4	1163.42
417.608	1087.64
417.817	1157.27
418.025	1208.47
418.233	1378.45
418.441	1308.82
418.649	1349.78
418.857	1495.19
419.065	1468.56
419.273	1421.46
419.481	1581.2
419.689	1687.7
419.897	1648.79
420.105	1755.28
420.313	1826.96
420.521	1796.24
420.729	1818.77
420.937	1857.68
421.145	1972.36
421.353	2103.43
421.561	2287.75
421.769	2312.33
421.977	2343.05
422.185	2420.87
422.393	2424.97
422.601	2590.85
422.809	2545.8
423.017	2541.7
423.224	2676.87
423.432	2799.74
423.64	2965.63
423.848	3195
424.056	3039.36
424.263	3248.25
424.471	3307.64
424.679	3350.65
424.887	3418.23
425.094	3719.28
425.302	3756.15
425.51	3819.63
425.718	3825.78
425.925	3956.85
426.133	4192.36
426.341	4364.39
426.548	4520.04
426.756	4438.12
426.964	4665.44
427.171	4808.8
427.379	4853.86
427.586	5034.08
427.794	5193.82
428.001	5455.96
428.209	5576.79
428.417	5560.41
428.624	5947.47
428.832	5834.83
429.039	5970
429.247	5830.74
429.454	6477.9
429.662	6895.68
429.869	6432.84
430.076	6879.3
430.284	6781
430.491	7049.28
430.699	7573.56
430.906	7297.08
431.114	7622.71
431.321	7792.69
431.528	7983.15
431.736	8486.95
431.943	8767.52
432.15	8695.85
432.358	8831.01
432.565	9240.61
432.772	9279.52
432.979	9658.39
433.187	9637.91
433.394	9998.35
433.601	10295.31
433.808	10534.92
434.016	10385.42
434.223	10958.85
434.43	11485.18
434.637	11243.52
434.844	11909.11
435.052	12269.55
435.259	12042.23
435.466	12431.34
435.673	12025.84
435.88	12824.55
436.087	13451.23
436.294	13776.86
436.501	13182.95
436.708	13516.76
436.915	14165.97
437.122	14655.44
437.329	14553.04
437.537	15105.99
437.743	15259.59
437.95	15355.84
438.157	15929.27
438.364	16631.72
438.571	16578.48
438.778	16779.18
438.985	18003.86
439.192	17395.62
439.399	17827.74
439.606	17596.32
439.813	18395.03
440.02	19867.52
440.227	19347.33
440.433	19527.55
440.64	19959.67
440.847	19754.88
441.054	20105.08
441.261	21567.33
441.467	21112.68
441.674	21548.9
441.881	22415.19
442.088	22501.2
442.294	22177.62
442.501	22556.5
442.708	23310.15
442.914	24373.05
443.121	25251.63
443.328	24733.49
443.534	26023.71
443.741	25573.16
443.948	25272.11
444.154	27051.79
444.361	26785.55
444.568	27408.14
444.774	26918.67
444.981	27604.74
445.187	28434.17
445.394	29363.95
445.6	28880.63
445.807	31704.77
446.013	30383.84
446.22	30834.39
446.426	32065.22
446.633	32487.1
446.839	33711.78
447.046	32173.76
447.252	34113.19
447.459	33881.77
447.665	33488.56
447.871	35133.07
448.078	36650.62
448.284	34909.85
448.491	35849.86
448.697	37039.73
448.903	37813.87
449.11	37805.67
449.316	37176.95
449.522	37910.12
449.728	39083.61
449.935	39091.8
450.141	38956.63
450.347	40406.59
450.553	39011.93
450.76	39024.22
450.966	40439.36
451.172	39818.83
451.378	40953.4
451.584	40062.54
451.791	40930.87
451.997	40803.9
452.203	41645.62
452.409	41768.49
452.615	41297.46
452.821	39624.27
453.027	39415.38
453.233	41483.83
453.44	39943.75
453.646	40085.06
453.852	40343.11
454.058	41115.19
454.264	39804.49
454.47	40136.26
454.676	39882.31
454.882	41080.38
455.088	37375.6
455.294	37944.94
455.5	38071.91
455.705	38784.6
455.911	37453.42
456.117	36445.82
456.323	36349.57
456.529	34295.46
456.735	35610.25
456.941	34672.28
457.147	34287.26
457.352	33236.66
457.558	32638.65
457.764	32513.72
457.97	32024.26
458.176	31182.54
458.381	31626.95
458.587	29898.47
458.793	30217.95
458.999	28595.96
459.204	30389.98
459.41	29867.75
459.616	27506.44
459.821	27631.37
460.027	27428.62
460.233	26871.57
460.438	25894.69
460.644	25876.26
460.85	24780.59
461.055	24624.95
461.261	24538.93
461.466	22734.67
461.672	22124.38
461.878	23406.41
462.083	21991.26
462.289	21497.7
462.494	21598.05
462.7	20158.33
462.905	20109.18
463.111	20664.18
463.316	20490.1
463.522	20236.15
463.727	20252.53
463.932	20068.22
464.138	19967.87
464.343	20215.67
464.549	19453.83
464.754	20254.58
464.959	19900.28
465.165	19949.43
465.37	19259.27
465.575	18288.53
465.781	19189.64
465.986	19359.62
466.191	18814.86
466.397	18268.05
466.602	17663.9
466.807	18075.54
467.012	18143.13
467.218	18266
467.423	18091.93
467.628	17989.53
467.833	18706.32
468.038	17655.71
468.244	17403.81
468.449	18005.91
468.654	17536.93
468.859	17207.2
469.064	17235.88
469.269	16838.57
469.474	16762.79
469.679	17016.74
469.885	16674.73
470.09	16924.58
470.295	16809.9
470.5	16439.22
470.705	16328.63
470.91	16041.91
471.115	15867.83
471.32	16271.28
471.525	16029.62
471.73	15724.47
471.935	15513.53
472.139	15222.72
472.344	15140.8
472.549	15251.39
472.754	14956.49
472.959	14587.85
473.164	14325.71
473.369	14125.01
473.574	14610.38
473.778	14485.45
473.983	14366.67
474.188	14286.8
474.393	13610.97
474.598	13985.75
474.802	13539.29
475.007	13557.72
475.212	13543.39
475.417	13012.96
475.621	12953.57
475.826	13113.31
476.031	12861.41
476.235	12570.6
476.44	12709.86
476.645	12576.75
476.849	12814.31
477.054	12423.15
477.259	12238.83
477.463	12040.18
477.668	11896.82
477.872	11907.06
478.077	11745.27
478.282	11802.61
478.486	11694.07
478.691	11581.43
478.895	11560.95
479.1	11194.37
479.304	11368.45
479.509	11034.63
479.713	11350.01
479.918	11028.48
480.122	10893.32
480.326	10897.41
480.531	11118.59
480.735	10678.28
480.94	10674.18
481.144	11208.7
481.348	10479.63
481.553	10686.47
481.757	10385.42
481.961	10530.83
482.166	10733.57
482.37	10571.79
482.574	10479.63
482.778	10647.56
482.983	10856.45
483.187	10622.98
483.391	10668.04
483.595	10432.52
483.8	10483.72
484.004	10422.28
484.208	10747.91
484.412	10618.89
484.616	10524.68
484.821	10479.63
485.025	10387.47
485.229	10553.35
485.433	10422.28
485.637	10594.31
485.841	10403.85
486.045	10446.86
486.249	10543.11
486.453	10438.67
486.657	10604.55
486.861	10467.34
487.065	10344.46
487.269	10418.19
487.473	10321.93
487.677	10682.38
487.881	10676.23
488.085	10346.51
488.289	10416.14
488.493	10686.47
488.697	10719.24
488.901	10475.53
489.105	10315.79
489.309	10680.33
489.512	10627.08
489.716	10899.46
489.92	10551.31
490.124	10459.15
490.328	10823.69
490.531	10659.85
490.735	10825.73
490.939	10733.57
491.143	10756.1
491.346	10678.28
491.55	10917.89
491.754	11010.05
491.958	10989.57
492.161	10840.07
492.365	11083.78
492.569	11008
492.772	11014.15
492.976	11128.83
493.18	11227.14
493.383	11366.4
493.587	11438.08
493.79	11573.24
493.994	11380.73
494.197	11556.86
494.401	11628.54
494.605	11565.05
494.808	11831.29
495.012	11808.76
495.215	11900.92
495.419	12126.19
495.622	12068.85
495.825	12193.78
496.029	12357.61
496.232	12519.4
496.436	12390.38
496.639	12752.87
496.843	12673
497.046	12918.76
497.249	13082.6
497.453	13139.94
497.656	13268.96
497.859	13201.38
498.063	13266.91
498.266	13440.99
498.469	13522.91
498.673	13770.71
498.876	13866.97
499.079	14145.49
499.282	14165.97
499.485	14268.37
499.689	14381.01
499.892	14895.05
500.095	14927.81
500.298	15077.32
500.501	14974.92
500.705	15462.33
500.908	15445.95
501.111	15599.55
501.314	15833.02
501.517	15847.35
501.72	16326.58
501.923	16082.87
502.126	16605.1
502.329	16838.57
502.532	17123.24
502.735	16875.43
502.938	17307.55
503.141	17336.23
503.344	17426.34
503.547	17876.89
503.75	17997.72
503.953	18083.73
504.156	18079.64
504.359	18542.48
504.562	18593.68
504.765	19060.62
504.968	19097.48
505.17	19195.78
505.373	19267.46
505.576	19613.57
505.779	20086.65
505.982	20141.94
506.185	20406.13
506.387	20707.18
506.59	20627.31
506.793	20991.85
506.996	21215.08
507.198	21401.44
507.401	21518.18
507.604	21903.2
507.807	22396.76
508.009	22363.99
508.212	22277.97
508.415	22701.9
508.617	22933.32
508.82	22980.43
509.022	22820.69
509.225	23371.59
509.428	23680.83
509.63	24031.04
509.833	23924.54
510.035	24725.3
510.238	24477.49
510.44	24897.33
510.643	25302.82
510.845	25407.27
511.048	25112.36
511.25	25769.76
511.453	25898.78
511.655	26861.33
511.858	26656.53
512.06	26724.11
512.262	27174.67
512.465	27107.09
512.667	27526.92
512.87	27655.94
513.072	27709.19
513.274	28225.28
513.477	28724.98
513.679	28919.54
513.881	29181.68
514.084	29517.54
514.286	29290.22
514.488	30074.59
514.69	30375.64
514.893	30168.8
515.095	30318.3
515.297	30873.3
515.499	31082.19
515.701	31551.18
515.904	31510.22
516.106	31600.33
516.308	32169.66
516.51	32458.43
516.712	32530.11
516.914	32825.01
517.116	33347.25
517.318	33218.22
517.52	33533.61
517.722	33685.16
517.925	34035.36
518.127	34760.34
518.329	35053.2
518.531	34760.34
518.733	35661.45
518.935	35528.33
519.136	35378.83
519.338	36169.35
519.54	36003.46
519.742	36226.69
519.944	36613.76
520.146	37301.87
520.348	37267.06
520.55	37396.08
520.752	37756.52
520.954	38297.19
521.155	38231.65
521.357	38626.91
521.559	38913.62
521.761	39511.63
521.963	39226.96
522.164	39972.42
522.366	39429.71
522.568	40089.16
522.77	40275.52
522.971	40746.56
523.173	40619.58
523.375	40650.3
523.576	40947.26
523.778	41025.08
523.98	41573.94
524.181	41698.86
524.383	41451.06
524.584	42339.88
524.786	42104.36
524.988	42327.59
525.189	42542.63
525.391	42898.97
525.592	43068.95
525.794	43329.05
525.995	43261.46
526.197	43343.38
526.398	43230.74
526.6	43415.06
526.801	43519.51
527.003	43994.64
527.204	44086.79
527.406	44467.72
527.607	44326.41
527.808	44680.7
528.01	44178.95
528.211	44703.23
528.412	45596.15
528.614	45229.56
528.815	44879.36
529.016	45149.69
529.218	44983.8
529.419	45211.13
529.62	45260.28
529.822	45467.12
530.023	45262.33
530.224	45393.4
530.425	45809.14
530.626	45839.86
530.828	45188.6
531.029	46288.36
531.23	45614.58
531.431	45712.88
531.632	45788.66
531.833	46239.21
532.035	46081.52
532.236	46026.22
532.437	46603.75
532.638	46380.52
532.839	46343.66
533.04	46501.35
533.241	45952.49
533.442	46677.47
533.643	46484.97
533.844	46308.84
534.045	46591.46
534.246	46130.67
534.447	46677.47
534.648	46097.9
534.849	46112.24
535.05	46218.73
535.251	46415.33
535.451	46865.89
535.652	46452.2
535.853	46372.33
536.054	46575.08
536.255	47105.5
536.456	46235.11
536.657	46800.35
536.857	46304.74
537.058	46401
537.259	46370.28
537.46	46685.67
537.66	46530.02
537.861	46716.39
538.062	46405.09
538.263	46640.61
538.463	46106.09
538.664	46284.26
538.865	46474.73
539.065	46898.66
539.266	46177.77
539.466	47214.04
539.667	46048.75
539.868	46595.56
540.068	46292.46
540.269	46562.79
540.469	46687.71
540.67	46294.5
540.87	46284.26
541.071	46605.8
541.271	46566.88
541.472	46579.17
541.672	46347.75
541.873	46419.43
542.073	45751.79
542.274	46542.31
542.474	46345.7
542.675	45843.95
542.875	46788.06
543.075	46628.32
543.276	45843.95
543.476	46912.99
543.676	46472.68
543.877	46611.94
544.077	46603.75
544.277	46282.22
544.478	46284.26
544.678	46943.71
544.878	46263.78
545.078	46450.15
545.279	46077.42
545.479	46353.9
545.679	46214.63
545.879	46228.97
546.079	46278.12
546.28	46050.8
546.48	46192.11
546.68	46439.91
546.88	46419.43
547.08	46646.75
547.28	45846
547.48	46087.66
547.68	46472.68
547.88	45602.29
548.081	46618.08
548.281	46005.74
548.481	45878.77
548.681	46476.77
548.881	46114.28
549.081	46226.92
549.28	45731.31
549.48	46036.46
549.68	45983.21
549.88	46806.5
550.08	46065.13
550.28	45901.29
550.48	45620.72
550.68	46669.28
550.88	45737.46
551.08	45911.53
551.279	45997.55
551.479	45731.31
551.679	45706.74
551.879	45923.82
552.079	46003.69
552.278	45714.93
552.478	45952.49
552.678	45936.11
552.878	46349.8
553.077	45833.71
553.277	45581.81
553.477	46110.19
553.676	45762.03
553.876	45721.07
554.076	45534.71
554.275	45428.21
554.475	45094.39
554.674	45649.39
554.874	45563.38
555.074	45653.49
555.273	45364.73
555.473	45602.29
555.672	45583.86
555.872	45401.59
556.071	45204.98
556.271	45501.94
556.47	45186.55
556.67	44998.14
556.869	45002.24
557.068	45583.86
557.268	45100.54
557.467	44895.74
557.667	44973.56
557.866	45260.28
558.065	44969.47
558.265	44822.01
558.464	44670.47
558.663	45098.49
558.863	44670.47
559.062	45215.22
559.261	44346.89
559.461	45192.7
559.66	44453.38
559.859	44690.94
560.058	44439.04
560.258	44619.27
560.457	44273.16
560.656	44940.8
560.855	44191.24
561.054	44475.91
561.253	44353.03
561.453	44426.76
561.652	44191.24
561.851	44551.68
562.05	44391.94
562.249	43802.13
562.448	44078.6
562.647	44248.58
562.846	43961.87
563.045	44015.12
563.244	43345.43
563.443	44158.47
563.642	43296.28
563.841	43333.14
564.04	43611.67
564.239	43918.86
564.438	43249.17
564.637	43724.3
564.836	43556.37
565.035	42925.6
565.234	43200.02
565.432	43191.83
565.631	43214.36
565.83	42968.6
566.029	42958.36
566.228	42307.11
566.427	42743.33
566.625	42640.93
566.824	42116.65
567.023	43040.28
567.222	41838.12
567.42	42800.67
567.619	42499.62
567.818	42118.7
568.016	41905.71
568.215	42569.25
568.414	42305.06
568.612	42044.97
568.811	41283.12
569.01	41983.53
569.208	41846.32
569.407	42077.74
569.605	41137.72
569.804	41731.63
570.002	41442.87
570.201	41514.55
570.4	41266.74
570.598	41131.58
570.797	40867.39
570.995	41391.67
571.193	40855.1
571.392	41262.65
571.59	40863.29
571.789	40977.98
571.987	40707.65
572.186	40777.28
572.384	40431.17
572.582	40826.43
572.781	40586.82
572.979	40113.73
573.177	40398.4
573.376	40349.25
573.574	39960.14
573.772	39968.33
573.971	39902.79
574.169	39839.31
574.367	39683.66
574.565	39755.34
574.763	39700.04
574.962	39321.17
575.16	39194.2
575.358	39525.97
575.556	39480.91
575.754	39659.09
575.952	38862.43
576.151	39130.71
576.349	38815.32
576.547	38887
576.745	38719.07
576.943	38962.78
577.141	38495.84
577.339	38375.01
577.537	38528.61
577.735	38571.61
577.933	38006.37
578.131	38440.54
578.329	38270.56
578.527	37738.09
578.725	38198.88
578.923	38131.3
579.121	37863.02
579.319	37899.88
579.516	38102.63
579.714	37572.21
579.912	37502.57
580.11	37535.34
580.308	37703.28
580.506	37117.56
580.704	36613.76
580.901	37095.03
581.099	37281.39
581.297	36824.7
581.495	36796.03
581.692	36691.58
581.89	36916.86
582.088	37150.32
582.285	36359.81
582.483	36454.01
582.681	36503.17
582.878	36175.49
583.076	35896.97
583.274	36302.46
583.471	35886.73
583.669	36095.62
583.866	35786.38
584.064	36009.61
584.262	35491.47
584.459	35860.1
584.657	35255.95
584.854	35911.3
585.052	34797.21
585.249	35538.57
585.447	35280.53
585.644	35071.64
585.841	35182.23
586.039	35192.47
586.236	35090.07
586.434	34680.47
586.631	34737.82
586.828	34610.84
587.026	34881.17
587.223	34772.63
587.42	34221.73
587.618	34514.59
587.815	34055.84
588.012	34139.81
588.21	33875.62
588.407	34047.65
588.604	33838.76
588.801	34057.89
588.999	33519.28
589.196	33633.96
589.393	33695.4
589.59	33386.16
589.787	33298.09
589.984	33076.91
590.182	32622.26
590.379	33300.14
590.576	33078.96
590.773	33300.14
590.97	32841.4
591.167	32528.06
591.364	32366.27
591.561	32872.12
591.758	32419.52
591.955	32083.65
592.152	32536.25
592.349	32276.16
592.546	32376.51
592.743	32106.18
592.94	31665.86
593.137	32052.93
593.334	31837.89
593.531	31356.62
593.727	31733.45
593.924	31624.9
594.121	31223.5
594.318	31721.16
594.515	31045.33
594.712	31366.86
594.908	31184.59
595.105	31506.12
595.302	30994.13
595.499	31315.66
595.696	30531.29
595.892	30549.72
596.089	30867.16
596.286	30609.11
596.482	30330.59
596.679	30301.92
596.876	30289.63
597.072	29978.34
597.269	29859.56
597.466	29800.16
597.662	29974.24
597.859	29728.49
598.055	30064.35
598.252	29714.15
598.448	29765.35
598.645	29503.21
598.841	29388.52
599.038	29437.67
599.234	29351.66
599.431	29099.76
599.627	28815.09
599.824	29370.09
600.02	28905.2
600.217	28911.35
600.413	28782.32
600.609	28505.85
600.806	28446.46
601.002	28862.19
601.198	28466.94
601.395	28237.56
601.591	28188.41
601.787	28018.43
601.984	28210.94
602.18	28321.53
602.376	27475.72
602.572	27918.08
602.769	27944.7
602.965	27453.19
603.161	27393.8
603.357	27512.58
603.553	27766.53
603.75	27588.36
603.946	27154.19
604.142	27363.08
604.338	26640.15
604.534	27330.31
604.73	27049.74
604.926	26730.26
605.122	27086.61
605.318	26597.14
605.514	26619.67
605.71	26316.57
605.906	26296.09
606.102	26453.78
606.298	26394.39
606.494	26525.46
606.69	26638.1
606.886	26388.25
607.082	26412.82
607.278	26562.33
607.474	26076.96
607.67	26246.94
607.866	25788.19
608.062	26205.98
608.257	25745.19
608.453	25607.97
608.649	26005.28
608.845	25548.58
609.041	25526.05
609.236	25607.97
609.432	25325.35
609.628	25405.22
609.824	25401.13
610.019	25257.77
610.215	25528.1
610.411	25691.94
610.606	25155.37
610.802	25663.27
610.998	25206.57
611.193	25462.57
611.389	24846.13
611.584	25034.54
611.78	24913.71
611.976	25089.84
612.171	25069.36
612.367	25055.02
612.562	24426.29
612.758	24633.14
612.953	24368.95
613.149	24903.47
613.344	24485.69
613.539	24784.69
613.735	24688.43
613.93	24788.78
614.126	24614.71
614.321	24526.64
614.517	24477.49
614.712	24303.42
614.907	24489.78
615.103	24342.33
615.298	24497.97
615.493	24641.33
615.688	23850.81
615.884	24491.83
616.079	23963.45
616.274	24264.5
616.47	24362.81
616.665	24010.56
616.86	23863.1
617.055	24012.6
617.25	23740.22
617.445	23951.17
617.641	23506.76
617.836	23828.29
618.031	23131.98
618.226	23689.03
618.421	23349.06
618.616	23674.69
618.811	23152.46
619.006	23381.83
619.201	22914.89
619.396	23095.11
619.591	22910.8
619.786	23240.52
619.981	22914.89
620.176	22955.85
620.371	22329.17
620.566	22679.38
620.761	22556.5
620.956	22808.4
621.151	22017.88
621.346	22394.71
621.541	21847.9
621.735	22175.58
621.93	21679.97
622.125	21940.06
622.32	21473.12
622.515	21755.74
622.709	21290.85
622.904	21577.57
623.099	21307.24
623.294	21376.87
623.488	20911.98
623.683	21043.05
623.878	20629.36
624.072	20557.68
624.267	20600.69
624.462	20612.98
624.656	20426.61
624.851	20295.54
625.046	20356.98
625.24	20203.38
625.435	19967.87
625.629	19998.59
625.824	19881.85
626.018	19586.94
626.213	19095.43
626.407	19543.94
626.602	19525.5
626.796	19326.85
626.991	19431.3
627.185	19163.01
627.38	19038.09
627.574	18913.16
627.768	18780.04
627.963	18859.91
628.157	18710.41
628.352	18847.63
628.546	18139.03
628.74	18388.88
628.935	17944.47
629.129	18347.92
629.323	17827.74
629.517	17825.69
629.712	17780.64
629.906	17592.22
630.1	17559.45
630.294	17559.45
630.489	17668
630.683	17622.94
630.877	17209.25
631.071	17371.04
631.265	16961.45
631.459	16857
631.653	16926.63
631.848	17106.85
632.042	16906.15
632.236	17053.61
632.43	16508.85
632.624	16576.43
632.818	16478.13
633.012	16291.76
633.206	16357.3
633.4	16279.47
633.594	16093.11
633.788	16187.32
633.982	15992.76
634.176	15951.8
634.369	15744.95
634.563	15650.75
634.757	15673.28
634.951	15585.21
635.145	15159.24
635.339	15462.33
635.533	15325.12
635.726	15239.11
635.92	15425.47
636.114	15228.87
636.308	14964.68
636.501	15153.09
636.695	14915.53
636.889	14745.55
637.083	14387.15
637.276	14741.45
637.47	14669.77
637.664	14507.98
637.857	14491.6
638.051	14641.1
638.244	14100.44
638.438	14129.11
638.632	14045.14
638.825	14106.58
639.019	14002.13
639.212	14061.52
639.406	14053.33
639.599	13969.37
639.793	13744.09
639.986	13455.33
640.18	13776.86
640.373	13586.4
640.567	13256.67
640.76	13510.62
640.954	13393.89
641.147	13156.32
641.34	13162.47
641.534	13135.84
641.727	13264.86
641.92	13027.3
642.114	12896.23
642.307	12779.5
642.5	12902.37
642.694	12756.97
642.887	12699.62
643.08	12589.03
643.273	12380.14
643.467	12548.08
643.66	12310.51
643.853	12195.82
644.046	12230.64
644.239	12392.43
644.432	12054.51
644.626	11962.36
644.819	12087.28
645.012	12023.8
645.205	11845.62
645.398	11732.98
645.591	11667.45
645.784	11552.76
645.977	11298.81
646.17	11683.83
646.363	11800.57
646.556	11421.69
646.749	11177.98
646.942	11317.25
647.135	11450.36
647.328	11294.72
647.521	11030.53
647.714	11124.74
647.907	11151.36
648.099	10866.69
648.292	10973.19
648.485	10997.76
648.678	10842.12
648.871	10780.68
649.064	10747.91
649.256	10858.5
649.449	10682.38
649.642	10735.62
649.835	10522.63
650.027	10418.19
650.22	10262.54
650.413	10338.32
650.605	10432.52
650.798	10254.35
650.991	10147.86
651.183	10299.41
651.376	9963.54
651.568	10000.4
651.761	9795.61
651.954	9959.44
652.146	9855
652.339	9924.63
652.531	9799.7
652.724	9840.66
652.916	9576.47
653.109	9685.01
653.301	9670.68
653.494	9504.79
653.686	9623.58
653.879	9457.69
654.071	9431.07
654.263	9265.18
654.456	9334.81
654.648	9340.96
654.84	9152.54
655.033	9310.24
655.225	9044
655.417	9248.8
655.61	9044
655.802	8976.42
655.994	8693.8
656.186	9000.99
656.379	8804.39
656.571	8673.32
656.763	8673.32
656.955	8544.3
657.148	8605.74
657.34	8669.22
657.532	8620.07
657.724	8507.43
657.916	8470.57
658.108	8534.06
658.3	8316.97
658.492	8466.47
658.684	8314.92
658.876	8284.2
659.068	8222.77
659.26	7886.9
659.452	8124.46
659.644	8165.42
659.836	8128.56
660.028	7970.87
660.22	7911.47
660.412	7970.87
660.604	7667.77
660.796	7872.56
660.988	7948.34
661.18	7788.6
661.372	7794.74
661.563	7706.68
661.755	7610.42
661.947	7608.37
662.139	7579.7
662.331	7413.82
662.522	7520.31
662.714	7387.19
662.906	7170.11
663.097	7290.94
663.289	7321.66
663.481	7233.6
663.673	7303.23
663.864	7256.12
664.056	7288.89
664.247	7161.92
664.439	7032.9
664.631	7190.59
664.822	7090.24
665.014	7073.85
665.205	6817.86
665.397	7008.32
665.588	7080
665.78	6709.32
665.971	6903.87
666.163	6811.71
666.354	6754.37
666.546	6699.08
666.737	6629.45
666.929	6520.9
667.12	6463.56
667.311	6582.34
667.503	6543.43
667.694	6490.18
667.885	6455.37
668.077	6488.14
668.268	6264.91
668.459	6189.13
668.651	6344.78
668.842	6416.46
669.033	6248.52
669.224	6248.52
669.416	6217.8
669.607	6139.98
669.798	6199.37
669.989	6266.96
670.18	6043.73
670.371	5883.98
670.563	5965.9
670.754	6021.2
670.945	5970
671.136	5972.05
671.327	5896.27
671.518	5990.48
671.709	5748.82
671.9	5988.43
672.091	5783.63
672.282	5763.15
672.473	5650.52
672.664	5800.02
672.855	5589.08
673.046	5724.24
673.237	5840.98
673.428	5718.1
673.619	5517.4
673.809	5623.89
674	5554.26
674.191	5574.74
674.382	5371.99
674.573	5474.39
674.764	5613.65
674.954	5523.54
675.145	5384.28
675.336	5288.03
675.527	5546.07
675.717	5234.78
675.908	5355.61
676.099	5347.42
676.289	5431.38
676.48	5245.02
676.671	5333.08
676.861	5232.73
677.052	5369.94
677.243	5224.54
677.433	5113.95
677.624	5312.6
677.814	5179.48
678.005	5144.67
678.195	5118.04
678.386	4927.58
678.576	4984.93
678.767	4880.48
678.957	4984.93
679.148	5124.19
679.338	5103.71
679.529	4896.86
679.719	5032.03
679.909	5099.61
680.1	4913.25
680.29	4948.06
680.481	4943.97
680.671	4835.42
680.861	4907.1
681.052	4907.1
681.242	4835.42
681.432	5011.55
681.622	4690.02
681.813	4741.22
682.003	4845.66
682.193	4638.82
682.383	4546.66
682.573	4659.3
682.764	4690.02
682.954	4636.77
683.144	4704.35
683.334	4651.11
683.524	4589.67
683.714	4712.55
683.904	4536.42
684.094	4622.44
684.284	4581.48
684.474	4626.53
684.664	4448.36
684.854	4599.91
685.044	4440.17
685.234	4397.16
685.424	4499.56
685.614	4243.56
685.804	4159.6
685.994	4452.45
686.184	4450.41
686.374	4354.15
686.564	4253.8
686.753	4511.85
686.943	4337.77
687.133	4300.91
687.323	4077.68
687.513	4298.86
687.702	4044.91
687.892	4206.7
688.082	4155.5
688.272	4368.49
688.461	4173.93
688.651	4126.83
688.841	4057.2
689.03	4065.39
689.22	4063.34
689.41	3872.88
689.599	4020.33
689.789	4092.01
689.979	4038.77
690.168	4044.91
690.358	3905.65
690.547	3860.59
690.737	4024.43
690.926	3930.22
691.116	3936.37
691.305	3924.08
691.495	3774.58
691.684	3799.15
691.874	3836.02
692.063	3907.7
692.252	3952.75
692.442	3893.36
692.631	3569.78
692.82	3772.53
693.01	3623.03
693.199	3729.52
693.388	3614.84
693.578	3727.47
693.767	3618.93
693.956	3526.77
694.146	3573.88
694.335	3565.68
694.524	3735.67
694.713	3565.68
694.902	3549.3
695.092	3399.8
695.281	3530.87
695.47	3559.54
695.659	3528.82
695.848	3389.56
696.037	3444.85
696.226	3401.85
696.415	3313.78
696.604	3534.96
696.793	3457.14
696.982	3401.85
697.171	3364.98
697.36	3520.63
697.549	3301.5
697.738	3383.42
697.927	3315.83
698.116	3356.79
698.305	3305.59
698.494	3258.49
698.683	3268.73
698.872	3289.21
699.061	3147.9
699.25	3156.09
699.438	3250.3
699.627	3283.06
699.816	3354.74
700.005	3170.43
700.193	3213.43
700.382	3264.63
700.571	3293.3
700.76	3238.01
700.948	3229.82
701.137	2990.21
701.326	3203.19
701.514	3096.7
701.703	3240.06
701.892	3151.99
702.08	3174.52
702.269	3276.92
702.457	3092.6
702.646	3055.74
702.834	3172.47
703.023	3176.57
703.212	3086.46
703.4	3119.23
703.589	3051.64
703.777	3025.02
703.965	2994.3
704.154	3104.89
704.342	3053.69
704.531	3151.99
704.719	2957.44
704.907	3086.46
705.096	2982.01
705.284	2857.09
705.472	2928.77
705.661	2936.96
705.849	3090.56
706.037	2996.35
706.226	2988.16
706.414	3111.04
706.602	2994.3
706.79	2992.25
706.979	2959.49
707.167	2936.96
707.355	2861.18
707.543	2855.04
707.731	2984.06
707.919	2951.29
708.107	2902.14
708.296	2902.14
708.484	2793.6
708.672	2918.53
708.86	2812.03
709.048	2791.55
709.236	2932.86
709.424	2918.53
709.612	2969.73
709.8	2904.19
709.988	2836.61
710.176	2943.1
710.364	2934.91
710.551	2838.66
710.739	2945.15
710.927	2773.12
711.115	2771.07
711.303	2893.95
711.491	2961.53
711.679	2898.05
711.866	2791.55
712.054	2807.94
712.242	2857.09
712.43	2803.84
712.617	2775.17
712.805	2930.81
712.993	2840.7
713.181	2762.88
713.368	2906.24
713.556	2834.56
713.744	2734.21
713.931	2764.93
714.119	2855.04
714.306	2818.18
714.494	2816.13
714.682	2719.87
714.869	2670.72
715.057	2719.87
715.244	2777.22
715.432	2781.31
715.619	2730.11
715.807	2822.27
715.994	2797.7
716.182	2680.96
716.369	2791.55
716.556	2758.78
716.744	2748.54
716.931	2914.43
717.119	2701.44
717.306	2701.44
717.493	2701.44
717.681	2621.57
717.868	2773.12
718.055	2818.18
718.242	2697.35
718.43	2783.36
718.617	2621.57
718.804	2652.29
718.991	2648.19
719.179	2754.69
719.366	2627.71
719.553	2734.21
719.74	2709.63
719.927	2631.81
720.114	2738.3
720.301	2662.53
720.488	2674.82
720.676	2666.63
720.863	2627.71
721.05	2603.14
721.237	2541.7
721.424	2676.87
721.611	2699.39
721.798	2584.71
721.985	2648.19
722.172	2644.1
722.358	2605.19
722.545	2617.47
722.732	2646.15
722.919	2582.66
723.106	2691.2
723.293	2758.78
723.48	2705.54
723.667	2537.6
723.853	2668.67
724.04	2652.29
724.227	2527.36
724.414	2820.22
724.6	2545.8
724.787	2713.73
724.974	2658.43
725.161	2680.96
725.347	2564.23
725.534	2658.43
725.72	2607.23
725.907	2642.05
726.094	2660.48
726.28	2691.2
726.467	2701.44
726.653	2541.7
726.84	2627.71
727.027	2701.44
727.213	2627.71
727.4	2594.95
727.586	2590.85
727.773	2521.22
727.959	2525.32
728.145	2779.26
728.332	2689.15
728.518	2640
728.705	2578.56
728.891	2660.48
729.077	2556.04
729.264	2674.82
729.45	2697.35
729.636	2660.48
729.823	2572.42
730.009	2656.39
730.195	2597
730.382	2558.08
730.568	2693.25
730.754	2644.1
730.94	2640
731.126	2654.34
731.313	2617.47
731.499	2592.9
731.685	2500.74
731.871	2472.07
732.057	2637.95
732.243	2590.85
732.429	2617.47
732.615	2480.26
732.801	2496.64
732.987	2521.22
733.173	2584.71
733.359	2543.75
733.545	2726.02
733.731	2572.42
733.917	2623.62
734.103	2633.86
734.289	2486.4
734.475	2521.22
734.661	2410.63
734.847	2680.96
735.033	2433.16
735.219	2580.61
735.404	2594.95
735.59	2525.32
735.776	2547.84
735.962	2617.47
736.148	2642.05
736.333	2529.41
736.519	2529.41
736.705	2498.69
736.89	2543.75
737.076	2545.8
737.262	2431.11
737.447	2451.59
737.633	2519.17
737.819	2551.94
738.004	2472.07
738.19	2553.99
738.375	2531.46
738.561	2607.23
738.747	2455.69
738.932	2420.87
739.118	2506.88
739.303	2521.22
739.489	2480.26
739.674	2400.39
739.859	2506.88
740.045	2527.36
740.23	2541.7
740.416	2437.25
740.601	2429.06
740.786	2408.58
740.972	2349.19
741.157	2406.53
741.342	2431.11
741.528	2521.22
741.713	2408.58
741.898	2472.07
742.084	2400.39
742.269	2166.92
742.454	2441.35
742.639	2295.94
742.824	2257.03
743.01	2490.5
743.195	2381.96
743.38	2230.41
743.565	2295.94
743.75	2254.98
743.935	2238.6
744.12	2388.1
744.305	2279.56
744.49	2142.35
744.675	2289.8
744.86	2228.36
745.045	2218.12
745.23	2248.84
745.415	2308.23
745.6	2144.39
745.785	2132.11
745.97	2144.39
746.155	2185.35
746.34	2242.7
746.525	2103.43
746.71	2050.19
746.895	2181.26
747.079	2173.07
747.264	2191.5
747.449	2283.66
747.634	2095.24
747.819	2070.67
748.003	2107.53
748.188	2152.59
748.373	2037.9
748.557	2173.07
748.742	2134.15
748.927	2060.43
749.111	1941.65
749.296	2076.81
749.481	1998.99
749.665	2009.23
749.85	2037.9
750.034	1947.79
750.219	1962.12
750.404	1978.51
750.588	1984.65
750.773	1929.36
750.957	1992.84
751.141	1814.67
751.326	1880.21
751.51	1849.49
751.695	1902.73
751.879	1786
752.064	1851.53
752.248	1861.77
752.432	1792.14
752.617	1831.05
752.801	1783.95
752.985	1800.34
753.17	1716.37
753.354	1671.31
753.538	1767.57
753.722	1751.18
753.907	1740.94
754.091	1753.23
754.275	1667.22
754.459	1683.6
754.643	1687.7
754.828	1755.28
755.012	1814.67
755.196	1665.17
755.38	1624.21
755.564	1710.22
755.748	1603.73
755.932	1573.01
756.116	1607.83
756.3	1636.5
756.484	1530
756.668	1556.63
756.852	1452.18
757.036	1480.85
757.22	1417.37
757.404	1480.85
757.588	1515.67
757.772	1603.73
757.956	1530
758.14	1530
758.323	1464.47
758.507	1423.51
758.691	1472.66
758.875	1419.41
759.059	1411.22
759.242	1366.17
759.426	1400.98
759.61	1394.84
759.794	1349.78
759.977	1437.84
760.161	1470.61
760.345	1415.32
760.528	1357.97
760.712	1390.74
760.895	1290.39
761.079	1405.08
761.263	1314.97
761.446	1366.17
761.63	1310.87
761.813	1298.58
761.997	1239.19
762.18	1288.34
762.364	1407.13
762.547	1286.3
762.731	1220.76
762.914	1239.19
763.098	1192.09
763.281	1302.68
763.464	1308.82
763.648	1300.63
763.831	1290.39
764.015	1153.18
764.198	1282.2
764.381	1337.49
764.564	1210.52
764.748	1249.43
764.931	1292.44
765.114	1222.81
765.297	1278.1
765.481	1192.09
765.664	1233.05
765.847	1167.51
766.03	1210.52
766.213	1181.85
766.397	1163.42
766.58	1196.18
766.763	1220.76
766.946	1151.13
767.129	1187.99
767.312	1185.94
767.495	1245.34
767.678	1190.04
767.861	1167.51
768.044	1161.37
768.227	1142.94
768.41	1032.35
768.593	1114.27
768.776	1212.57
768.959	1126.55
769.142	1112.22
769.324	1108.12
769.507	1114.27
769.69	1048.73
769.873	1153.18
770.056	1130.65
770.239	1093.79
770.421	1144.99
770.604	1128.6
770.787	1089.69
770.97	1110.17
771.152	1058.97
771.335	1026.2
771.518	1013.92
771.7	1044.63
771.883	1071.26
772.066	1104.03
772.248	993.44
772.431	1046.68
772.613	983.2
772.796	1026.2
772.978	1022.11
773.161	1054.87
773.343	1024.16
773.526	932
773.708	938.14
773.891	968.86
774.073	1032.35
774.256	1009.82
774.438	950.43
774.621	936.09
774.803	932
774.985	948.38
775.168	946.33
775.35	979.1
775.532	997.53
775.715	938.14
775.897	940.19
776.079	940.19
776.261	888.99
776.444	911.52
776.626	848.03
776.808	796.83
776.99	852.13
777.173	909.47
777.355	913.56
777.537	831.65
777.719	817.31
777.901	915.61
778.083	829.6
778.265	792.73
778.447	743.58
778.629	735.39
778.811	815.26
778.993	823.45
779.175	719.01
779.357	762.02
779.539	782.49
779.721	698.53
779.903	719.01
780.085	755.87
780.267	741.54
780.449	792.73
780.631	737.44
780.812	739.49
780.994	729.25
781.176	768.16
781.358	741.54
781.54	688.29
781.721	743.58
781.903	745.63
782.085	694.43
782.267	665.76
782.448	714.91
782.63	577.7
782.812	626.85
782.993	661.66
783.175	667.81
783.357	651.42
783.538	706.72
783.72	630.95
783.901	659.62
784.083	637.09
784.264	716.96
784.446	667.81
784.627	641.18
784.809	692.38
784.99	651.42
785.172	534.69
785.353	632.99
785.535	592.03
785.716	583.84
785.897	647.33
786.079	612.51
786.26	616.61
786.441	587.94
786.623	565.41
786.804	557.22
786.985	553.12
787.167	565.41
787.348	589.99
787.529	632.99
787.71	555.17
787.891	622.75
788.073	497.83
788.254	475.3
788.435	520.35
788.616	555.17
788.797	448.68
788.978	452.77
789.159	538.79
789.34	561.31
789.522	503.97
789.703	532.64
789.884	440.48
790.065	503.97
790.246	499.88
790.427	483.49
790.607	450.72
790.788	456.87
790.969	411.81
791.15	411.81
791.331	489.64
791.512	477.35
791.693	417.96
791.874	481.44
792.054	436.39
792.235	473.25
792.416	452.77
792.597	510.11
792.778	448.68
792.958	434.34
793.139	479.4
793.32	452.77
793.5	485.54
793.681	460.96
793.862	491.68
794.042	354.47
794.223	426.15
794.404	446.63
794.584	407.72
794.765	426.15
794.945	450.72
795.126	364.71
795.306	354.47
795.487	370.85
795.667	401.57
795.848	368.81
796.028	420
796.209	340.13
796.389	393.38
796.57	422.05
796.75	329.89
796.93	422.05
797.111	360.61
797.291	366.76
797.471	348.33
797.652	362.66
797.832	344.23
798.012	434.34
798.192	323.75
798.373	333.99
798.553	280.74
798.733	317.61
798.913	301.22
799.093	346.28
799.274	325.8
799.454	346.28
799.634	297.13
799.814	329.89
799.994	393.38
800.174	319.65
800.354	227.5
800.534	305.32
800.714	370.85
800.894	313.51
801.074	315.56
801.254	356.52
801.434	317.61
801.614	358.57
801.794	362.66
801.974	714.91
802.154	315.56
802.334	403.62
802.514	235.69
802.693	327.85
802.873	254.12
803.053	350.37
803.233	325.8
803.413	301.22
803.592	258.21
803.772	276.65
803.952	227.5
804.131	323.75
804.311	241.83
804.491	331.94
804.67	180.39
804.85	258.21
805.03	282.79
805.209	338.09
805.389	288.93
805.568	272.55
805.748	258.21
805.928	219.3
806.107	286.89
806.287	233.64
806.466	297.13
806.646	266.41
806.825	305.32
807.004	241.83
807.184	264.36
807.363	237.74
807.543	368.81
807.722	219.3
807.901	254.12
808.081	305.32
808.26	252.07
808.439	280.74
808.619	207.02
808.798	235.69
808.977	239.78
809.156	235.69
809.336	204.97
809.515	256.17
809.694	233.64
809.873	225.45
810.052	262.31
810.231	264.36
810.411	229.54
810.59	186.54
810.769	278.69
810.948	274.6
811.127	225.45
811.306	235.69
811.485	254.12
811.664	235.69
811.843	182.44
812.022	168.1
812.201	243.88
812.38	172.2
812.559	153.77
812.737	198.82
812.916	161.96
813.095	211.11
813.274	260.26
813.453	207.02
813.632	247.97
813.811	182.44
813.989	178.34
814.168	145.58
814.347	157.86
814.526	155.82
814.704	215.21
814.883	184.49
815.062	108.71
815.24	227.5
815.419	110.76
815.598	209.06
815.776	202.92
815.955	121
816.133	202.92
816.312	180.39
816.49	227.5
816.669	170.15
816.847	198.82
817.026	229.54
817.204	219.3
817.383	198.82
817.561	127.14
817.74	186.54
817.918	221.35
818.097	100.52
818.275	188.58
818.453	223.4
818.632	184.49
818.81	202.92
818.988	116.9
819.167	174.25
819.345	200.87
819.523	192.68
819.701	166.06
819.879	174.25
820.058	172.2
820.236	192.68
820.414	143.53
820.592	176.3
820.77	155.82
820.948	168.1
821.127	147.62
821.305	161.96
821.483	67.75
821.661	170.15
821.839	161.96
822.017	149.67
822.195	182.44
822.373	141.48
822.551	155.82
822.729	178.34
822.907	149.67
823.085	145.58
823.262	147.62
823.44	127.14
823.618	102.57
823.796	176.3
823.974	237.74
824.152	141.48
824.329	121
824.507	108.71
824.685	184.49
824.863	159.91
825.04	145.58
825.218	166.06
825.396	141.48
825.574	82.09
825.751	155.82
825.929	170.15
826.107	129.19
826.284	143.53
826.462	106.67
826.639	137.38
826.817	137.38
826.994	121
827.172	100.52
827.349	164.01
827.527	207.02
827.704	157.86
827.882	139.43
828.059	108.71
828.237	73.9
828.414	184.49
828.591	32.94
828.769	108.71
828.946	127.14
829.124	100.52
829.301	63.66
829.478	161.96
829.655	92.33
829.833	133.29
830.01	157.86
830.187	153.77
830.364	84.14
830.542	112.81
830.719	186.54
830.896	168.1
831.073	84.14
831.25	100.52
831.427	47.27
831.604	69.8
831.782	155.82
831.959	39.08
832.136	90.28
832.313	75.95
832.49	71.85
832.667	90.28
832.844	80.04
833.021	178.34
833.198	84.14
833.374	135.34
833.551	121
833.728	133.29
833.905	108.71
834.082	69.8
834.259	96.43
834.436	192.68
834.612	104.62
834.789	92.33
834.966	65.71
835.143	75.95
835.319	77.99
835.496	116.9
835.673	65.71
835.85	116.9
836.026	98.47
836.203	65.71
836.38	102.57
836.556	131.24
836.733	67.75
836.909	104.62
837.086	137.38
837.262	139.43
837.439	80.04
837.616	61.61
837.792	71.85
837.968	80.04
838.145	43.18
838.321	129.19
838.498	43.18
838.674	71.85
838.851	73.9
839.027	77.99
839.203	57.51
839.38	80.04
839.556	123.05
839.732	84.14
839.909	-3.93
840.085	59.56
840.261	94.38
840.437	82.09
840.614	118.95
840.79	100.52
840.966	178.34
841.142	168.1
841.318	63.66
841.494	106.67
841.671	80.04
841.847	71.85
842.023	63.66
842.199	139.43
842.375	80.04
842.551	94.38
842.727	108.71
842.903	118.95
843.079	37.03
843.255	26.79
843.431	-12.12
843.607	98.47
843.783	-12.12
843.959	108.71
844.134	55.47
844.31	125.1
844.486	53.42
844.662	45.23
844.838	63.66
845.013	98.47
845.189	39.08
845.365	69.8
845.541	92.33
845.716	45.23
845.892	157.86
846.068	51.37
846.244	86.19
846.419	67.75
846.595	22.7
846.77	108.71
846.946	114.86
847.122	59.56
847.297	61.61
847.473	141.48
847.648	20.65
847.824	34.99
847.999	63.66
848.175	86.19
848.35	63.66
848.526	4.27
848.701	67.75
848.876	34.99
849.052	151.72
849.227	88.23
849.403	59.56
849.578	47.27
849.753	98.47
849.929	88.23
850.104	39.08
850.279	53.42
850.454	53.42
850.63	8.36
850.805	37.03
850.98	71.85
851.155	71.85
851.33	45.23
851.505	61.61
851.681	170.15
851.856	30.89
852.031	84.14
852.206	55.47
852.381	41.13
852.556	14.51
852.731	71.85
852.906	123.05
853.081	71.85
853.256	59.56
853.431	82.09
853.606	0.17
853.781	47.27
853.956	6.31
854.131	63.66
854.305	39.08
854.48	34.99
854.655	69.8
854.83	116.9
855.005	71.85
855.18	37.03
855.354	16.55
855.529	14.51
855.704	108.71
855.879	-1.88
856.053	4.27
856.228	108.71
856.403	20.65
856.577	63.66
856.752	55.47
856.926	26.79
857.101	10.41
857.276	65.71
857.45	-14.17
857.625	45.23
857.799	59.56
857.974	18.6
858.148	59.56
858.323	88.23
858.497	10.41
858.672	-10.07
858.846	63.66
859.02	61.61
859.195	0.17
859.369	16.55
859.543	49.32
859.718	82.09
859.892	104.62
860.066	94.38
860.241	10.41
860.415	73.9
860.589	53.42
860.763	18.6
860.938	37.03
861.112	51.37
861.286	77.99
861.46	10.41
861.634	34.99
861.808	92.33
861.982	-44.88
862.157	28.84
862.331	67.75
862.505	-32.6
862.679	-46.93
862.853	61.61
863.027	8.36
863.201	90.28
863.375	63.66
863.549	80.04
863.722	86.19
863.896	61.61
864.07	90.28
864.244	28.84
864.418	30.89
864.592	39.08
864.766	47.27
864.939	18.6
865.113	77.99
865.287	43.18
865.461	-12.12
865.634	20.65
865.808	-46.93
865.982	43.18
866.156	-67.41
866.329	55.47
866.503	49.32
866.676	80.04
866.85	28.84
867.024	41.13
867.197	24.75
867.371	12.46
867.544	41.13
867.718	65.71
867.891	57.51
868.065	6.31
868.238	47.27
868.412	69.8
868.585	77.99
868.759	-14.17
868.932	96.43
869.105	39.08
869.279	32.94
869.452	2.22
869.625	49.32
869.799	-18.26
869.972	22.7
870.145	53.42
870.319	39.08
870.492	55.47
870.665	16.55
870.838	34.99
871.011	67.75
871.185	67.75
871.358	47.27
871.531	94.38
871.704	75.95
871.877	30.89
872.05	-8.02
872.223	-32.6
872.396	26.79
872.569	43.18
872.742	32.94
872.915	65.71
873.088	16.55
873.261	2.22
873.434	26.79
873.607	57.51
873.78	30.89
873.953	-5.97
874.126	12.46
874.299	34.99
874.471	12.46
874.644	61.61
874.817	45.23
874.99	100.52
875.163	47.27
875.335	30.89
875.508	-18.26
875.681	55.47
875.853	-5.97
876.026	34.99
876.199	-55.12
876.371	73.9
876.544	22.7
876.717	8.36
876.889	41.13
877.062	67.75
877.234	10.41
877.407	90.28
877.579	-18.26
877.752	20.65
877.924	59.56
878.097	53.42
878.269	59.56
878.442	49.32
878.614	30.89
878.786	41.13
878.959	34.99
879.131	30.89
879.303	24.75
879.476	34.99
879.648	12.46
879.82	-44.88
879.993	-28.5
880.165	-10.07
880.337	14.51
880.509	45.23
880.681	18.6
880.854	-36.69
881.026	43.18
881.198	6.31
881.37	102.57
881.542	98.47
881.714	24.75
881.886	114.86
882.058	77.99
882.23	63.66
882.402	84.14
882.574	14.51
882.746	34.99
882.918	108.71
883.09	-34.64
883.262	-8.02
883.434	30.89
883.606	12.46
883.778	39.08
883.95	116.9
884.122	-63.32
884.293	84.14
884.465	-44.88
884.637	63.66
884.809	-26.45
884.98	71.85
885.152	-28.5
885.324	67.75
885.496	-36.69
885.667	34.99
885.839	-8.02
886.011	41.13
886.182	-14.17
886.354	55.47
886.525	88.23
886.697	14.51
886.869	55.47
887.04	-71.51
887.212	37.03
887.383	100.52
887.555	96.43
887.726	-8.02
887.897	28.84
888.069	26.79
888.24	55.47
888.412	63.66
888.583	-63.32
888.754	-34.64
888.926	24.75
889.097	39.08
889.268	20.65
889.44	-16.21
889.611	-8.02
889.782	4.27
889.953	-40.79
890.125	71.85
890.296	-34.64
890.467	26.79
890.638	-18.26
890.809	65.71
890.98	73.9
891.151	4.27
891.323	63.66
891.494	-24.4
891.665	30.89
891.836	75.95
892.007	-16.21
892.178	18.6
892.349	-18.26
892.52	26.79
892.691	20.65
892.862	41.13
893.032	18.6
893.203	71.85
893.374	39.08
893.545	55.47
893.716	73.9
893.887	100.52
894.057	61.61
894.228	34.99
894.399	-48.98
894.57	26.79
894.74	26.79
894.911	12.46
895.082	2.22
895.253	43.18
895.423	45.23
895.594	2.22
895.764	90.28
895.935	-10.07
896.106	6.31
896.276	-18.26
896.447	-14.17
896.617	67.75
896.788	55.47
896.958	51.37
897.129	47.27
897.299	-22.36
897.47	47.27
897.64	-20.31
897.81	47.27
897.981	26.79
898.151	63.66
898.322	24.75
898.492	-1.88
898.662	18.6
898.832	12.46
899.003	67.75
899.173	55.47
899.343	-8.02
899.513	-18.26
