Data from USB4F104151__15__11-04-48-954.txt Node

Date: Wed Mar 12 11:04:48 EDT 2025
User: louis
Spectrometer: USB4F10415
Trigger mode: 4
Integration Time (sec): 2.000000E-2
Scans to average: 1
Electric dark correction enabled: true
Nonlinearity correction enabled: false
Boxcar width: 0
XAxis mode: Wavelengths
Number of Pixels in Spectrum: 3648
>>>>>Begin Spectral Data<<<<<
178.204	-61.95
178.424	-61.95
178.644	-61.95
178.864	-35.33
179.084	-59.9
179.304	7.68
179.524	-53.76
179.744	-45.57
179.964	65.02
180.184	28.16
180.404	71.17
180.624	-29.18
180.844	42.5
181.064	-45.57
181.283	-14.85
181.503	-33.28
181.723	7.68
181.943	1.54
182.163	54.78
182.383	-43.52
182.602	52.74
182.822	54.78
183.042	42.5
183.262	-16.9
183.482	-16.9
183.701	-25.09
183.921	-43.52
184.141	-10.75
184.361	32.26
184.58	38.4
184.8	-27.14
185.02	83.45
185.239	34.3
185.459	5.63
185.679	85.5
185.898	17.92
186.118	-29.18
186.338	36.35
186.557	69.12
186.777	-41.47
186.997	9.73
187.216	46.59
187.436	-41.47
187.655	28.16
187.875	3.58
188.095	-23.04
188.314	38.4
188.534	89.6
188.753	60.93
188.973	46.59
189.192	75.26
189.412	15.87
189.631	-86.53
189.851	-18.94
190.07	89.6
190.29	48.64
190.509	54.78
190.729	17.92
190.948	1.54
191.168	85.5
191.387	67.07
191.607	-4.61
191.826	89.6
192.045	7.68
192.265	69.12
192.484	7.68
192.704	-18.94
192.923	-16.9
193.142	40.45
193.362	11.78
193.581	67.07
193.8	69.12
194.02	50.69
194.239	50.69
194.458	17.92
194.678	-2.56
194.897	7.68
195.116	-16.9
195.335	13.82
195.555	3.58
195.774	13.82
195.993	15.87
196.212	46.59
196.432	-6.66
196.651	85.5
196.87	-6.66
197.089	79.36
197.308	-2.56
197.528	46.59
197.747	44.54
197.966	36.35
198.185	-25.09
198.404	-4.61
198.623	3.58
198.842	54.78
199.062	95.74
199.281	48.64
199.5	-2.56
199.719	28.16
199.938	50.69
200.157	13.82
200.376	67.07
200.595	73.21
200.814	-31.23
201.033	83.45
201.252	-18.94
201.471	58.88
201.69	9.73
201.909	75.26
202.128	50.69
202.347	40.45
202.566	19.97
202.785	32.26
203.004	22.02
203.223	28.16
203.442	52.74
203.661	-29.18
203.879	42.5
204.098	34.3
204.317	62.98
204.536	7.68
204.755	32.26
204.974	3.58
205.193	-23.04
205.411	34.3
205.63	13.82
205.849	-6.66
206.068	22.02
206.287	77.31
206.505	24.06
206.724	26.11
206.943	-31.23
207.162	-18.94
207.381	52.74
207.599	13.82
207.818	91.65
208.037	-37.38
208.255	32.26
208.474	77.31
208.693	-18.94
208.911	44.54
209.13	22.02
209.349	13.82
209.567	11.78
209.786	83.45
210.005	9.73
210.223	-49.66
210.442	-12.8
210.661	-51.71
210.879	24.06
211.098	65.02
211.316	-6.66
211.535	-2.56
211.753	-0.51
211.972	-59.9
212.191	7.68
212.409	-4.61
212.628	40.45
212.846	93.69
213.065	42.5
213.283	26.11
213.502	-0.51
213.72	36.35
213.938	-25.09
214.157	17.92
214.375	24.06
214.594	-16.9
214.812	-10.75
215.031	26.11
215.249	28.16
215.467	11.78
215.686	-12.8
215.904	110.08
216.122	17.92
216.341	11.78
216.559	87.55
216.778	26.11
216.996	77.31
217.214	42.5
217.432	36.35
217.651	99.84
217.869	-35.33
218.087	54.78
218.306	-25.09
218.524	56.83
218.742	-14.85
218.96	60.93
219.179	7.68
219.397	46.59
219.615	15.87
219.833	7.68
220.051	-6.66
220.27	32.26
220.488	3.58
220.706	56.83
220.924	-0.51
221.142	-78.33
221.36	40.45
221.578	71.17
221.796	-31.23
222.015	32.26
222.233	32.26
222.451	46.59
222.669	62.98
222.887	7.68
223.105	-4.61
223.323	60.93
223.541	-25.09
223.759	34.3
223.977	-2.56
224.195	13.82
224.413	48.64
224.631	19.97
224.849	24.06
225.067	79.36
225.285	5.63
225.503	34.3
225.721	-6.66
225.939	38.4
226.157	15.87
226.375	60.93
226.592	1.54
226.81	15.87
227.028	34.3
227.246	46.59
227.464	17.92
227.682	26.11
227.9	-45.57
228.117	91.65
228.335	28.16
228.553	85.5
228.771	42.5
228.989	36.35
229.206	93.69
229.424	73.21
229.642	-14.85
229.86	40.45
230.077	3.58
230.295	44.54
230.513	42.5
230.731	62.98
230.948	13.82
231.166	30.21
231.384	-43.52
231.601	-14.85
231.819	50.69
232.037	11.78
232.254	-29.18
232.472	89.6
232.689	-31.23
232.907	-25.09
233.125	105.98
233.342	26.11
233.56	40.45
233.777	46.59
233.995	7.68
234.213	26.11
234.43	40.45
234.648	24.06
234.865	83.45
235.083	50.69
235.3	9.73
235.518	77.31
235.735	24.06
235.953	-8.7
236.17	40.45
236.388	7.68
236.605	-25.09
236.822	1.54
237.04	85.5
237.257	-12.8
237.475	110.08
237.692	13.82
237.909	-43.52
238.127	-29.18
238.344	-18.94
238.562	101.89
238.779	1.54
238.996	28.16
239.214	36.35
239.431	22.02
239.648	24.06
239.865	-0.51
240.083	30.21
240.3	40.45
240.517	13.82
240.735	28.16
240.952	15.87
241.169	73.21
241.386	91.65
241.603	79.36
241.821	28.16
242.038	30.21
242.255	-29.18
242.472	13.82
242.689	36.35
242.907	38.4
243.124	11.78
243.341	-31.23
243.558	56.83
243.775	-35.33
243.992	36.35
244.209	79.36
244.426	65.02
244.643	105.98
244.86	19.97
245.078	-43.52
245.295	30.21
245.512	38.4
245.729	5.63
245.946	19.97
246.163	-25.09
246.38	-43.52
246.597	30.21
246.814	-39.42
247.031	9.73
247.248	58.88
247.464	50.69
247.681	-14.85
247.898	22.02
248.115	58.88
248.332	-43.52
248.549	71.17
248.766	122.37
248.983	15.87
249.2	-31.23
249.417	52.74
249.633	15.87
249.85	24.06
250.067	9.73
250.284	32.26
250.501	28.16
250.717	30.21
250.934	-18.94
251.151	11.78
251.368	19.97
251.585	17.92
251.801	52.74
252.018	7.68
252.235	44.54
252.451	-20.99
252.668	42.5
252.885	17.92
253.102	-70.14
253.318	22.02
253.535	11.78
253.752	26.11
253.968	7.68
254.185	38.4
254.401	42.5
254.618	71.17
254.835	-16.9
255.051	69.12
255.268	36.35
255.484	38.4
255.701	48.64
255.917	-4.61
256.134	17.92
256.351	112.13
256.567	5.63
256.784	38.4
257	22.02
257.217	24.06
257.433	101.89
257.65	62.98
257.866	79.36
258.082	32.26
258.299	36.35
258.515	69.12
258.732	-35.33
258.948	38.4
259.165	3.58
259.381	32.26
259.597	9.73
259.814	13.82
260.03	36.35
260.246	52.74
260.463	56.83
260.679	30.21
260.895	44.54
261.112	85.5
261.328	-27.14
261.544	62.98
261.761	126.46
261.977	83.45
262.193	48.64
262.409	146.94
262.626	48.64
262.842	-12.8
263.058	56.83
263.274	38.4
263.49	9.73
263.707	46.59
263.923	22.02
264.139	34.3
264.355	-14.85
264.571	13.82
264.787	13.82
265.004	69.12
265.22	54.78
265.436	13.82
265.652	5.63
265.868	11.78
266.084	17.92
266.3	15.87
266.516	13.82
266.732	65.02
266.948	99.84
267.164	-20.99
267.38	5.63
267.596	36.35
267.812	136.7
268.028	91.65
268.244	-20.99
268.46	9.73
268.676	26.11
268.892	85.5
269.108	-2.56
269.324	-35.33
269.54	22.02
269.756	32.26
269.972	24.06
270.188	32.26
270.403	13.82
270.619	79.36
270.835	62.98
271.051	24.06
271.267	60.93
271.483	60.93
271.698	28.16
271.914	30.21
272.13	-2.56
272.346	17.92
272.562	56.83
272.777	-8.7
272.993	3.58
273.209	-10.75
273.425	32.26
273.64	60.93
273.856	71.17
274.072	36.35
274.287	-55.81
274.503	101.89
274.719	48.64
274.934	38.4
275.15	-51.71
275.366	-8.7
275.581	19.97
275.797	-4.61
276.012	28.16
276.228	-29.18
276.444	56.83
276.659	36.35
276.875	67.07
277.09	19.97
277.306	32.26
277.521	97.79
277.737	-6.66
277.952	-33.28
278.168	46.59
278.383	38.4
278.599	95.74
278.814	69.12
279.03	97.79
279.245	22.02
279.461	52.74
279.676	46.59
279.892	40.45
280.107	32.26
280.322	7.68
280.538	75.26
280.753	36.35
280.969	44.54
281.184	-31.23
281.399	89.6
281.615	-14.85
281.83	15.87
282.045	-16.9
282.26	110.08
282.476	3.58
282.691	-2.56
282.906	36.35
283.122	81.41
283.337	46.59
283.552	69.12
283.767	50.69
283.983	19.97
284.198	-25.09
284.413	13.82
284.628	-35.33
284.843	87.55
285.058	52.74
285.274	5.63
285.489	-0.51
285.704	48.64
285.919	7.68
286.134	65.02
286.349	-2.56
286.564	19.97
286.779	99.84
286.995	44.54
287.21	-29.18
287.425	44.54
287.64	11.78
287.855	-2.56
288.07	-57.86
288.285	44.54
288.5	-31.23
288.715	-14.85
288.93	58.88
289.145	15.87
289.36	108.03
289.575	-33.28
289.79	46.59
290.004	-53.76
290.219	22.02
290.434	34.3
290.649	28.16
290.864	46.59
291.079	60.93
291.294	69.12
291.509	-102.91
291.724	48.64
291.938	65.02
292.153	1.54
292.368	17.92
292.583	46.59
292.798	52.74
293.012	-14.85
293.227	3.58
293.442	69.12
293.657	75.26
293.871	75.26
294.086	22.02
294.301	60.93
294.516	5.63
294.73	-18.94
294.945	15.87
295.16	40.45
295.374	-16.9
295.589	3.58
295.804	28.16
296.018	28.16
296.233	77.31
296.447	50.69
296.662	17.92
296.877	65.02
297.091	3.58
297.306	-18.94
297.52	36.35
297.735	-20.99
297.949	71.17
298.164	85.5
298.378	40.45
298.593	-20.99
298.807	97.79
299.022	13.82
299.236	-25.09
299.451	19.97
299.665	-6.66
299.88	48.64
300.094	28.16
300.309	40.45
300.523	7.68
300.737	34.3
300.952	73.21
301.166	24.06
301.381	7.68
301.595	19.97
301.809	89.6
302.024	-0.51
302.238	65.02
302.452	56.83
302.667	-4.61
302.881	67.07
303.095	60.93
303.309	19.97
303.524	28.16
303.738	-82.43
303.952	42.5
304.166	75.26
304.381	36.35
304.595	-8.7
304.809	46.59
305.023	-8.7
305.237	58.88
305.452	24.06
305.666	1.54
305.88	56.83
306.094	-4.61
306.308	87.55
306.522	19.97
306.736	79.36
306.95	13.82
307.164	60.93
307.379	36.35
307.593	26.11
307.807	34.3
308.021	50.69
308.235	85.5
308.449	81.41
308.663	42.5
308.877	93.69
309.091	-8.7
309.305	126.46
309.519	32.26
309.733	-16.9
309.947	-45.57
310.161	54.78
310.374	-2.56
310.588	28.16
310.802	9.73
311.016	44.54
311.23	32.26
311.444	7.68
311.658	-4.61
311.872	3.58
312.085	118.27
312.299	81.41
312.513	9.73
312.727	56.83
312.941	-18.94
313.154	-64
313.368	-51.71
313.582	60.93
313.796	-0.51
314.009	-20.99
314.223	-16.9
314.437	17.92
314.651	44.54
314.864	-16.9
315.078	79.36
315.292	-0.51
315.505	13.82
315.719	67.07
315.933	26.11
316.146	19.97
316.36	-37.38
316.573	36.35
316.787	13.82
317.001	11.78
317.214	77.31
317.428	15.87
317.641	5.63
317.855	40.45
318.068	-8.7
318.282	28.16
318.495	101.89
318.709	91.65
318.922	13.82
319.136	87.55
319.349	3.58
319.563	148.99
319.776	42.5
319.99	13.82
320.203	26.11
320.417	87.55
320.63	89.6
320.843	-4.61
321.057	38.4
321.27	-8.7
321.483	65.02
321.697	126.46
321.91	46.59
322.124	52.74
322.337	36.35
322.55	-31.23
322.763	19.97
322.977	-4.61
323.19	69.12
323.403	83.45
323.617	42.5
323.83	48.64
324.043	3.58
324.256	83.45
324.469	34.3
324.683	36.35
324.896	-12.8
325.109	103.93
325.322	-12.8
325.535	19.97
325.748	87.55
325.962	-23.04
326.175	17.92
326.388	-8.7
326.601	-10.75
326.814	69.12
327.027	-18.94
327.24	52.74
327.453	-45.57
327.666	69.12
327.879	-39.42
328.092	38.4
328.305	50.69
328.518	24.06
328.731	13.82
328.944	-84.48
329.157	3.58
329.37	89.6
329.583	17.92
329.796	103.93
330.009	24.06
330.222	24.06
330.435	56.83
330.648	36.35
330.861	56.83
331.073	15.87
331.286	-4.61
331.499	30.21
331.712	22.02
331.925	38.4
332.138	48.64
332.35	79.36
332.563	36.35
332.776	48.64
332.989	-59.9
333.202	103.93
333.414	87.55
333.627	44.54
333.84	73.21
334.053	54.78
334.265	46.59
334.478	-10.75
334.691	9.73
334.903	46.59
335.116	-43.52
335.329	-35.33
335.541	3.58
335.754	62.98
335.966	42.5
336.179	3.58
336.392	9.73
336.604	7.68
336.817	46.59
337.029	1.54
337.242	11.78
337.454	75.26
337.667	-16.9
337.88	58.88
338.092	36.35
338.305	38.4
338.517	153.09
338.729	26.11
338.942	36.35
339.154	62.98
339.367	36.35
339.579	132.61
339.792	13.82
340.004	40.45
340.217	-64
340.429	69.12
340.641	44.54
340.854	54.78
341.066	24.06
341.278	-0.51
341.491	50.69
341.703	36.35
341.915	-2.56
342.128	101.89
342.34	24.06
342.552	60.93
342.764	42.5
342.977	24.06
343.189	136.7
343.401	7.68
343.613	24.06
343.826	112.13
344.038	19.97
344.25	69.12
344.462	-45.57
344.674	-6.66
344.886	15.87
345.099	69.12
345.311	28.16
345.523	38.4
345.735	24.06
345.947	56.83
346.159	36.35
346.371	7.68
346.583	17.92
346.795	42.5
347.007	19.97
347.219	44.54
347.431	32.26
347.643	15.87
347.855	11.78
348.067	-6.66
348.279	5.63
348.491	89.6
348.703	60.93
348.915	-4.61
349.127	22.02
349.339	-4.61
349.551	26.11
349.763	-8.7
349.975	46.59
350.187	79.36
350.399	24.06
350.61	9.73
350.822	44.54
351.034	42.5
351.246	30.21
351.458	89.6
351.669	3.58
351.881	52.74
352.093	60.93
352.305	56.83
352.517	24.06
352.728	120.32
352.94	-27.14
353.152	28.16
353.363	24.06
353.575	71.17
353.787	38.4
353.999	-25.09
354.21	-29.18
354.422	7.68
354.633	85.5
354.845	44.54
355.057	19.97
355.268	116.22
355.48	56.83
355.692	3.58
355.903	-2.56
356.115	15.87
356.326	-14.85
356.538	65.02
356.749	-64
356.961	122.37
357.172	40.45
357.384	-4.61
357.595	44.54
357.807	24.06
358.018	30.21
358.23	26.11
358.441	65.02
358.653	81.41
358.864	79.36
359.075	22.02
359.287	26.11
359.498	26.11
359.709	26.11
359.921	9.73
360.132	-6.66
360.344	42.5
360.555	26.11
360.766	75.26
360.977	48.64
361.189	81.41
361.4	54.78
361.611	79.36
361.823	48.64
362.034	50.69
362.245	11.78
362.456	48.64
362.667	30.21
362.879	22.02
363.09	24.06
363.301	87.55
363.512	-8.7
363.723	65.02
363.935	-4.61
364.146	30.21
364.357	42.5
364.568	-27.14
364.779	36.35
364.99	60.93
365.201	77.31
365.412	50.69
365.623	73.21
365.834	24.06
366.045	19.97
366.256	56.83
366.467	24.06
366.678	44.54
366.889	34.3
367.1	38.4
367.311	48.64
367.522	30.21
367.733	103.93
367.944	108.03
368.155	30.21
368.366	11.78
368.577	69.12
368.788	13.82
368.999	67.07
369.209	11.78
369.42	120.32
369.631	56.83
369.842	40.45
370.053	28.16
370.264	75.26
370.474	-35.33
370.685	-6.66
370.896	60.93
371.107	32.26
371.317	65.02
371.528	19.97
371.739	75.26
371.95	11.78
372.16	91.65
372.371	-64
372.582	48.64
372.792	9.73
373.003	91.65
373.214	13.82
373.424	-57.86
373.635	1.54
373.846	48.64
374.056	28.16
374.267	46.59
374.477	54.78
374.688	7.68
374.898	19.97
375.109	9.73
375.319	-0.51
375.53	15.87
375.74	110.08
375.951	-29.18
376.161	56.83
376.372	42.5
376.582	-61.95
376.793	60.93
377.003	58.88
377.214	52.74
377.424	71.17
377.635	79.36
377.845	60.93
378.055	5.63
378.266	-8.7
378.476	85.5
378.686	28.16
378.897	60.93
379.107	7.68
379.317	11.78
379.528	3.58
379.738	56.83
379.948	-10.75
380.158	103.93
380.369	36.35
380.579	-18.94
380.789	-41.47
380.999	-29.18
381.21	48.64
381.42	108.03
381.63	91.65
381.84	105.98
382.05	65.02
382.261	73.21
382.471	79.36
382.681	-20.99
382.891	44.54
383.101	30.21
383.311	-6.66
383.521	26.11
383.731	30.21
383.941	67.07
384.151	-25.09
384.361	7.68
384.571	69.12
384.781	24.06
384.991	9.73
385.201	97.79
385.411	32.26
385.621	19.97
385.831	-14.85
386.041	85.5
386.251	-0.51
386.461	5.63
386.671	9.73
386.881	62.98
387.091	48.64
387.301	34.3
387.511	-29.18
387.72	-18.94
387.93	-27.14
388.14	-8.7
388.35	99.84
388.56	9.73
388.769	34.3
388.979	26.11
389.189	-45.57
389.399	48.64
389.609	32.26
389.818	46.59
390.028	114.17
390.238	103.93
390.447	103.93
390.657	83.45
390.867	65.02
391.076	32.26
391.286	3.58
391.496	65.02
391.705	71.17
391.915	101.89
392.125	-53.76
392.334	36.35
392.544	110.08
392.753	52.74
392.963	62.98
393.172	99.84
393.382	32.26
393.591	13.82
393.801	36.35
394.01	26.11
394.22	79.36
394.429	71.17
394.639	15.87
394.848	60.93
395.058	67.07
395.267	69.12
395.477	91.65
395.686	130.56
395.895	85.5
396.105	93.69
396.314	136.7
396.524	99.84
396.733	56.83
396.942	85.5
397.152	60.93
397.361	62.98
397.57	-23.04
397.78	132.61
397.989	85.5
398.198	87.55
398.407	81.41
398.617	79.36
398.826	97.79
399.035	56.83
399.244	85.5
399.453	138.75
399.663	108.03
399.872	85.5
400.081	-2.56
400.29	130.56
400.499	22.02
400.708	101.89
400.917	50.69
401.127	126.46
401.336	62.98
401.545	138.75
401.754	130.56
401.963	183.81
402.172	85.5
402.381	114.17
402.59	60.93
402.799	124.41
403.008	153.09
403.217	81.41
403.426	79.36
403.635	103.93
403.844	124.41
404.053	130.56
404.262	48.64
404.471	52.74
404.68	58.88
404.888	22.02
405.097	93.69
405.306	36.35
405.515	124.41
405.724	116.22
405.933	157.18
406.142	83.45
406.35	114.17
406.559	46.59
406.768	105.98
406.977	220.67
407.185	132.61
407.394	110.08
407.603	108.03
407.812	210.43
408.02	169.47
408.229	181.76
408.438	140.8
408.646	161.28
408.855	91.65
409.064	157.18
409.272	161.28
409.481	198.14
409.69	171.52
409.898	128.51
410.107	200.19
410.315	185.85
410.524	239.1
410.733	325.12
410.941	192
411.15	245.24
411.358	257.53
411.567	259.58
411.775	257.53
411.984	339.45
412.192	357.88
412.401	212.48
412.609	364.03
412.818	364.03
413.026	286.2
413.234	265.72
413.443	325.12
413.651	341.5
413.86	331.26
414.068	374.27
414.276	437.75
414.485	384.51
414.693	441.85
414.901	566.78
415.11	499.19
415.318	450.04
415.526	466.42
415.734	497.14
415.943	564.73
416.151	495.1
416.359	542.2
416.567	581.11
416.776	527.86
416.984	605.69
417.192	732.66
417.4	656.89
417.608	658.93
417.817	671.22
418.025	681.46
418.233	783.86
418.441	736.76
418.649	835.06
418.857	863.73
419.065	857.59
419.273	884.21
419.481	861.68
419.689	1005.04
419.897	1060.34
420.105	937.46
420.313	1099.25
420.521	1086.96
420.729	1197.55
420.937	1215.98
421.145	1170.93
421.353	1308.14
421.561	1236.46
421.769	1314.28
421.977	1314.28
422.185	1263.08
422.393	1390.06
422.601	1498.6
422.809	1510.89
423.017	1478.12
423.224	1656.29
423.432	1693.16
423.64	1715.69
423.848	1770.98
424.056	1723.88
424.263	1891.81
424.471	1895.91
424.679	2016.74
424.887	2012.64
425.094	2170.33
425.302	2094.56
425.51	2287.07
425.718	2270.69
425.925	2352.6
426.133	2334.17
426.341	2541.02
426.548	2624.98
426.756	2674.14
426.964	2758.1
427.171	2837.97
427.379	2868.69
427.586	2874.84
427.794	3069.39
428.001	3204.56
428.209	3302.86
428.417	3218.89
428.624	3538.38
428.832	3507.66
429.039	3370.44
429.247	3591.63
429.454	3763.65
429.662	3896.77
429.869	3814.85
430.076	4021.7
430.284	3972.55
430.491	4124.1
430.699	4330.94
430.906	4451.77
431.114	4521.4
431.321	4605.37
431.528	4701.62
431.736	4965.81
431.943	5238.19
432.15	5100.98
432.358	5109.17
432.565	5547.44
432.772	5445.04
432.979	5629.35
433.187	5674.41
433.394	5746.09
433.601	6237.6
433.808	6215.07
434.016	6180.26
434.223	6370.72
434.43	6903.19
434.637	6743.45
434.844	7118.23
435.052	7087.51
435.259	7148.95
435.466	7296.4
435.673	7116.18
435.88	7576.97
436.087	7961.99
436.294	7863.69
436.501	7947.65
436.708	8146.31
436.915	8275.33
437.122	8875.38
437.329	8625.53
437.537	8963.45
437.743	8990.07
437.95	9094.52
438.157	9497.97
438.364	9631.09
438.571	9870.7
438.778	9821.55
438.985	10825.05
439.192	10429.79
439.399	10843.48
439.606	10403.17
439.813	10872.15
440.02	11588.94
440.227	11492.69
440.433	11304.28
440.64	11650.38
440.847	11715.92
441.054	12000.58
441.261	12889.4
441.467	12680.51
441.674	12864.83
441.881	13315.38
442.088	13309.24
442.294	13282.61
442.501	13598
442.708	13995.31
442.914	14538.02
443.121	14859.55
443.328	14570.79
443.534	15422.74
443.741	15334.68
443.948	15142.17
444.154	16379.14
444.361	16045.32
444.568	15934.73
444.774	16147.72
444.981	16166.15
445.187	16909.57
445.394	17394.93
445.6	17212.67
445.807	18908.38
446.013	18334.95
446.22	18189.55
446.426	19219.67
446.633	19137.76
446.839	20059.34
447.046	19113.18
447.252	19983.57
447.459	20098.25
447.665	20065.49
447.871	21140.67
448.078	21939.38
448.284	20741.32
448.491	21478.58
448.697	22105.26
448.903	22613.16
449.11	22668.45
449.316	22123.69
449.522	22625.45
449.728	23073.95
449.935	23213.21
450.141	23184.54
450.347	23805.08
450.553	23270.56
450.76	23303.32
450.966	23780.5
451.172	23608.47
451.378	24274.06
451.584	23997.59
451.791	24310.93
451.997	24458.38
452.203	24691.85
452.409	24736.9
452.615	24714.37
452.821	23680.15
453.027	23458.97
453.233	24433.8
453.44	23215.26
453.646	23561.37
453.852	23905.43
454.058	24196.24
454.264	23358.62
454.47	23981.2
454.676	23133.34
454.882	24515.72
455.088	21724.34
455.294	22357.16
455.5	22381.74
455.705	22758.56
455.911	21902.51
456.117	21388.47
456.323	20909.25
456.529	20032.72
456.735	20630.73
456.941	19950.8
457.147	19459.29
457.352	19221.72
457.558	19117.28
457.764	19064.03
457.97	18539.75
458.176	18195.69
458.381	18195.69
458.587	17329.4
458.793	17052.92
458.999	16420.1
459.204	17767.66
459.41	16809.22
459.616	15873.29
459.821	15885.58
460.027	15633.68
460.233	15576.34
460.438	14714.14
460.644	14757.15
460.85	14187.82
461.055	13864.24
461.261	14056.75
461.466	12999.99
461.672	12449.09
461.878	13423.92
462.083	12510.53
462.289	12299.59
462.494	12184.9
462.7	11412.82
462.905	11312.47
463.111	11654.48
463.316	11873.61
463.522	11507.02
463.727	11384.15
463.932	11535.7
464.138	11484.5
464.343	11412.82
464.549	11191.64
464.754	11674.96
464.959	11453.78
465.165	11349.33
465.37	10757.47
465.575	10614.11
465.781	11027.8
465.986	10945.88
466.191	10665.31
466.397	10476.9
466.602	9938.28
466.807	10292.58
467.012	10298.72
467.218	10081.64
467.423	10247.52
467.628	10399.07
467.833	10655.07
468.038	10241.38
468.244	10104.17
468.449	10349.92
468.654	9907.56
468.859	9946.47
469.064	9837.93
469.269	9579.89
469.474	9663.85
469.679	9817.45
469.885	9461.1
470.09	9586.03
470.295	9592.17
470.5	9291.12
470.705	9575.79
470.91	9207.16
471.115	9067.89
471.32	9211.25
471.525	9235.83
471.73	8971.64
471.935	9000.31
472.139	8633.72
472.344	8678.78
472.549	8586.62
472.754	8478.08
472.959	8162.69
473.164	8099.2
473.369	8373.63
473.574	8295.81
473.778	8347.01
473.983	8080.77
474.188	8064.39
474.393	7708.04
474.598	7978.37
474.802	7679.37
475.007	7814.54
475.212	7730.57
475.417	7320.98
475.621	7329.17
475.826	7347.6
476.031	7257.49
476.235	7368.08
476.44	7212.43
476.645	7302.54
476.849	7069.08
477.054	7069.08
477.259	6987.16
477.463	6991.25
477.668	6815.13
477.872	7032.21
478.077	6696.35
478.282	6700.44
478.486	6569.37
478.691	6501.79
478.895	6567.32
479.1	6452.64
479.304	6434.21
479.509	6354.34
479.713	6432.16
479.918	6337.95
480.122	6079.91
480.326	6327.71
480.531	6231.46
480.735	6217.12
480.94	6247.84
481.144	6512.03
481.348	5975.46
481.553	6229.41
481.757	5997.99
481.961	6102.43
482.166	6157.73
482.37	6249.89
482.574	6075.81
482.778	5957.03
482.983	6116.77
483.187	5971.36
483.391	6131.11
483.595	5895.59
483.8	6024.61
484.004	6086.05
484.208	6094.24
484.412	6127.01
484.616	6163.87
484.821	5916.07
485.025	5967.27
485.229	5963.17
485.433	5987.75
485.637	6086.05
485.841	5873.06
486.045	5932.45
486.249	5926.31
486.453	5954.98
486.657	6020.52
486.861	6147.49
487.065	5950.89
487.269	6098.34
487.473	5954.98
487.677	6202.79
487.881	5948.84
488.085	6049.19
488.289	6059.43
488.493	5975.46
488.697	6206.88
488.901	5950.89
489.105	5967.27
489.309	6124.96
489.512	6215.07
489.716	6061.48
489.92	6106.53
490.124	6139.3
490.328	6122.91
490.531	6243.74
490.735	6235.55
490.939	6112.67
491.143	6094.24
491.346	6266.27
491.55	6389.15
491.754	6147.49
491.958	6385.05
492.161	6376.86
492.365	6331.81
492.569	6407.58
492.772	6475.17
492.976	6403.49
493.18	6469.02
493.383	6448.54
493.587	6634.91
493.79	6532.51
493.994	6604.19
494.197	6589.85
494.401	6663.58
494.605	6815.13
494.808	6841.75
495.012	6942.1
495.215	7013.78
495.419	6978.97
495.622	6751.64
495.825	7064.98
496.029	7081.36
496.232	7138.71
496.436	7169.43
496.639	7509.39
496.843	7421.33
497.046	7318.93
497.249	7445.9
497.453	7640.46
497.656	7634.32
497.859	7615.88
498.063	7914.89
498.266	8045.96
498.469	8041.86
498.673	8011.14
498.876	8215.94
499.079	8158.6
499.282	8197.51
499.485	8494.46
499.689	8441.22
499.892	8506.75
500.095	8480.13
500.298	8926.58
500.501	8672.64
500.705	8947.06
500.908	9201.01
501.111	9301.36
501.314	9207.16
501.517	9387.38
501.72	9403.76
501.923	9414
502.126	9575.79
502.329	9971.05
502.532	9667.95
502.735	9885.03
502.938	10067.3
503.141	10265.96
503.344	10550.62
503.547	10190.18
503.75	10685.79
503.953	10741.08
504.156	10771.8
504.359	10980.7
504.562	10952.02
504.765	11150.68
504.968	11195.73
505.17	11316.56
505.373	11472.21
505.576	11740.49
505.779	11666.77
505.982	11724.11
506.185	12043.59
506.387	11955.53
506.59	12156.23
506.793	12389.7
506.996	12285.25
507.198	12676.41
507.401	12723.52
507.604	12913.98
507.807	13176.12
508.009	13069.62
508.212	13270.33
508.415	13241.65
508.617	13493.55
508.82	13839.66
509.022	13667.63
509.225	14183.72
509.428	14085.42
509.63	14454.05
509.833	14425.38
510.035	14548.26
510.238	14466.34
510.44	14949.66
510.643	15191.32
510.845	15279.38
511.048	15428.88
511.25	15361.3
511.453	15678.74
511.655	16022.8
511.858	15912.21
512.06	16090.38
512.262	16213.26
512.465	16346.37
512.667	16567.56
512.87	16688.39
513.072	16610.56
513.274	16975.1
513.477	17259.77
513.679	17327.35
513.881	17722.61
514.084	17769.71
514.286	17786.1
514.488	18142.44
514.69	18660.58
514.893	18394.34
515.095	18549.99
515.297	18578.66
515.499	19117.28
515.701	19027.17
515.904	19551.45
516.106	19098.84
516.308	19870.93
516.51	19979.47
516.712	19709.14
516.914	20208.84
517.116	20581.57
517.318	20491.46
517.52	20831.43
517.722	20749.51
517.925	21288.12
518.127	21904.56
518.329	21773.49
518.531	21476.54
518.733	21980.34
518.935	22359.21
519.136	22178.99
519.338	22541.48
519.54	22842.53
519.742	22938.79
519.944	23194.78
520.146	23323.8
520.348	23667.86
520.55	23583.9
520.752	23809.17
520.954	24468.62
521.155	24177.81
521.357	24626.31
521.559	24743.05
521.761	25123.97
521.963	25062.53
522.164	25545.85
522.366	25431.16
522.568	25834.61
522.77	25738.36
522.971	26162.29
523.173	25953.4
523.375	26385.52
523.576	26233.97
523.778	26709.1
523.98	26952.8
524.181	27094.11
524.383	27229.28
524.584	27561.05
524.786	27348.06
524.988	27305.06
525.189	27982.93
525.391	27905.11
525.592	28218.45
525.794	28339.28
525.995	28593.23
526.197	28666.95
526.398	28693.58
526.6	28650.57
526.801	28914.76
527.003	29307.97
527.204	29246.53
527.406	29129.8
527.607	29457.47
527.808	29447.23
528.01	29363.26
528.211	29801.53
528.412	30143.54
528.614	29998.13
528.815	29735.99
529.016	30118.96
529.218	30233.65
529.419	30020.66
529.62	30327.86
529.822	30268.47
530.023	30377.01
530.224	30342.19
530.425	30180.4
530.626	30430.26
530.828	30420.02
531.029	31396.9
531.23	30508.08
531.431	30669.87
531.632	30860.33
531.833	31294.5
532.035	31284.26
532.236	31044.65
532.437	31134.76
532.638	30579.76
532.839	31417.38
533.04	31339.55
533.241	30479.41
533.442	31521.82
533.643	31335.46
533.844	31749.15
534.045	31519.78
534.246	31292.45
534.447	31687.71
534.648	31421.47
534.849	31710.24
535.05	31433.76
535.251	31339.55
535.451	31439.9
535.652	31317.03
535.853	31630.37
536.054	31710.24
536.255	31859.74
536.456	31630.37
536.657	31943.7
536.857	31730.72
537.058	31601.69
537.259	31613.98
537.46	31618.08
537.66	31857.69
537.861	31603.74
538.062	31915.03
538.263	31978.52
538.463	31810.59
538.664	31953.94
538.865	31923.22
539.065	32011.29
539.266	31411.23
539.466	32183.32
539.667	31323.17
539.868	31992.86
540.068	31609.89
540.269	31431.71
540.469	31693.85
540.67	31599.65
540.87	31783.96
541.071	31884.31
541.271	32021.53
541.472	31622.17
541.672	31847.45
541.873	31405.09
542.073	31429.66
542.274	32037.91
542.474	31724.57
542.675	31450.14
542.875	32033.82
543.075	31712.28
543.276	31329.31
543.476	31978.52
543.676	31663.13
543.877	31589.41
544.077	31894.55
544.277	31439.9
544.478	31269.92
544.678	31712.28
544.878	31507.49
545.078	31616.03
545.279	31388.71
545.479	31540.25
545.679	31738.91
545.879	31632.41
546.079	31597.6
546.28	31339.55
546.48	31317.03
546.68	31405.09
546.88	31613.98
547.08	31579.17
547.28	31302.69
547.48	31069.22
547.68	31601.69
547.88	31188
548.081	31431.71
548.281	31405.09
548.481	31269.92
548.681	31824.92
548.881	31343.65
549.081	31589.41
549.28	31300.64
549.48	31656.99
549.68	31456.29
549.88	31861.79
550.08	31274.02
550.28	31409.18
550.48	31188
550.68	31519.78
550.88	31271.97
551.08	31142.95
551.279	31341.6
551.479	31407.14
551.679	31149.09
551.879	31087.65
552.079	31423.52
552.278	31392.8
552.478	31126.57
552.678	31073.32
552.878	31257.64
553.077	31042.6
553.277	30809.13
553.477	31491.1
553.676	31288.35
553.876	30880.81
554.076	30946.34
554.275	31372.32
554.475	30864.43
554.674	31208.48
554.874	31034.41
555.074	30956.58
555.273	31134.76
555.473	31173.67
555.672	30596.14
555.872	30895.14
556.071	31067.17
556.271	31134.76
556.47	30485.55
556.67	30417.97
556.869	30456.88
557.068	31013.93
557.268	30282.8
557.467	30534.7
557.667	30590
557.866	30366.77
558.065	30299.19
558.265	30071.86
558.464	30051.38
558.663	30393.39
558.863	30317.62
559.062	30633
559.261	29965.37
559.461	30524.46
559.66	29813.82
559.859	29928.5
560.058	29817.91
560.258	30200.88
560.457	29676.6
560.656	29930.55
560.855	29332.54
561.054	29740.09
561.253	29131.84
561.453	29547.58
561.652	29738.04
561.851	29594.68
562.05	29307.97
562.249	29250.63
562.448	29682.75
562.647	29207.62
562.846	29090.88
563.045	29178.95
563.244	28779.59
563.443	29486.14
563.642	28607.56
563.841	28867.66
564.04	28490.83
564.239	29125.7
564.438	28922.95
564.637	28783.69
564.836	28703.82
565.035	28388.43
565.234	28501.07
565.432	28255.31
565.631	28306.51
565.83	28232.79
566.029	28230.74
566.228	28286.03
566.427	27901.01
566.625	27675.74
566.824	27464.8
567.023	28003.41
567.222	27139.17
567.42	27952.21
567.619	27587.68
567.818	27462.75
568.016	27360.35
568.215	27702.36
568.414	27118.69
568.612	27532.38
568.811	27057.25
569.01	27303.01
569.208	27047.01
569.407	27262.05
569.605	26723.43
569.804	27004
570.002	26735.72
570.201	26618.99
570.4	26420.33
570.598	26303.6
570.797	26186.86
570.995	26874.98
571.193	25775.22
571.392	26285.17
571.59	25910.39
571.789	25881.72
571.987	26123.38
572.186	25748.6
572.384	25771.13
572.582	25513.08
572.781	25877.62
572.979	25365.63
573.177	25578.62
573.376	25496.7
573.574	25246.85
573.772	25300.09
573.971	25121.92
574.169	24970.37
574.367	24767.62
574.565	25441.4
574.763	25181.31
574.962	24837.25
575.16	24614.02
575.358	24913.03
575.556	24532.11
575.754	24970.37
575.952	24480.91
576.151	24634.5
576.349	24149.14
576.547	24288.4
576.745	24239.25
576.943	24114.32
577.141	24067.22
577.339	24394.89
577.537	23985.3
577.735	24163.47
577.933	23909.52
578.131	23682.2
578.329	23530.65
578.527	23440.54
578.725	23671.96
578.923	23405.72
579.121	23514.27
579.319	23088.29
579.516	23266.46
579.714	23317.66
579.912	23010.46
580.11	23153.82
580.308	23080.1
580.506	22906.02
580.704	22545.58
580.901	22840.48
581.099	22764.71
581.297	22641.83
581.495	22518.95
581.692	22453.42
581.89	22451.37
582.088	22590.63
582.285	22127.79
582.483	22252.72
582.681	22250.67
582.878	22090.93
583.076	21925.04
583.274	22000.82
583.471	22013.1
583.669	22047.92
583.866	21679.29
584.064	21859.51
584.262	21234.88
584.459	21904.56
584.657	21531.83
584.854	21499.06
585.052	21343.42
585.249	21488.82
585.447	21439.67
585.644	20905.15
585.841	21097.66
586.039	21601.46
586.236	20946.11
586.434	20860.1
586.631	20786.37
586.828	20962.5
587.026	20726.98
587.223	20712.64
587.42	20602.05
587.618	20856
587.815	20407.5
588.012	20569.29
588.21	20155.6
588.407	20671.68
588.604	20311.24
588.801	20067.53
588.999	20325.58
589.196	20393.16
589.393	20026.57
589.59	20040.91
589.787	19850.45
589.984	19936.46
590.182	19553.49
590.379	20116.69
590.576	19784.91
590.773	19903.7
590.97	19580.12
591.167	19537.11
591.364	19483.86
591.561	19430.62
591.758	19317.98
591.955	19176.67
592.152	19166.43
592.349	19287.26
592.546	19473.62
592.743	18949.34
592.94	18975.97
593.137	18990.3
593.334	18945.25
593.531	18767.07
593.727	18928.86
593.924	18775.27
594.121	18582.76
594.318	18699.49
594.515	18685.15
594.712	18519.27
594.908	18584.8
595.105	18756.83
595.302	18339.05
595.499	18480.36
595.696	18156.78
595.892	18105.58
596.089	17898.73
596.286	18189.55
596.482	17847.54
596.679	17835.25
596.876	18038
597.072	17886.45
597.269	17743.09
597.466	17734.9
597.662	17583.35
597.859	17728.75
598.055	17497.33
598.252	17548.53
598.448	17601.78
598.645	17286.39
598.841	17351.93
599.038	17095.93
599.234	17401.08
599.431	17030.4
599.627	17126.65
599.824	17208.57
600.02	17126.65
600.217	17122.55
600.413	16934.14
600.609	16907.52
600.806	16719.1
601.002	16833.79
601.198	16938.24
601.395	16643.33
601.591	16665.86
601.787	16495.88
601.984	16444.68
602.18	16778.5
602.376	16571.65
602.572	16567.56
602.769	16358.66
602.965	16237.83
603.161	16139.53
603.357	16295.18
603.553	16090.38
603.75	16160.01
603.946	15983.88
604.142	15983.88
604.338	15756.56
604.534	15906.06
604.73	15901.97
604.926	15709.46
605.122	15936.78
605.318	15744.27
605.514	15461.65
605.71	15703.31
605.906	15602.96
606.102	15635.73
606.298	15367.45
606.494	15453.46
606.69	15527.19
606.886	15623.44
607.082	15183.13
607.278	15314.2
607.474	15170.84
607.67	15242.52
607.866	15054.11
608.062	15475.99
608.257	15072.54
608.453	15365.4
608.649	15129.88
608.845	14912.8
609.041	14863.65
609.236	14947.61
609.432	14890.27
609.628	14843.17
609.824	14677.28
610.019	14681.38
610.215	14630.18
610.411	14644.51
610.606	14673.18
610.802	14673.18
610.998	14570.79
611.193	14452
611.389	14429.48
611.584	14390.56
611.78	14279.97
611.976	14402.85
612.171	14292.26
612.367	14359.84
612.562	14103.85
612.758	14230.82
612.953	14284.07
613.149	14304.55
613.344	13909.29
613.539	14179.62
613.735	14058.79
613.93	14122.28
614.126	14073.13
614.321	14208.3
614.517	14052.65
614.712	14023.98
614.907	14105.9
615.103	14097.7
615.298	13929.77
615.493	13940.01
615.688	13569.33
615.884	13882.67
616.079	13655.34
616.274	13845.8
616.47	13528.37
616.665	13632.82
616.86	13663.54
617.055	13581.62
617.25	13303.09
617.445	13589.81
617.641	13317.43
617.836	13479.22
618.031	13145.4
618.226	13337.91
618.421	13147.45
618.616	13245.75
618.811	13079.86
619.006	13497.65
619.201	13053.24
619.396	12997.95
619.591	13077.82
619.786	13116.73
619.981	12991.8
620.176	13057.34
620.371	12879.16
620.566	12784.96
620.761	12508.48
620.956	12617.02
621.151	12426.56
621.346	12553.54
621.541	12285.25
621.735	12457.28
621.93	12293.44
622.125	12352.84
622.32	12135.75
622.515	11967.82
622.709	11916.62
622.904	11967.82
623.099	11828.56
623.294	12148.04
623.488	11812.17
623.683	11869.51
623.878	11683.15
624.072	11547.98
624.267	11646.29
624.462	11545.94
624.656	11474.26
624.851	11394.39
625.046	11371.86
625.24	11367.76
625.435	11144.53
625.629	11318.61
625.824	10919.26
626.018	11181.4
626.213	10911.07
626.407	10898.78
626.602	10931.55
626.796	11091.29
626.991	10915.16
627.185	10605.92
627.38	10972.5
627.574	10648.93
627.768	10427.74
627.963	10503.52
628.157	10458.46
628.352	10536.29
628.546	10444.13
628.74	10405.22
628.935	10167.65
629.129	10407.27
629.323	10296.67
629.517	10104.17
629.712	10177.89
629.906	10134.89
630.1	9917.8
630.294	10007.91
630.489	9844.07
630.683	9835.88
630.877	9670
631.071	9715.05
631.265	9645.42
631.459	9710.96
631.653	9323.89
631.848	9506.16
632.042	9473.39
632.236	9432.43
632.43	9463.15
632.624	9356.66
632.818	9252.21
633.012	9219.44
633.206	9041.27
633.4	9147.76
633.594	8990.07
633.788	8953.21
633.982	9188.72
634.176	9045.37
634.369	8758.65
634.563	8942.97
634.757	8813.95
634.951	8686.97
635.145	8760.7
635.339	8781.18
635.533	8584.57
635.726	8721.79
635.92	8390.02
636.114	8621.44
636.308	8304
636.501	8476.03
636.695	8420.74
636.889	8334.72
637.083	8166.79
637.276	8285.57
637.47	8070.53
637.664	7949.7
637.857	8164.74
638.051	8074.63
638.244	7916.94
638.438	7878.02
638.632	7777.67
638.825	7832.97
639.019	7843.21
639.212	7597.45
639.406	7556.49
639.599	7607.69
639.793	7890.31
639.986	7687.56
640.18	7751.05
640.373	7480.72
640.567	7503.25
640.76	7568.78
640.954	7302.54
641.147	7345.55
641.34	7187.86
641.534	7232.91
641.727	7267.73
641.92	7075.22
642.114	7214.48
642.307	7323.02
642.5	6940.05
642.694	6972.82
642.887	7019.92
643.08	7105.94
643.273	7103.89
643.467	6673.82
643.66	6929.81
643.853	6962.58
644.046	6755.74
644.239	6542.75
644.432	6718.87
644.626	6540.7
644.819	6745.5
645.012	6587.8
645.205	6561.18
645.398	6456.73
645.591	6458.78
645.784	6372.77
645.977	6329.76
646.17	6473.12
646.363	6303.14
646.556	6251.94
646.749	6239.65
646.942	6317.47
647.135	6251.94
647.328	6180.26
647.521	6206.88
647.714	6032.8
647.907	6133.15
648.099	5997.99
648.292	5979.56
648.485	5981.6
648.678	5811.62
648.871	6014.37
649.064	5838.25
649.256	5819.82
649.449	5864.87
649.642	5799.34
649.835	5860.77
650.027	5731.75
650.22	5707.18
650.413	5727.66
650.605	5723.56
650.798	5555.63
650.991	5551.53
651.183	5584.3
651.376	5502.38
651.568	5442.99
651.761	5588.39
651.954	5404.08
652.146	5459.37
652.339	5354.93
652.531	5395.89
652.724	5416.37
652.916	5305.78
653.109	5291.44
653.301	5281.2
653.494	5266.86
653.686	5060.02
653.879	5148.08
654.071	5100.98
654.263	5203.38
654.456	5141.94
654.648	5074.35
654.84	4961.72
655.033	4943.28
655.225	4980.15
655.417	4982.2
655.61	5053.87
655.802	5053.87
655.994	4900.28
656.186	4818.36
656.379	4666.81
656.571	4785.59
656.763	4691.38
656.955	4728.25
657.148	4822.45
657.34	4740.54
657.532	4627.9
657.724	4640.19
657.916	4650.43
658.108	4631.99
658.3	4525.5
658.492	4640.19
658.684	4623.8
658.876	4584.89
659.068	4449.72
659.26	4337.09
659.452	4369.85
659.644	4339.13
659.836	4292.03
660.028	4521.4
660.22	4150.72
660.412	4355.52
660.604	4240.83
660.796	4177.34
660.988	4175.3
661.18	4140.48
661.372	4156.86
661.563	4083.14
661.755	4165.06
661.947	4218.3
662.139	3974.6
662.331	4052.42
662.522	3964.36
662.714	4060.61
662.906	4091.33
663.097	4050.37
663.289	3913.16
663.481	3990.98
663.673	4011.46
663.864	3999.17
664.056	3894.72
664.247	3915.2
664.439	3870.15
664.631	3894.72
664.822	3849.67
665.014	3904.96
665.205	3612.1
665.397	3761.61
665.588	3917.25
665.78	3661.26
665.971	3704.26
666.163	3808.71
666.354	3624.39
666.546	3653.06
666.737	3794.37
666.929	3524.04
667.12	3526.09
667.311	3579.34
667.503	3546.57
667.694	3620.3
667.885	3460.56
668.077	3532.23
668.268	3626.44
668.459	3519.95
668.651	3497.42
668.842	3511.75
669.033	3456.46
669.224	3521.99
669.416	3444.17
669.607	3390.92
669.798	3378.64
669.989	3474.89
670.18	3384.78
670.371	3292.62
670.563	3390.92
670.754	3349.96
670.945	3333.58
671.136	3317.2
671.327	3253.71
671.518	3239.37
671.709	3304.91
671.9	3261.9
672.091	3266
672.282	3186.13
672.473	3173.84
672.664	3196.37
672.855	3136.98
673.046	3171.79
673.237	3173.84
673.428	3257.81
673.619	3155.41
673.809	3104.21
674	3036.63
674.191	3096.02
674.382	3030.48
674.573	3149.26
674.764	3112.4
674.954	3227.09
675.145	3040.72
675.336	3046.87
675.527	3104.21
675.717	3157.46
675.908	3069.39
676.099	3065.3
676.289	2989.52
676.48	2993.62
676.671	3110.35
676.861	3003.86
677.052	3096.02
677.243	3005.91
677.433	3036.63
677.624	3059.15
677.814	3028.43
678.005	2987.47
678.195	3059.15
678.386	3091.92
678.576	2944.47
678.767	2878.93
678.957	2917.84
679.148	3024.34
679.338	3001.81
679.529	2958.8
679.719	2749.91
679.909	2897.36
680.1	2909.65
680.29	2907.6
680.481	2817.49
680.671	2805.21
680.861	2837.97
681.052	2919.89
681.242	2831.83
681.432	2938.32
681.622	2878.93
681.813	2835.92
682.003	2930.13
682.193	2797.01
682.383	2731.48
682.573	2788.82
682.764	2682.33
682.954	2979.28
683.144	2803.16
683.334	2842.07
683.524	2735.57
683.714	2870.74
683.904	2837.97
684.094	2805.21
684.284	2770.39
684.474	2823.64
684.664	2848.21
684.854	2762.2
685.044	2817.49
685.234	2770.39
685.424	2725.33
685.614	2784.73
685.804	2643.42
685.994	2579.93
686.184	2708.95
686.374	2713.05
686.564	2698.71
686.753	2665.94
686.943	2670.04
687.133	2608.6
687.323	2475.48
687.513	2762.2
687.702	2760.15
687.892	2559.45
688.082	2586.07
688.272	2647.51
688.461	2577.88
688.651	2711
688.841	2512.35
689.03	2514.39
689.22	2414.04
689.41	2569.69
689.599	2489.82
689.789	2598.36
689.979	2405.85
690.168	2565.59
690.358	2444.76
690.547	2409.95
690.737	2596.31
690.926	2448.86
691.116	2368.99
691.305	2612.7
691.495	2504.15
691.684	2330.08
691.874	2418.14
692.063	2297.31
692.252	2405.85
692.442	2338.27
692.631	2346.46
692.82	2301.4
693.01	2407.9
693.199	2436.57
693.388	2295.26
693.578	2360.8
693.767	2455
693.956	2328.03
694.146	2379.23
694.335	2233.82
694.524	2246.11
694.713	2407.9
694.902	2225.63
695.092	2317.79
695.281	2332.12
695.47	2180.57
695.659	2186.72
695.848	2227.68
696.037	2352.6
696.226	2289.12
696.415	2250.21
696.604	2285.02
696.793	2276.83
696.982	2323.93
697.171	2264.54
697.36	2291.17
697.549	2262.49
697.738	2239.97
697.927	2248.16
698.116	2203.1
698.305	2221.53
698.494	2199.01
698.683	2268.64
698.872	2285.02
699.061	2215.39
699.25	2291.17
699.438	2256.35
699.627	2272.73
699.816	2233.82
700.005	2235.87
700.193	2262.49
700.382	2291.17
700.571	2164.19
700.76	2192.86
700.948	2229.73
701.137	2328.03
701.326	2256.35
701.514	2186.72
701.703	2237.92
701.892	2305.5
702.08	2233.82
702.269	2295.26
702.457	2256.35
702.646	2213.34
702.834	2270.69
703.023	2315.74
703.212	2233.82
703.4	2227.68
703.589	2196.96
703.777	2295.26
703.965	2135.52
704.154	2285.02
704.342	2262.49
704.531	2264.54
704.719	2258.4
704.907	2209.25
705.096	2205.15
705.284	2215.39
705.472	2227.68
705.661	2133.47
705.849	2209.25
706.037	2313.69
706.226	2256.35
706.414	2254.3
706.602	2334.17
706.79	2237.92
706.979	2244.06
707.167	2207.2
707.355	2250.21
707.543	2332.12
707.731	2137.57
707.919	2323.93
708.107	2108.9
708.296	2360.8
708.484	2219.49
708.672	2264.54
708.86	2160.1
709.048	2225.63
709.236	2412
709.424	2285.02
709.612	2131.42
709.8	2117.09
709.988	2223.58
710.176	2178.53
710.364	2229.73
710.551	2180.57
710.739	2280.93
710.927	2190.81
711.115	2209.25
711.303	2227.68
711.491	2297.31
711.679	2264.54
711.866	2338.27
712.054	2282.97
712.242	2307.55
712.43	2242.01
712.617	2098.66
712.805	2237.92
712.993	2192.86
713.181	2196.96
713.368	2227.68
713.556	2180.57
713.744	2172.38
713.931	2231.77
714.119	2201.05
714.306	2262.49
714.494	2256.35
714.682	2233.82
714.869	2293.21
715.057	2219.49
715.244	2137.57
715.432	2231.77
715.619	2156
715.807	2002.4
715.994	2129.38
716.182	2289.12
716.369	2180.57
716.556	2268.64
716.744	2285.02
716.931	2190.81
717.119	2256.35
717.306	2119.14
717.493	2162.14
717.681	2254.3
717.868	2065.89
718.055	2041.31
718.242	2176.48
718.43	2270.69
718.617	2227.68
718.804	2153.95
718.991	2162.14
719.179	2248.16
719.366	2190.81
719.553	2168.29
719.74	2184.67
719.927	2166.24
720.114	2158.05
720.301	2117.09
720.488	2084.32
720.676	2211.29
720.863	2229.73
721.05	2211.29
721.237	2158.05
721.424	2172.38
721.611	2145.76
721.798	2225.63
721.985	1996.26
722.172	2268.64
722.358	2133.47
722.545	2231.77
722.732	2151.9
722.919	2235.87
723.106	2203.1
723.293	2184.67
723.48	2141.66
723.667	2153.95
723.853	2215.39
724.04	2180.57
724.227	2031.07
724.414	2106.85
724.6	2231.77
724.787	2088.42
724.974	2213.34
725.161	2143.71
725.347	2096.61
725.534	2063.84
725.72	2149.86
725.907	2100.7
726.094	2092.51
726.28	2211.29
726.467	2184.67
726.653	2127.33
726.84	2115.04
727.027	2268.64
727.213	2186.72
727.4	2180.57
727.586	2067.94
727.773	2123.23
727.959	2131.42
728.145	2129.38
728.332	2061.79
728.518	2117.09
728.705	2135.52
728.891	2053.6
729.077	2059.74
729.264	2170.33
729.45	2215.39
729.636	2141.66
729.823	2082.27
730.009	2082.27
730.195	2029.03
730.382	2172.38
730.568	2139.62
730.754	2092.51
730.94	2162.14
731.126	2112.99
731.313	2092.51
731.499	2123.23
731.685	2121.18
731.871	2067.94
732.057	2078.18
732.243	2043.36
732.429	2094.56
732.615	2168.29
732.801	2160.1
732.987	2199.01
733.173	2069.98
733.359	2158.05
733.545	2065.89
733.731	2205.15
733.917	2039.26
734.103	2123.23
734.289	2135.52
734.475	2088.42
734.661	2082.27
734.847	2182.62
735.033	2106.85
735.219	1992.16
735.404	2092.51
735.59	2020.83
735.776	2078.18
735.962	2061.79
736.148	2217.44
736.333	2010.59
736.519	2067.94
736.705	2006.5
736.89	2016.74
737.076	1928.67
737.262	1877.48
737.447	1879.52
737.633	1996.26
737.819	1969.63
738.004	1977.83
738.19	2035.17
738.375	2043.36
738.561	2186.72
738.747	2000.35
738.932	1922.53
739.118	2047.46
739.303	2029.03
739.489	2022.88
739.674	2022.88
739.859	2004.45
740.045	2002.4
740.23	1893.86
740.416	1813.99
740.601	1857
740.786	2051.55
740.972	1908.19
741.157	1951.2
741.342	1795.56
741.528	1943.01
741.713	1891.81
741.898	1865.19
742.084	1924.58
742.269	2035.17
742.454	1930.72
742.639	1943.01
742.824	1854.95
743.01	1865.19
743.195	1740.26
743.38	1822.18
743.565	1902.05
743.75	1959.39
743.935	1805.8
744.12	1777.12
744.305	1883.62
744.49	1730.02
744.675	1707.49
744.86	1797.6
745.045	1828.32
745.23	1822.18
745.415	1834.47
745.6	1754.6
745.785	1801.7
745.97	1727.97
746.155	1689.06
746.34	1750.5
746.525	1605.1
746.71	1650.15
746.895	1703.4
747.079	1770.98
747.264	1654.25
747.449	1756.65
747.634	1601
747.819	1744.36
748.003	1619.43
748.188	1572.33
748.373	1627.62
748.557	1664.49
748.742	1586.66
748.927	1654.25
749.111	1521.13
749.296	1514.98
749.481	1580.52
749.665	1494.51
749.85	1480.17
750.034	1660.39
750.219	1506.79
750.404	1609.19
750.588	1480.17
750.773	1457.64
750.957	1480.17
751.141	1482.22
751.326	1439.21
751.51	1396.2
751.695	1396.2
751.879	1431.02
752.064	1408.49
752.248	1390.06
752.432	1414.63
752.617	1508.84
752.801	1385.96
752.985	1398.25
753.17	1469.93
753.354	1428.97
753.538	1291.76
753.722	1336.81
753.907	1271.28
754.091	1302
754.275	1338.86
754.459	1277.42
754.643	1218.03
754.828	1279.47
755.012	1318.38
755.196	1283.56
755.38	1318.38
755.564	1218.03
755.748	1279.47
755.932	1275.37
756.116	1232.37
756.3	1144.3
756.484	1308.14
756.668	1213.93
756.852	1111.54
757.036	1166.83
757.22	1177.07
757.404	1132.01
757.588	1113.58
757.772	1240.56
757.956	1187.31
758.14	1150.45
758.323	1154.54
758.507	1025.52
758.691	1093.1
758.875	1076.72
759.059	1177.07
759.242	1076.72
759.426	1111.54
759.61	1062.38
759.794	1070.58
759.977	1078.77
760.161	1046
760.345	1119.73
760.528	1115.63
760.712	1105.39
760.895	1103.34
761.079	1015.28
761.263	1050.1
761.446	1015.28
761.63	964.08
761.813	972.27
761.997	1043.95
762.18	990.7
762.364	927.22
762.547	1035.76
762.731	1029.62
762.914	892.4
763.098	1002.99
763.281	933.36
763.464	871.92
763.648	968.18
763.831	1015.28
764.015	929.27
764.198	980.47
764.381	931.31
764.564	957.94
764.748	990.7
764.931	898.55
765.114	927.22
765.297	923.12
765.481	890.35
765.664	876.02
765.847	830.96
766.03	880.11
766.213	906.74
766.397	898.55
766.58	982.51
766.763	873.97
766.946	955.89
767.129	820.72
767.312	904.69
767.495	968.18
767.678	962.03
767.861	876.02
768.044	869.87
768.227	800.24
768.41	869.87
768.593	906.74
768.776	806.39
768.959	867.83
769.142	812.53
769.324	833.01
769.507	845.3
769.69	777.72
769.873	753.14
770.056	839.16
770.239	769.52
770.421	863.73
770.604	771.57
770.787	785.91
770.97	759.28
771.152	790
771.335	884.21
771.518	740.85
771.7	835.06
771.883	767.48
772.066	794.1
772.248	859.63
772.431	779.76
772.613	759.28
772.796	675.32
772.978	720.37
773.161	792.05
773.343	859.63
773.526	722.42
773.708	738.8
773.891	650.74
774.073	695.8
774.256	765.43
774.438	730.61
774.621	642.55
774.803	755.19
774.985	699.89
775.168	689.65
775.35	650.74
775.532	626.17
775.715	597.49
775.897	677.37
776.079	617.97
776.261	630.26
776.444	660.98
776.626	708.09
776.808	642.55
776.99	583.16
777.173	562.68
777.355	603.64
777.537	579.06
777.719	636.41
777.901	542.2
778.083	583.16
778.265	574.97
778.447	732.66
778.629	609.78
778.811	558.58
778.993	558.58
779.175	527.86
779.357	638.45
779.539	601.59
779.721	581.11
779.903	572.92
780.085	591.35
780.267	529.91
780.449	546.3
780.631	593.4
780.812	577.02
780.994	579.06
781.176	574.97
781.358	527.86
781.54	505.34
781.721	468.47
781.903	544.25
782.085	476.66
782.267	505.34
782.448	499.19
782.63	476.66
782.812	536.06
782.993	507.38
783.175	517.62
783.357	472.57
783.538	439.8
783.72	462.33
783.901	447.99
784.083	437.75
784.264	425.47
784.446	450.04
784.627	431.61
784.809	503.29
784.99	519.67
785.172	368.12
785.353	357.88
785.535	415.23
785.716	437.75
785.897	447.99
786.079	501.24
786.26	376.31
786.441	437.75
786.623	409.08
786.804	359.93
786.985	515.58
787.167	431.61
787.348	480.76
787.529	355.83
787.71	458.23
787.891	294.4
788.073	347.64
788.254	396.79
788.435	390.65
788.616	374.27
788.797	349.69
788.978	368.12
789.159	402.94
789.34	306.68
789.522	329.21
789.703	323.07
789.884	355.83
790.065	335.35
790.246	394.75
790.427	325.12
790.607	329.21
790.788	286.2
790.969	337.4
791.15	355.83
791.331	333.31
791.512	349.69
791.693	204.28
791.874	361.98
792.054	349.69
792.235	288.25
792.416	359.93
792.597	321.02
792.778	357.88
792.958	296.44
793.139	380.41
793.32	183.81
793.5	265.72
793.681	368.12
793.862	306.68
794.042	347.64
794.223	329.21
794.404	312.83
794.584	263.68
794.765	312.83
794.945	269.82
795.126	323.07
795.306	298.49
795.487	251.39
795.667	241.15
795.848	206.33
796.028	286.2
796.209	245.24
796.389	275.96
796.57	306.68
796.75	255.48
796.93	278.01
797.111	249.34
797.291	239.1
797.471	253.44
797.652	212.48
797.832	284.16
798.012	292.35
798.192	228.86
798.373	206.33
798.553	310.78
798.733	235
798.913	245.24
799.093	214.52
799.274	185.85
799.454	222.72
799.634	200.19
799.814	228.86
799.994	263.68
800.174	237.05
800.354	187.9
800.534	216.57
800.714	259.58
800.894	253.44
801.074	175.61
801.254	226.81
801.434	265.72
801.614	179.71
801.794	159.23
801.974	497.14
802.154	275.96
802.334	312.83
802.514	167.42
802.693	183.81
802.873	181.76
803.053	263.68
803.233	257.53
803.413	243.2
803.592	239.1
803.772	265.72
803.952	204.28
804.131	296.44
804.311	151.04
804.491	185.85
804.67	167.42
804.85	183.81
805.03	253.44
805.209	255.48
805.389	167.42
805.568	257.53
805.748	179.71
805.928	196.09
806.107	187.9
806.287	85.5
806.466	128.51
806.646	124.41
806.825	187.9
807.004	136.7
807.184	228.86
807.363	214.52
807.543	200.19
807.722	232.96
807.901	185.85
808.081	126.46
808.26	105.98
808.439	200.19
808.619	161.28
808.798	169.47
808.977	136.7
809.156	144.89
809.336	239.1
809.515	155.13
809.694	138.75
809.873	108.03
810.052	220.67
810.231	237.05
810.411	136.7
810.59	128.51
810.769	146.94
810.948	187.9
811.127	38.4
811.306	134.65
811.485	187.9
811.664	122.37
811.843	77.31
812.022	161.28
812.201	179.71
812.38	89.6
812.559	148.99
812.737	167.42
812.916	144.89
813.095	200.19
813.274	204.28
813.453	73.21
813.632	110.08
813.811	101.89
813.989	81.41
814.168	167.42
814.347	185.85
814.526	159.23
814.704	138.75
814.883	159.23
815.062	187.9
815.24	192
815.419	110.08
815.598	159.23
815.776	183.81
815.955	93.69
816.133	93.69
816.312	173.57
816.49	50.69
816.669	97.79
816.847	87.55
817.026	101.89
817.204	3.58
817.383	161.28
817.561	173.57
817.74	179.71
817.918	194.05
818.097	85.5
818.275	101.89
818.453	155.13
818.632	75.26
818.81	52.74
818.988	91.65
819.167	67.07
819.345	126.46
819.523	157.18
819.701	177.66
819.879	87.55
820.058	146.94
820.236	196.09
820.414	87.55
820.592	187.9
820.77	71.17
820.948	58.88
821.127	116.22
821.305	130.56
821.483	58.88
821.661	132.61
821.839	126.46
822.017	108.03
822.195	171.52
822.373	146.94
822.551	165.37
822.729	146.94
822.907	89.6
823.085	130.56
823.262	79.36
823.44	85.5
823.618	110.08
823.796	118.27
823.974	85.5
824.152	157.18
824.329	110.08
824.507	136.7
824.685	112.13
824.863	44.54
825.04	38.4
825.218	134.65
825.396	126.46
825.574	54.78
825.751	97.79
825.929	112.13
826.107	13.82
826.284	146.94
826.462	89.6
826.639	46.59
826.817	105.98
826.994	153.09
827.172	126.46
827.349	67.07
827.527	79.36
827.704	56.83
827.882	128.51
828.059	-37.38
828.237	99.84
828.414	62.98
828.591	-29.18
828.769	54.78
828.946	75.26
829.124	157.18
829.301	97.79
829.478	85.5
829.655	159.23
829.833	138.75
830.01	44.54
830.187	132.61
830.364	124.41
830.542	105.98
830.719	105.98
830.896	93.69
831.073	108.03
831.25	36.35
831.427	114.17
831.604	79.36
831.782	-4.61
831.959	75.26
832.136	71.17
832.313	7.68
832.49	67.07
832.667	83.45
832.844	85.5
833.021	65.02
833.198	28.16
833.374	50.69
833.551	58.88
833.728	202.24
833.905	67.07
834.082	24.06
834.259	36.35
834.436	44.54
834.612	50.69
834.789	97.79
834.966	118.27
835.143	83.45
835.319	34.3
835.496	83.45
835.673	77.31
835.85	24.06
836.026	112.13
836.203	146.94
836.38	9.73
836.556	52.74
836.733	28.16
836.909	175.61
837.086	46.59
837.262	89.6
837.439	103.93
837.616	54.78
837.792	52.74
837.968	3.58
838.145	60.93
838.321	101.89
838.498	69.12
838.674	17.92
838.851	32.26
839.027	110.08
839.203	75.26
839.38	93.69
839.556	52.74
839.732	28.16
839.909	34.3
840.085	130.56
840.261	85.5
840.437	65.02
840.614	52.74
840.79	114.17
840.966	73.21
841.142	62.98
841.318	24.06
841.494	101.89
841.671	122.37
841.847	99.84
842.023	3.58
842.199	73.21
842.375	54.78
842.551	24.06
842.727	46.59
842.903	56.83
843.079	34.3
843.255	81.41
843.431	75.26
843.607	17.92
843.783	71.17
843.959	101.89
844.134	17.92
844.31	83.45
844.486	62.98
844.662	34.3
844.838	62.98
845.013	-6.66
845.189	62.98
845.365	9.73
845.541	-6.66
845.716	99.84
845.892	77.31
846.068	48.64
846.244	7.68
846.419	46.59
846.595	36.35
846.77	40.45
846.946	44.54
847.122	28.16
847.297	-0.51
847.473	22.02
847.648	3.58
847.824	83.45
847.999	85.5
848.175	-29.18
848.35	46.59
848.526	95.74
848.701	97.79
848.876	40.45
849.052	5.63
849.227	89.6
849.403	32.26
849.578	89.6
849.753	69.12
849.929	124.41
850.104	-8.7
850.279	40.45
850.454	3.58
850.63	62.98
850.805	54.78
850.98	120.32
851.155	9.73
851.33	32.26
851.505	89.6
851.681	38.4
851.856	89.6
852.031	67.07
852.206	-18.94
852.381	62.98
852.556	30.21
852.731	52.74
852.906	36.35
853.081	97.79
853.256	67.07
853.431	-16.9
853.606	17.92
853.781	65.02
853.956	40.45
854.131	52.74
854.305	-61.95
854.48	-16.9
854.655	22.02
854.83	15.87
855.005	19.97
855.18	1.54
855.354	-0.51
855.529	15.87
855.704	44.54
855.879	-2.56
856.053	-12.8
856.228	40.45
856.403	28.16
856.577	19.97
856.752	-45.57
856.926	44.54
857.101	32.26
857.276	73.21
857.45	28.16
857.625	30.21
857.799	52.74
857.974	-31.23
858.148	7.68
858.323	44.54
858.497	46.59
858.672	15.87
858.846	52.74
859.02	71.17
859.195	-4.61
859.369	28.16
859.543	48.64
859.718	34.3
859.892	15.87
860.066	30.21
860.241	118.27
860.415	7.68
860.589	36.35
860.763	-45.57
860.938	3.58
861.112	-2.56
861.286	58.88
861.46	28.16
861.634	-0.51
861.808	89.6
861.982	15.87
862.157	85.5
862.331	7.68
862.505	54.78
862.679	79.36
862.853	19.97
863.027	-23.04
863.201	17.92
863.375	-16.9
863.549	-23.04
863.722	-37.38
863.896	89.6
864.07	62.98
864.244	-27.14
864.418	75.26
864.592	44.54
864.766	-29.18
864.939	32.26
865.113	-31.23
865.287	73.21
865.461	97.79
865.634	60.93
865.808	24.06
865.982	-23.04
866.156	9.73
866.329	34.3
866.503	77.31
866.676	40.45
866.85	-27.14
867.024	36.35
867.197	-8.7
867.371	126.46
867.544	9.73
867.718	-55.81
867.891	-4.61
868.065	-8.7
868.238	-16.9
868.412	50.69
868.585	28.16
868.759	24.06
868.932	77.31
869.105	-31.23
869.279	26.11
869.452	5.63
869.625	9.73
869.799	34.3
869.972	89.6
870.145	-14.85
870.319	77.31
870.492	114.17
870.665	-12.8
870.838	-31.23
871.011	-47.62
871.185	24.06
871.358	-35.33
871.531	9.73
871.704	-12.8
871.877	22.02
872.05	-6.66
872.223	52.74
872.396	-18.94
872.569	34.3
872.742	65.02
872.915	65.02
873.088	13.82
873.261	26.11
873.434	28.16
873.607	15.87
873.78	62.98
873.953	-4.61
874.126	77.31
874.299	46.59
874.471	-29.18
874.644	30.21
874.817	22.02
874.99	56.83
875.163	50.69
875.335	52.74
875.508	81.41
875.681	40.45
875.853	-49.66
876.026	71.17
876.199	52.74
876.371	56.83
876.544	32.26
876.717	50.69
876.889	-47.62
877.062	32.26
877.234	-6.66
877.407	-12.8
877.579	-61.95
877.752	52.74
877.924	11.78
878.097	-12.8
878.269	-6.66
878.442	40.45
878.614	11.78
878.786	24.06
878.959	-10.75
879.131	-29.18
879.303	-8.7
879.476	60.93
879.648	42.5
879.82	36.35
879.993	28.16
880.165	15.87
880.337	-8.7
880.509	13.82
880.681	24.06
880.854	5.63
881.026	42.5
881.198	65.02
881.37	3.58
881.542	52.74
881.714	3.58
881.886	26.11
882.058	48.64
882.23	-43.52
882.402	3.58
882.574	-2.56
882.746	-12.8
882.918	7.68
883.09	50.69
883.262	93.69
883.434	22.02
883.606	40.45
883.778	7.68
883.95	73.21
884.122	11.78
884.293	46.59
884.465	-72.19
884.637	22.02
884.809	-23.04
884.98	-2.56
885.152	-23.04
885.324	-16.9
885.496	-43.52
885.667	1.54
885.839	28.16
886.011	69.12
886.182	-4.61
886.354	71.17
886.525	-39.42
886.697	30.21
886.869	3.58
887.04	34.3
887.212	19.97
887.383	97.79
887.555	-14.85
887.726	11.78
887.897	7.68
888.069	-16.9
888.24	122.37
888.412	-12.8
888.583	34.3
888.754	83.45
888.926	62.98
889.097	7.68
889.268	-53.76
889.44	-16.9
889.611	34.3
889.782	46.59
889.953	-0.51
890.125	85.5
890.296	-29.18
890.467	-45.57
890.638	26.11
890.809	15.87
890.98	69.12
891.151	38.4
891.323	67.07
891.494	13.82
891.665	-0.51
891.836	52.74
892.007	5.63
892.178	24.06
892.349	-10.75
892.52	-33.28
892.691	-45.57
892.862	-45.57
893.032	-39.42
893.203	36.35
893.374	-2.56
893.545	-8.7
893.716	-4.61
893.887	58.88
894.057	-14.85
894.228	19.97
894.399	95.74
894.57	56.83
894.74	-2.56
894.911	52.74
895.082	-80.38
895.253	3.58
895.423	-25.09
895.594	26.11
895.764	-6.66
895.935	60.93
896.106	42.5
896.276	34.3
896.447	30.21
896.617	67.07
896.788	1.54
896.958	-35.33
897.129	7.68
897.299	30.21
897.47	7.68
897.64	89.6
897.81	15.87
897.981	-31.23
898.151	24.06
898.322	71.17
898.492	28.16
898.662	-23.04
898.832	-4.61
899.003	52.74
899.173	69.12
899.343	56.83
899.513	19.97
