Data from USB4F104151__65__11-06-04-286.txt Node

Date: Wed Mar 12 11:06:04 EDT 2025
User: louis
Spectrometer: USB4F10415
Trigger mode: 4
Integration Time (sec): 2.000000E-2
Scans to average: 1
Electric dark correction enabled: true
Nonlinearity correction enabled: false
Boxcar width: 0
XAxis mode: Wavelengths
Number of Pixels in Spectrum: 3648
>>>>>Begin Spectral Data<<<<<
178.204	-33.45
178.424	-33.45
178.644	-33.45
178.864	-109.23
179.084	-62.12
179.304	-12.97
179.524	111.96
179.744	-12.97
179.964	-2.73
180.184	17.75
180.404	-39.59
180.624	-74.41
180.844	5.46
181.064	-27.31
181.283	-4.78
181.503	1.37
181.723	38.23
181.943	-2.73
182.163	50.52
182.383	46.42
182.602	1.37
182.822	58.71
183.042	71
183.262	56.66
183.482	40.28
183.701	87.38
183.921	-0.68
184.141	-21.16
184.361	89.43
184.58	40.28
184.8	34.13
185.02	15.7
185.239	34.13
185.459	-29.35
185.679	50.52
185.898	-23.21
186.118	36.18
186.338	11.61
186.557	25.94
186.777	-2.73
186.997	23.89
187.216	15.7
187.436	91.48
187.655	36.18
187.875	75.09
188.095	-0.68
188.314	105.81
188.534	44.37
188.753	13.65
188.973	23.89
189.192	23.89
189.412	-19.11
189.631	11.61
189.851	-4.78
190.07	97.62
190.29	7.51
190.509	15.7
190.729	25.94
190.948	-29.35
191.168	85.33
191.387	81.24
191.607	25.94
191.826	38.23
192.045	-55.98
192.265	40.28
192.484	77.14
192.704	77.14
192.923	15.7
193.142	32.08
193.362	5.46
193.581	32.08
193.8	36.18
194.02	-12.97
194.239	-12.97
194.458	44.37
194.678	36.18
194.897	-4.78
195.116	25.94
195.335	48.47
195.555	56.66
195.774	-0.68
195.993	25.94
196.212	60.76
196.432	-15.02
196.651	15.7
196.87	83.28
197.089	32.08
197.308	42.32
197.528	7.51
197.747	15.7
197.966	-8.87
198.185	54.61
198.404	1.37
198.623	13.65
198.842	19.8
199.062	27.99
199.281	71
199.5	-0.68
199.719	66.9
199.938	48.47
200.157	54.61
200.376	107.86
200.595	44.37
200.814	19.8
201.033	11.61
201.252	15.7
201.471	75.09
201.69	48.47
201.909	19.8
202.128	38.23
202.347	44.37
202.566	9.56
202.785	48.47
203.004	-43.69
203.223	34.13
203.442	9.56
203.661	-6.83
203.879	-0.68
204.098	27.99
204.317	60.76
204.536	101.72
204.755	-2.73
204.974	77.14
205.193	71
205.411	15.7
205.63	52.56
205.849	27.99
206.068	87.38
206.287	56.66
206.505	40.28
206.724	9.56
206.943	-6.83
207.162	40.28
207.381	38.23
207.599	32.08
207.818	-8.87
208.037	38.23
208.255	56.66
208.474	25.94
208.693	107.86
208.911	21.84
209.13	75.09
209.349	73.04
209.567	40.28
209.786	15.7
210.005	38.23
210.223	7.51
210.442	23.89
210.661	40.28
210.879	-8.87
211.098	38.23
211.316	-0.68
211.535	54.61
211.753	11.61
211.972	109.91
212.191	-33.45
212.409	32.08
212.628	19.8
212.846	40.28
213.065	73.04
213.283	40.28
213.502	-19.11
213.72	19.8
213.938	25.94
214.157	32.08
214.375	30.04
214.594	-2.73
214.812	79.19
215.031	91.48
215.249	23.89
215.467	71
215.686	38.23
215.904	44.37
216.122	-60.07
216.341	27.99
216.559	56.66
216.778	79.19
216.996	23.89
217.214	30.04
217.432	73.04
217.651	15.7
217.869	13.65
218.087	7.51
218.306	11.61
218.524	7.51
218.742	-47.79
218.96	32.08
219.179	13.65
219.397	-23.21
219.615	15.7
219.833	17.75
220.051	38.23
220.27	38.23
220.488	54.61
220.706	32.08
220.924	-6.83
221.142	87.38
221.36	68.95
221.578	5.46
221.796	19.8
222.015	15.7
222.233	-41.64
222.451	52.56
222.669	-39.59
222.887	122.2
223.105	-86.7
223.323	56.66
223.541	54.61
223.759	77.14
223.977	40.28
224.195	46.42
224.413	30.04
224.631	23.89
224.849	-10.92
225.067	140.63
225.285	-19.11
225.503	-25.26
225.721	81.24
225.939	19.8
226.157	7.51
226.375	36.18
226.592	44.37
226.81	68.95
227.028	13.65
227.246	77.14
227.464	32.08
227.682	75.09
227.9	44.37
228.117	40.28
228.335	17.75
228.553	77.14
228.771	23.89
228.989	-2.73
229.206	15.7
229.424	19.8
229.642	-2.73
229.86	5.46
230.077	71
230.295	-4.78
230.513	19.8
230.731	77.14
230.948	62.8
231.166	85.33
231.384	48.47
231.601	52.56
231.819	15.7
232.037	91.48
232.254	7.51
232.472	9.56
232.689	32.08
232.907	13.65
233.125	23.89
233.342	42.32
233.56	11.61
233.777	75.09
233.995	32.08
234.213	64.85
234.43	5.46
234.648	23.89
234.865	-43.69
235.083	19.8
235.3	71
235.518	99.67
235.735	93.52
235.953	34.13
236.17	75.09
236.388	27.99
236.605	-4.78
236.822	85.33
237.04	36.18
237.257	81.24
237.475	3.41
237.692	50.52
237.909	95.57
238.127	36.18
238.344	23.89
238.562	-2.73
238.779	-8.87
238.996	30.04
239.214	-0.68
239.431	54.61
239.648	-47.79
239.865	48.47
240.083	13.65
240.3	38.23
240.517	32.08
240.735	58.71
240.952	25.94
241.169	44.37
241.386	3.41
241.603	21.84
241.821	15.7
242.038	17.75
242.255	56.66
242.472	-84.65
242.689	23.89
242.907	-0.68
243.124	56.66
243.341	46.42
243.558	1.37
243.775	132.44
243.992	-51.88
244.209	-0.68
244.426	46.42
244.643	91.48
244.86	-17.07
245.078	71
245.295	54.61
245.512	48.47
245.729	7.51
245.946	17.75
246.163	25.94
246.38	66.9
246.597	9.56
246.814	-0.68
247.031	-8.87
247.248	-29.35
247.464	66.9
247.681	71
247.898	66.9
248.115	46.42
248.332	25.94
248.549	-6.83
248.766	89.43
248.983	-21.16
249.2	40.28
249.417	79.19
249.633	30.04
249.85	34.13
250.067	-19.11
250.284	75.09
250.501	-15.02
250.717	107.86
250.934	81.24
251.151	17.75
251.368	-68.27
251.585	-0.68
251.801	38.23
252.018	-43.69
252.235	81.24
252.451	19.8
252.668	-8.87
252.885	66.9
253.102	58.71
253.318	46.42
253.535	75.09
253.752	13.65
253.968	-17.07
254.185	-10.92
254.401	15.7
254.618	68.95
254.835	62.8
255.051	97.62
255.268	7.51
255.484	-2.73
255.701	-29.35
255.917	75.09
256.134	-19.11
256.351	52.56
256.567	-12.97
256.784	-33.45
257	85.33
257.217	56.66
257.433	91.48
257.65	66.9
257.866	-10.92
258.082	-17.07
258.299	36.18
258.515	52.56
258.732	71
258.948	-39.59
259.165	71
259.381	30.04
259.597	11.61
259.814	93.52
260.03	32.08
260.246	17.75
260.463	56.66
260.679	40.28
260.895	64.85
261.112	79.19
261.328	66.9
261.544	71
261.761	36.18
261.977	32.08
262.193	-35.5
262.409	23.89
262.626	25.94
262.842	62.8
263.058	54.61
263.274	40.28
263.49	27.99
263.707	25.94
263.923	87.38
264.139	-27.31
264.355	62.8
264.571	99.67
264.787	9.56
265.004	23.89
265.22	58.71
265.436	9.56
265.652	-33.45
265.868	34.13
266.084	-0.68
266.3	79.19
266.516	23.89
266.732	85.33
266.948	42.32
267.164	-10.92
267.38	-4.78
267.596	32.08
267.812	23.89
268.028	-15.02
268.244	42.32
268.46	54.61
268.676	-53.93
268.892	44.37
269.108	-47.79
269.324	46.42
269.54	-21.16
269.756	91.48
269.972	23.89
270.188	7.51
270.403	-2.73
270.619	7.51
270.835	44.37
271.051	9.56
271.267	-23.21
271.483	-2.73
271.698	7.51
271.914	62.8
272.13	-6.83
272.346	3.41
272.562	52.56
272.777	19.8
272.993	87.38
273.209	68.95
273.425	83.28
273.64	-53.93
273.856	97.62
274.072	52.56
274.287	-4.78
274.503	-2.73
274.719	-12.97
274.934	-17.07
275.15	5.46
275.366	44.37
275.581	-17.07
275.797	-2.73
276.012	50.52
276.228	-19.11
276.444	1.37
276.659	114
276.875	-25.26
277.09	32.08
277.306	36.18
277.521	56.66
277.737	19.8
277.952	50.52
278.168	126.29
278.383	62.8
278.599	66.9
278.814	25.94
279.03	58.71
279.245	36.18
279.461	-0.68
279.676	79.19
279.892	56.66
280.107	23.89
280.322	21.84
280.538	-53.93
280.753	75.09
280.969	44.37
281.184	-23.21
281.399	48.47
281.615	-0.68
281.83	93.52
282.045	21.84
282.26	60.76
282.476	52.56
282.691	25.94
282.906	48.47
283.122	-21.16
283.337	15.7
283.552	68.95
283.767	19.8
283.983	81.24
284.198	-10.92
284.413	62.8
284.628	36.18
284.843	62.8
285.058	17.75
285.274	13.65
285.489	7.51
285.704	52.56
285.919	-4.78
286.134	3.41
286.349	-0.68
286.564	23.89
286.779	163.15
286.995	71
287.21	44.37
287.425	5.46
287.64	27.99
287.855	62.8
288.07	-66.22
288.285	97.62
288.5	101.72
288.715	38.23
288.93	107.86
289.145	5.46
289.36	38.23
289.575	42.32
289.79	50.52
290.004	1.37
290.219	60.76
290.434	36.18
290.649	21.84
290.864	19.8
291.079	99.67
291.294	-6.83
291.509	40.28
291.724	27.99
291.938	13.65
292.153	5.46
292.368	-8.87
292.583	36.18
292.798	36.18
293.012	64.85
293.227	30.04
293.442	36.18
293.657	77.14
293.871	101.72
294.086	58.71
294.301	99.67
294.516	71
294.73	85.33
294.945	-10.92
295.16	50.52
295.374	-17.07
295.589	56.66
295.804	56.66
296.018	54.61
296.233	111.96
296.447	23.89
296.662	-12.97
296.877	13.65
297.091	111.96
297.306	58.71
297.52	111.96
297.735	50.52
297.949	93.52
298.164	9.56
298.378	40.28
298.593	-8.87
298.807	-21.16
299.022	81.24
299.236	93.52
299.451	99.67
299.665	56.66
299.88	36.18
300.094	-10.92
300.309	42.32
300.523	38.23
300.737	17.75
300.952	36.18
301.166	95.57
301.381	34.13
301.595	17.75
301.809	25.94
302.024	25.94
302.238	-0.68
302.452	13.65
302.667	42.32
302.881	30.04
303.095	56.66
303.309	32.08
303.524	-4.78
303.738	15.7
303.952	48.47
304.166	11.61
304.381	-19.11
304.595	58.71
304.809	36.18
305.023	36.18
305.237	3.41
305.452	-12.97
305.666	54.61
305.88	62.8
306.094	7.51
306.308	81.24
306.522	114
306.736	11.61
306.95	19.8
307.164	36.18
307.379	38.23
307.593	50.52
307.807	40.28
308.021	103.76
308.235	7.51
308.449	-12.97
308.663	73.04
308.877	68.95
309.091	109.91
309.305	83.28
309.519	5.46
309.733	42.32
309.947	9.56
310.161	54.61
310.374	48.47
310.588	73.04
310.802	36.18
311.016	-27.31
311.23	124.24
311.444	32.08
311.658	34.13
311.872	-4.78
312.085	5.46
312.299	62.8
312.513	91.48
312.727	54.61
312.941	36.18
313.154	17.75
313.368	3.41
313.582	107.86
313.796	118.1
314.009	36.18
314.223	48.47
314.437	48.47
314.651	66.9
314.864	23.89
315.078	38.23
315.292	105.81
315.505	-39.59
315.719	27.99
315.933	27.99
316.146	15.7
316.36	64.85
316.573	46.42
316.787	85.33
317.001	11.61
317.214	7.51
317.428	87.38
317.641	15.7
317.855	1.37
318.068	30.04
318.282	15.7
318.495	111.96
318.709	95.57
318.922	-33.45
319.136	120.15
319.349	-4.78
319.563	42.32
319.776	23.89
319.99	30.04
320.203	60.76
320.417	36.18
320.63	48.47
320.843	79.19
321.057	81.24
321.27	85.33
321.483	40.28
321.697	58.71
321.91	-4.78
322.124	25.94
322.337	3.41
322.55	36.18
322.763	68.95
322.977	64.85
323.19	-21.16
323.403	-8.87
323.617	27.99
323.83	130.39
324.043	-62.12
324.256	3.41
324.469	-68.27
324.683	44.37
324.896	27.99
325.109	50.52
325.322	1.37
325.535	44.37
325.748	11.61
325.962	-6.83
326.175	81.24
326.388	7.51
326.601	23.89
326.814	56.66
327.027	-12.97
327.24	97.62
327.453	79.19
327.666	27.99
327.879	97.62
328.092	1.37
328.305	48.47
328.518	54.61
328.731	40.28
328.944	89.43
329.157	66.9
329.37	73.04
329.583	114
329.796	68.95
330.009	54.61
330.222	79.19
330.435	44.37
330.648	36.18
330.861	15.7
331.073	-0.68
331.286	64.85
331.499	-12.97
331.712	50.52
331.925	95.57
332.138	40.28
332.35	99.67
332.563	30.04
332.776	36.18
332.989	-25.26
333.202	93.52
333.414	99.67
333.627	48.47
333.84	103.76
334.053	68.95
334.265	52.56
334.478	81.24
334.691	-17.07
334.903	111.96
335.116	-15.02
335.329	30.04
335.541	99.67
335.754	56.66
335.966	54.61
336.179	54.61
336.392	13.65
336.604	54.61
336.817	75.09
337.029	34.13
337.242	42.32
337.454	11.61
337.667	7.51
337.88	48.47
338.092	19.8
338.305	56.66
338.517	64.85
338.729	23.89
338.942	-4.78
339.154	46.42
339.367	42.32
339.579	15.7
339.792	-0.68
340.004	89.43
340.217	30.04
340.429	101.72
340.641	95.57
340.854	30.04
341.066	3.41
341.278	42.32
341.491	97.62
341.703	52.56
341.915	52.56
342.128	81.24
342.34	64.85
342.552	58.71
342.764	68.95
342.977	79.19
343.189	83.28
343.401	15.7
343.613	-25.26
343.826	83.28
344.038	114
344.25	32.08
344.462	42.32
344.674	103.76
344.886	11.61
345.099	-49.83
345.311	68.95
345.523	85.33
345.735	38.23
345.947	17.75
346.159	40.28
346.371	-0.68
346.583	9.56
346.795	91.48
347.007	15.7
347.219	46.42
347.431	30.04
347.643	60.76
347.855	13.65
348.067	73.04
348.279	-4.78
348.491	3.41
348.703	-6.83
348.915	66.9
349.127	25.94
349.339	52.56
349.551	-4.78
349.763	116.05
349.975	17.75
350.187	93.52
350.399	99.67
350.61	27.99
350.822	40.28
351.034	25.94
351.246	36.18
351.458	-2.73
351.669	73.04
351.881	68.95
352.093	54.61
352.305	75.09
352.517	60.76
352.728	118.1
352.94	56.66
353.152	89.43
353.363	48.47
353.575	19.8
353.787	85.33
353.999	-31.4
354.21	30.04
354.422	1.37
354.633	-37.55
354.845	-10.92
355.057	87.38
355.268	34.13
355.48	83.28
355.692	-53.93
355.903	50.52
356.115	34.13
356.326	44.37
356.538	77.14
356.749	15.7
356.961	103.76
357.172	54.61
357.384	42.32
357.595	146.77
357.807	44.37
358.018	34.13
358.23	66.9
358.441	60.76
358.653	105.81
358.864	42.32
359.075	-39.59
359.287	13.65
359.498	30.04
359.709	32.08
359.921	19.8
360.132	73.04
360.344	40.28
360.555	60.76
360.766	111.96
360.977	54.61
361.189	79.19
361.4	-39.59
361.611	95.57
361.823	58.71
362.034	38.23
362.245	50.52
362.456	77.14
362.667	36.18
362.879	46.42
363.09	44.37
363.301	32.08
363.512	64.85
363.723	-2.73
363.935	56.66
364.146	54.61
364.357	19.8
364.568	-12.97
364.779	17.75
364.99	91.48
365.201	13.65
365.412	-8.87
365.623	36.18
365.834	21.84
366.045	42.32
366.256	77.14
366.467	23.89
366.678	93.52
366.889	5.46
367.1	48.47
367.311	7.51
367.522	32.08
367.733	62.8
367.944	-6.83
368.155	21.84
368.366	-10.92
368.577	56.66
368.788	120.15
368.999	73.04
369.209	21.84
369.42	64.85
369.631	1.37
369.842	21.84
370.053	42.32
370.264	27.99
370.474	114
370.685	114
370.896	118.1
371.107	91.48
371.317	-23.21
371.528	71
371.739	13.65
371.95	-8.87
372.16	30.04
372.371	13.65
372.582	71
372.792	56.66
373.003	30.04
373.214	7.51
373.424	34.13
373.635	-17.07
373.846	13.65
374.056	15.7
374.267	38.23
374.477	-27.31
374.688	21.84
374.898	85.33
375.109	32.08
375.319	46.42
375.53	89.43
375.74	89.43
375.951	48.47
376.161	19.8
376.372	56.66
376.582	-12.97
376.793	58.71
377.003	52.56
377.214	-8.87
377.424	-25.26
377.635	46.42
377.845	40.28
378.055	105.81
378.266	42.32
378.476	32.08
378.686	32.08
378.897	68.95
379.107	66.9
379.317	91.48
379.528	-12.97
379.738	58.71
379.948	-8.87
380.158	97.62
380.369	40.28
380.579	21.84
380.789	97.62
380.999	85.33
381.21	95.57
381.42	73.04
381.63	46.42
381.84	85.33
382.05	81.24
382.261	58.71
382.471	71
382.681	25.94
382.891	93.52
383.101	73.04
383.311	15.7
383.521	36.18
383.731	79.19
383.941	58.71
384.151	44.37
384.361	83.28
384.571	95.57
384.781	56.66
384.991	46.42
385.201	73.04
385.411	101.72
385.621	42.32
385.831	44.37
386.041	17.75
386.251	116.05
386.461	103.76
386.671	7.51
386.881	140.63
387.091	25.94
387.301	62.8
387.511	50.52
387.72	91.48
387.93	83.28
388.14	40.28
388.35	157.01
388.56	38.23
388.769	73.04
388.979	85.33
389.189	68.95
389.399	124.24
389.609	97.62
389.818	77.14
390.028	77.14
390.238	42.32
390.447	-4.78
390.657	122.2
390.867	107.86
391.076	52.56
391.286	48.47
391.496	71
391.705	66.9
391.915	103.76
392.125	48.47
392.334	40.28
392.544	138.58
392.753	48.47
392.963	23.89
393.172	152.91
393.382	116.05
393.591	122.2
393.801	60.76
394.01	83.28
394.22	85.33
394.429	62.8
394.639	62.8
394.848	93.52
395.058	64.85
395.267	140.63
395.477	152.91
395.686	11.61
395.895	146.77
396.105	142.68
396.314	54.61
396.524	107.86
396.733	87.38
396.942	114
397.152	62.8
397.361	116.05
397.57	32.08
397.78	91.48
397.989	122.2
398.198	130.39
398.407	114
398.617	165.2
398.826	116.05
399.035	64.85
399.244	77.14
399.453	152.91
399.663	185.68
399.872	132.44
400.081	130.39
400.29	116.05
400.499	109.91
400.708	48.47
400.917	122.2
401.127	75.09
401.336	163.15
401.545	146.77
401.754	183.63
401.963	134.48
402.172	85.33
402.381	105.81
402.59	165.2
402.799	54.61
403.008	89.43
403.217	154.96
403.426	142.68
403.635	171.35
403.844	163.15
404.053	154.96
404.262	126.29
404.471	116.05
404.68	101.72
404.888	154.96
405.097	165.2
405.306	120.15
405.515	204.11
405.724	71
405.933	165.2
406.142	204.11
406.35	173.39
406.559	232.79
406.768	177.49
406.977	200.02
407.185	150.87
407.394	189.78
407.603	146.77
407.812	163.15
408.02	181.59
408.229	183.63
408.438	171.35
408.646	255.31
408.855	202.07
409.064	171.35
409.272	212.31
409.481	316.75
409.69	277.84
409.898	259.41
410.107	314.7
410.315	376.14
410.524	249.17
410.733	343.38
410.941	273.75
411.15	331.09
411.358	380.24
411.567	337.23
411.775	349.52
411.984	374.1
412.192	484.69
412.401	410.96
412.609	472.4
412.818	490.83
413.026	445.77
413.234	468.3
413.443	441.68
413.651	474.45
413.86	548.17
414.068	564.56
414.276	578.89
414.485	662.86
414.693	656.72
414.901	656.72
415.11	736.59
415.318	632.14
415.526	666.96
415.734	750.92
415.943	755.02
416.151	757.07
416.359	806.22
416.567	826.7
416.776	859.46
416.984	965.96
417.192	892.23
417.4	957.77
417.608	970.05
417.817	957.77
418.025	1035.59
418.233	1168.71
418.441	1062.21
418.649	1146.18
418.857	1254.72
419.065	1228.1
419.273	1197.38
419.481	1246.53
419.689	1285.44
419.897	1477.95
420.105	1445.18
420.313	1553.73
420.521	1627.45
420.729	1609.02
420.937	1619.26
421.145	1674.56
421.353	1613.12
421.561	1889.59
421.769	1883.45
421.977	1932.6
422.185	1946.94
422.393	2014.52
422.601	2233.65
422.809	2192.69
423.017	2164.02
423.224	2258.23
423.432	2487.6
423.64	2409.78
423.848	2501.94
424.056	2495.79
424.263	2590
424.471	2659.63
424.679	2671.92
424.887	2827.56
425.094	2843.95
425.302	3009.83
425.51	3265.83
425.718	3237.16
425.925	3181.86
426.133	3255.59
426.341	3493.15
426.548	3718.43
426.756	3753.24
426.964	3839.26
427.171	3923.23
427.379	4216.08
427.586	4105.49
427.794	4189.46
428.001	4455.7
428.209	4597.01
428.417	4738.32
428.624	4979.98
428.832	4865.29
429.039	5006.6
429.247	4943.11
429.454	5555.46
429.662	5885.18
429.869	5573.89
430.076	5883.13
430.284	5627.14
430.491	5864.7
430.699	6319.35
430.906	6249.72
431.114	6317.3
431.321	6331.64
431.528	6638.83
431.736	7085.29
431.943	7335.14
432.15	7113.96
432.358	7351.53
432.565	7724.26
432.772	7546.08
432.979	7998.68
433.187	8164.57
433.394	8209.62
433.601	8817.87
433.808	8862.93
434.016	8774.86
434.223	9211.08
434.43	9811.14
434.637	9458.88
434.844	10034.36
435.052	10245.3
435.259	10144.95
435.466	10429.62
435.673	10263.74
435.88	10917.04
436.087	11420.84
436.294	11353.26
436.501	11156.65
436.708	11570.34
436.915	11932.83
437.122	12395.67
437.329	12182.68
437.537	12739.73
437.743	12844.18
437.95	12934.29
438.157	13603.97
438.364	13880.45
438.571	13909.12
438.778	14118.01
438.985	15266.92
439.192	14812.28
439.399	15254.64
439.606	14859.38
439.813	15488.1
440.02	16669.78
440.227	16389.21
440.433	16260.19
440.64	16704.6
440.847	16413.79
441.054	17237.07
441.261	18205.76
441.467	17847.36
441.674	18410.56
441.881	19022.9
442.088	18961.46
442.294	18820.15
442.501	19508.27
442.708	19747.88
442.914	20476.96
443.121	21447.69
443.328	20636.7
443.534	22313.98
443.741	21367.82
443.948	21263.38
444.154	23202.8
444.361	22629.37
444.568	22653.95
444.774	22840.31
444.981	23241.71
445.187	24056.81
445.394	24941.53
445.6	24437.73
445.807	26860.48
446.013	25899.98
446.22	25992.14
446.426	27188.15
446.633	27569.07
446.839	28363.68
447.046	27100.09
447.252	28500.9
447.459	28507.04
447.665	28834.72
447.871	29928.33
448.078	31189.88
448.284	29498.26
448.491	30399.37
448.697	31323
448.903	32322.41
449.11	32367.46
449.316	31519.6
449.522	32336.74
449.728	32740.19
449.935	33499.99
450.141	32998.24
450.347	34212.68
450.553	32830.3
450.76	33108.83
450.966	34468.68
451.172	34155.34
451.378	34798.4
451.584	34186.06
451.791	35046.21
451.997	34579.27
452.203	35042.11
452.409	35429.18
452.615	34939.71
452.821	33790.8
453.027	33315.67
453.233	35345.21
453.44	33690.45
453.646	34216.78
453.852	34333.51
454.058	34812.74
454.264	33440.6
454.47	34100.04
454.676	33631.06
454.882	34237.26
455.088	31540.08
455.294	31896.43
455.5	32623.46
455.705	32754.53
455.911	31427.45
456.117	31024
456.323	30251.91
456.529	28986.27
456.735	30000.01
456.941	29246.36
457.147	28836.77
457.352	27761.58
457.558	27497.39
457.764	27577.26
457.97	27239.35
458.176	26516.42
458.381	26270.66
458.587	24916.95
458.793	25088.98
458.999	23708.65
459.204	25713.61
459.41	24968.15
459.616	23002.1
459.821	23358.45
460.027	23266.29
460.233	22717.43
460.438	21531.66
460.644	21715.98
460.85	21077.01
461.055	20704.28
461.261	20599.83
461.466	19274.8
461.672	18304.06
461.878	19633.19
462.083	18467.9
462.289	18125.89
462.494	17888.32
462.7	17005.65
462.905	16622.68
463.111	17149.01
463.316	17362
463.522	16979.03
463.727	16839.76
463.932	16852.05
464.138	16741.46
464.343	16538.71
464.549	16628.82
464.754	17022.03
464.959	16817.24
465.165	16477.27
465.37	15916.13
465.575	15746.15
465.781	16235.61
465.986	16065.63
466.191	15555.69
466.397	15445.1
466.602	14734.45
466.807	15092.85
467.012	15144.05
467.218	15285.36
467.423	14881.91
467.628	15002.74
467.833	15807.59
468.038	14972.02
468.244	14605.43
468.449	15230.06
468.654	15047.79
468.859	14523.51
469.064	14623.86
469.269	13997.18
469.474	13905.03
469.679	14152.83
469.885	13984.9
470.09	14138.49
470.295	13931.65
470.5	13692.04
470.705	13798.53
470.91	13530.25
471.115	13221
471.32	13534.34
471.525	13360.27
471.73	13264.01
471.935	13300.87
472.139	12772.5
472.344	12858.51
472.549	12729.49
472.754	12463.26
472.959	12297.37
473.164	12127.39
473.369	12072.09
473.574	12393.62
473.778	12168.35
473.983	12035.23
474.188	12098.72
474.393	11476.13
474.598	11502.76
474.802	11371.69
475.007	11246.76
475.212	11379.88
475.417	10888.37
475.621	11058.35
475.826	10949.81
476.031	10816.69
476.235	10517.68
476.44	10966.19
476.645	10527.92
476.849	10607.8
477.054	10337.46
477.259	10357.94
477.463	10222.78
477.668	9768.13
477.872	10144.95
478.077	9948.35
478.282	9770.18
478.486	9573.57
478.691	9481.41
478.895	9583.81
479.1	9587.91
479.304	9790.66
479.509	9331.91
479.713	9530.56
479.918	9061.58
480.122	9061.58
480.326	9262.28
480.531	9387.21
480.735	9317.58
480.94	9112.78
481.144	9325.77
481.348	8950.99
481.553	9071.82
481.757	8756.43
481.961	9034.96
482.166	9120.97
482.37	9057.48
482.574	8701.14
482.778	8889.55
482.983	9116.87
483.187	8926.41
483.391	8936.65
483.595	8756.43
483.8	8973.52
484.004	8850.64
484.208	9053.39
484.412	8766.67
484.616	8709.33
484.821	8891.6
485.025	8787.15
485.229	8914.13
485.433	8789.2
485.637	8922.32
485.841	8938.7
486.045	8729.81
486.249	8735.95
486.453	8885.45
486.657	8809.68
486.861	9002.19
487.065	8633.55
487.269	9028.81
487.473	8758.48
487.677	8768.72
487.881	9098.44
488.085	8867.02
488.289	8875.21
488.493	8828.11
488.697	8930.51
488.901	9129.16
489.105	8875.21
489.309	8867.02
489.512	9151.69
489.716	9020.62
489.92	9100.49
490.124	8963.28
490.328	9311.43
490.531	9075.91
490.735	9127.11
490.939	9112.78
491.143	8983.76
491.346	9317.58
491.55	9194.7
491.754	9407.69
491.958	9477.32
492.161	9254.09
492.365	9440.45
492.569	9508.04
492.772	9471.17
492.976	9436.36
493.18	9524.42
493.383	9845.95
493.587	9630.91
493.79	9823.42
493.994	9757.89
494.197	9737.41
494.401	10013.88
494.605	9899.2
494.808	10282.17
495.012	10198.2
495.215	10108.09
495.419	10310.84
495.622	10253.5
495.825	10273.98
496.029	10243.26
496.232	10777.78
496.436	10597.56
496.639	11017.39
496.843	10988.72
497.046	11009.2
497.249	11158.7
497.453	11197.61
497.656	11304.1
497.859	11320.49
498.063	11472.04
498.266	11793.57
498.469	11766.95
498.673	11760.8
498.876	11969.69
499.079	12217.5
499.282	12176.54
499.485	12502.17
499.689	12508.31
499.892	12532.89
500.095	12659.86
500.298	13112.46
500.501	12659.86
500.705	13339.79
500.908	13352.07
501.111	13597.83
501.314	13589.64
501.517	13808.77
501.72	13853.83
501.923	13790.34
502.126	14060.67
502.329	14523.51
502.532	14507.13
502.735	14673.01
502.938	14888.05
503.141	15168.62
503.344	15477.87
503.547	15264.88
503.75	15340.65
503.953	15774.82
504.156	16106.59
504.359	16032.86
504.562	15830.12
504.765	16749.65
504.968	16557.14
505.17	16962.64
505.373	16948.31
505.576	17204.3
505.779	17243.21
505.982	17701.96
506.185	17783.88
506.387	17906.76
506.59	18076.74
506.793	18216
506.996	18056.26
507.198	19018.8
507.401	18443.32
507.604	18973.75
507.807	19182.64
508.009	19627.05
508.212	19477.55
508.415	19878.95
508.617	20161.57
508.82	20597.79
509.022	20263.97
509.225	20710.43
509.428	21105.68
509.63	21054.48
509.833	21251.09
510.035	21754.89
510.238	21795.85
510.44	21988.36
510.643	22111.24
510.845	22391.81
511.048	22365.18
511.25	22746.11
511.453	22856.7
511.655	23821.29
511.858	23127.03
512.06	23632.88
512.262	23663.6
512.465	23784.43
512.667	24230.88
512.87	24474.59
513.072	24560.61
513.274	25299.92
513.477	25304.02
513.679	25351.12
513.881	26035.14
514.084	26198.98
514.286	26174.41
514.488	26569.66
514.69	26985.4
514.893	26938.3
515.095	27077.56
515.297	27382.71
515.499	27519.92
515.701	28232.61
515.904	28322.73
516.106	28537.76
516.308	28906.4
516.51	29332.37
516.712	29170.58
516.914	29518.74
517.116	30081.93
517.318	29877.13
517.52	30339.97
517.722	30245.77
517.925	31243.13
518.127	31415.16
518.329	31236.98
518.531	31343.48
518.733	31900.53
518.935	32058.22
519.136	32119.66
519.338	32598.88
519.54	32867.17
519.742	33084.25
519.944	33590.1
520.146	34210.64
520.348	34345.8
520.55	34190.16
520.752	34362.18
520.954	34849.6
521.155	35220.28
521.357	35531.58
521.559	35713.84
521.761	36330.28
521.963	35881.78
522.164	35941.17
522.366	36477.74
522.568	36844.32
522.77	37215.01
522.971	37987.09
523.173	37446.43
523.375	37841.68
523.576	37982.99
523.778	38124.3
523.98	38662.92
524.181	38884.1
524.383	39060.23
524.584	39310.08
524.786	39539.45
524.988	39031.55
525.189	39990
525.391	40209.14
525.592	40149.74
525.794	40332.01
525.995	40493.8
526.197	40575.72
526.398	40647.4
526.6	40977.12
526.801	41683.67
527.003	41614.04
527.204	41566.94
527.406	41947.86
527.607	42164.95
527.808	42539.72
528.01	41433.82
528.211	42220.24
528.412	43145.92
528.614	42678.99
528.815	42674.89
529.016	43066.05
529.218	42697.42
529.419	43244.23
529.62	43606.72
529.822	43260.61
530.023	43451.07
530.224	43909.82
530.425	43518.65
530.626	43066.05
530.828	43178.69
531.029	44425.9
531.23	43555.52
531.431	43475.65
531.632	43934.39
531.833	44434.1
532.035	43854.52
532.236	44264.11
532.437	44434.1
532.638	44133.04
532.839	44696.24
533.04	44569.26
533.241	44126.9
533.442	45171.36
533.643	44657.32
533.844	44876.46
534.045	45025.96
534.246	44581.55
534.447	44974.76
534.648	44552.88
534.849	44903.08
535.05	44712.62
535.251	45286.05
535.451	44536.49
535.652	45030.05
535.853	44868.26
536.054	45073.06
536.255	45142.69
536.456	45023.91
536.657	45349.54
536.857	45154.98
537.058	44696.24
537.259	44755.63
537.46	45042.34
537.66	44980.9
537.861	45224.61
538.062	45114.02
538.263	44815.02
538.463	45025.96
538.664	45062.82
538.865	44937.9
539.065	45748.89
539.266	44751.53
539.466	45421.22
539.667	44477.1
539.868	45410.98
540.068	45091.49
540.269	44798.63
540.469	45439.65
540.67	44991.14
540.87	45077.16
541.071	44935.85
541.271	44673.71
541.472	45331.11
541.672	44851.88
541.873	44642.99
542.073	44606.12
542.274	45847.19
542.474	45028.01
542.675	44810.92
542.875	45468.32
543.075	44876.46
543.276	44657.32
543.476	45527.71
543.676	45064.87
543.877	44831.4
544.077	45036.2
544.277	44956.33
544.478	45048.49
544.678	45032.1
544.878	44724.91
545.078	45394.59
545.279	44432.05
545.479	44690.09
545.679	45138.6
545.879	45132.45
546.079	44872.36
546.28	44878.5
546.48	44577.45
546.68	45126.31
546.88	45163.17
547.08	45056.68
547.28	44757.67
547.48	44579.5
547.68	44925.61
547.88	44712.62
548.081	44827.31
548.281	44860.07
548.481	44657.32
548.681	45316.77
548.881	44810.92
549.081	45001.38
549.28	44270.26
549.48	44696.24
549.68	44751.53
549.88	45550.24
550.08	44499.63
550.28	45060.77
550.48	44399.28
550.68	44858.02
550.88	44724.91
551.08	44325.55
551.279	44884.65
551.479	44696.24
551.679	44548.78
551.879	44733.1
552.079	44741.29
552.278	44290.74
552.478	44716.71
552.678	44294.83
552.878	45200.04
553.077	44614.32
553.277	44249.78
553.477	44980.9
553.676	44765.87
553.876	44718.76
554.076	44294.83
554.275	44655.28
554.475	43981.49
554.674	44233.39
554.874	44812.97
555.074	44083.89
555.273	44298.93
555.473	44599.98
555.672	44309.17
555.872	44063.41
556.071	44407.47
556.271	44466.86
556.47	43651.77
556.67	43739.83
556.869	43705.02
557.068	44303.03
557.268	43608.76
557.467	43664.06
557.667	44257.97
557.866	43588.28
558.065	43655.87
558.265	43489.98
558.464	43352.77
558.663	43842.23
558.863	43088.58
559.062	43934.39
559.261	43219.65
559.461	43666.11
559.66	43053.76
559.859	43352.77
560.058	42939.08
560.258	43180.74
560.457	42941.13
560.656	43274.94
560.855	42797.77
561.054	42996.42
561.253	42672.84
561.453	43002.57
561.652	42898.12
561.851	42928.84
562.05	42898.12
562.249	42132.18
562.448	42658.51
562.647	42558.16
562.846	42150.61
563.045	42187.47
563.244	42058.45
563.443	42746.57
563.642	41847.51
563.841	42371.79
564.04	41845.46
564.239	42105.55
564.438	41446.11
564.637	42046.16
564.836	41790.17
565.035	41358.05
565.234	41458.4
565.432	41413.34
565.631	41003.75
565.83	41665.24
566.029	41132.77
566.228	40295.15
566.427	40911.59
566.625	40725.22
566.824	40108.79
567.023	40921.83
567.222	40018.67
567.42	40930.02
567.619	40502
567.818	40598.25
568.016	40213.23
568.215	40485.61
568.414	39727.86
568.612	40643.31
568.811	40119.03
569.01	40258.29
569.208	39539.45
569.407	39871.22
569.605	39308.03
569.804	39342.85
570.002	38755.08
570.201	39416.57
570.4	39506.68
570.598	38953.73
570.797	38802.18
570.995	39418.62
571.193	38806.28
571.392	38945.54
571.59	38427.4
571.789	38757.13
571.987	38613.77
572.186	38376.2
572.384	38103.82
572.582	37974.8
572.781	38232.85
572.979	37972.75
573.177	37843.73
573.376	37823.25
573.574	37221.15
573.772	37798.68
573.971	37581.59
574.169	37245.72
574.367	37600.02
574.565	37622.55
574.763	37249.82
574.962	37049.12
575.16	36887.33
575.358	37198.62
575.556	36594.47
575.754	37094.18
575.952	36201.26
576.151	36952.87
576.349	36076.33
576.547	36533.03
576.745	36254.51
576.943	36266.8
577.141	36420.39
577.339	36164.4
577.537	36004.66
577.735	36031.28
577.933	35701.56
578.131	35730.23
578.329	35558.2
578.527	35285.82
578.725	35339.07
578.923	35664.69
579.121	35119.93
579.319	35521.34
579.516	35369.79
579.714	35175.23
579.912	34736.96
580.11	34661.19
580.308	34839.36
580.506	34886.46
580.704	34407.24
580.901	34829.12
581.099	34857.79
581.297	34419.53
581.495	34161.48
581.692	34110.28
581.89	33864.53
582.088	33989.45
582.285	33866.58
582.483	33985.36
582.681	34020.17
582.878	33436.5
583.076	33424.22
583.274	33735.51
583.471	33129.31
583.669	33647.44
583.866	33586
584.064	33434.46
584.262	32895.84
584.459	33092.44
584.657	32768.87
584.854	33018.72
585.052	32471.91
585.249	32910.18
585.447	32779.11
585.644	32410.47
585.841	32586.6
586.039	32725.86
586.236	32275.3
586.434	32174.95
586.631	32062.32
586.828	32181.1
587.026	32090.99
587.223	31738.74
587.42	31802.22
587.618	32129.9
587.815	31157.11
588.012	31304.57
588.21	31656.82
588.407	31767.41
588.604	31339.38
588.801	31077.24
588.999	31124.35
589.196	31251.32
589.393	31021.95
589.59	30757.76
589.787	30624.64
589.984	30770.05
590.182	30729.09
590.379	31040.38
590.576	30245.77
590.773	30464.9
590.97	30159.75
591.167	30409.61
591.364	29918.09
591.561	30329.73
591.758	29649.81
591.955	29698.96
592.152	30143.37
592.349	29782.93
592.546	29981.58
592.743	29766.54
592.94	28963.74
593.137	29488.02
593.334	29426.58
593.531	29103
593.727	29369.24
593.924	29234.07
594.121	28916.64
594.318	29379.48
594.515	28707.74
594.712	29338.52
594.908	28861.34
595.105	28804
595.302	28275.62
595.499	28439.46
595.696	28668.83
595.892	28109.74
596.089	28443.56
596.286	28310.44
596.482	28312.49
596.679	28185.51
596.876	28099.5
597.072	27935.66
597.269	27933.61
597.466	27818.92
597.662	27646.9
597.859	27773.87
598.055	27669.42
598.252	27048.89
598.448	27515.83
598.645	27351.99
598.841	27241.4
599.038	27358.13
599.234	27184.05
599.431	27044.79
599.627	26844.09
599.824	27208.63
600.02	26346.44
600.217	26842.04
600.413	26661.82
600.609	26446.79
600.806	26371.01
601.002	26543.04
601.198	26141.64
601.395	26184.65
601.591	26215.37
601.787	26262.47
601.984	26065.86
602.18	26031.05
602.376	25773
602.572	25562.06
602.769	25830.35
602.965	25310.16
603.161	25848.78
603.357	25457.62
603.553	25224.15
603.75	25830.35
603.946	25013.21
604.142	25142.23
604.338	24832.99
604.534	25471.95
604.73	24554.46
604.926	25009.11
605.122	24763.36
605.318	24646.62
605.514	24665.05
605.71	24435.68
605.906	24527.84
606.102	24361.95
606.298	24605.66
606.494	24490.98
606.69	24560.61
606.886	24458.21
607.082	24101.86
607.278	24277.99
607.474	24038.37
607.67	24329.19
607.866	24077.29
608.062	24294.37
608.257	23950.31
608.453	23841.77
608.649	24007.65
608.845	23946.22
609.041	23729.13
609.236	23700.46
609.432	23862.25
609.628	23493.61
609.824	23553.01
610.019	23423.98
610.215	23548.91
610.411	23540.72
610.606	23151.6
610.802	23444.46
610.998	23405.55
611.193	23514.09
611.389	22971.38
611.584	22825.98
611.78	22993.91
611.976	23024.63
612.171	23096.31
612.367	23280.63
612.562	22772.73
612.758	22594.56
612.953	22471.68
613.149	22836.22
613.344	22490.11
613.539	22920.18
613.735	22438.91
613.93	22610.94
614.126	22598.65
614.321	22707.19
614.517	22729.72
614.712	22551.55
614.907	22273.03
615.103	22680.57
615.298	22139.91
615.493	22699
615.688	21781.51
615.884	22533.12
616.079	21740.55
616.274	22264.83
616.47	22152.2
616.665	22144
616.86	21816.33
617.055	21799.94
617.25	22121.48
617.445	22154.24
617.641	21443.6
617.836	22141.96
618.031	21527.56
618.226	21421.07
618.421	21726.22
618.616	21875.72
618.811	21425.17
619.006	21459.98
619.201	20894.74
619.396	21367.82
619.591	20825.11
619.786	21124.11
619.981	20581.4
620.176	21115.92
620.371	20808.73
620.566	20753.43
620.761	20706.33
620.956	20896.79
621.151	20386.85
621.346	20403.23
621.541	20466.72
621.735	20126.75
621.93	19747.88
622.125	20169.76
622.32	19708.97
622.515	19919.91
622.709	19743.78
622.904	19506.22
623.099	19790.89
623.294	19547.18
623.488	19170.35
623.683	19414.06
623.878	19037.23
624.072	19194.93
624.267	18783.29
624.462	19137.59
624.656	18957.36
624.851	18629.69
625.046	18404.41
625.24	18406.46
625.435	18558.01
625.629	18242.62
625.824	18048.07
626.018	18177.09
626.213	17550.41
626.407	17945.67
626.602	17767.49
626.796	17742.92
626.991	17906.76
627.185	17497.16
627.38	17505.35
627.574	17222.73
627.768	17118.29
627.963	17173.58
628.157	16987.22
628.352	17169.49
628.546	16925.78
628.74	17019.99
628.935	16788.57
629.129	16632.92
629.323	16426.07
629.517	16645.21
629.712	16184.41
629.906	16303.2
630.1	16247.9
630.294	16125.02
630.489	15914.08
630.683	16071.78
630.877	15869.03
631.071	15684.71
631.265	15922.27
631.459	15572.07
631.653	15643.75
631.848	15383.66
632.042	15342.7
632.236	15506.54
632.43	15332.46
632.624	15189.1
632.818	15047.79
633.012	14996.59
633.206	15058.03
633.4	15111.28
633.594	14879.86
633.788	14785.65
633.982	14797.94
634.176	14699.64
634.369	14085.25
634.563	14398.59
634.757	14218.36
634.951	14408.83
635.145	14216.32
635.339	14296.19
635.533	14185.6
635.726	14062.72
635.92	14181.5
636.114	14019.71
636.308	13810.82
636.501	13790.34
636.695	13884.55
636.889	13450.38
637.083	13499.53
637.276	13280.39
637.47	13403.27
637.664	13350.03
637.857	13118.61
638.051	13202.57
638.244	13036.69
638.438	13003.92
638.632	13044.88
638.825	12797.07
639.019	12958.86
639.212	12747.92
639.406	12729.49
639.599	12598.42
639.793	12530.84
639.986	12487.83
640.18	12545.17
640.373	12338.33
640.567	12364.95
640.76	12227.74
640.954	12084.38
641.147	12172.44
641.34	11777.19
641.534	12063.9
641.727	11816.1
641.92	11785.38
642.114	11863.2
642.307	11656.36
642.5	11592.87
642.694	11553.96
642.887	11533.48
643.08	11582.63
643.273	11472.04
643.467	11484.33
643.66	11316.39
643.853	11031.72
644.046	11125.93
644.239	11089.07
644.432	11015.34
644.626	10908.85
644.819	10988.72
645.012	11101.36
645.205	11007.15
645.398	10796.21
645.591	10697.91
645.784	10630.32
645.977	10579.12
646.17	10532.02
646.363	10486.97
646.556	10327.22
646.749	10376.38
646.942	10230.97
647.135	10190.01
647.328	10058.94
647.521	10126.52
647.714	9899.2
647.907	10144.95
648.099	9970.88
648.292	10005.69
648.485	9954.49
648.678	9848
648.871	9725.12
649.064	9841.86
649.256	9837.76
649.449	9524.42
649.642	9549
649.835	9565.38
650.027	9370.82
650.22	9444.55
650.413	9311.43
650.605	9063.63
650.798	9188.55
650.991	9067.72
651.183	9198.79
651.376	9133.26
651.568	9116.87
651.761	9108.68
651.954	9026.76
652.146	8977.61
652.339	8955.08
652.531	8981.71
652.724	8688.85
652.916	8858.83
653.109	8625.36
653.301	8680.66
653.494	8809.68
653.686	8596.69
653.879	8670.42
654.071	8504.53
654.263	8447.19
654.456	8479.96
654.648	8510.68
654.84	8238.3
655.033	8307.93
655.225	8150.23
655.417	8160.47
655.61	8131.8
655.802	8228.06
655.994	8053.98
656.186	8058.07
656.379	7865.57
656.571	7867.61
656.763	7916.76
656.955	7884
657.148	8109.27
657.34	7681.25
657.532	7615.71
657.724	7779.55
657.916	7746.78
658.108	7515.36
658.3	7591.14
658.492	7458.02
658.684	7525.6
658.876	7548.13
659.068	7439.59
659.26	7402.72
659.452	7396.58
659.644	7472.36
659.836	7156.97
660.028	7079.15
660.22	7146.73
660.412	7210.22
660.604	7236.84
660.796	7179.5
660.988	7167.21
661.18	7064.81
661.372	6903.02
661.563	6915.31
661.755	6819.05
661.947	6923.5
662.139	6886.64
662.331	6587.63
662.522	6794.48
662.714	6628.59
662.906	6659.31
663.097	6685.94
663.289	6575.34
663.481	6403.32
663.673	6597.87
663.864	6403.32
664.056	6491.38
664.247	6618.35
664.439	6321.4
664.631	6444.27
664.822	6434.04
665.014	6415.6
665.205	6360.31
665.397	6114.55
665.588	6364.4
665.78	6094.07
665.971	6071.54
666.163	6208.76
666.354	6192.37
666.546	6110.46
666.737	5979.39
666.929	5975.29
667.12	5922.04
667.311	5973.24
667.503	5909.76
667.694	5969.15
667.885	5919.99
668.077	5852.41
668.268	5817.6
668.459	5870.84
668.651	5688.57
668.842	5629.18
669.033	5684.48
669.224	5627.14
669.416	5491.97
669.607	5588.22
669.798	5426.43
669.989	5557.5
670.18	5686.53
670.371	5616.9
670.563	5485.83
670.754	5618.94
670.945	5352.71
671.136	5391.62
671.327	5299.46
671.518	5379.33
671.709	5571.84
671.9	5334.28
672.091	5393.67
672.282	5297.41
672.473	5143.81
672.664	5309.7
672.855	5109
673.046	5166.34
673.237	5233.93
673.428	5285.12
673.619	4936.97
673.809	5135.62
674	5137.67
674.191	5158.15
674.382	5057.8
674.573	5065.99
674.764	5156.1
674.954	5215.49
675.145	4857.1
675.336	4891.91
675.527	5098.76
675.717	5061.9
675.908	4947.21
676.099	4924.68
676.289	4877.58
676.48	4853
676.671	4826.38
676.861	4783.37
677.052	4764.94
677.243	4787.47
677.433	4805.9
677.624	4975.88
677.814	4650.25
678.005	4758.8
678.195	4785.42
678.386	4769.04
678.576	4637.97
678.767	4594.96
678.957	4742.41
679.148	4752.65
679.338	4644.11
679.529	4586.77
679.719	4637.97
679.909	4676.88
680.1	4455.7
680.29	4510.99
680.481	4584.72
680.671	4586.77
680.861	4474.13
681.052	4543.76
681.242	4560.14
681.432	4408.59
681.622	4439.31
681.813	4381.97
682.003	4500.75
682.193	4308.24
682.383	4484.37
682.573	4349.2
682.764	4396.31
682.954	4449.55
683.144	4431.12
683.334	4271.38
683.524	4277.52
683.714	4293.91
683.904	4414.74
684.094	4211.99
684.284	4422.93
684.474	4277.52
684.664	4293.91
684.854	4349.2
685.044	4201.75
685.234	4281.62
685.424	4205.85
685.614	4162.84
685.804	4156.69
685.994	4121.88
686.184	4205.85
686.374	4082.97
686.564	4087.06
686.753	4087.06
686.943	4023.58
687.133	4021.53
687.323	4023.58
687.513	4085.01
687.702	4095.25
687.892	4076.82
688.082	3906.84
688.272	3949.85
688.461	4001.05
688.651	3908.89
688.841	3980.57
689.03	3947.8
689.22	3906.84
689.41	3869.98
689.599	3880.22
689.789	3822.88
689.979	3759.39
690.168	3955.99
690.358	3812.64
690.547	3878.17
690.737	3734.81
690.926	3855.64
691.116	3652.89
691.305	3681.57
691.495	3841.31
691.684	3718.43
691.874	3732.76
692.063	3775.77
692.252	3738.91
692.442	3570.97
692.631	3691.8
692.82	3788.06
693.01	3611.93
693.199	3554.59
693.388	3618.08
693.578	3656.99
693.767	3609.89
693.956	3546.4
694.146	3437.86
694.335	3521.82
694.524	3632.41
694.713	3568.93
694.902	3468.58
695.092	3499.3
695.281	3466.53
695.47	3556.64
695.659	3435.81
695.848	3489.06
696.037	3517.73
696.226	3460.38
696.415	3591.45
696.604	3546.4
696.793	3439.9
696.982	3562.78
697.171	3421.47
697.36	3634.46
697.549	3468.58
697.738	3515.68
697.927	3417.38
698.116	3390.75
698.305	3521.82
698.494	3360.03
698.683	3360.03
698.872	3433.76
699.061	3333.41
699.25	3448.1
699.438	3378.47
699.627	3351.84
699.816	3407.14
700.005	3437.86
700.193	3478.82
700.382	3425.57
700.571	3374.37
700.76	3345.7
700.948	3378.47
701.137	3380.51
701.326	3405.09
701.514	3421.47
701.703	3271.97
701.892	3343.65
702.08	3337.51
702.269	3274.02
702.457	3368.23
702.646	3423.52
702.834	3304.74
703.023	3472.67
703.212	3458.34
703.4	3357.99
703.589	3337.51
703.777	3271.97
703.965	3216.68
704.154	3355.94
704.342	3267.88
704.531	3265.83
704.719	3357.99
704.907	3374.37
705.096	3274.02
705.284	3190.05
705.472	3310.88
705.661	3353.89
705.849	3308.83
706.037	3235.11
706.226	3247.4
706.414	3380.51
706.602	3192.1
706.79	3476.77
706.979	3282.21
707.167	3192.1
707.355	3224.87
707.543	3118.37
707.731	3274.02
707.919	3339.55
708.107	3198.24
708.296	3241.25
708.484	3171.62
708.672	3206.44
708.86	3298.59
709.048	3261.73
709.236	3237.16
709.424	3190.05
709.612	3161.38
709.8	3210.53
709.988	3247.4
710.176	3169.57
710.364	3276.07
710.551	3026.22
710.739	3200.29
710.927	3278.12
711.115	3151.14
711.303	3245.35
711.491	3089.7
711.679	3239.2
711.866	3185.96
712.054	3263.78
712.242	3138.85
712.43	3226.92
712.617	3220.77
712.805	3061.03
712.993	3114.28
713.181	3044.65
713.368	3028.26
713.556	3110.18
713.744	3165.48
713.931	3145
714.119	3126.57
714.306	3183.91
714.494	3067.17
714.682	3114.28
714.869	3046.69
715.057	3085.61
715.244	3218.72
715.432	3202.34
715.619	3142.95
715.807	2968.87
715.994	3085.61
716.182	3030.31
716.369	3161.38
716.556	3065.13
716.744	3083.56
716.931	3126.57
717.119	3083.56
717.306	2975.02
717.493	3063.08
717.681	3087.65
717.868	3124.52
718.055	3044.65
718.242	2995.5
718.43	2997.54
718.617	3085.61
718.804	3149.09
718.991	2940.2
719.179	3032.36
719.366	2989.35
719.553	3003.69
719.74	3040.55
719.927	2868.52
720.114	2884.91
720.301	3079.46
720.488	3034.41
720.676	2882.86
720.863	2936.1
721.05	2960.68
721.237	2878.76
721.424	2893.1
721.611	2952.49
721.798	2837.8
721.985	2841.9
722.172	2921.77
722.358	2874.67
722.545	2905.38
722.732	2891.05
722.919	2968.87
723.106	2903.34
723.293	2882.86
723.48	2923.82
723.667	2897.19
723.853	2805.03
724.04	2899.24
724.227	2893.1
724.414	2913.58
724.6	2850.09
724.787	2911.53
724.974	2815.27
725.161	2860.33
725.347	2784.55
725.534	3005.74
725.72	2813.23
725.907	2897.19
726.094	2938.15
726.28	2751.79
726.467	2731.31
726.653	2817.32
726.84	2882.86
727.027	2870.57
727.213	2673.96
727.4	2819.37
727.586	2809.13
727.773	2796.84
727.959	2772.27
728.145	2868.52
728.332	2856.23
728.518	2725.16
728.705	2923.82
728.891	2815.27
729.077	2827.56
729.264	2753.84
729.45	2809.13
729.636	2802.99
729.823	2751.79
730.009	2618.67
730.195	2786.6
730.382	2737.45
730.568	2624.81
730.754	2790.7
730.94	2688.3
731.126	2776.36
731.313	2727.21
731.499	2860.33
731.685	2854.19
731.871	2753.84
732.057	2749.74
732.243	2741.55
732.429	2817.32
732.615	2784.55
732.801	2702.64
732.987	2727.21
733.173	2872.62
733.359	2618.67
733.545	2702.64
733.731	2688.3
733.917	2784.55
734.103	2776.36
734.289	2555.18
734.475	2546.99
734.661	2692.4
734.847	2755.88
735.033	2692.4
735.219	2630.96
735.404	2604.33
735.59	2669.87
735.776	2553.13
735.962	2587.95
736.148	2590
736.333	2587.95
736.519	2633.01
736.705	2651.44
736.89	2538.8
737.076	2626.86
737.262	2590
737.447	2559.28
737.633	2604.33
737.819	2626.86
738.004	2487.6
738.19	2645.29
738.375	2630.96
738.561	2594.09
738.747	2413.87
738.932	2526.51
739.118	2452.78
739.303	2448.69
739.489	2510.13
739.674	2585.9
739.859	2448.69
740.045	2465.07
740.23	2444.59
740.416	2383.15
740.601	2383.15
740.786	2444.59
740.972	2460.98
741.157	2450.74
741.342	2424.11
741.528	2399.54
741.713	2280.75
741.898	2354.48
742.084	2471.22
742.269	2362.67
742.454	2266.42
742.639	2450.74
742.824	2342.19
743.01	2274.61
743.195	2352.43
743.38	2354.48
743.565	2422.06
743.75	2286.9
743.935	2264.37
744.12	2401.58
744.305	2264.37
744.49	2272.56
744.675	2295.09
744.86	2063.67
745.045	2280.75
745.23	2288.95
745.415	2112.82
745.6	2241.84
745.785	2153.78
745.97	2225.46
746.155	2172.21
746.34	2170.16
746.525	2096.44
746.71	2073.91
746.895	2100.53
747.079	2149.68
747.264	2121.01
747.449	2282.8
747.634	2164.02
747.819	2094.39
748.003	1981.75
748.188	2039.09
748.373	2018.61
748.557	1987.89
748.742	2039.09
748.927	1924.41
749.111	1903.93
749.296	1926.46
749.481	2022.71
749.665	1891.64
749.85	1887.54
750.034	1905.98
750.219	1809.72
750.404	1887.54
750.588	1867.06
750.773	1860.92
750.957	1850.68
751.141	1873.21
751.326	1912.12
751.51	1858.87
751.695	1695.04
751.879	1770.81
752.064	1789.24
752.248	1750.33
752.432	1826.11
752.617	1744.19
752.801	1754.43
752.985	1742.14
753.17	1801.53
753.354	1629.5
753.538	1695.04
753.722	1668.41
753.907	1662.27
754.091	1680.7
754.275	1625.4
754.459	1598.78
754.643	1660.22
754.828	1572.16
755.012	1629.5
755.196	1654.08
755.38	1561.92
755.564	1426.75
755.748	1508.67
755.932	1580.35
756.116	1467.71
756.3	1471.81
756.484	1404.22
756.668	1480
756.852	1445.18
757.036	1566.01
757.22	1398.08
757.404	1488.19
757.588	1396.03
757.772	1406.27
757.956	1465.66
758.14	1445.18
758.323	1355.07
758.507	1469.76
758.691	1281.35
758.875	1436.99
759.059	1375.55
759.242	1492.29
759.426	1353.02
759.61	1291.59
759.794	1275.2
759.977	1357.12
760.161	1416.51
760.345	1338.69
760.528	1307.97
760.712	1357.12
760.895	1393.98
761.079	1213.76
761.263	1316.16
761.446	1234.24
761.63	1224
761.813	1211.71
761.997	1271.11
762.18	1246.53
762.364	1217.86
762.547	1164.61
762.731	1160.52
762.914	1281.35
763.098	1244.48
763.281	1254.72
763.464	1340.74
763.648	1285.44
763.831	1101.12
764.015	1154.37
764.198	1156.42
764.381	1209.67
764.564	1174.85
764.748	1174.85
764.931	1172.8
765.114	1054.02
765.297	1170.76
765.481	1140.04
765.664	1135.94
765.847	1133.89
766.03	1146.18
766.213	1092.93
766.397	1228.1
766.58	1121.6
766.763	1135.94
766.946	1109.32
767.129	1070.4
767.312	1039.69
767.495	1094.98
767.678	1066.31
767.861	1140.04
768.044	1062.21
768.227	1213.76
768.41	1135.94
768.593	1123.65
768.776	1109.32
768.959	1015.11
769.142	1086.79
769.324	1101.12
769.507	951.62
769.69	984.39
769.873	1068.36
770.056	1023.3
770.239	1080.64
770.421	965.96
770.604	1094.98
770.787	906.57
770.97	933.19
771.152	976.2
771.335	996.68
771.518	996.68
771.7	1004.87
771.883	922.95
772.066	1000.77
772.248	939.33
772.431	951.62
772.613	998.73
772.796	941.38
772.978	961.86
773.161	970.05
773.343	984.39
773.526	963.91
773.708	904.52
773.891	916.81
774.073	902.47
774.256	898.38
774.438	931.14
774.621	886.09
774.803	847.18
774.985	808.26
775.168	777.55
775.35	879.94
775.532	845.13
775.715	793.93
775.897	828.74
776.079	777.55
776.261	886.09
776.444	810.31
776.626	853.32
776.808	791.88
776.99	826.7
777.173	791.88
777.355	755.02
777.537	779.59
777.719	771.4
777.901	857.42
778.083	812.36
778.265	701.77
778.447	808.26
778.629	709.96
778.811	761.16
778.993	716.11
779.175	707.91
779.357	787.79
779.539	724.3
779.721	730.44
779.903	742.73
780.085	689.48
780.267	679.24
780.449	679.24
780.631	750.92
780.812	671.05
780.994	783.69
781.176	736.59
781.358	660.81
781.54	595.28
781.721	589.13
781.903	675.15
782.085	558.41
782.267	597.32
782.448	585.04
782.63	585.04
782.812	566.6
782.993	664.91
783.175	617.8
783.357	626
783.538	529.74
783.72	679.24
783.901	527.69
784.083	619.85
784.264	531.79
784.446	519.5
784.627	537.93
784.809	458.06
784.99	599.37
785.172	515.41
785.353	568.65
785.535	552.27
785.716	517.45
785.897	507.21
786.079	574.8
786.26	494.93
786.441	492.88
786.623	507.21
786.804	490.83
786.985	546.12
787.167	486.73
787.348	421.2
787.529	527.69
787.71	578.89
787.891	521.55
788.073	458.06
788.254	445.77
788.435	441.68
788.616	503.12
788.797	474.45
788.978	441.68
789.159	460.11
789.34	474.45
789.522	486.73
789.703	474.45
789.884	421.2
790.065	476.49
790.246	447.82
790.427	445.77
790.607	421.2
790.788	372.05
790.969	431.44
791.15	490.83
791.331	382.29
791.512	423.25
791.693	359.76
791.874	347.47
792.054	413.01
792.235	355.66
792.416	431.44
792.597	337.23
792.778	388.43
792.958	445.77
793.139	439.63
793.32	388.43
793.5	384.34
793.681	441.68
793.862	302.42
794.042	308.56
794.223	386.38
794.404	394.58
794.584	302.42
794.765	398.67
794.945	392.53
795.126	281.94
795.306	417.1
795.487	298.32
795.667	337.23
795.848	402.77
796.028	363.86
796.209	376.14
796.389	372.05
796.57	466.25
796.75	269.65
796.93	341.33
797.111	324.94
797.291	359.76
797.471	318.8
797.652	302.42
797.832	353.62
798.012	347.47
798.192	286.03
798.373	329.04
798.553	245.07
798.733	308.56
798.913	247.12
799.093	310.61
799.274	302.42
799.454	292.18
799.634	222.55
799.814	337.23
799.994	302.42
800.174	214.35
800.354	271.7
800.534	292.18
800.714	345.42
800.894	265.55
801.074	288.08
801.254	294.22
801.434	275.79
801.614	308.56
801.794	324.94
801.974	638.28
802.154	232.79
802.334	277.84
802.514	275.79
802.693	236.88
802.873	283.98
803.053	322.9
803.233	255.31
803.413	294.22
803.592	261.46
803.772	275.79
803.952	281.94
804.131	210.26
804.311	202.07
804.491	294.22
804.67	173.39
804.85	218.45
805.03	279.89
805.209	257.36
805.389	212.31
805.568	177.49
805.748	183.63
805.928	230.74
806.107	277.84
806.287	283.98
806.466	230.74
806.646	224.59
806.825	197.97
807.004	197.97
807.184	277.84
807.363	171.35
807.543	220.5
807.722	175.44
807.901	261.46
808.081	195.92
808.26	181.59
808.439	286.03
808.619	302.42
808.798	263.51
808.977	216.4
809.156	261.46
809.336	228.69
809.515	185.68
809.694	253.27
809.873	216.4
810.052	171.35
810.231	232.79
810.411	251.22
810.59	189.78
810.769	204.11
810.948	251.22
811.127	228.69
811.306	193.87
811.485	218.45
811.664	167.25
811.843	130.39
812.022	210.26
812.201	191.83
812.38	216.4
812.559	197.97
812.737	111.96
812.916	175.44
813.095	165.2
813.274	212.31
813.453	130.39
813.632	165.2
813.811	275.79
813.989	146.77
814.168	134.48
814.347	136.53
814.526	150.87
814.704	210.26
814.883	197.97
815.062	200.02
815.24	177.49
815.419	159.06
815.598	277.84
815.776	177.49
815.955	150.87
816.133	161.11
816.312	212.31
816.49	130.39
816.669	200.02
816.847	124.24
817.026	111.96
817.204	136.53
817.383	146.77
817.561	91.48
817.74	157.01
817.918	159.06
818.097	175.44
818.275	101.72
818.453	187.73
818.632	222.55
818.81	173.39
818.988	175.44
819.167	167.25
819.345	179.54
819.523	206.16
819.701	107.86
819.879	191.83
820.058	128.34
820.236	204.11
820.414	167.25
820.592	152.91
820.77	157.01
820.948	165.2
821.127	197.97
821.305	159.06
821.483	146.77
821.661	136.53
821.839	138.58
822.017	138.58
822.195	81.24
822.373	161.11
822.551	150.87
822.729	193.87
822.907	154.96
823.085	152.91
823.262	128.34
823.44	105.81
823.618	97.62
823.796	181.59
823.974	148.82
824.152	42.32
824.329	136.53
824.507	146.77
824.685	212.31
824.863	114
825.04	197.97
825.218	122.2
825.396	154.96
825.574	152.91
825.751	122.2
825.929	132.44
826.107	68.95
826.284	101.72
826.462	105.81
826.639	97.62
826.817	93.52
826.994	68.95
827.172	58.71
827.349	150.87
827.527	154.96
827.704	132.44
827.882	114
828.059	169.3
828.237	138.58
828.414	120.15
828.591	27.99
828.769	107.86
828.946	19.8
829.124	79.19
829.301	93.52
829.478	114
829.655	101.72
829.833	91.48
830.01	111.96
830.187	77.14
830.364	81.24
830.542	157.01
830.719	99.67
830.896	181.59
831.073	122.2
831.25	95.57
831.427	62.8
831.604	36.18
831.782	140.63
831.959	124.24
832.136	46.42
832.313	97.62
832.49	116.05
832.667	64.85
832.844	71
833.021	114
833.198	68.95
833.374	56.66
833.551	71
833.728	81.24
833.905	134.48
834.082	42.32
834.259	142.68
834.436	159.06
834.612	56.66
834.789	107.86
834.966	91.48
835.143	89.43
835.319	-6.83
835.496	101.72
835.673	105.81
835.85	87.38
836.026	77.14
836.203	109.91
836.38	73.04
836.556	99.67
836.733	81.24
836.909	34.13
837.086	60.76
837.262	136.53
837.439	89.43
837.616	85.33
837.792	25.94
837.968	134.48
838.145	32.08
838.321	17.75
838.498	128.34
838.674	109.91
838.851	64.85
839.027	68.95
839.203	68.95
839.38	5.46
839.556	87.38
839.732	85.33
839.909	44.37
840.085	38.23
840.261	40.28
840.437	77.14
840.614	32.08
840.79	89.43
840.966	85.33
841.142	23.89
841.318	56.66
841.494	99.67
841.671	77.14
841.847	30.04
842.023	95.57
842.199	-33.45
842.375	111.96
842.551	-45.74
842.727	93.52
842.903	66.9
843.079	107.86
843.255	126.29
843.431	89.43
843.607	68.95
843.783	60.76
843.959	105.81
844.134	50.52
844.31	11.61
844.486	95.57
844.662	71
844.838	56.66
845.013	85.33
845.189	87.38
845.365	73.04
845.541	83.28
845.716	91.48
845.892	79.19
846.068	40.28
846.244	64.85
846.419	25.94
846.595	81.24
846.77	109.91
846.946	27.99
847.122	-2.73
847.297	-15.02
847.473	54.61
847.648	93.52
847.824	107.86
847.999	27.99
848.175	109.91
848.35	17.75
848.526	136.53
848.701	120.15
848.876	105.81
849.052	54.61
849.227	138.58
849.403	95.57
849.578	68.95
849.753	-43.69
849.929	9.56
850.104	7.51
850.279	50.52
850.454	32.08
850.63	93.52
850.805	99.67
850.98	83.28
851.155	19.8
851.33	81.24
851.505	75.09
851.681	159.06
851.856	66.9
852.031	50.52
852.206	107.86
852.381	25.94
852.556	54.61
852.731	40.28
852.906	23.89
853.081	-15.02
853.256	15.7
853.431	44.37
853.606	32.08
853.781	87.38
853.956	9.56
854.131	-17.07
854.305	95.57
854.48	17.75
854.655	36.18
854.83	11.61
855.005	58.71
855.18	50.52
855.354	99.67
855.529	93.52
855.704	95.57
855.879	83.28
856.053	44.37
856.228	30.04
856.403	83.28
856.577	50.52
856.752	-6.83
856.926	93.52
857.101	60.76
857.276	52.56
857.45	30.04
857.625	58.71
857.799	79.19
857.974	40.28
858.148	60.76
858.323	89.43
858.497	30.04
858.672	23.89
858.846	77.14
859.02	107.86
859.195	42.32
859.369	-33.45
859.543	58.71
859.718	62.8
859.892	11.61
860.066	44.37
860.241	-12.97
860.415	73.04
860.589	-8.87
860.763	40.28
860.938	48.47
861.112	46.42
861.286	-12.97
861.46	64.85
861.634	87.38
861.808	85.33
861.982	-25.26
862.157	-31.4
862.331	-23.21
862.505	83.28
862.679	-62.12
862.853	-4.78
863.027	56.66
863.201	68.95
863.375	34.13
863.549	58.71
863.722	27.99
863.896	81.24
864.07	36.18
864.244	-10.92
864.418	48.47
864.592	13.65
864.766	9.56
864.939	9.56
865.113	107.86
865.287	56.66
865.461	7.51
865.634	50.52
865.808	32.08
865.982	99.67
866.156	11.61
866.329	-29.35
866.503	11.61
866.676	77.14
866.85	79.19
867.024	-27.31
867.197	-4.78
867.371	50.52
867.544	23.89
867.718	-37.55
867.891	11.61
868.065	-25.26
868.238	130.39
868.412	48.47
868.585	85.33
868.759	42.32
868.932	7.51
869.105	7.51
869.279	62.8
869.452	44.37
869.625	99.67
869.799	11.61
869.972	32.08
870.145	25.94
870.319	7.51
870.492	15.7
870.665	21.84
870.838	27.99
871.011	-70.31
871.185	52.56
871.358	-37.55
871.531	30.04
871.704	11.61
871.877	9.56
872.05	-2.73
872.223	-39.59
872.396	17.75
872.569	42.32
872.742	66.9
872.915	25.94
873.088	48.47
873.261	38.23
873.434	-23.21
873.607	23.89
873.78	54.61
873.953	1.37
874.126	32.08
874.299	19.8
874.471	-6.83
874.644	44.37
874.817	34.13
874.99	36.18
875.163	48.47
875.335	19.8
875.508	-2.73
875.681	79.19
875.853	-47.79
876.026	-12.97
876.199	27.99
876.371	32.08
876.544	-27.31
876.717	60.76
876.889	56.66
877.062	32.08
877.234	-8.87
877.407	5.46
877.579	64.85
877.752	73.04
877.924	17.75
878.097	52.56
878.269	-45.74
878.442	36.18
878.614	-8.87
878.786	27.99
878.959	40.28
879.131	-47.79
879.303	-29.35
879.476	36.18
879.648	58.71
879.82	-2.73
879.993	15.7
880.165	7.51
880.337	17.75
880.509	19.8
880.681	79.19
880.854	5.46
881.026	68.95
881.198	81.24
881.37	64.85
881.542	-10.92
881.714	40.28
881.886	56.66
882.058	23.89
882.23	25.94
882.402	-19.11
882.574	27.99
882.746	19.8
882.918	-15.02
883.09	15.7
883.262	7.51
883.434	68.95
883.606	-19.11
883.778	40.28
883.95	38.23
884.122	30.04
884.293	68.95
884.465	54.61
884.637	-37.55
884.809	-10.92
884.98	-2.73
885.152	-15.02
885.324	77.14
885.496	25.94
885.667	-6.83
885.839	30.04
886.011	54.61
886.182	68.95
886.354	3.41
886.525	25.94
886.697	15.7
886.869	15.7
887.04	15.7
887.212	56.66
887.383	36.18
887.555	23.89
887.726	17.75
887.897	-2.73
888.069	9.56
888.24	77.14
888.412	1.37
888.583	38.23
888.754	1.37
888.926	19.8
889.097	-10.92
889.268	15.7
889.44	32.08
889.611	66.9
889.782	5.46
889.953	-4.78
890.125	62.8
890.296	-25.26
890.467	81.24
890.638	68.95
890.809	19.8
890.98	9.56
891.151	66.9
891.323	38.23
891.494	1.37
891.665	17.75
891.836	-47.79
892.007	25.94
892.178	-43.69
892.349	5.46
892.52	77.14
892.691	97.62
892.862	97.62
893.032	-19.11
893.203	-41.64
893.374	5.46
893.545	40.28
893.716	30.04
893.887	-12.97
894.057	-51.88
894.228	40.28
894.399	42.32
894.57	-31.4
894.74	-6.83
894.911	81.24
895.082	32.08
895.253	-27.31
895.423	40.28
895.594	93.52
895.764	60.76
895.935	34.13
896.106	-58.03
896.276	34.13
896.447	30.04
896.617	48.47
896.788	-58.03
896.958	52.56
897.129	-98.99
897.299	-10.92
897.47	105.81
897.64	46.42
897.81	-6.83
897.981	3.41
898.151	99.67
898.322	58.71
898.492	-51.88
898.662	68.95
898.832	1.37
899.003	48.47
899.173	3.41
899.343	36.18
899.513	-33.45
