Data from USB4F104151__217__11-10-38-056.txt Node

Date: Wed Mar 12 11:10:38 EDT 2025
User: louis
Spectrometer: USB4F10415
Trigger mode: 4
Integration Time (sec): 2.000000E-2
Scans to average: 1
Electric dark correction enabled: true
Nonlinearity correction enabled: false
Boxcar width: 0
XAxis mode: Wavelengths
Number of Pixels in Spectrum: 3648
>>>>>Begin Spectral Data<<<<<
178.204	-28.84
178.424	-28.84
178.644	-28.84
178.864	-153.77
179.084	-129.19
179.304	20.31
179.524	18.26
179.744	5.97
179.964	36.69
180.184	-24.75
180.404	-0.17
180.624	57.17
180.844	10.07
181.064	-45.23
181.283	-2.22
181.503	-39.08
181.723	-37.03
181.943	-20.65
182.163	112.47
182.383	-14.51
182.602	73.56
182.822	83.8
183.042	32.6
183.262	8.02
183.482	-10.41
183.701	51.03
183.921	139.09
184.141	-43.18
184.361	42.84
184.58	55.12
184.8	28.5
185.02	-8.36
185.239	46.93
185.459	59.22
185.679	106.32
185.898	1.88
186.118	24.4
186.338	38.74
186.557	53.08
186.777	-4.27
186.997	102.23
187.216	40.79
187.436	120.66
187.655	20.31
187.875	44.88
188.095	32.6
188.314	-20.65
188.534	59.22
188.753	5.97
188.973	59.22
189.192	30.55
189.412	22.36
189.631	61.27
189.851	20.31
190.07	30.55
190.29	16.21
190.509	-26.79
190.729	-94.38
190.948	100.18
191.168	139.09
191.387	24.4
191.607	-16.55
191.826	40.79
192.045	20.31
192.265	24.4
192.484	48.98
192.704	-24.75
192.923	75.6
193.142	85.84
193.362	42.84
193.581	79.7
193.8	48.98
194.02	40.79
194.239	-14.51
194.458	81.75
194.678	20.31
194.897	71.51
195.116	-12.46
195.335	55.12
195.555	14.17
195.774	20.31
195.993	61.27
196.212	-8.36
196.432	-18.6
196.651	77.65
196.87	89.94
197.089	89.94
197.308	75.6
197.528	77.65
197.747	10.07
197.966	30.55
198.185	8.02
198.404	44.88
198.623	14.17
198.842	22.36
199.062	51.03
199.281	81.75
199.5	14.17
199.719	71.51
199.938	85.84
200.157	-8.36
200.376	65.36
200.595	30.55
200.814	42.84
201.033	51.03
201.252	67.41
201.471	100.18
201.69	-0.17
201.909	18.26
202.128	26.45
202.347	53.08
202.566	-8.36
202.785	-2.22
203.004	-49.32
203.223	51.03
203.442	-8.36
203.661	-24.75
203.879	26.45
204.098	77.65
204.317	22.36
204.536	22.36
204.755	-2.22
204.974	1.88
205.193	22.36
205.411	81.75
205.63	100.18
205.849	26.45
206.068	22.36
206.287	20.31
206.505	83.8
206.724	-4.27
206.943	61.27
207.162	20.31
207.381	12.12
207.599	8.02
207.818	-0.17
208.037	1.88
208.255	24.4
208.474	108.37
208.693	94.04
208.911	-20.65
209.13	10.07
209.349	32.6
209.567	89.94
209.786	32.6
210.005	-0.17
210.223	-2.22
210.442	-30.89
210.661	-6.31
210.879	51.03
211.098	91.99
211.316	57.17
211.535	48.98
211.753	73.56
211.972	69.46
212.191	65.36
212.409	12.12
212.628	85.84
212.846	8.02
213.065	14.17
213.283	55.12
213.502	59.22
213.72	34.64
213.938	36.69
214.157	3.93
214.375	34.64
214.594	81.75
214.812	-10.41
215.031	57.17
215.249	28.5
215.467	12.12
215.686	96.08
215.904	1.88
216.122	51.03
216.341	130.9
216.559	-8.36
216.778	36.69
216.996	14.17
217.214	28.5
217.432	63.32
217.651	-53.42
217.869	73.56
218.087	1.88
218.306	51.03
218.524	8.02
218.742	20.31
218.96	32.6
219.179	42.84
219.397	24.4
219.615	18.26
219.833	-0.17
220.051	89.94
220.27	139.09
220.488	48.98
220.706	-34.99
220.924	55.12
221.142	38.74
221.36	-51.37
221.578	20.31
221.796	51.03
222.015	1.88
222.233	61.27
222.451	8.02
222.669	22.36
222.887	55.12
223.105	51.03
223.323	46.93
223.541	-65.71
223.759	89.94
223.977	-12.46
224.195	-0.17
224.413	67.41
224.631	12.12
224.849	-0.17
225.067	81.75
225.285	18.26
225.503	-53.42
225.721	16.21
225.939	38.74
226.157	42.84
226.375	100.18
226.592	-6.31
226.81	28.5
227.028	81.75
227.246	22.36
227.464	48.98
227.682	59.22
227.9	-2.22
228.117	8.02
228.335	5.97
228.553	57.17
228.771	24.4
228.989	75.6
229.206	122.71
229.424	81.75
229.642	-14.51
229.86	91.99
230.077	44.88
230.295	-73.9
230.513	24.4
230.731	38.74
230.948	10.07
231.166	20.31
231.384	16.21
231.601	34.64
231.819	10.07
232.037	79.7
232.254	3.93
232.472	30.55
232.689	16.21
232.907	18.26
233.125	34.64
233.342	3.93
233.56	57.17
233.777	3.93
233.995	51.03
234.213	42.84
234.43	16.21
234.648	55.12
234.865	-37.03
235.083	65.36
235.3	-12.46
235.518	73.56
235.735	59.22
235.953	42.84
236.17	16.21
236.388	48.98
236.605	18.26
236.822	100.18
237.04	73.56
237.257	-4.27
237.475	22.36
237.692	110.42
237.909	61.27
238.127	73.56
238.344	-8.36
238.562	28.5
238.779	3.93
238.996	-37.03
239.214	-4.27
239.431	55.12
239.648	59.22
239.865	48.98
240.083	44.88
240.3	-2.22
240.517	-8.36
240.735	-24.75
240.952	-28.84
241.169	34.64
241.386	77.65
241.603	89.94
241.821	61.27
242.038	100.18
242.255	110.42
242.472	-45.23
242.689	36.69
242.907	-28.84
243.124	57.17
243.341	-8.36
243.558	1.88
243.775	8.02
243.992	-10.41
244.209	38.74
244.426	57.17
244.643	18.26
244.86	10.07
245.078	26.45
245.295	81.75
245.512	46.93
245.729	36.69
245.946	69.46
246.163	-45.23
246.38	63.32
246.597	-12.46
246.814	112.47
247.031	51.03
247.248	26.45
247.464	-0.17
247.681	63.32
247.898	118.61
248.115	122.71
248.332	10.07
248.549	128.85
248.766	61.27
248.983	46.93
249.2	65.36
249.417	51.03
249.633	8.02
249.85	42.84
250.067	26.45
250.284	81.75
250.501	67.41
250.717	40.79
250.934	8.02
251.151	30.55
251.368	-22.7
251.585	53.08
251.801	83.8
252.018	8.02
252.235	42.84
252.451	59.22
252.668	65.36
252.885	79.7
253.102	51.03
253.318	16.21
253.535	-0.17
253.752	-14.51
253.968	-32.94
254.185	-2.22
254.401	14.17
254.618	-6.31
254.835	59.22
255.051	128.85
255.268	10.07
255.484	40.79
255.701	59.22
255.917	26.45
256.134	-4.27
256.351	53.08
256.567	16.21
256.784	57.17
257	3.93
257.217	104.28
257.433	40.79
257.65	71.51
257.866	46.93
258.082	-32.94
258.299	44.88
258.515	104.28
258.732	28.5
258.948	1.88
259.165	87.89
259.381	44.88
259.597	75.6
259.814	14.17
260.03	100.18
260.246	-22.7
260.463	55.12
260.679	143.19
260.895	34.64
261.112	36.69
261.328	32.6
261.544	12.12
261.761	102.23
261.977	28.5
262.193	3.93
262.409	69.46
262.626	110.42
262.842	91.99
263.058	3.93
263.274	36.69
263.49	32.6
263.707	67.41
263.923	-18.6
264.139	3.93
264.355	75.6
264.571	40.79
264.787	18.26
265.004	104.28
265.22	67.41
265.436	81.75
265.652	-4.27
265.868	79.7
266.084	-16.55
266.3	-24.75
266.516	26.45
266.732	-2.22
266.948	3.93
267.164	77.65
267.38	75.6
267.596	98.13
267.812	42.84
268.028	61.27
268.244	42.84
268.46	116.56
268.676	26.45
268.892	40.79
269.108	75.6
269.324	1.88
269.54	-12.46
269.756	53.08
269.972	46.93
270.188	34.64
270.403	36.69
270.619	108.37
270.835	77.65
271.051	63.32
271.267	48.98
271.483	-0.17
271.698	-8.36
271.914	128.85
272.13	89.94
272.346	22.36
272.562	12.12
272.777	112.47
272.993	65.36
273.209	-43.18
273.425	85.84
273.64	-34.99
273.856	108.37
274.072	10.07
274.287	71.51
274.503	48.98
274.719	32.6
274.934	5.97
275.15	-8.36
275.366	42.84
275.581	22.36
275.797	28.5
276.012	20.31
276.228	-30.89
276.444	5.97
276.659	28.5
276.875	14.17
277.09	-65.71
277.306	40.79
277.521	73.56
277.737	57.17
277.952	10.07
278.168	38.74
278.383	40.79
278.599	8.02
278.814	48.98
279.03	28.5
279.245	32.6
279.461	32.6
279.676	63.32
279.892	-82.09
280.107	20.31
280.322	-8.36
280.538	20.31
280.753	-37.03
280.969	40.79
281.184	65.36
281.399	40.79
281.615	61.27
281.83	73.56
282.045	16.21
282.26	34.64
282.476	81.75
282.691	46.93
282.906	85.84
283.122	12.12
283.337	44.88
283.552	135
283.767	28.5
283.983	18.26
284.198	-14.51
284.413	53.08
284.628	16.21
284.843	75.6
285.058	36.69
285.274	55.12
285.489	-0.17
285.704	18.26
285.919	48.98
286.134	51.03
286.349	5.97
286.564	10.07
286.779	44.88
286.995	75.6
287.21	44.88
287.425	53.08
287.64	-8.36
287.855	28.5
288.07	20.31
288.285	32.6
288.5	81.75
288.715	87.89
288.93	51.03
289.145	-8.36
289.36	24.4
289.575	38.74
289.79	40.79
290.004	55.12
290.219	8.02
290.434	26.45
290.649	-10.41
290.864	67.41
291.079	30.55
291.294	28.5
291.509	8.02
291.724	32.6
291.938	53.08
292.153	48.98
292.368	-6.31
292.583	59.22
292.798	51.03
293.012	79.7
293.227	55.12
293.442	77.65
293.657	81.75
293.871	-10.41
294.086	63.32
294.301	112.47
294.516	-14.51
294.73	-10.41
294.945	-67.75
295.16	12.12
295.374	63.32
295.589	75.6
295.804	5.97
296.018	53.08
296.233	5.97
296.447	85.84
296.662	-20.65
296.877	48.98
297.091	-32.94
297.306	42.84
297.52	53.08
297.735	14.17
297.949	61.27
298.164	24.4
298.378	46.93
298.593	-18.6
298.807	-6.31
299.022	-18.6
299.236	53.08
299.451	63.32
299.665	12.12
299.88	24.4
300.094	106.32
300.309	67.41
300.523	98.13
300.737	24.4
300.952	96.08
301.166	24.4
301.381	57.17
301.595	42.84
301.809	53.08
302.024	-39.08
302.238	-12.46
302.452	135
302.667	22.36
302.881	89.94
303.095	75.6
303.309	61.27
303.524	61.27
303.738	46.93
303.952	8.02
304.166	8.02
304.381	36.69
304.595	79.7
304.809	3.93
305.023	69.46
305.237	34.64
305.452	40.79
305.666	51.03
305.88	42.84
306.094	100.18
306.308	81.75
306.522	28.5
306.736	-14.51
306.95	18.26
307.164	24.4
307.379	-16.55
307.593	100.18
307.807	36.69
308.021	51.03
308.235	53.08
308.449	53.08
308.663	57.17
308.877	61.27
309.091	100.18
309.305	91.99
309.519	1.88
309.733	79.7
309.947	81.75
310.161	44.88
310.374	61.27
310.588	40.79
310.802	44.88
311.016	30.55
311.23	77.65
311.444	14.17
311.658	36.69
311.872	1.88
312.085	30.55
312.299	59.22
312.513	10.07
312.727	36.69
312.941	28.5
313.154	85.84
313.368	32.6
313.582	51.03
313.796	83.8
314.009	-26.79
314.223	67.41
314.437	36.69
314.651	53.08
314.864	44.88
315.078	-30.89
315.292	34.64
315.505	-8.36
315.719	83.8
315.933	69.46
316.146	-12.46
316.36	73.56
316.573	36.69
316.787	38.74
317.001	40.79
317.214	36.69
317.428	94.04
317.641	69.46
317.855	28.5
318.068	24.4
318.282	34.64
318.495	65.36
318.709	-2.22
318.922	98.13
319.136	42.84
319.349	34.64
319.563	-4.27
319.776	94.04
319.99	42.84
320.203	30.55
320.417	57.17
320.63	32.6
320.843	96.08
321.057	120.66
321.27	24.4
321.483	77.65
321.697	126.8
321.91	53.08
322.124	24.4
322.337	24.4
322.55	24.4
322.763	12.12
322.977	42.84
323.19	32.6
323.403	44.88
323.617	-24.75
323.83	26.45
324.043	67.41
324.256	94.04
324.469	-30.89
324.683	161.62
324.896	81.75
325.109	94.04
325.322	-14.51
325.535	77.65
325.748	83.8
325.962	22.36
326.175	5.97
326.388	-8.36
326.601	5.97
326.814	30.55
327.027	126.8
327.24	-6.31
327.453	24.4
327.666	48.98
327.879	3.93
328.092	44.88
328.305	-0.17
328.518	69.46
328.731	-32.94
328.944	83.8
329.157	48.98
329.37	98.13
329.583	51.03
329.796	73.56
330.009	24.4
330.222	26.45
330.435	79.7
330.648	69.46
330.861	55.12
331.073	3.93
331.286	69.46
331.499	40.79
331.712	55.12
331.925	61.27
332.138	22.36
332.35	32.6
332.563	71.51
332.776	36.69
332.989	85.84
333.202	28.5
333.414	32.6
333.627	59.22
333.84	100.18
334.053	79.7
334.265	34.64
334.478	46.93
334.691	8.02
334.903	98.13
335.116	-2.22
335.329	26.45
335.541	-8.36
335.754	89.94
335.966	132.95
336.179	87.89
336.392	20.31
336.604	40.79
336.817	24.4
337.029	61.27
337.242	16.21
337.454	3.93
337.667	12.12
337.88	42.84
338.092	55.12
338.305	32.6
338.517	61.27
338.729	51.03
338.942	20.31
339.154	73.56
339.367	28.5
339.579	73.56
339.792	34.64
340.004	51.03
340.217	122.71
340.429	20.31
340.641	40.79
340.854	42.84
341.066	104.28
341.278	36.69
341.491	20.31
341.703	5.97
341.915	14.17
342.128	98.13
342.34	18.26
342.552	94.04
342.764	71.51
342.977	22.36
343.189	48.98
343.401	51.03
343.613	46.93
343.826	71.51
344.038	94.04
344.25	85.84
344.462	-4.27
344.674	65.36
344.886	40.79
345.099	67.41
345.311	81.75
345.523	79.7
345.735	-26.79
345.947	139.09
346.159	42.84
346.371	20.31
346.583	16.21
346.795	96.08
347.007	20.31
347.219	40.79
347.431	36.69
347.643	110.42
347.855	63.32
348.067	32.6
348.279	42.84
348.491	-16.55
348.703	85.84
348.915	20.31
349.127	5.97
349.339	55.12
349.551	36.69
349.763	-12.46
349.975	42.84
350.187	69.46
350.399	63.32
350.61	83.8
350.822	8.02
351.034	89.94
351.246	112.47
351.458	8.02
351.669	75.6
351.881	55.12
352.093	69.46
352.305	110.42
352.517	18.26
352.728	48.98
352.94	8.02
353.152	87.89
353.363	36.69
353.575	48.98
353.787	83.8
353.999	67.41
354.21	32.6
354.422	73.56
354.633	55.12
354.845	30.55
355.057	-4.27
355.268	116.56
355.48	26.45
355.692	77.65
355.903	-16.55
356.115	22.36
356.326	12.12
356.538	57.17
356.749	-4.27
356.961	100.18
357.172	108.37
357.384	100.18
357.595	53.08
357.807	75.6
358.018	48.98
358.23	26.45
358.441	32.6
358.653	30.55
358.864	14.17
359.075	61.27
359.287	36.69
359.498	130.9
359.709	112.47
359.921	36.69
360.132	73.56
360.344	32.6
360.555	36.69
360.766	48.98
360.977	26.45
361.189	71.51
361.4	81.75
361.611	83.8
361.823	44.88
362.034	-10.41
362.245	28.5
362.456	44.88
362.667	69.46
362.879	-2.22
363.09	159.57
363.301	57.17
363.512	102.23
363.723	44.88
363.935	24.4
364.146	55.12
364.357	67.41
364.568	53.08
364.779	28.5
364.99	94.04
365.201	42.84
365.412	100.18
365.623	55.12
365.834	53.08
366.045	96.08
366.256	77.65
366.467	24.4
366.678	-16.55
366.889	20.31
367.1	110.42
367.311	73.56
367.522	65.36
367.733	69.46
367.944	69.46
368.155	-16.55
368.366	132.95
368.577	22.36
368.788	81.75
368.999	28.5
369.209	42.84
369.42	-30.89
369.631	118.61
369.842	40.79
370.053	57.17
370.264	36.69
370.474	71.51
370.685	87.89
370.896	81.75
371.107	12.12
371.317	94.04
371.528	59.22
371.739	51.03
371.95	69.46
372.16	87.89
372.371	85.84
372.582	61.27
372.792	94.04
373.003	22.36
373.214	22.36
373.424	100.18
373.635	34.64
373.846	98.13
374.056	122.71
374.267	51.03
374.477	124.76
374.688	85.84
374.898	61.27
375.109	81.75
375.319	-14.51
375.53	22.36
375.74	48.98
375.951	-37.03
376.161	89.94
376.372	77.65
376.582	135
376.793	40.79
377.003	53.08
377.214	8.02
377.424	44.88
377.635	63.32
377.845	3.93
378.055	83.8
378.266	-4.27
378.476	51.03
378.686	46.93
378.897	110.42
379.107	85.84
379.317	26.45
379.528	18.26
379.738	75.6
379.948	51.03
380.158	114.52
380.369	46.93
380.579	73.56
380.789	24.4
380.999	96.08
381.21	-6.31
381.42	55.12
381.63	108.37
381.84	110.42
382.05	102.23
382.261	81.75
382.471	81.75
382.681	63.32
382.891	112.47
383.101	63.32
383.311	12.12
383.521	63.32
383.731	57.17
383.941	91.99
384.151	12.12
384.361	44.88
384.571	85.84
384.781	14.17
384.991	96.08
385.201	89.94
385.411	94.04
385.621	38.74
385.831	51.03
386.041	48.98
386.251	75.6
386.461	79.7
386.671	63.32
386.881	91.99
387.091	94.04
387.301	137.04
387.511	63.32
387.72	32.6
387.93	77.65
388.14	98.13
388.35	63.32
388.56	67.41
388.769	96.08
388.979	44.88
389.189	73.56
389.399	40.79
389.609	69.46
389.818	124.76
390.028	38.74
390.238	159.57
390.447	10.07
390.657	94.04
390.867	12.12
391.076	-45.23
391.286	96.08
391.496	59.22
391.705	114.52
391.915	151.38
392.125	53.08
392.334	16.21
392.544	75.6
392.753	28.5
392.963	77.65
393.172	57.17
393.382	14.17
393.591	83.8
393.801	32.6
394.01	75.6
394.22	79.7
394.429	53.08
394.639	81.75
394.848	128.85
395.058	36.69
395.267	53.08
395.477	20.31
395.686	38.74
395.895	122.71
396.105	124.76
396.314	81.75
396.524	77.65
396.733	26.45
396.942	110.42
397.152	67.41
397.361	98.13
397.57	100.18
397.78	79.7
397.989	149.33
398.198	96.08
398.407	77.65
398.617	122.71
398.826	30.55
399.035	118.61
399.244	167.76
399.453	157.52
399.663	57.17
399.872	100.18
400.081	100.18
400.29	46.93
400.499	75.6
400.708	114.52
400.917	71.51
401.127	81.75
401.336	85.84
401.545	118.61
401.754	108.37
401.963	130.9
402.172	126.8
402.381	65.36
402.59	155.47
402.799	100.18
403.008	46.93
403.217	102.23
403.426	143.19
403.635	122.71
403.844	112.47
404.053	118.61
404.262	139.09
404.471	116.56
404.68	145.24
404.888	171.86
405.097	167.76
405.306	132.95
405.515	87.89
405.724	77.65
405.933	196.43
406.142	149.33
406.35	218.96
406.559	157.52
406.768	102.23
406.977	239.44
407.185	192.34
407.394	151.38
407.603	210.77
407.812	192.34
408.02	231.25
408.229	196.43
408.438	147.28
408.646	200.53
408.855	235.35
409.064	253.78
409.272	141.14
409.481	233.3
409.69	200.53
409.898	247.63
410.107	335.7
410.315	331.6
410.524	255.83
410.733	339.79
410.941	276.31
411.15	302.93
411.358	341.84
411.567	390.99
411.775	442.19
411.984	390.99
412.192	382.8
412.401	403.28
412.609	288.59
412.818	393.04
413.026	448.33
413.234	421.71
413.443	405.33
413.651	468.81
413.86	448.33
414.068	474.96
414.276	581.45
414.485	585.55
414.693	610.12
414.901	634.7
415.11	634.7
415.318	601.93
415.526	665.42
415.734	716.62
415.943	681.8
416.151	737.1
416.359	739.15
416.567	776.01
416.776	821.06
416.984	778.06
417.192	921.42
417.4	837.45
417.608	788.3
417.817	839.5
418.025	958.28
418.233	1072.96
418.441	1007.43
418.649	1048.39
418.857	1132.36
419.065	1103.68
419.273	1118.02
419.481	1173.32
419.689	1310.53
419.897	1288
420.105	1312.58
420.313	1394.5
420.521	1462.08
420.729	1392.45
420.937	1480.51
421.145	1535.81
421.353	1591.1
421.561	1634.11
421.769	1742.65
421.977	1910.58
422.185	1709.88
422.393	1748.79
422.601	1910.58
422.809	1888.06
423.017	2060.09
423.224	2017.08
423.432	2187.06
423.64	2182.96
423.848	2393.9
424.056	2365.23
424.263	2422.58
424.471	2465.58
424.679	2606.89
424.887	2570.03
425.094	2834.22
425.302	2703.15
425.51	2903.85
425.718	2909.99
425.925	2971.43
426.133	3082.02
426.341	3204.9
426.548	3469.09
426.756	3378.98
426.964	3364.64
427.171	3561.25
427.379	3598.11
427.586	3723.04
427.794	3954.46
428.001	4128.53
428.209	4151.06
428.417	4278.04
428.624	4599.57
428.832	4595.47
429.039	4484.88
429.247	4536.08
429.454	5011.21
429.662	5207.81
429.869	4945.67
430.076	5324.55
430.284	5054.22
430.491	5435.14
430.699	5752.57
430.906	5572.35
431.114	5666.56
431.321	5908.22
431.528	6016.76
431.736	6434.55
431.943	6602.48
432.15	6409.97
432.358	6338.29
432.565	7038.7
432.772	6936.3
432.979	7245.54
433.187	7519.97
433.394	7499.49
433.601	7972.57
433.808	7933.66
434.016	8023.77
434.223	8316.63
434.43	8652.5
434.637	8509.14
434.844	9012.94
435.052	9320.14
435.259	9275.08
435.466	9074.38
435.673	9297.61
435.88	9830.08
436.087	10446.52
436.294	10411.7
436.501	10088.12
436.708	10340.02
436.915	10729.14
437.122	11222.7
437.329	10976.94
437.537	11427.49
437.743	11529.89
437.95	11607.72
438.157	11988.64
438.364	12623.51
438.571	12314.27
438.778	12490.39
438.985	13667.97
439.192	13160.08
439.399	13713.03
439.606	13158.03
439.813	14071.42
440.02	14892.66
440.227	14835.31
440.433	14603.89
440.64	15054.45
440.847	14911.09
441.054	15113.84
441.261	16359
441.467	16135.78
441.674	16500.31
441.881	16967.25
442.088	16963.15
442.294	17024.59
442.501	17251.92
442.708	17604.17
442.914	18216.51
443.121	19244.59
443.328	18783.8
443.534	19781.16
443.741	19281.46
443.948	19070.51
444.154	20481.56
444.361	20248.1
444.568	20530.72
444.774	20282.91
444.981	20950.55
445.187	21118.48
445.394	22058.5
445.6	22054.4
445.807	24155.62
446.013	22857.21
446.22	23285.23
446.426	24526.3
446.633	24421.86
446.839	25445.84
447.046	24161.76
447.252	25843.15
447.459	25511.38
447.665	25400.79
447.871	26627.52
448.078	27665.84
448.284	26455.49
448.491	27116.98
448.697	28177.83
448.903	28704.16
449.11	28730.78
449.316	28040.62
449.522	28743.07
449.728	29668.75
449.935	29842.83
450.141	29652.37
450.347	30629.25
450.553	29492.63
450.76	29775.25
450.966	30594.43
451.172	30242.18
451.378	30954.88
451.584	30729.6
451.791	31051.13
451.997	31104.38
452.203	31657.33
452.409	31616.37
452.615	31817.07
452.821	30246.28
453.027	30023.05
453.233	31634.8
453.44	30045.58
453.646	30700.93
453.852	30944.64
454.058	30647.68
454.264	30143.88
454.47	30848.38
454.676	30027.15
454.882	31081.85
455.088	28259.75
455.294	28974.49
455.5	29121.94
455.705	29433.24
455.911	28235.17
456.117	27532.72
456.323	27284.92
456.529	25884.11
456.735	26850.75
456.941	26398.15
457.147	25705.93
457.352	25034.2
457.558	24763.87
457.764	24741.34
457.97	24530.4
458.176	23920.1
458.381	23662.06
458.587	22576.64
458.793	22691.32
458.999	21384.72
459.204	23090.68
459.41	22392.32
459.616	21100.05
459.821	20889.11
460.027	21032.47
460.233	20303.39
460.438	19641.9
460.644	19650.09
460.85	18615.87
461.055	18486.84
461.261	18415.16
461.466	17141.33
461.672	16381.53
461.878	17819.21
462.083	16531.03
462.289	16227.93
462.494	16082.53
462.7	15263.34
462.905	14724.72
463.111	15593.06
463.316	15328.88
463.522	15253.1
463.727	15285.87
463.932	15371.88
464.138	14993.01
464.343	15015.54
464.549	14841.46
464.754	15337.07
464.959	15216.24
465.165	14646.9
465.37	14335.61
465.575	14016.13
465.781	14577.27
465.986	14579.32
466.191	14071.42
466.397	13731.46
466.602	13438.6
466.807	13602.44
467.012	13688.45
467.218	13502.09
467.423	13307.53
467.628	13358.73
467.833	14028.42
468.038	13647.49
468.244	13022.86
468.449	13715.08
468.654	13293.19
468.859	13065.87
469.064	12930.7
469.269	12676.76
469.474	12709.52
469.679	12897.94
469.885	12273.31
470.09	12519.06
470.295	12529.3
470.5	12443.29
470.705	12299.93
470.91	12123.8
471.115	11935.39
471.32	12117.66
471.525	12076.7
471.73	11802.27
471.935	11898.53
472.139	11159.21
472.344	11558.56
472.549	11415.21
472.754	11255.47
472.959	11009.71
473.164	10620.6
473.369	10604.21
473.574	10831.54
473.778	11011.76
473.983	10751.67
474.188	10702.51
474.393	10172.09
474.598	10505.91
474.802	10184.38
475.007	10174.14
475.212	10165.95
475.417	9737.92
475.621	9887.42
475.826	9914.05
476.031	9758.4
476.235	9510.6
476.44	9569.99
476.645	9320.14
476.849	9283.27
477.054	9174.73
477.259	9187.02
477.463	9391.81
477.668	8793.81
477.872	9062.09
478.077	8982.22
478.282	8849.1
478.486	8644.31
478.691	8572.63
478.895	8808.14
479.1	8410.84
479.304	8459.99
479.509	8339.16
479.713	8703.7
479.918	8142.55
480.122	8324.82
480.326	8287.96
480.531	8277.72
480.735	8029.91
480.94	8029.91
481.144	8392.41
481.348	7966.43
481.553	8138.46
481.757	7986.91
481.961	7888.6
482.166	7841.5
482.37	8036.06
482.574	7880.41
482.778	7868.13
482.983	8089.31
483.187	7900.89
483.391	7874.27
483.595	7972.57
483.8	7761.63
484.004	7845.6
484.208	7970.52
484.412	7780.06
484.616	8044.25
484.821	8138.46
485.025	7788.25
485.229	8085.21
485.433	7816.93
485.637	7991
485.841	7874.27
486.045	7986.91
486.249	7874.27
486.453	7841.5
486.657	7978.72
486.861	7802.59
487.065	7917.28
487.269	7739.1
487.473	7810.78
487.677	7976.67
487.881	8134.36
488.085	7843.55
488.289	7943.9
488.493	7945.95
488.697	7931.61
488.901	8009.44
489.105	7692
489.309	7997.15
489.512	8060.63
489.716	8015.58
489.92	7950.04
490.124	8095.45
490.328	8136.41
490.531	8087.26
490.735	8103.64
490.939	8144.6
491.143	8220.38
491.346	8236.76
491.55	8150.74
491.754	8273.62
491.958	8480.47
492.161	8224.47
492.365	8224.47
492.569	8140.51
492.772	8355.54
492.976	8486.61
493.18	8421.08
493.383	8421.08
493.587	8711.89
493.79	8664.79
493.994	8666.83
494.197	8701.65
494.401	8937.16
494.605	8627.92
494.808	8797.9
495.012	8822.48
495.215	8939.21
495.419	9084.62
495.622	8957.64
495.825	9058
496.029	9107.15
496.232	9197.26
496.436	9264.84
496.639	9637.57
496.843	9539.27
497.046	9891.52
497.249	9744.06
497.453	9858.75
497.656	9823.94
497.859	9961.15
498.063	9995.96
498.266	10331.83
498.469	10245.82
498.673	10149.56
498.876	10323.64
499.079	10702.51
499.282	10671.79
499.485	10809.01
499.689	10759.86
499.892	10962.61
500.095	11093.68
500.298	11228.84
500.501	11263.66
500.705	11441.83
500.908	11814.56
501.111	11562.66
501.314	11728.55
501.517	12121.76
501.72	12213.91
501.923	12209.82
502.126	12431
502.329	12428.95
502.532	12717.72
502.735	12535.45
502.938	12926.61
503.141	12834.45
503.344	13223.56
503.547	13119.12
503.75	13366.92
503.953	13577.86
504.156	13733.51
504.359	13880.96
504.562	13852.29
504.765	14243.45
504.968	14489.21
505.17	14509.69
505.373	14866.03
505.576	15031.92
505.779	15148.65
505.982	14933.62
506.185	15396.46
506.387	15523.43
506.59	15531.62
506.793	15842.92
506.996	15806.05
507.198	16270.94
507.401	16121.44
507.604	16420.44
507.807	16666.2
508.009	16942.67
508.212	16963.15
508.415	17038.93
508.617	17286.73
508.82	17585.74
509.022	17221.2
509.225	17829.45
509.428	18073.15
509.63	18042.43
509.833	18040.39
510.035	18472.51
510.238	18564.67
510.44	18712.12
510.643	18802.23
510.845	19201.58
511.048	19090.99
511.25	19449.39
511.453	19250.74
511.655	20446.75
511.858	19983.91
512.06	20157.99
512.262	20387.36
512.465	20479.52
512.667	20809.24
512.87	20983.32
513.072	20870.68
513.274	21437.97
513.477	21657.1
513.679	21767.69
513.881	21798.41
514.084	22533.63
514.286	22210.05
514.488	22384.13
514.69	22840.82
514.893	23143.92
515.095	22984.18
515.297	23389.68
515.499	23641.58
515.701	23578.09
515.904	24481.25
516.106	24473.06
516.308	24323.55
516.51	24993.24
516.712	24843.74
516.914	24983
517.116	25718.22
517.318	25439.7
517.52	25511.38
517.722	25591.25
517.925	26150.34
518.127	26424.77
518.329	26762.68
518.531	26531.26
518.733	27248.05
518.935	27334.07
519.136	27671.98
519.338	27762.09
519.54	27995.56
519.742	27979.18
519.944	28392.87
520.146	28626.34
520.348	28925.34
520.55	28870.04
520.752	29144.47
520.954	29547.92
521.155	28898.72
521.357	30100.87
521.559	30205.32
521.761	30610.82
521.963	30557.57
522.164	30715.26
522.366	30875.01
522.568	31210.87
522.77	31122.81
522.971	31806.83
523.173	31460.73
523.375	31737.2
523.576	32159.08
523.778	32396.65
523.98	32503.14
524.181	32453.99
524.383	32509.29
524.584	32742.75
524.786	33060.19
524.988	32748.9
525.189	33138.01
525.391	33643.86
525.592	33869.14
525.794	33654.1
525.995	33895.76
526.197	34043.21
526.398	34317.64
526.6	34641.22
526.801	34469.19
527.003	34731.33
527.204	34481.48
527.406	34929.98
527.607	35341.63
527.808	35403.07
528.01	35183.93
528.211	35069.25
528.412	35661.11
528.614	35726.64
528.815	35661.11
529.016	35976.5
529.218	35425.59
529.419	36361.51
529.62	36357.42
529.822	35837.23
530.023	35763.51
530.224	36160.81
530.425	36308.27
530.626	36275.5
530.828	35724.6
531.029	36893.99
531.23	36543.78
531.431	36705.57
531.632	36590.89
531.833	36502.82
532.035	36834.6
532.236	36863.27
532.437	37313.82
532.638	36691.24
532.839	37041.44
533.04	37096.74
533.241	36818.21
533.442	37283.1
533.643	37313.82
533.844	37068.06
534.045	37123.36
534.246	37174.56
534.447	37514.52
534.648	37090.59
534.849	37143.84
535.05	37084.45
535.251	37238.05
535.451	37192.99
535.652	37416.22
535.853	36885.79
536.054	37455.13
536.255	37514.52
536.456	36842.79
536.657	37729.56
536.857	37526.81
537.058	36934.95
537.259	37606.68
537.46	37236
537.66	37283.1
537.861	37723.41
538.062	37248.28
538.263	37590.3
538.463	37434.65
538.664	37303.58
538.865	37760.28
539.065	37655.83
539.266	37256.48
539.466	37514.52
539.667	37035.3
539.868	37432.6
540.068	37489.95
540.269	37233.95
540.469	37657.88
540.67	37213.47
540.87	37516.57
541.071	37389.59
541.271	37399.83
541.472	37061.92
541.672	37418.27
541.873	37338.4
542.073	36844.84
542.274	37184.8
542.474	36912.42
542.675	37324.06
542.875	37434.65
543.075	37514.52
543.276	36556.07
543.476	37539.1
543.676	37043.49
543.877	37244.19
544.077	37373.21
544.277	37139.74
544.478	37360.92
544.678	37713.17
544.878	36916.51
545.078	37131.55
545.279	36943.14
545.479	36949.28
545.679	37348.64
545.879	37078.3
546.079	37133.6
546.28	36926.75
546.48	37279
546.68	37324.06
546.88	37233.95
547.08	36949.28
547.28	37229.85
547.48	36697.38
547.68	37082.4
547.88	36705.57
548.081	36996.38
548.281	36912.42
548.481	36951.33
548.681	37047.58
548.881	37074.21
549.081	36988.19
549.28	36572.46
549.48	36994.34
549.68	36943.14
549.88	37025.06
550.08	37004.58
550.28	36838.69
550.48	36777.25
550.68	37043.49
550.88	36803.88
551.08	36644.13
551.279	37172.51
551.479	36527.4
551.679	36879.65
551.879	36599.08
552.079	36271.4
552.278	36957.47
552.478	36807.97
552.678	37057.82
552.878	37035.3
553.077	36660.52
553.277	36658.47
553.477	37192.99
553.676	36611.37
553.876	36506.92
554.076	36416.81
554.275	36513.06
554.475	35900.72
554.674	36435.24
554.874	36218.16
555.074	36187.44
555.273	36506.92
555.473	36697.38
555.672	36316.46
555.872	36537.64
556.071	36199.72
556.271	36461.86
556.47	35898.67
556.67	36197.68
556.869	36394.28
557.068	36042.03
557.268	36007.22
557.467	36128.05
557.667	35990.83
557.866	35482.94
558.065	35409.21
558.265	35652.92
558.464	35511.61
558.663	35802.42
558.863	35417.4
559.062	36103.47
559.261	35616.05
559.461	35740.98
559.66	35024.19
559.859	35401.02
560.058	35202.36
560.258	35366.2
560.457	35099.97
560.656	35454.26
560.855	35102.01
561.054	35456.31
561.253	34979.14
561.453	35132.73
561.652	35126.59
561.851	35097.92
562.05	34872.64
562.249	34325.83
562.448	34637.12
562.647	34819.39
562.846	34530.63
563.045	34456.9
563.244	34413.9
563.443	34886.98
563.642	34157.9
563.841	34116.94
564.04	34061.65
564.239	34487.62
564.438	33650
564.637	34186.57
564.836	34057.55
565.035	33842.51
565.234	34008.4
565.432	33912.14
565.631	33774.93
565.83	33654.1
566.029	33514.84
566.228	33801.55
566.427	33346.9
566.625	32824.67
566.824	32853.34
567.023	33230.17
567.222	32750.95
567.42	33076.57
567.619	33062.24
567.818	32687.46
568.016	32640.36
568.215	32734.56
568.414	32933.21
568.612	32877.92
568.811	32171.37
569.01	32081.26
569.208	32146.79
569.407	32263.53
569.605	31995.25
569.804	32245.1
570.002	31909.23
570.201	31946.09
570.4	31847.79
570.598	31688.05
570.797	31753.58
570.995	31743.34
571.193	31151.48
571.392	31751.54
571.59	31393.14
571.789	31452.53
571.987	31171.96
572.186	31036.8
572.384	31122.81
572.582	31108.47
572.781	31151.48
572.979	30610.82
573.177	30893.44
573.376	30741.89
573.574	30887.29
573.772	30471.56
573.971	30616.96
574.169	30236.04
574.367	30139.79
574.565	30295.43
574.763	30033.29
574.962	30135.69
575.16	29664.66
575.358	29992.33
575.556	29590.93
575.754	30248.33
575.952	29443.48
576.151	29947.28
576.349	29564.31
576.547	29584.79
576.745	29707.66
576.943	29441.43
577.141	29242.78
577.339	29793.68
577.537	29140.38
577.735	29296.02
577.933	28769.69
578.131	29308.31
578.329	28810.65
578.527	28898.72
578.725	28777.89
578.923	28415.4
579.121	28530.08
579.319	28298.66
579.516	28607.9
579.714	28568.99
579.912	28378.53
580.11	27946.41
580.308	28396.96
580.506	28149.16
580.704	27827.63
580.901	27753.9
581.099	27923.88
581.297	27450.8
581.495	27674.03
581.692	27645.36
581.89	27622.83
582.088	27729.33
582.285	27385.27
582.483	27364.79
582.681	27352.5
582.878	27137.46
583.076	26621.38
583.274	27258.29
583.471	27041.21
583.669	26645.95
583.866	26604.99
584.064	26932.67
584.262	26412.48
584.459	26676.67
584.657	26377.67
584.854	26662.33
585.052	25929.16
585.249	26475.97
585.447	26328.52
585.644	25949.64
585.841	26297.8
586.039	26539.46
586.236	25851.34
586.434	25834.96
586.631	25624.01
586.828	25695.69
587.026	25542.1
587.223	25503.18
587.42	25474.51
587.618	25716.17
587.815	25062.87
588.012	25308.63
588.21	25189.84
588.407	25398.74
588.604	24888.79
588.801	24829.4
588.999	24974.81
589.196	24829.4
589.393	24870.36
589.59	24698.33
589.787	24530.4
589.984	24610.27
590.182	24565.21
590.379	24776.16
590.576	24266.21
590.773	24069.61
590.97	24141.28
591.167	24661.47
591.364	24002.02
591.561	24153.57
591.758	24012.26
591.955	23651.82
592.152	24053.22
592.349	23741.93
592.546	24024.55
592.743	23873
592.94	23315.95
593.137	23520.75
593.334	23406.06
593.531	23246.32
593.727	23303.67
593.924	23465.46
594.121	23088.63
594.318	23035.38
594.515	22889.98
594.712	23305.71
594.908	22898.17
595.105	22916.6
595.302	22894.07
595.499	22679.04
595.696	22572.54
595.892	22382.08
596.089	22552.06
596.286	22599.16
596.482	22484.48
596.679	22599.16
596.876	22541.82
597.072	22103.56
597.269	22328.83
597.466	22042.12
597.662	22205.95
597.859	21976.58
598.055	21888.52
598.252	21853.7
598.448	21747.21
598.645	21988.87
598.841	21675.53
599.038	21714.44
599.234	21630.48
599.431	21224.98
599.627	21288.46
599.824	21423.63
600.02	21116.44
600.217	21155.35
600.413	21126.67
600.609	20792.86
600.806	20827.67
601.002	21272.08
601.198	21069.33
601.395	20598.3
601.591	20616.73
601.787	20598.3
601.984	20717.08
602.18	20905.49
602.376	20368.93
602.572	20401.69
602.769	20590.11
602.965	20305.44
603.161	20139.55
603.357	19924.52
603.553	20112.93
603.75	20262.43
603.946	19680.81
604.142	20133.41
604.338	19680.81
604.534	19973.67
604.73	19596.84
604.926	19848.74
605.122	19813.93
605.318	19555.88
605.514	19365.42
605.71	19490.35
605.906	19318.32
606.102	19734.06
606.298	18988.6
606.494	19527.21
606.69	19168.82
606.886	19295.79
607.082	19000.88
607.278	18927.16
607.474	18785.85
607.67	18812.47
607.866	18851.38
608.062	19056.18
608.257	18853.43
608.453	18714.17
608.649	18828.85
608.845	18587.19
609.041	18609.72
609.236	18845.24
609.432	18540.09
609.628	18607.67
609.824	18716.22
610.019	18189.89
610.215	18271.81
610.411	18320.96
610.606	18280
610.802	18292.29
610.998	18167.36
611.193	18179.65
611.389	17872.45
611.584	17870.4
611.78	18275.9
611.976	17831.49
612.171	18140.74
612.367	17862.21
612.562	17925.7
612.758	17641.03
612.953	17759.81
613.149	17679.94
613.344	17458.76
613.539	17817.16
613.735	17751.62
613.93	17827.4
614.126	17571.4
614.321	17624.65
614.517	17544.78
614.712	17675.85
614.907	17303.12
615.103	17765.96
615.298	17284.69
615.493	17667.66
615.688	17237.58
615.884	17729.09
616.079	17063.5
616.274	17282.64
616.47	17073.74
616.665	17137.23
616.86	17000.02
617.055	17120.85
617.25	16899.67
617.445	17180.24
617.641	16924.24
617.836	17098.32
618.031	16643.67
618.226	16989.78
618.421	17002.07
618.616	17043.03
618.811	16576.09
619.006	16754.26
619.201	16391.77
619.396	16623.19
619.591	16086.62
619.786	16528.99
619.981	16133.73
620.176	16445.02
620.371	15928.93
620.566	16162.4
620.761	15783.52
620.956	15928.93
621.151	16076.38
621.346	15937.12
621.541	15578.73
621.735	15724.13
621.93	15591.02
622.125	15625.83
622.32	15281.77
622.515	15533.67
622.709	15335.02
622.904	15234.67
623.099	15183.47
623.294	15187.57
623.488	15183.47
623.683	14980.72
623.878	14849.65
624.072	14927.47
624.267	14759.54
624.462	14808.69
624.656	14536.31
624.851	14233.21
625.046	14526.07
625.24	14063.23
625.435	14347.9
625.629	14005.89
625.824	14112.38
626.018	14063.23
626.213	13645.45
626.407	13979.26
626.602	13678.21
626.796	13778.56
626.991	13663.88
627.185	13692.55
627.38	13610.63
627.574	13512.33
627.768	13194.89
627.963	13209.23
628.157	13063.82
628.352	13227.66
628.546	12920.46
628.74	13266.57
628.935	12709.52
629.129	13010.57
629.323	12691.09
629.517	12721.81
629.712	12611.22
629.906	12603.03
630.1	12232.35
630.294	12551.83
630.489	12486.29
630.683	12371.61
630.877	12297.88
631.071	12193.44
631.265	12392.09
631.459	12115.61
631.653	12025.5
631.848	11880.1
632.042	11892.38
632.236	11978.4
632.43	11548.33
632.624	11863.71
632.818	11654.82
633.012	11638.44
633.206	11593.38
633.4	11495.08
633.594	11294.38
633.788	11509.41
633.982	11390.63
634.176	11173.55
634.369	11253.42
634.563	11273.9
634.757	11179.69
634.951	10978.99
635.145	11056.81
635.339	11099.82
635.533	11017.9
635.726	10983.09
635.92	10821.3
636.114	10671.79
636.308	10487.48
636.501	10460.85
636.695	10682.03
636.889	10372.79
637.083	10475.19
637.276	10292.92
637.47	10319.54
637.664	10280.63
637.857	10116.79
638.051	10245.82
638.244	10184.38
638.438	9973.44
638.632	10098.36
638.825	10122.94
639.019	9858.75
639.212	9889.47
639.406	9645.76
639.599	9758.4
639.793	9672.39
639.986	9625.28
640.18	9612.99
640.373	9522.88
640.567	9387.72
640.76	9580.23
640.954	9465.54
641.147	9244.36
641.34	9262.79
641.534	9391.81
641.727	9189.07
641.92	9322.18
642.114	9146.06
642.307	9064.14
642.5	8906.45
642.694	8883.92
642.887	8853.2
643.08	8912.59
643.273	8777.42
643.467	8920.78
643.66	8730.32
643.853	8756.94
644.046	8752.85
644.239	8615.63
644.432	8578.77
644.626	8384.21
644.819	8406.74
645.012	8433.36
645.205	8513.24
645.398	8484.56
645.591	8244.95
645.784	8134.36
645.977	8134.36
646.17	8206.04
646.363	8144.6
646.556	7997.15
646.749	7888.6
646.942	8015.58
647.135	7855.84
647.328	7855.84
647.521	7765.73
647.714	7816.93
647.907	7468.77
648.099	7669.47
648.292	7683.81
648.485	7587.55
648.678	7669.47
648.871	7476.96
649.064	7554.79
649.256	7479.01
649.449	7323.37
649.642	7345.89
649.835	7257.83
650.027	7165.67
650.22	7329.51
650.413	7184.1
650.605	7306.98
650.798	6987.5
650.991	7155.43
651.183	7245.54
651.376	7020.27
651.568	7022.31
651.761	6975.21
651.954	6967.02
652.146	7057.13
652.339	6985.45
652.531	6881
652.724	6739.69
652.916	6794.99
653.109	6825.71
653.301	6735.6
653.494	6559.47
653.686	6426.36
653.879	6649.58
654.071	6641.39
654.263	6405.88
654.456	6375.16
654.648	6649.58
654.84	6348.53
655.033	6332.15
655.225	6422.26
655.417	6424.31
655.61	6340.34
655.802	6217.46
655.994	6188.79
656.186	6242.04
656.379	6121.21
656.571	6143.74
656.763	5953.27
656.955	5906.17
657.148	6207.22
657.34	5934.84
657.532	6024.95
657.724	5801.72
657.916	6002.43
658.108	5846.78
658.3	5764.86
658.492	5762.81
658.684	5764.86
658.876	5742.33
659.068	5781.25
659.26	5758.72
659.452	5768.96
659.644	5631.74
659.836	5598.98
660.028	5558.02
660.22	5553.92
660.412	5566.21
660.604	5764.86
660.796	5541.63
660.988	5549.82
661.18	5375.75
661.372	5330.69
661.563	5349.12
661.755	5232.39
661.947	5150.47
662.139	5279.49
662.331	5177.09
662.522	5254.92
662.714	5099.27
662.906	5293.83
663.097	5150.47
663.289	5121.8
663.481	5025.54
663.673	4984.59
663.864	4986.63
664.056	5099.27
664.247	5021.45
664.439	4835.08
664.631	4919.05
664.822	4808.46
665.014	4978.44
665.205	4808.46
665.397	4833.04
665.588	4867.85
665.78	4820.75
665.971	4706.06
666.163	4841.23
666.354	4720.4
666.546	4661.01
666.737	4601.62
666.929	4646.67
667.12	4654.86
667.311	4677.39
667.503	4652.81
667.694	4474.64
667.885	4437.78
668.077	4531.98
668.268	4488.98
668.459	4579.09
668.651	4353.81
668.842	4407.06
669.033	4421.39
669.224	4478.74
669.416	4349.71
669.607	4298.52
669.798	4251.41
669.989	4382.48
670.18	4331.28
670.371	4222.74
670.563	4259.6
670.754	4321.04
670.945	4226.84
671.136	4187.93
671.327	4136.73
671.518	4126.49
671.709	4175.64
671.9	4044.57
672.091	4017.94
672.282	4030.23
672.473	4120.34
672.664	3991.32
672.855	3987.22
673.046	3933.98
673.237	3874.59
673.428	4013.85
673.619	3899.16
673.809	3921.69
674	4140.82
674.191	3841.82
674.382	3821.34
674.573	3847.96
674.764	3852.06
674.954	3804.96
675.145	3813.15
675.336	3680.03
675.527	3761.95
675.717	3811.1
675.908	3776.28
676.099	3839.77
676.289	3712.8
676.48	3649.31
676.671	3731.23
676.861	3741.47
677.052	3677.98
677.243	3692.32
677.433	3616.54
677.624	3712.8
677.814	3473.18
678.005	3645.21
678.195	3579.68
678.386	3538.72
678.576	3518.24
678.767	3616.54
678.957	3518.24
679.148	3514.14
679.338	3686.17
679.529	3516.19
679.719	3569.44
679.909	3696.41
680.1	3395.36
680.29	3604.25
680.481	3358.5
680.671	3487.52
680.861	3489.57
681.052	3419.94
681.242	3553.06
681.432	3456.8
681.622	3469.09
681.813	3495.71
682.003	3444.51
682.193	3338.02
682.383	3378.98
682.573	3424.03
682.764	3249.96
682.954	3329.83
683.144	3401.51
683.334	3331.87
683.524	3260.2
683.714	3325.73
683.904	3157.8
684.094	3254.05
684.284	3309.35
684.474	3241.76
684.664	3415.84
684.854	3356.45
685.044	3235.62
685.234	3229.48
685.424	3262.24
685.614	3069.73
685.804	3311.39
685.994	3237.67
686.184	3211.04
686.374	3176.23
686.564	3135.27
686.753	3073.83
686.943	3075.88
687.133	3168.04
687.323	3086.12
687.513	3043.11
687.702	3131.17
687.892	2981.67
688.082	3006.25
688.272	3063.59
688.461	3059.49
688.651	3028.78
688.841	2977.58
689.03	2823.98
689.22	2895.66
689.41	2971.43
689.599	3020.58
689.789	2885.42
689.979	2961.19
690.168	2991.91
690.358	2858.79
690.547	2838.31
690.737	2746.16
690.926	2981.67
691.116	2807.59
691.305	2819.88
691.495	2926.38
691.684	2895.66
691.874	2785.07
692.063	2873.13
692.252	2766.64
692.442	2846.51
692.631	2752.3
692.82	2766.64
693.01	2748.2
693.199	2674.48
693.388	2760.49
693.578	2707.24
693.767	2727.72
693.956	2686.76
694.146	2660.14
694.335	2617.13
694.524	2707.24
694.713	2758.44
694.902	2678.57
695.092	2631.47
695.281	2666.28
695.47	2666.28
695.659	2543.41
695.848	2610.99
696.037	2598.7
696.226	2467.63
696.415	2596.65
696.604	2453.3
696.793	2551.6
696.982	2684.72
697.171	2502.45
697.36	2561.84
697.549	2539.31
697.738	2492.21
697.927	2524.97
698.116	2494.26
698.305	2506.54
698.494	2533.17
698.683	2484.02
698.872	2545.45
699.061	2473.78
699.25	2445.1
699.438	2426.67
699.627	2490.16
699.816	2453.3
700.005	2498.35
700.193	2535.21
700.382	2481.97
700.571	2570.03
700.76	2520.88
700.948	2518.83
701.137	2508.59
701.326	2551.6
701.514	2432.82
701.703	2348.85
701.892	2375.47
702.08	2469.68
702.269	2443.06
702.457	2281.27
702.646	2455.34
702.834	2391.86
703.023	2520.88
703.212	2504.5
703.4	2561.84
703.589	2443.06
703.777	2436.91
703.965	2410.29
704.154	2426.67
704.342	2375.47
704.531	2395.95
704.719	2449.2
704.907	2408.24
705.096	2318.13
705.284	2385.71
705.472	2424.62
705.661	2475.82
705.849	2547.5
706.037	2432.82
706.226	2451.25
706.414	2213.68
706.602	2461.49
706.79	2344.75
706.979	2430.77
707.167	2395.95
707.355	2340.66
707.543	2420.53
707.731	2481.97
707.919	2443.06
708.107	2297.65
708.296	2250.55
708.484	2305.84
708.672	2359.09
708.86	2330.42
709.048	2346.8
709.236	2324.27
709.424	2395.95
709.612	2383.66
709.8	2320.18
709.988	2320.18
710.176	2363.19
710.364	2350.9
710.551	2328.37
710.739	2289.46
710.927	2348.85
711.115	2352.95
711.303	2414.38
711.491	2338.61
711.679	2318.13
711.866	2334.51
712.054	2330.42
712.242	2252.59
712.43	2316.08
712.617	2252.59
712.805	2400.05
712.993	2350.9
713.181	2350.9
713.368	2228.02
713.556	2324.27
713.744	2410.29
713.931	2461.49
714.119	2365.23
714.306	2324.27
714.494	2318.13
714.682	2271.03
714.869	2178.87
715.057	2359.09
715.244	2383.66
715.432	2340.66
715.619	2387.76
715.807	2223.92
715.994	2219.83
716.182	2281.27
716.369	2273.07
716.556	2223.92
716.744	2303.79
716.931	2334.51
717.119	2311.99
717.306	2273.07
717.493	2334.51
717.681	2246.45
717.868	2266.93
718.055	2354.99
718.242	2309.94
718.43	2287.41
718.617	2266.93
718.804	2295.6
718.991	2281.27
719.179	2375.47
719.366	2219.83
719.553	2172.72
719.74	2234.16
719.927	2082.61
720.114	2166.58
720.301	2225.97
720.488	2170.68
720.676	2195.25
720.863	2084.66
721.05	2228.02
721.237	2250.55
721.424	2154.29
721.611	2221.88
721.798	2154.29
721.985	2148.15
722.172	2127.67
722.358	2287.41
722.545	2207.54
722.732	2264.88
722.919	2209.59
723.106	2187.06
723.293	2248.5
723.48	2096.95
723.667	2250.55
723.853	2195.25
724.04	2133.81
724.227	2199.35
724.414	2197.3
724.6	2055.99
724.787	2142
724.974	2209.59
725.161	2119.48
725.347	2058.04
725.534	2068.28
725.72	2090.81
725.907	2115.38
726.094	2193.2
726.28	2111.29
726.467	2230.07
726.653	2193.2
726.84	2084.66
727.027	2225.97
727.213	2041.65
727.4	2103.09
727.586	2228.02
727.773	2158.39
727.959	2076.47
728.145	2176.82
728.332	2189.11
728.518	2180.92
728.705	2115.38
728.891	2205.49
729.077	2164.53
729.264	2037.56
729.45	2051.89
729.636	2092.85
729.823	2103.09
730.009	2176.82
730.195	2125.62
730.382	2123.57
730.568	2080.57
730.754	2152.24
730.94	2096.95
731.126	2068.28
731.313	2049.85
731.499	2101.05
731.685	2180.92
731.871	2068.28
732.057	2180.92
732.243	2086.71
732.429	2170.68
732.615	2150.2
732.801	2182.96
732.987	2072.37
733.173	2060.09
733.359	2078.52
733.545	2060.09
733.731	2047.8
733.917	2037.56
734.103	2154.29
734.289	2117.43
734.475	2099
734.661	2058.04
734.847	2031.41
735.033	2029.37
735.219	1992.5
735.404	1976.12
735.59	2164.53
735.776	2012.98
735.962	2082.61
736.148	1969.98
736.333	2066.23
736.519	2105.14
736.705	2078.52
736.89	1937.21
737.076	2010.93
737.262	1855.29
737.447	1926.97
737.633	1949.5
737.819	1935.16
738.004	2015.03
738.19	1965.88
738.375	1992.5
738.561	2060.09
738.747	2053.94
738.932	1912.63
739.118	2078.52
739.303	1945.4
739.489	1982.26
739.674	1900.34
739.859	1986.36
740.045	1912.63
740.23	1947.45
740.416	1941.3
740.601	1972.02
740.786	1840.95
740.972	1945.4
741.157	1969.98
741.342	1951.54
741.528	1959.74
741.713	1969.98
741.898	1881.91
742.084	1859.38
742.269	1855.29
742.454	1877.82
742.639	1873.72
742.824	1853.24
743.01	1908.54
743.195	1804.09
743.38	1744.7
743.565	1840.95
743.75	1845.05
743.935	1832.76
744.12	1775.42
744.305	1797.95
744.49	1795.9
744.675	1857.34
744.86	1773.37
745.045	1724.22
745.23	1808.19
745.415	1759.03
745.6	1773.37
745.785	1748.79
745.97	1697.6
746.155	1713.98
746.34	1822.52
746.525	1773.37
746.71	1664.83
746.895	1607.48
747.079	1716.03
747.264	1720.12
747.449	1748.79
747.634	1701.69
747.819	1722.17
748.003	1621.82
748.188	1652.54
748.373	1527.61
748.557	1609.53
748.742	1562.43
748.927	1523.52
749.111	1548.09
749.296	1603.39
749.481	1527.61
749.665	1519.42
749.85	1541.95
750.034	1576.77
750.219	1490.75
750.404	1441.6
750.588	1494.85
750.773	1453.89
750.957	1494.85
751.141	1511.23
751.326	1431.36
751.51	1519.42
751.695	1384.26
751.879	1404.74
752.064	1486.65
752.248	1472.32
752.432	1507.13
752.617	1449.79
752.801	1382.21
752.985	1449.79
753.17	1425.22
753.354	1414.98
753.538	1331.01
753.722	1421.12
753.907	1331.01
754.091	1290.05
754.275	1283.91
754.459	1304.39
754.643	1279.81
754.828	1320.77
755.012	1265.47
755.196	1306.43
755.38	1281.86
755.564	1308.48
755.748	1167.17
755.932	1183.56
756.116	1257.28
756.3	1249.09
756.484	1187.65
756.668	1253.19
756.852	1142.6
757.036	1181.51
757.22	1197.89
757.404	1201.99
757.588	1187.65
757.772	1191.75
757.956	1175.36
758.14	1136.45
758.323	1038.15
758.507	1146.69
758.691	1077.06
758.875	1050.44
759.059	1089.35
759.242	1109.83
759.426	1158.98
759.61	1095.49
759.794	1015.62
759.977	1150.79
760.161	1120.07
760.345	1081.16
760.528	1060.68
760.712	1044.29
760.895	1122.12
761.079	1058.63
761.263	1060.68
761.446	964.42
761.63	980.81
761.813	1046.34
761.997	941.89
762.18	1040.2
762.364	991.05
762.547	948.04
762.731	1021.77
762.914	1009.48
763.098	933.7
763.281	880.46
763.464	1050.44
763.648	1087.3
763.831	993.09
764.015	964.42
764.198	950.09
764.381	968.52
764.564	1036.1
764.748	929.61
764.931	919.37
765.114	1046.34
765.297	937.8
765.481	921.42
765.664	927.56
765.847	900.94
766.03	948.04
766.213	939.85
766.397	939.85
766.58	941.89
766.763	872.26
766.946	943.94
767.129	892.74
767.312	859.98
767.495	837.45
767.678	825.16
767.861	989
768.044	943.94
768.227	929.61
768.41	864.07
768.593	862.02
768.776	790.35
768.959	907.08
769.142	925.51
769.324	939.85
769.507	884.55
769.69	794.44
769.873	837.45
770.056	790.35
770.239	749.39
770.421	859.98
770.604	786.25
770.787	890.7
770.97	862.02
771.152	794.44
771.335	790.35
771.518	778.06
771.7	825.16
771.883	741.19
772.066	716.62
772.248	753.48
772.431	743.24
772.613	837.45
772.796	741.19
772.978	909.13
773.161	859.98
773.343	804.68
773.526	765.77
773.708	788.3
773.891	696.14
774.073	739.15
774.256	712.52
774.438	733
774.621	735.05
774.803	720.71
774.985	630.6
775.168	620.36
775.35	667.47
775.532	745.29
775.715	642.89
775.897	689.99
776.079	667.47
776.261	796.49
776.444	632.65
776.626	671.56
776.808	673.61
776.99	665.42
777.173	642.89
777.355	622.41
777.537	655.18
777.719	622.41
777.901	626.51
778.083	606.03
778.265	571.21
778.447	747.34
778.629	591.69
778.811	630.6
778.993	532.3
779.175	649.04
779.357	597.84
779.539	548.68
779.721	614.22
779.903	651.08
780.085	556.88
780.267	528.21
780.449	495.44
780.631	620.36
780.812	626.51
780.994	550.73
781.176	597.84
781.358	558.92
781.54	587.6
781.721	563.02
781.903	524.11
782.085	540.49
782.267	630.6
782.448	491.34
782.63	431.95
782.812	591.69
782.993	542.54
783.175	528.21
783.357	458.57
783.538	515.92
783.72	511.82
783.901	487.25
784.083	491.34
784.264	544.59
784.446	470.86
784.627	388.94
784.809	528.21
784.99	466.77
785.172	454.48
785.353	434
785.535	440.14
785.716	468.81
785.897	393.04
786.079	434
786.26	368.46
786.441	470.86
786.623	415.57
786.804	411.47
786.985	460.62
787.167	440.14
787.348	411.47
787.529	413.52
787.71	425.81
787.891	460.62
788.073	368.46
788.254	438.09
788.435	390.99
788.616	462.67
788.797	327.5
788.978	411.47
789.159	278.35
789.34	335.7
789.522	374.61
789.703	395.09
789.884	360.27
790.065	339.79
790.246	339.79
790.427	315.22
790.607	403.28
790.788	374.61
790.969	356.18
791.15	380.75
791.331	415.57
791.512	395.09
791.693	272.21
791.874	278.35
792.054	399.18
792.235	343.89
792.416	302.93
792.597	319.31
792.778	323.41
792.958	360.27
793.139	352.08
793.32	321.36
793.5	276.31
793.681	307.02
793.862	304.98
794.042	352.08
794.223	278.35
794.404	315.22
794.584	264.02
794.765	261.97
794.945	350.03
795.126	339.79
795.306	368.46
795.487	255.83
795.667	313.17
795.848	321.36
796.028	280.4
796.209	307.02
796.389	335.7
796.57	229.2
796.75	210.77
796.93	315.22
797.111	323.41
797.291	257.87
797.471	335.7
797.652	296.78
797.832	266.07
798.012	333.65
798.192	333.65
798.373	270.16
798.553	307.02
798.733	298.83
798.913	233.3
799.093	304.98
799.274	266.07
799.454	225.11
799.634	280.4
799.814	302.93
799.994	319.31
800.174	231.25
800.354	233.3
800.534	225.11
800.714	239.44
800.894	255.83
801.074	245.59
801.254	235.35
801.434	268.11
801.614	241.49
801.794	206.67
801.974	657.23
802.154	327.5
802.334	229.2
802.514	180.05
802.693	229.2
802.873	259.92
803.053	272.21
803.233	192.34
803.413	231.25
803.592	204.63
803.772	255.83
803.952	247.63
804.131	264.02
804.311	196.43
804.491	284.5
804.67	233.3
804.85	229.2
805.03	225.11
805.209	294.74
805.389	247.63
805.568	268.11
805.748	233.3
805.928	214.87
806.107	192.34
806.287	163.67
806.466	200.53
806.646	251.73
806.825	194.39
807.004	221.01
807.184	208.72
807.363	204.63
807.543	257.87
807.722	178
807.901	208.72
808.081	218.96
808.26	143.19
808.439	239.44
808.619	247.63
808.798	188.24
808.977	173.91
809.156	122.71
809.336	147.28
809.515	186.19
809.694	214.87
809.873	235.35
810.052	235.35
810.231	200.53
810.411	175.95
810.59	157.52
810.769	130.9
810.948	124.76
811.127	184.15
811.306	128.85
811.485	122.71
811.664	155.47
811.843	157.52
812.022	151.38
812.201	173.91
812.38	141.14
812.559	143.19
812.737	139.09
812.916	120.66
813.095	139.09
813.274	190.29
813.453	161.62
813.632	171.86
813.811	169.81
813.989	110.42
814.168	171.86
814.347	132.95
814.526	161.62
814.704	157.52
814.883	212.82
815.062	132.95
815.24	171.86
815.419	83.8
815.598	132.95
815.776	126.8
815.955	151.38
816.133	120.66
816.312	114.52
816.49	135
816.669	104.28
816.847	163.67
817.026	137.04
817.204	114.52
817.383	114.52
817.561	112.47
817.74	214.87
817.918	102.23
818.097	100.18
818.275	114.52
818.453	159.57
818.632	114.52
818.81	208.72
818.988	53.08
819.167	118.61
819.345	149.33
819.523	137.04
819.701	77.65
819.879	110.42
820.058	137.04
820.236	143.19
820.414	126.8
820.592	102.23
820.77	-12.46
820.948	141.14
821.127	112.47
821.305	151.38
821.483	135
821.661	120.66
821.839	128.85
822.017	110.42
822.195	124.76
822.373	128.85
822.551	81.75
822.729	83.8
822.907	102.23
823.085	102.23
823.262	178
823.44	98.13
823.618	53.08
823.796	137.04
823.974	171.86
824.152	77.65
824.329	135
824.507	104.28
824.685	36.69
824.863	108.37
825.04	159.57
825.218	182.1
825.396	79.7
825.574	135
825.751	51.03
825.929	182.1
826.107	102.23
826.284	128.85
826.462	141.14
826.639	120.66
826.817	114.52
826.994	161.62
827.172	83.8
827.349	247.63
827.527	75.6
827.704	94.04
827.882	98.13
828.059	114.52
828.237	108.37
828.414	114.52
828.591	83.8
828.769	51.03
828.946	55.12
829.124	153.43
829.301	108.37
829.478	10.07
829.655	85.84
829.833	67.41
830.01	42.84
830.187	110.42
830.364	57.17
830.542	98.13
830.719	149.33
830.896	157.52
831.073	51.03
831.25	22.36
831.427	89.94
831.604	79.7
831.782	77.65
831.959	126.8
832.136	98.13
832.313	108.37
832.49	16.21
832.667	42.84
832.844	87.89
833.021	126.8
833.198	112.47
833.374	130.9
833.551	63.32
833.728	77.65
833.905	94.04
834.082	89.94
834.259	102.23
834.436	116.56
834.612	71.51
834.789	87.89
834.966	53.08
835.143	14.17
835.319	135
835.496	98.13
835.673	63.32
835.85	104.28
836.026	83.8
836.203	118.61
836.38	85.84
836.556	85.84
836.733	67.41
836.909	96.08
837.086	55.12
837.262	69.46
837.439	151.38
837.616	61.27
837.792	61.27
837.968	69.46
838.145	63.32
838.321	48.98
838.498	91.99
838.674	139.09
838.851	79.7
839.027	14.17
839.203	67.41
839.38	87.89
839.556	32.6
839.732	137.04
839.909	94.04
840.085	137.04
840.261	5.97
840.437	51.03
840.614	108.37
840.79	77.65
840.966	91.99
841.142	61.27
841.318	61.27
841.494	120.66
841.671	36.69
841.847	126.8
842.023	-8.36
842.199	102.23
842.375	73.56
842.551	48.98
842.727	28.5
842.903	75.6
843.079	61.27
843.255	87.89
843.431	18.26
843.607	26.45
843.783	42.84
843.959	28.5
844.134	67.41
844.31	67.41
844.486	61.27
844.662	63.32
844.838	-28.84
845.013	67.41
845.189	48.98
845.365	22.36
845.541	-4.27
845.716	81.75
845.892	67.41
846.068	24.4
846.244	-20.65
846.419	141.14
846.595	44.88
846.77	28.5
846.946	73.56
847.122	40.79
847.297	83.8
847.473	94.04
847.648	36.69
847.824	44.88
847.999	83.8
848.175	69.46
848.35	-8.36
848.526	108.37
848.701	48.98
848.876	53.08
849.052	-22.7
849.227	73.56
849.403	18.26
849.578	71.51
849.753	71.51
849.929	22.36
850.104	44.88
850.279	40.79
850.454	102.23
850.63	61.27
850.805	30.55
850.98	51.03
851.155	10.07
851.33	94.04
851.505	-8.36
851.681	38.74
851.856	51.03
852.031	12.12
852.206	34.64
852.381	24.4
852.556	51.03
852.731	16.21
852.906	110.42
853.081	59.22
853.256	57.17
853.431	73.56
853.606	110.42
853.781	61.27
853.956	24.4
854.131	100.18
854.305	85.84
854.48	32.6
854.655	89.94
854.83	3.93
855.005	36.69
855.18	85.84
855.354	73.56
855.529	69.46
855.704	36.69
855.879	112.47
856.053	-20.65
856.228	108.37
856.403	61.27
856.577	26.45
856.752	22.36
856.926	34.64
857.101	24.4
857.276	48.98
857.45	48.98
857.625	42.84
857.799	51.03
857.974	-12.46
858.148	3.93
858.323	94.04
858.497	-34.99
858.672	63.32
858.846	24.4
859.02	12.12
859.195	67.41
859.369	1.88
859.543	36.69
859.718	44.88
859.892	94.04
860.066	77.65
860.241	5.97
860.415	40.79
860.589	40.79
860.763	-59.56
860.938	65.36
861.112	91.99
861.286	96.08
861.46	8.02
861.634	12.12
861.808	87.89
861.982	-2.22
862.157	48.98
862.331	65.36
862.505	16.21
862.679	3.93
862.853	110.42
863.027	24.4
863.201	110.42
863.375	14.17
863.549	-45.23
863.722	-24.75
863.896	85.84
864.07	26.45
864.244	26.45
864.418	44.88
864.592	26.45
864.766	18.26
864.939	36.69
865.113	28.5
865.287	53.08
865.461	22.36
865.634	32.6
865.808	-22.7
865.982	3.93
866.156	20.31
866.329	-26.79
866.503	26.45
866.676	-10.41
866.85	20.31
867.024	26.45
867.197	-6.31
867.371	1.88
867.544	18.26
867.718	85.84
867.891	81.75
868.065	63.32
868.238	28.5
868.412	36.69
868.585	98.13
868.759	57.17
868.932	-6.31
869.105	42.84
869.279	42.84
869.452	22.36
869.625	75.6
869.799	-24.75
869.972	79.7
870.145	94.04
870.319	20.31
870.492	71.51
870.665	44.88
870.838	10.07
871.011	53.08
871.185	-2.22
871.358	5.97
871.531	22.36
871.704	10.07
871.877	26.45
872.05	42.84
872.223	44.88
872.396	69.46
872.569	-12.46
872.742	28.5
872.915	122.71
873.088	69.46
873.261	8.02
873.434	48.98
873.607	10.07
873.78	67.41
873.953	36.69
874.126	46.93
874.299	3.93
874.471	20.31
874.644	26.45
874.817	57.17
874.99	3.93
875.163	20.31
875.335	77.65
875.508	40.79
875.681	57.17
875.853	69.46
876.026	-57.51
876.199	1.88
876.371	32.6
876.544	53.08
876.717	79.7
876.889	85.84
877.062	87.89
877.234	-26.79
877.407	5.97
877.579	48.98
877.752	67.41
877.924	10.07
878.097	28.5
878.269	59.22
878.442	-39.08
878.614	69.46
878.786	83.8
878.959	16.21
879.131	61.27
879.303	53.08
879.476	-0.17
879.648	42.84
879.82	85.84
879.993	89.94
880.165	-32.94
880.337	83.8
880.509	46.93
880.681	-20.65
880.854	34.64
881.026	32.6
881.198	67.41
881.37	124.76
881.542	-6.31
881.714	22.36
881.886	-0.17
882.058	20.31
882.23	-4.27
882.402	20.31
882.574	87.89
882.746	112.47
882.918	36.69
883.09	18.26
883.262	40.79
883.434	5.97
883.606	77.65
883.778	34.64
883.95	34.64
884.122	51.03
884.293	67.41
884.465	14.17
884.637	-4.27
884.809	-34.99
884.98	53.08
885.152	20.31
885.324	118.61
885.496	-16.55
885.667	53.08
885.839	-32.94
886.011	116.56
886.182	63.32
886.354	-8.36
886.525	22.36
886.697	-34.99
886.869	-14.51
887.04	36.69
887.212	28.5
887.383	38.74
887.555	20.31
887.726	40.79
887.897	-4.27
888.069	-0.17
888.24	53.08
888.412	42.84
888.583	16.21
888.754	53.08
888.926	-18.6
889.097	55.12
889.268	69.46
889.44	59.22
889.611	65.36
889.782	18.26
889.953	10.07
890.125	10.07
890.296	22.36
890.467	69.46
890.638	69.46
890.809	-49.32
890.98	-43.18
891.151	42.84
891.323	53.08
891.494	46.93
891.665	-43.18
891.836	48.98
892.007	20.31
892.178	-43.18
892.349	55.12
892.52	3.93
892.691	16.21
892.862	-6.31
893.032	20.31
893.203	32.6
893.374	-0.17
893.545	94.04
893.716	-2.22
893.887	42.84
894.057	-34.99
894.228	14.17
894.399	12.12
894.57	38.74
894.74	12.12
894.911	55.12
895.082	-59.56
895.253	40.79
895.423	30.55
895.594	73.56
895.764	-61.61
895.935	-37.03
896.106	89.94
896.276	-39.08
896.447	1.88
896.617	12.12
896.788	20.31
896.958	-6.31
897.129	20.31
897.299	40.79
897.47	14.17
897.64	34.64
897.81	61.27
897.981	69.46
898.151	40.79
898.322	-0.17
898.492	46.93
898.662	-30.89
898.832	118.61
899.003	-12.46
899.173	32.6
899.343	36.69
899.513	-37.03
