Data from USB4F104151__274__11-12-14-725.txt Node

Date: Wed Mar 12 11:12:14 EDT 2025
User: louis
Spectrometer: USB4F10415
Trigger mode: 4
Integration Time (sec): 2.000000E-2
Scans to average: 1
Electric dark correction enabled: true
Nonlinearity correction enabled: false
Boxcar width: 0
XAxis mode: Wavelengths
Number of Pixels in Spectrum: 3648
>>>>>Begin Spectral Data<<<<<
178.204	-140.29
178.424	-140.29
178.644	-140.29
178.864	-74.75
179.084	-35.84
179.304	3.07
179.524	29.7
179.744	-44.03
179.964	39.94
180.184	-48.13
180.404	-11.26
180.624	44.03
180.844	21.5
181.064	-66.56
181.283	-74.75
181.503	44.03
181.723	62.46
181.943	-19.46
182.163	-3.07
182.383	9.22
182.602	54.27
182.822	13.31
183.042	-19.46
183.262	-46.08
183.482	19.46
183.701	11.26
183.921	78.85
184.141	-23.55
184.361	97.28
184.58	9.22
184.8	13.31
185.02	-35.84
185.239	46.08
185.459	1.02
185.679	46.08
185.898	-37.89
186.118	37.89
186.338	64.51
186.557	27.65
186.777	-27.65
186.997	13.31
187.216	33.79
187.436	50.18
187.655	9.22
187.875	-21.5
188.095	-25.6
188.314	37.89
188.534	13.31
188.753	-11.26
188.973	-23.55
189.192	3.07
189.412	-60.42
189.631	-25.6
189.851	-17.41
190.07	-1.02
190.29	41.98
190.509	62.46
190.729	-41.98
190.948	19.46
191.168	70.65
191.387	7.17
191.607	13.31
191.826	17.41
192.045	-13.31
192.265	19.46
192.484	56.32
192.704	-91.13
192.923	3.07
193.142	50.18
193.362	58.37
193.581	11.26
193.8	-1.02
194.02	29.7
194.239	58.37
194.458	11.26
194.678	15.36
194.897	48.13
195.116	-44.03
195.335	-70.65
195.555	-29.7
195.774	-3.07
195.993	23.55
196.212	33.79
196.432	-72.7
196.651	19.46
196.87	-35.84
197.089	33.79
197.308	50.18
197.528	-25.6
197.747	-48.13
197.966	41.98
198.185	54.27
198.404	-82.94
198.623	27.65
198.842	5.12
199.062	-7.17
199.281	11.26
199.5	15.36
199.719	-39.94
199.938	-5.12
200.157	39.94
200.376	44.03
200.595	7.17
200.814	31.74
201.033	-54.27
201.252	62.46
201.471	-11.26
201.69	-27.65
201.909	13.31
202.128	1.02
202.347	29.7
202.566	-64.51
202.785	-21.5
203.004	21.5
203.223	37.89
203.442	64.51
203.661	-19.46
203.879	54.27
204.098	29.7
204.317	-35.84
204.536	-23.55
204.755	50.18
204.974	37.89
205.193	-35.84
205.411	41.98
205.63	-35.84
205.849	68.61
206.068	29.7
206.287	19.46
206.505	82.94
206.724	-3.07
206.943	15.36
207.162	25.6
207.381	21.5
207.599	66.56
207.818	37.89
208.037	-3.07
208.255	-23.55
208.474	27.65
208.693	-44.03
208.911	-3.07
209.13	-13.31
209.349	-5.12
209.567	-50.18
209.786	27.65
210.005	39.94
210.223	60.42
210.442	-17.41
210.661	-41.98
210.879	111.61
211.098	-1.02
211.316	-56.32
211.535	52.22
211.753	-48.13
211.972	-35.84
212.191	-56.32
212.409	-11.26
212.628	-15.36
212.846	11.26
213.065	50.18
213.283	84.99
213.502	-66.56
213.72	1.02
213.938	-15.36
214.157	35.84
214.375	33.79
214.594	-31.74
214.812	-11.26
215.031	91.13
215.249	23.55
215.467	-11.26
215.686	46.08
215.904	62.46
216.122	-23.55
216.341	91.13
216.559	33.79
216.778	48.13
216.996	-15.36
217.214	56.32
217.432	-11.26
217.651	-5.12
217.869	68.61
218.087	15.36
218.306	19.46
218.524	56.32
218.742	-41.98
218.96	27.65
219.179	-5.12
219.397	9.22
219.615	-17.41
219.833	39.94
220.051	17.41
220.27	-31.74
220.488	76.8
220.706	25.6
220.924	-35.84
221.142	44.03
221.36	15.36
221.578	13.31
221.796	-15.36
222.015	-15.36
222.233	9.22
222.451	-5.12
222.669	48.13
222.887	54.27
223.105	-48.13
223.323	3.07
223.541	-25.6
223.759	50.18
223.977	-17.41
224.195	-7.17
224.413	-31.74
224.631	-29.7
224.849	7.17
225.067	78.85
225.285	5.12
225.503	-1.02
225.721	33.79
225.939	-1.02
226.157	1.02
226.375	125.95
226.592	29.7
226.81	46.08
227.028	21.5
227.246	-29.7
227.464	31.74
227.682	-13.31
227.9	15.36
228.117	-27.65
228.335	-13.31
228.553	39.94
228.771	25.6
228.989	54.27
229.206	33.79
229.424	17.41
229.642	-17.41
229.86	39.94
230.077	13.31
230.295	33.79
230.513	35.84
230.731	9.22
230.948	64.51
231.166	44.03
231.384	-15.36
231.601	-62.46
231.819	64.51
232.037	-11.26
232.254	-25.6
232.472	72.7
232.689	60.42
232.907	-23.55
233.125	-33.79
233.342	25.6
233.56	-78.85
233.777	52.22
233.995	31.74
234.213	-11.26
234.43	19.46
234.648	50.18
234.865	21.5
235.083	35.84
235.3	-33.79
235.518	-23.55
235.735	70.65
235.953	58.37
236.17	89.09
236.388	44.03
236.605	-21.5
236.822	1.02
237.04	19.46
237.257	58.37
237.475	44.03
237.692	-23.55
237.909	-9.22
238.127	-7.17
238.344	23.55
238.562	29.7
238.779	-1.02
238.996	17.41
239.214	-17.41
239.431	80.89
239.648	-39.94
239.865	58.37
240.083	-17.41
240.3	39.94
240.517	1.02
240.735	46.08
240.952	27.65
241.169	27.65
241.386	33.79
241.603	31.74
241.821	-29.7
242.038	37.89
242.255	58.37
242.472	5.12
242.689	11.26
242.907	-33.79
243.124	72.7
243.341	-31.74
243.558	60.42
243.775	17.41
243.992	11.26
244.209	41.98
244.426	-1.02
244.643	-3.07
244.86	-60.42
245.078	56.32
245.295	70.65
245.512	-1.02
245.729	-52.22
245.946	-23.55
246.163	-25.6
246.38	11.26
246.597	13.31
246.814	-7.17
247.031	-56.32
247.248	62.46
247.464	-23.55
247.681	-48.13
247.898	37.89
248.115	21.5
248.332	29.7
248.549	-17.41
248.766	11.26
248.983	109.57
249.2	-52.22
249.417	7.17
249.633	17.41
249.85	15.36
250.067	48.13
250.284	1.02
250.501	21.5
250.717	-3.07
250.934	5.12
251.151	-9.22
251.368	15.36
251.585	35.84
251.801	15.36
252.018	58.37
252.235	33.79
252.451	-1.02
252.668	76.8
252.885	-1.02
253.102	66.56
253.318	-7.17
253.535	-25.6
253.752	3.07
253.968	-48.13
254.185	-19.46
254.401	27.65
254.618	-5.12
254.835	23.55
255.051	35.84
255.268	101.37
255.484	44.03
255.701	-11.26
255.917	95.23
256.134	-23.55
256.351	23.55
256.567	-11.26
256.784	13.31
257	29.7
257.217	3.07
257.433	-15.36
257.65	7.17
257.866	89.09
258.082	-27.65
258.299	-31.74
258.515	52.22
258.732	-33.79
258.948	11.26
259.165	46.08
259.381	-52.22
259.597	-9.22
259.814	13.31
260.03	25.6
260.246	1.02
260.463	-62.46
260.679	17.41
260.895	-72.7
261.112	5.12
261.328	29.7
261.544	-29.7
261.761	39.94
261.977	54.27
262.193	-17.41
262.409	-17.41
262.626	17.41
262.842	27.65
263.058	-5.12
263.274	-27.65
263.49	148.48
263.707	91.13
263.923	-3.07
264.139	50.18
264.355	-13.31
264.571	91.13
264.787	39.94
265.004	-5.12
265.22	-68.61
265.436	9.22
265.652	7.17
265.868	-7.17
266.084	-7.17
266.3	35.84
266.516	-70.65
266.732	-35.84
266.948	-54.27
267.164	-1.02
267.38	44.03
267.596	25.6
267.812	58.37
268.028	33.79
268.244	-23.55
268.46	-9.22
268.676	13.31
268.892	76.8
269.108	50.18
269.324	25.6
269.54	-3.07
269.756	52.22
269.972	-19.46
270.188	27.65
270.403	-7.17
270.619	74.75
270.835	-29.7
271.051	33.79
271.267	-13.31
271.483	48.13
271.698	50.18
271.914	-48.13
272.13	23.55
272.346	3.07
272.562	58.37
272.777	-11.26
272.993	-35.84
273.209	-5.12
273.425	-23.55
273.64	-19.46
273.856	-25.6
274.072	25.6
274.287	62.46
274.503	54.27
274.719	-5.12
274.934	41.98
275.15	-13.31
275.366	5.12
275.581	-56.32
275.797	9.22
276.012	27.65
276.228	7.17
276.444	29.7
276.659	-48.13
276.875	-9.22
277.09	39.94
277.306	33.79
277.521	11.26
277.737	5.12
277.952	29.7
278.168	62.46
278.383	95.23
278.599	1.02
278.814	64.51
279.03	64.51
279.245	13.31
279.461	-1.02
279.676	29.7
279.892	-13.31
280.107	-19.46
280.322	-37.89
280.538	-19.46
280.753	-31.74
280.969	50.18
281.184	11.26
281.399	-37.89
281.615	21.5
281.83	62.46
282.045	1.02
282.26	-37.89
282.476	64.51
282.691	78.85
282.906	21.5
283.122	68.61
283.337	-78.85
283.552	15.36
283.767	56.32
283.983	-23.55
284.198	25.6
284.413	33.79
284.628	-29.7
284.843	-56.32
285.058	-35.84
285.274	-9.22
285.489	-27.65
285.704	80.89
285.919	9.22
286.134	44.03
286.349	-15.36
286.564	-37.89
286.779	21.5
286.995	25.6
287.21	-48.13
287.425	-48.13
287.64	25.6
287.855	39.94
288.07	-5.12
288.285	89.09
288.5	82.94
288.715	54.27
288.93	27.65
289.145	5.12
289.36	62.46
289.575	29.7
289.79	54.27
290.004	25.6
290.219	44.03
290.434	46.08
290.649	29.7
290.864	-29.7
291.079	5.12
291.294	-15.36
291.509	60.42
291.724	13.31
291.938	29.7
292.153	-37.89
292.368	-5.12
292.583	39.94
292.798	33.79
293.012	82.94
293.227	-9.22
293.442	15.36
293.657	-37.89
293.871	105.47
294.086	-74.75
294.301	97.28
294.516	-70.65
294.73	37.89
294.945	78.85
295.16	56.32
295.374	9.22
295.589	74.75
295.804	-13.31
296.018	31.74
296.233	1.02
296.447	-1.02
296.662	44.03
296.877	54.27
297.091	-39.94
297.306	25.6
297.52	-74.75
297.735	58.37
297.949	-39.94
298.164	25.6
298.378	-19.46
298.593	-27.65
298.807	19.46
299.022	7.17
299.236	5.12
299.451	35.84
299.665	-11.26
299.88	-15.36
300.094	-29.7
300.309	21.5
300.523	-7.17
300.737	13.31
300.952	111.61
301.166	1.02
301.381	-5.12
301.595	-41.98
301.809	-7.17
302.024	-48.13
302.238	-35.84
302.452	78.85
302.667	21.5
302.881	-5.12
303.095	9.22
303.309	-76.8
303.524	1.02
303.738	3.07
303.952	-31.74
304.166	-21.5
304.381	13.31
304.595	15.36
304.809	-15.36
305.023	-25.6
305.237	19.46
305.452	-19.46
305.666	-17.41
305.88	21.5
306.094	-21.5
306.308	-3.07
306.522	5.12
306.736	31.74
306.95	9.22
307.164	-44.03
307.379	-9.22
307.593	107.52
307.807	-31.74
308.021	31.74
308.235	13.31
308.449	-1.02
308.663	-3.07
308.877	95.23
309.091	-15.36
309.305	1.02
309.519	7.17
309.733	27.65
309.947	93.18
310.161	25.6
310.374	17.41
310.588	50.18
310.802	-60.42
311.016	7.17
311.23	60.42
311.444	15.36
311.658	82.94
311.872	35.84
312.085	144.38
312.299	39.94
312.513	-27.65
312.727	35.84
312.941	-35.84
313.154	-35.84
313.368	13.31
313.582	-9.22
313.796	-56.32
314.009	23.55
314.223	29.7
314.437	27.65
314.651	-1.02
314.864	37.89
315.078	5.12
315.292	9.22
315.505	9.22
315.719	9.22
315.933	-17.41
316.146	-19.46
316.36	17.41
316.573	60.42
316.787	17.41
317.001	37.89
317.214	68.61
317.428	37.89
317.641	11.26
317.855	1.02
318.068	25.6
318.282	64.51
318.495	25.6
318.709	-44.03
318.922	15.36
319.136	119.81
319.349	29.7
319.563	15.36
319.776	-33.79
319.99	44.03
320.203	19.46
320.417	48.13
320.63	37.89
320.843	41.98
321.057	46.08
321.27	58.37
321.483	-23.55
321.697	25.6
321.91	15.36
322.124	33.79
322.337	21.5
322.55	-23.55
322.763	-29.7
322.977	-29.7
323.19	5.12
323.403	72.7
323.617	-15.36
323.83	-15.36
324.043	41.98
324.256	9.22
324.469	15.36
324.683	68.61
324.896	29.7
325.109	56.32
325.322	68.61
325.535	31.74
325.748	-13.31
325.962	119.81
326.175	99.33
326.388	31.74
326.601	-7.17
326.814	35.84
327.027	-7.17
327.24	29.7
327.453	-35.84
327.666	37.89
327.879	-19.46
328.092	-44.03
328.305	37.89
328.518	1.02
328.731	46.08
328.944	66.56
329.157	-54.27
329.37	23.55
329.583	23.55
329.796	60.42
330.009	5.12
330.222	-13.31
330.435	-25.6
330.648	29.7
330.861	27.65
331.073	91.13
331.286	62.46
331.499	-27.65
331.712	39.94
331.925	-44.03
332.138	-29.7
332.35	7.17
332.563	5.12
332.776	39.94
332.989	-82.94
333.202	-3.07
333.414	-44.03
333.627	-13.31
333.84	-21.5
334.053	35.84
334.265	13.31
334.478	-7.17
334.691	19.46
334.903	35.84
335.116	-93.18
335.329	-5.12
335.541	-39.94
335.754	39.94
335.966	3.07
336.179	72.7
336.392	54.27
336.604	64.51
336.817	-21.5
337.029	-27.65
337.242	117.76
337.454	27.65
337.667	-54.27
337.88	48.13
338.092	29.7
338.305	68.61
338.517	35.84
338.729	-31.74
338.942	109.57
339.154	-23.55
339.367	21.5
339.579	31.74
339.792	17.41
340.004	9.22
340.217	-56.32
340.429	1.02
340.641	-5.12
340.854	-15.36
341.066	46.08
341.278	5.12
341.491	64.51
341.703	29.7
341.915	-33.79
342.128	66.56
342.34	-5.12
342.552	9.22
342.764	-3.07
342.977	-39.94
343.189	29.7
343.401	58.37
343.613	25.6
343.826	39.94
344.038	3.07
344.25	33.79
344.462	15.36
344.674	5.12
344.886	29.7
345.099	46.08
345.311	-48.13
345.523	-19.46
345.735	-35.84
345.947	84.99
346.159	23.55
346.371	9.22
346.583	46.08
346.795	103.42
347.007	-15.36
347.219	56.32
347.431	23.55
347.643	3.07
347.855	-29.7
348.067	91.13
348.279	29.7
348.491	27.65
348.703	-41.98
348.915	7.17
349.127	13.31
349.339	91.13
349.551	25.6
349.763	60.42
349.975	-7.17
350.187	27.65
350.399	5.12
350.61	64.51
350.822	5.12
351.034	56.32
351.246	70.65
351.458	25.6
351.669	25.6
351.881	39.94
352.093	-21.5
352.305	5.12
352.517	17.41
352.728	29.7
352.94	3.07
353.152	7.17
353.363	-23.55
353.575	48.13
353.787	76.8
353.999	21.5
354.21	-25.6
354.422	17.41
354.633	-39.94
354.845	48.13
355.057	19.46
355.268	95.23
355.48	-23.55
355.692	29.7
355.903	5.12
356.115	21.5
356.326	33.79
356.538	46.08
356.749	13.31
356.961	80.89
357.172	-15.36
357.384	29.7
357.595	56.32
357.807	-21.5
358.018	80.89
358.23	9.22
358.441	21.5
358.653	29.7
358.864	17.41
359.075	-13.31
359.287	13.31
359.498	11.26
359.709	-1.02
359.921	17.41
360.132	54.27
360.344	48.13
360.555	-31.74
360.766	-15.36
360.977	-7.17
361.189	1.02
361.4	7.17
361.611	74.75
361.823	-27.65
362.034	39.94
362.245	41.98
362.456	-13.31
362.667	74.75
362.879	50.18
363.09	115.71
363.301	5.12
363.512	27.65
363.723	44.03
363.935	-19.46
364.146	-3.07
364.357	82.94
364.568	-25.6
364.779	-39.94
364.99	54.27
365.201	23.55
365.412	82.94
365.623	-9.22
365.834	35.84
366.045	-1.02
366.256	62.46
366.467	15.36
366.678	29.7
366.889	-3.07
367.1	48.13
367.311	-31.74
367.522	68.61
367.733	-27.65
367.944	54.27
368.155	3.07
368.366	-1.02
368.577	44.03
368.788	-60.42
368.999	23.55
369.209	11.26
369.42	-21.5
369.631	93.18
369.842	-5.12
370.053	74.75
370.264	7.17
370.474	23.55
370.685	41.98
370.896	29.7
371.107	93.18
371.317	1.02
371.528	64.51
371.739	13.31
371.95	23.55
372.16	3.07
372.371	-1.02
372.582	39.94
372.792	25.6
373.003	5.12
373.214	44.03
373.424	-13.31
373.635	64.51
373.846	109.57
374.056	58.37
374.267	70.65
374.477	7.17
374.688	29.7
374.898	-13.31
375.109	54.27
375.319	7.17
375.53	19.46
375.74	21.5
375.951	11.26
376.161	25.6
376.372	17.41
376.582	76.8
376.793	44.03
377.003	5.12
377.214	-7.17
377.424	64.51
377.635	50.18
377.845	-11.26
378.055	52.22
378.266	-29.7
378.476	29.7
378.686	33.79
378.897	23.55
379.107	66.56
379.317	105.47
379.528	9.22
379.738	82.94
379.948	19.46
380.158	35.84
380.369	3.07
380.579	62.46
380.789	-50.18
380.999	91.13
381.21	48.13
381.42	19.46
381.63	19.46
381.84	15.36
382.05	-15.36
382.261	78.85
382.471	-37.89
382.681	-46.08
382.891	50.18
383.101	48.13
383.311	23.55
383.521	-19.46
383.731	99.33
383.941	37.89
384.151	72.7
384.361	5.12
384.571	-3.07
384.781	56.32
384.991	68.61
385.201	1.02
385.411	29.7
385.621	35.84
385.831	-19.46
386.041	87.04
386.251	58.37
386.461	74.75
386.671	52.22
386.881	13.31
387.091	-50.18
387.301	109.57
387.511	23.55
387.72	29.7
387.93	89.09
388.14	37.89
388.35	-19.46
388.56	138.24
388.769	66.56
388.979	-37.89
389.189	-15.36
389.399	25.6
389.609	52.22
389.818	29.7
390.028	5.12
390.238	21.5
390.447	23.55
390.657	15.36
390.867	23.55
391.076	74.75
391.286	93.18
391.496	93.18
391.705	48.13
391.915	72.7
392.125	107.52
392.334	58.37
392.544	-3.07
392.753	-1.02
392.963	103.42
393.172	1.02
393.382	17.41
393.591	46.08
393.801	95.23
394.01	84.99
394.22	-15.36
394.429	62.46
394.639	41.98
394.848	111.61
395.058	21.5
395.267	31.74
395.477	107.52
395.686	52.22
395.895	113.66
396.105	117.76
396.314	70.65
396.524	97.28
396.733	74.75
396.942	95.23
397.152	105.47
397.361	123.9
397.57	82.94
397.78	74.75
397.989	58.37
398.198	82.94
398.407	35.84
398.617	70.65
398.826	76.8
399.035	5.12
399.244	76.8
399.453	46.08
399.663	60.42
399.872	115.71
400.081	33.79
400.29	95.23
400.499	25.6
400.708	156.67
400.917	50.18
401.127	70.65
401.336	103.42
401.545	164.86
401.754	66.56
401.963	95.23
402.172	173.05
402.381	68.61
402.59	99.33
402.799	121.85
403.008	156.67
403.217	97.28
403.426	138.24
403.635	33.79
403.844	99.33
404.053	82.94
404.262	101.37
404.471	119.81
404.68	74.75
404.888	115.71
405.097	140.29
405.306	119.81
405.515	97.28
405.724	107.52
405.933	74.75
406.142	158.72
406.35	134.14
406.559	201.72
406.768	128
406.977	203.77
407.185	140.29
407.394	224.25
407.603	185.34
407.812	175.1
408.02	144.38
408.229	109.57
408.438	164.86
408.646	201.72
408.855	168.96
409.064	148.48
409.272	199.68
409.481	181.25
409.69	238.59
409.898	226.3
410.107	273.4
410.315	269.31
410.524	328.7
410.733	318.46
410.941	230.4
411.15	316.41
411.358	318.46
411.567	408.57
411.775	257.02
411.984	336.89
412.192	355.32
412.401	359.42
412.609	340.99
412.818	431.1
413.026	394.23
413.234	410.62
413.443	410.62
413.651	467.96
413.86	556.02
414.068	594.93
414.276	592.89
414.485	480.25
414.693	586.74
414.901	586.74
415.11	566.26
415.318	607.22
415.526	670.71
415.734	576.5
415.943	830.45
416.151	740.34
416.359	740.34
416.567	801.78
416.776	685.05
416.984	783.35
417.192	861.17
417.4	863.22
417.608	805.88
417.817	926.71
418.025	977.91
418.233	1088.5
418.441	1020.91
418.649	1043.44
418.857	1092.59
419.065	1123.31
419.273	1022.96
419.481	1258.48
419.689	1278.96
419.897	1383.4
420.105	1313.77
420.313	1477.61
420.521	1418.22
420.729	1428.46
420.937	1537
421.145	1547.24
421.353	1620.97
421.561	1663.97
421.769	1719.27
421.977	1797.09
422.185	1825.76
422.393	1876.96
422.601	1911.78
422.809	2094.05
423.017	2073.57
423.224	2075.62
423.432	2155.49
423.64	2307.04
423.848	2481.11
424.056	2364.38
424.263	2655.19
424.471	2577.37
424.679	2542.55
424.887	2761.69
425.094	2780.12
425.302	2843.6
425.51	2943.96
425.718	2972.63
425.925	2913.24
426.133	3212.24
426.341	3281.87
426.548	3451.85
426.756	3474.38
426.964	3490.76
427.171	3685.32
427.379	3781.57
427.586	3849.16
427.794	4125.63
428.001	4070.34
428.209	4420.54
428.417	4228.03
428.624	4567.99
428.832	4508.6
429.039	4598.71
429.247	4686.78
429.454	5084.08
429.662	5391.28
429.869	4963.25
430.076	5448.62
430.284	5352.37
430.491	5602.22
430.699	5688.23
430.906	5745.58
431.114	5931.94
431.321	6054.82
431.528	6214.56
431.736	6542.24
431.943	6843.29
432.15	6615.96
432.358	6925.21
432.565	6990.74
432.772	7130
432.979	7539.6
433.187	7588.75
433.394	7527.31
433.601	7979.91
433.808	8151.94
434.016	8121.22
434.223	8452.99
434.43	8829.82
434.637	8573.82
434.844	9360.24
435.052	9489.26
435.259	9268.08
435.466	9321.33
435.673	9356.15
435.88	10115.94
436.087	10593.12
436.294	10328.93
436.501	10257.25
436.708	10482.53
436.915	10984.28
437.122	11307.86
437.329	11498.32
437.537	11772.75
437.743	11959.11
437.95	11873.1
438.157	12327.75
438.364	12702.53
438.571	12847.93
438.778	12708.67
438.985	14166.82
439.192	13364.02
439.399	13974.31
439.606	13511.47
439.813	14596.9
440.02	15090.46
440.227	15143.7
440.433	14785.31
440.64	15295.25
440.847	15127.32
441.054	15469.33
441.261	16395.01
441.467	15946.51
441.674	16745.22
441.881	17320.7
442.088	17341.18
442.294	17226.49
442.501	17650.42
442.708	17922.8
442.914	18729.7
443.121	19014.37
443.328	18914.02
443.534	20323.02
443.741	19880.66
443.948	19591.89
444.154	20937.41
444.361	20366.03
444.568	20892.35
444.774	20814.53
444.981	21052.09
445.187	21643.96
445.394	22590.12
445.6	22317.74
445.807	24412.81
446.013	23196.32
446.22	23786.13
446.426	24793.73
446.633	24818.31
446.839	25393.79
447.046	24640.14
447.252	26075.76
447.459	25987.7
447.665	25733.75
447.871	26929.77
448.078	27968.09
448.284	26661.48
448.491	27345.5
448.697	28426.83
448.903	29020.74
449.11	29131.33
449.316	28424.78
449.522	29061.7
449.728	30087.73
449.935	30132.79
450.141	30253.62
450.347	30356.02
450.553	29930.04
450.76	29866.55
450.966	30978.6
451.172	30880.3
451.378	31332.9
451.584	30820.91
451.791	31603.23
451.997	31599.13
452.203	31805.98
452.409	32129.56
452.615	31711.77
452.821	30405.17
453.027	30089.78
453.233	31873.56
453.44	30675.5
453.646	30741.03
453.852	30929.45
454.058	31486.5
454.264	30566.96
454.47	31216.16
454.676	30366.26
454.882	31302.18
455.088	28588.62
455.294	29071.94
455.5	29346.37
455.705	29659.71
455.911	28541.52
456.117	28248.66
456.323	27470.43
456.529	26102.39
456.735	26991.2
456.941	26503.79
457.147	26380.91
457.352	25293.44
457.558	25041.54
457.764	24990.34
457.97	24576.65
458.176	23997.07
458.381	23970.45
458.587	22713
458.793	22647.46
458.999	21854.9
459.204	23278.24
459.41	22502.06
459.616	21162.69
459.821	20939.46
460.027	20740.8
460.233	20714.18
460.438	19612.37
460.644	19897.04
460.85	18875.1
461.055	18598.63
461.261	18531.05
461.466	17287.93
461.672	16861.95
461.878	17814.26
462.083	16859.9
462.289	16425.73
462.494	16077.58
462.7	15586.07
462.905	14973.72
463.111	15696.66
463.316	15493.91
463.522	15242.01
463.727	15266.58
463.932	15215.38
464.138	15049.5
464.343	15131.42
464.549	14916.38
464.754	15479.57
464.959	15160.09
465.165	15059.74
465.37	14388
465.575	14101.29
465.781	14533.41
465.986	14859.04
466.191	14066.47
466.397	13841.2
466.602	13167.42
466.807	13818.67
467.012	13669.17
467.218	13773.61
467.423	13470.51
467.628	13767.47
467.833	14228.26
468.038	13529.91
468.244	13103.93
468.449	13626.16
468.654	13372.21
468.859	13263.67
469.064	13048.63
469.269	12751.68
469.474	12622.66
469.679	12860.22
469.885	12387.14
470.09	12878.65
470.295	12561.22
470.5	12409.67
470.705	12235.59
470.91	12038.98
471.115	11860.81
471.32	12122.95
471.525	12184.39
471.73	11780.94
471.935	11787.08
472.139	11387.73
472.344	11445.07
472.549	11357.01
472.754	11494.22
472.959	11084.63
473.164	10802.01
473.369	10535.78
473.574	11006.81
473.778	10863.45
473.983	10898.27
474.188	10734.43
474.393	10449.76
474.598	10302.31
474.802	10257.25
475.007	10201.96
475.212	10273.64
475.417	9837.42
475.621	9884.52
475.826	9913.19
476.031	9673.58
476.235	9554.8
476.44	9810.79
476.645	9399.15
476.849	9515.89
477.054	9393.01
477.259	9204.6
477.463	9276.27
477.668	9057.14
477.872	9212.79
478.077	8878.97
478.282	8670.08
478.486	8625.02
478.691	8831.87
478.895	8526.72
479.1	8670.08
479.304	8663.93
479.509	8369.02
479.713	8479.61
479.918	8414.08
480.122	7963.53
480.326	8323.97
480.531	8303.49
480.735	8166.28
480.94	8061.83
481.144	8201.09
481.348	7664.52
481.553	8063.88
481.757	8027.01
481.961	7945.09
482.166	7963.53
482.37	7998.34
482.574	7918.47
482.778	7873.42
482.983	8141.7
483.187	7857.03
483.391	8086.4
483.595	7805.83
483.8	7830.41
484.004	8020.87
484.208	8211.33
484.412	7893.9
484.616	7998.34
484.821	8125.32
485.025	7721.87
485.229	7918.47
485.433	7799.69
485.637	7713.67
485.841	8024.97
486.045	7693.19
486.249	8006.53
486.453	7891.85
486.657	8006.53
486.861	8049.54
487.065	7719.82
487.269	7789.45
487.473	7818.12
487.677	7973.77
487.881	7820.17
488.085	7762.83
488.289	8053.64
488.493	7834.5
488.697	8027.01
488.901	7963.53
489.105	7930.76
489.309	8000.39
489.512	8059.78
489.716	8035.21
489.92	7906.18
490.124	7949.19
490.328	8110.98
490.531	7873.42
490.735	8074.12
490.939	7969.67
491.143	7889.8
491.346	8047.49
491.55	8215.43
491.754	8219.52
491.958	8190.85
492.161	8139.65
492.365	8459.13
492.569	8182.66
492.772	8268.67
492.976	8317.83
493.18	8465.28
493.383	8565.63
493.587	8647.55
493.79	8618.88
493.994	8516.48
494.197	8743.8
494.401	8661.88
494.605	8813.43
494.808	8924.02
495.012	8999.8
495.215	8926.07
495.419	9118.58
495.622	8942.46
495.825	9116.53
496.029	8997.75
496.232	9198.45
496.436	9315.19
496.639	9466.74
496.843	9661.29
497.046	9560.94
497.249	9737.07
497.453	9775.98
497.656	9921.38
497.859	9814.89
498.063	9960.3
498.266	10199.91
498.469	10376.03
498.673	10423.14
498.876	10406.75
499.079	10617.69
499.282	10468.19
499.485	11027.29
499.689	10830.68
499.892	11025.24
500.095	10953.56
500.298	11391.83
500.501	11111.25
500.705	11490.13
500.908	11424.59
501.111	11821.9
501.314	11756.36
501.517	11981.64
501.72	11989.83
501.923	12008.26
502.126	12258.12
502.329	12643.14
502.532	12626.75
502.735	12606.27
502.938	12890.94
503.141	12952.38
503.344	13089.59
503.547	13181.75
503.75	13495.09
503.953	13579.06
504.156	13849.39
504.359	13878.06
504.562	13822.77
504.765	14234.41
504.968	14379.81
505.17	14367.52
505.373	14684.96
505.576	15098.65
505.779	14836.51
505.982	14932.76
506.185	15213.34
506.387	15266.58
506.59	15438.61
506.793	15581.97
506.996	15739.66
507.198	16216.84
507.401	16024.33
507.604	16341.77
507.807	16753.41
508.009	16485.12
508.212	16947.97
508.415	17048.32
508.617	16907.01
508.82	17601.27
509.022	17117.95
509.225	17771.25
509.428	17734.39
509.63	17984.24
509.833	18068.2
510.035	18336.49
510.238	18506.47
510.44	18578.15
510.643	18997.98
510.845	19124.96
511.048	18819.81
511.25	19251.93
511.453	19647.19
511.655	20316.87
511.858	19849.94
512.06	19987.15
512.262	20318.92
512.465	20386.5
512.667	20681.41
512.87	20751.04
513.072	20978.37
513.274	21322.43
513.477	21486.26
513.679	21504.7
513.881	21867.19
514.084	21971.63
514.286	21947.06
514.488	22483.62
514.69	22688.42
514.893	22944.42
515.095	23118.5
515.297	23579.29
515.499	23108.26
515.701	23599.77
515.904	24019.6
516.106	23833.24
516.308	24517.26
516.51	24576.65
516.712	24451.72
516.914	24957.57
517.116	25150.08
517.318	25346.69
517.52	25377.4
517.722	25700.98
517.925	26268.27
518.127	26204.78
518.329	26583.66
518.531	26217.07
518.733	27200.1
518.935	26944.1
519.136	27378.27
519.338	27810.39
519.54	27615.83
519.742	27888.21
519.944	28172.88
520.146	28531.28
520.348	28807.75
520.55	28895.82
520.752	28934.73
520.954	29426.24
521.155	29172.29
521.357	29481.53
521.559	29856.31
521.761	29917.75
521.963	30100.02
522.164	30353.97
522.366	30806.57
522.568	30970.41
522.77	31021.61
522.971	31756.83
523.173	31074.85
523.375	31658.52
523.576	31429.15
523.778	31760.92
523.98	32463.38
524.181	32131.61
524.383	32061.97
524.584	32584.21
524.786	32944.65
524.988	32567.82
525.189	33360.39
525.391	33450.5
525.592	33710.59
525.794	33630.72
525.995	33610.24
526.197	33892.86
526.398	34017.78
526.6	34335.22
526.801	34105.85
527.003	34286.07
527.204	34228.73
527.406	34925.04
527.607	34988.52
527.808	35199.46
528.01	34476.53
528.211	35076.58
528.412	35850.72
528.614	35588.58
528.815	35371.49
529.016	36186.58
529.218	35668.45
529.419	35654.11
529.62	35822.05
529.822	35711.46
530.023	35987.93
530.224	36313.56
530.425	36047.32
530.626	36100.57
530.828	35787.23
531.029	36762.06
531.23	36104.67
531.431	36221.4
531.632	36377.04
531.833	36671.95
532.035	36420.05
532.236	36268.5
532.437	36524.5
532.638	36442.58
532.839	37001.68
533.04	37018.06
533.241	36458.96
533.442	37243.34
533.643	37269.96
533.844	36960.72
534.045	36993.48
534.246	36762.06
534.447	37472.71
534.648	36979.15
534.849	37097.93
535.05	36766.16
535.251	36850.13
535.451	37036.49
535.652	37319.11
535.853	36932.04
536.054	37382.6
536.255	37530.05
536.456	36827.6
536.657	37679.55
536.857	37040.59
537.058	36919.76
537.259	37468.61
537.46	36809.17
537.66	37284.3
537.861	36751.82
538.062	37370.31
538.263	37343.69
538.463	37095.88
538.664	37011.92
538.865	37153.23
539.065	37468.61
539.266	36751.82
539.466	37507.52
539.667	36717.01
539.868	37562.82
540.068	37038.54
540.269	36930
540.469	37364.17
540.67	36682.19
540.87	36915.66
541.071	37145.03
541.271	37233.1
541.472	37317.06
541.672	36676.05
541.873	36741.58
542.073	36248.02
542.274	37269.96
542.474	36983.24
542.675	36647.38
542.875	37368.26
543.075	36919.76
543.276	36749.78
543.476	37618.11
543.676	36567.51
543.877	36987.34
544.077	36895.18
544.277	36950.48
544.478	36616.66
544.678	37108.17
544.878	36768.21
545.078	36843.98
545.279	36794.83
545.479	36800.97
545.679	36792.78
545.879	36770.25
546.079	36989.39
546.28	36897.23
546.48	36512.21
546.68	36717.01
546.88	37026.25
547.08	36678.1
547.28	36336.09
547.48	36311.51
547.68	36415.96
547.88	36553.17
548.081	37050.83
548.281	36897.23
548.481	36649.42
548.681	36866.51
548.881	36606.42
549.081	36657.62
549.28	36409.81
549.48	37065.16
549.68	36198.87
549.88	37312.97
550.08	36415.96
550.28	36585.94
550.48	36606.42
550.68	37087.69
550.88	36508.11
551.08	36522.45
551.279	37095.88
551.479	36207.06
551.679	36442.58
551.879	36669.9
552.079	36493.78
552.278	36473.3
552.478	36655.57
552.678	36690.38
552.878	36407.76
553.077	36266.45
553.277	36211.16
553.477	36622.8
553.676	36164.06
553.876	36508.11
554.076	36078.04
554.275	36516.31
554.475	36106.71
554.674	36399.57
554.874	35992.03
555.074	36069.85
555.273	36090.33
555.473	36440.53
555.672	35903.96
555.872	35873.24
556.071	35887.58
556.271	36282.84
556.47	36172.25
556.67	34998.76
556.869	35144.17
557.068	36145.62
557.268	35375.59
557.467	35564
557.667	35535.33
557.866	35584.48
558.065	35371.49
558.265	35078.63
558.464	35482.08
558.663	35731.93
558.863	34916.84
559.062	35418.6
559.261	35293.67
559.461	35717.6
559.66	34863.6
559.859	35027.43
560.058	34920.94
560.258	35011.05
560.457	34744.81
560.656	34992.62
560.855	34847.21
561.054	34861.55
561.253	34755.05
561.453	34419.19
561.652	34623.98
561.851	34488.82
562.05	34572.78
562.249	34114.04
562.448	34451.95
562.647	34343.41
562.846	34408.95
563.045	34394.61
563.244	33706.49
563.443	34165.24
563.642	33733.12
563.841	34009.59
564.04	33731.07
564.239	34157.05
564.438	33567.23
564.637	34046.46
564.836	33522.18
565.035	33071.62
565.234	33536.51
565.432	33180.17
565.631	33329.67
565.83	33458.69
566.029	33217.03
566.228	32803.34
566.427	32911.88
566.625	32725.52
566.824	32549.39
567.023	32971.27
567.222	32215.57
567.42	32991.75
567.619	32922.12
567.818	32143.89
568.016	32598.54
568.215	32596.49
568.414	32049.69
568.612	32481.81
568.811	32045.59
569.01	32016.92
569.208	31506.98
569.407	31920.66
569.605	31580.7
569.804	31601.18
570.002	31480.35
570.201	31836.7
570.4	30999.08
570.598	31074.85
570.797	31164.96
570.995	31380
571.193	31009.32
571.392	31076.9
571.59	30521.9
571.789	30870.06
571.987	30736.94
572.186	30364.21
572.384	30724.65
572.582	30700.08
572.781	30337.59
572.979	30386.74
573.177	30777.9
573.376	30503.47
573.574	29975.09
573.772	30579.25
573.971	29932.09
574.169	30026.29
574.367	29581.88
574.565	30038.58
574.763	29633.08
574.962	29655.61
575.16	29127.24
575.358	29350.46
575.556	28977.73
575.754	29504.06
575.952	29053.51
576.151	29229.63
576.349	29153.86
576.547	28768.84
576.745	28850.76
576.943	28975.69
577.141	28760.65
577.339	28652.11
577.537	28652.11
577.735	28662.35
577.933	28127.83
578.131	28416.59
578.329	28138.07
578.527	28281.42
578.725	28111.44
578.923	27904.6
579.121	27802.2
579.319	27933.27
579.516	28084.82
579.714	27841.11
579.912	27490.91
580.11	27531.87
580.308	27832.92
580.506	27325.02
580.704	27267.68
580.901	27542.11
581.099	27124.32
581.297	27017.83
581.495	27179.62
581.692	27005.54
581.89	26911.33
582.088	27185.76
582.285	26792.55
582.483	26966.63
582.681	26761.83
582.878	26991.2
583.076	26174.06
583.274	26759.78
583.471	26659.43
583.669	26079.86
583.866	25889.4
584.064	26059.38
584.262	25946.74
584.459	26139.25
584.657	26155.63
584.854	26169.97
585.052	25262.72
585.249	25643.64
585.447	25686.65
585.644	25311.87
585.841	25447.04
586.039	25813.62
586.236	24965.76
586.434	25168.51
586.631	25322.11
586.828	25266.81
587.026	25164.42
587.223	25131.65
587.42	24990.34
587.618	24980.1
587.815	24703.62
588.012	24562.31
588.21	24900.23
588.407	24783.49
588.604	24552.07
588.801	24631.94
588.999	24341.13
589.196	24324.75
589.393	24240.78
589.59	24539.79
589.787	24031.89
589.984	23972.5
590.182	23906.96
590.379	24265.36
590.576	23755.41
590.773	23855.76
590.97	23626.39
591.167	23716.5
591.364	23227.04
591.561	23378.59
591.758	23354.01
591.955	23386.78
592.152	23644.82
592.349	23190.17
592.546	23153.31
592.743	23147.17
592.94	22698.66
593.137	23308.96
593.334	22858.4
593.531	22657.7
593.727	22936.23
593.924	22891.17
594.121	22672.04
594.318	22741.67
594.515	22276.78
594.712	22645.41
594.908	22246.06
595.105	22424.23
595.302	21861.04
595.499	22123.18
595.696	22088.37
595.892	21895.86
596.089	22084.27
596.286	21693.11
596.482	22127.28
596.679	22018.74
596.876	21764.79
597.072	21426.87
597.269	21539.51
597.466	21420.73
597.662	21088.96
597.859	21295.8
598.055	21303.99
598.252	21127.87
598.448	21234.36
598.645	21095.1
598.841	20892.35
599.038	21019.33
599.234	20818.63
599.431	20560.58
599.627	20564.68
599.824	20921.02
600.02	20372.17
600.217	20552.39
600.413	20554.44
600.609	20644.55
600.806	20409.03
601.002	20513.48
601.198	20404.94
601.395	20355.79
601.591	20200.14
601.787	20191.95
601.984	19892.94
602.18	20067.02
602.376	20214.48
602.572	19806.93
602.769	19890.9
602.965	19710.68
603.161	19690.2
603.357	19362.52
603.553	19571.41
603.75	19552.98
603.946	19210.97
604.142	19446.49
604.338	19139.29
604.534	19350.23
604.73	19268.31
604.926	19106.52
605.122	19262.17
605.318	18930.4
605.514	18909.92
605.71	18823.9
605.906	18653.92
606.102	18852.58
606.298	18879.2
606.494	18924.26
606.69	18752.23
606.886	18633.44
607.082	18408.17
607.278	18533.09
607.474	18531.05
607.67	18651.88
607.866	18250.47
608.062	18320.1
608.257	18311.91
608.453	18406.12
608.649	18309.86
608.845	18150.12
609.041	18066.16
609.236	18150.12
609.432	18008.81
609.628	18107.12
609.824	18119.4
610.019	17666.8
610.215	17814.26
610.411	17867.5
610.606	17881.84
610.802	17801.97
610.998	17801.97
611.193	17885.94
611.389	17853.17
611.584	17492.73
611.78	17685.23
611.976	17718
612.171	17459.96
612.367	17392.37
612.562	17416.95
612.758	17160.95
612.953	17181.43
613.149	17468.15
613.344	17019.64
613.539	17523.44
613.735	17298.17
613.93	17152.76
614.126	17163
614.321	17216.25
614.517	17146.62
614.712	17029.88
614.907	17150.71
615.103	17052.41
615.298	16888.57
615.493	17156.86
615.688	16808.7
615.884	17117.95
616.079	16829.18
616.274	16962.3
616.47	16671.49
616.665	16890.62
616.86	16696.07
617.055	16659.2
617.25	16489.22
617.445	16610.05
617.641	16317.19
617.836	16706.31
618.031	16292.62
618.226	16489.22
618.421	16333.57
618.616	16528.13
618.811	16112.39
619.006	16409.35
619.201	15985.42
619.396	16093.96
619.591	15790.86
619.786	16018.19
619.981	15764.24
620.176	15981.32
620.371	15512.34
620.566	15745.81
620.761	15393.56
620.956	15586.07
621.151	15727.38
621.346	15506.2
621.541	15256.34
621.735	15233.82
621.93	15084.31
622.125	14906.14
622.32	14912.28
622.515	14965.53
622.709	14957.34
622.904	15008.54
623.099	14856.99
623.294	14926.62
623.488	14441.25
623.683	14498.59
623.878	14533.41
624.072	14441.25
624.267	14467.88
624.462	14486.31
624.656	14011.18
624.851	14197.54
625.046	13863.72
625.24	13873.96
625.435	13783.85
625.629	13841.2
625.824	13931.31
626.018	13728.56
626.213	13278.01
626.407	13511.47
626.602	13333.3
626.796	13361.97
626.991	13376.31
627.185	13337.4
627.38	13091.64
627.574	13148.98
627.768	12989.24
627.963	12972.86
628.157	12733.25
628.352	12870.46
628.546	12350.28
628.74	12401.47
628.935	12702.53
629.129	12684.09
629.323	12344.13
629.517	12233.54
629.712	12243.78
629.906	12223.3
630.1	11866.95
630.294	12098.38
630.489	11959.11
630.683	12069.7
630.877	11680.59
631.071	11836.24
631.265	11858.76
631.459	11686.73
631.653	11543.38
631.848	11680.59
632.042	11490.13
632.236	11588.43
632.43	11486.03
632.624	11260.76
632.818	11393.87
633.012	11328.34
633.206	11191.13
633.4	11123.54
633.594	10914.65
633.788	10990.42
633.982	10953.56
634.176	10906.46
634.369	10857.31
634.563	10713.95
634.757	10761.05
634.951	10691.42
635.145	10691.42
635.339	10560.35
635.533	10503.01
635.726	10629.98
635.92	10466.14
636.114	10259.3
636.308	10355.55
636.501	10353.51
636.695	10210.15
636.889	10085.22
637.083	10077.03
637.276	10062.69
637.47	9952.1
637.664	9894.76
637.857	10034.02
638.051	9956.2
638.244	9689.96
638.438	9646.96
638.632	9442.16
638.825	9677.68
639.019	9622.38
639.212	9395.06
639.406	9497.46
639.599	9345.91
639.793	9626.48
639.986	9110.39
640.18	9313.14
640.373	9194.36
640.567	9137.01
640.76	9151.35
640.954	8883.06
641.147	8811.39
641.34	8975.22
641.534	9108.34
641.727	8870.78
641.92	8958.84
642.114	8827.77
642.307	8801.15
642.5	8586.11
642.694	8584.06
642.887	8604.54
643.08	8582.01
643.273	8467.33
643.467	8471.42
643.66	8334.21
643.853	8231.81
644.046	8455.04
644.239	8303.49
644.432	8196.99
644.626	8129.41
644.819	8188.8
645.012	7998.34
645.205	8084.36
645.398	8031.11
645.591	7928.71
645.784	7895.94
645.977	7771.02
646.17	7865.22
646.363	7863.18
646.556	7678.86
646.749	7768.97
646.942	7793.55
647.135	7719.82
647.328	7492.49
647.521	7660.43
647.714	7426.96
647.907	7392.14
648.099	7404.43
648.292	7431.05
648.485	7283.6
648.678	7224.21
648.871	7271.31
649.064	7183.25
649.256	7388.05
649.449	7179.15
649.642	7115.67
649.835	6970.26
650.027	7066.52
650.22	6933.4
650.413	6951.83
650.605	6867.86
650.798	6900.63
650.991	6773.66
651.183	6800.28
651.376	6704.03
651.568	6736.79
651.761	6689.69
651.954	6642.59
652.146	6818.71
652.339	6523.8
652.531	6591.39
652.724	6497.18
652.916	6527.9
653.109	6480.8
653.301	6509.47
653.494	6413.21
653.686	6308.77
653.879	6294.43
654.071	6343.58
654.263	6327.2
654.456	6329.25
654.648	6138.79
654.84	6103.97
655.033	6106.02
655.225	6142.88
655.417	6157.22
655.61	6083.49
655.802	6220.71
655.994	6058.92
656.186	5968.8
656.379	5833.64
656.571	5999.52
656.763	5843.88
656.955	5792.68
657.148	5882.79
657.34	5796.78
657.532	5759.91
657.724	5649.32
657.916	5657.51
658.108	5768.1
658.3	5634.99
658.492	5659.56
658.684	5610.41
658.876	5602.22
659.068	5456.81
659.26	5546.92
659.452	5508.01
659.644	5436.33
659.836	5381.04
660.028	5432.24
660.22	5018.55
660.412	5258.16
660.604	5188.53
660.796	5284.78
660.988	5202.86
661.18	5180.34
661.372	5104.56
661.563	5192.62
661.755	5100.47
661.947	4928.44
662.139	5104.56
662.331	5071.79
662.522	4961.2
662.714	5079.99
662.906	5004.21
663.097	4965.3
663.289	4697.02
663.481	4836.28
663.673	4957.11
663.864	4723.64
664.056	4762.55
664.247	4709.3
664.439	4576.19
664.631	4709.3
664.822	4737.98
665.014	4715.45
665.205	4676.54
665.397	4643.77
665.588	4533.18
665.78	4496.32
665.971	4658.1
666.163	4670.39
666.354	4670.39
666.546	4547.51
666.737	4467.64
666.929	4355.01
667.12	4395.96
667.311	4449.21
667.503	4512.7
667.694	4330.43
667.885	4387.77
668.077	4486.08
668.268	4285.37
668.459	4281.28
668.651	4256.7
668.842	4176.83
669.033	4162.5
669.224	4242.37
669.416	4307.9
669.607	4217.79
669.798	4246.46
669.989	4246.46
670.18	4236.22
670.371	4090.82
670.563	4160.45
670.754	4037.57
670.945	3941.32
671.136	4088.77
671.327	4070.34
671.518	3978.18
671.709	3916.74
671.9	4070.34
672.091	4000.71
672.282	3892.16
672.473	3935.17
672.664	3996.61
672.855	3791.81
673.046	3982.28
673.237	4021.19
673.428	3863.49
673.619	3935.17
673.809	3980.23
674	3683.27
674.191	3785.67
674.382	3687.37
674.573	3679.18
674.764	3619.78
674.954	3775.43
675.145	3658.7
675.336	3754.95
675.527	3683.27
675.717	3548.11
675.908	3632.07
676.099	3601.35
676.289	3603.4
676.48	3587.02
676.671	3478.47
676.861	3597.26
677.052	3515.34
677.243	3501
677.433	3488.71
677.624	3578.83
677.814	3441.61
678.005	3634.12
678.195	3537.87
678.386	3380.17
678.576	3474.38
678.767	3353.55
678.957	3451.85
679.148	3417.04
679.338	3501
679.529	3406.8
679.719	3371.98
679.909	3472.33
680.1	3357.64
680.29	3412.94
680.481	3404.75
680.671	3322.83
680.861	3343.31
681.052	3322.83
681.242	3369.93
681.432	3419.08
681.622	3242.96
681.813	3349.45
682.003	3261.39
682.193	3335.12
682.383	3269.58
682.573	3296.21
682.764	3197.9
682.954	3204.05
683.144	3322.83
683.334	3185.62
683.524	3283.92
683.714	3032.02
683.904	3199.95
684.094	3232.72
684.284	3111.89
684.474	3253.2
684.664	3064.79
684.854	3034.07
685.044	3136.46
685.234	3113.94
685.424	3152.85
685.614	2982.87
685.804	3052.5
685.994	3171.28
686.184	3034.07
686.374	3142.61
686.564	3060.69
686.753	3105.74
686.943	3050.45
687.133	2946
687.323	2989.01
687.513	3032.02
687.702	3027.92
687.892	3019.73
688.082	3032.02
688.272	2917.33
688.461	2849.75
688.651	2937.81
688.841	2843.6
689.03	2798.55
689.22	2935.76
689.41	2726.87
689.599	2917.33
689.789	2941.91
689.979	2808.79
690.168	2864.08
690.358	2755.54
690.547	2855.89
690.737	2831.32
690.926	2685.91
691.116	2636.76
691.305	2786.26
691.495	2823.12
691.684	2710.49
691.874	2675.67
692.063	2577.37
692.252	2671.58
692.442	2671.58
692.631	2735.06
692.82	2657.24
693.01	2626.52
693.199	2593.75
693.388	2593.75
693.578	2601.94
693.767	2614.23
693.956	2560.98
694.146	2548.7
694.335	2462.68
694.524	2589.66
694.713	2599.9
694.902	2565.08
695.092	2577.37
695.281	2491.35
695.47	2573.27
695.659	2589.66
695.848	2456.54
696.037	2485.21
696.226	2507.74
696.415	2520.03
696.604	2405.34
696.793	2462.68
696.982	2528.22
697.171	2495.45
697.36	2501.59
697.549	2563.03
697.738	2419.68
697.927	2540.51
698.116	2429.91
698.305	2395.1
698.494	2395.1
698.683	2544.6
698.872	2474.97
699.061	2511.83
699.25	2384.86
699.438	2436.06
699.627	2460.63
699.816	2343.9
700.005	2405.34
700.193	2503.64
700.382	2522.07
700.571	2368.48
700.76	2388.96
700.948	2405.34
701.137	2296.8
701.326	2520.03
701.514	2462.68
701.703	2458.59
701.892	2325.47
702.08	2452.44
702.269	2374.62
702.457	2489.31
702.646	2454.49
702.834	2483.16
703.023	2276.32
703.212	2505.69
703.4	2415.58
703.589	2458.59
703.777	2495.45
703.965	2417.63
704.154	2382.81
704.342	2296.8
704.531	2409.44
704.719	2407.39
704.907	2485.21
705.096	2442.2
705.284	2366.43
705.472	2522.07
705.661	2425.82
705.849	2515.93
706.037	2368.48
706.226	2407.39
706.414	2405.34
706.602	2368.48
706.79	2446.3
706.979	2493.4
707.167	2393.05
707.355	2401.24
707.543	2356.19
707.731	2341.85
707.919	2444.25
708.107	2368.48
708.296	2438.11
708.484	2286.56
708.672	2423.77
708.86	2362.33
709.048	2274.27
709.236	2259.93
709.424	2460.63
709.612	2401.24
709.8	2407.39
709.988	2395.1
710.176	2307.04
710.364	2462.68
710.551	2470.87
710.739	2362.33
710.927	2405.34
711.115	2442.2
711.303	2384.86
711.491	2364.38
711.679	2364.38
711.866	2270.17
712.054	2294.75
712.242	2411.48
712.43	2315.23
712.617	2214.88
712.805	2325.47
712.993	2282.46
713.181	2354.14
713.368	2372.57
713.556	2337.76
713.744	2270.17
713.931	2489.31
714.119	2419.68
714.306	2413.53
714.494	2434.01
714.682	2319.32
714.869	2454.49
715.057	2350.04
715.244	2323.42
715.432	2442.2
715.619	2436.06
715.807	2280.41
715.994	2278.37
716.182	2268.13
716.369	2335.71
716.556	2380.76
716.744	2399.2
716.931	2438.11
717.119	2362.33
717.306	2378.72
717.493	2288.61
717.681	2391
717.868	2382.81
718.055	2378.72
718.242	2376.67
718.43	2376.67
718.617	2376.67
718.804	2321.37
718.991	2325.47
719.179	2286.56
719.366	2395.1
719.553	2386.91
719.74	2329.56
719.927	2311.13
720.114	2364.38
720.301	2440.15
720.488	2292.7
720.676	2245.6
720.863	2300.89
721.05	2348
721.237	2317.28
721.424	2218.97
721.611	2300.89
721.798	2434.01
721.985	2241.5
722.172	2206.69
722.358	2335.71
722.545	2370.52
722.732	2216.93
722.919	2311.13
723.106	2384.86
723.293	2124.77
723.48	2364.38
723.667	2274.27
723.853	2290.65
724.04	2270.17
724.227	2335.71
724.414	2309.08
724.6	2329.56
724.787	2327.52
724.974	2350.04
725.161	2413.53
725.347	2296.8
725.534	2276.32
725.72	2272.22
725.907	2300.89
726.094	2348
726.28	2245.6
726.467	2290.65
726.653	2325.47
726.84	2247.65
727.027	2429.91
727.213	2175.97
727.4	2268.13
727.586	2278.37
727.773	2264.03
727.959	2270.17
728.145	2274.27
728.332	2251.74
728.518	2264.03
728.705	2249.69
728.891	2278.37
729.077	2216.93
729.264	2268.13
729.45	2253.79
729.636	2169.82
729.823	2304.99
730.009	2331.61
730.195	2282.46
730.382	2266.08
730.568	2294.75
730.754	2151.39
730.94	2360.28
731.126	2339.8
731.313	2126.82
731.499	2270.17
731.685	2307.04
731.871	2292.7
732.057	2284.51
732.243	2233.31
732.429	2343.9
732.615	2259.93
732.801	2229.21
732.987	2237.41
733.173	2274.27
733.359	2276.32
733.545	2341.85
733.731	2196.45
733.917	2208.73
734.103	2208.73
734.289	2243.55
734.475	2214.88
734.661	2272.22
734.847	2239.45
735.033	2292.7
735.219	2204.64
735.404	2139.1
735.59	2274.27
735.776	2184.16
735.962	2309.08
736.148	2210.78
736.333	2323.42
736.519	2317.28
736.705	2370.52
736.89	2354.14
737.076	2233.31
737.262	2200.54
737.447	2284.51
737.633	2044.9
737.819	2116.58
738.004	2163.68
738.19	2173.92
738.375	2229.21
738.561	2278.37
738.747	2171.87
738.932	2210.78
739.118	2145.25
739.303	2096.1
739.489	2147.3
739.674	2085.86
739.859	2108.38
740.045	2114.53
740.23	2069.47
740.416	2210.78
740.601	2003.94
740.786	2151.39
740.972	1977.31
741.157	2098.14
741.342	1987.55
741.528	2032.61
741.713	2036.7
741.898	2114.53
742.084	2089.95
742.269	2020.32
742.454	1973.22
742.639	2061.28
742.824	2143.2
743.01	2061.28
743.195	2005.99
743.38	2001.89
743.565	2022.37
743.75	2026.47
743.935	2042.85
744.12	2018.27
744.305	1915.87
744.49	1971.17
744.675	1915.87
744.86	1934.31
745.045	1944.55
745.23	2010.08
745.415	1960.93
745.6	1969.12
745.785	1758.18
745.97	1889.25
746.155	1985.51
746.34	1973.22
746.525	1819.62
746.71	1854.44
746.895	1893.35
747.079	1805.28
747.264	1838.05
747.449	1911.78
747.634	1801.19
747.819	1893.35
748.003	1768.42
748.188	1729.51
748.373	1657.83
748.557	1760.23
748.742	1817.57
748.927	1772.52
749.111	1772.52
749.296	1733.61
749.481	1727.46
749.665	1821.67
749.85	1719.27
750.034	1653.73
750.219	1659.88
750.404	1666.02
750.588	1584.1
750.773	1610.73
750.957	1696.74
751.141	1590.25
751.326	1686.5
751.51	1643.49
751.695	1663.97
751.879	1620.97
752.064	1588.2
752.248	1643.49
752.432	1592.3
752.617	1557.48
752.801	1489.9
752.985	1580.01
753.17	1532.9
753.354	1461.23
753.538	1530.86
753.722	1418.22
753.907	1436.65
754.091	1491.95
754.275	1422.31
754.459	1348.59
754.643	1336.3
754.828	1440.75
755.012	1405.93
755.196	1340.4
755.38	1356.78
755.564	1412.07
755.748	1340.4
755.932	1424.36
756.116	1307.63
756.3	1311.72
756.484	1291.24
756.668	1278.96
756.852	1315.82
757.036	1274.86
757.22	1293.29
757.404	1260.52
757.588	1297.39
757.772	1174.51
757.956	1313.77
758.14	1231.85
758.323	1233.9
758.507	1264.62
758.691	1145.84
758.875	1221.61
759.059	1305.58
759.242	1174.51
759.426	1113.07
759.61	1166.32
759.794	1117.17
759.977	1147.89
760.161	1192.94
760.345	1154.03
760.528	1088.5
760.712	1199.09
760.895	1098.74
761.079	1158.13
761.263	1182.7
761.446	1135.6
761.63	1078.26
761.813	1211.37
761.997	1045.49
762.18	1025.01
762.364	1121.26
762.547	1131.5
762.731	1037.3
762.914	1139.69
763.098	1018.86
763.281	1061.87
763.464	1037.3
763.648	994.29
763.831	1086.45
764.015	984.05
764.198	1057.78
764.381	1104.88
764.564	1045.49
764.748	1014.77
764.931	1006.58
765.114	938.99
765.297	992.24
765.481	934.9
765.664	959.47
765.847	957.43
766.03	938.99
766.213	941.04
766.397	936.95
766.58	1088.5
766.763	1004.53
766.946	910.32
767.129	984.05
767.312	951.28
767.495	908.27
767.678	902.13
767.861	1039.34
768.044	982
768.227	920.56
768.41	943.09
768.593	947.19
768.776	965.62
768.959	883.7
769.142	965.62
769.324	902.13
769.507	904.18
769.69	941.04
769.873	885.75
770.056	920.56
770.239	926.71
770.421	938.99
770.604	889.84
770.787	887.79
770.97	852.98
771.152	875.51
771.335	852.98
771.518	1012.72
771.7	826.36
771.883	906.23
772.066	910.32
772.248	922.61
772.431	824.31
772.613	687.09
772.796	812.02
772.978	834.55
773.161	902.13
773.343	934.9
773.526	711.67
773.708	846.84
773.891	744.44
774.073	816.12
774.256	709.62
774.438	773.11
774.621	766.96
774.803	758.77
774.985	672.76
775.168	828.4
775.35	730.1
775.532	797.68
775.715	769.01
775.897	805.88
776.079	713.72
776.261	678.9
776.444	726
776.626	707.57
776.808	758.77
776.99	703.48
777.173	769.01
777.355	736.24
777.537	685.05
777.719	666.61
777.901	697.33
778.083	658.42
778.265	588.79
778.447	689.14
778.629	717.81
778.811	644.09
778.993	654.33
779.175	652.28
779.357	642.04
779.539	662.52
779.721	617.46
779.903	693.24
780.085	574.46
780.267	609.27
780.449	629.75
780.631	654.33
780.812	613.37
780.994	584.7
781.176	566.26
781.358	695.29
781.54	558.07
781.721	515.06
781.903	531.45
782.085	560.12
782.267	631.8
782.448	553.98
782.63	545.78
782.812	545.78
782.993	576.5
783.175	533.5
783.357	486.39
783.538	369.66
783.72	500.73
783.901	467.96
784.083	492.54
784.264	476.15
784.446	486.39
784.627	459.77
784.809	443.39
784.99	467.96
785.172	566.26
785.353	472.06
785.535	496.63
785.716	502.78
785.897	437.24
786.079	541.69
786.26	437.24
786.441	498.68
786.623	414.71
786.804	433.15
786.985	431.1
787.167	427
787.348	400.38
787.529	390.14
787.71	357.37
787.891	379.9
788.073	402.43
788.254	480.25
788.435	396.28
788.616	422.91
788.797	402.43
788.978	379.9
789.159	343.03
789.34	302.08
789.522	367.61
789.703	377.85
789.884	369.66
790.065	375.8
790.246	394.23
790.427	322.56
790.607	457.72
790.788	394.23
790.969	396.28
791.15	353.27
791.331	332.79
791.512	381.95
791.693	336.89
791.874	345.08
792.054	400.38
792.235	402.43
792.416	363.51
792.597	351.23
792.778	353.27
792.958	437.24
793.139	330.75
793.32	336.89
793.5	347.13
793.681	396.28
793.862	343.03
794.042	379.9
794.223	324.6
794.404	392.19
794.584	293.88
794.765	359.42
794.945	238.59
795.126	334.84
795.306	336.89
795.487	355.32
795.667	388.09
795.848	320.51
796.028	267.26
796.209	263.16
796.389	365.56
796.57	285.69
796.75	259.07
796.93	250.88
797.111	314.36
797.291	275.45
797.471	263.16
797.652	324.6
797.832	273.4
798.012	259.07
798.192	269.31
798.373	275.45
798.553	238.59
798.733	314.36
798.913	209.92
799.093	283.64
799.274	291.84
799.454	254.97
799.634	238.59
799.814	271.36
799.994	214.01
800.174	187.39
800.354	263.16
800.534	171.01
800.714	291.84
800.894	242.68
801.074	134.14
801.254	263.16
801.434	248.83
801.614	306.17
801.794	222.2
801.974	607.22
802.154	220.16
802.334	250.88
802.514	173.05
802.693	222.2
802.873	244.73
803.053	250.88
803.233	234.49
803.413	166.91
803.592	214.01
803.772	234.49
803.952	222.2
804.131	232.44
804.311	148.48
804.491	318.46
804.67	265.21
804.85	177.15
805.03	279.55
805.209	234.49
805.389	228.35
805.568	257.02
805.748	234.49
805.928	246.78
806.107	132.09
806.287	265.21
806.466	173.05
806.646	205.82
806.825	205.82
807.004	197.63
807.184	234.49
807.363	205.82
807.543	199.68
807.722	152.57
807.901	228.35
808.081	177.15
808.26	189.44
808.439	201.72
808.619	254.97
808.798	158.72
808.977	228.35
809.156	220.16
809.336	173.05
809.515	136.19
809.694	197.63
809.873	142.33
810.052	205.82
810.231	261.12
810.411	142.33
810.59	267.26
810.769	138.24
810.948	136.19
811.127	226.3
811.306	183.29
811.485	113.66
811.664	177.15
811.843	187.39
812.022	181.25
812.201	224.25
812.38	189.44
812.559	168.96
812.737	140.29
812.916	152.57
813.095	93.18
813.274	203.77
813.453	168.96
813.632	193.53
813.811	121.85
813.989	142.33
814.168	189.44
814.347	72.7
814.526	179.2
814.704	158.72
814.883	148.48
815.062	89.09
815.24	123.9
815.419	109.57
815.598	197.63
815.776	123.9
815.955	72.7
816.133	103.42
816.312	162.81
816.49	111.61
816.669	136.19
816.847	146.43
817.026	132.09
817.204	91.13
817.383	97.28
817.561	111.61
817.74	97.28
817.918	115.71
818.097	142.33
818.275	193.53
818.453	140.29
818.632	107.52
818.81	97.28
818.988	62.46
819.167	134.14
819.345	197.63
819.523	89.09
819.701	66.56
819.879	128
820.058	66.56
820.236	134.14
820.414	78.85
820.592	115.71
820.77	211.96
820.948	76.8
821.127	101.37
821.305	74.75
821.483	76.8
821.661	101.37
821.839	89.09
822.017	105.47
822.195	146.43
822.373	134.14
822.551	70.65
822.729	132.09
822.907	89.09
823.085	99.33
823.262	171.01
823.44	193.53
823.618	115.71
823.796	48.13
823.974	123.9
824.152	113.66
824.329	82.94
824.507	107.52
824.685	70.65
824.863	109.57
825.04	62.46
825.218	123.9
825.396	144.38
825.574	93.18
825.751	144.38
825.929	37.89
826.107	111.61
826.284	33.79
826.462	62.46
826.639	54.27
826.817	68.61
826.994	99.33
827.172	80.89
827.349	29.7
827.527	33.79
827.704	111.61
827.882	48.13
828.059	87.04
828.237	119.81
828.414	82.94
828.591	62.46
828.769	-13.31
828.946	74.75
829.124	84.99
829.301	146.43
829.478	78.85
829.655	29.7
829.833	82.94
830.01	109.57
830.187	117.76
830.364	60.42
830.542	52.22
830.719	25.6
830.896	87.04
831.073	101.37
831.25	50.18
831.427	17.41
831.604	109.57
831.782	66.56
831.959	33.79
832.136	78.85
832.313	101.37
832.49	66.56
832.667	-1.02
832.844	62.46
833.021	103.42
833.198	31.74
833.374	-3.07
833.551	80.89
833.728	46.08
833.905	60.42
834.082	107.52
834.259	140.29
834.436	113.66
834.612	17.41
834.789	68.61
834.966	89.09
835.143	93.18
835.319	21.5
835.496	41.98
835.673	-15.36
835.85	99.33
836.026	95.23
836.203	89.09
836.38	-13.31
836.556	132.09
836.733	50.18
836.909	89.09
837.086	21.5
837.262	56.32
837.439	74.75
837.616	72.7
837.792	-33.79
837.968	31.74
838.145	121.85
838.321	37.89
838.498	76.8
838.674	152.57
838.851	25.6
839.027	5.12
839.203	15.36
839.38	134.14
839.556	15.36
839.732	105.47
839.909	64.51
840.085	123.9
840.261	41.98
840.437	-21.5
840.614	11.26
840.79	72.7
840.966	62.46
841.142	64.51
841.318	3.07
841.494	46.08
841.671	-48.13
841.847	5.12
842.023	99.33
842.199	99.33
842.375	33.79
842.551	1.02
842.727	48.13
842.903	39.94
843.079	23.55
843.255	50.18
843.431	31.74
843.607	13.31
843.783	62.46
843.959	33.79
844.134	58.37
844.31	56.32
844.486	31.74
844.662	78.85
844.838	19.46
845.013	68.61
845.189	48.13
845.365	64.51
845.541	5.12
845.716	25.6
845.892	15.36
846.068	82.94
846.244	46.08
846.419	13.31
846.595	21.5
846.77	58.37
846.946	3.07
847.122	-27.65
847.297	37.89
847.473	111.61
847.648	13.31
847.824	72.7
847.999	64.51
848.175	70.65
848.35	1.02
848.526	89.09
848.701	72.7
848.876	-3.07
849.052	11.26
849.227	25.6
849.403	-5.12
849.578	52.22
849.753	74.75
849.929	23.55
850.104	-72.7
850.279	5.12
850.454	-11.26
850.63	23.55
850.805	52.22
850.98	74.75
851.155	-1.02
851.33	33.79
851.505	-21.5
851.681	56.32
851.856	25.6
852.031	15.36
852.206	46.08
852.381	-25.6
852.556	62.46
852.731	-29.7
852.906	58.37
853.081	66.56
853.256	17.41
853.431	29.7
853.606	5.12
853.781	23.55
853.956	66.56
854.131	105.47
854.305	-3.07
854.48	-9.22
854.655	64.51
854.83	-68.61
855.005	37.89
855.18	56.32
855.354	-1.02
855.529	41.98
855.704	80.89
855.879	68.61
856.053	-19.46
856.228	84.99
856.403	78.85
856.577	103.42
856.752	-60.42
856.926	-23.55
857.101	-56.32
857.276	11.26
857.45	-9.22
857.625	-19.46
857.799	1.02
857.974	35.84
858.148	56.32
858.323	80.89
858.497	70.65
858.672	-41.98
858.846	-27.65
859.02	7.17
859.195	5.12
859.369	-15.36
859.543	-105.47
859.718	21.5
859.892	-39.94
860.066	11.26
860.241	60.42
860.415	11.26
860.589	-23.55
860.763	52.22
860.938	17.41
861.112	33.79
861.286	-35.84
861.46	1.02
861.634	17.41
861.808	50.18
861.982	66.56
862.157	7.17
862.331	60.42
862.505	-37.89
862.679	13.31
862.853	-39.94
863.027	44.03
863.201	-56.32
863.375	-68.61
863.549	3.07
863.722	74.75
863.896	3.07
864.07	-93.18
864.244	48.13
864.418	39.94
864.592	82.94
864.766	-66.56
864.939	46.08
865.113	15.36
865.287	35.84
865.461	-13.31
865.634	25.6
865.808	-3.07
865.982	23.55
866.156	-1.02
866.329	-41.98
866.503	-60.42
866.676	-7.17
866.85	21.5
867.024	-37.89
867.197	-35.84
867.371	68.61
867.544	17.41
867.718	46.08
867.891	-117.76
868.065	9.22
868.238	25.6
868.412	68.61
868.585	25.6
868.759	37.89
868.932	9.22
869.105	37.89
869.279	25.6
869.452	-23.55
869.625	23.55
869.799	60.42
869.972	9.22
870.145	-5.12
870.319	29.7
870.492	54.27
870.665	-21.5
870.838	50.18
871.011	-97.28
871.185	31.74
871.358	54.27
871.531	19.46
871.704	-23.55
871.877	-56.32
872.05	107.52
872.223	9.22
872.396	41.98
872.569	39.94
872.742	-11.26
872.915	-23.55
873.088	-31.74
873.261	-54.27
873.434	1.02
873.607	9.22
873.78	27.65
873.953	-17.41
874.126	-19.46
874.299	17.41
874.471	-41.98
874.644	-5.12
874.817	-62.46
874.99	39.94
875.163	39.94
875.335	-46.08
875.508	3.07
875.681	17.41
875.853	-1.02
876.026	19.46
876.199	41.98
876.371	-7.17
876.544	-31.74
876.717	84.99
876.889	-64.51
877.062	62.46
877.234	35.84
877.407	-23.55
877.579	-11.26
877.752	-7.17
877.924	17.41
878.097	35.84
878.269	-31.74
878.442	-3.07
878.614	52.22
878.786	82.94
878.959	3.07
879.131	3.07
879.303	-27.65
879.476	-3.07
879.648	48.13
879.82	68.61
879.993	9.22
880.165	-1.02
880.337	-60.42
880.509	-3.07
880.681	-5.12
880.854	-31.74
881.026	1.02
881.198	7.17
881.37	-44.03
881.542	-1.02
881.714	37.89
881.886	-25.6
882.058	31.74
882.23	-52.22
882.402	1.02
882.574	17.41
882.746	-11.26
882.918	64.51
883.09	-66.56
883.262	-41.98
883.434	-48.13
883.606	72.7
883.778	33.79
883.95	54.27
884.122	-35.84
884.293	-29.7
884.465	-56.32
884.637	78.85
884.809	-80.89
884.98	17.41
885.152	-15.36
885.324	-15.36
885.496	54.27
885.667	-48.13
885.839	-13.31
886.011	66.56
886.182	31.74
886.354	78.85
886.525	-7.17
886.697	29.7
886.869	-23.55
887.04	-11.26
887.212	-15.36
887.383	54.27
887.555	3.07
887.726	11.26
887.897	-7.17
888.069	9.22
888.24	-25.6
888.412	-5.12
888.583	-68.61
888.754	3.07
888.926	-1.02
889.097	-109.57
889.268	17.41
889.44	1.02
889.611	-105.47
889.782	-82.94
889.953	-31.74
890.125	74.75
890.296	15.36
890.467	9.22
890.638	19.46
890.809	-7.17
890.98	3.07
891.151	39.94
891.323	33.79
891.494	-7.17
891.665	-54.27
891.836	-19.46
892.007	3.07
892.178	21.5
892.349	64.51
892.52	-29.7
892.691	-138.24
892.862	11.26
893.032	-48.13
893.203	87.04
893.374	-33.79
893.545	-7.17
893.716	7.17
893.887	39.94
894.057	-7.17
894.228	1.02
894.399	-11.26
894.57	-17.41
894.74	-7.17
894.911	-11.26
895.082	-50.18
895.253	-3.07
895.423	21.5
895.594	17.41
895.764	7.17
895.935	-70.65
896.106	15.36
896.276	31.74
896.447	-1.02
896.617	-25.6
896.788	27.65
896.958	-72.7
897.129	17.41
897.299	25.6
897.47	-3.07
897.64	-3.07
897.81	-11.26
897.981	-52.22
898.151	-5.12
898.322	-9.22
898.492	7.17
898.662	-39.94
898.832	-19.46
899.003	-9.22
899.173	74.75
899.343	-23.55
899.513	-54.27
