Data from USB4F104151__54__11-05-44-208.txt Node

Date: Wed Mar 12 11:05:44 EDT 2025
User: louis
Spectrometer: USB4F10415
Trigger mode: 4
Integration Time (sec): 2.000000E-2
Scans to average: 1
Electric dark correction enabled: true
Nonlinearity correction enabled: false
Boxcar width: 0
XAxis mode: Wavelengths
Number of Pixels in Spectrum: 3648
>>>>>Begin Spectral Data<<<<<
178.204	5.29
178.424	5.29
178.644	5.29
178.864	-72.53
179.084	-74.58
179.304	29.87
179.524	52.39
179.744	27.82
179.964	19.63
180.184	-17.24
180.404	58.54
180.624	-11.09
180.844	-29.52
181.064	-43.86
181.283	-39.76
181.503	-121.68
181.723	74.92
181.943	56.49
182.163	3.24
182.383	1.19
182.602	15.53
182.822	-13.14
183.042	7.34
183.262	68.78
183.482	29.87
183.701	36.01
183.921	19.63
184.141	7.34
184.361	3.24
184.58	23.72
184.8	52.39
185.02	31.91
185.239	13.48
185.459	70.83
185.679	-9.05
185.898	29.87
186.118	29.87
186.338	-60.24
186.557	42.15
186.777	19.63
186.997	74.92
187.216	-41.81
187.436	13.48
187.655	56.49
187.875	42.15
188.095	15.53
188.314	70.83
188.534	64.68
188.753	-9.05
188.973	111.78
189.192	56.49
189.412	44.2
189.631	-31.57
189.851	42.15
190.07	42.15
190.29	105.64
190.509	33.96
190.729	62.63
190.948	66.73
191.168	60.59
191.387	19.63
191.607	11.43
191.826	124.07
192.045	19.63
192.265	72.87
192.484	56.49
192.704	13.48
192.923	29.87
193.142	5.29
193.362	46.25
193.581	62.63
193.8	15.53
194.02	21.67
194.239	19.63
194.458	62.63
194.678	68.78
194.897	-70.48
195.116	50.35
195.335	36.01
195.555	27.82
195.774	11.43
195.993	40.11
196.212	56.49
196.432	13.48
196.651	66.73
196.87	-35.67
197.089	89.26
197.308	76.97
197.528	68.78
197.747	-2.9
197.966	44.2
198.185	21.67
198.404	48.3
198.623	15.53
198.842	23.72
199.062	-25.43
199.281	68.78
199.5	-15.19
199.719	-60.24
199.938	13.48
200.157	40.11
200.376	40.11
200.595	-19.29
200.814	33.96
201.033	27.82
201.252	56.49
201.471	74.92
201.69	23.72
201.909	23.72
202.128	79.02
202.347	23.72
202.566	-43.86
202.785	-60.24
203.004	74.92
203.223	48.3
203.442	44.2
203.661	-31.57
203.879	66.73
204.098	38.06
204.317	15.53
204.536	115.88
204.755	-39.76
204.974	81.07
205.193	40.11
205.411	29.87
205.63	21.67
205.849	27.82
206.068	52.39
206.287	-64.34
206.505	-4.95
206.724	-7
206.943	-15.19
207.162	23.72
207.381	25.77
207.599	-9.05
207.818	33.96
208.037	68.78
208.255	56.49
208.474	-43.86
208.693	27.82
208.911	9.39
209.13	66.73
209.349	50.35
209.567	1.19
209.786	-0.85
210.005	56.49
210.223	-2.9
210.442	-19.29
210.661	25.77
210.879	50.35
211.098	1.19
211.316	60.59
211.535	9.39
211.753	42.15
211.972	64.68
212.191	-37.72
212.409	50.35
212.628	21.67
212.846	15.53
213.065	54.44
213.283	31.91
213.502	-19.29
213.72	5.29
213.938	79.02
214.157	19.63
214.375	-31.57
214.594	3.24
214.812	-43.86
215.031	91.31
215.249	19.63
215.467	85.16
215.686	17.58
215.904	-7
216.122	-33.62
216.341	9.39
216.559	31.91
216.778	27.82
216.996	56.49
217.214	42.15
217.432	91.31
217.651	58.54
217.869	-0.85
218.087	-7
218.306	44.2
218.524	1.19
218.742	-19.29
218.96	36.01
219.179	-17.24
219.397	25.77
219.615	38.06
219.833	17.58
220.051	-50
220.27	27.82
220.488	29.87
220.706	36.01
220.924	-25.43
221.142	25.77
221.36	-52.05
221.578	58.54
221.796	-7
222.015	-33.62
222.233	1.19
222.451	58.54
222.669	89.26
222.887	-0.85
223.105	-15.19
223.323	-21.33
223.541	17.58
223.759	99.5
223.977	42.15
224.195	54.44
224.413	33.96
224.631	42.15
224.849	38.06
225.067	7.34
225.285	60.59
225.503	15.53
225.721	-29.52
225.939	81.07
226.157	1.19
226.375	85.16
226.592	52.39
226.81	25.77
227.028	66.73
227.246	60.59
227.464	76.97
227.682	-19.29
227.9	79.02
228.117	76.97
228.335	76.97
228.553	64.68
228.771	29.87
228.989	97.45
229.206	-23.38
229.424	38.06
229.642	-0.85
229.86	64.68
230.077	31.91
230.295	64.68
230.513	62.63
230.731	-27.48
230.948	95.4
231.166	72.87
231.384	13.48
231.601	-4.95
231.819	7.34
232.037	-45.91
232.254	-7
232.472	11.43
232.689	-29.52
232.907	33.96
233.125	7.34
233.342	44.2
233.56	15.53
233.777	-43.86
233.995	79.02
234.213	25.77
234.43	124.07
234.648	15.53
234.865	-47.96
235.083	44.2
235.3	27.82
235.518	64.68
235.735	-2.9
235.953	81.07
236.17	19.63
236.388	31.91
236.605	21.67
236.822	66.73
237.04	58.54
237.257	54.44
237.475	46.25
237.692	-15.19
237.909	36.01
238.127	-25.43
238.344	58.54
238.562	-15.19
238.779	-31.57
238.996	52.39
239.214	50.35
239.431	46.25
239.648	-66.39
239.865	62.63
240.083	66.73
240.3	31.91
240.517	70.83
240.735	-9.05
240.952	60.59
241.169	25.77
241.386	46.25
241.603	50.35
241.821	36.01
242.038	83.11
242.255	-33.62
242.472	-9.05
242.689	79.02
242.907	23.72
243.124	3.24
243.341	79.02
243.558	7.34
243.775	33.96
243.992	-7
244.209	-21.33
244.426	40.11
244.643	13.48
244.86	-54.1
245.078	1.19
245.295	79.02
245.512	74.92
245.729	-33.62
245.946	-2.9
246.163	21.67
246.38	-33.62
246.597	70.83
246.814	-2.9
247.031	-2.9
247.248	-11.09
247.464	29.87
247.681	19.63
247.898	17.58
248.115	7.34
248.332	33.96
248.549	79.02
248.766	33.96
248.983	50.35
249.2	72.87
249.417	44.2
249.633	46.25
249.85	17.58
250.067	27.82
250.284	56.49
250.501	38.06
250.717	27.82
250.934	-17.24
251.151	19.63
251.368	25.77
251.585	-35.67
251.801	3.24
252.018	38.06
252.235	1.19
252.451	-13.14
252.668	50.35
252.885	27.82
253.102	19.63
253.318	87.21
253.535	60.59
253.752	52.39
253.968	-13.14
254.185	-15.19
254.401	11.43
254.618	97.45
254.835	66.73
255.051	72.87
255.268	17.58
255.484	29.87
255.701	13.48
255.917	36.01
256.134	13.48
256.351	97.45
256.567	42.15
256.784	5.29
257	-15.19
257.217	36.01
257.433	7.34
257.65	42.15
257.866	81.07
258.082	36.01
258.299	7.34
258.515	17.58
258.732	46.25
258.948	13.48
259.165	144.55
259.381	-15.19
259.597	11.43
259.814	109.74
260.03	42.15
260.246	9.39
260.463	9.39
260.679	42.15
260.895	74.92
261.112	1.19
261.328	25.77
261.544	-7
261.761	60.59
261.977	46.25
262.193	36.01
262.409	-35.67
262.626	42.15
262.842	68.78
263.058	1.19
263.274	87.21
263.49	-35.67
263.707	-13.14
263.923	-27.48
264.139	-7
264.355	21.67
264.571	11.43
264.787	7.34
265.004	-31.57
265.22	5.29
265.436	68.78
265.652	-15.19
265.868	-11.09
266.084	3.24
266.3	40.11
266.516	-0.85
266.732	56.49
266.948	7.34
267.164	42.15
267.38	15.53
267.596	111.78
267.812	33.96
268.028	-25.43
268.244	1.19
268.46	68.78
268.676	56.49
268.892	7.34
269.108	74.92
269.324	64.68
269.54	-45.91
269.756	7.34
269.972	-21.33
270.188	70.83
270.403	66.73
270.619	64.68
270.835	60.59
271.051	46.25
271.267	-19.29
271.483	-2.9
271.698	56.49
271.914	66.73
272.13	44.2
272.346	-35.67
272.562	68.78
272.777	27.82
272.993	54.44
273.209	93.35
273.425	23.72
273.64	136.36
273.856	38.06
274.072	9.39
274.287	5.29
274.503	15.53
274.719	9.39
274.934	56.49
275.15	33.96
275.366	-2.9
275.581	9.39
275.797	-13.14
276.012	70.83
276.228	36.01
276.444	-31.57
276.659	48.3
276.875	9.39
277.09	-0.85
277.306	40.11
277.521	23.72
277.737	-15.19
277.952	81.07
278.168	17.58
278.383	1.19
278.599	-4.95
278.814	70.83
279.03	83.11
279.245	42.15
279.461	15.53
279.676	33.96
279.892	56.49
280.107	62.63
280.322	17.58
280.538	124.07
280.753	31.91
280.969	91.31
281.184	-2.9
281.399	79.02
281.615	-37.72
281.83	-19.29
282.045	25.77
282.26	-2.9
282.476	-11.09
282.691	72.87
282.906	58.54
283.122	79.02
283.337	42.15
283.552	1.19
283.767	-39.76
283.983	36.01
284.198	11.43
284.413	38.06
284.628	3.24
284.843	36.01
285.058	56.49
285.274	29.87
285.489	62.63
285.704	56.49
285.919	27.82
286.134	52.39
286.349	1.19
286.564	-13.14
286.779	17.58
286.995	40.11
287.21	-15.19
287.425	126.12
287.64	15.53
287.855	70.83
288.07	5.29
288.285	66.73
288.5	33.96
288.715	64.68
288.93	42.15
289.145	-9.05
289.36	42.15
289.575	66.73
289.79	11.43
290.004	13.48
290.219	-66.39
290.434	19.63
290.649	-66.39
290.864	66.73
291.079	25.77
291.294	66.73
291.509	-86.87
291.724	11.43
291.938	-7
292.153	42.15
292.368	44.2
292.583	31.91
292.798	33.96
293.012	58.54
293.227	-27.48
293.442	13.48
293.657	68.78
293.871	36.01
294.086	-2.9
294.301	103.59
294.516	126.12
294.73	5.29
294.945	-4.95
295.16	64.68
295.374	97.45
295.589	74.92
295.804	19.63
296.018	-74.58
296.233	13.48
296.447	38.06
296.662	33.96
296.877	17.58
297.091	79.02
297.306	17.58
297.52	136.36
297.735	-25.43
297.949	136.36
298.164	40.11
298.378	11.43
298.593	-13.14
298.807	40.11
299.022	1.19
299.236	46.25
299.451	31.91
299.665	13.48
299.88	93.35
300.094	1.19
300.309	-41.81
300.523	50.35
300.737	91.31
300.952	79.02
301.166	58.54
301.381	21.67
301.595	19.63
301.809	23.72
302.024	1.19
302.238	-7
302.452	91.31
302.667	-7
302.881	52.39
303.095	7.34
303.309	36.01
303.524	31.91
303.738	44.2
303.952	72.87
304.166	91.31
304.381	46.25
304.595	72.87
304.809	54.44
305.023	87.21
305.237	31.91
305.452	-17.24
305.666	64.68
305.88	23.72
306.094	36.01
306.308	103.59
306.522	-17.24
306.736	103.59
306.95	167.08
307.164	85.16
307.379	29.87
307.593	109.74
307.807	58.54
308.021	13.48
308.235	-11.09
308.449	-2.9
308.663	46.25
308.877	103.59
309.091	-62.29
309.305	3.24
309.519	-37.72
309.733	-13.14
309.947	87.21
310.161	36.01
310.374	76.97
310.588	1.19
310.802	33.96
311.016	46.25
311.23	40.11
311.444	-25.43
311.658	111.78
311.872	5.29
312.085	95.4
312.299	91.31
312.513	50.35
312.727	64.68
312.941	17.58
313.154	91.31
313.368	44.2
313.582	91.31
313.796	76.97
314.009	128.17
314.223	44.2
314.437	36.01
314.651	-23.38
314.864	95.4
315.078	50.35
315.292	3.24
315.505	83.11
315.719	83.11
315.933	64.68
316.146	58.54
316.36	29.87
316.573	103.59
316.787	62.63
317.001	-19.29
317.214	107.69
317.428	5.29
317.641	-9.05
317.855	111.78
318.068	74.92
318.282	83.11
318.495	64.68
318.709	27.82
318.922	15.53
319.136	62.63
319.349	62.63
319.563	60.59
319.776	-11.09
319.99	15.53
320.203	31.91
320.417	-27.48
320.63	-25.43
320.843	-31.57
321.057	-11.09
321.27	52.39
321.483	103.59
321.697	44.2
321.91	64.68
322.124	25.77
322.337	68.78
322.55	-7
322.763	70.83
322.977	42.15
323.19	1.19
323.403	60.59
323.617	93.35
323.83	79.02
324.043	17.58
324.256	54.44
324.469	-39.76
324.683	29.87
324.896	23.72
325.109	48.3
325.322	9.39
325.535	1.19
325.748	74.92
325.962	66.73
326.175	19.63
326.388	111.78
326.601	-2.9
326.814	132.26
327.027	9.39
327.24	89.26
327.453	58.54
327.666	60.59
327.879	38.06
328.092	-15.19
328.305	40.11
328.518	64.68
328.731	-37.72
328.944	-0.85
329.157	1.19
329.37	40.11
329.583	68.78
329.796	58.54
330.009	-45.91
330.222	115.88
330.435	25.77
330.648	-4.95
330.861	38.06
331.073	62.63
331.286	33.96
331.499	21.67
331.712	-7
331.925	56.49
332.138	66.73
332.35	128.17
332.563	44.2
332.776	68.78
332.989	-19.29
333.202	5.29
333.414	9.39
333.627	79.02
333.84	-31.57
334.053	38.06
334.265	36.01
334.478	56.49
334.691	56.49
334.903	33.96
335.116	103.59
335.329	46.25
335.541	-17.24
335.754	50.35
335.966	29.87
336.179	107.69
336.392	48.3
336.604	46.25
336.817	38.06
337.029	38.06
337.242	-15.19
337.454	31.91
337.667	11.43
337.88	31.91
338.092	44.2
338.305	85.16
338.517	46.25
338.729	87.21
338.942	40.11
339.154	109.74
339.367	-43.86
339.579	89.26
339.792	-23.38
340.004	11.43
340.217	-0.85
340.429	-19.29
340.641	7.34
340.854	60.59
341.066	-13.14
341.278	-17.24
341.491	74.92
341.703	7.34
341.915	62.63
342.128	-2.9
342.34	-21.33
342.552	40.11
342.764	60.59
342.977	27.82
343.189	27.82
343.401	-23.38
343.613	-7
343.826	79.02
344.038	76.97
344.25	50.35
344.462	11.43
344.674	1.19
344.886	5.29
345.099	33.96
345.311	25.77
345.523	27.82
345.735	42.15
345.947	36.01
346.159	89.26
346.371	27.82
346.583	-2.9
346.795	70.83
347.007	25.77
347.219	5.29
347.431	-7
347.643	83.11
347.855	-23.38
348.067	72.87
348.279	-7
348.491	64.68
348.703	48.3
348.915	76.97
349.127	56.49
349.339	1.19
349.551	1.19
349.763	27.82
349.975	11.43
350.187	154.79
350.399	87.21
350.61	62.63
350.822	-19.29
351.034	64.68
351.246	-11.09
351.458	64.68
351.669	29.87
351.881	5.29
352.093	72.87
352.305	91.31
352.517	-19.29
352.728	66.73
352.94	5.29
353.152	42.15
353.363	-15.19
353.575	79.02
353.787	79.02
353.999	38.06
354.21	101.55
354.422	66.73
354.633	64.68
354.845	13.48
355.057	38.06
355.268	46.25
355.48	66.73
355.692	70.83
355.903	31.91
356.115	5.29
356.326	85.16
356.538	64.68
356.749	81.07
356.961	62.63
357.172	91.31
357.384	74.92
357.595	109.74
357.807	-2.9
358.018	93.35
358.23	-47.96
358.441	60.59
358.653	-13.14
358.864	13.48
359.075	40.11
359.287	9.39
359.498	101.55
359.709	122.02
359.921	23.72
360.132	9.39
360.344	70.83
360.555	40.11
360.766	91.31
360.977	87.21
361.189	11.43
361.4	21.67
361.611	83.11
361.823	23.72
362.034	64.68
362.245	7.34
362.456	76.97
362.667	76.97
362.879	46.25
363.09	81.07
363.301	97.45
363.512	31.91
363.723	46.25
363.935	15.53
364.146	87.21
364.357	3.24
364.568	46.25
364.779	31.91
364.99	68.78
365.201	21.67
365.412	50.35
365.623	25.77
365.834	81.07
366.045	23.72
366.256	64.68
366.467	54.44
366.678	31.91
366.889	13.48
367.1	99.5
367.311	33.96
367.522	-2.9
367.733	117.93
367.944	5.29
368.155	33.96
368.366	72.87
368.577	21.67
368.788	25.77
368.999	31.91
369.209	56.49
369.42	33.96
369.631	76.97
369.842	64.68
370.053	25.77
370.264	23.72
370.474	99.5
370.685	40.11
370.896	130.22
371.107	87.21
371.317	72.87
371.528	15.53
371.739	58.54
371.95	42.15
372.16	33.96
372.371	29.87
372.582	115.88
372.792	64.68
373.003	5.29
373.214	-62.29
373.424	111.78
373.635	46.25
373.846	119.98
374.056	21.67
374.267	117.93
374.477	-33.62
374.688	25.77
374.898	38.06
375.109	113.83
375.319	-15.19
375.53	72.87
375.74	42.15
375.951	83.11
376.161	5.29
376.372	60.59
376.582	66.73
376.793	50.35
377.003	9.39
377.214	-2.9
377.424	40.11
377.635	66.73
377.845	58.54
378.055	95.4
378.266	-2.9
378.476	72.87
378.686	124.07
378.897	99.5
379.107	56.49
379.317	-2.9
379.528	21.67
379.738	46.25
379.948	79.02
380.158	113.83
380.369	25.77
380.579	46.25
380.789	9.39
380.999	3.24
381.21	91.31
381.42	93.35
381.63	64.68
381.84	38.06
382.05	64.68
382.261	103.59
382.471	70.83
382.681	33.96
382.891	138.41
383.101	33.96
383.311	-43.86
383.521	31.91
383.731	23.72
383.941	130.22
384.151	25.77
384.361	64.68
384.571	105.64
384.781	111.78
384.991	72.87
385.201	36.01
385.411	79.02
385.621	36.01
385.831	40.11
386.041	105.64
386.251	15.53
386.461	46.25
386.671	-2.9
386.881	79.02
387.091	36.01
387.301	42.15
387.511	54.44
387.72	109.74
387.93	138.41
388.14	21.67
388.35	31.91
388.56	95.4
388.769	17.58
388.979	72.87
389.189	42.15
389.399	27.82
389.609	21.67
389.818	29.87
390.028	81.07
390.238	15.53
390.447	46.25
390.657	76.97
390.867	66.73
391.076	29.87
391.286	42.15
391.496	42.15
391.705	17.58
391.915	66.73
392.125	95.4
392.334	117.93
392.544	128.17
392.753	40.11
392.963	36.01
393.172	89.26
393.382	83.11
393.591	107.69
393.801	87.21
394.01	119.98
394.22	101.55
394.429	33.96
394.639	42.15
394.848	89.26
395.058	46.25
395.267	52.39
395.477	70.83
395.686	44.2
395.895	60.59
396.105	83.11
396.314	93.35
396.524	70.83
396.733	95.4
396.942	122.02
397.152	95.4
397.361	162.98
397.57	122.02
397.78	99.5
397.989	132.26
398.198	119.98
398.407	144.55
398.617	115.88
398.826	91.31
399.035	95.4
399.244	89.26
399.453	167.08
399.663	79.02
399.872	111.78
400.081	115.88
400.29	99.5
400.499	115.88
400.708	119.98
400.917	105.64
401.127	68.78
401.336	85.16
401.545	115.88
401.754	205.99
401.963	122.02
402.172	74.92
402.381	72.87
402.59	85.16
402.799	62.63
403.008	64.68
403.217	31.91
403.426	195.75
403.635	99.5
403.844	160.94
404.053	152.74
404.262	87.21
404.471	195.75
404.68	146.6
404.888	205.99
405.097	115.88
405.306	152.74
405.515	158.89
405.724	169.13
405.933	230.57
406.142	197.8
406.35	261.29
406.559	234.66
406.768	179.37
406.977	232.62
407.185	160.94
407.394	175.27
407.603	169.13
407.812	193.7
408.02	214.18
408.229	181.42
408.438	193.7
408.646	232.62
408.855	310.44
409.064	246.95
409.272	283.81
409.481	226.47
409.69	292.01
409.898	294.05
410.107	320.68
410.315	353.45
410.524	351.4
410.733	443.56
410.941	318.63
411.15	404.64
411.358	435.36
411.567	421.03
411.775	437.41
411.984	418.98
412.192	513.19
412.401	439.46
412.609	541.86
412.818	517.28
413.026	529.57
413.234	578.72
413.443	507.04
413.651	603.3
413.86	609.44
414.068	603.3
414.276	531.62
414.485	658.59
414.693	636.06
414.901	674.98
415.11	746.66
415.318	707.74
415.526	779.42
415.734	777.37
415.943	853.15
416.151	842.91
416.359	918.68
416.567	933.02
416.776	1023.13
416.984	980.12
417.192	920.73
417.4	943.26
417.608	967.84
417.817	967.84
418.025	1174.68
418.233	1242.26
418.441	1160.34
418.649	1350.81
418.857	1350.81
419.065	1402.01
419.273	1234.07
419.481	1408.15
419.689	1467.54
419.897	1590.42
420.105	1672.34
420.313	1625.23
420.521	1746.06
420.729	1789.07
420.937	1772.69
421.145	1832.08
421.353	1914
421.561	2034.83
421.769	2012.3
421.977	2294.92
422.185	2077.83
422.393	2251.91
422.601	2286.73
422.809	2325.64
423.017	2344.07
423.224	2524.29
423.432	2598.02
423.64	2649.22
423.848	2835.58
424.056	2737.28
424.263	3007.61
424.471	2962.56
424.679	3132.54
424.887	3234.94
425.094	3347.58
425.302	3411.06
425.51	3447.93
425.718	3529.84
425.925	3669.11
426.133	3804.27
426.341	4045.93
426.548	4170.86
426.756	4074.6
426.964	4117.61
427.171	4383.85
427.379	4543.59
427.586	4811.87
427.794	4988
428.001	5028.96
428.209	5194.84
428.417	5141.6
428.624	5543
428.832	5444.7
429.039	5479.51
429.247	5393.5
429.454	6018.13
429.662	6425.67
429.869	5895.25
430.076	6423.62
430.284	6241.36
430.491	6530.12
430.699	6984.77
430.906	6880.32
431.114	7117.89
431.321	7341.11
431.528	7463.99
431.736	7822.39
431.943	8266.8
432.15	8045.62
432.358	7969.84
432.565	8543.27
432.772	8512.55
432.979	8844.32
433.187	8959.01
433.394	9104.42
433.601	9606.17
433.808	9626.65
434.016	9780.25
434.223	10171.41
434.43	10734.6
434.637	10601.48
434.844	11105.28
435.052	11338.75
435.259	11305.98
435.466	11473.92
435.673	11281.41
435.88	11899.89
436.087	12698.6
436.294	12694.5
436.501	12264.43
436.708	12661.74
436.915	12897.25
437.122	13544.41
437.329	13659.1
437.537	13872.09
437.743	14281.68
437.95	14113.75
438.157	14736.33
438.364	15485.89
438.571	15541.18
438.778	15608.76
438.985	16755.63
439.192	16296.88
439.399	16847.79
439.606	16397.23
439.813	17099.69
440.02	18408.34
440.227	18064.28
440.433	17843.1
440.64	18467.73
440.847	18389.91
441.054	18719.63
441.261	19929.98
441.467	19581.82
441.674	20149.11
441.881	21087.08
442.088	20870
442.294	20925.29
442.501	21255.01
442.708	21576.55
442.914	22627.15
443.121	23731.01
443.328	22795.09
443.534	24478.52
443.741	23622.47
443.948	23583.55
444.154	25074.48
444.361	24824.62
444.568	25248.55
444.774	25113.39
444.981	25627.43
445.187	26276.63
445.394	27269.9
445.6	27013.9
445.807	29788.9
446.013	28156.67
446.22	28662.52
446.426	30085.86
446.633	30190.3
446.839	31120.08
447.046	30069.47
447.252	31288.01
447.459	31902.4
447.665	31783.62
447.871	32697.02
448.078	33913.51
448.284	32117.44
448.491	33149.62
448.697	34398.88
448.903	35048.08
449.11	35314.32
449.316	34378.4
449.522	35226.26
449.728	36153.99
449.935	36553.34
450.141	36420.22
450.347	37079.67
450.553	35494.54
450.76	36297.34
450.966	37393.01
451.172	36942.45
451.378	37626.48
451.584	37419.63
451.791	37812.84
451.997	38109.8
452.203	38697.56
452.409	38406.75
452.615	38382.18
452.821	36678.27
453.027	36391.55
453.233	38103.65
453.44	36563.58
453.646	36942.45
453.852	37280.37
454.058	37524.08
454.264	36407.94
454.47	37433.97
454.676	36498.05
454.882	37972.58
455.088	34359.97
455.294	34974.36
455.5	35439.25
455.705	35386
455.911	34159.27
456.117	33772.2
456.323	33364.65
456.529	31199.95
456.735	32152.26
456.941	31537.87
457.147	31279.82
457.352	30087.9
457.558	30319.32
457.764	30055.14
457.97	29027.06
458.176	28908.27
458.381	28134.14
458.587	27048.72
458.793	27206.41
458.999	25738.02
459.204	27661.06
459.41	26813.2
459.616	25129.77
459.821	24884.01
460.027	24683.31
460.233	24283.96
460.438	23137.1
460.644	23554.88
460.85	22367.06
461.055	21992.28
461.261	22098.78
461.466	20390.77
461.672	19452.8
461.878	21533.54
462.083	19606.4
462.289	19504
462.494	19417.99
462.7	18557.84
462.905	18017.18
463.111	18736.01
463.316	18557.84
463.522	18344.85
463.727	18095
463.932	18189.21
464.138	18123.67
464.343	18095
464.549	17556.38
464.754	18310.04
464.959	18156.44
465.165	17912.73
465.37	17179.56
465.575	16755.63
465.781	17376.16
465.986	17337.25
466.191	16837.55
466.397	16231.35
466.602	15690.68
466.807	16442.29
467.012	16202.68
467.218	16247.73
467.423	16147.38
467.628	16325.55
467.833	16962.47
468.038	16337.84
468.244	15895.48
468.449	16321.46
468.654	15877.05
468.859	15358.91
469.064	15496.13
469.269	15072.2
469.474	15258.56
469.679	15336.38
469.885	14953.41
470.09	15158.21
470.295	14943.17
470.5	14689.23
470.705	14742.47
470.91	14349.26
471.115	14138.32
471.32	14382.03
471.525	14431.18
471.73	14162.9
471.935	14013.4
472.139	13435.87
472.344	13790.17
472.549	13312.99
472.754	13581.28
472.959	13128.67
473.164	12790.76
473.369	12788.71
473.574	12987.36
473.778	12899.3
473.983	12684.27
474.188	12723.18
474.393	12311.53
474.598	12254.19
474.802	12229.62
475.007	11873.27
475.212	11990
475.417	11279.36
475.621	11617.27
475.826	11830.26
476.031	11557.88
476.235	11250.69
476.44	11369.47
476.645	10923.01
476.849	11326.46
477.054	11142.14
477.259	10892.29
477.463	10925.06
477.668	10509.32
477.872	10759.17
478.077	10660.87
478.282	10435.6
478.486	10310.67
478.691	10091.54
478.895	10333.2
479.1	10023.95
479.304	10054.67
479.509	9835.54
479.713	10058.77
479.918	9741.33
480.122	9821.2
480.326	9782.29
480.531	9847.83
480.735	9757.72
480.94	9698.33
481.144	9798.68
481.348	9419.8
481.553	9528.35
481.757	9284.64
481.961	9507.87
482.166	9577.5
482.37	9591.83
482.574	9260.06
482.778	9534.49
482.983	9425.95
483.187	9567.26
483.391	9319.45
483.595	9403.42
483.8	9274.4
484.004	9366.56
484.208	9389.08
484.412	9378.84
484.616	9407.52
484.821	9409.56
485.025	9442.33
485.229	9391.13
485.433	9204.77
485.637	9384.99
485.841	9247.77
486.045	9280.54
486.249	9419.8
486.453	9153.57
486.657	9339.93
486.861	9323.55
487.065	9227.29
487.269	9339.93
487.473	9131.04
487.677	9298.97
487.881	9565.21
488.085	9395.23
488.289	9311.26
488.493	9305.12
488.697	9546.78
488.901	9495.58
489.105	9640.98
489.309	9516.06
489.512	9415.71
489.716	9378.84
489.92	9341.98
490.124	9554.97
490.328	9569.3
490.531	9565.21
490.735	9587.74
490.939	9432.09
491.143	9573.4
491.346	9786.39
491.55	9784.34
491.754	9704.47
491.958	9960.47
492.161	9761.81
492.365	9849.88
492.569	9765.91
492.772	9989.14
492.976	10064.91
493.18	10048.53
493.383	10265.61
493.587	10191.89
493.79	10437.64
493.994	10167.31
494.197	10214.41
494.401	10474.51
494.605	10374.16
494.808	10574.86
495.012	10628.1
495.215	10789.89
495.419	10761.22
495.622	10832.9
495.825	10978.31
496.029	10888.2
496.232	10945.54
496.436	10984.45
496.639	11346.94
496.843	11117.57
497.046	11373.57
497.249	11654.14
497.453	11510.78
497.656	11811.83
497.859	11813.88
498.063	12186.61
498.266	12452.84
498.469	12268.53
498.673	12362.73
498.876	12485.61
499.079	12760.04
499.282	12844.01
499.485	13013.99
499.689	12938.21
499.892	13292.51
500.095	13419.49
500.298	13308.9
500.501	13120.48
500.705	13781.98
500.908	13859.8
501.111	14056.4
501.314	13906.9
501.517	14265.3
501.72	14525.39
501.923	14461.9
502.126	14836.68
502.329	14977.99
502.532	15432.64
502.735	15272.9
502.938	15776.7
503.141	15619
503.344	15723.45
503.547	15926.2
503.75	15971.25
503.953	16372.66
504.156	16677.8
504.359	16446.38
504.562	16907.18
504.765	17109.93
504.968	17304.48
505.17	17449.89
505.373	17163.17
505.576	17697.69
505.779	18117.53
505.982	18062.23
506.185	18379.67
506.387	18379.67
506.59	18584.46
506.793	18928.52
506.996	18715.53
507.198	19532.67
507.401	19514.24
507.604	19735.42
507.807	20165.49
508.009	19954.55
508.212	20271.99
508.415	20360.05
508.617	20745.07
508.82	20806.51
509.022	20806.51
509.225	21025.64
509.428	21336.93
509.63	21691.23
509.833	21519.2
510.035	22199.13
510.238	22156.12
510.44	22465.36
510.643	22651.73
510.845	22885.2
511.048	22844.24
511.25	23395.14
511.453	23305.03
511.655	24187.71
511.858	23833.41
512.06	23776.06
512.262	24476.47
512.465	24560.44
512.667	24841.01
512.87	25058.09
513.072	25193.26
513.274	25635.62
513.477	26004.25
513.679	25875.23
513.881	26411.8
514.084	26833.68
514.286	26207
514.488	27128.59
514.69	27634.44
514.893	27271.95
515.095	28023.55
515.297	28254.97
515.499	28031.74
515.701	28437.24
515.904	28982
516.106	29002.48
516.308	29078.25
516.51	29784.8
516.712	29774.56
516.914	30227.17
517.116	30407.39
517.318	30812.88
517.52	30630.62
517.722	30890.71
517.925	30927.57
518.127	31611.59
518.329	31910.6
518.531	31838.92
518.733	32385.72
518.935	32668.34
519.136	32629.43
519.338	33034.93
519.54	33233.58
519.742	33895.08
519.944	33860.26
520.146	34417.31
520.348	34319.01
520.55	34759.32
520.752	34679.45
520.954	35418.77
521.155	35216.02
521.357	35883.66
521.559	36190.85
521.761	36467.33
521.963	36405.89
522.164	36739.71
522.366	36573.82
522.568	37210.74
522.77	37325.43
522.971	37976.68
523.173	37517.93
523.375	37937.77
523.576	37972.58
523.778	38115.94
523.98	38652.51
524.181	39246.42
524.383	38832.73
524.584	39459.41
524.786	39647.82
524.988	39633.49
525.189	39983.69
525.391	39918.15
525.592	40636.99
525.794	40254.02
525.995	40450.63
526.197	40452.67
526.398	40657.47
526.6	40995.39
526.801	41224.76
527.003	41472.56
527.204	41663.02
527.406	41841.2
527.607	41847.34
527.808	42435.11
528.01	41650.74
528.211	41806.38
528.412	42859.04
528.614	42052.14
528.815	42582.56
529.016	42936.86
529.218	42658.34
529.419	43055.64
529.62	43147.8
529.822	42869.28
530.023	42967.58
530.224	43360.79
530.425	43217.43
530.626	43485.72
530.828	43112.98
531.029	43981.32
531.23	43295.25
531.431	43735.57
531.632	44005.9
531.833	43833.87
532.035	43858.45
532.236	43823.63
532.437	43735.57
532.638	43805.2
532.839	44304.9
533.04	44155.4
533.241	43698.7
533.442	44374.53
533.643	44237.32
533.844	43979.28
534.045	44608
534.246	43764.24
534.447	44435.97
534.648	43956.75
534.849	44751.36
535.05	44018.19
535.251	44341.77
535.451	44126.73
535.652	44681.73
535.853	44345.86
536.054	44458.5
536.255	44800.51
536.456	44069.39
536.657	44945.92
536.857	44411.4
537.058	44014.09
537.259	44714.5
537.46	44446.21
537.66	44620.29
537.861	44556.8
538.062	44284.42
538.263	44718.59
538.463	44157.45
538.664	44653.06
538.865	44489.22
539.065	44773.89
539.266	44220.94
539.466	45054.46
539.667	44042.76
539.868	44888.57
540.068	44685.82
540.269	44679.68
540.469	44460.55
540.67	44366.34
540.87	44534.28
541.071	44366.34
541.271	44575.23
541.472	44296.71
541.672	44304.9
541.873	44366.34
542.073	43706.9
542.274	44632.58
542.474	44589.57
542.675	43975.18
542.875	44562.95
543.075	44356.1
543.276	44130.83
543.476	44456.45
543.676	44450.31
543.877	44583.43
544.077	44352.01
544.277	44083.72
544.478	43950.6
544.678	44685.82
544.878	44096.01
545.078	44550.66
545.279	43993.61
545.479	43969.04
545.679	44780.03
545.879	44143.11
546.079	44231.18
546.28	44005.9
546.48	43739.66
546.68	44053
546.88	44061.19
547.08	43856.4
547.28	43856.4
547.48	44112.39
547.68	44069.39
547.88	43397.65
548.081	44501.51
548.281	43846.16
548.481	43649.55
548.681	44161.54
548.881	44190.22
549.081	43817.49
549.28	43571.73
549.48	43911.69
549.68	43579.92
549.88	44452.36
550.08	43610.64
550.28	44018.19
550.48	43655.7
550.68	44243.46
550.88	43866.64
551.08	43731.47
551.279	44190.22
551.479	43219.48
551.679	44016.14
551.879	43258.39
552.079	43844.11
552.278	43739.66
552.478	43569.68
552.678	44067.34
552.878	43698.7
553.077	43426.32
553.277	43549.2
553.477	43745.81
553.676	43559.44
553.876	43282.97
554.076	43420.18
554.275	43170.33
554.475	43129.37
554.674	43672.08
554.874	43231.77
555.074	43072.03
555.273	43219.48
555.473	43727.38
555.672	43282.97
555.872	43125.27
556.071	43225.62
556.271	43072.03
556.47	42904.09
556.67	42719.77
556.869	43102.74
557.068	43026.97
557.268	42861.08
557.467	42609.18
557.667	42754.59
557.866	42660.38
558.065	42420.77
558.265	42125.86
558.464	42062.38
558.663	42943
558.863	41857.58
559.062	42607.14
559.261	42398.24
559.461	42781.21
559.66	41699.89
559.859	42445.35
560.058	41677.36
560.258	42347.04
560.457	41513.52
560.656	42078.76
560.855	41564.72
561.054	42113.58
561.253	41513.52
561.453	41826.86
561.652	41372.21
561.851	41804.33
562.05	41511.47
562.249	41288.24
562.448	41507.38
562.647	41101.88
562.846	40913.47
563.045	41660.97
563.244	40587.84
563.443	41310.77
563.642	40507.97
563.841	40577.6
564.04	40741.44
564.239	41001.53
564.438	40360.51
564.637	40436.29
564.836	40475.2
565.035	40077.9
565.234	40016.46
565.432	40251.97
565.631	39991.88
565.83	40368.71
566.029	39930.44
566.228	40008.26
566.427	39680.59
566.625	39510.61
566.824	39105.11
567.023	39701.07
567.222	38746.72
567.42	39539.28
567.619	39481.94
567.818	39082.58
568.016	38799.96
568.215	39254.61
568.414	38822.49
568.612	39207.51
568.811	38685.28
569.01	38713.95
569.208	38543.97
569.407	38466.14
569.605	38034.02
569.804	38421.09
570.002	38107.75
570.201	38134.37
570.4	37900.9
570.598	37775.98
570.797	37479.02
570.995	37706.35
571.193	37251.7
571.392	37589.61
571.59	37448.3
571.789	37499.5
571.987	37202.55
572.186	36936.31
572.384	37134.96
572.582	36997.75
572.781	37001.85
572.979	36315.78
573.177	36645.5
573.376	36663.93
573.574	36473.47
573.772	36835.96
573.971	36020.87
574.169	35756.68
574.367	36035.2
574.565	36129.41
574.763	35633.8
574.962	35486.35
575.16	35426.96
575.358	35506.83
575.556	35410.57
575.754	35842.7
575.952	35140.24
576.151	35383.95
576.349	34624.15
576.547	34894.49
576.745	35506.83
576.943	35031.7
577.141	34855.57
577.339	35033.75
577.537	34456.22
577.735	34026.15
577.933	34163.36
578.131	34327.2
578.329	34310.82
578.527	34165.41
578.725	33895.08
578.923	34265.76
579.121	34146.98
579.319	33888.93
579.516	34230.94
579.714	33776.3
579.912	33510.06
580.11	33401.52
580.308	33483.44
580.506	33082.03
580.704	33022.64
580.901	33329.84
581.099	33637.03
581.297	32987.83
581.495	32885.43
581.692	32932.53
581.89	32578.23
582.088	32617.14
582.285	32471.74
582.483	32832.18
582.681	32490.17
582.878	32518.84
583.076	32004.8
583.274	32514.75
583.471	31929.03
583.669	32252.61
583.866	31695.56
584.064	32520.89
584.262	31957.7
584.459	32006.85
584.657	31666.89
584.854	31853.25
585.052	30982.87
585.249	31126.22
585.447	31601.35
585.644	31111.89
585.841	31206.09
586.039	31206.09
586.236	30675.67
586.434	30939.86
586.631	30499.55
586.828	30585.56
587.026	30874.32
587.223	30300.89
587.42	30384.86
587.618	30558.94
587.815	30102.24
588.012	29649.64
588.21	30118.62
588.407	30307.04
588.604	29842.15
588.801	29506.28
588.999	30036.7
589.196	29485.8
589.393	29616.87
589.59	29367.02
589.787	29287.15
589.984	29506.28
590.182	28920.56
590.379	29068.02
590.576	29084.4
590.773	29194.99
590.97	28877.55
591.167	28996.34
591.364	28551.93
591.561	28484.34
591.758	28474.1
591.955	28320.51
592.152	28658.42
592.349	28187.39
592.546	28672.76
592.743	27984.64
592.94	27595.53
593.137	27874.05
593.334	28261.12
593.531	27697.92
593.727	27779.84
593.924	27988.74
594.121	27284.23
594.318	27564.81
594.515	27396.87
594.712	27581.19
594.908	27333.39
595.105	27273.99
595.302	26925.84
595.499	27026.19
595.696	26936.08
595.892	27026.19
596.089	26833.68
596.286	26972.94
596.482	26546.97
596.679	26514.2
596.876	26733.33
597.072	26608.4
597.269	26538.77
597.466	26032.93
597.662	25979.68
597.859	26188.57
598.055	26139.42
598.252	25813.79
598.448	25840.42
598.645	25842.46
598.841	25690.91
599.038	25615.14
599.234	25727.78
599.431	25246.51
599.627	25111.34
599.824	25357.1
600.02	25203.5
600.217	25191.21
600.413	25228.07
600.609	25029.42
600.806	24722.23
601.002	24886.06
601.198	24539.96
601.395	24791.86
601.591	24720.18
601.787	24744.75
601.984	24326.97
602.18	24632.11
602.376	24066.88
602.572	24130.36
602.769	24189.75
602.965	23905.09
603.161	24130.36
603.357	23870.27
603.553	23814.98
603.75	23765.82
603.946	23855.93
604.142	23886.65
604.338	23206.73
604.534	23692.1
604.73	23509.83
604.926	23481.16
605.122	23616.32
605.318	23272.26
605.514	23210.82
605.71	23067.47
605.906	22829.9
606.102	22840.14
606.298	23145.29
606.494	22965.07
606.69	22954.83
606.886	22664.02
607.082	22569.81
607.278	22729.55
607.474	22416.21
607.67	22500.18
607.866	22553.43
608.062	22661.97
608.257	22283.09
608.453	22317.91
608.649	22448.98
608.845	21932.89
609.041	21840.73
609.236	22174.55
609.432	21738.33
609.628	21828.45
609.824	21953.37
610.019	21832.54
610.215	22010.71
610.411	21750.62
610.606	21652.32
610.802	22000.47
610.998	21400.42
611.193	21642.08
611.389	21349.22
611.584	21422.95
611.78	21601.12
611.976	21332.84
612.171	21259.11
612.367	21326.69
612.562	21025.64
612.758	20771.69
612.953	20706.16
613.149	21140.33
613.344	20867.95
613.539	21199.72
613.735	21001.07
613.93	21150.57
614.126	20702.06
614.321	21039.98
614.517	20751.21
614.712	20773.74
614.907	20771.69
615.103	20880.24
615.298	20427.63
615.493	20947.82
615.688	20489.07
615.884	20919.15
616.079	20147.06
616.274	20503.41
616.47	20687.73
616.665	20280.18
616.86	20185.97
617.055	20192.12
617.25	20206.45
617.445	20327.28
617.641	19991.42
617.836	20126.58
618.031	19739.52
618.226	20081.53
618.421	19803
618.616	19981.18
618.811	19602.3
619.006	19803
619.201	19508.1
619.396	19526.53
619.591	19231.62
619.786	19536.77
619.981	19028.87
620.176	19319.68
620.371	18979.72
620.566	19135.37
620.761	18936.71
620.956	19219.33
621.151	18738.06
621.346	19002.25
621.541	18404.24
621.735	18602.89
621.93	18293.65
622.125	18496.4
622.32	18142.1
622.515	18508.69
622.709	18109.33
622.904	18031.51
623.099	17720.22
623.294	17658.78
623.488	17476.51
623.683	17812.38
623.878	17722.27
624.072	17361.83
624.267	17601.44
624.462	17345.44
624.656	17132.45
624.851	17208.23
625.046	16778.15
625.24	16907.18
625.435	16825.26
625.629	16804.78
625.824	16673.71
626.018	16661.42
626.213	16448.43
626.407	16602.03
626.602	16192.44
626.796	16249.78
626.991	16374.7
627.185	15932.34
627.38	15903.67
627.574	15866.81
627.768	15883.19
627.963	15514.56
628.157	15551.42
628.352	15680.44
628.546	15432.64
628.74	15358.91
628.935	15299.52
629.129	15504.32
629.323	15006.66
629.517	15147.97
629.712	14887.88
629.906	15002.57
630.1	14695.37
630.294	14717.9
630.489	14408.65
630.683	14592.97
630.877	14599.12
631.071	14388.18
631.265	14484.43
631.459	14205.91
631.653	14177.23
631.848	14054.36
632.042	13929.43
632.236	14080.98
632.43	13919.19
632.624	13939.67
632.818	13698.01
633.012	13638.62
633.206	13704.15
633.4	13759.45
633.594	13370.33
633.788	13450.21
633.982	13368.29
634.176	13278.18
634.369	13372.38
634.563	13278.18
634.757	12870.63
634.951	12895.21
635.145	12975.08
635.339	13057
635.533	12743.66
635.726	12970.98
635.92	12725.22
636.114	12796.9
636.308	12626.92
636.501	12608.49
636.695	12471.28
636.889	12362.73
637.083	12200.94
637.276	12334.06
637.47	12268.53
637.664	12010.48
637.857	12057.59
638.051	11910.13
638.244	11869.17
638.438	11852.79
638.632	11813.88
638.825	11736.06
639.019	11623.42
639.212	11615.23
639.406	11424.76
639.599	11459.58
639.793	11367.42
639.986	11129.86
640.18	11426.81
640.373	11154.43
640.567	11252.73
640.76	11205.63
640.954	10884.1
641.147	10980.36
641.34	11154.43
641.534	11015.17
641.727	10716.17
641.92	10783.75
642.114	10628.1
642.307	10685.45
642.5	10703.88
642.694	10419.21
642.887	10464.27
643.08	10333.2
643.273	10363.92
643.467	10347.53
643.66	10238.99
643.853	10224.65
644.046	9976.85
644.239	10212.37
644.432	9927.7
644.626	10195.98
644.819	9878.55
645.012	10075.15
645.205	9919.51
645.398	9722.9
645.591	9659.42
645.784	9722.9
645.977	9548.82
646.17	9485.34
646.363	9540.63
646.556	9270.3
646.749	9409.56
646.942	9307.16
647.135	9151.52
647.328	9272.35
647.521	9188.38
647.714	9020.45
647.907	9184.29
648.099	9069.6
648.292	9077.79
648.485	8973.35
648.678	8979.49
648.871	8807.46
649.064	8739.88
649.256	8848.42
649.449	8637.48
649.642	8754.21
649.835	8594.47
650.027	8447.02
650.22	8655.91
650.413	8592.42
650.605	8461.35
650.798	8350.76
650.991	8213.55
651.183	8324.14
651.376	8135.73
651.568	8180.78
651.761	8086.58
651.954	8365.1
652.146	8004.66
652.339	8145.97
652.531	7892.02
652.724	7951.41
652.916	7644.21
653.109	8002.61
653.301	7980.08
653.494	8012.85
653.686	7517.24
653.879	7756.85
654.071	7660.6
654.263	7648.31
654.456	7666.74
654.648	7492.66
654.84	7435.32
655.033	7472.18
655.225	7556.15
655.417	7490.62
655.61	7310.4
655.802	7302.2
655.994	7433.27
656.186	7367.74
656.379	7226.43
656.571	7142.46
656.763	7054.4
656.955	7015.49
657.148	7105.6
657.34	7074.88
657.532	6902.85
657.724	6878.27
657.916	6894.66
658.108	6923.33
658.3	6773.83
658.492	6759.49
658.684	6861.89
658.876	6650.95
659.068	6712.39
659.26	6564.93
659.452	6730.82
659.644	6710.34
659.836	6493.26
660.028	6536.26
660.22	6579.27
660.412	6440.01
660.604	6501.45
660.796	6421.58
660.988	6321.23
661.18	6364.23
661.372	6276.17
661.563	6415.43
661.755	6165.58
661.947	6229.07
662.139	6192.2
662.331	6104.14
662.522	6186.06
662.714	5958.74
662.906	5995.6
663.097	5981.26
663.289	5917.78
663.481	5837.91
663.673	5964.88
663.864	5784.66
664.056	5815.38
664.247	5741.65
664.439	5669.97
664.631	5747.79
664.822	5723.22
665.014	5690.45
665.205	5819.47
665.397	5690.45
665.588	5737.56
665.78	5561.43
665.971	5618.77
666.163	5647.44
666.354	5604.44
666.546	5518.42
666.737	5364.82
666.929	5504.09
667.12	5598.29
667.311	5278.81
667.503	5436.5
667.694	5330.01
667.885	5248.09
668.077	5239.9
668.268	5262.43
668.459	5168.22
668.651	5184.6
668.842	5356.63
669.033	5137.5
669.224	5184.6
669.416	5092.44
669.607	5051.49
669.798	4998.24
669.989	4992.09
670.18	4998.24
670.371	5170.27
670.563	5012.57
670.754	4998.24
670.945	4846.69
671.136	5108.83
671.327	4975.71
671.518	4832.35
671.709	4879.46
671.9	4629.6
672.091	4742.24
672.282	4713.57
672.473	4658.28
672.664	4807.78
672.855	4815.97
673.046	4648.04
673.237	4756.58
673.428	4686.95
673.619	4670.56
673.809	4645.99
674	4609.12
674.191	4607.08
674.382	4578.4
674.573	4500.58
674.764	4588.64
674.954	4465.77
675.145	4402.28
675.336	4482.15
675.527	4574.31
675.717	4424.81
675.908	4346.98
676.099	4414.57
676.289	4463.72
676.48	4453.48
676.671	4443.24
676.861	4351.08
677.052	4379.75
677.243	4256.87
677.433	4248.68
677.624	4377.7
677.814	4265.07
678.005	4258.92
678.195	4203.63
678.386	4181.1
678.576	4207.72
678.767	4258.92
678.957	4207.72
679.148	4246.63
679.338	4328.55
679.529	4058.22
679.719	4211.82
679.909	4174.95
680.1	4097.13
680.29	4121.71
680.481	4015.21
680.671	4246.63
680.861	4078.7
681.052	4117.61
681.242	4009.07
681.432	4119.66
681.622	3988.59
681.813	3888.24
682.003	4023.41
682.193	3966.06
682.383	3937.39
682.573	3931.25
682.764	3878
682.954	3972.21
683.144	3857.52
683.334	3941.49
683.524	3863.66
683.714	3964.01
683.904	3916.91
684.094	3882.1
684.284	3902.58
684.474	4002.93
684.664	3802.22
684.854	3857.52
685.044	3767.41
685.234	3812.46
685.424	3806.32
685.614	3632.24
685.804	3736.69
685.994	3746.93
686.184	3609.72
686.374	3779.7
686.564	3687.54
686.753	3505.27
686.943	3673.2
687.133	3601.52
687.323	3566.71
687.513	3615.86
687.702	3624.05
687.892	3507.32
688.082	3429.49
688.272	3619.96
688.461	3388.53
688.651	3669.11
688.841	3552.37
689.03	3519.6
689.22	3538.04
689.41	3445.88
689.599	3495.03
689.789	3372.15
689.979	3277.94
690.168	3497.08
690.358	3286.14
690.547	3435.64
690.737	3409.01
690.926	3253.37
691.116	3253.37
691.305	3357.82
691.495	3167.35
691.684	3314.81
691.874	3294.33
692.063	3331.19
692.252	3310.71
692.442	3228.79
692.631	3087.48
692.82	3165.31
693.01	3204.22
693.199	3124.35
693.388	3155.07
693.578	3253.37
693.767	3120.25
693.956	2997.37
694.146	3153.02
694.335	3122.3
694.524	3062.91
694.713	3218.55
694.902	3069.05
695.092	3134.59
695.281	3005.56
695.47	3062.91
695.659	3036.28
695.848	2964.61
696.037	3046.52
696.226	3062.91
696.415	3048.57
696.604	3019.9
696.793	3028.09
696.982	2935.93
697.171	3007.61
697.36	2972.8
697.549	3007.61
697.738	2935.93
697.927	2944.13
698.116	2905.21
698.305	2858.11
698.494	3032.19
698.683	2927.74
698.872	3050.62
699.061	3067
699.25	2989.18
699.438	2864.25
699.627	2931.84
699.816	3021.95
700.005	2935.93
700.193	3030.14
700.382	3024
700.571	2917.5
700.76	2942.08
700.948	2919.55
701.137	2886.78
701.326	2829.44
701.514	2903.17
701.703	2825.34
701.892	2827.39
702.08	2927.74
702.269	2921.6
702.457	2868.35
702.646	3017.85
702.834	2913.41
703.023	2860.16
703.212	2845.82
703.4	2845.82
703.589	2870.4
703.777	2872.45
703.965	2882.69
704.154	2925.69
704.342	2856.06
704.531	2741.38
704.719	2874.49
704.907	2831.49
705.096	2811.01
705.284	2858.11
705.472	2905.21
705.661	2792.58
705.849	2940.03
706.037	2854.02
706.226	2831.49
706.414	2788.48
706.602	2841.73
706.79	2884.73
706.979	2800.77
707.167	2784.38
707.355	2729.09
707.543	2870.4
707.731	2790.53
707.919	2741.38
708.107	2796.67
708.296	2860.16
708.484	2886.78
708.672	2811.01
708.86	2806.91
709.048	2727.04
709.236	2741.38
709.424	2835.58
709.612	2827.39
709.8	2630.79
709.988	2817.15
710.176	2886.78
710.364	2684.03
710.551	2774.14
710.739	2626.69
710.927	2694.27
711.115	2821.25
711.303	2825.34
711.491	2788.48
711.679	2780.29
711.866	2739.33
712.054	2731.14
712.242	2673.79
712.43	2821.25
712.617	2581.64
712.805	2718.85
712.993	2741.38
713.181	2659.46
713.368	2765.95
713.556	2720.9
713.744	2593.92
713.931	2751.62
714.119	2651.27
714.306	2659.46
714.494	2638.98
714.682	2694.27
714.869	2688.13
715.057	2655.36
715.244	2702.47
715.432	2800.77
715.619	2677.89
715.807	2684.03
715.994	2671.75
716.182	2712.71
716.369	2847.87
716.556	2641.03
716.744	2659.46
716.931	2641.03
717.119	2692.23
717.306	2622.59
717.493	2651.27
717.681	2593.92
717.868	2679.94
718.055	2679.94
718.242	2612.35
718.43	2663.55
718.617	2628.74
718.804	2620.55
718.991	2665.6
719.179	2712.71
719.366	2653.31
719.553	2518.15
719.74	2532.48
719.927	2636.93
720.114	2790.53
720.301	2542.72
720.488	2620.55
720.676	2616.45
720.863	2577.54
721.05	2571.4
721.237	2499.72
721.424	2548.87
721.611	2598.02
721.798	2516.1
721.985	2546.82
722.172	2606.21
722.358	2493.57
722.545	2546.82
722.732	2661.51
722.919	2540.68
723.106	2593.92
723.293	2520.2
723.48	2507.91
723.667	2524.29
723.853	2499.72
724.04	2503.81
724.227	2497.67
724.414	2477.19
724.6	2477.19
724.787	2557.06
724.974	2469
725.161	2466.95
725.347	2430.09
725.534	2610.31
725.72	2448.52
725.907	2501.76
726.094	2485.38
726.28	2503.81
726.467	2536.58
726.653	2489.48
726.84	2518.15
727.027	2466.95
727.213	2593.92
727.4	2493.57
727.586	2477.19
727.773	2462.85
727.959	2471.04
728.145	2544.77
728.332	2512
728.518	2518.15
728.705	2614.4
728.891	2469
729.077	2438.28
729.264	2557.06
729.45	2462.85
729.636	2598.02
729.823	2477.19
730.009	2342.02
730.195	2503.81
730.382	2372.74
730.568	2491.52
730.754	2507.91
730.94	2405.51
731.126	2477.19
731.313	2503.81
731.499	2462.85
731.685	2487.43
731.871	2497.67
732.057	2518.15
732.243	2520.2
732.429	2555.01
732.615	2434.18
732.801	2417.8
732.987	2538.63
733.173	2411.65
733.359	2520.2
733.545	2462.85
733.731	2360.45
733.917	2385.03
734.103	2512
734.289	2440.33
734.475	2331.78
734.661	2452.61
734.847	2501.76
735.033	2448.52
735.219	2360.45
735.404	2362.5
735.59	2473.09
735.776	2378.89
735.962	2469
736.148	2409.61
736.333	2319.5
736.519	2337.93
736.705	2438.28
736.89	2421.89
737.076	2399.37
737.262	2311.3
737.447	2239.62
737.633	2319.5
737.819	2352.26
738.004	2442.37
738.19	2454.66
738.375	2419.85
738.561	2274.44
738.747	2266.25
738.932	2309.26
739.118	2296.97
739.303	2303.11
739.489	2344.07
739.674	2387.08
739.859	2204.81
740.045	2176.14
740.23	2243.72
740.416	2217.1
740.601	2317.45
740.786	2213
740.972	2124.94
741.157	2241.67
741.342	2188.43
741.528	2155.66
741.713	2221.19
741.898	2174.09
742.084	2204.81
742.269	2172.04
742.454	2155.66
742.639	2147.47
742.824	2213
743.01	2038.92
743.195	2147.47
743.38	2149.51
743.565	2098.31
743.75	1971.34
743.935	2184.33
744.12	2153.61
744.305	2157.71
744.49	2094.22
744.675	2073.74
744.86	2083.98
745.045	2008.2
745.23	2034.83
745.415	1934.48
745.6	2083.98
745.785	1899.66
745.97	1985.68
746.155	2053.26
746.34	1957
746.525	2067.6
746.71	2032.78
746.895	1957
747.079	1877.13
747.264	1891.47
747.449	1981.58
747.634	1893.52
747.819	1909.9
748.003	1899.66
748.188	1950.86
748.373	1932.43
748.557	1934.48
748.742	1887.37
748.927	1850.51
749.111	1916.05
749.296	1807.5
749.481	1832.08
749.665	1813.65
749.85	1694.86
750.034	1686.67
750.219	1766.54
750.404	1746.06
750.588	1815.69
750.773	1668.24
750.957	1760.4
751.141	1641.62
751.326	1748.11
751.51	1692.82
751.695	1799.31
751.879	1694.86
752.064	1780.88
752.248	1641.62
752.432	1655.95
752.617	1660.05
752.801	1606.8
752.985	1608.85
753.17	1633.43
753.354	1539.22
753.538	1635.47
753.722	1471.64
753.907	1664.15
754.091	1481.88
754.275	1565.84
754.459	1506.45
754.643	1471.64
754.828	1455.25
755.012	1502.36
755.196	1463.44
755.38	1451.16
755.564	1475.73
755.748	1465.49
755.932	1426.58
756.116	1402.01
756.3	1320.09
756.484	1383.57
756.668	1402.01
756.852	1322.13
757.036	1389.72
757.22	1354.9
757.404	1361.05
757.588	1397.91
757.772	1344.66
757.956	1246.36
758.14	1299.61
758.323	1313.94
758.507	1262.74
758.691	1215.64
758.875	1381.53
759.059	1279.13
759.242	1197.21
759.426	1207.45
759.61	1189.02
759.794	1307.8
759.977	1260.7
760.161	1299.61
760.345	1268.89
760.528	1158.3
760.712	1203.35
760.895	1223.83
761.079	1191.06
761.263	1152.15
761.446	1195.16
761.63	1170.58
761.813	1242.26
761.997	1234.07
762.18	1156.25
762.364	1152.15
762.547	1066.14
762.731	1090.71
762.914	1189.02
763.098	1107.1
763.281	1109.15
763.464	1059.99
763.648	1049.75
763.831	1072.28
764.015	1121.43
764.198	1006.75
764.381	1049.75
764.564	1105.05
764.748	1121.43
764.931	1072.28
765.114	1088.67
765.297	1051.8
765.481	1053.85
765.664	1045.66
765.847	1037.47
766.03	1051.8
766.213	1066.14
766.397	1143.96
766.58	1037.47
766.763	1051.8
766.946	1047.71
767.129	1010.84
767.312	961.69
767.495	1019.04
767.678	1039.51
767.861	1096.86
768.044	879.77
768.227	984.22
768.41	947.36
768.593	1080.47
768.776	1019.04
768.959	1004.7
769.142	986.27
769.324	943.26
769.507	890.01
769.69	937.12
769.873	947.36
770.056	1033.37
770.239	941.21
770.421	939.16
770.604	965.79
770.787	853.15
770.97	894.11
771.152	842.91
771.335	890.01
771.518	910.49
771.7	941.21
771.883	873.63
772.066	883.87
772.248	836.77
772.431	853.15
772.613	885.92
772.796	820.38
772.978	832.67
773.161	844.96
773.343	885.92
773.526	787.61
773.708	816.29
773.891	767.13
774.073	793.76
774.256	738.46
774.438	804
774.621	744.61
774.803	857.25
774.985	793.76
775.168	824.48
775.35	795.81
775.532	806.05
775.715	847.01
775.897	769.18
776.079	867.49
776.261	736.42
776.444	722.08
776.626	703.65
776.808	773.28
776.99	763.04
777.173	717.98
777.355	685.22
777.537	740.51
777.719	732.32
777.901	636.06
778.083	812.19
778.265	738.46
778.447	695.46
778.629	666.78
778.811	736.42
778.993	615.59
779.175	670.88
779.357	724.13
779.539	679.07
779.721	679.07
779.903	568.48
780.085	638.11
780.267	652.45
780.449	572.58
780.631	640.16
780.812	689.31
780.994	621.73
781.176	564.39
781.358	654.5
781.54	613.54
781.721	664.74
781.903	591.01
782.085	574.63
782.267	609.44
782.448	599.2
782.63	572.58
782.812	562.34
782.993	504.99
783.175	588.96
783.357	564.39
783.538	523.43
783.72	634.02
783.901	478.37
784.083	500.9
784.264	550.05
784.446	492.71
784.627	490.66
784.809	570.53
784.99	494.76
785.172	521.38
785.353	492.71
785.535	484.52
785.716	474.28
785.897	451.75
786.079	484.52
786.26	509.09
786.441	408.74
786.623	431.27
786.804	418.98
786.985	464.04
787.167	533.67
787.348	507.04
787.529	378.02
787.71	486.56
787.891	414.88
788.073	435.36
788.254	504.99
788.435	435.36
788.616	341.16
788.797	390.31
788.978	418.98
789.159	421.03
789.34	423.08
789.522	464.04
789.703	427.17
789.884	427.17
790.065	425.12
790.246	369.83
790.427	373.92
790.607	498.85
790.788	416.93
790.969	322.73
791.15	386.21
791.331	339.11
791.512	300.2
791.693	332.97
791.874	365.73
792.054	408.74
792.235	296.1
792.416	285.86
792.597	380.07
792.778	349.35
792.958	416.93
793.139	351.4
793.32	345.25
793.5	326.82
793.681	371.88
793.862	345.25
794.042	365.73
794.223	300.2
794.404	322.73
794.584	347.3
794.765	267.43
794.945	277.67
795.126	285.86
795.306	318.63
795.487	316.58
795.667	365.73
795.848	382.12
796.028	390.31
796.209	255.14
796.389	351.4
796.57	269.48
796.75	238.76
796.93	300.2
797.111	310.44
797.291	253.09
797.471	367.78
797.652	375.97
797.832	308.39
798.012	310.44
798.192	271.53
798.373	302.25
798.553	199.85
798.733	269.48
798.913	271.53
799.093	304.29
799.274	226.47
799.454	249
799.634	279.72
799.814	312.49
799.994	339.11
800.174	363.69
800.354	279.72
800.534	246.95
800.714	287.91
800.894	289.96
801.074	146.6
801.254	251.05
801.434	324.77
801.614	259.24
801.794	265.38
801.974	664.74
802.154	228.52
802.334	232.62
802.514	228.52
802.693	201.9
802.873	232.62
803.053	259.24
803.233	193.7
803.413	236.71
803.592	275.62
803.772	322.73
803.952	201.9
804.131	226.47
804.311	208.04
804.491	273.57
804.67	218.28
804.85	251.05
805.03	228.52
805.209	240.81
805.389	197.8
805.568	224.42
805.748	226.47
805.928	253.09
806.107	201.9
806.287	294.05
806.466	148.65
806.646	173.22
806.825	230.57
807.004	218.28
807.184	238.76
807.363	205.99
807.543	251.05
807.722	187.56
807.901	232.62
808.081	193.7
808.26	205.99
808.439	169.13
808.619	167.08
808.798	212.14
808.977	234.66
809.156	175.27
809.336	187.56
809.515	216.23
809.694	187.56
809.873	222.38
810.052	132.26
810.231	246.95
810.411	216.23
810.59	195.75
810.769	171.18
810.948	230.57
811.127	199.85
811.306	136.36
811.485	167.08
811.664	146.6
811.843	89.26
812.022	187.56
812.201	203.94
812.38	165.03
812.559	169.13
812.737	171.18
812.916	201.9
813.095	156.84
813.274	181.42
813.453	179.37
813.632	197.8
813.811	234.66
813.989	181.42
814.168	97.45
814.347	212.14
814.526	140.46
814.704	134.31
814.883	183.46
815.062	97.45
815.24	191.66
815.419	171.18
815.598	154.79
815.776	165.03
815.955	138.41
816.133	136.36
816.312	126.12
816.49	181.42
816.669	105.64
816.847	56.49
817.026	99.5
817.204	208.04
817.383	130.22
817.561	101.55
817.74	226.47
817.918	105.64
818.097	128.17
818.275	140.46
818.453	119.98
818.632	146.6
818.81	99.5
818.988	197.8
819.167	203.94
819.345	167.08
819.523	68.78
819.701	199.85
819.879	173.22
820.058	140.46
820.236	79.02
820.414	181.42
820.592	136.36
820.77	138.41
820.948	89.26
821.127	154.79
821.305	122.02
821.483	134.31
821.661	169.13
821.839	138.41
822.017	66.73
822.195	113.83
822.373	81.07
822.551	105.64
822.729	72.87
822.907	169.13
823.085	115.88
823.262	85.16
823.44	95.4
823.618	95.4
823.796	128.17
823.974	70.83
824.152	62.63
824.329	134.31
824.507	140.46
824.685	107.69
824.863	146.6
825.04	115.88
825.218	179.37
825.396	87.21
825.574	33.96
825.751	126.12
825.929	79.02
826.107	138.41
826.284	150.7
826.462	56.49
826.639	136.36
826.817	122.02
826.994	89.26
827.172	128.17
827.349	132.26
827.527	60.59
827.704	134.31
827.882	56.49
828.059	169.13
828.237	103.59
828.414	103.59
828.591	79.02
828.769	81.07
828.946	74.92
829.124	48.3
829.301	48.3
829.478	169.13
829.655	81.07
829.833	36.01
830.01	64.68
830.187	132.26
830.364	62.63
830.542	124.07
830.719	103.59
830.896	93.35
831.073	99.5
831.25	79.02
831.427	68.78
831.604	79.02
831.782	132.26
831.959	138.41
832.136	50.35
832.313	76.97
832.49	138.41
832.667	99.5
832.844	48.3
833.021	33.96
833.198	36.01
833.374	93.35
833.551	97.45
833.728	93.35
833.905	132.26
834.082	87.21
834.259	27.82
834.436	74.92
834.612	124.07
834.789	91.31
834.966	42.15
835.143	95.4
835.319	56.49
835.496	48.3
835.673	144.55
835.85	113.83
836.026	9.39
836.203	70.83
836.38	-7
836.556	46.25
836.733	97.45
836.909	-17.24
837.086	48.3
837.262	58.54
837.439	70.83
837.616	36.01
837.792	103.59
837.968	70.83
838.145	36.01
838.321	68.78
838.498	68.78
838.674	83.11
838.851	58.54
839.027	148.65
839.203	79.02
839.38	115.88
839.556	31.91
839.732	70.83
839.909	58.54
840.085	76.97
840.261	50.35
840.437	54.44
840.614	87.21
840.79	58.54
840.966	95.4
841.142	38.06
841.318	85.16
841.494	165.03
841.671	113.83
841.847	93.35
842.023	25.77
842.199	105.64
842.375	58.54
842.551	97.45
842.727	99.5
842.903	72.87
843.079	17.58
843.255	115.88
843.431	19.63
843.607	5.29
843.783	-17.24
843.959	113.83
844.134	103.59
844.31	54.44
844.486	58.54
844.662	79.02
844.838	1.19
845.013	56.49
845.189	27.82
845.365	105.64
845.541	38.06
845.716	74.92
845.892	17.58
846.068	40.11
846.244	44.2
846.419	-15.19
846.595	62.63
846.77	23.72
846.946	46.25
847.122	46.25
847.297	85.16
847.473	152.74
847.648	38.06
847.824	54.44
847.999	7.34
848.175	9.39
848.35	79.02
848.526	111.78
848.701	36.01
848.876	101.55
849.052	72.87
849.227	64.68
849.403	38.06
849.578	5.29
849.753	19.63
849.929	79.02
850.104	74.92
850.279	-11.09
850.454	58.54
850.63	36.01
850.805	-25.43
850.98	17.58
851.155	23.72
851.33	50.35
851.505	109.74
851.681	124.07
851.856	38.06
852.031	58.54
852.206	68.78
852.381	38.06
852.556	87.21
852.731	44.2
852.906	27.82
853.081	-13.14
853.256	101.55
853.431	-4.95
853.606	9.39
853.781	1.19
853.956	29.87
854.131	19.63
854.305	56.49
854.48	-41.81
854.655	3.24
854.83	13.48
855.005	76.97
855.18	-9.05
855.354	-4.95
855.529	44.2
855.704	-35.67
855.879	27.82
856.053	72.87
856.228	-21.33
856.403	27.82
856.577	87.21
856.752	58.54
856.926	109.74
857.101	54.44
857.276	54.44
857.45	-19.29
857.625	13.48
857.799	36.01
857.974	87.21
858.148	11.43
858.323	13.48
858.497	-2.9
858.672	27.82
858.846	5.29
859.02	31.91
859.195	-15.19
859.369	-62.29
859.543	5.29
859.718	68.78
859.892	70.83
860.066	36.01
860.241	7.34
860.415	-7
860.589	21.67
860.763	42.15
860.938	-2.9
861.112	-19.29
861.286	9.39
861.46	23.72
861.634	50.35
861.808	23.72
861.982	33.96
862.157	52.39
862.331	1.19
862.505	33.96
862.679	40.11
862.853	23.72
863.027	-25.43
863.201	38.06
863.375	52.39
863.549	13.48
863.722	128.17
863.896	33.96
864.07	21.67
864.244	74.92
864.418	-13.14
864.592	29.87
864.766	64.68
864.939	50.35
865.113	-72.53
865.287	11.43
865.461	-4.95
865.634	38.06
865.808	21.67
865.982	-0.85
866.156	76.97
866.329	7.34
866.503	23.72
866.676	25.77
866.85	7.34
867.024	44.2
867.197	64.68
867.371	29.87
867.544	-7
867.718	38.06
867.891	60.59
868.065	-21.33
868.238	5.29
868.412	119.98
868.585	15.53
868.759	52.39
868.932	-0.85
869.105	44.2
869.279	-37.72
869.452	17.58
869.625	58.54
869.799	50.35
869.972	-47.96
870.145	15.53
870.319	17.58
870.492	-33.62
870.665	-37.72
870.838	-7
871.011	-39.76
871.185	62.63
871.358	-66.39
871.531	74.92
871.704	-21.33
871.877	-31.57
872.05	-31.57
872.223	33.96
872.396	36.01
872.569	50.35
872.742	-52.05
872.915	25.77
873.088	-29.52
873.261	36.01
873.434	23.72
873.607	50.35
873.78	50.35
873.953	62.63
874.126	9.39
874.299	-56.15
874.471	-82.77
874.644	-50
874.817	144.55
874.99	111.78
875.163	-33.62
875.335	42.15
875.508	64.68
875.681	60.59
875.853	42.15
876.026	-41.81
876.199	1.19
876.371	31.91
876.544	21.67
876.717	40.11
876.889	38.06
877.062	1.19
877.234	21.67
877.407	29.87
877.579	-43.86
877.752	-31.57
877.924	81.07
878.097	-0.85
878.269	17.58
878.442	58.54
878.614	50.35
878.786	36.01
878.959	70.83
879.131	-0.85
879.303	-33.62
879.476	3.24
879.648	31.91
879.82	56.49
879.993	-52.05
880.165	21.67
880.337	-4.95
880.509	5.29
880.681	-62.29
880.854	-35.67
881.026	23.72
881.198	66.73
881.37	46.25
881.542	38.06
881.714	-33.62
881.886	31.91
882.058	3.24
882.23	-0.85
882.402	31.91
882.574	3.24
882.746	54.44
882.918	79.02
883.09	-15.19
883.262	5.29
883.434	97.45
883.606	-43.86
883.778	66.73
883.95	44.2
884.122	-2.9
884.293	64.68
884.465	-15.19
884.637	50.35
884.809	-23.38
884.98	81.07
885.152	-13.14
885.324	89.26
885.496	5.29
885.667	-31.57
885.839	52.39
886.011	-2.9
886.182	40.11
886.354	17.58
886.525	21.67
886.697	7.34
886.869	46.25
887.04	91.31
887.212	1.19
887.383	60.59
887.555	54.44
887.726	21.67
887.897	-13.14
888.069	25.77
888.24	48.3
888.412	-0.85
888.583	-41.81
888.754	70.83
888.926	40.11
889.097	-33.62
889.268	5.29
889.44	-21.33
889.611	19.63
889.782	-9.05
889.953	66.73
890.125	54.44
890.296	-27.48
890.467	-56.15
890.638	-31.57
890.809	50.35
890.98	11.43
891.151	42.15
891.323	29.87
891.494	36.01
891.665	9.39
891.836	46.25
892.007	-15.19
892.178	58.54
892.349	-25.43
892.52	-52.05
892.691	15.53
892.862	44.2
893.032	-19.29
893.203	-15.19
893.374	-47.96
893.545	-41.81
893.716	23.72
893.887	58.54
894.057	-41.81
894.228	-4.95
894.399	-4.95
894.57	27.82
894.74	-50
894.911	29.87
895.082	-15.19
895.253	-58.2
895.423	-13.14
895.594	31.91
895.764	31.91
895.935	-35.67
896.106	-7
896.276	-4.95
896.447	42.15
896.617	-25.43
896.788	17.58
896.958	29.87
897.129	-2.9
897.299	1.19
897.47	21.67
897.64	-7
897.81	-4.95
897.981	23.72
898.151	-29.52
898.322	15.53
898.492	15.53
898.662	-29.52
898.832	-27.48
899.003	68.78
899.173	17.58
899.343	-45.91
899.513	-37.72
