Data from USB4F104151__252__11-11-44-189.txt Node

Date: Wed Mar 12 11:11:44 EDT 2025
User: louis
Spectrometer: USB4F10415
Trigger mode: 4
Integration Time (sec): 2.000000E-2
Scans to average: 1
Electric dark correction enabled: true
Nonlinearity correction enabled: false
Boxcar width: 0
XAxis mode: Wavelengths
Number of Pixels in Spectrum: 3648
>>>>>Begin Spectral Data<<<<<
178.204	-82.43
178.424	-82.43
178.644	-82.43
178.864	-57.86
179.084	-72.19
179.304	3.58
179.524	-55.81
179.744	28.16
179.964	30.21
180.184	11.78
180.404	58.88
180.624	3.58
180.844	-2.56
181.064	-6.66
181.283	-2.56
181.503	-72.19
181.723	3.58
181.943	-39.42
182.163	28.16
182.383	-6.66
182.602	15.87
182.822	28.16
183.042	-6.66
183.262	-31.23
183.482	32.26
183.701	71.17
183.921	89.6
184.141	-29.18
184.361	24.06
184.58	-18.94
184.8	56.83
185.02	56.83
185.239	38.4
185.459	-39.42
185.679	17.92
185.898	7.68
186.118	124.41
186.338	26.11
186.557	-2.56
186.777	46.59
186.997	-76.29
187.216	32.26
187.436	52.74
187.655	-8.7
187.875	1.54
188.095	-18.94
188.314	67.07
188.534	95.74
188.753	1.54
188.973	48.64
189.192	62.98
189.412	30.21
189.631	-20.99
189.851	69.12
190.07	54.78
190.29	-2.56
190.509	75.26
190.729	38.4
190.948	42.5
191.168	52.74
191.387	75.26
191.607	-18.94
191.826	91.65
192.045	32.26
192.265	15.87
192.484	-6.66
192.704	19.97
192.923	5.63
193.142	87.55
193.362	13.82
193.581	-0.51
193.8	-16.9
194.02	22.02
194.239	-64
194.458	5.63
194.678	22.02
194.897	62.98
195.116	-39.42
195.335	-0.51
195.555	15.87
195.774	62.98
195.993	50.69
196.212	-39.42
196.432	13.82
196.651	50.69
196.87	-0.51
197.089	19.97
197.308	128.51
197.528	36.35
197.747	-68.09
197.966	-12.8
198.185	44.54
198.404	108.03
198.623	60.93
198.842	-2.56
199.062	38.4
199.281	73.21
199.5	-4.61
199.719	-33.28
199.938	48.64
200.157	62.98
200.376	65.02
200.595	13.82
200.814	-4.61
201.033	54.78
201.252	3.58
201.471	73.21
201.69	22.02
201.909	46.59
202.128	110.08
202.347	75.26
202.566	38.4
202.785	40.45
203.004	-29.18
203.223	1.54
203.442	50.69
203.661	52.74
203.879	60.93
204.098	58.88
204.317	24.06
204.536	17.92
204.755	-2.56
204.974	13.82
205.193	-10.75
205.411	56.83
205.63	65.02
205.849	7.68
206.068	17.92
206.287	75.26
206.505	30.21
206.724	17.92
206.943	-6.66
207.162	-0.51
207.381	-41.47
207.599	-16.9
207.818	5.63
208.037	42.5
208.255	13.82
208.474	52.74
208.693	67.07
208.911	-27.14
209.13	32.26
209.349	42.5
209.567	54.78
209.786	110.08
210.005	97.79
210.223	-43.52
210.442	11.78
210.661	13.82
210.879	71.17
211.098	1.54
211.316	3.58
211.535	99.84
211.753	26.11
211.972	44.54
212.191	60.93
212.409	-8.7
212.628	54.78
212.846	-0.51
213.065	22.02
213.283	19.97
213.502	-45.57
213.72	1.54
213.938	15.87
214.157	5.63
214.375	60.93
214.594	11.78
214.812	-29.18
215.031	26.11
215.249	-43.52
215.467	28.16
215.686	69.12
215.904	75.26
216.122	3.58
216.341	17.92
216.559	75.26
216.778	52.74
216.996	3.58
217.214	40.45
217.432	30.21
217.651	65.02
217.869	-2.56
218.087	103.93
218.306	19.97
218.524	42.5
218.742	65.02
218.96	-2.56
219.179	38.4
219.397	42.5
219.615	87.55
219.833	48.64
220.051	15.87
220.27	58.88
220.488	9.73
220.706	65.02
220.924	22.02
221.142	1.54
221.36	22.02
221.578	73.21
221.796	44.54
222.015	44.54
222.233	26.11
222.451	83.45
222.669	24.06
222.887	69.12
223.105	1.54
223.323	56.83
223.541	-2.56
223.759	-2.56
223.977	71.17
224.195	38.4
224.413	-20.99
224.631	95.74
224.849	42.5
225.067	-37.38
225.285	54.78
225.503	50.69
225.721	9.73
225.939	42.5
226.157	-35.33
226.375	75.26
226.592	11.78
226.81	50.69
227.028	42.5
227.246	17.92
227.464	24.06
227.682	19.97
227.9	-20.99
228.117	-10.75
228.335	44.54
228.553	34.3
228.771	-29.18
228.989	52.74
229.206	26.11
229.424	42.5
229.642	30.21
229.86	-8.7
230.077	-43.52
230.295	-27.14
230.513	5.63
230.731	3.58
230.948	15.87
231.166	58.88
231.384	114.17
231.601	-14.85
231.819	89.6
232.037	-31.23
232.254	-14.85
232.472	62.98
232.689	-2.56
232.907	28.16
233.125	95.74
233.342	52.74
233.56	32.26
233.777	26.11
233.995	15.87
234.213	3.58
234.43	71.17
234.648	62.98
234.865	22.02
235.083	38.4
235.3	71.17
235.518	38.4
235.735	30.21
235.953	79.36
236.17	-18.94
236.388	118.27
236.605	24.06
236.822	13.82
237.04	-2.56
237.257	-31.23
237.475	22.02
237.692	34.3
237.909	5.63
238.127	50.69
238.344	-4.61
238.562	30.21
238.779	5.63
238.996	-23.04
239.214	69.12
239.431	38.4
239.648	15.87
239.865	9.73
240.083	52.74
240.3	58.88
240.517	-41.47
240.735	30.21
240.952	34.3
241.169	67.07
241.386	-0.51
241.603	-64
241.821	-6.66
242.038	46.59
242.255	32.26
242.472	22.02
242.689	101.89
242.907	17.92
243.124	50.69
243.341	50.69
243.558	-4.61
243.775	67.07
243.992	-8.7
244.209	24.06
244.426	75.26
244.643	3.58
244.86	9.73
245.078	101.89
245.295	36.35
245.512	134.65
245.729	58.88
245.946	50.69
246.163	69.12
246.38	-6.66
246.597	13.82
246.814	87.55
247.031	-10.75
247.248	46.59
247.464	73.21
247.681	40.45
247.898	9.73
248.115	-27.14
248.332	30.21
248.549	118.27
248.766	38.4
248.983	62.98
249.2	26.11
249.417	93.69
249.633	62.98
249.85	112.13
250.067	-41.47
250.284	93.69
250.501	-39.42
250.717	40.45
250.934	52.74
251.151	50.69
251.368	22.02
251.585	-14.85
251.801	99.84
252.018	38.4
252.235	34.3
252.451	28.16
252.668	9.73
252.885	-35.33
253.102	28.16
253.318	62.98
253.535	26.11
253.752	87.55
253.968	-35.33
254.185	62.98
254.401	15.87
254.618	-4.61
254.835	-25.09
255.051	77.31
255.268	44.54
255.484	44.54
255.701	-64
255.917	56.83
256.134	3.58
256.351	19.97
256.567	-6.66
256.784	-20.99
257	3.58
257.217	62.98
257.433	48.64
257.65	5.63
257.866	81.41
258.082	81.41
258.299	11.78
258.515	7.68
258.732	-6.66
258.948	-16.9
259.165	-20.99
259.381	30.21
259.597	40.45
259.814	-8.7
260.03	3.58
260.246	7.68
260.463	15.87
260.679	114.17
260.895	-6.66
261.112	71.17
261.328	-10.75
261.544	22.02
261.761	22.02
261.977	58.88
262.193	-4.61
262.409	54.78
262.626	142.85
262.842	124.41
263.058	19.97
263.274	42.5
263.49	48.64
263.707	19.97
263.923	26.11
264.139	-6.66
264.355	38.4
264.571	95.74
264.787	42.5
265.004	120.32
265.22	13.82
265.436	17.92
265.652	28.16
265.868	87.55
266.084	17.92
266.3	-2.56
266.516	17.92
266.732	50.69
266.948	89.6
267.164	-2.56
267.38	75.26
267.596	28.16
267.812	93.69
268.028	36.35
268.244	69.12
268.46	93.69
268.676	-16.9
268.892	95.74
269.108	-14.85
269.324	-0.51
269.54	15.87
269.756	-25.09
269.972	-29.18
270.188	28.16
270.403	65.02
270.619	-18.94
270.835	17.92
271.051	-8.7
271.267	1.54
271.483	65.02
271.698	67.07
271.914	22.02
272.13	62.98
272.346	-43.52
272.562	-10.75
272.777	-10.75
272.993	-70.14
273.209	-45.57
273.425	114.17
273.64	42.5
273.856	22.02
274.072	9.73
274.287	52.74
274.503	50.69
274.719	-10.75
274.934	99.84
275.15	46.59
275.366	-33.28
275.581	28.16
275.797	112.13
276.012	34.3
276.228	15.87
276.444	13.82
276.659	93.69
276.875	17.92
277.09	38.4
277.306	5.63
277.521	17.92
277.737	28.16
277.952	73.21
278.168	1.54
278.383	40.45
278.599	-12.8
278.814	42.5
279.03	-25.09
279.245	79.36
279.461	-59.9
279.676	13.82
279.892	24.06
280.107	15.87
280.322	52.74
280.538	-29.18
280.753	-27.14
280.969	38.4
281.184	71.17
281.399	58.88
281.615	3.58
281.83	13.82
282.045	-80.38
282.26	60.93
282.476	48.64
282.691	58.88
282.906	32.26
283.122	7.68
283.337	52.74
283.552	130.56
283.767	30.21
283.983	52.74
284.198	19.97
284.413	11.78
284.628	30.21
284.843	11.78
285.058	52.74
285.274	15.87
285.489	-90.62
285.704	58.88
285.919	15.87
286.134	11.78
286.349	79.36
286.564	-14.85
286.779	110.08
286.995	44.54
287.21	36.35
287.425	85.5
287.64	15.87
287.855	85.5
288.07	-31.23
288.285	46.59
288.5	-2.56
288.715	13.82
288.93	42.5
289.145	1.54
289.36	40.45
289.575	9.73
289.79	5.63
290.004	38.4
290.219	19.97
290.434	44.54
290.649	-39.42
290.864	-2.56
291.079	-37.38
291.294	13.82
291.509	-29.18
291.724	46.59
291.938	-0.51
292.153	24.06
292.368	48.64
292.583	79.36
292.798	13.82
293.012	-2.56
293.227	42.5
293.442	17.92
293.657	-16.9
293.871	-0.51
294.086	17.92
294.301	19.97
294.516	56.83
294.73	71.17
294.945	77.31
295.16	-29.18
295.374	42.5
295.589	91.65
295.804	11.78
296.018	15.87
296.233	50.69
296.447	17.92
296.662	-31.23
296.877	46.59
297.091	69.12
297.306	-12.8
297.52	13.82
297.735	9.73
297.949	5.63
298.164	13.82
298.378	52.74
298.593	52.74
298.807	40.45
299.022	5.63
299.236	118.27
299.451	3.58
299.665	65.02
299.88	-29.18
300.094	1.54
300.309	5.63
300.523	-2.56
300.737	-4.61
300.952	-29.18
301.166	15.87
301.381	-2.56
301.595	-6.66
301.809	50.69
302.024	11.78
302.238	22.02
302.452	46.59
302.667	5.63
302.881	7.68
303.095	79.36
303.309	42.5
303.524	-2.56
303.738	26.11
303.952	30.21
304.166	34.3
304.381	11.78
304.595	48.64
304.809	79.36
305.023	-33.28
305.237	30.21
305.452	50.69
305.666	26.11
305.88	50.69
306.094	28.16
306.308	75.26
306.522	48.64
306.736	26.11
306.95	52.74
307.164	9.73
307.379	56.83
307.593	-10.75
307.807	54.78
308.021	1.54
308.235	132.61
308.449	13.82
308.663	54.78
308.877	95.74
309.091	71.17
309.305	32.26
309.519	7.68
309.733	46.59
309.947	13.82
310.161	56.83
310.374	54.78
310.588	-41.47
310.802	46.59
311.016	75.26
311.23	15.87
311.444	40.45
311.658	-16.9
311.872	40.45
312.085	9.73
312.299	52.74
312.513	11.78
312.727	-8.7
312.941	52.74
313.154	30.21
313.368	-0.51
313.582	44.54
313.796	42.5
314.009	34.3
314.223	28.16
314.437	116.22
314.651	46.59
314.864	56.83
315.078	-18.94
315.292	60.93
315.505	40.45
315.719	134.65
315.933	-10.75
316.146	32.26
316.36	44.54
316.573	15.87
316.787	44.54
317.001	110.08
317.214	93.69
317.428	-37.38
317.641	69.12
317.855	-10.75
318.068	38.4
318.282	36.35
318.495	26.11
318.709	44.54
318.922	-23.04
319.136	95.74
319.349	36.35
319.563	-20.99
319.776	15.87
319.99	28.16
320.203	19.97
320.417	17.92
320.63	-59.9
320.843	24.06
321.057	-35.33
321.27	26.11
321.483	13.82
321.697	85.5
321.91	38.4
322.124	71.17
322.337	-33.28
322.55	-18.94
322.763	56.83
322.977	120.32
323.19	7.68
323.403	67.07
323.617	5.63
323.83	9.73
324.043	69.12
324.256	75.26
324.469	79.36
324.683	30.21
324.896	32.26
325.109	36.35
325.322	22.02
325.535	73.21
325.748	-76.29
325.962	83.45
326.175	-6.66
326.388	-8.7
326.601	87.55
326.814	-10.75
327.027	3.58
327.24	85.5
327.453	34.3
327.666	71.17
327.879	44.54
328.092	50.69
328.305	26.11
328.518	34.3
328.731	9.73
328.944	-4.61
329.157	-43.52
329.37	120.32
329.583	81.41
329.796	13.82
330.009	50.69
330.222	79.36
330.435	52.74
330.648	48.64
330.861	42.5
331.073	15.87
331.286	-20.99
331.499	48.64
331.712	26.11
331.925	11.78
332.138	120.32
332.35	58.88
332.563	-61.95
332.776	5.63
332.989	54.78
333.202	22.02
333.414	101.89
333.627	48.64
333.84	36.35
334.053	52.74
334.265	28.16
334.478	17.92
334.691	52.74
334.903	22.02
335.116	42.5
335.329	-10.75
335.541	132.61
335.754	81.41
335.966	26.11
336.179	79.36
336.392	-0.51
336.604	7.68
336.817	-8.7
337.029	87.55
337.242	112.13
337.454	15.87
337.667	132.61
337.88	97.79
338.092	87.55
338.305	-2.56
338.517	26.11
338.729	69.12
338.942	28.16
339.154	95.74
339.367	97.79
339.579	-2.56
339.792	52.74
340.004	89.6
340.217	85.5
340.429	22.02
340.641	13.82
340.854	26.11
341.066	71.17
341.278	58.88
341.491	52.74
341.703	32.26
341.915	79.36
342.128	36.35
342.34	19.97
342.552	5.63
342.764	-51.71
342.977	24.06
343.189	91.65
343.401	52.74
343.613	-20.99
343.826	54.78
344.038	42.5
344.25	79.36
344.462	-39.42
344.674	42.5
344.886	-43.52
345.099	122.37
345.311	13.82
345.523	83.45
345.735	52.74
345.947	93.69
346.159	60.93
346.371	118.27
346.583	108.03
346.795	52.74
347.007	15.87
347.219	40.45
347.431	89.6
347.643	101.89
347.855	13.82
348.067	124.41
348.279	1.54
348.491	15.87
348.703	3.58
348.915	97.79
349.127	22.02
349.339	30.21
349.551	54.78
349.763	67.07
349.975	48.64
350.187	24.06
350.399	7.68
350.61	40.45
350.822	44.54
351.034	-6.66
351.246	75.26
351.458	19.97
351.669	79.36
351.881	46.59
352.093	46.59
352.305	134.65
352.517	75.26
352.728	54.78
352.94	-18.94
353.152	-66.05
353.363	32.26
353.575	34.3
353.787	60.93
353.999	38.4
354.21	58.88
354.422	-6.66
354.633	30.21
354.845	44.54
355.057	50.69
355.268	65.02
355.48	17.92
355.692	81.41
355.903	40.45
356.115	15.87
356.326	28.16
356.538	81.41
356.749	36.35
356.961	75.26
357.172	103.93
357.384	69.12
357.595	91.65
357.807	7.68
358.018	-12.8
358.23	48.64
358.441	118.27
358.653	5.63
358.864	58.88
359.075	26.11
359.287	38.4
359.498	-2.56
359.709	73.21
359.921	116.22
360.132	36.35
360.344	73.21
360.555	30.21
360.766	24.06
360.977	75.26
361.189	24.06
361.4	46.59
361.611	38.4
361.823	46.59
362.034	83.45
362.245	7.68
362.456	24.06
362.667	97.79
362.879	44.54
363.09	26.11
363.301	85.5
363.512	56.83
363.723	1.54
363.935	22.02
364.146	-8.7
364.357	56.83
364.568	-18.94
364.779	17.92
364.99	-8.7
365.201	71.17
365.412	67.07
365.623	-23.04
365.834	1.54
366.045	54.78
366.256	44.54
366.467	13.82
366.678	22.02
366.889	36.35
367.1	38.4
367.311	17.92
367.522	81.41
367.733	26.11
367.944	34.3
368.155	-16.9
368.366	52.74
368.577	38.4
368.788	15.87
368.999	34.3
369.209	28.16
369.42	110.08
369.631	124.41
369.842	87.55
370.053	34.3
370.264	56.83
370.474	36.35
370.685	13.82
370.896	-10.75
371.107	-35.33
371.317	56.83
371.528	-43.52
371.739	26.11
371.95	38.4
372.16	42.5
372.371	-2.56
372.582	44.54
372.792	15.87
373.003	-43.52
373.214	75.26
373.424	87.55
373.635	56.83
373.846	87.55
374.056	-16.9
374.267	71.17
374.477	50.69
374.688	73.21
374.898	30.21
375.109	22.02
375.319	42.5
375.53	48.64
375.74	103.93
375.951	75.26
376.161	36.35
376.372	54.78
376.582	77.31
376.793	173.57
377.003	83.45
377.214	75.26
377.424	97.79
377.635	62.98
377.845	-39.42
378.055	44.54
378.266	34.3
378.476	87.55
378.686	54.78
378.897	87.55
379.107	60.93
379.317	81.41
379.528	60.93
379.738	144.89
379.948	46.59
380.158	19.97
380.369	75.26
380.579	81.41
380.789	99.84
380.999	124.41
381.21	116.22
381.42	36.35
381.63	-20.99
381.84	44.54
382.05	17.92
382.261	112.13
382.471	26.11
382.681	22.02
382.891	54.78
383.101	71.17
383.311	83.45
383.521	42.5
383.731	13.82
383.941	30.21
384.151	30.21
384.361	95.74
384.571	101.89
384.781	3.58
384.991	40.45
385.201	144.89
385.411	79.36
385.621	22.02
385.831	11.78
386.041	71.17
386.251	32.26
386.461	97.79
386.671	22.02
386.881	-2.56
387.091	-4.61
387.301	83.45
387.511	38.4
387.72	77.31
387.93	26.11
388.14	93.69
388.35	52.74
388.56	48.64
388.769	144.89
388.979	89.6
389.189	50.69
389.399	112.13
389.609	54.78
389.818	73.21
390.028	130.56
390.238	171.52
390.447	58.88
390.657	32.26
390.867	1.54
391.076	9.73
391.286	120.32
391.496	44.54
391.705	3.58
391.915	140.8
392.125	71.17
392.334	28.16
392.544	101.89
392.753	114.17
392.963	11.78
393.172	67.07
393.382	75.26
393.591	77.31
393.801	81.41
394.01	87.55
394.22	71.17
394.429	103.93
394.639	3.58
394.848	34.3
395.058	38.4
395.267	130.56
395.477	157.18
395.686	103.93
395.895	56.83
396.105	153.09
396.314	108.03
396.524	153.09
396.733	99.84
396.942	101.89
397.152	177.66
397.361	85.5
397.57	65.02
397.78	56.83
397.989	138.75
398.198	99.84
398.407	71.17
398.617	60.93
398.826	161.28
399.035	87.55
399.244	157.18
399.453	60.93
399.663	181.76
399.872	185.85
400.081	118.27
400.29	138.75
400.499	128.51
400.708	153.09
400.917	87.55
401.127	136.7
401.336	46.59
401.545	103.93
401.754	140.8
401.963	136.7
402.172	155.13
402.381	95.74
402.59	175.61
402.799	136.7
403.008	144.89
403.217	17.92
403.426	183.81
403.635	56.83
403.844	140.8
404.053	161.28
404.262	105.98
404.471	218.62
404.68	134.65
404.888	189.95
405.097	198.14
405.306	132.61
405.515	183.81
405.724	196.09
405.933	251.39
406.142	159.23
406.35	198.14
406.559	138.75
406.768	140.8
406.977	200.19
407.185	232.96
407.394	228.86
407.603	208.38
407.812	222.72
408.02	214.52
408.229	327.16
408.438	273.92
408.646	239.1
408.855	224.76
409.064	218.62
409.272	269.82
409.481	368.12
409.69	290.3
409.898	292.35
410.107	394.75
410.315	364.03
410.524	345.59
410.733	456.19
410.941	372.22
411.15	364.03
411.358	400.89
411.567	511.48
411.775	447.99
411.984	456.19
412.192	450.04
412.401	507.38
412.609	597.49
412.818	611.83
413.026	595.45
413.234	527.86
413.443	628.21
413.651	568.82
413.86	636.41
414.068	744.95
414.276	656.89
414.485	708.09
414.693	775.67
414.901	826.87
415.11	792.05
415.318	820.72
415.526	822.77
415.734	732.66
415.943	904.69
416.151	976.37
416.359	921.07
416.567	986.61
416.776	978.42
416.984	1099.25
417.192	1046
417.4	1062.38
417.608	1074.67
417.817	1142.25
418.025	1316.33
418.233	1363.44
418.441	1246.7
418.649	1385.96
418.857	1390.06
419.065	1533.42
419.273	1443.31
419.481	1484.27
419.689	1670.63
419.897	1756.65
420.105	1842.66
420.313	1789.41
420.521	1832.42
420.729	1863.14
420.937	1930.72
421.145	2084.32
421.353	2057.7
421.561	2186.72
421.769	2149.86
421.977	2315.74
422.185	2244.06
422.393	2405.85
422.601	2647.51
422.809	2633.18
423.017	2641.37
423.224	2731.48
423.432	2833.88
423.64	2805.21
423.848	3030.48
424.056	3018.19
424.263	3261.9
424.471	3282.38
424.679	3294.67
424.887	3610.06
425.094	3534.28
425.302	3587.53
425.51	3775.94
425.718	3837.38
425.925	3962.31
426.133	4050.37
426.341	4378.05
426.548	4588.99
426.756	4476.35
426.964	4482.49
427.171	4830.65
427.379	4978.1
427.586	5019.06
427.794	5133.75
428.001	5348.78
428.209	5703.08
428.417	5469.61
428.624	5969.32
428.832	5973.41
429.039	5871.01
429.247	5965.22
429.454	6526.36
429.662	6962.58
429.869	6413.73
430.076	6960.53
430.284	6700.44
430.491	6966.68
430.699	7406.99
430.906	7474.57
431.114	7536.01
431.321	7746.95
431.528	7998.85
431.736	8445.31
431.943	8881.53
432.15	8693.12
432.358	8560
432.565	9194.87
432.772	9135.48
432.979	9692.52
433.187	9545.07
433.394	9721.2
433.601	10440.03
433.808	10499.42
434.016	10595.68
434.223	10978.65
434.43	11609.42
434.637	11361.62
434.844	11967.82
435.052	12105.03
435.259	12248.39
435.466	12307.78
435.673	11920.71
435.88	13104.44
436.087	13743.41
436.294	13554.99
436.501	13260.09
436.708	13542.71
436.915	14017.83
437.122	14554.4
437.329	14621.98
437.537	14980.38
437.743	15486.23
437.95	15011.1
438.157	16147.72
438.364	16622.85
438.571	16561.41
438.778	16755.97
438.985	18181.35
439.192	17349.88
439.399	17861.87
439.606	17310.97
439.813	18480.36
440.02	19705.04
440.227	19399.9
440.433	19283.16
440.64	19756.24
440.847	19565.78
441.054	19977.42
441.261	21531.83
441.467	21327.03
441.674	21544.12
441.881	22060.21
442.088	22557.86
442.294	22113.45
442.501	22426.79
442.708	23430.3
442.914	24095.89
443.121	25078.91
443.328	24312.97
443.534	26109.04
443.741	25369.72
443.948	25183.36
444.154	26942.56
444.361	26838.12
444.568	27151.46
444.774	26924.13
444.981	27137.12
445.187	27923.54
445.394	29107.27
445.6	28931.14
445.807	31454.24
446.013	30131.25
446.22	30567.47
446.426	31853.59
446.633	32224.28
446.839	33176.58
447.046	31843.35
447.252	33903.61
447.459	33401.86
447.665	33539.07
447.871	35136.49
448.078	35931.1
448.284	34667.5
448.491	35415.01
448.697	36860.88
448.903	37350.34
449.11	37616.58
449.316	36735.95
449.522	37862.33
449.728	38509.49
449.935	39011.24
450.141	38845.36
450.347	39842.72
450.553	37960.64
450.76	39222.19
450.966	39861.15
451.172	39543.72
451.378	40434.58
451.584	40162.2
451.791	40438.68
451.997	40377.24
452.203	41108.36
452.409	41110.41
452.615	40915.86
452.821	39654.31
453.027	38964.14
453.233	41120.65
453.44	39685.03
453.646	39682.98
453.852	40006.56
454.058	40844.18
454.264	39132.07
454.47	40205.21
454.676	39410.6
454.882	40442.77
455.088	37037
455.294	37774.27
455.5	38161.34
455.705	38464.44
455.911	36824.01
456.117	35888.09
456.323	35822.56
456.529	33567.74
456.735	35228.65
456.941	34270.2
457.147	33367.04
457.352	32623.63
457.558	32390.16
457.764	32474.13
457.97	32013.34
458.176	31001.64
458.381	31118.37
458.587	29500.48
458.793	29432.89
458.999	28077.14
459.204	30022.71
459.41	29389.89
459.616	27081.83
459.821	27182.18
460.027	27204.7
460.233	26741.86
460.438	25302.14
460.644	25619.58
460.85	24173.71
461.055	23876.76
461.261	24020.11
461.466	22224.04
461.672	21638.33
461.878	22961.31
462.083	21542.07
462.289	21142.72
462.494	21050.56
462.7	20018.38
462.905	19266.78
463.111	20186.32
463.316	20182.22
463.522	19694.8
463.727	19932.37
463.932	19856.59
464.138	19752.15
464.343	19696.85
464.549	19080.41
464.754	19553.49
464.959	19358.94
465.165	19363.03
465.37	18709.73
465.575	17970.41
465.781	19031.26
465.986	19072.22
466.191	18248.94
466.397	17759.47
466.602	17159.42
466.807	17782
467.012	17640.69
467.218	17796.34
467.423	17458.42
467.628	17390.84
467.833	18156.78
468.038	17577.2
468.244	16919.81
468.449	17767.66
468.654	17229.05
468.859	16987.39
469.064	16882.94
469.269	16235.78
469.474	16475.4
469.679	16807.17
469.885	16239.88
470.09	16530.69
470.295	16258.31
470.5	15924.49
470.705	16321.8
470.91	15664.4
471.115	15373.59
471.32	15738.13
471.525	15559.95
471.73	14998.81
471.935	15121.69
472.139	14550.31
472.344	15076.63
472.549	14800.16
472.754	14566.69
472.959	14431.52
473.164	13894.96
473.369	13991.21
473.574	14339.37
473.778	14103.85
473.983	14157.1
474.188	14159.14
474.393	13624.62
474.598	13397.3
474.802	12991.8
475.007	13086.01
475.212	13083.96
475.417	12789.05
475.621	12664.13
475.826	12813.63
476.031	12424.51
476.235	12164.42
476.44	12428.61
476.645	12150.09
476.849	12217.67
477.054	11902.28
477.259	11892.04
477.463	11881.8
477.668	11724.11
477.872	11607.37
478.077	11523.41
478.282	11330.9
478.486	11259.22
478.691	11007.32
478.895	11042.14
479.1	11140.44
479.304	11142.49
479.509	10685.79
479.713	10718.56
479.918	10542.43
480.122	10317.15
480.326	10775.9
480.531	10675.55
480.735	10409.31
480.94	10554.72
481.144	10761.56
481.348	10112.36
481.553	10409.31
481.757	10227.04
481.961	10347.87
482.166	10380.64
482.37	10409.31
482.574	9909.61
482.778	10186.08
482.983	10452.32
483.187	10294.63
483.391	10229.09
483.595	10007.91
483.8	10001.77
484.004	10149.22
484.208	10202.47
484.412	10143.08
484.616	10296.67
484.821	10392.93
485.025	10132.84
485.229	10304.87
485.433	10253.67
485.637	9891.18
485.841	9997.67
486.045	9958.76
486.249	9997.67
486.453	9870.7
486.657	10323.3
486.861	10233.19
487.065	9887.08
487.269	10214.76
487.473	10073.45
487.677	10255.72
487.881	10292.58
488.085	10120.55
488.289	10048.87
488.493	9919.85
488.697	10308.96
488.901	10171.75
489.105	10091.88
489.309	10220.9
489.512	10188.13
489.716	10188.13
489.92	10239.33
490.124	10098.02
490.328	10306.91
490.531	10403.17
490.735	10311.01
490.939	10464.61
491.143	10290.53
491.346	10335.59
491.55	10603.87
491.754	10521.95
491.958	10546.53
492.161	10571.1
492.365	10698.08
492.569	10589.53
492.772	10470.75
492.976	10753.37
493.18	10614.11
493.383	10861.91
493.587	10952.02
493.79	11091.29
493.994	10845.53
494.197	11105.62
494.401	11132.25
494.605	11265.36
494.808	11158.87
495.012	11394.39
495.215	11353.43
495.419	11730.25
495.622	11472.21
495.825	11656.53
496.029	11681.1
496.232	12035.4
496.436	11709.77
496.639	12377.41
496.843	11988.3
497.046	12340.55
497.249	12465.47
497.453	12477.76
497.656	12588.35
497.859	12469.57
498.063	12895.55
498.266	13098.3
498.469	13004.09
498.673	13165.88
498.876	13395.25
499.079	13589.81
499.282	13669.68
499.485	13876.52
499.689	13862.19
499.892	14003.5
500.095	13935.92
500.298	14417.19
500.501	14294.31
500.705	14675.23
500.908	14757.15
501.111	15007
501.314	15146.26
501.517	15289.62
501.72	15152.41
501.923	15314.2
502.126	15762.7
502.329	15904.01
502.532	15977.74
502.735	16119.05
502.938	16456.96
503.141	16483.59
503.344	16653.57
503.547	16616.71
503.75	17222.91
503.953	16977.15
504.156	17458.42
504.359	17706.23
504.562	17579.25
504.765	18226.41
504.968	18060.52
505.17	18324.71
505.373	18210.03
505.576	18697.44
505.779	18971.87
505.982	18945.25
506.185	19516.63
506.387	19475.67
506.59	19426.52
506.793	20020.43
506.996	19825.87
507.198	20301
507.401	20421.83
507.604	20536.52
507.807	20915.39
508.009	20823.23
508.212	21161.15
508.415	21589.17
508.617	21546.17
508.82	21722.29
509.022	21986.48
509.225	22203.57
509.428	22441.13
509.63	22547.62
509.833	22863.01
510.035	23284.89
510.238	22979.75
510.44	23403.67
510.643	23628.95
510.845	23805.08
511.048	23981.2
511.25	24398.99
511.453	24593.54
511.655	25392.25
511.858	25013.38
512.06	25470.08
512.262	25623.67
512.465	25476.22
512.667	26035.31
512.87	26059.89
513.072	26070.13
513.274	26547.31
513.477	26811.49
513.679	26977.38
513.881	27446.37
514.084	27575.39
514.286	27597.91
514.488	27798.62
514.69	28626
514.893	28746.83
515.095	28652.62
515.297	29023.3
515.499	29203.52
515.701	29195.33
515.904	29836.34
516.106	29715.51
516.308	30331.95
516.51	30893.1
516.712	30354.48
516.914	30551.09
517.116	31300.64
517.318	31542.3
517.52	31362.08
517.722	31988.76
517.925	32496.66
518.127	32517.14
518.329	32750.6
518.531	32572.43
518.733	32934.92
518.935	33502.21
519.136	33483.78
519.338	33758.2
519.54	33913.85
519.742	34135.03
519.944	34456.56
520.146	34950.12
520.348	35146.73
520.55	35419.11
520.752	35396.58
520.954	35812.32
521.155	36070.36
521.357	36043.74
521.559	36467.67
521.761	36860.88
521.963	36584.4
522.164	37430.21
522.366	37317.57
522.568	37723.07
522.77	37727.17
522.971	38206.39
523.173	38175.67
523.375	38525.88
523.576	38446.01
523.778	38734.77
523.98	39437.22
524.181	39189.42
524.383	39156.65
524.584	40364.95
524.786	39717.79
524.988	40070.04
525.189	39822.24
525.391	40510.36
525.592	40565.65
525.794	40844.18
525.995	40479.64
526.197	40541.08
526.398	40674.2
526.6	41470.86
526.801	41573.25
527.003	41565.06
527.204	41728.9
527.406	41941.89
527.607	42077.05
527.808	41825.15
528.01	41755.52
528.211	42494.84
528.412	42462.07
528.614	42560.37
528.815	42769.27
529.016	42965.87
529.218	42752.88
529.419	43002.74
529.62	43133.81
529.822	43146.09
530.023	42589.05
530.224	42742.64
530.425	42826.61
530.626	42683.25
530.828	43025.26
531.029	43899.75
531.23	42838.9
531.431	43502.44
531.632	43324.27
531.833	43340.65
532.035	43510.63
532.236	43656.04
532.437	44172.13
532.638	43318.12
532.839	43858.79
533.04	43793.25
533.241	43680.61
533.442	44524.38
533.643	43740
533.844	43920.23
534.045	44049.25
534.246	43371.37
534.447	43830.12
534.648	43674.47
534.849	44235.61
535.05	43719.52
535.251	43981.66
535.451	43838.31
535.652	44010.34
535.853	43877.22
536.054	44254.04
536.255	43797.35
536.456	43563.88
536.657	44573.53
536.857	43940.71
537.058	43490.15
537.259	44122.97
537.46	43580.26
537.66	43830.12
537.861	43871.07
538.062	43768.68
538.263	44215.13
538.463	43758.44
538.664	43871.07
538.865	44096.35
539.065	43926.37
539.266	43567.98
539.466	44211.04
539.667	43547.5
539.868	44442.46
540.068	43912.03
540.269	43973.47
540.469	44249.95
540.67	43780.96
540.87	43473.77
541.071	43758.44
541.271	43903.84
541.472	43703.14
541.672	43649.89
541.873	43508.58
542.073	43164.53
542.274	43893.6
542.474	43768.68
542.675	43498.34
542.875	43932.51
543.075	43776.87
543.276	43318.12
543.476	44163.93
543.676	43119.47
543.877	43676.52
544.077	43916.13
544.277	43772.77
544.478	43676.52
544.678	43768.68
544.878	43354.99
545.078	43637.61
545.279	43135.85
545.479	43391.85
545.679	43467.62
545.879	43393.9
546.079	43531.11
546.28	42902.39
546.48	43029.36
546.68	43410.28
546.88	43094.89
547.08	43385.71
547.28	42959.73
547.48	43350.89
547.68	43156.33
547.88	43088.75
548.081	43404.14
548.281	43770.72
548.481	42939.25
548.681	43260.78
548.881	43449.19
549.081	43367.27
549.28	42871.67
549.48	43043.7
549.68	42900.34
549.88	43586.41
550.08	42802.03
550.28	43219.82
550.48	42851.19
550.68	43545.45
550.88	43105.13
551.08	42605.43
551.279	43328.36
551.479	42765.17
551.679	43109.23
551.879	42945.39
552.079	43178.86
552.278	43031.41
552.478	42619.77
552.678	42957.68
552.878	42916.72
553.077	42869.62
553.277	42169.21
553.477	42875.76
553.676	42539.89
553.876	42244.99
554.076	42507.13
554.275	43002.74
554.475	42058.62
554.674	42435.45
554.874	42711.92
555.074	42281.85
555.273	42627.96
555.473	42765.17
555.672	41980.8
555.872	42367.87
556.071	42056.57
556.271	42507.13
556.47	41929.6
556.67	41565.06
556.869	41659.27
557.068	42441.59
557.268	41919.36
557.467	42130.3
557.667	42013.57
557.866	41622.4
558.065	41298.83
558.265	41544.58
558.464	41493.38
558.663	41825.15
558.863	41048.97
559.062	41792.39
559.261	41081.74
559.461	42273.66
559.66	40922
559.859	41581.45
560.058	40977.29
560.258	41360.26
560.457	40881.04
560.656	41524.1
560.855	41079.69
561.054	41380.74
561.253	40795.03
561.453	41415.56
561.652	41028.49
561.851	40846.22
562.05	40563.61
562.249	40141.72
562.448	40709.01
562.647	40573.84
562.846	40137.63
563.045	40536.98
563.244	39850.91
563.443	40670.1
563.642	39766.95
563.841	40227.74
564.04	39992.22
564.239	40377.24
564.438	39371.69
564.637	39795.62
564.836	39912.35
565.035	39111.6
565.234	39850.91
565.432	39203.75
565.631	39795.62
565.83	39527.33
566.029	39250.86
566.228	38955.95
566.427	39123.88
566.625	38714.29
566.824	38687.67
567.023	39414.69
567.222	38374.33
567.42	39066.54
567.619	38665.14
567.818	38466.49
568.016	38558.64
568.215	38665.14
568.414	38394.81
568.612	38622.13
568.811	38503.35
569.01	38337.46
569.208	37518.28
569.407	38329.27
569.605	37505.99
569.804	37999.55
570.002	37395.4
570.201	37755.84
570.4	37389.25
570.598	37481.41
570.797	37131.21
570.995	37493.7
571.193	36969.42
571.392	37518.28
571.59	36948.94
571.789	37063.63
571.987	36709.33
572.186	36787.15
572.384	36674.51
572.582	36852.69
572.781	36684.75
572.979	36250.58
573.177	36697.04
573.376	36742.1
573.574	35824.61
573.772	36471.76
573.971	35849.18
574.169	35953.63
574.367	35677.15
574.565	35840.99
574.763	35888.09
574.962	35744.73
575.16	35339.24
575.358	35466.21
575.556	34749.42
575.754	35550.18
575.952	35101.67
576.151	35220.45
576.349	34673.65
576.547	34868.2
576.745	35154.92
576.943	35126.25
577.141	34800.62
577.339	34917.36
577.537	34601.97
577.735	34599.92
577.933	34069.5
578.131	34401.27
578.329	33997.82
578.527	33661.95
578.725	34012.15
578.923	34110.46
579.121	33442.82
579.319	33553.41
579.516	34081.78
579.714	34087.93
579.912	33403.91
580.11	33465.35
580.308	33633.28
580.506	33270.79
580.704	32762.89
580.901	33135.62
581.099	33201.16
581.297	32939.02
581.495	32807.95
581.692	32902.15
581.89	32611.34
582.088	33412.1
582.285	32267.28
582.483	32853
582.681	32523.28
582.878	32330.77
583.076	32199.7
583.274	32201.75
583.471	32404.5
583.669	32146.45
583.866	31890.46
584.064	32132.12
584.262	31364.13
584.459	32019.48
584.657	31540.25
584.854	31743
585.052	31056.93
585.249	31405.09
585.447	31136.8
585.644	31190.05
585.841	31122.47
586.039	31271.97
586.236	30981.16
586.434	30917.67
586.631	30819.37
586.828	30831.66
587.026	30858.28
587.223	30401.58
587.42	30755.88
587.618	30442.54
587.815	30094.39
588.012	30305.33
588.21	30184.5
588.407	30106.68
588.604	29922.36
588.801	29557.82
588.999	29991.99
589.196	29711.42
589.393	29572.16
589.59	29232.19
589.787	29336.64
589.984	29512.77
590.182	29199.43
590.379	29199.43
590.576	28988.49
590.773	29453.37
590.97	28752.97
591.167	29113.41
591.364	28730.44
591.561	29058.12
591.758	28406.86
591.955	28787.78
592.152	28865.61
592.349	28419.15
592.546	28576.84
592.743	28482.64
592.94	27817.05
593.137	28218.45
593.334	28060.76
593.531	27733.08
593.727	27968.6
593.924	27749.46
594.121	27479.13
594.318	27724.89
594.515	27440.22
594.712	27864.15
594.908	27270.24
595.105	27632.73
595.302	26780.78
595.499	27159.65
595.696	26967.14
595.892	26956.9
596.089	27004
596.286	27096.16
596.482	26748.01
596.679	26770.54
596.876	26670.19
597.072	26487.92
597.269	26500.2
597.466	26524.78
597.662	26094.71
597.859	26356.85
598.055	26225.78
598.252	25906.29
598.448	26150
598.645	25836.66
598.841	25662.58
599.038	25830.52
599.234	25433.21
599.431	25480.32
599.627	25803.89
599.824	25793.65
600.02	25554.04
600.217	25590.91
600.413	25011.33
600.609	25185.41
600.806	25005.19
601.002	25382.01
601.198	24728.71
601.395	25193.6
601.591	24808.58
601.787	24829.06
601.984	24575.11
602.18	24792.2
602.376	24415.37
602.572	24134.8
602.769	24386.7
602.965	24165.52
603.161	24403.08
603.357	24329.36
603.553	24089.74
603.75	24220.81
603.946	23821.46
604.142	23964.82
604.338	23843.99
604.534	23938.19
604.73	23334.04
604.926	23700.63
605.122	23725.21
605.318	23319.71
605.514	23147.68
605.71	23127.2
605.906	23008.42
606.102	23037.09
606.298	23329.95
606.494	23110.82
606.69	23108.77
606.886	23213.21
607.082	22607.02
607.278	22998.18
607.474	22351.02
607.67	22736.04
607.866	22512.81
608.062	22881.44
608.257	22443.18
608.453	22598.82
608.649	22746.28
608.845	22383.79
609.041	22230.19
609.236	22541.48
609.432	22383.79
609.628	22088.88
609.824	22193.33
610.019	22207.66
610.215	22103.21
610.411	22199.47
610.606	21691.57
610.802	22049.97
610.998	21990.58
611.193	21984.43
611.389	21705.91
611.584	21677.24
611.78	21699.76
611.976	21812.4
612.171	21552.31
612.367	21806.26
612.562	21398.71
612.758	21372.09
612.953	21245.12
613.149	21787.83
613.344	21144.77
613.539	21548.22
613.735	21267.64
613.93	21619.89
614.126	21046.46
614.321	21331.13
614.517	21198.01
614.712	21052.61
614.907	21222.59
615.103	21177.53
615.298	20880.58
615.493	21036.22
615.688	20915.39
615.884	21112
616.079	20593.86
616.274	20933.82
616.47	20833.47
616.665	20776.13
616.86	20880.58
617.055	20698.31
617.25	20532.42
617.445	20540.61
617.641	20233.42
617.836	20569.29
618.031	20292.81
618.226	20686.02
618.421	20030.67
618.616	20614.34
618.811	19758.29
619.006	20481.22
619.201	19903.7
619.396	20303.05
619.591	20110.54
619.786	19954.9
619.981	19809.49
620.176	19717.33
620.371	19408.09
620.566	19614.93
620.761	19317.98
620.956	19543.25
621.151	19219.67
621.346	19256.54
621.541	18810.08
621.735	19193.05
621.93	18865.38
622.125	19162.33
622.32	18779.36
622.515	18750.69
622.709	18545.89
622.904	18418.92
623.099	18255.08
623.294	18332.9
623.488	18013.42
623.683	17962.22
623.878	17906.93
624.072	17878.26
624.267	17876.21
624.462	17765.62
624.656	17319.16
624.851	17302.78
625.046	17364.22
625.24	17288.44
625.435	17040.64
625.629	17200.38
625.824	17118.46
626.018	17147.13
626.213	16878.85
626.407	16938.24
626.602	16534.79
626.796	16518.4
626.991	16665.86
627.185	16606.47
627.38	16540.93
627.574	16186.63
627.768	15994.12
627.963	16065.8
628.157	15846.67
628.352	16102.67
628.546	15617.3
628.74	15863.05
628.935	15600.91
629.129	15547.67
629.323	15564.05
629.517	15654.16
629.712	15201.56
629.906	15246.62
630.1	15021.34
630.294	15099.16
630.489	15277.33
630.683	15011.1
630.877	14888.22
631.071	14832.93
631.265	14863.65
631.459	14638.37
631.653	14605.6
631.848	14607.65
632.042	14347.56
632.236	14402.85
632.43	14148.9
632.624	14183.72
632.818	14159.14
633.012	13849.9
633.206	14148.9
633.4	13905.2
633.594	13598
633.788	13907.24
633.982	13810.99
634.176	13573.42
634.369	13352.24
634.563	13528.37
634.757	13450.55
634.951	13348.15
635.145	13245.75
635.339	13135.16
635.533	12989.75
635.726	12944.7
635.92	12889.4
636.114	12948.79
636.308	13032.76
636.501	12862.78
636.695	12827.96
636.889	12731.71
637.083	12328.26
637.276	12469.57
637.47	12584.26
637.664	12655.93
637.857	12512.58
638.051	12238.15
638.244	12268.87
638.438	12072.26
638.632	12203.33
638.825	11939.15
639.019	12121.42
639.212	11642.19
639.406	11908.43
639.599	11773.26
639.793	11830.6
639.986	11601.23
640.18	11699.53
640.373	11365.71
640.567	11457.87
640.76	11404.63
640.954	11337.04
641.147	11271.51
641.34	11158.87
641.534	11093.33
641.727	11103.57
641.92	11289.94
642.114	11175.25
642.307	10800.48
642.5	10874.2
642.694	10610.01
642.887	10870.11
643.08	10618.21
643.273	10636.64
643.467	10732.89
643.66	10444.13
643.853	10462.56
644.046	10366.31
644.239	10368.35
644.432	10188.13
644.626	10351.97
644.819	10181.99
645.012	10089.83
645.205	10278.24
645.398	10155.37
645.591	10036.58
645.784	9811.31
645.977	9872.75
646.17	9731.44
646.363	9768.3
646.556	9772.39
646.749	9678.19
646.942	9803.11
647.135	9323.89
647.328	9561.45
647.521	9307.51
647.714	9264.5
647.907	9504.11
648.099	9606.51
648.292	9479.54
648.485	9426.29
648.678	9309.55
648.871	9063.8
649.064	9016.69
649.256	9176.44
649.449	8969.59
649.642	9158
649.835	8815.99
650.027	8965.5
650.22	8758.65
650.413	8781.18
650.605	8930.68
650.798	8635.77
650.991	8566.14
651.183	8660.35
651.376	8615.29
651.568	8639.87
651.761	8443.26
651.954	8400.26
652.146	8514.94
652.339	8473.98
652.531	8256.9
652.724	8238.47
652.916	8224.13
653.109	8228.23
653.301	7970.18
653.494	8144.26
653.686	7785.87
653.879	7964.04
654.071	7937.41
654.263	7884.17
654.456	7910.79
654.648	8000.9
654.84	7777.67
655.033	7982.47
655.225	7794.06
655.417	7685.51
655.61	7579.02
655.802	7587.21
655.994	7591.31
656.186	7538.06
656.379	7478.67
656.571	7501.2
656.763	7363.98
656.955	7384.46
657.148	7224.72
657.34	7425.42
657.532	7206.29
657.724	7157.14
657.916	7169.43
658.108	7277.97
658.3	7034.26
658.492	7107.99
658.684	6970.77
658.876	7050.64
659.068	6925.72
659.26	6796.7
659.452	7019.92
659.644	6823.32
659.836	6733.21
660.028	6716.83
660.22	6630.81
660.412	6743.45
660.604	6477.21
660.796	6612.38
660.988	6716.83
661.18	6555.04
661.372	6477.21
661.563	6575.52
661.755	6696.35
661.947	6442.4
662.139	6452.64
662.331	6198.69
662.522	6331.81
662.714	6268.32
662.906	6141.35
663.097	6120.87
663.289	6274.46
663.481	6024.61
663.673	6210.98
663.864	6163.87
664.056	6276.51
664.247	5950.89
664.439	5856.68
664.631	6075.81
664.822	5856.68
665.014	5979.56
665.205	5957.03
665.397	5821.86
665.588	5860.77
665.78	5686.7
665.971	5744.04
666.163	5754.28
666.354	5727.66
666.546	5811.62
666.737	5672.36
666.929	5549.48
667.12	5735.85
667.311	5739.94
667.503	5385.65
667.694	5541.29
667.885	5483.95
668.077	5348.78
668.268	5442.99
668.459	5430.7
668.651	5318.06
668.842	5436.85
669.033	5389.74
669.224	5205.42
669.416	5309.87
669.607	5131.7
669.798	5156.27
669.989	5307.82
670.18	5051.83
670.371	5209.52
670.563	5191.09
670.754	5127.6
670.945	5260.72
671.136	5133.75
671.327	5105.07
671.518	4963.76
671.709	5100.98
671.9	5006.77
672.091	4851.13
672.282	4834.74
672.473	4896.18
672.664	4855.22
672.855	4789.69
673.046	5014.96
673.237	4687.29
673.428	4842.93
673.619	4672.95
673.809	4781.5
674	4713.91
674.191	4818.36
674.382	4586.94
674.573	4586.94
674.764	4775.35
674.954	4527.55
675.145	4564.41
675.336	4480.44
675.527	4654.52
675.717	4679.1
675.908	4509.12
676.099	4486.59
676.289	4468.16
676.48	4447.68
676.671	4527.55
676.861	4410.81
677.052	4472.25
677.243	4363.71
677.433	4455.87
677.624	4332.99
677.814	4386.24
678.005	4300.22
678.195	4408.76
678.386	4210.11
678.576	4277.69
678.767	4351.42
678.957	4265.41
679.148	4341.18
679.338	4189.63
679.529	4275.65
679.719	4181.44
679.909	4249.02
680.1	4160.96
680.29	4107.71
680.481	4216.26
680.671	4171.2
680.861	4117.95
681.052	4097.47
681.242	4070.85
681.432	4009.41
681.622	4134.34
681.813	4134.34
682.003	4009.41
682.193	4042.18
682.383	4033.99
682.573	3954.12
682.764	3911.11
682.954	3962.31
683.144	3898.82
683.334	4058.56
683.524	3898.82
683.714	3904.96
683.904	3767.75
684.094	3892.68
684.284	3917.25
684.474	3841.48
684.664	3829.19
684.854	3827.14
685.044	3888.58
685.234	3839.43
685.424	3669.45
685.614	3831.24
685.804	3792.33
685.994	3667.4
686.184	3642.82
686.374	3739.08
686.564	3683.78
686.753	3556.81
686.943	3532.23
687.133	3589.58
687.323	3544.52
687.513	3595.72
687.702	3562.95
687.892	3526.09
688.082	3622.34
688.272	3532.23
688.461	3571.15
688.651	3380.68
688.841	3429.84
689.03	3380.68
689.22	3466.7
689.41	3374.54
689.599	3399.12
689.789	3276.24
689.979	3483.08
690.168	3347.92
690.358	3309.01
690.547	3333.58
690.737	3349.96
690.926	3288.53
691.116	3171.79
691.305	3286.48
691.495	3272.14
691.684	3233.23
691.874	3444.17
692.063	3198.42
692.252	3153.36
692.442	3167.7
692.631	3106.26
692.82	3175.89
693.01	3098.06
693.199	3143.12
693.388	3048.91
693.578	3091.92
693.767	3083.73
693.956	3100.11
694.146	3177.94
694.335	3059.15
694.524	2944.47
694.713	3038.67
694.902	3048.91
695.092	2956.75
695.281	3034.58
695.47	3075.54
695.659	2991.57
695.848	2827.73
696.037	3012.05
696.226	3003.86
696.415	2971.09
696.604	2971.09
696.793	2917.84
696.982	3007.95
697.171	3036.63
697.36	2977.23
697.549	2887.12
697.738	2928.08
697.927	2766.29
698.116	2749.91
698.305	2887.12
698.494	2766.29
698.683	2911.7
698.872	2923.99
699.061	2837.97
699.25	2713.05
699.438	2962.9
699.627	2856.4
699.816	2848.21
700.005	2850.26
700.193	2719.19
700.382	2735.57
700.571	2809.3
700.76	2803.16
700.948	2717.14
701.137	2895.32
701.326	2590.17
701.514	2840.02
701.703	2686.42
701.892	2766.29
702.08	2819.54
702.269	2801.11
702.457	2690.52
702.646	2713.05
702.834	2606.55
703.023	2819.54
703.212	2713.05
703.4	2667.99
703.589	2692.57
703.777	2684.38
703.965	2696.66
704.154	2614.74
704.342	2694.61
704.531	2698.71
704.719	2641.37
704.907	2745.81
705.096	2633.18
705.284	2659.8
705.472	2733.53
705.661	2551.26
705.849	2565.59
706.037	2692.57
706.226	2721.24
706.414	2690.52
706.602	2637.27
706.79	2704.85
706.979	2573.78
707.167	2620.89
707.355	2594.26
707.543	2643.42
707.731	2704.85
707.919	2569.69
708.107	2596.31
708.296	2653.66
708.484	2555.35
708.672	2702.81
708.86	2610.65
709.048	2473.43
709.236	2649.56
709.424	2586.07
709.612	2581.98
709.8	2526.68
709.988	2536.92
710.176	2672.09
710.364	2475.48
710.551	2559.45
710.739	2573.78
710.927	2522.59
711.115	2426.33
711.303	2487.77
711.491	2581.98
711.679	2487.77
711.866	2536.92
712.054	2532.83
712.242	2471.39
712.43	2667.99
712.617	2536.92
712.805	2489.82
712.993	2493.91
713.181	2446.81
713.368	2614.74
713.556	2561.5
713.744	2430.43
713.931	2690.52
714.119	2567.64
714.306	2412
714.494	2491.87
714.682	2489.82
714.869	2475.48
715.057	2516.44
715.244	2338.27
715.432	2586.07
715.619	2498.01
715.807	2459.1
715.994	2559.45
716.182	2559.45
716.369	2579.93
716.556	2414.04
716.744	2395.61
716.931	2481.63
717.119	2516.44
717.306	2549.21
717.493	2467.29
717.681	2479.58
717.868	2412
718.055	2516.44
718.242	2416.09
718.43	2483.67
718.617	2393.56
718.804	2428.38
718.991	2491.87
719.179	2600.41
719.366	2500.06
719.553	2426.33
719.74	2569.69
719.927	2422.24
720.114	2391.52
720.301	2389.47
720.488	2377.18
720.676	2428.38
720.863	2434.52
721.05	2475.48
721.237	2416.09
721.424	2407.9
721.611	2407.9
721.798	2467.29
721.985	2360.8
722.172	2395.61
722.358	2487.77
722.545	2520.54
722.732	2307.55
722.919	2323.93
723.106	2403.8
723.293	2403.8
723.48	2432.47
723.667	2297.31
723.853	2348.51
724.04	2506.2
724.227	2377.18
724.414	2358.75
724.6	2266.59
724.787	2434.52
724.974	2332.12
725.161	2401.76
725.347	2246.11
725.534	2387.42
725.72	2368.99
725.907	2248.16
726.094	2340.32
726.28	2321.88
726.467	2336.22
726.653	2317.79
726.84	2403.8
727.027	2428.38
727.213	2303.45
727.4	2330.08
727.586	2297.31
727.773	2231.77
727.959	2328.03
728.145	2395.61
728.332	2244.06
728.518	2244.06
728.705	2364.89
728.891	2426.33
729.077	2397.66
729.264	2344.41
729.45	2278.88
729.636	2358.75
729.823	2285.02
730.009	2373.08
730.195	2194.91
730.382	2344.41
730.568	2309.6
730.754	2246.11
730.94	2256.35
731.126	2233.82
731.313	2285.02
731.499	2248.16
731.685	2393.56
731.871	2262.49
732.057	2311.64
732.243	2260.45
732.429	2156
732.615	2270.69
732.801	2360.8
732.987	2354.65
733.173	2274.78
733.359	2256.35
733.545	2270.69
733.731	2299.36
733.917	2262.49
734.103	2297.31
734.289	2260.45
734.475	2389.47
734.661	2180.57
734.847	2143.71
735.033	2256.35
735.219	2381.28
735.404	2262.49
735.59	2192.86
735.776	2196.96
735.962	2352.6
736.148	2323.93
736.333	2252.25
736.519	2250.21
736.705	2170.33
736.89	2166.24
737.076	2153.95
737.262	2213.34
737.447	2225.63
737.633	2180.57
737.819	2217.44
738.004	2172.38
738.19	2194.91
738.375	2172.38
738.561	2145.76
738.747	2221.53
738.932	2143.71
739.118	2069.98
739.303	2188.77
739.489	2076.13
739.674	2227.68
739.859	2110.94
740.045	2166.24
740.23	2170.33
740.416	2084.32
740.601	2053.6
740.786	2037.22
740.972	2006.5
741.157	2131.42
741.342	2098.66
741.528	2051.55
741.713	1963.49
741.898	2069.98
742.084	2037.22
742.269	1965.54
742.454	2123.23
742.639	2002.4
742.824	2012.64
743.01	2117.09
743.195	1998.31
743.38	2076.13
743.565	1994.21
743.75	1936.87
743.935	2000.35
744.12	2026.98
744.305	2086.37
744.49	1924.58
744.675	1938.91
744.86	2041.31
745.045	1996.26
745.23	1992.16
745.415	1865.19
745.6	1961.44
745.785	1883.62
745.97	1930.72
746.155	1818.08
746.34	1930.72
746.525	1914.34
746.71	1838.56
746.895	1764.84
747.079	1920.48
747.264	1875.43
747.449	1795.56
747.634	1781.22
747.819	1799.65
748.003	1820.13
748.188	1750.5
748.373	1789.41
748.557	1795.56
748.742	1717.73
748.927	1734.12
749.111	1674.73
749.296	1695.21
749.481	1783.27
749.665	1676.77
749.85	1644.01
750.034	1627.62
750.219	1648.1
750.404	1646.05
750.588	1621.48
750.773	1549.8
750.957	1654.25
751.141	1641.96
751.326	1639.91
751.51	1537.51
751.695	1598.95
751.879	1576.42
752.064	1598.95
752.248	1582.57
752.432	1615.34
752.617	1607.14
752.801	1547.75
752.985	1652.2
753.17	1469.93
753.354	1531.37
753.538	1486.31
753.722	1510.89
753.907	1363.44
754.091	1484.27
754.275	1453.55
754.459	1349.1
754.643	1383.91
754.828	1369.58
755.012	1400.3
755.196	1320.43
755.38	1412.59
755.564	1410.54
755.748	1377.77
755.932	1258.99
756.116	1398.25
756.3	1297.9
756.484	1408.49
756.668	1377.77
756.852	1336.81
757.036	1371.63
757.22	1353.2
757.404	1250.8
757.588	1310.19
757.772	1269.23
757.956	1269.23
758.14	1175.02
758.323	1193.45
758.507	1203.69
758.691	1242.61
758.875	1181.17
759.059	1308.14
759.242	1115.63
759.426	1199.6
759.61	1115.63
759.794	1154.54
759.977	1234.41
760.161	1252.84
760.345	1287.66
760.528	1224.17
760.712	1146.35
760.895	1097.2
761.079	1158.64
761.263	1050.1
761.446	1109.49
761.63	1191.41
761.813	1076.72
761.997	1064.43
762.18	1033.71
762.364	1078.77
762.547	1117.68
762.731	1066.48
762.914	1095.15
763.098	1105.39
763.281	1109.49
763.464	1123.82
763.648	1025.52
763.831	953.84
764.015	1074.67
764.198	1021.42
764.381	1043.95
764.564	1095.15
764.748	1086.96
764.931	1109.49
765.114	1099.25
765.297	1078.77
765.481	1076.72
765.664	1046
765.847	953.84
766.03	1009.14
766.213	982.51
766.397	945.65
766.58	1099.25
766.763	955.89
766.946	1005.04
767.129	921.07
767.312	910.83
767.495	927.22
767.678	921.07
767.861	986.61
768.044	988.66
768.227	937.46
768.41	951.79
768.593	939.51
768.776	847.35
768.959	978.42
769.142	1007.09
769.324	925.17
769.507	996.85
769.69	857.59
769.873	937.46
770.056	951.79
770.239	904.69
770.421	988.66
770.604	843.25
770.787	1007.09
770.97	962.03
771.152	869.87
771.335	959.99
771.518	855.54
771.7	929.27
771.883	912.88
772.066	814.58
772.248	845.3
772.431	892.4
772.613	939.51
772.796	898.55
772.978	849.4
773.161	880.11
773.343	808.44
773.526	726.52
773.708	828.92
773.891	812.53
774.073	816.63
774.256	830.96
774.438	873.97
774.621	755.19
774.803	867.83
774.985	730.61
775.168	804.34
775.35	732.66
775.532	747
775.715	730.61
775.897	806.39
776.079	730.61
776.261	822.77
776.444	747
776.626	783.86
776.808	699.89
776.99	708.09
777.173	691.7
777.355	685.56
777.537	681.46
777.719	697.85
777.901	656.89
778.083	640.5
778.265	669.17
778.447	697.85
778.629	620.02
778.811	740.85
778.993	779.76
779.175	732.66
779.357	660.98
779.539	685.56
779.721	564.73
779.903	685.56
780.085	613.88
780.267	628.21
780.449	695.8
780.631	556.54
780.812	642.55
780.994	581.11
781.176	679.41
781.358	632.31
781.54	605.69
781.721	515.58
781.903	640.5
782.085	523.77
782.267	538.1
782.448	493.05
782.63	570.87
782.812	484.86
782.993	597.49
783.175	566.78
783.357	519.67
783.538	550.39
783.72	529.91
783.901	577.02
784.083	546.3
784.264	531.96
784.446	529.91
784.627	542.2
784.809	505.34
784.99	499.19
785.172	511.48
785.353	468.47
785.535	503.29
785.716	452.09
785.897	456.19
786.079	468.47
786.26	464.38
786.441	478.71
786.623	484.86
786.804	439.8
786.985	390.65
787.167	437.75
787.348	396.79
787.529	497.14
787.71	521.72
787.891	439.8
788.073	450.04
788.254	413.18
788.435	484.86
788.616	450.04
788.797	429.56
788.978	394.75
789.159	353.79
789.34	439.8
789.522	386.55
789.703	345.59
789.884	435.71
790.065	351.74
790.246	445.95
790.427	355.83
790.607	329.21
790.788	394.75
790.969	351.74
791.15	345.59
791.331	380.41
791.512	427.51
791.693	343.55
791.874	398.84
792.054	447.99
792.235	466.42
792.416	257.53
792.597	271.87
792.778	347.64
792.958	314.88
793.139	357.88
793.32	388.6
793.5	304.64
793.681	335.35
793.862	435.71
794.042	327.16
794.223	290.3
794.404	247.29
794.584	321.02
794.765	359.93
794.945	370.17
795.126	257.53
795.306	335.35
795.487	366.07
795.667	349.69
795.848	249.34
796.028	314.88
796.209	357.88
796.389	349.69
796.57	349.69
796.75	300.54
796.93	308.73
797.111	300.54
797.291	257.53
797.471	314.88
797.652	286.2
797.832	325.12
798.012	296.44
798.192	273.92
798.373	167.42
798.553	296.44
798.733	368.12
798.913	230.91
799.093	321.02
799.274	273.92
799.454	316.92
799.634	298.49
799.814	253.44
799.994	196.09
800.174	314.88
800.354	228.86
800.534	251.39
800.714	280.06
800.894	247.29
801.074	257.53
801.254	245.24
801.434	304.64
801.614	257.53
801.794	232.96
801.974	531.96
802.154	300.54
802.334	261.63
802.514	251.39
802.693	218.62
802.873	202.24
803.053	239.1
803.233	237.05
803.413	341.5
803.592	206.33
803.772	222.72
803.952	230.91
804.131	226.81
804.311	216.57
804.491	269.82
804.67	169.47
804.85	204.28
805.03	259.58
805.209	228.86
805.389	271.87
805.568	216.57
805.748	222.72
805.928	220.67
806.107	224.76
806.287	243.2
806.466	222.72
806.646	204.28
806.825	163.33
807.004	220.67
807.184	202.24
807.363	239.1
807.543	275.96
807.722	177.66
807.901	228.86
808.081	124.41
808.26	167.42
808.439	208.38
808.619	206.33
808.798	175.61
808.977	204.28
809.156	245.24
809.336	148.99
809.515	183.81
809.694	159.23
809.873	140.8
810.052	159.23
810.231	261.63
810.411	163.33
810.59	286.2
810.769	134.65
810.948	185.85
811.127	99.84
811.306	144.89
811.485	132.61
811.664	169.47
811.843	179.71
812.022	97.79
812.201	183.81
812.38	202.24
812.559	214.52
812.737	103.93
812.916	153.09
813.095	235
813.274	192
813.453	159.23
813.632	216.57
813.811	148.99
813.989	208.38
814.168	204.28
814.347	52.74
814.526	183.81
814.704	173.57
814.883	228.86
815.062	132.61
815.24	189.95
815.419	110.08
815.598	255.48
815.776	91.65
815.955	155.13
816.133	101.89
816.312	136.7
816.49	200.19
816.669	140.8
816.847	173.57
817.026	112.13
817.204	214.52
817.383	171.52
817.561	99.84
817.74	132.61
817.918	140.8
818.097	151.04
818.275	144.89
818.453	124.41
818.632	208.38
818.81	159.23
818.988	179.71
819.167	151.04
819.345	163.33
819.523	83.45
819.701	144.89
819.879	153.09
820.058	108.03
820.236	108.03
820.414	155.13
820.592	79.36
820.77	167.42
820.948	128.51
821.127	126.46
821.305	192
821.483	79.36
821.661	122.37
821.839	83.45
822.017	177.66
822.195	83.45
822.373	116.22
822.551	83.45
822.729	155.13
822.907	132.61
823.085	163.33
823.262	181.76
823.44	144.89
823.618	38.4
823.796	7.68
823.974	124.41
824.152	146.94
824.329	71.17
824.507	159.23
824.685	99.84
824.863	97.79
825.04	99.84
825.218	101.89
825.396	151.04
825.574	153.09
825.751	103.93
825.929	132.61
826.107	132.61
826.284	97.79
826.462	71.17
826.639	136.7
826.817	44.54
826.994	60.93
827.172	69.12
827.349	179.71
827.527	38.4
827.704	38.4
827.882	128.51
828.059	75.26
828.237	144.89
828.414	124.41
828.591	38.4
828.769	138.75
828.946	85.5
829.124	105.98
829.301	103.93
829.478	112.13
829.655	173.57
829.833	175.61
830.01	85.5
830.187	79.36
830.364	89.6
830.542	138.75
830.719	60.93
830.896	128.51
831.073	169.47
831.25	110.08
831.427	36.35
831.604	128.51
831.782	75.26
831.959	60.93
832.136	118.27
832.313	40.45
832.49	161.28
832.667	89.6
832.844	112.13
833.021	87.55
833.198	136.7
833.374	42.5
833.551	46.59
833.728	52.74
833.905	87.55
834.082	95.74
834.259	62.98
834.436	155.13
834.612	77.31
834.789	15.87
834.966	50.69
835.143	48.64
835.319	73.21
835.496	114.17
835.673	46.59
835.85	79.36
836.026	83.45
836.203	75.26
836.38	101.89
836.556	26.11
836.733	73.21
836.909	54.78
837.086	54.78
837.262	60.93
837.439	13.82
837.616	46.59
837.792	28.16
837.968	161.28
838.145	28.16
838.321	91.65
838.498	69.12
838.674	75.26
838.851	91.65
839.027	19.97
839.203	-2.56
839.38	22.02
839.556	79.36
839.732	73.21
839.909	28.16
840.085	103.93
840.261	144.89
840.437	42.5
840.614	99.84
840.79	67.07
840.966	38.4
841.142	83.45
841.318	95.74
841.494	58.88
841.671	67.07
841.847	50.69
842.023	-6.66
842.199	124.41
842.375	60.93
842.551	17.92
842.727	9.73
842.903	65.02
843.079	-6.66
843.255	30.21
843.431	81.41
843.607	46.59
843.783	65.02
843.959	44.54
844.134	50.69
844.31	69.12
844.486	22.02
844.662	93.69
844.838	165.37
845.013	48.64
845.189	3.58
845.365	48.64
845.541	13.82
845.716	83.45
845.892	17.92
846.068	40.45
846.244	124.41
846.419	89.6
846.595	42.5
846.77	44.54
846.946	30.21
847.122	103.93
847.297	-20.99
847.473	112.13
847.648	128.51
847.824	-61.95
847.999	24.06
848.175	32.26
848.35	91.65
848.526	60.93
848.701	71.17
848.876	52.74
849.052	22.02
849.227	79.36
849.403	85.5
849.578	54.78
849.753	26.11
849.929	58.88
850.104	-4.61
850.279	48.64
850.454	32.26
850.63	67.07
850.805	-16.9
850.98	38.4
851.155	83.45
851.33	15.87
851.505	44.54
851.681	24.06
851.856	5.63
852.031	22.02
852.206	9.73
852.381	112.13
852.556	38.4
852.731	42.5
852.906	69.12
853.081	116.22
853.256	7.68
853.431	-2.56
853.606	15.87
853.781	71.17
853.956	13.82
854.131	30.21
854.305	13.82
854.48	36.35
854.655	9.73
854.83	50.69
855.005	-6.66
855.18	17.92
855.354	7.68
855.529	85.5
855.704	28.16
855.879	56.83
856.053	30.21
856.228	62.98
856.403	62.98
856.577	56.83
856.752	22.02
856.926	60.93
857.101	36.35
857.276	13.82
857.45	103.93
857.625	38.4
857.799	26.11
857.974	30.21
858.148	-27.14
858.323	1.54
858.497	114.17
858.672	52.74
858.846	-51.71
859.02	-4.61
859.195	7.68
859.369	36.35
859.543	75.26
859.718	54.78
859.892	89.6
860.066	60.93
860.241	9.73
860.415	54.78
860.589	-6.66
860.763	67.07
860.938	42.5
861.112	69.12
861.286	1.54
861.46	-2.56
861.634	-27.14
861.808	13.82
861.982	-35.33
862.157	1.54
862.331	-12.8
862.505	54.78
862.679	-55.81
862.853	36.35
863.027	71.17
863.201	19.97
863.375	50.69
863.549	60.93
863.722	28.16
863.896	50.69
864.07	56.83
864.244	-0.51
864.418	3.58
864.592	79.36
864.766	1.54
864.939	38.4
865.113	-6.66
865.287	40.45
865.461	3.58
865.634	30.21
865.808	34.3
865.982	32.26
866.156	58.88
866.329	-41.47
866.503	15.87
866.676	-0.51
866.85	-10.75
867.024	-23.04
867.197	1.54
867.371	58.88
867.544	62.98
867.718	-18.94
867.891	-2.56
868.065	-33.28
868.238	22.02
868.412	22.02
868.585	54.78
868.759	50.69
868.932	30.21
869.105	32.26
869.279	58.88
869.452	-35.33
869.625	79.36
869.799	1.54
869.972	73.21
870.145	56.83
870.319	-0.51
870.492	9.73
870.665	-4.61
870.838	32.26
871.011	-2.56
871.185	13.82
871.358	24.06
871.531	19.97
871.704	83.45
871.877	28.16
872.05	44.54
872.223	79.36
872.396	-41.47
872.569	52.74
872.742	-12.8
872.915	-6.66
873.088	-8.7
873.261	-14.85
873.434	-37.38
873.607	-37.38
873.78	95.74
873.953	28.16
874.126	52.74
874.299	34.3
874.471	-16.9
874.644	-31.23
874.817	85.5
874.99	40.45
875.163	-6.66
875.335	9.73
875.508	42.5
875.681	-10.75
875.853	34.3
876.026	56.83
876.199	69.12
876.371	58.88
876.544	-10.75
876.717	42.5
876.889	32.26
877.062	34.3
877.234	1.54
877.407	-0.51
877.579	-20.99
877.752	34.3
877.924	40.45
878.097	5.63
878.269	-80.38
878.442	-25.09
878.614	30.21
878.786	-10.75
878.959	40.45
879.131	-57.86
879.303	13.82
879.476	-4.61
879.648	52.74
879.82	-18.94
879.993	-12.8
880.165	-0.51
880.337	-47.62
880.509	17.92
880.681	-37.38
880.854	-10.75
881.026	46.59
881.198	30.21
881.37	32.26
881.542	-10.75
881.714	1.54
881.886	-23.04
882.058	-72.19
882.23	-37.38
882.402	44.54
882.574	32.26
882.746	-0.51
882.918	-20.99
883.09	-35.33
883.262	46.59
883.434	11.78
883.606	-12.8
883.778	38.4
883.95	19.97
884.122	-18.94
884.293	44.54
884.465	34.3
884.637	69.12
884.809	46.59
884.98	48.64
885.152	5.63
885.324	28.16
885.496	1.54
885.667	26.11
885.839	-51.71
886.011	-27.14
886.182	42.5
886.354	42.5
886.525	22.02
886.697	-96.77
886.869	-10.75
887.04	-45.57
887.212	1.54
887.383	-16.9
887.555	-6.66
887.726	-6.66
887.897	-39.42
888.069	75.26
888.24	9.73
888.412	32.26
888.583	34.3
888.754	-6.66
888.926	-8.7
889.097	81.41
889.268	-14.85
889.44	62.98
889.611	-14.85
889.782	38.4
889.953	46.59
890.125	-2.56
890.296	77.31
890.467	-39.42
890.638	17.92
890.809	32.26
890.98	-18.94
891.151	24.06
891.323	11.78
891.494	58.88
891.665	91.65
891.836	11.78
892.007	1.54
892.178	5.63
892.349	-23.04
892.52	-14.85
892.691	65.02
892.862	-27.14
893.032	-43.52
893.203	-20.99
893.374	40.45
893.545	-6.66
893.716	-41.47
893.887	5.63
894.057	-47.62
894.228	-4.61
894.399	-61.95
894.57	26.11
894.74	-8.7
894.911	-16.9
895.082	1.54
895.253	26.11
895.423	-12.8
895.594	13.82
895.764	22.02
895.935	-33.28
896.106	-57.86
896.276	19.97
896.447	46.59
896.617	44.54
896.788	24.06
896.958	-55.81
897.129	28.16
897.299	19.97
897.47	52.74
897.64	58.88
897.81	-45.57
897.981	-6.66
898.151	13.82
898.322	-10.75
898.492	38.4
898.662	17.92
898.832	36.35
899.003	87.55
899.173	87.55
899.343	-41.47
899.513	40.45
