Data from USB4F104151__179__11-09-30-823.txt Node

Date: Wed Mar 12 11:09:30 EDT 2025
User: louis
Spectrometer: USB4F10415
Trigger mode: 4
Integration Time (sec): 2.000000E-2
Scans to average: 1
Electric dark correction enabled: true
Nonlinearity correction enabled: false
Boxcar width: 0
XAxis mode: Wavelengths
Number of Pixels in Spectrum: 3648
>>>>>Begin Spectral Data<<<<<
178.204	-88.75
178.424	-88.75
178.644	-88.75
178.864	-51.88
179.084	-0.68
179.304	-6.83
179.524	-29.35
179.744	62.8
179.964	19.8
180.184	-25.26
180.404	15.7
180.624	11.61
180.844	-2.73
181.064	-15.02
181.283	-27.31
181.503	-17.07
181.723	13.65
181.943	-17.07
182.163	17.75
182.383	42.32
182.602	-31.4
182.822	-0.68
183.042	34.13
183.262	-31.4
183.482	21.84
183.701	79.19
183.921	42.32
184.141	-27.31
184.361	-10.92
184.58	-10.92
184.8	56.66
185.02	-37.55
185.239	9.56
185.459	7.51
185.679	-0.68
185.898	-31.4
186.118	15.7
186.338	-0.68
186.557	44.37
186.777	15.7
186.997	-0.68
187.216	1.37
187.436	38.23
187.655	52.56
187.875	-6.83
188.095	-55.98
188.314	38.23
188.534	60.76
188.753	17.75
188.973	-10.92
189.192	71
189.412	-60.07
189.631	-0.68
189.851	-8.87
190.07	-35.5
190.29	-72.36
190.509	-8.87
190.729	-47.79
190.948	17.75
191.168	13.65
191.387	-4.78
191.607	32.08
191.826	-6.83
192.045	7.51
192.265	-115.37
192.484	32.08
192.704	-113.32
192.923	5.46
193.142	116.05
193.362	46.42
193.581	81.24
193.8	17.75
194.02	34.13
194.239	-19.11
194.458	13.65
194.678	-45.74
194.897	-0.68
195.116	42.32
195.335	-15.02
195.555	-45.74
195.774	46.42
195.993	7.51
196.212	-53.93
196.432	-86.7
196.651	-51.88
196.87	13.65
197.089	-25.26
197.308	34.13
197.528	-12.97
197.747	-76.46
197.966	-15.02
198.185	-27.31
198.404	-25.26
198.623	27.99
198.842	23.89
199.062	1.37
199.281	52.56
199.5	-27.31
199.719	7.51
199.938	-23.21
200.157	-72.36
200.376	-2.73
200.595	54.61
200.814	48.47
201.033	-15.02
201.252	-0.68
201.471	30.04
201.69	48.47
201.909	15.7
202.128	21.84
202.347	38.23
202.566	9.56
202.785	-62.12
203.004	34.13
203.223	58.71
203.442	11.61
203.661	-37.55
203.879	32.08
204.098	-35.5
204.317	-70.31
204.536	68.95
204.755	-19.11
204.974	-19.11
205.193	-0.68
205.411	81.24
205.63	71
205.849	-55.98
206.068	-64.17
206.287	60.76
206.505	21.84
206.724	23.89
206.943	-2.73
207.162	-19.11
207.381	25.94
207.599	-17.07
207.818	36.18
208.037	7.51
208.255	-29.35
208.474	-70.31
208.693	-33.45
208.911	36.18
209.13	56.66
209.349	62.8
209.567	48.47
209.786	7.51
210.005	5.46
210.223	42.32
210.442	-64.17
210.661	30.04
210.879	-41.64
211.098	23.89
211.316	-29.35
211.535	62.8
211.753	-35.5
211.972	46.42
212.191	-103.08
212.409	-15.02
212.628	9.56
212.846	-43.69
213.065	9.56
213.283	81.24
213.502	-72.36
213.72	13.65
213.938	-21.16
214.157	46.42
214.375	42.32
214.594	73.04
214.812	9.56
215.031	3.41
215.249	9.56
215.467	25.94
215.686	-6.83
215.904	19.8
216.122	-49.83
216.341	50.52
216.559	17.75
216.778	54.61
216.996	38.23
217.214	-41.64
217.432	-10.92
217.651	-4.78
217.869	-4.78
218.087	23.89
218.306	1.37
218.524	40.28
218.742	23.89
218.96	-10.92
219.179	46.42
219.397	-35.5
219.615	-10.92
219.833	30.04
220.051	11.61
220.27	11.61
220.488	44.37
220.706	-6.83
220.924	56.66
221.142	-10.92
221.36	-19.11
221.578	40.28
221.796	-17.07
222.015	58.71
222.233	-35.5
222.451	48.47
222.669	-27.31
222.887	-4.78
223.105	25.94
223.323	30.04
223.541	19.8
223.759	9.56
223.977	-68.27
224.195	36.18
224.413	46.42
224.631	-4.78
224.849	11.61
225.067	48.47
225.285	-72.36
225.503	-31.4
225.721	30.04
225.939	-6.83
226.157	-8.87
226.375	50.52
226.592	-29.35
226.81	7.51
227.028	15.7
227.246	-2.73
227.464	36.18
227.682	13.65
227.9	-8.87
228.117	-6.83
228.335	81.24
228.553	21.84
228.771	32.08
228.989	83.28
229.206	-25.26
229.424	34.13
229.642	-31.4
229.86	-8.87
230.077	27.99
230.295	-35.5
230.513	-12.97
230.731	46.42
230.948	32.08
231.166	103.76
231.384	-27.31
231.601	-27.31
231.819	50.52
232.037	7.51
232.254	-10.92
232.472	64.85
232.689	-15.02
232.907	7.51
233.125	13.65
233.342	23.89
233.56	-6.83
233.777	62.8
233.995	-43.69
234.213	36.18
234.43	15.7
234.648	11.61
234.865	-33.45
235.083	34.13
235.3	46.42
235.518	23.89
235.735	62.8
235.953	40.28
236.17	-4.78
236.388	11.61
236.605	27.99
236.822	13.65
237.04	25.94
237.257	-39.59
237.475	-12.97
237.692	5.46
237.909	-25.26
238.127	-2.73
238.344	50.52
238.562	7.51
238.779	5.46
238.996	30.04
239.214	-27.31
239.431	1.37
239.648	-17.07
239.865	-0.68
240.083	-33.45
240.3	17.75
240.517	-21.16
240.735	-15.02
240.952	54.61
241.169	-27.31
241.386	17.75
241.603	5.46
241.821	-55.98
242.038	1.37
242.255	32.08
242.472	60.76
242.689	34.13
242.907	-6.83
243.124	64.85
243.341	-8.87
243.558	-49.83
243.775	5.46
243.992	9.56
244.209	7.51
244.426	-29.35
244.643	-2.73
244.86	7.51
245.078	13.65
245.295	-31.4
245.512	32.08
245.729	-2.73
245.946	15.7
246.163	1.37
246.38	-55.98
246.597	-31.4
246.814	13.65
247.031	79.19
247.248	-10.92
247.464	-76.46
247.681	-29.35
247.898	13.65
248.115	-0.68
248.332	21.84
248.549	81.24
248.766	68.95
248.983	21.84
249.2	17.75
249.417	40.28
249.633	21.84
249.85	87.38
250.067	-10.92
250.284	23.89
250.501	21.84
250.717	30.04
250.934	1.37
251.151	44.37
251.368	-80.55
251.585	40.28
251.801	-10.92
252.018	-33.45
252.235	34.13
252.451	-2.73
252.668	34.13
252.885	-68.27
253.102	40.28
253.318	25.94
253.535	-51.88
253.752	25.94
253.968	-45.74
254.185	-55.98
254.401	-8.87
254.618	-35.5
254.835	-15.02
255.051	-37.55
255.268	-12.97
255.484	23.89
255.701	-21.16
255.917	36.18
256.134	-21.16
256.351	77.14
256.567	9.56
256.784	-17.07
257	-25.26
257.217	-62.12
257.433	-17.07
257.65	11.61
257.866	5.46
258.082	27.99
258.299	-35.5
258.515	-2.73
258.732	9.56
258.948	9.56
259.165	9.56
259.381	5.46
259.597	3.41
259.814	3.41
260.03	-15.02
260.246	-15.02
260.463	19.8
260.679	46.42
260.895	66.9
261.112	13.65
261.328	-39.59
261.544	25.94
261.761	19.8
261.977	-15.02
262.193	-23.21
262.409	-49.83
262.626	-51.88
262.842	-23.21
263.058	11.61
263.274	13.65
263.49	27.99
263.707	-78.51
263.923	-2.73
264.139	-101.03
264.355	5.46
264.571	21.84
264.787	-41.64
265.004	-6.83
265.22	-10.92
265.436	-0.68
265.652	-21.16
265.868	-23.21
266.084	1.37
266.3	23.89
266.516	-53.93
266.732	-15.02
266.948	-33.45
267.164	-31.4
267.38	50.52
267.596	21.84
267.812	42.32
268.028	15.7
268.244	-31.4
268.46	-45.74
268.676	-47.79
268.892	-19.11
269.108	-55.98
269.324	-10.92
269.54	-51.88
269.756	58.71
269.972	-23.21
270.188	25.94
270.403	-66.22
270.619	-6.83
270.835	71
271.051	-15.02
271.267	-6.83
271.483	-17.07
271.698	38.23
271.914	68.95
272.13	-8.87
272.346	-15.02
272.562	-2.73
272.777	-10.92
272.993	-84.65
273.209	-29.35
273.425	9.56
273.64	1.37
273.856	27.99
274.072	-19.11
274.287	-82.6
274.503	52.56
274.719	21.84
274.934	42.32
275.15	21.84
275.366	36.18
275.581	-8.87
275.797	-12.97
276.012	-43.69
276.228	-55.98
276.444	-2.73
276.659	21.84
276.875	5.46
277.09	-33.45
277.306	-25.26
277.521	30.04
277.737	-43.69
277.952	27.99
278.168	15.7
278.383	-10.92
278.599	3.41
278.814	7.51
279.03	71
279.245	7.51
279.461	3.41
279.676	9.56
279.892	-10.92
280.107	1.37
280.322	-58.03
280.538	64.85
280.753	23.89
280.969	9.56
281.184	-37.55
281.399	52.56
281.615	19.8
281.83	44.37
282.045	23.89
282.26	48.47
282.476	-23.21
282.691	42.32
282.906	-21.16
283.122	-10.92
283.337	-37.55
283.552	-23.21
283.767	-6.83
283.983	17.75
284.198	-15.02
284.413	-27.31
284.628	-53.93
284.843	-21.16
285.058	99.67
285.274	-29.35
285.489	-10.92
285.704	-19.11
285.919	42.32
286.134	66.9
286.349	-0.68
286.564	-51.88
286.779	-33.45
286.995	19.8
287.21	5.46
287.425	89.43
287.64	-43.69
287.855	21.84
288.07	-62.12
288.285	75.09
288.5	-23.21
288.715	-45.74
288.93	-35.5
289.145	32.08
289.36	40.28
289.575	-51.88
289.79	5.46
290.004	-39.59
290.219	-2.73
290.434	-4.78
290.649	-15.02
290.864	-6.83
291.079	-12.97
291.294	-70.31
291.509	25.94
291.724	-21.16
291.938	17.75
292.153	-27.31
292.368	-17.07
292.583	7.51
292.798	21.84
293.012	32.08
293.227	21.84
293.442	-4.78
293.657	-31.4
293.871	44.37
294.086	1.37
294.301	93.52
294.516	9.56
294.73	50.52
294.945	-29.35
295.16	-29.35
295.374	-10.92
295.589	17.75
295.804	42.32
296.018	-12.97
296.233	44.37
296.447	5.46
296.662	-31.4
296.877	44.37
297.091	30.04
297.306	25.94
297.52	-15.02
297.735	54.61
297.949	34.13
298.164	75.09
298.378	25.94
298.593	38.23
298.807	60.76
299.022	-10.92
299.236	60.76
299.451	-47.79
299.665	-4.78
299.88	21.84
300.094	17.75
300.309	23.89
300.523	40.28
300.737	13.65
300.952	19.8
301.166	19.8
301.381	1.37
301.595	81.24
301.809	58.71
302.024	-45.74
302.238	7.51
302.452	52.56
302.667	68.95
302.881	-60.07
303.095	73.04
303.309	-27.31
303.524	23.89
303.738	21.84
303.952	23.89
304.166	62.8
304.381	-51.88
304.595	1.37
304.809	-37.55
305.023	68.95
305.237	-111.27
305.452	-21.16
305.666	42.32
305.88	-25.26
306.094	19.8
306.308	-6.83
306.522	5.46
306.736	25.94
306.95	-8.87
307.164	38.23
307.379	25.94
307.593	44.37
307.807	48.47
308.021	52.56
308.235	17.75
308.449	5.46
308.663	-27.31
308.877	3.41
309.091	42.32
309.305	79.19
309.519	-49.83
309.733	75.09
309.947	48.47
310.161	-0.68
310.374	-33.45
310.588	3.41
310.802	-74.41
311.016	-21.16
311.23	-23.21
311.444	-68.27
311.658	52.56
311.872	-8.87
312.085	-29.35
312.299	13.65
312.513	21.84
312.727	34.13
312.941	-43.69
313.154	11.61
313.368	30.04
313.582	-12.97
313.796	3.41
314.009	-17.07
314.223	-15.02
314.437	103.76
314.651	19.8
314.864	30.04
315.078	-47.79
315.292	32.08
315.505	-41.64
315.719	83.28
315.933	-4.78
316.146	42.32
316.36	-37.55
316.573	73.04
316.787	64.85
317.001	-6.83
317.214	30.04
317.428	60.76
317.641	-2.73
317.855	-6.83
318.068	52.56
318.282	42.32
318.495	-8.87
318.709	50.52
318.922	9.56
319.136	58.71
319.349	46.42
319.563	44.37
319.776	-21.16
319.99	25.94
320.203	-21.16
320.417	-17.07
320.63	30.04
320.843	-33.45
321.057	66.9
321.27	79.19
321.483	-33.45
321.697	25.94
321.91	17.75
322.124	34.13
322.337	36.18
322.55	-10.92
322.763	42.32
322.977	19.8
323.19	11.61
323.403	79.19
323.617	5.46
323.83	-25.26
324.043	3.41
324.256	27.99
324.469	-19.11
324.683	56.66
324.896	38.23
325.109	-12.97
325.322	-23.21
325.535	-6.83
325.748	3.41
325.962	-64.17
326.175	11.61
326.388	48.47
326.601	34.13
326.814	34.13
327.027	32.08
327.24	-23.21
327.453	-64.17
327.666	-21.16
327.879	46.42
328.092	58.71
328.305	9.56
328.518	15.7
328.731	5.46
328.944	1.37
329.157	46.42
329.37	1.37
329.583	114
329.796	7.51
330.009	-72.36
330.222	66.9
330.435	-21.16
330.648	60.76
330.861	60.76
331.073	23.89
331.286	48.47
331.499	19.8
331.712	40.28
331.925	66.9
332.138	-19.11
332.35	46.42
332.563	-25.26
332.776	77.14
332.989	-23.21
333.202	-53.93
333.414	-29.35
333.627	42.32
333.84	19.8
334.053	-15.02
334.265	-45.74
334.478	62.8
334.691	7.51
334.903	-4.78
335.116	13.65
335.329	-39.59
335.541	-43.69
335.754	58.71
335.966	-41.64
336.179	-43.69
336.392	68.95
336.604	44.37
336.817	66.9
337.029	5.46
337.242	1.37
337.454	52.56
337.667	91.48
337.88	23.89
338.092	25.94
338.305	-6.83
338.517	36.18
338.729	46.42
338.942	25.94
339.154	19.8
339.367	15.7
339.579	-0.68
339.792	-47.79
340.004	23.89
340.217	-45.74
340.429	-2.73
340.641	-23.21
340.854	30.04
341.066	11.61
341.278	-4.78
341.491	17.75
341.703	-21.16
341.915	13.65
342.128	-62.12
342.34	-51.88
342.552	56.66
342.764	5.46
342.977	75.09
343.189	-25.26
343.401	15.7
343.613	11.61
343.826	15.7
344.038	-35.5
344.25	58.71
344.462	13.65
344.674	13.65
344.886	48.47
345.099	17.75
345.311	62.8
345.523	-4.78
345.735	7.51
345.947	-25.26
346.159	-8.87
346.371	9.56
346.583	32.08
346.795	50.52
347.007	23.89
347.219	40.28
347.431	-17.07
347.643	50.52
347.855	-10.92
348.067	13.65
348.279	-39.59
348.491	-31.4
348.703	-8.87
348.915	17.75
349.127	-27.31
349.339	52.56
349.551	25.94
349.763	-41.64
349.975	34.13
350.187	15.7
350.399	48.47
350.61	81.24
350.822	66.9
351.034	5.46
351.246	27.99
351.458	73.04
351.669	50.52
351.881	21.84
352.093	23.89
352.305	-25.26
352.517	114
352.728	62.8
352.94	-25.26
353.152	5.46
353.363	5.46
353.575	34.13
353.787	-45.74
353.999	23.89
354.21	7.51
354.422	62.8
354.633	-37.55
354.845	13.65
355.057	-27.31
355.268	13.65
355.48	23.89
355.692	-31.4
355.903	75.09
356.115	-23.21
356.326	-27.31
356.538	-4.78
356.749	-0.68
356.961	30.04
357.172	75.09
357.384	-15.02
357.595	71
357.807	-41.64
358.018	-55.98
358.23	64.85
358.441	89.43
358.653	-2.73
358.864	-8.87
359.075	-17.07
359.287	50.52
359.498	-6.83
359.709	15.7
359.921	1.37
360.132	75.09
360.344	5.46
360.555	-0.68
360.766	40.28
360.977	48.47
361.189	89.43
361.4	71
361.611	-64.17
361.823	-8.87
362.034	7.51
362.245	-37.55
362.456	54.61
362.667	64.85
362.879	42.32
363.09	-76.46
363.301	38.23
363.512	21.84
363.723	5.46
363.935	75.09
364.146	54.61
364.357	23.89
364.568	-41.64
364.779	-62.12
364.99	79.19
365.201	-43.69
365.412	56.66
365.623	-8.87
365.834	40.28
366.045	3.41
366.256	91.48
366.467	46.42
366.678	38.23
366.889	21.84
367.1	62.8
367.311	-29.35
367.522	54.61
367.733	-6.83
367.944	40.28
368.155	-4.78
368.366	5.46
368.577	-43.69
368.788	25.94
368.999	30.04
369.209	3.41
369.42	97.62
369.631	66.9
369.842	-2.73
370.053	30.04
370.264	60.76
370.474	-27.31
370.685	-4.78
370.896	48.47
371.107	11.61
371.317	27.99
371.528	54.61
371.739	95.57
371.95	5.46
372.16	7.51
372.371	-33.45
372.582	-15.02
372.792	3.41
373.003	107.86
373.214	-29.35
373.424	71
373.635	-29.35
373.846	50.52
374.056	46.42
374.267	132.44
374.477	111.96
374.688	-17.07
374.898	-19.11
375.109	50.52
375.319	-23.21
375.53	21.84
375.74	-25.26
375.951	-64.17
376.161	60.76
376.372	27.99
376.582	-62.12
376.793	7.51
377.003	-0.68
377.214	25.94
377.424	5.46
377.635	44.37
377.845	38.23
378.055	-29.35
378.266	-33.45
378.476	-17.07
378.686	34.13
378.897	58.71
379.107	7.51
379.317	3.41
379.528	56.66
379.738	-0.68
379.948	-84.65
380.158	75.09
380.369	19.8
380.579	1.37
380.789	48.47
380.999	77.14
381.21	40.28
381.42	56.66
381.63	40.28
381.84	27.99
382.05	56.66
382.261	44.37
382.471	73.04
382.681	11.61
382.891	25.94
383.101	7.51
383.311	-2.73
383.521	-31.4
383.731	5.46
383.941	66.9
384.151	-4.78
384.361	-12.97
384.571	38.23
384.781	13.65
384.991	30.04
385.201	32.08
385.411	89.43
385.621	52.56
385.831	19.8
386.041	-8.87
386.251	44.37
386.461	48.47
386.671	-27.31
386.881	11.61
387.091	107.86
387.301	30.04
387.511	77.14
387.72	-60.07
387.93	34.13
388.14	71
388.35	73.04
388.56	7.51
388.769	95.57
388.979	-2.73
389.189	-80.55
389.399	46.42
389.609	46.42
389.818	17.75
390.028	89.43
390.238	-58.03
390.447	1.37
390.657	9.56
390.867	5.46
391.076	-25.26
391.286	5.46
391.496	36.18
391.705	109.91
391.915	42.32
392.125	64.85
392.334	23.89
392.544	77.14
392.753	-39.59
392.963	-51.88
393.172	30.04
393.382	5.46
393.591	62.8
393.801	-19.11
394.01	27.99
394.22	52.56
394.429	17.75
394.639	-35.5
394.848	79.19
395.058	40.28
395.267	17.75
395.477	17.75
395.686	-8.87
395.895	116.05
396.105	103.76
396.314	30.04
396.524	15.7
396.733	40.28
396.942	30.04
397.152	32.08
397.361	111.96
397.57	50.52
397.78	48.47
397.989	71
398.198	-8.87
398.407	58.71
398.617	-0.68
398.826	75.09
399.035	95.57
399.244	120.15
399.453	11.61
399.663	13.65
399.872	83.28
400.081	34.13
400.29	62.8
400.499	-25.26
400.708	54.61
400.917	40.28
401.127	73.04
401.336	32.08
401.545	48.47
401.754	21.84
401.963	25.94
402.172	40.28
402.381	62.8
402.59	11.61
402.799	114
403.008	95.57
403.217	93.52
403.426	44.37
403.635	89.43
403.844	48.47
404.053	44.37
404.262	120.15
404.471	101.72
404.68	136.53
404.888	42.32
405.097	50.52
405.306	116.05
405.515	89.43
405.724	34.13
405.933	79.19
406.142	56.66
406.35	99.67
406.559	68.95
406.768	87.38
406.977	120.15
407.185	109.91
407.394	111.96
407.603	58.71
407.812	111.96
408.02	179.54
408.229	103.76
408.438	109.91
408.646	105.81
408.855	169.3
409.064	128.34
409.272	140.63
409.481	181.59
409.69	136.53
409.898	148.82
410.107	122.2
410.315	177.49
410.524	107.86
410.733	193.87
410.941	187.73
411.15	181.59
411.358	288.08
411.567	249.17
411.775	236.88
411.984	195.92
412.192	236.88
412.401	306.51
412.609	243.03
412.818	238.93
413.026	259.41
413.234	275.79
413.443	304.46
413.651	310.61
413.86	288.08
414.068	404.82
414.276	382.29
414.485	337.23
414.693	343.38
414.901	337.23
415.11	314.7
415.318	382.29
415.526	343.38
415.734	433.49
415.943	490.83
416.151	435.53
416.359	476.49
416.567	515.41
416.776	494.93
416.984	486.73
417.192	519.5
417.4	519.5
417.608	546.12
417.817	537.93
418.025	664.91
418.233	681.29
418.441	648.52
418.649	673.1
418.857	703.82
419.065	793.93
419.273	730.44
419.481	707.91
419.689	757.07
419.897	904.52
420.105	865.61
420.313	908.62
420.521	830.79
420.729	943.43
420.937	968.01
421.145	949.57
421.353	1031.49
421.561	1070.4
421.769	1092.93
421.977	1234.24
422.185	1121.6
422.393	1244.48
422.601	1336.64
422.809	1346.88
423.017	1254.72
423.224	1381.7
423.432	1418.56
423.64	1445.18
423.848	1606.97
424.056	1545.53
424.263	1703.23
424.471	1639.74
424.679	1635.64
424.887	1658.17
425.094	1815.87
425.302	1738.04
425.51	1934.65
425.718	1953.08
425.925	1893.69
426.133	1983.8
426.341	2086.2
426.548	2340.15
426.756	2231.6
426.964	2194.74
427.171	2473.26
427.379	2438.45
427.586	2592.05
427.794	2651.44
428.001	2678.06
428.209	2856.23
428.417	2757.93
428.624	3048.74
428.832	2932.01
429.039	2981.16
429.247	2997.54
429.454	3317.03
429.662	3472.67
429.869	3253.54
430.076	3511.58
430.284	3376.42
430.491	3468.58
430.699	3689.76
430.906	3566.88
431.114	3843.35
431.321	3849.5
431.528	3917.08
431.736	4306.2
431.943	4326.68
432.15	4257.04
432.358	4420.88
432.565	4490.51
432.772	4506.9
432.979	4900.11
433.187	4883.72
433.394	5031.18
433.601	5059.85
433.808	5233.93
434.016	5125.38
434.223	5293.32
434.43	5778.69
434.637	5666.05
434.844	6014.2
435.052	6163.7
435.259	6098.17
435.466	6067.45
435.673	5969.15
435.88	6382.84
436.087	6778.09
436.294	6630.64
436.501	6616.3
436.708	6698.22
436.915	6898.92
437.122	7189.74
437.329	7300.33
437.537	7640.29
437.743	7566.56
437.95	7605.47
438.157	7924.96
438.364	8068.31
438.571	8146.14
438.778	8195.29
438.985	8948.94
439.192	8535.25
439.399	8912.08
439.606	8711.38
439.813	9256.14
440.02	9477.32
440.227	9725.12
440.433	9471.17
440.64	9653.44
440.847	9764.03
441.054	10042.56
441.261	10695.86
441.467	10544.31
441.674	10624.18
441.881	11150.51
442.088	11058.35
442.294	11209.9
442.501	11257
442.708	11670.69
442.914	11904.16
443.121	12514.45
443.328	12250.27
443.534	12905.62
443.741	12577.94
443.948	12364.95
444.154	13233.29
444.361	13251.72
444.568	13450.38
444.774	13411.46
444.981	13567.11
445.187	13816.96
445.394	14367.87
445.6	14318.71
445.807	15553.64
446.013	15260.78
446.22	15426.67
446.426	15834.21
446.633	16024.67
446.839	16710.74
447.046	15948.9
447.252	16647.26
447.459	16860.24
447.665	16602.2
447.871	17265.74
448.078	18070.59
448.284	17439.82
448.491	17607.75
448.697	18717.75
448.903	18930.74
449.11	18574.39
449.316	18533.43
449.522	18889.78
449.728	19145.78
449.935	19563.56
450.141	19659.82
450.347	19901.48
450.553	19217.46
450.76	19397.68
450.966	20155.43
451.172	19864.61
451.378	20462.62
451.584	19794.98
451.791	20548.64
451.997	20382.75
452.203	20622.36
452.409	20450.33
452.615	20556.83
452.821	19778.6
453.027	19629.1
453.233	20499.48
453.44	19645.48
453.646	20141.09
453.852	20241.44
454.058	20589.6
454.264	19698.73
454.47	20147.23
454.676	19780.65
454.882	20454.43
455.088	18885.69
455.294	18746.42
455.5	18928.69
455.705	19289.13
455.911	18656.31
456.117	18015.3
456.323	17925.19
456.529	16944.21
456.735	17718.34
456.941	16940.11
457.147	16884.82
457.352	16569.43
457.558	16262.24
457.764	16260.19
457.97	16026.72
458.176	15686.76
458.381	15750.24
458.587	14703.73
458.793	14929.01
458.999	14265.47
459.204	15125.61
459.41	14720.12
459.616	13730.95
459.821	13788.29
460.027	13679.75
460.233	13497.48
460.438	12706.96
460.644	13149.32
460.85	12092.57
461.055	12108.96
461.261	11877.54
461.466	11207.85
461.672	11037.87
461.878	11558.05
462.083	10798.26
462.289	10585.27
462.494	10489.01
462.7	10028.22
462.905	9874.62
463.111	10130.62
463.316	10136.76
463.522	10134.71
463.727	10060.99
463.932	9843.9
464.138	9921.73
464.343	9747.65
464.549	9563.33
464.754	10013.88
464.959	9661.63
465.165	9778.37
465.37	9518.28
465.575	8965.32
465.781	9489.6
465.986	9567.43
466.191	9196.74
466.397	8881.36
466.602	8721.62
466.807	8946.89
467.012	9024.72
467.218	8844.49
467.423	8701.14
467.628	8733.9
467.833	8928.46
468.038	8965.32
468.244	8572.11
468.449	8838.35
468.654	8580.31
468.859	8496.34
469.064	8291.54
469.269	8150.23
469.474	8264.92
469.679	8447.19
469.885	8205.53
470.09	8152.28
470.295	7894.24
470.5	8205.53
470.705	8045.79
470.91	7890.14
471.115	7636.19
471.32	8105.18
471.525	7873.76
471.73	7744.74
471.935	7638.24
472.139	7236.84
472.344	7558.37
472.549	7234.79
472.754	7335.14
472.959	6956.27
473.164	7099.62
473.369	6946.03
473.574	7193.83
473.778	7122.15
473.983	6884.59
474.188	6798.57
474.393	6604.02
474.598	6733.04
474.802	6530.29
475.007	6608.11
475.212	6681.84
475.417	6409.46
475.621	6300.92
475.826	6548.72
476.031	6345.97
476.235	6356.21
476.44	6159.61
476.645	6182.13
476.849	6169.85
477.054	6028.54
477.259	6122.74
477.463	5977.34
477.668	5793.02
477.872	5719.29
478.077	5862.65
478.282	5772.54
478.486	5727.49
478.691	5367.04
478.895	5670.14
479.1	5782.78
479.304	5522.69
479.509	5336.32
479.713	5487.87
479.918	5352.71
480.122	5217.54
480.326	5350.66
480.531	5381.38
480.735	5403.91
480.94	5170.44
481.144	5434.63
481.348	5121.29
481.553	5106.95
481.757	5031.18
481.961	5197.06
482.166	5299.46
482.37	5195.01
482.574	5176.58
482.778	4973.83
482.983	5082.38
483.187	5190.92
483.391	5342.47
483.595	5092.62
483.8	5006.6
484.004	5190.92
484.208	4986.12
484.412	5082.38
484.616	5008.65
484.821	5115.14
485.025	5117.19
485.229	5217.54
485.433	4979.98
485.637	5172.49
485.841	5162.25
486.045	5270.79
486.249	5174.53
486.453	5090.57
486.657	5102.86
486.861	5063.94
487.065	5072.14
487.269	5102.86
487.473	5010.7
487.677	5065.99
487.881	5186.82
488.085	5156.1
488.289	5258.5
488.493	5166.34
488.697	5233.93
488.901	5250.31
489.105	5160.2
489.309	5205.25
489.512	5115.14
489.716	5192.97
489.92	5166.34
490.124	5076.23
490.328	5215.49
490.531	5242.12
490.735	5078.28
490.939	5152.01
491.143	5324.04
491.346	5262.6
491.55	5569.79
491.754	5356.8
491.958	5276.93
492.161	5352.71
492.365	5428.48
492.569	5342.47
492.772	5385.48
492.976	5541.12
493.18	5567.74
493.383	5661.95
493.587	5725.44
493.79	5807.36
493.994	5487.87
494.197	5623.04
494.401	5678.33
494.605	5758.21
494.808	5967.1
495.012	5778.69
495.215	5760.25
495.419	5887.23
495.622	5709.05
495.825	5987.58
496.029	5922.04
496.232	6130.94
496.436	6079.74
496.639	6200.57
496.843	6069.5
497.046	6307.06
497.249	6366.45
497.453	6407.41
497.656	6456.56
497.859	6464.75
498.063	6569.2
498.266	6644.98
498.469	6558.96
498.673	6669.55
498.876	6769.9
499.079	6827.25
499.282	6986.99
499.485	7025.9
499.689	7087.34
499.892	7169.26
500.095	7109.86
500.298	7509.22
500.501	7294.18
500.705	7458.02
500.908	7668.96
501.111	7652.58
501.314	7857.37
501.517	7779.55
501.72	7916.76
501.923	7933.15
502.126	8101.08
502.329	8395.99
502.532	8385.75
502.735	8436.95
502.938	8494.29
503.141	8555.73
503.344	8563.92
503.547	8740.05
503.75	8760.53
503.953	8803.53
504.156	9059.53
504.359	9100.49
504.562	9221.32
504.765	9213.13
504.968	9450.69
505.17	9577.67
505.373	9630.91
505.576	9727.17
505.779	9833.66
505.982	9950.4
506.185	10050.75
506.387	9856.19
506.59	10167.48
506.793	10470.58
506.996	10403
507.198	10892.46
507.401	10730.67
507.604	10835.12
507.807	11105.45
508.009	11023.53
508.212	11269.29
508.415	11070.64
508.617	11562.15
508.82	11697.31
509.022	11383.98
509.225	11654.31
509.428	12199.07
509.63	11850.91
509.833	12004.51
510.035	12346.52
510.238	12055.71
510.44	12262.55
510.643	12436.63
510.845	12702.87
511.048	12700.82
511.25	12805.27
511.453	12905.62
511.655	13556.87
511.858	13339.79
512.06	13536.39
512.262	13530.25
512.465	13372.55
512.667	13778.05
512.87	13859.97
513.072	14097.53
513.274	14335.1
513.477	14455.93
513.679	14664.82
513.881	14654.58
514.084	14580.85
514.286	14810.23
514.488	15084.66
514.69	15451.24
514.893	15393.9
515.095	15488.1
515.297	15643.75
515.499	15520.87
515.701	15748.2
515.904	16067.68
516.106	16176.22
516.308	16094.3
516.51	16424.03
516.712	16647.26
516.914	16768.09
517.116	16890.96
517.318	17177.68
517.52	17128.53
517.722	17554.51
517.925	17689.67
518.127	17910.85
518.329	18197.57
518.531	17935.43
518.733	18533.43
518.935	18652.22
519.136	18771
519.338	18766.9
519.54	18867.25
519.742	18992.18
519.944	19270.7
520.146	19422.25
520.348	19514.41
520.55	19737.64
520.752	19690.54
520.954	20110.37
521.155	20104.23
521.357	20485.15
521.559	20810.78
521.761	20902.93
521.963	21062.68
522.164	20857.88
522.366	21042.2
522.568	21345.3
522.77	21720.07
522.971	21865.48
523.173	21519.37
523.375	21761.03
523.576	21793.8
523.778	22217.73
523.98	22420.48
524.181	22283.27
524.383	22506.49
524.584	22819.83
524.786	22873.08
524.988	22674.43
525.189	23030.77
525.391	23350.26
525.592	23432.18
525.794	23696.36
525.995	23669.74
526.197	23423.98
526.398	23684.08
526.6	24173.54
526.801	24171.49
527.003	24042.47
527.204	24220.64
527.406	24325.09
527.607	24794.07
527.808	24605.66
528.01	24464.35
528.211	24277.99
528.412	24994.78
528.614	24767.45
528.815	25088.98
529.016	25189.33
529.218	24826.84
529.419	25146.33
529.62	25070.55
529.822	25476.05
530.023	25342.93
530.224	25488.34
530.425	25625.55
530.626	25299.92
530.828	25058.26
531.029	26229.7
531.23	25594.83
531.431	25627.6
531.632	26016.71
531.833	26029
532.035	25861.07
532.236	25928.65
532.437	26160.07
532.638	26233.8
532.839	25951.18
533.04	26229.7
533.241	26078.15
533.442	26618.82
533.643	26194.89
533.844	26051.53
534.045	26180.55
534.246	25887.69
534.447	26354.63
534.648	26098.63
534.849	26143.69
535.05	26102.73
535.251	26477.51
535.451	26334.15
535.652	26715.07
535.853	26383.3
536.054	26299.33
536.255	26567.62
536.456	26520.51
536.657	26717.12
536.857	26108.87
537.058	26397.63
537.259	26753.98
537.46	26540.99
537.66	26872.76
537.861	26696.64
538.062	26332.1
538.263	26463.17
538.463	26379.2
538.664	26403.78
538.865	26420.16
539.065	26702.78
539.266	26311.62
539.466	26534.85
539.667	26153.93
539.868	26620.86
540.068	26487.75
540.269	26532.8
540.469	26432.45
540.67	26389.44
540.87	26477.51
541.071	26770.36
541.271	26735.55
541.472	26577.86
541.672	26393.54
541.873	26303.43
542.073	26274.76
542.274	26878.91
542.474	26473.41
542.675	26217.41
542.875	26471.36
543.075	26657.73
543.276	26475.46
543.476	26555.33
543.676	26420.16
543.877	26336.2
544.077	26424.26
544.277	26311.62
544.478	26371.01
544.678	26620.86
544.878	26430.4
545.078	26377.15
545.279	26383.3
545.479	26196.93
545.679	26274.76
545.879	26317.76
546.079	26254.28
546.28	26328
546.48	26160.07
546.68	26862.52
546.88	26540.99
547.08	26407.87
547.28	26272.71
547.48	26285
547.68	26409.92
547.88	26121.16
548.081	26723.26
548.281	25949.13
548.481	26446.79
548.681	26657.73
548.881	26418.11
549.081	26381.25
549.28	26029
549.48	26338.24
549.68	26282.95
549.88	26651.58
550.08	25955.27
550.28	26440.64
550.48	26151.88
550.68	26528.7
550.88	26614.72
551.08	26067.91
551.279	26401.73
551.479	26008.52
551.679	26444.74
551.879	26065.86
552.079	26248.13
552.278	26348.48
552.478	26176.45
552.678	25842.63
552.878	26194.89
553.077	26026.95
553.277	25844.68
553.477	26379.2
553.676	26115.01
553.876	26024.9
554.076	26108.87
554.275	26074.06
554.475	25942.99
554.674	25951.18
554.874	25979.85
555.074	25795.53
555.273	25758.67
555.473	26065.86
555.672	25566.16
555.872	25809.87
556.071	26069.96
556.271	25646.03
556.47	25682.89
556.67	25697.23
556.869	25402.32
557.068	25418.71
557.268	25211.86
557.467	25490.38
557.667	25349.07
557.866	25617.36
558.065	25580.49
558.265	25349.07
558.464	24976.34
558.663	25560.02
558.863	25103.32
559.062	25676.75
559.261	25080.79
559.461	25285.59
559.66	24974.3
559.859	24992.73
560.058	24984.54
560.258	25011.16
560.457	24538.08
560.656	25017.3
560.855	24536.03
561.054	24816.6
561.253	24890.33
561.453	24509.41
561.652	24749.02
561.851	24892.38
562.05	24886.23
562.249	24210.4
562.448	24531.93
562.647	24890.33
562.846	24052.71
563.045	24120.29
563.244	24087.53
563.443	24345.57
563.642	24052.71
563.841	24003.56
564.04	24118.25
564.239	23829.48
564.438	23653.36
564.637	23546.86
564.836	23741.42
565.035	23428.08
565.234	23946.22
565.432	23778.28
565.631	23731.18
565.83	23897.06
566.029	23325.68
566.228	23303.15
566.427	23587.82
566.625	23233.52
566.824	23092.21
567.023	23268.34
567.222	22625.28
567.42	23284.72
567.619	22934.52
567.818	22959.09
568.016	22926.33
568.215	22989.81
568.414	22606.84
568.612	23100.4
568.811	22287.36
569.01	22383.62
569.208	22664.19
569.407	22572.03
569.605	22043.65
569.804	22440.96
570.002	21992.45
570.201	22377.47
570.4	22115.33
570.598	22017.03
570.797	21986.31
570.995	21941.25
571.193	21627.92
571.392	21773.32
571.59	21705.74
571.789	21785.61
571.987	21517.32
572.186	21810.18
572.384	21103.64
572.582	21306.38
572.781	21523.47
572.979	21214.23
573.177	21087.25
573.376	21310.48
573.574	20816.92
573.772	20829.21
573.971	20864.02
574.169	20861.97
574.367	20689.95
574.565	20919.32
574.763	20626.46
574.962	20632.6
575.16	20212.77
575.358	20458.53
575.556	20239.39
575.754	20356.13
575.952	20130.85
576.151	20356.13
576.349	19975.2
576.547	20180
576.745	20050.98
576.943	20098.08
577.141	20073.51
577.339	19905.57
577.537	19919.91
577.735	19751.98
577.933	19835.94
578.131	19641.39
578.329	19446.83
578.527	19551.27
578.725	19438.64
578.923	19694.63
579.121	19291.18
579.319	19248.18
579.516	19301.42
579.714	19469.36
579.912	19059.76
580.11	19104.82
580.308	19035.19
580.506	18971.7
580.704	18906.16
580.901	19065.91
581.099	19008.56
581.297	18609.21
581.495	18461.76
581.692	18682.94
581.89	18631.74
582.088	18791.48
582.285	18562.11
582.483	18943.03
582.681	18586.68
582.878	18494.52
583.076	18183.23
583.274	18375.74
583.471	18267.2
583.669	18353.21
583.866	18062.4
584.064	18326.59
584.262	17736.77
584.459	18107.46
584.657	17974.34
584.854	17906.76
585.052	17570.89
585.249	17919.04
585.447	17722.44
585.644	17423.44
585.841	17499.21
586.039	17816.65
586.236	17542.22
586.434	17300.56
586.631	17083.47
586.828	17347.66
587.026	17273.93
587.223	17300.56
587.42	17269.84
587.618	17368.14
587.815	17261.65
588.012	17108.05
588.21	17089.62
588.407	17085.52
588.604	16884.82
588.801	16718.93
588.999	16821.33
589.196	16680.02
589.393	16542.81
589.59	16757.85
589.787	16604.25
589.984	16671.83
590.182	16487.51
590.379	16421.98
590.576	16157.79
590.773	16557.14
590.97	16280.67
591.167	16399.45
591.364	16297.05
591.561	16168.03
591.758	16053.34
591.955	16155.74
592.152	15983.71
592.349	16084.06
592.546	15901.79
592.743	15707.24
592.94	15514.73
593.137	15668.33
593.334	15909.99
593.531	15625.32
593.727	15897.7
593.924	15729.77
594.121	15518.82
594.318	15584.36
594.515	15191.15
594.712	15678.57
594.908	15449.19
595.105	15342.7
595.302	15121.52
595.499	15135.85
595.696	15082.61
595.892	14912.63
596.089	15240.3
596.286	15168.62
596.482	14992.5
596.679	15090.8
596.876	15094.9
597.072	14787.7
597.269	14949.49
597.466	14576.76
597.662	14558.33
597.859	14877.81
598.055	14494.84
598.252	14500.98
598.448	14589.05
598.645	14558.33
598.841	14277.76
599.038	14335.1
599.234	14324.86
599.431	14146.69
599.627	14050.43
599.824	14433.4
600.02	14118.01
600.217	14396.54
600.413	13948.03
600.609	13923.46
600.806	14138.49
601.002	13982.85
601.198	13757.57
601.395	14023.81
601.591	14015.62
601.787	13878.4
601.984	13730.95
602.18	13763.72
602.376	13679.75
602.572	13575.3
602.769	13698.18
602.965	13485.19
603.161	13458.57
603.357	13249.68
603.553	13413.51
603.75	13433.99
603.946	13360.27
604.142	13247.63
604.338	13153.42
604.534	13061.26
604.73	13096.08
604.926	13155.47
605.122	12946.58
605.318	12878.99
605.514	12950.67
605.71	13108.37
605.906	12850.32
606.102	12764.31
606.298	12715.16
606.494	12844.18
606.69	12821.65
606.886	12770.45
607.082	12659.86
607.278	12743.83
607.474	12512.41
607.67	12631.19
607.866	12389.53
608.062	12725.4
608.257	12641.43
608.453	12614.8
608.649	12444.82
608.845	12438.68
609.041	12471.45
609.236	12420.25
609.432	12420.25
609.628	12397.72
609.824	12211.35
610.019	12229.79
610.215	12063.9
610.411	12145.82
610.606	11861.15
610.802	12242.07
610.998	12065.95
611.193	12121.24
611.389	11951.26
611.584	12049.57
611.78	11926.69
611.976	11945.12
612.171	11768.99
612.367	11891.87
612.562	11768.99
612.758	11584.68
612.953	11668.64
613.149	11891.87
613.344	11486.37
613.539	11846.82
613.735	11672.74
613.93	11668.64
614.126	11650.21
614.321	11547.81
614.517	11476.13
614.712	11474.09
614.907	11553.96
615.103	11668.64
615.298	11416.74
615.493	11449.51
615.688	11289.77
615.884	11568.29
616.079	11289.77
616.274	11685.03
616.47	11359.4
616.665	11447.46
616.86	11162.79
617.055	11140.27
617.25	11449.51
617.445	11232.43
617.641	10855.6
617.836	11242.67
618.031	11275.43
618.226	11093.16
618.421	10962.09
618.616	11111.6
618.811	10874.03
619.006	11113.64
619.201	10667.19
619.396	10919.09
619.591	10738.87
619.786	10853.55
619.981	10607.8
620.176	10513.59
620.371	10720.43
620.566	10577.08
620.761	10544.31
620.956	10480.82
621.151	10233.02
621.346	10486.97
621.541	10253.5
621.735	10454.2
621.93	10136.76
622.125	10175.67
622.32	10075.32
622.515	10069.18
622.709	10153.15
622.904	10052.8
623.099	10042.56
623.294	9919.68
623.488	9686.21
623.683	9708.74
623.878	9718.98
624.072	9626.82
624.267	9624.77
624.462	9766.08
624.656	9575.62
624.851	9403.59
625.046	9301.19
625.24	9379.01
625.435	9372.87
625.629	9374.92
625.824	9204.94
626.018	9235.66
626.213	8989.9
626.407	9110.73
626.602	8686.8
626.796	9129.16
626.991	9006.28
627.185	8807.63
627.38	8957.13
627.574	8787.15
627.768	8846.54
627.963	8703.18
628.157	8633.55
628.352	8819.92
628.546	8582.35
628.74	8588.5
628.935	8625.36
629.129	8457.43
629.323	8398.04
629.517	8477.91
629.712	8303.83
629.906	8152.28
630.1	8217.82
630.294	8266.97
630.489	8213.72
630.683	8316.12
630.877	8133.85
631.071	7877.85
631.265	7988.44
631.459	7861.47
631.653	7869.66
631.848	7707.87
632.042	7935.2
632.236	7853.28
632.43	7933.15
632.624	7828.7
632.818	7730.4
633.012	7578.85
633.206	7582.95
633.4	7505.12
633.594	7417.06
633.788	7470.31
633.982	7365.86
634.176	7300.33
634.369	7245.03
634.563	7273.7
634.757	7369.96
634.951	7288.04
635.145	7251.17
635.339	7073
635.533	7144.68
635.726	7154.92
635.92	6892.78
636.114	6989.03
636.308	6911.21
636.501	7019.75
636.695	6935.79
636.889	6927.6
637.083	6788.33
637.276	6757.61
637.47	6638.83
637.664	6610.16
637.857	6704.37
638.051	6929.64
638.244	6587.63
638.438	6587.63
638.632	6552.82
638.825	6513.91
639.019	6464.75
639.212	6343.92
639.406	6235.38
639.599	6280.44
639.793	6288.63
639.986	6262.01
640.18	6276.34
640.373	6186.23
640.567	6075.64
640.76	6309.11
640.954	6137.08
641.147	6251.77
641.34	5987.58
641.534	5985.53
641.727	5932.28
641.92	5905.66
642.114	5727.49
642.307	5967.1
642.5	5993.72
642.694	5760.25
642.887	5817.6
643.08	5793.02
643.273	5829.88
643.467	5715.2
643.66	5426.43
643.853	5584.13
644.046	5434.63
644.239	5479.68
644.432	5506.31
644.626	5547.26
644.819	5440.77
645.012	5360.9
645.205	5391.62
645.398	5344.52
645.591	5375.24
645.784	5274.88
645.977	5219.59
646.17	5283.08
646.363	5287.17
646.556	5297.41
646.749	5074.18
646.942	5166.34
647.135	5059.85
647.328	5070.09
647.521	5068.04
647.714	4953.35
647.907	4969.74
648.099	4908.3
648.292	5082.38
648.485	4963.59
648.678	4840.72
648.871	4949.26
649.064	4803.85
649.256	4791.56
649.449	4762.89
649.642	4840.72
649.835	4646.16
650.027	4738.32
650.22	4672.78
650.413	4656.4
650.605	4662.54
650.798	4699.41
650.991	4660.49
651.183	4494.61
651.376	4527.38
651.568	4603.15
651.761	4453.65
651.954	4398.35
652.146	4474.13
652.339	4470.03
652.531	4365.59
652.724	4605.2
652.916	4441.36
653.109	4242.71
653.301	4087.06
653.494	4355.35
653.686	4214.04
653.879	4164.89
654.071	4046.1
654.263	4269.33
654.456	4291.86
654.648	4230.42
654.84	4103.45
655.033	4091.16
655.225	4023.58
655.417	4162.84
655.61	4138.26
655.802	4125.97
655.994	4105.49
656.186	3972.38
656.379	3912.99
656.571	3935.51
656.763	3917.08
656.955	3900.7
657.148	3919.13
657.34	3902.75
657.532	3751.2
657.724	3880.22
657.916	3722.52
658.108	3861.79
658.3	3710.24
658.492	3749.15
658.684	3738.91
658.876	3671.33
659.068	3685.66
659.26	3568.93
659.452	3634.46
659.644	3536.16
659.836	3579.17
660.028	3476.77
660.22	3550.5
660.412	3548.45
660.604	3519.78
660.796	3505.44
660.988	3558.69
661.18	3501.34
661.372	3577.12
661.563	3513.63
661.755	3437.86
661.947	3433.76
662.139	3374.37
662.331	3370.27
662.522	3345.7
662.714	3382.56
662.906	3288.36
663.097	3216.68
663.289	3317.03
663.481	3216.68
663.673	3231.01
663.864	3228.96
664.056	3261.73
664.247	3155.24
664.439	3163.43
664.631	3124.52
664.822	3245.35
665.014	3118.37
665.205	3284.26
665.397	3161.38
665.588	3290.4
665.78	3110.18
665.971	3097.89
666.163	3079.46
666.354	3091.75
666.546	2983.21
666.737	2938.15
666.929	2983.21
667.12	2987.3
667.311	3104.04
667.503	2796.84
667.694	2956.58
667.885	2917.67
668.077	3032.36
668.268	2956.58
668.459	2905.38
668.651	2862.38
668.842	2934.06
669.033	2880.81
669.224	2833.71
669.416	2983.21
669.607	2780.46
669.798	2751.79
669.989	2831.66
670.18	2843.95
670.371	2776.36
670.563	2782.51
670.754	2819.37
670.945	2626.86
671.136	2790.7
671.327	2737.45
671.518	2667.82
671.709	2608.43
671.9	2643.24
672.091	2676.01
672.282	2770.22
672.473	2729.26
672.664	2751.79
672.855	2786.6
673.046	2561.33
673.237	2567.47
673.428	2590
673.619	2598.19
673.809	2561.33
674	2786.6
674.191	2684.2
674.382	2510.13
674.573	2696.49
674.764	2612.53
674.954	2690.35
675.145	2602.29
675.336	2479.41
675.527	2510.13
675.717	2561.33
675.908	2503.98
676.099	2463.02
676.289	2583.85
676.48	2501.94
676.671	2530.61
676.861	2446.64
677.052	2415.92
677.243	2532.65
677.433	2493.74
677.624	2403.63
677.814	2473.26
678.005	2506.03
678.195	2467.12
678.386	2385.2
678.576	2456.88
678.767	2364.72
678.957	2510.13
679.148	2395.44
679.338	2405.68
679.529	2428.21
679.719	2395.44
679.909	2446.64
680.1	2458.93
680.29	2444.59
680.481	2260.27
680.671	2506.03
680.861	2325.81
681.052	2358.58
681.242	2360.63
681.432	2520.37
681.622	2381.1
681.813	2327.86
682.003	2350.39
682.193	2422.06
682.383	2487.6
682.573	2405.68
682.764	2374.96
682.954	2395.44
683.144	2385.2
683.334	2317.62
683.524	2368.82
683.714	2280.75
683.904	2342.19
684.094	2424.11
684.284	2219.32
684.474	2258.23
684.664	2397.49
684.854	2286.9
685.044	2272.56
685.234	2325.81
685.424	2334
685.614	2243.89
685.804	2350.39
685.994	2192.69
686.184	2284.85
686.374	2137.4
686.564	2301.23
686.753	2229.56
686.943	2268.47
687.133	2223.41
687.323	2217.27
687.513	2262.32
687.702	2243.89
687.892	2143.54
688.082	2139.44
688.272	2311.47
688.461	2176.31
688.651	2131.25
688.841	2164.02
689.03	2106.68
689.22	2098.49
689.41	2131.25
689.599	2141.49
689.789	2065.72
689.979	2100.53
690.168	2112.82
690.358	2010.42
690.547	2121.01
690.737	2041.14
690.926	1910.07
691.116	2094.39
691.305	2118.96
691.495	2104.63
691.684	2047.29
691.874	2080.05
692.063	2082.1
692.252	1981.75
692.442	2008.37
692.631	1901.88
692.82	1903.93
693.01	1889.59
693.199	2049.33
693.388	1889.59
693.578	1967.42
693.767	1967.42
693.956	1910.07
694.146	2006.33
694.335	1930.55
694.524	1891.64
694.713	1912.12
694.902	1920.31
695.092	1942.84
695.281	2032.95
695.47	1922.36
695.659	1867.06
695.848	1828.15
696.037	1946.94
696.226	1811.77
696.415	1801.53
696.604	1983.8
696.793	1848.63
696.982	1891.64
697.171	1901.88
697.36	1893.69
697.549	1916.22
697.738	1862.97
697.927	1908.02
698.116	1809.72
698.305	1832.25
698.494	1856.82
698.683	1891.64
698.872	1967.42
699.061	1856.82
699.25	1846.59
699.438	1914.17
699.627	1787.19
699.816	1912.12
700.005	1852.73
700.193	1768.76
700.382	1912.12
700.571	1850.68
700.76	1951.03
700.948	1858.87
701.137	1883.45
701.326	1756.47
701.514	1948.98
701.703	1836.35
701.892	1791.29
702.08	1883.45
702.269	1940.79
702.457	1783.1
702.646	1832.25
702.834	1787.19
703.023	1772.86
703.212	1901.88
703.4	1873.21
703.589	1852.73
703.777	1889.59
703.965	1875.26
704.154	1920.31
704.342	1928.5
704.531	1869.11
704.719	1779
704.907	1969.46
705.096	1789.24
705.284	1869.11
705.472	1869.11
705.661	1885.5
705.849	1881.4
706.037	1865.02
706.226	1799.48
706.414	1836.35
706.602	1850.68
706.79	1862.97
706.979	1856.82
707.167	1867.06
707.355	1791.29
707.543	1774.91
707.731	1848.63
707.919	1903.93
708.107	1951.03
708.296	1858.87
708.484	1951.03
708.672	1893.69
708.86	1811.77
709.048	1854.78
709.236	1815.87
709.424	1926.46
709.612	1803.58
709.8	1944.89
709.988	1813.82
710.176	1828.15
710.364	1869.11
710.551	1910.07
710.739	1774.91
710.927	1850.68
711.115	1828.15
711.303	1897.78
711.491	1994.04
711.679	1875.26
711.866	1871.16
712.054	1885.5
712.242	1887.54
712.43	1830.2
712.617	1885.5
712.805	1895.74
712.993	1891.64
713.181	1844.54
713.368	1842.49
713.556	1891.64
713.744	1981.75
713.931	1973.56
714.119	1895.74
714.306	2008.37
714.494	1922.36
714.682	1930.55
714.869	1807.67
715.057	1836.35
715.244	1869.11
715.432	1922.36
715.619	1828.15
715.807	1891.64
715.994	1772.86
716.182	1901.88
716.369	2032.95
716.556	1873.21
716.744	1824.06
716.931	1840.44
717.119	1881.4
717.306	1893.69
717.493	1899.83
717.681	1895.74
717.868	1844.54
718.055	1807.67
718.242	1895.74
718.43	1803.58
718.617	1895.74
718.804	1908.02
718.991	1932.6
719.179	1783.1
719.366	1797.43
719.553	1879.35
719.74	1897.78
719.927	1834.3
720.114	1854.78
720.301	1918.26
720.488	1969.46
720.676	1836.35
720.863	1926.46
721.05	1918.26
721.237	1885.5
721.424	2010.42
721.611	1815.87
721.798	1721.66
721.985	1862.97
722.172	1813.82
722.358	1885.5
722.545	1910.07
722.732	1926.46
722.919	1871.16
723.106	1889.59
723.293	1840.44
723.48	1819.96
723.667	1813.82
723.853	1938.74
724.04	1938.74
724.227	1899.83
724.414	1705.28
724.6	1908.02
724.787	1854.78
724.974	1840.44
725.161	1930.55
725.347	1682.75
725.534	1797.43
725.72	1918.26
725.907	1891.64
726.094	1889.59
726.28	1854.78
726.467	1901.88
726.653	1942.84
726.84	1854.78
727.027	1860.92
727.213	1893.69
727.4	1914.17
727.586	1856.82
727.773	1973.56
727.959	1985.85
728.145	1955.13
728.332	1840.44
728.518	1869.11
728.705	1893.69
728.891	1852.73
729.077	1871.16
729.264	1965.37
729.45	1815.87
729.636	1877.3
729.823	1893.69
730.009	1910.07
730.195	1850.68
730.382	1787.19
730.568	1881.4
730.754	1895.74
730.94	1842.49
731.126	1891.64
731.313	1881.4
731.499	1793.34
731.685	1758.52
731.871	1877.3
732.057	1893.69
732.243	1887.54
732.429	1918.26
732.615	1869.11
732.801	1840.44
732.987	1801.53
733.173	1871.16
733.359	1883.45
733.545	1840.44
733.731	1871.16
733.917	1893.69
734.103	1717.56
734.289	1842.49
734.475	1871.16
734.661	1983.8
734.847	1883.45
735.033	1756.47
735.219	1850.68
735.404	1883.45
735.59	1813.82
735.776	1858.87
735.962	1901.88
736.148	1742.14
736.333	1879.35
736.519	1840.44
736.705	1783.1
736.89	1830.2
737.076	1725.75
737.262	1867.06
737.447	1758.52
737.633	1834.3
737.819	1807.67
738.004	1787.19
738.19	1895.74
738.375	1731.9
738.561	1860.92
738.747	1824.06
738.932	1717.56
739.118	1881.4
739.303	1811.77
739.489	1695.04
739.674	1738.04
739.859	1744.19
740.045	1701.18
740.23	1815.87
740.416	1735.99
740.601	1805.63
740.786	1760.57
740.972	1660.22
741.157	1652.03
741.342	1762.62
741.528	1643.84
741.713	1776.95
741.898	1725.75
742.084	1738.04
742.269	1727.8
742.454	1649.98
742.639	1604.92
742.824	1748.28
743.01	1709.37
743.195	1647.93
743.38	1684.8
743.565	1717.56
743.75	1637.69
743.935	1715.52
744.12	1654.08
744.305	1666.36
744.49	1553.73
744.675	1758.52
744.86	1680.7
745.045	1576.25
745.23	1543.49
745.415	1576.25
745.6	1574.21
745.785	1611.07
745.97	1539.39
746.155	1455.42
746.34	1645.88
746.525	1531.2
746.71	1598.78
746.895	1461.57
747.079	1494.33
747.264	1563.97
747.449	1391.94
747.634	1492.29
747.819	1396.03
748.003	1482.05
748.188	1449.28
748.373	1463.61
748.557	1424.7
748.742	1402.18
748.927	1443.14
749.111	1371.46
749.296	1379.65
749.481	1457.47
749.665	1383.74
749.85	1475.9
750.034	1461.57
750.219	1332.54
750.404	1381.7
750.588	1303.87
750.773	1375.55
750.957	1389.89
751.141	1350.98
751.326	1365.31
751.51	1312.07
751.695	1310.02
751.879	1346.88
752.064	1312.07
752.248	1385.79
752.432	1281.35
752.617	1252.67
752.801	1271.11
752.985	1240.39
753.17	1279.3
753.354	1236.29
753.538	1224
753.722	1224
753.907	1228.1
754.091	1154.37
754.275	1207.62
754.459	1176.9
754.643	1123.65
754.828	1097.03
755.012	1176.9
755.196	1209.67
755.38	1072.45
755.564	1103.17
755.748	1076.55
755.932	1154.37
756.116	1019.21
756.3	1195.33
756.484	1097.03
756.668	1135.94
756.852	1117.51
757.036	1033.54
757.22	1041.73
757.404	853.32
757.588	1033.54
757.772	1092.93
757.956	1008.97
758.14	1049.93
758.323	1004.87
758.507	978.25
758.691	1135.94
758.875	931.14
759.059	1015.11
759.242	965.96
759.426	957.77
759.61	900.42
759.794	937.29
759.977	994.63
760.161	978.25
760.345	980.29
760.528	994.63
760.712	906.57
760.895	959.81
761.079	961.86
761.263	871.75
761.446	867.66
761.63	943.43
761.813	900.42
761.997	791.88
762.18	931.14
762.364	890.18
762.547	957.77
762.731	853.32
762.914	892.23
763.098	910.66
763.281	873.8
763.464	826.7
763.648	818.5
763.831	867.66
764.015	861.51
764.198	886.09
764.381	857.42
764.564	902.47
764.748	851.27
764.931	777.55
765.114	832.84
765.297	845.13
765.481	773.45
765.664	849.22
765.847	755.02
766.03	822.6
766.213	800.07
766.397	871.75
766.58	755.02
766.763	853.32
766.946	777.55
767.129	718.15
767.312	707.91
767.495	812.36
767.678	808.26
767.861	718.15
768.044	781.64
768.227	830.79
768.41	787.79
768.593	785.74
768.776	728.39
768.959	691.53
769.142	726.35
769.324	834.89
769.507	730.44
769.69	718.15
769.873	689.48
770.056	712.01
770.239	834.89
770.421	703.82
770.604	748.87
770.787	730.44
770.97	660.81
771.152	705.87
771.335	679.24
771.518	679.24
771.7	714.06
771.883	810.31
772.066	726.35
772.248	632.14
772.431	722.25
772.613	744.78
772.796	589.13
772.978	632.14
773.161	714.06
773.343	654.67
773.526	603.47
773.708	580.94
773.891	570.7
774.073	673.1
774.256	685.39
774.438	539.98
774.621	664.91
774.803	691.53
774.985	539.98
775.168	634.19
775.35	529.74
775.532	673.1
775.715	615.76
775.897	605.52
776.079	589.13
776.261	603.47
776.444	556.36
776.626	574.8
776.808	511.31
776.99	562.51
777.173	482.64
777.355	574.8
777.537	539.98
777.719	550.22
777.901	513.36
778.083	560.46
778.265	490.83
778.447	529.74
778.629	488.78
778.811	546.12
778.993	595.28
779.175	587.08
779.357	519.5
779.539	521.55
779.721	507.21
779.903	496.97
780.085	388.43
780.267	460.11
780.449	476.49
780.631	439.63
780.812	496.97
780.994	470.35
781.176	468.3
781.358	447.82
781.54	429.39
781.721	531.79
781.903	499.02
782.085	417.1
782.267	472.4
782.448	453.97
782.63	523.6
782.812	460.11
782.993	378.19
783.175	474.45
783.357	367.95
783.538	437.58
783.72	404.82
783.901	451.92
784.083	351.57
784.264	365.9
784.446	419.15
784.627	345.42
784.809	365.9
784.99	365.9
785.172	355.66
785.353	374.1
785.535	408.91
785.716	396.62
785.897	341.33
786.079	345.42
786.26	365.9
786.441	388.43
786.623	386.38
786.804	314.7
786.985	320.85
787.167	341.33
787.348	329.04
787.529	277.84
787.71	324.94
787.891	279.89
788.073	269.65
788.254	341.33
788.435	343.38
788.616	329.04
788.797	378.19
788.978	271.7
789.159	306.51
789.34	302.42
789.522	294.22
789.703	249.17
789.884	347.47
790.065	271.7
790.246	376.14
790.427	300.37
790.607	306.51
790.788	372.05
790.969	253.27
791.15	294.22
791.331	310.61
791.512	257.36
791.693	218.45
791.874	324.94
792.054	279.89
792.235	265.55
792.416	255.31
792.597	277.84
792.778	286.03
792.958	255.31
793.139	257.36
793.32	253.27
793.5	283.98
793.681	310.61
793.862	163.15
794.042	222.55
794.223	214.35
794.404	191.83
794.584	126.29
794.765	216.4
794.945	171.35
795.126	226.64
795.306	298.32
795.487	312.66
795.667	197.97
795.848	288.08
796.028	214.35
796.209	202.07
796.389	187.73
796.57	159.06
796.75	224.59
796.93	224.59
797.111	234.83
797.291	253.27
797.471	261.46
797.652	245.07
797.832	222.55
798.012	220.5
798.192	124.24
798.373	202.07
798.553	167.25
798.733	169.3
798.913	126.29
799.093	249.17
799.274	148.82
799.454	163.15
799.634	251.22
799.814	218.45
799.994	236.88
800.174	216.4
800.354	261.46
800.534	179.54
800.714	191.83
800.894	191.83
801.074	148.82
801.254	167.25
801.434	197.97
801.614	138.58
801.794	134.48
801.974	564.56
802.154	193.87
802.334	197.97
802.514	177.49
802.693	236.88
802.873	167.25
803.053	226.64
803.233	154.96
803.413	140.63
803.592	163.15
803.772	189.78
803.952	200.02
804.131	175.44
804.311	189.78
804.491	167.25
804.67	159.06
804.85	93.52
805.03	157.01
805.209	208.21
805.389	154.96
805.568	87.38
805.748	118.1
805.928	222.55
806.107	173.39
806.287	132.44
806.466	157.01
806.646	134.48
806.825	97.62
807.004	173.39
807.184	157.01
807.363	206.16
807.543	183.63
807.722	144.72
807.901	185.68
808.081	109.91
808.26	91.48
808.439	118.1
808.619	163.15
808.798	200.02
808.977	154.96
809.156	173.39
809.336	154.96
809.515	136.53
809.694	85.33
809.873	101.72
810.052	124.24
810.231	120.15
810.411	54.61
810.59	152.91
810.769	161.11
810.948	91.48
811.127	83.28
811.306	185.68
811.485	81.24
811.664	146.77
811.843	114
812.022	109.91
812.201	46.42
812.38	167.25
812.559	138.58
812.737	64.85
812.916	132.44
813.095	85.33
813.274	62.8
813.453	120.15
813.632	152.91
813.811	122.2
813.989	144.72
814.168	122.2
814.347	32.08
814.526	105.81
814.704	126.29
814.883	75.09
815.062	114
815.24	138.58
815.419	34.13
815.598	89.43
815.776	85.33
815.955	109.91
816.133	99.67
816.312	32.08
816.49	30.04
816.669	95.57
816.847	169.3
817.026	48.47
817.204	77.14
817.383	103.76
817.561	142.68
817.74	177.49
817.918	23.89
818.097	120.15
818.275	34.13
818.453	152.91
818.632	79.19
818.81	87.38
818.988	118.1
819.167	56.66
819.345	132.44
819.523	107.86
819.701	64.85
819.879	124.24
820.058	73.04
820.236	95.57
820.414	66.9
820.592	66.9
820.77	91.48
820.948	171.35
821.127	161.11
821.305	36.18
821.483	-4.78
821.661	75.09
821.839	89.43
822.017	62.8
822.195	73.04
822.373	32.08
822.551	44.37
822.729	116.05
822.907	79.19
823.085	19.8
823.262	122.2
823.44	75.09
823.618	50.52
823.796	56.66
823.974	87.38
824.152	44.37
824.329	48.47
824.507	95.57
824.685	-2.73
824.863	159.06
825.04	62.8
825.218	9.56
825.396	79.19
825.574	95.57
825.751	48.47
825.929	56.66
826.107	46.42
826.284	58.71
826.462	17.75
826.639	71
826.817	36.18
826.994	42.32
827.172	9.56
827.349	81.24
827.527	25.94
827.704	56.66
827.882	-29.35
828.059	56.66
828.237	62.8
828.414	42.32
828.591	19.8
828.769	48.47
828.946	79.19
829.124	64.85
829.301	54.61
829.478	34.13
829.655	54.61
829.833	9.56
830.01	32.08
830.187	54.61
830.364	46.42
830.542	50.52
830.719	148.82
830.896	66.9
831.073	103.76
831.25	91.48
831.427	-39.59
831.604	42.32
831.782	68.95
831.959	128.34
832.136	87.38
832.313	68.95
832.49	124.24
832.667	62.8
832.844	-0.68
833.021	56.66
833.198	17.75
833.374	105.81
833.551	17.75
833.728	52.56
833.905	5.46
834.082	9.56
834.259	89.43
834.436	1.37
834.612	-6.83
834.789	64.85
834.966	-8.87
835.143	30.04
835.319	36.18
835.496	21.84
835.673	91.48
835.85	34.13
836.026	34.13
836.203	23.89
836.38	40.28
836.556	83.28
836.733	54.61
836.909	56.66
837.086	42.32
837.262	-0.68
837.439	23.89
837.616	11.61
837.792	54.61
837.968	30.04
838.145	13.65
838.321	25.94
838.498	130.39
838.674	73.04
838.851	-37.55
839.027	64.85
839.203	58.71
839.38	46.42
839.556	89.43
839.732	7.51
839.909	25.94
840.085	9.56
840.261	1.37
840.437	62.8
840.614	7.51
840.79	-8.87
840.966	56.66
841.142	7.51
841.318	36.18
841.494	79.19
841.671	40.28
841.847	99.67
842.023	64.85
842.199	-15.02
842.375	54.61
842.551	-27.31
842.727	23.89
842.903	25.94
843.079	-29.35
843.255	19.8
843.431	-6.83
843.607	52.56
843.783	54.61
843.959	34.13
844.134	27.99
844.31	46.42
844.486	7.51
844.662	-39.59
844.838	-6.83
845.013	3.41
845.189	-4.78
845.365	25.94
845.541	52.56
845.716	-35.5
845.892	9.56
846.068	21.84
846.244	27.99
846.419	9.56
846.595	-27.31
846.77	5.46
846.946	85.33
847.122	54.61
847.297	30.04
847.473	-4.78
847.648	44.37
847.824	9.56
847.999	30.04
848.175	23.89
848.35	32.08
848.526	-2.73
848.701	36.18
848.876	30.04
849.052	46.42
849.227	25.94
849.403	32.08
849.578	-10.92
849.753	50.52
849.929	54.61
850.104	-17.07
850.279	75.09
850.454	36.18
850.63	-2.73
850.805	40.28
850.98	64.85
851.155	-29.35
851.33	-19.11
851.505	48.47
851.681	-10.92
851.856	-66.22
852.031	-6.83
852.206	30.04
852.381	25.94
852.556	-4.78
852.731	-6.83
852.906	58.71
853.081	-0.68
853.256	-27.31
853.431	64.85
853.606	7.51
853.781	5.46
853.956	-53.93
854.131	23.89
854.305	-2.73
854.48	-10.92
854.655	-43.69
854.83	17.75
855.005	-8.87
855.18	27.99
855.354	-35.5
855.529	-23.21
855.704	-6.83
855.879	30.04
856.053	-25.26
856.228	1.37
856.403	34.13
856.577	62.8
856.752	-72.36
856.926	77.14
857.101	-51.88
857.276	-64.17
857.45	-25.26
857.625	25.94
857.799	50.52
857.974	25.94
858.148	-10.92
858.323	-4.78
858.497	-68.27
858.672	-10.92
858.846	-15.02
859.02	-27.31
859.195	5.46
859.369	38.23
859.543	3.41
859.718	-6.83
859.892	-0.68
860.066	58.71
860.241	-43.69
860.415	-15.02
860.589	25.94
860.763	30.04
860.938	-84.65
861.112	30.04
861.286	-4.78
861.46	30.04
861.634	-82.6
861.808	-19.11
861.982	-60.07
862.157	-4.78
862.331	13.65
862.505	-25.26
862.679	-37.55
862.853	-15.02
863.027	79.19
863.201	17.75
863.375	23.89
863.549	5.46
863.722	-31.4
863.896	13.65
864.07	17.75
864.244	11.61
864.418	-23.21
864.592	15.7
864.766	54.61
864.939	-23.21
865.113	-68.27
865.287	7.51
865.461	-25.26
865.634	-29.35
865.808	13.65
865.982	11.61
866.156	-19.11
866.329	25.94
866.503	32.08
866.676	-2.73
866.85	-12.97
867.024	46.42
867.197	62.8
867.371	7.51
867.544	15.7
867.718	-10.92
867.891	58.71
868.065	54.61
868.238	-58.03
868.412	-33.45
868.585	-96.94
868.759	-37.55
868.932	-8.87
869.105	-33.45
869.279	-37.55
869.452	9.56
869.625	-8.87
869.799	-15.02
869.972	36.18
870.145	13.65
870.319	-31.4
870.492	-33.45
870.665	-29.35
870.838	-66.22
871.011	-41.64
871.185	-12.97
871.358	17.75
871.531	15.7
871.704	62.8
871.877	-33.45
872.05	-4.78
872.223	1.37
872.396	34.13
872.569	48.47
872.742	7.51
872.915	34.13
873.088	1.37
873.261	-4.78
873.434	-78.51
873.607	1.37
873.78	15.7
873.953	-17.07
874.126	-0.68
874.299	40.28
874.471	-10.92
874.644	-53.93
874.817	62.8
874.99	-41.64
875.163	-51.88
875.335	34.13
875.508	9.56
875.681	46.42
875.853	-15.02
876.026	-8.87
876.199	-17.07
876.371	36.18
876.544	11.61
876.717	40.28
876.889	-76.46
877.062	36.18
877.234	-62.12
877.407	-51.88
877.579	-29.35
877.752	-35.5
877.924	30.04
878.097	23.89
878.269	-17.07
878.442	-10.92
878.614	1.37
878.786	-21.16
878.959	-27.31
879.131	93.52
879.303	-19.11
879.476	83.28
879.648	75.09
879.82	-80.55
879.993	-39.59
880.165	-68.27
880.337	38.23
880.509	-82.6
880.681	-31.4
880.854	13.65
881.026	13.65
881.198	60.76
881.37	42.32
881.542	-17.07
881.714	-55.98
881.886	-0.68
882.058	-43.69
882.23	-84.65
882.402	7.51
882.574	-25.26
882.746	15.7
882.918	30.04
883.09	-31.4
883.262	-6.83
883.434	7.51
883.606	32.08
883.778	38.23
883.95	-8.87
884.122	32.08
884.293	25.94
884.465	11.61
884.637	-12.97
884.809	-19.11
884.98	-15.02
885.152	46.42
885.324	73.04
885.496	-53.93
885.667	-72.36
885.839	9.56
886.011	1.37
886.182	19.8
886.354	-15.02
886.525	-82.6
886.697	54.61
886.869	-49.83
887.04	-117.42
887.212	17.75
887.383	13.65
887.555	-27.31
887.726	-33.45
887.897	-96.94
888.069	1.37
888.24	25.94
888.412	-19.11
888.583	-23.21
888.754	7.51
888.926	-53.93
889.097	25.94
889.268	38.23
889.44	-10.92
889.611	3.41
889.782	-45.74
889.953	-39.59
890.125	-12.97
890.296	79.19
890.467	19.8
890.638	-33.45
890.809	27.99
890.98	-19.11
891.151	107.86
891.323	-10.92
891.494	17.75
891.665	7.51
891.836	11.61
892.007	34.13
892.178	11.61
892.349	-55.98
892.52	-8.87
892.691	-115.37
892.862	-55.98
893.032	-107.18
893.203	-6.83
893.374	-47.79
893.545	17.75
893.716	58.71
893.887	25.94
894.057	48.47
894.228	1.37
894.399	9.56
894.57	85.33
894.74	-43.69
894.911	17.75
895.082	-60.07
895.253	13.65
895.423	-23.21
895.594	-8.87
895.764	54.61
895.935	-21.16
896.106	-31.4
896.276	-39.59
896.447	-10.92
896.617	-27.31
896.788	-58.03
896.958	-37.55
897.129	-98.99
897.299	-23.21
897.47	34.13
897.64	-23.21
897.81	54.61
897.981	-55.98
898.151	-72.36
898.322	-19.11
898.492	-2.73
898.662	-2.73
898.832	-21.16
899.003	-72.36
899.173	11.61
899.343	-12.97
899.513	-31.4
