Data from USB4F104151__264__11-11-59-267.txt Node

Date: Wed Mar 12 11:11:59 EDT 2025
User: louis
Spectrometer: USB4F10415
Trigger mode: 4
Integration Time (sec): 2.000000E-2
Scans to average: 1
Electric dark correction enabled: true
Nonlinearity correction enabled: false
Boxcar width: 0
XAxis mode: Wavelengths
Number of Pixels in Spectrum: 3648
>>>>>Begin Spectral Data<<<<<
178.204	-23.38
178.424	-23.38
178.644	-23.38
178.864	-11.09
179.084	-125.78
179.304	25.77
179.524	9.39
179.744	13.48
179.964	11.43
180.184	-19.29
180.404	-2.9
180.624	62.63
180.844	-4.95
181.064	-47.96
181.283	17.58
181.503	-37.72
181.723	-27.48
181.943	-62.29
182.163	89.26
182.383	58.54
182.602	23.72
182.822	13.48
183.042	3.24
183.262	-68.44
183.482	25.77
183.701	19.63
183.921	21.67
184.141	1.19
184.361	44.2
184.58	-19.29
184.8	9.39
185.02	70.83
185.239	40.11
185.459	-2.9
185.679	13.48
185.898	-33.62
186.118	1.19
186.338	29.87
186.557	25.77
186.777	-45.91
186.997	-35.67
187.216	-23.38
187.436	130.22
187.655	83.11
187.875	19.63
188.095	40.11
188.314	52.39
188.534	15.53
188.753	-9.05
188.973	-35.67
189.192	25.77
189.412	-0.85
189.631	54.44
189.851	-35.67
190.07	68.78
190.29	-43.86
190.509	-27.48
190.729	68.78
190.948	36.01
191.168	66.73
191.387	74.92
191.607	17.58
191.826	-23.38
192.045	3.24
192.265	-35.67
192.484	27.82
192.704	19.63
192.923	15.53
193.142	79.02
193.362	50.35
193.581	17.58
193.8	-64.34
194.02	64.68
194.239	-17.24
194.458	52.39
194.678	17.58
194.897	-52.05
195.116	-17.24
195.335	-47.96
195.555	76.97
195.774	9.39
195.993	52.39
196.212	25.77
196.432	-25.43
196.651	79.02
196.87	-2.9
197.089	91.31
197.308	-9.05
197.528	60.59
197.747	5.29
197.966	21.67
198.185	-25.43
198.404	19.63
198.623	15.53
198.842	117.93
199.062	103.59
199.281	-27.48
199.5	-7
199.719	56.49
199.938	-13.14
200.157	36.01
200.376	-11.09
200.595	-23.38
200.814	21.67
201.033	-29.52
201.252	44.2
201.471	36.01
201.69	-13.14
201.909	31.91
202.128	33.96
202.347	3.24
202.566	11.43
202.785	3.24
203.004	48.3
203.223	105.64
203.442	25.77
203.661	79.02
203.879	23.72
204.098	56.49
204.317	40.11
204.536	-25.43
204.755	-35.67
204.974	21.67
205.193	5.29
205.411	-31.57
205.63	50.35
205.849	36.01
206.068	-13.14
206.287	95.4
206.505	68.78
206.724	-7
206.943	44.2
207.162	-23.38
207.381	-7
207.599	60.59
207.818	-2.9
208.037	3.24
208.255	-2.9
208.474	15.53
208.693	36.01
208.911	58.54
209.13	46.25
209.349	23.72
209.567	25.77
209.786	33.96
210.005	-47.96
210.223	-27.48
210.442	7.34
210.661	-13.14
210.879	-31.57
211.098	15.53
211.316	-47.96
211.535	29.87
211.753	-2.9
211.972	70.83
212.191	74.92
212.409	11.43
212.628	-70.48
212.846	66.73
213.065	-4.95
213.283	7.34
213.502	21.67
213.72	15.53
213.938	19.63
214.157	17.58
214.375	-47.96
214.594	42.15
214.812	-33.62
215.031	52.39
215.249	-56.15
215.467	89.26
215.686	17.58
215.904	33.96
216.122	-27.48
216.341	83.11
216.559	15.53
216.778	76.97
216.996	64.68
217.214	52.39
217.432	3.24
217.651	36.01
217.869	1.19
218.087	5.29
218.306	7.34
218.524	60.59
218.742	-23.38
218.96	40.11
219.179	19.63
219.397	74.92
219.615	52.39
219.833	13.48
220.051	23.72
220.27	40.11
220.488	-23.38
220.706	-41.81
220.924	42.15
221.142	21.67
221.36	-58.2
221.578	23.72
221.796	33.96
222.015	21.67
222.233	33.96
222.451	-2.9
222.669	13.48
222.887	-15.19
223.105	33.96
223.323	56.49
223.541	-7
223.759	29.87
223.977	-2.9
224.195	74.92
224.413	17.58
224.631	15.53
224.849	13.48
225.067	115.88
225.285	9.39
225.503	9.39
225.721	-56.15
225.939	74.92
226.157	44.2
226.375	111.78
226.592	-70.48
226.81	-19.29
227.028	50.35
227.246	21.67
227.464	-11.09
227.682	76.97
227.9	76.97
228.117	44.2
228.335	15.53
228.553	36.01
228.771	38.06
228.989	36.01
229.206	29.87
229.424	62.63
229.642	-58.2
229.86	40.11
230.077	-0.85
230.295	54.44
230.513	-19.29
230.731	48.3
230.948	58.54
231.166	50.35
231.384	-2.9
231.601	5.29
231.819	-23.38
232.037	119.98
232.254	21.67
232.472	64.68
232.689	42.15
232.907	13.48
233.125	50.35
233.342	-9.05
233.56	40.11
233.777	3.24
233.995	-39.76
234.213	48.3
234.43	46.25
234.648	19.63
234.865	31.91
235.083	54.44
235.3	-17.24
235.518	-21.33
235.735	1.19
235.953	56.49
236.17	13.48
236.388	-13.14
236.605	36.01
236.822	76.97
237.04	-23.38
237.257	-50
237.475	1.19
237.692	17.58
237.909	46.25
238.127	-7
238.344	52.39
238.562	21.67
238.779	11.43
238.996	-9.05
239.214	52.39
239.431	29.87
239.648	19.63
239.865	-9.05
240.083	-7
240.3	-31.57
240.517	79.02
240.735	15.53
240.952	40.11
241.169	31.91
241.386	21.67
241.603	-7
241.821	-9.05
242.038	33.96
242.255	60.59
242.472	42.15
242.689	-25.43
242.907	52.39
243.124	31.91
243.341	50.35
243.558	17.58
243.775	9.39
243.992	-0.85
244.209	42.15
244.426	64.68
244.643	56.49
244.86	-41.81
245.078	1.19
245.295	36.01
245.512	-19.29
245.729	-25.43
245.946	13.48
246.163	105.64
246.38	11.43
246.597	1.19
246.814	27.82
247.031	27.82
247.248	15.53
247.464	50.35
247.681	44.2
247.898	56.49
248.115	-35.67
248.332	-74.58
248.549	-13.14
248.766	19.63
248.983	36.01
249.2	-31.57
249.417	-31.57
249.633	-15.19
249.85	13.48
250.067	-17.24
250.284	99.5
250.501	27.82
250.717	36.01
250.934	48.3
251.151	64.68
251.368	52.39
251.585	105.64
251.801	1.19
252.018	5.29
252.235	70.83
252.451	15.53
252.668	33.96
252.885	40.11
253.102	56.49
253.318	52.39
253.535	3.24
253.752	-9.05
253.968	21.67
254.185	17.58
254.401	44.2
254.618	29.87
254.835	42.15
255.051	72.87
255.268	66.73
255.484	-72.53
255.701	-47.96
255.917	3.24
256.134	-70.48
256.351	50.35
256.567	-11.09
256.784	25.77
257	29.87
257.217	25.77
257.433	25.77
257.65	-21.33
257.866	-19.29
258.082	-4.95
258.299	23.72
258.515	27.82
258.732	-37.72
258.948	66.73
259.165	-25.43
259.381	-80.72
259.597	66.73
259.814	-58.2
260.03	-35.67
260.246	25.77
260.463	-23.38
260.679	68.78
260.895	-23.38
261.112	-9.05
261.328	29.87
261.544	-33.62
261.761	87.21
261.977	29.87
262.193	132.26
262.409	11.43
262.626	33.96
262.842	76.97
263.058	23.72
263.274	-9.05
263.49	38.06
263.707	9.39
263.923	7.34
264.139	87.21
264.355	87.21
264.571	50.35
264.787	-23.38
265.004	56.49
265.22	5.29
265.436	27.82
265.652	62.63
265.868	79.02
266.084	-0.85
266.3	58.54
266.516	31.91
266.732	50.35
266.948	3.24
267.164	-17.24
267.38	-27.48
267.596	50.35
267.812	25.77
268.028	-0.85
268.244	83.11
268.46	-29.52
268.676	-23.38
268.892	46.25
269.108	66.73
269.324	7.34
269.54	7.34
269.756	-7
269.972	-15.19
270.188	70.83
270.403	95.4
270.619	42.15
270.835	62.63
271.051	1.19
271.267	-7
271.483	89.26
271.698	74.92
271.914	-4.95
272.13	42.15
272.346	13.48
272.562	9.39
272.777	76.97
272.993	-15.19
273.209	56.49
273.425	21.67
273.64	-13.14
273.856	1.19
274.072	1.19
274.287	-35.67
274.503	9.39
274.719	58.54
274.934	15.53
275.15	-21.33
275.366	21.67
275.581	-19.29
275.797	1.19
276.012	58.54
276.228	17.58
276.444	58.54
276.659	40.11
276.875	21.67
277.09	27.82
277.306	1.19
277.521	3.24
277.737	-39.76
277.952	46.25
278.168	-7
278.383	42.15
278.599	31.91
278.814	62.63
279.03	-7
279.245	15.53
279.461	44.2
279.676	17.58
279.892	-17.24
280.107	17.58
280.322	-9.05
280.538	38.06
280.753	-23.38
280.969	68.78
281.184	-25.43
281.399	50.35
281.615	50.35
281.83	-52.05
282.045	27.82
282.26	42.15
282.476	46.25
282.691	-23.38
282.906	25.77
283.122	42.15
283.337	23.72
283.552	23.72
283.767	23.72
283.983	3.24
284.198	-0.85
284.413	21.67
284.628	-2.9
284.843	38.06
285.058	15.53
285.274	25.77
285.489	-88.92
285.704	-0.85
285.919	62.63
286.134	-0.85
286.349	-33.62
286.564	38.06
286.779	-62.29
286.995	25.77
287.21	-0.85
287.425	31.91
287.64	64.68
287.855	9.39
288.07	79.02
288.285	-2.9
288.5	-9.05
288.715	72.87
288.93	15.53
289.145	64.68
289.36	1.19
289.575	19.63
289.79	-15.19
290.004	40.11
290.219	17.58
290.434	42.15
290.649	48.3
290.864	42.15
291.079	13.48
291.294	-19.29
291.509	3.24
291.724	-7
291.938	44.2
292.153	-66.39
292.368	-11.09
292.583	48.3
292.798	3.24
293.012	87.21
293.227	50.35
293.442	72.87
293.657	-37.72
293.871	33.96
294.086	-45.91
294.301	74.92
294.516	-25.43
294.73	40.11
294.945	-11.09
295.16	5.29
295.374	54.44
295.589	40.11
295.804	23.72
296.018	70.83
296.233	21.67
296.447	25.77
296.662	46.25
296.877	33.96
297.091	27.82
297.306	38.06
297.52	-23.38
297.735	36.01
297.949	36.01
298.164	-2.9
298.378	15.53
298.593	48.3
298.807	17.58
299.022	-37.72
299.236	95.4
299.451	40.11
299.665	25.77
299.88	-64.34
300.094	-19.29
300.309	1.19
300.523	-41.81
300.737	19.63
300.952	-29.52
301.166	-11.09
301.381	9.39
301.595	19.63
301.809	-27.48
302.024	-43.86
302.238	-15.19
302.452	9.39
302.667	13.48
302.881	7.34
303.095	1.19
303.309	62.63
303.524	-29.52
303.738	5.29
303.952	11.43
304.166	-41.81
304.381	-27.48
304.595	160.94
304.809	1.19
305.023	29.87
305.237	5.29
305.452	-43.86
305.666	-39.76
305.88	29.87
306.094	54.44
306.308	-37.72
306.522	56.49
306.736	52.39
306.95	11.43
307.164	25.77
307.379	-13.14
307.593	42.15
307.807	42.15
308.021	52.39
308.235	25.77
308.449	-9.05
308.663	-50
308.877	3.24
309.091	40.11
309.305	56.49
309.519	-17.24
309.733	60.59
309.947	-78.68
310.161	27.82
310.374	11.43
310.588	50.35
310.802	23.72
311.016	-0.85
311.23	31.91
311.444	128.17
311.658	87.21
311.872	27.82
312.085	25.77
312.299	60.59
312.513	15.53
312.727	3.24
312.941	-31.57
313.154	31.91
313.368	9.39
313.582	-23.38
313.796	-25.43
314.009	21.67
314.223	56.49
314.437	-4.95
314.651	54.44
314.864	1.19
315.078	58.54
315.292	-15.19
315.505	36.01
315.719	60.59
315.933	25.77
316.146	13.48
316.36	-4.95
316.573	54.44
316.787	87.21
317.001	-35.67
317.214	-27.48
317.428	56.49
317.641	19.63
317.855	-41.81
318.068	-0.85
318.282	99.5
318.495	-25.43
318.709	46.25
318.922	17.58
319.136	122.02
319.349	42.15
319.563	103.59
319.776	-33.62
319.99	-39.76
320.203	50.35
320.417	13.48
320.63	50.35
320.843	97.45
321.057	44.2
321.27	-25.43
321.483	33.96
321.697	44.2
321.91	-13.14
322.124	62.63
322.337	48.3
322.55	-7
322.763	-27.48
322.977	58.54
323.19	46.25
323.403	15.53
323.617	36.01
323.83	62.63
324.043	44.2
324.256	42.15
324.469	-13.14
324.683	74.92
324.896	27.82
325.109	13.48
325.322	-31.57
325.535	72.87
325.748	-39.76
325.962	-31.57
326.175	42.15
326.388	60.59
326.601	68.78
326.814	1.19
327.027	-15.19
327.24	40.11
327.453	7.34
327.666	-13.14
327.879	23.72
328.092	40.11
328.305	25.77
328.518	17.58
328.731	13.48
328.944	21.67
329.157	46.25
329.37	7.34
329.583	38.06
329.796	33.96
330.009	50.35
330.222	64.68
330.435	74.92
330.648	66.73
330.861	50.35
331.073	-37.72
331.286	89.26
331.499	72.87
331.712	-15.19
331.925	-64.34
332.138	83.11
332.35	-15.19
332.563	58.54
332.776	70.83
332.989	13.48
333.202	36.01
333.414	-15.19
333.627	58.54
333.84	29.87
334.053	17.58
334.265	-27.48
334.478	-2.9
334.691	13.48
334.903	1.19
335.116	23.72
335.329	58.54
335.541	33.96
335.754	-29.52
335.966	15.53
336.179	-13.14
336.392	-23.38
336.604	-7
336.817	52.39
337.029	99.5
337.242	54.44
337.454	46.25
337.667	38.06
337.88	50.35
338.092	9.39
338.305	58.54
338.517	83.11
338.729	-43.86
338.942	36.01
339.154	13.48
339.367	29.87
339.579	62.63
339.792	17.58
340.004	11.43
340.217	-7
340.429	99.5
340.641	-15.19
340.854	-35.67
341.066	33.96
341.278	162.98
341.491	72.87
341.703	68.78
341.915	25.77
342.128	50.35
342.34	31.91
342.552	70.83
342.764	29.87
342.977	7.34
343.189	48.3
343.401	21.67
343.613	-33.62
343.826	-27.48
344.038	-23.38
344.25	89.26
344.462	40.11
344.674	-19.29
344.886	50.35
345.099	46.25
345.311	-31.57
345.523	9.39
345.735	-25.43
345.947	91.31
346.159	64.68
346.371	46.25
346.583	50.35
346.795	72.87
347.007	40.11
347.219	21.67
347.431	13.48
347.643	60.59
347.855	25.77
348.067	29.87
348.279	40.11
348.491	27.82
348.703	64.68
348.915	-56.15
349.127	-43.86
349.339	33.96
349.551	-25.43
349.763	21.67
349.975	72.87
350.187	62.63
350.399	40.11
350.61	-9.05
350.822	11.43
351.034	36.01
351.246	-35.67
351.458	56.49
351.669	31.91
351.881	103.59
352.093	31.91
352.305	36.01
352.517	-13.14
352.728	58.54
352.94	1.19
353.152	85.16
353.363	62.63
353.575	-9.05
353.787	42.15
353.999	-9.05
354.21	29.87
354.422	-35.67
354.633	13.48
354.845	23.72
355.057	1.19
355.268	40.11
355.48	66.73
355.692	38.06
355.903	70.83
356.115	64.68
356.326	15.53
356.538	21.67
356.749	40.11
356.961	62.63
357.172	62.63
357.384	85.16
357.595	36.01
357.807	58.54
358.018	60.59
358.23	9.39
358.441	19.63
358.653	-19.29
358.864	7.34
359.075	-2.9
359.287	3.24
359.498	76.97
359.709	83.11
359.921	25.77
360.132	5.29
360.344	99.5
360.555	3.24
360.766	48.3
360.977	-11.09
361.189	64.68
361.4	-27.48
361.611	126.12
361.823	7.34
362.034	13.48
362.245	7.34
362.456	36.01
362.667	33.96
362.879	38.06
363.09	-93.01
363.301	85.16
363.512	11.43
363.723	76.97
363.935	-7
364.146	23.72
364.357	-7
364.568	60.59
364.779	11.43
364.99	7.34
365.201	56.49
365.412	60.59
365.623	-9.05
365.834	9.39
366.045	38.06
366.256	64.68
366.467	119.98
366.678	38.06
366.889	17.58
367.1	-37.72
367.311	99.5
367.522	56.49
367.733	-23.38
367.944	9.39
368.155	13.48
368.366	105.64
368.577	-23.38
368.788	36.01
368.999	17.58
369.209	-39.76
369.42	62.63
369.631	25.77
369.842	21.67
370.053	33.96
370.264	48.3
370.474	-13.14
370.685	42.15
370.896	-4.95
371.107	107.69
371.317	17.58
371.528	7.34
371.739	56.49
371.95	29.87
372.16	72.87
372.371	33.96
372.582	33.96
372.792	27.82
373.003	9.39
373.214	74.92
373.424	46.25
373.635	17.58
373.846	9.39
374.056	23.72
374.267	25.77
374.477	5.29
374.688	-2.9
374.898	21.67
375.109	31.91
375.319	3.24
375.53	-4.95
375.74	33.96
375.951	3.24
376.161	-56.15
376.372	-13.14
376.582	-9.05
376.793	91.31
377.003	21.67
377.214	-17.24
377.424	13.48
377.635	33.96
377.845	-41.81
378.055	-7
378.266	17.58
378.476	15.53
378.686	-7
378.897	64.68
379.107	38.06
379.317	21.67
379.528	81.07
379.738	70.83
379.948	13.48
380.158	52.39
380.369	42.15
380.579	5.29
380.789	19.63
380.999	58.54
381.21	-25.43
381.42	132.26
381.63	56.49
381.84	-33.62
382.05	27.82
382.261	119.98
382.471	52.39
382.681	1.19
382.891	97.45
383.101	48.3
383.311	42.15
383.521	74.92
383.731	-4.95
383.941	33.96
384.151	97.45
384.361	48.3
384.571	42.15
384.781	56.49
384.991	48.3
385.201	50.35
385.411	11.43
385.621	74.92
385.831	-19.29
386.041	85.16
386.251	21.67
386.461	-11.09
386.671	36.01
386.881	33.96
387.091	-27.48
387.301	21.67
387.511	50.35
387.72	7.34
387.93	3.24
388.14	27.82
388.35	25.77
388.56	66.73
388.769	60.59
388.979	72.87
389.189	-9.05
389.399	58.54
389.609	52.39
389.818	-35.67
390.028	-17.24
390.238	9.39
390.447	48.3
390.657	79.02
390.867	31.91
391.076	50.35
391.286	87.21
391.496	101.55
391.705	33.96
391.915	29.87
392.125	38.06
392.334	62.63
392.544	48.3
392.753	54.44
392.963	17.58
393.172	74.92
393.382	56.49
393.591	93.35
393.801	15.53
394.01	38.06
394.22	-19.29
394.429	68.78
394.639	54.44
394.848	56.49
395.058	33.96
395.267	81.07
395.477	9.39
395.686	40.11
395.895	27.82
396.105	-7
396.314	64.68
396.524	89.26
396.733	1.19
396.942	17.58
397.152	72.87
397.361	91.31
397.57	42.15
397.78	11.43
397.989	76.97
398.198	117.93
398.407	79.02
398.617	-2.9
398.826	66.73
399.035	58.54
399.244	1.19
399.453	29.87
399.663	81.07
399.872	54.44
400.081	7.34
400.29	111.78
400.499	42.15
400.708	115.88
400.917	9.39
401.127	136.36
401.336	48.3
401.545	70.83
401.754	58.54
401.963	19.63
402.172	52.39
402.381	101.55
402.59	54.44
402.799	13.48
403.008	58.54
403.217	156.84
403.426	113.83
403.635	103.59
403.844	52.39
404.053	66.73
404.262	103.59
404.471	128.17
404.68	101.55
404.888	76.97
405.097	134.31
405.306	76.97
405.515	97.45
405.724	62.63
405.933	95.4
406.142	81.07
406.35	111.78
406.559	91.31
406.768	93.35
406.977	150.7
407.185	105.64
407.394	70.83
407.603	128.17
407.812	136.36
408.02	142.5
408.229	187.56
408.438	216.23
408.646	119.98
408.855	111.78
409.064	107.69
409.272	79.02
409.481	193.7
409.69	150.7
409.898	177.32
410.107	128.17
410.315	152.74
410.524	87.21
410.733	136.36
410.941	99.5
411.15	224.42
411.358	173.22
411.567	177.32
411.775	257.19
411.984	158.89
412.192	255.14
412.401	292.01
412.609	259.24
412.818	240.81
413.026	210.09
413.234	183.46
413.443	285.86
413.651	316.58
413.86	267.43
414.068	361.64
414.276	324.77
414.485	357.54
414.693	330.92
414.901	345.25
415.11	425.12
415.318	314.53
415.526	400.55
415.734	418.98
415.943	302.25
416.151	474.28
416.359	353.45
416.567	400.55
416.776	404.64
416.984	480.42
417.192	480.42
417.4	556.19
417.608	525.47
417.817	468.13
418.025	523.43
418.233	677.02
418.441	580.77
418.649	615.59
418.857	640.16
419.065	634.02
419.273	689.31
419.481	726.18
419.689	695.46
419.897	728.22
420.105	801.95
420.313	834.72
420.521	789.66
420.729	902.3
420.937	795.81
421.145	885.92
421.353	926.88
421.561	933.02
421.769	924.83
421.977	1014.94
422.185	1053.85
422.393	1047.71
422.601	1049.75
422.809	1137.82
423.017	1164.44
423.224	1162.39
423.432	1227.93
423.64	1150.11
423.848	1277.08
424.056	1279.13
424.263	1485.97
424.471	1418.39
424.679	1387.67
424.887	1543.32
425.094	1584.27
425.302	1703.06
425.51	1701.01
425.718	1739.92
425.925	1723.54
426.133	1651.86
426.341	1803.41
426.548	1873.04
426.756	1934.48
426.964	2014.35
427.171	2167.95
427.379	2043.02
427.586	2227.34
427.794	2296.97
428.001	2280.58
428.209	2417.8
428.417	2397.32
428.624	2503.81
428.832	2536.58
429.039	2479.24
429.247	2450.57
429.454	2915.45
429.662	2872.45
429.869	2847.87
430.076	3091.58
430.284	2958.46
430.491	2886.78
430.699	3073.15
430.906	3165.31
431.114	3302.52
431.321	3230.84
431.528	3261.56
431.736	3603.57
431.943	3853.42
432.15	3710.07
432.358	3607.67
432.565	3929.2
432.772	3925.1
432.979	4113.52
433.187	4211.82
433.394	4191.34
433.601	4506.73
433.808	4490.34
434.016	4451.43
434.223	4641.89
434.43	4924.51
434.637	4836.45
434.844	4996.19
435.052	5309.53
435.259	5225.56
435.466	5309.53
435.673	5225.56
435.88	5637.2
436.087	5825.62
436.294	5751.89
436.501	5780.56
436.708	5803.09
436.915	6089.81
437.122	6452.3
437.329	6329.42
437.537	6517.83
437.743	6392.91
437.95	6448.2
438.157	6825.03
438.364	6992.96
438.571	7115.84
438.778	7177.28
438.985	7982.13
439.192	7455.8
439.399	7566.39
439.606	7656.5
439.813	7998.51
440.02	8459.31
440.227	8254.51
440.433	8236.08
440.64	8559.66
440.847	8301.61
441.054	8604.71
441.261	9075.74
441.467	9045.02
441.674	9415.71
441.881	9401.37
442.088	9542.68
442.294	9452.57
442.501	9499.67
442.708	9794.58
442.914	10179.6
443.121	10882.05
443.328	10216.46
443.534	11211.78
443.741	10800.13
443.948	10667.02
444.154	11439.1
444.361	11148.29
444.568	11353.09
444.774	11543.55
444.981	11748.34
445.187	11891.7
445.394	12311.53
445.6	12422.13
445.807	13632.47
446.013	12725.22
446.22	13173.73
446.426	13605.85
446.633	13745.11
446.839	14046.16
447.046	13480.92
447.252	14248.91
447.459	14457.81
447.665	14193.62
447.871	14894.02
448.078	15381.44
448.284	14791.62
448.491	15233.99
448.697	15739.83
448.903	16053.17
449.11	15971.25
449.316	15858.62
449.522	16202.68
449.728	16681.9
449.935	16462.77
450.141	16673.71
450.347	17093.54
450.553	16593.84
450.76	16505.77
450.966	17038.25
451.172	17091.49
451.378	17466.27
451.584	17042.34
451.791	17488.8
451.997	17486.75
452.203	17752.99
452.409	17709.98
452.615	17699.74
452.821	16956.33
453.027	16786.35
453.233	17841.05
453.44	17173.41
453.646	16972.71
453.852	17130.41
454.058	17458.08
454.264	16944.04
454.47	17353.63
454.676	16780.2
454.882	17406.88
455.088	16106.42
455.294	16124.85
455.5	16647.08
455.705	16825.26
455.911	16110.52
456.117	15801.27
456.323	15356.86
456.529	14742.47
456.735	15399.87
456.941	14683.08
457.147	14599.12
457.352	14437.33
457.558	13949.91
457.764	14091.22
457.97	13806.55
458.176	13550.56
458.381	13460.45
458.587	12897.25
458.793	12786.66
458.999	12049.39
459.204	13075.43
459.41	12581.87
459.616	11965.43
459.821	11940.85
460.027	11756.54
460.233	11672.57
460.438	10961.92
460.644	11123.71
460.85	10492.94
461.055	10363.92
461.261	10400.78
461.466	9798.68
461.672	9366.56
461.878	9960.47
462.083	9491.48
462.289	9073.7
462.494	9112.61
462.7	8692.77
462.905	8524.84
463.111	8723.49
463.316	9081.89
463.522	8487.98
463.727	8588.33
463.932	8584.23
464.138	8629.29
464.343	8285.23
464.549	8088.62
464.754	8725.54
464.959	8506.41
465.165	8434.73
465.37	8152.11
465.575	7799.86
465.781	8160.3
465.986	8322.09
466.191	7816.24
466.397	7742.52
466.602	7349.31
466.807	7519.29
467.012	7697.46
467.218	7687.22
467.423	7418.94
467.628	7515.19
467.833	7787.57
468.038	7611.45
468.244	7345.21
468.449	7601.21
468.654	7390.27
468.859	7414.84
469.064	7515.19
469.269	7197.76
469.474	7187.52
469.679	7220.28
469.885	6837.31
470.09	7021.63
470.295	7089.21
470.5	6927.42
470.705	6929.47
470.91	6870.08
471.115	6677.57
471.32	6755.4
471.525	6706.24
471.73	6655.05
471.935	6517.83
472.139	6333.51
472.344	6440.01
472.549	6339.66
472.754	6339.66
472.959	6241.36
473.164	6040.65
473.369	6083.66
473.574	6265.93
473.778	6098
473.983	6163.53
474.188	6052.94
474.393	5649.49
474.598	5807.19
474.802	5669.97
475.007	5891.15
475.212	5665.88
475.417	5514.33
475.621	5424.22
475.826	5448.79
476.031	5446.74
476.235	5553.24
476.44	5348.44
476.645	5215.32
476.849	5385.3
477.054	5162.08
477.259	5180.51
477.463	5239.9
477.668	5082.21
477.872	5090.4
478.077	4904.03
478.282	4863.07
478.486	4973.66
478.691	4844.64
478.895	4856.93
479.1	4822.11
479.304	4908.13
479.509	4596.84
479.713	4811.87
479.918	4621.41
480.122	4594.79
480.326	4652.13
480.531	4664.42
480.735	4572.26
480.94	4480.1
481.144	4602.98
481.348	4381.8
481.553	4433
481.757	4408.42
481.961	4543.59
482.166	4572.26
482.37	4519.01
482.574	4445.29
482.778	4482.15
482.983	4453.48
483.187	4574.31
483.391	4562.02
483.595	4402.28
483.8	4496.49
484.004	4383.85
484.208	4600.93
484.412	4291.69
484.616	4437.09
484.821	4408.42
485.025	4414.57
485.229	4465.77
485.433	4396.14
485.637	4476.01
485.841	4428.9
486.045	4312.17
486.249	4435.05
486.453	4353.13
486.657	4502.63
486.861	4373.61
487.065	4263.02
487.269	4277.35
487.473	4396.14
487.677	4414.57
487.881	4379.75
488.085	4529.25
488.289	4496.49
488.493	4445.29
488.697	4568.16
488.901	4416.62
489.105	4435.05
489.309	4480.1
489.512	4439.14
489.716	4553.83
489.92	4529.25
490.124	4383.85
490.328	4631.65
490.531	4426.86
490.735	4496.49
490.939	4482.15
491.143	4439.14
491.346	4578.4
491.55	4645.99
491.754	4598.88
491.958	4633.7
492.161	4584.55
492.365	4736.1
492.569	4588.64
492.772	4443.24
492.976	4738.15
493.18	4648.04
493.383	4775.01
493.587	4897.89
493.79	4822.11
493.994	4719.71
494.197	4877.41
494.401	4998.24
494.605	4875.36
494.808	4969.57
495.012	4959.33
495.215	5112.92
495.419	4977.76
495.622	5028.96
495.825	5276.76
496.029	5026.91
496.232	5246.04
496.436	5123.16
496.639	5248.09
496.843	5340.25
497.046	5299.29
497.249	5485.65
497.453	5508.18
497.656	5715.03
497.859	5528.66
498.063	5547.09
498.266	5811.28
498.469	5846.1
498.673	5807.19
498.876	5823.57
499.079	5956.69
499.282	5844.05
499.485	6157.39
499.689	6231.12
499.892	6083.66
500.095	6059.09
500.298	6472.78
500.501	6399.05
500.705	6331.47
500.908	6433.86
501.111	6657.09
501.314	6603.85
501.517	6491.21
501.72	6661.19
501.923	6558.79
502.126	6974.53
502.329	7003.2
502.532	7074.88
502.735	7134.27
502.938	7255.1
503.141	7197.76
503.344	7361.59
503.547	7322.68
503.75	7494.71
503.953	7566.39
504.156	7765.04
504.359	7812.15
504.562	7789.62
504.765	8113.2
504.968	7978.03
505.17	8025.14
505.373	8170.54
505.576	8272.94
505.779	8291.37
505.982	8578.09
506.185	8592.42
506.387	8490.03
506.59	8774.69
506.793	8803.36
506.996	9022.5
507.198	9239.58
507.401	9057.31
507.604	9174.05
507.807	9382.94
508.009	9446.43
508.212	9438.23
508.415	9542.68
508.617	9712.66
508.82	9608.22
509.022	9872.4
509.225	9991.19
509.428	10081.3
509.63	10112.02
509.833	10161.17
510.035	10439.69
510.238	10413.07
510.44	10675.21
510.643	10507.27
510.845	10781.7
511.048	10556.43
511.25	10853.38
511.453	10818.57
511.655	11158.53
511.858	11082.75
512.06	11150.34
512.262	11375.61
512.465	11275.26
512.667	11527.16
512.87	11752.44
513.072	11820.02
513.274	11959.28
513.477	12106.74
513.679	12182.51
513.881	12293.1
514.084	12622.83
514.286	12514.28
514.488	12383.21
514.69	12927.97
514.893	12817.38
515.095	13102.05
515.297	13095.91
515.499	13351.9
515.701	13341.66
515.904	13456.35
516.106	13652.95
516.308	13943.77
516.51	13974.49
516.712	13884.37
516.914	14128.08
517.116	14468.05
517.318	14083.03
517.52	14537.68
517.722	14580.68
517.925	14621.64
518.127	14977.99
518.329	15045.57
518.531	14742.47
518.733	15479.74
518.935	15127.49
519.136	15436.74
519.338	15524.8
519.54	15809.47
519.742	15621.05
519.944	15786.94
520.146	16518.06
520.348	16470.96
520.55	16509.87
520.752	16647.08
520.954	16792.49
521.155	16690.09
521.357	16997.29
521.559	17138.6
521.761	17380.26
521.963	17433.5
522.164	17701.79
522.366	17638.3
522.568	17685.4
522.77	18127.77
522.971	17994.65
523.173	18031.51
523.375	18262.93
523.576	18512.78
523.778	18240.4
523.98	18383.76
524.181	18463.63
524.383	18627.47
524.584	18901.9
524.786	19125.13
524.988	18813.84
525.189	19084.17
525.391	19254.15
525.592	19569.54
525.794	19313.54
525.995	19667.84
526.197	19362.69
526.398	19620.74
526.6	20007.8
526.801	20089.72
527.003	20067.19
527.204	20134.78
527.406	20505.46
527.607	20130.68
527.808	20405.11
528.01	20079.48
528.211	20378.48
528.412	21064.55
528.614	20687.73
528.815	20853.61
529.016	20767.6
529.218	20927.34
529.419	21039.98
529.62	20826.99
529.822	20874.09
530.023	20956.01
530.224	21181.29
530.425	20898.67
530.626	21062.51
530.828	20800.37
531.029	21449.57
531.23	21322.6
531.431	21351.27
531.632	21341.03
531.833	21601.12
532.035	21601.12
532.236	21678.94
532.437	21568.35
532.638	21541.73
532.839	21588.83
533.04	21820.25
533.241	21543.78
533.442	21883.74
533.643	21427.04
533.844	21773.15
534.045	21691.23
534.246	21547.87
534.447	21760.86
534.648	21709.66
534.849	21832.54
535.05	21549.92
535.251	21861.21
535.451	21486.43
535.652	22141.78
535.853	21644.13
536.054	22014.81
536.255	21719.9
536.456	21551.97
536.657	22104.92
536.857	21873.5
537.058	21678.94
537.259	22129.5
537.46	21980
537.66	21721.95
537.861	21701.47
538.062	21758.81
538.263	21982.04
538.463	21998.43
538.664	21742.43
538.865	21838.69
539.065	21902.17
539.266	21486.43
539.466	22057.82
539.667	21662.56
539.868	22139.74
540.068	21834.59
540.269	22152.02
540.469	22061.91
540.67	21863.26
540.87	21959.52
541.071	22260.57
541.271	22186.84
541.472	21955.42
541.672	21787.49
541.873	22031.19
542.073	21658.46
542.274	22233.94
542.474	21936.99
542.675	21644.13
542.875	22125.4
543.075	22340.44
543.276	21648.22
543.476	21762.91
543.676	21494.63
543.877	21867.36
544.077	22192.98
544.277	21652.32
544.478	21814.11
544.678	21906.27
544.878	21994.33
545.078	21777.25
545.279	21885.79
545.479	21732.19
545.679	21850.97
545.879	21689.18
546.079	21875.55
546.28	22070.11
546.48	21611.36
546.68	22106.97
546.88	21724
547.08	21848.93
547.28	21601.12
547.48	21709.66
547.68	22205.27
547.88	21429.09
548.081	22018.91
548.281	21666.66
548.481	21683.04
548.681	21795.68
548.881	21898.08
549.081	21689.18
549.28	21713.76
549.48	21719.9
549.68	21707.62
549.88	22102.87
550.08	21908.32
550.28	21814.11
550.48	21758.81
550.68	21721.95
550.88	21705.57
551.08	21846.88
551.279	21779.29
551.479	21449.57
551.679	21697.38
551.879	21597.03
552.079	21799.77
552.278	21556.07
552.478	21492.58
552.678	21662.56
552.878	21640.03
553.077	21470.05
553.277	21539.68
553.477	21865.31
553.676	21629.79
553.876	21678.94
554.076	21513.06
554.275	21355.36
554.475	21746.53
554.674	21525.35
554.874	21506.91
555.074	21390.18
555.273	21359.46
555.473	21617.5
555.672	21392.23
555.872	21519.2
556.071	21437.28
556.271	21566.31
556.47	21295.97
556.67	21111.66
556.869	21183.34
557.068	21320.55
557.268	21003.11
557.467	21400.42
557.667	21343.08
557.866	21169
558.065	20820.84
558.265	20982.63
558.464	20882.28
558.663	21207.91
558.863	20650.86
559.062	21060.46
559.261	20667.25
559.461	21060.46
559.66	20665.2
559.859	20970.35
560.058	20659.06
560.258	20874.09
560.457	20743.02
560.656	20820.84
560.855	20542.32
561.054	20724.59
561.253	20484.98
561.453	20515.7
561.652	20376.44
561.851	20642.67
562.05	20431.73
562.249	20421.49
562.448	20398.96
562.647	20517.75
562.846	20302.71
563.045	20151.16
563.244	19956.6
563.443	20183.93
563.642	19934.07
563.841	20011.9
564.04	19993.47
564.239	20136.82
564.438	19630.98
564.637	19997.56
564.836	19690.37
565.035	19477.38
565.234	19522.43
565.432	19520.38
565.631	19661.69
565.83	19516.29
566.029	19512.19
566.228	19383.17
566.427	19557.25
566.625	19327.88
566.824	18871.18
567.023	19346.31
567.222	18987.91
567.42	19219.33
567.619	19143.56
567.818	19510.14
568.016	19164.04
568.215	19061.64
568.414	19131.27
568.612	19168.13
568.811	18944.91
569.01	18977.67
569.208	18596.75
569.407	18428.82
569.605	18477.97
569.804	18383.76
570.002	18389.91
570.201	18525.07
570.4	18361.23
570.598	18324.37
570.797	18301.84
570.995	18262.93
571.193	17884.06
571.392	18426.77
571.59	18023.32
571.789	18049.94
571.987	17816.47
572.186	17804.19
572.384	17859.48
572.582	17988.5
572.781	17849.24
572.979	17544.09
573.177	17552.29
573.376	17851.29
573.574	17525.66
573.772	17566.62
573.971	17552.29
574.169	17453.98
574.367	17298.34
574.565	17654.69
574.763	17300.39
574.962	17126.31
575.16	17294.24
575.358	17341.35
575.556	17030.05
575.754	17200.04
575.952	16941.99
576.151	17032.1
576.349	16708.52
576.547	16778.15
576.745	16921.51
576.943	16901.03
577.141	16786.35
577.339	16825.26
577.537	16722.86
577.735	16593.84
577.933	16554.93
578.131	16311.22
578.329	16270.26
578.527	16495.53
578.725	16329.65
578.923	16311.22
579.121	16161.72
579.319	16178.1
579.516	16378.8
579.714	16217.01
579.912	16024.5
580.11	16139.19
580.308	15942.58
580.506	15967.16
580.704	15692.73
580.901	16034.74
581.099	15745.98
581.297	15866.81
581.495	15504.32
581.692	15616.96
581.89	15619
582.088	15643.58
582.285	15754.17
582.483	15639.48
582.681	15612.86
582.878	15401.92
583.076	15193.03
583.274	15375.3
583.471	15426.5
583.669	15373.25
583.866	15287.23
584.064	15320
584.262	14943.17
584.459	15338.43
584.657	15209.41
584.854	15012.81
585.052	14623.69
585.249	14924.74
585.447	14771.15
585.644	14988.23
585.841	14846.92
586.039	14992.33
586.236	14734.28
586.434	14695.37
586.631	14595.02
586.828	14513.1
587.026	14533.58
587.223	14496.72
587.42	14429.13
587.618	14304.21
587.815	14345.17
588.012	14248.91
588.21	14171.09
588.407	14287.82
588.604	14222.29
588.801	14308.3
588.999	14040.02
589.196	14222.29
589.393	14191.57
589.59	13896.66
589.787	13908.95
589.984	13900.76
590.182	13755.35
590.379	13853.66
590.576	13786.07
590.773	13847.51
590.97	13489.12
591.167	13851.61
591.364	13480.92
591.561	13675.48
591.758	13274.08
591.955	13657.05
592.152	13511.64
592.349	13339.62
592.546	13411.29
592.743	13214.69
592.94	13044.71
593.137	13204.45
593.334	13386.72
593.531	12706.79
593.727	13118.43
593.924	13155.3
594.121	13143.01
594.318	13245.41
594.515	12764.14
594.712	13173.73
594.908	13032.42
595.105	12897.25
595.302	12862.44
595.499	12944.36
595.696	12731.37
595.892	12661.74
596.089	12579.82
596.286	12731.37
596.482	12512.24
596.679	12567.53
596.876	12612.59
597.072	12563.43
597.269	12338.16
597.466	12520.43
597.662	12454.89
597.859	12639.21
598.055	12409.84
598.252	12256.24
598.448	12356.59
598.645	12282.86
598.841	12225.52
599.038	12356.59
599.234	12176.37
599.431	11912.18
599.627	11932.66
599.824	12098.55
600.02	11801.59
600.217	11930.61
600.413	11772.92
600.609	12030.96
600.806	11676.66
601.002	11662.33
601.198	11545.59
601.395	11596.79
601.591	11674.62
601.787	11947
601.984	11443.2
602.18	11678.71
602.376	11510.78
602.572	11576.31
602.769	11770.87
602.965	11258.88
603.161	11244.54
603.357	11246.59
603.553	11441.15
603.75	11224.06
603.946	11029.51
604.142	11236.35
604.338	11226.11
604.534	11123.71
604.73	10986.5
604.926	11060.23
605.122	11041.79
605.318	10908.68
605.514	11092.99
605.71	11002.88
605.906	10867.72
606.102	10781.7
606.298	10804.23
606.494	10841.09
606.69	10873.86
606.886	10714.12
607.082	10568.71
607.278	10767.37
607.474	10646.54
607.67	10552.33
607.866	10529.8
608.062	10548.23
608.257	10578.95
608.453	10652.68
608.649	10677.26
608.845	10419.21
609.041	10333.2
609.236	10454.03
609.432	10372.11
609.628	10423.31
609.824	10533.9
610.019	10423.31
610.215	10478.6
610.411	10431.5
610.606	10267.66
610.802	10306.57
610.998	10357.77
611.193	10443.79
611.389	10224.65
611.584	10185.74
611.78	10253.33
611.976	10101.78
612.171	10109.97
612.367	9913.36
612.562	9960.47
612.758	9909.27
612.953	9948.18
613.149	10036.24
613.344	9896.98
613.539	10136.59
613.735	10009.62
613.93	9915.41
614.126	9894.93
614.321	10103.82
614.517	9782.29
614.712	9640.98
614.907	9808.92
615.103	9827.35
615.298	9663.51
615.493	9841.68
615.688	9630.74
615.884	9886.74
616.079	9585.69
616.274	9825.3
616.47	9640.98
616.665	9772.05
616.86	9690.13
617.055	9585.69
617.25	9630.74
617.445	9573.4
617.641	9528.35
617.836	9614.36
618.031	9339.93
618.226	9301.02
618.421	9468.95
618.616	9520.15
618.811	9227.29
619.006	9413.66
619.201	9286.68
619.396	9335.84
619.591	9034.78
619.786	9258.01
619.981	9002.02
620.176	9204.77
620.371	8979.49
620.566	8875.04
620.761	8965.15
620.956	8979.49
621.151	8918.05
621.346	8866.85
621.541	8813.6
621.735	8782.88
621.93	8711.21
622.125	8551.46
622.32	8688.68
622.515	8537.13
622.709	8535.08
622.904	8424.49
623.099	8698.92
623.294	8631.33
623.488	8533.03
623.683	8361
623.878	8272.94
624.072	8158.25
624.267	8182.83
624.462	8164.4
624.656	8336.43
624.851	8064.05
625.046	8014.9
625.24	7853.11
625.435	7926.83
625.629	7824.44
625.824	7904.31
626.018	7801.91
626.213	7732.28
626.407	7676.98
626.602	7689.27
626.796	7683.13
626.991	7629.88
627.185	7808.05
627.38	7715.89
627.574	7500.86
627.768	7392.31
627.963	7402.55
628.157	7500.86
628.352	7257.15
628.546	7060.54
628.74	7373.88
628.935	7234.62
629.129	7328.83
629.323	7291.96
629.517	7124.03
629.712	7230.52
629.906	7033.92
630.1	6988.86
630.294	7046.21
630.489	6786.12
630.683	6927.42
630.877	6952
631.071	6644.81
631.265	6837.31
631.459	6710.34
631.653	6771.78
631.848	6650.95
632.042	6577.22
632.236	6741.06
632.43	6685.76
632.624	6548.55
632.818	6560.84
633.012	6480.97
633.206	6423.62
633.4	6507.59
633.594	6335.56
633.788	6460.49
633.982	6368.33
634.176	6224.97
634.369	6288.46
634.563	6237.26
634.757	6087.76
634.951	6212.68
635.145	6093.9
635.339	6046.8
635.533	6016.08
635.726	6028.37
635.92	6057.04
636.114	6057.04
636.308	5925.97
636.501	5940.3
636.695	5989.46
636.889	5950.54
637.083	5751.89
637.276	5792.85
637.47	5788.75
637.664	5659.73
637.857	5583.96
638.051	5653.59
638.244	5600.34
638.438	5569.62
638.632	5604.44
638.825	5430.36
639.019	5489.75
639.212	5499.99
639.406	5354.58
639.599	5426.26
639.793	5362.78
639.986	5309.53
640.18	5346.39
640.373	5330.01
640.567	5106.78
640.76	5389.4
640.954	5280.86
641.147	5297.24
641.34	5190.75
641.534	5170.27
641.727	5274.71
641.92	5063.77
642.114	4996.19
642.307	4893.79
642.5	4953.18
642.694	4977.76
642.887	4951.14
643.08	5041.25
643.273	4926.56
643.467	4850.78
643.66	4897.89
643.853	4947.04
644.046	4607.08
644.239	4750.43
644.432	4736.1
644.626	4832.35
644.819	4723.81
645.012	4680.8
645.205	4768.87
645.398	4605.03
645.591	4480.1
645.784	4512.87
645.977	4322.41
646.17	4582.5
646.363	4451.43
646.556	4424.81
646.749	4527.21
646.942	4445.29
647.135	4441.19
647.328	4381.8
647.521	4222.06
647.714	4224.11
647.907	4346.98
648.099	4314.22
648.292	4367.46
648.485	4346.98
648.678	4138.09
648.871	4027.5
649.064	4150.38
649.256	4199.53
649.449	4015.21
649.642	4088.94
649.835	3937.39
650.027	3974.25
650.22	4113.52
650.413	3949.68
650.605	4000.88
650.798	4047.98
650.991	4031.6
651.183	4004.97
651.376	3931.25
651.568	3863.66
651.761	3847.28
651.954	3912.81
652.146	3771.51
652.339	3652.72
652.531	3779.7
652.724	3789.94
652.916	3759.22
653.109	3677.3
653.301	3755.12
653.494	3605.62
653.686	3503.22
653.879	3660.91
654.071	3576.95
654.263	3562.61
654.456	3607.67
654.648	3570.8
654.84	3685.49
655.033	3488.89
655.225	3447.93
655.417	3564.66
655.61	3531.89
655.802	3538.04
655.994	3452.02
656.186	3329.14
656.379	3466.36
656.571	3425.4
656.763	3417.21
656.955	3345.53
657.148	3234.94
657.34	3443.83
657.532	3306.62
657.724	3294.33
657.916	3226.75
658.108	3345.53
658.3	3132.54
658.492	3226.75
658.684	3159.16
658.876	3044.48
659.068	3165.31
659.26	3185.79
659.452	3161.21
659.644	3087.48
659.836	3140.73
660.028	3120.25
660.22	3046.52
660.412	3130.49
660.604	2944.13
660.796	3064.96
660.988	3038.33
661.18	3048.57
661.372	2978.94
661.563	2892.93
661.755	3001.47
661.947	2866.3
662.139	2845.82
662.331	2800.77
662.522	2823.3
662.714	2825.34
662.906	2800.77
663.097	2847.87
663.289	2860.16
663.481	2802.82
663.673	2761.86
663.864	2788.48
664.056	2813.06
664.247	2751.62
664.439	2681.99
664.631	2804.86
664.822	2690.18
665.014	2751.62
665.205	2770.05
665.397	2667.65
665.588	2669.7
665.78	2772.1
665.971	2749.57
666.163	2534.53
666.354	2696.32
666.546	2544.77
666.737	2618.5
666.929	2595.97
667.12	2530.44
667.311	2536.58
667.503	2567.3
667.694	2595.97
667.885	2575.49
668.077	2401.41
668.268	2536.58
668.459	2563.2
668.651	2301.06
668.842	2522.24
669.033	2430.09
669.224	2450.57
669.416	2421.89
669.607	2389.13
669.798	2389.13
669.989	2450.57
670.18	2425.99
670.371	2452.61
670.563	2512
670.754	2376.84
670.945	2389.13
671.136	2364.55
671.327	2368.65
671.518	2202.76
671.709	2247.82
671.9	2268.3
672.091	2278.54
672.282	2350.21
672.473	2223.24
672.664	2358.41
672.855	2278.54
673.046	2329.74
673.237	2194.57
673.428	2208.9
673.619	2165.9
673.809	2174.09
674	2180.23
674.191	2145.42
674.382	2155.66
674.573	2155.66
674.764	2239.62
674.954	2213
675.145	2241.67
675.336	2118.79
675.527	2108.55
675.717	2129.03
675.908	2083.98
676.099	2092.17
676.289	2151.56
676.48	2057.36
676.671	2114.7
676.861	2057.36
677.052	2186.38
677.243	2069.64
677.433	2135.18
677.624	2055.31
677.814	2141.32
678.005	2049.16
678.195	2049.16
678.386	2172.04
678.576	1977.48
678.767	1942.67
678.957	2008.2
679.148	2012.3
679.338	2049.16
679.529	2022.54
679.719	2016.4
679.909	2094.22
680.1	1971.34
680.29	1940.62
680.481	2010.25
680.671	2059.4
680.861	2000.01
681.052	1975.44
681.242	2000.01
681.432	2034.83
681.622	1866.89
681.813	1969.29
682.003	1961.1
682.193	1905.81
682.383	1963.15
682.573	1959.05
682.764	1870.99
682.954	1971.34
683.144	2012.3
683.334	1832.08
683.524	1905.81
683.714	1827.98
683.904	1916.05
684.094	1842.32
684.284	1897.61
684.474	1938.57
684.664	1848.46
684.854	1897.61
685.044	1879.18
685.234	1836.17
685.424	1750.16
685.614	1830.03
685.804	1893.52
685.994	1862.8
686.184	1770.64
686.374	1737.87
686.564	1840.27
686.753	1764.5
686.943	1815.69
687.133	1782.93
687.323	1797.26
687.513	1848.46
687.702	1780.88
687.892	1780.88
688.082	1754.26
688.272	1715.34
688.461	1715.34
688.651	1774.74
688.841	1809.55
689.03	1690.77
689.22	1752.21
689.41	1766.54
689.599	1690.77
689.789	1727.63
689.979	1651.86
690.168	1678.48
690.358	1795.22
690.547	1694.86
690.737	1664.15
690.926	1647.76
691.116	1754.26
691.305	1705.1
691.495	1688.72
691.684	1614.99
691.874	1623.19
692.063	1442.96
692.252	1598.61
692.442	1639.57
692.631	1592.47
692.82	1617.04
693.01	1602.71
693.199	1463.44
693.388	1567.89
693.578	1522.84
693.767	1549.46
693.956	1629.33
694.146	1625.23
694.335	1567.89
694.524	1547.41
694.713	1576.08
694.902	1549.46
695.092	1571.99
695.281	1498.26
695.47	1567.89
695.659	1504.4
695.848	1500.31
696.037	1592.47
696.226	1475.73
696.415	1496.21
696.604	1555.6
696.793	1574.03
696.982	1567.89
697.171	1461.4
697.36	1477.78
697.549	1483.92
697.738	1526.93
697.927	1457.3
698.116	1561.75
698.305	1520.79
698.494	1547.41
698.683	1500.31
698.872	1479.83
699.061	1481.88
699.25	1465.49
699.438	1483.92
699.627	1533.08
699.816	1551.51
700.005	1430.68
700.193	1561.75
700.382	1496.21
700.571	1434.77
700.76	1496.21
700.948	1496.21
701.137	1528.98
701.326	1545.36
701.514	1514.64
701.703	1531.03
701.892	1461.4
702.08	1481.88
702.269	1563.79
702.457	1385.62
702.646	1557.65
702.834	1451.16
703.023	1455.25
703.212	1571.99
703.4	1500.31
703.589	1553.55
703.777	1490.07
703.965	1498.26
704.154	1422.48
704.342	1569.94
704.531	1567.89
704.719	1440.92
704.907	1590.42
705.096	1453.2
705.284	1467.54
705.472	1569.94
705.661	1563.79
705.849	1520.79
706.037	1490.07
706.226	1447.06
706.414	1512.6
706.602	1498.26
706.79	1584.27
706.979	1516.69
707.167	1594.51
707.355	1518.74
707.543	1408.15
707.731	1506.45
707.919	1524.88
708.107	1528.98
708.296	1481.88
708.484	1518.74
708.672	1510.55
708.86	1430.68
709.048	1617.04
709.236	1533.08
709.424	1528.98
709.612	1571.99
709.8	1551.51
709.988	1461.4
710.176	1428.63
710.364	1578.13
710.551	1500.31
710.739	1582.23
710.927	1471.64
711.115	1533.08
711.303	1483.92
711.491	1635.47
711.679	1541.27
711.866	1553.55
712.054	1531.03
712.242	1565.84
712.43	1602.71
712.617	1522.84
712.805	1418.39
712.993	1475.73
713.181	1520.79
713.368	1576.08
713.556	1533.08
713.744	1604.75
713.931	1465.49
714.119	1604.75
714.306	1533.08
714.494	1576.08
714.682	1567.89
714.869	1498.26
715.057	1649.81
715.244	1508.5
715.432	1606.8
715.619	1565.84
715.807	1633.43
715.994	1535.12
716.182	1492.12
716.369	1483.92
716.556	1559.7
716.744	1580.18
716.931	1557.65
717.119	1598.61
717.306	1705.1
717.493	1586.32
717.681	1520.79
717.868	1565.84
718.055	1643.67
718.242	1537.17
718.43	1535.12
718.617	1531.03
718.804	1553.55
718.991	1467.54
719.179	1514.64
719.366	1590.42
719.553	1551.51
719.74	1563.79
719.927	1553.55
720.114	1518.74
720.301	1514.64
720.488	1588.37
720.676	1535.12
720.863	1545.36
721.05	1621.14
721.237	1682.58
721.424	1531.03
721.611	1582.23
721.798	1492.12
721.985	1442.96
722.172	1490.07
722.358	1592.47
722.545	1578.13
722.732	1571.99
722.919	1621.14
723.106	1590.42
723.293	1549.46
723.48	1574.03
723.667	1502.36
723.853	1473.68
724.04	1440.92
724.227	1594.51
724.414	1539.22
724.6	1498.26
724.787	1481.88
724.974	1606.8
725.161	1531.03
725.347	1547.41
725.534	1569.94
725.72	1563.79
725.907	1582.23
726.094	1518.74
726.28	1498.26
726.467	1512.6
726.653	1598.61
726.84	1555.6
727.027	1520.79
727.213	1506.45
727.4	1684.62
727.586	1514.64
727.773	1627.28
727.959	1610.9
728.145	1559.7
728.332	1492.12
728.518	1600.66
728.705	1625.23
728.891	1488.02
729.077	1625.23
729.264	1504.4
729.45	1617.04
729.636	1541.27
729.823	1533.08
730.009	1467.54
730.195	1483.92
730.382	1606.8
730.568	1500.31
730.754	1571.99
730.94	1551.51
731.126	1655.95
731.313	1602.71
731.499	1578.13
731.685	1625.23
731.871	1465.49
732.057	1526.93
732.243	1512.6
732.429	1614.99
732.615	1479.83
732.801	1586.32
732.987	1623.19
733.173	1617.04
733.359	1553.55
733.545	1617.04
733.731	1426.58
733.917	1569.94
734.103	1518.74
734.289	1559.7
734.475	1522.84
734.661	1625.23
734.847	1539.22
735.033	1660.05
735.219	1614.99
735.404	1590.42
735.59	1512.6
735.776	1524.88
735.962	1469.59
736.148	1455.25
736.333	1539.22
736.519	1539.22
736.705	1563.79
736.89	1535.12
737.076	1469.59
737.262	1535.12
737.447	1406.1
737.633	1531.03
737.819	1504.4
738.004	1485.97
738.19	1481.88
738.375	1578.13
738.561	1485.97
738.747	1467.54
738.932	1488.02
739.118	1477.78
739.303	1500.31
739.489	1428.63
739.674	1500.31
739.859	1502.36
740.045	1447.06
740.23	1485.97
740.416	1488.02
740.601	1397.91
740.786	1557.65
740.972	1494.16
741.157	1440.92
741.342	1395.86
741.528	1457.3
741.713	1492.12
741.898	1447.06
742.084	1483.92
742.269	1508.5
742.454	1430.68
742.639	1266.84
742.824	1438.87
743.01	1537.17
743.195	1475.73
743.38	1410.2
743.565	1422.48
743.75	1488.02
743.935	1352.85
744.12	1371.29
744.305	1348.76
744.49	1348.76
744.675	1295.51
744.86	1295.51
745.045	1414.29
745.23	1348.76
745.415	1283.22
745.6	1383.57
745.785	1246.36
745.97	1318.04
746.155	1330.33
746.34	1328.28
746.525	1281.18
746.71	1375.38
746.895	1170.58
747.079	1189.02
747.264	1248.41
747.449	1191.06
747.634	1277.08
747.819	1213.59
748.003	1301.65
748.188	1209.5
748.373	1221.78
748.557	1172.63
748.742	1178.78
748.927	1168.54
749.111	1182.87
749.296	1170.58
749.481	1246.36
749.665	1207.45
749.85	1168.54
750.034	1191.06
750.219	1203.35
750.404	1184.92
750.588	1139.87
750.773	1178.78
750.957	1115.29
751.141	1193.11
751.326	1057.95
751.51	1123.48
751.695	1109.15
751.879	1164.44
752.064	1119.39
752.248	1064.09
752.432	1227.93
752.617	1119.39
752.801	976.03
752.985	1103
753.17	1160.34
753.354	1041.56
753.538	996.51
753.722	1057.95
753.907	1039.51
754.091	1008.8
754.275	982.17
754.459	963.74
754.643	973.98
754.828	1039.51
755.012	928.92
755.196	930.97
755.38	922.78
755.564	957.6
755.748	947.36
755.932	1012.89
756.116	900.25
756.3	965.79
756.484	894.11
756.668	910.49
756.852	965.79
757.036	969.88
757.22	928.92
757.404	971.93
757.588	890.01
757.772	859.29
757.956	906.4
758.14	939.16
758.323	871.58
758.507	871.58
758.691	875.68
758.875	855.2
759.059	818.33
759.242	808.09
759.426	746.66
759.61	844.96
759.794	828.57
759.977	849.05
760.161	910.49
760.345	785.57
760.528	838.81
760.712	810.14
760.895	828.57
761.079	808.09
761.263	709.79
761.446	728.22
761.63	752.8
761.813	763.04
761.997	844.96
762.18	746.66
762.364	840.86
762.547	720.03
762.731	767.13
762.914	793.76
763.098	775.33
763.281	713.89
763.464	703.65
763.648	701.6
763.831	750.75
764.015	685.22
764.198	726.18
764.381	707.74
764.564	664.74
764.748	750.75
764.931	709.79
765.114	685.22
765.297	679.07
765.481	748.7
765.664	656.54
765.847	705.7
766.03	746.66
766.213	672.93
766.397	726.18
766.58	697.5
766.763	619.68
766.946	773.28
767.129	642.21
767.312	652.45
767.495	677.02
767.678	658.59
767.861	728.22
768.044	662.69
768.227	603.3
768.41	599.2
768.593	654.5
768.776	681.12
768.959	609.44
769.142	709.79
769.324	691.36
769.507	648.35
769.69	605.35
769.873	615.59
770.056	670.88
770.239	629.92
770.421	636.06
770.604	660.64
770.787	593.06
770.97	695.46
771.152	599.2
771.335	603.3
771.518	533.67
771.7	623.78
771.883	541.86
772.066	605.35
772.248	554.15
772.431	619.68
772.613	564.39
772.796	595.11
772.978	603.3
773.161	568.48
773.343	597.15
773.526	517.28
773.708	611.49
773.891	488.61
774.073	552.1
774.256	548
774.438	584.87
774.621	535.71
774.803	599.2
774.985	527.52
775.168	556.19
775.35	527.52
775.532	558.24
775.715	504.99
775.897	548
776.079	425.12
776.261	578.72
776.444	517.28
776.626	500.9
776.808	478.37
776.99	541.86
777.173	410.79
777.355	498.85
777.537	519.33
777.719	427.17
777.901	433.32
778.083	416.93
778.265	437.41
778.447	449.7
778.629	455.84
778.811	396.45
778.993	482.47
779.175	513.19
779.357	472.23
779.539	498.85
779.721	490.66
779.903	457.89
780.085	447.65
780.267	478.37
780.449	408.74
780.631	453.8
780.812	482.47
780.994	365.73
781.176	400.55
781.358	404.64
781.54	425.12
781.721	398.5
781.903	378.02
782.085	455.84
782.267	363.69
782.448	400.55
782.63	337.06
782.812	410.79
782.993	384.16
783.175	378.02
783.357	332.97
783.538	412.84
783.72	343.21
783.901	382.12
784.083	357.54
784.264	324.77
784.446	380.07
784.627	369.83
784.809	289.96
784.99	328.87
785.172	404.64
785.353	382.12
785.535	390.31
785.716	300.2
785.897	285.86
786.079	351.4
786.26	308.39
786.441	279.72
786.623	314.53
786.804	357.54
786.985	371.88
787.167	330.92
787.348	304.29
787.529	289.96
787.71	341.16
787.891	382.12
788.073	271.53
788.254	355.49
788.435	330.92
788.616	292.01
788.797	246.95
788.978	320.68
789.159	302.25
789.34	345.25
789.522	191.66
789.703	320.68
789.884	316.58
790.065	298.15
790.246	253.09
790.427	312.49
790.607	263.33
790.788	353.45
790.969	228.52
791.15	271.53
791.331	210.09
791.512	285.86
791.693	208.04
791.874	222.38
792.054	232.62
792.235	292.01
792.416	210.09
792.597	167.08
792.778	203.94
792.958	261.29
793.139	210.09
793.32	175.27
793.5	238.76
793.681	255.14
793.862	285.86
794.042	255.14
794.223	160.94
794.404	148.65
794.584	259.24
794.765	273.57
794.945	230.57
795.126	263.33
795.306	148.65
795.487	246.95
795.667	189.61
795.848	193.7
796.028	220.33
796.209	244.9
796.389	226.47
796.57	212.14
796.75	210.09
796.93	255.14
797.111	203.94
797.291	240.81
797.471	185.51
797.652	115.88
797.832	210.09
798.012	222.38
798.192	152.74
798.373	148.65
798.553	179.37
798.733	208.04
798.913	107.69
799.093	148.65
799.274	201.9
799.454	187.56
799.634	234.66
799.814	220.33
799.994	171.18
800.174	244.9
800.354	197.8
800.534	130.22
800.714	154.79
800.894	189.61
801.074	167.08
801.254	203.94
801.434	136.36
801.614	203.94
801.794	193.7
801.974	513.19
802.154	126.12
802.334	220.33
802.514	156.84
802.693	210.09
802.873	160.94
803.053	197.8
803.233	142.5
803.413	189.61
803.592	117.93
803.772	169.13
803.952	132.26
804.131	222.38
804.311	156.84
804.491	158.89
804.67	111.78
804.85	111.78
805.03	171.18
805.209	146.6
805.389	140.46
805.568	181.42
805.748	171.18
805.928	179.37
806.107	113.83
806.287	124.07
806.466	169.13
806.646	109.74
806.825	58.54
807.004	146.6
807.184	103.59
807.363	103.59
807.543	126.12
807.722	132.26
807.901	167.08
808.081	130.22
808.26	119.98
808.439	154.79
808.619	146.6
808.798	126.12
808.977	185.51
809.156	191.66
809.336	201.9
809.515	132.26
809.694	111.78
809.873	160.94
810.052	107.69
810.231	128.17
810.411	193.7
810.59	150.7
810.769	142.5
810.948	101.55
811.127	132.26
811.306	165.03
811.485	169.13
811.664	140.46
811.843	79.02
812.022	128.17
812.201	58.54
812.38	76.97
812.559	101.55
812.737	111.78
812.916	76.97
813.095	60.59
813.274	181.42
813.453	95.4
813.632	72.87
813.811	91.31
813.989	162.98
814.168	134.31
814.347	111.78
814.526	150.7
814.704	111.78
814.883	115.88
815.062	1.19
815.24	105.64
815.419	99.5
815.598	169.13
815.776	117.93
815.955	226.47
816.133	70.83
816.312	126.12
816.49	97.45
816.669	91.31
816.847	93.35
817.026	79.02
817.204	124.07
817.383	115.88
817.561	144.55
817.74	93.35
817.918	103.59
818.097	181.42
818.275	134.31
818.453	74.92
818.632	107.69
818.81	89.26
818.988	142.5
819.167	91.31
819.345	109.74
819.523	89.26
819.701	52.39
819.879	103.59
820.058	62.63
820.236	42.15
820.414	40.11
820.592	99.5
820.77	64.68
820.948	83.11
821.127	54.44
821.305	115.88
821.483	42.15
821.661	115.88
821.839	134.31
822.017	56.49
822.195	95.4
822.373	144.55
822.551	107.69
822.729	-4.95
822.907	7.34
823.085	74.92
823.262	138.41
823.44	79.02
823.618	107.69
823.796	52.39
823.974	93.35
824.152	70.83
824.329	17.58
824.507	132.26
824.685	68.78
824.863	60.59
825.04	19.63
825.218	111.78
825.396	97.45
825.574	93.35
825.751	56.49
825.929	101.55
826.107	89.26
826.284	19.63
826.462	54.44
826.639	58.54
826.817	74.92
826.994	124.07
827.172	25.77
827.349	124.07
827.527	79.02
827.704	70.83
827.882	25.77
828.059	72.87
828.237	29.87
828.414	150.7
828.591	68.78
828.769	60.59
828.946	25.77
829.124	60.59
829.301	-2.9
829.478	76.97
829.655	46.25
829.833	68.78
830.01	54.44
830.187	68.78
830.364	72.87
830.542	70.83
830.719	87.21
830.896	40.11
831.073	154.79
831.25	62.63
831.427	56.49
831.604	19.63
831.782	38.06
831.959	29.87
832.136	74.92
832.313	74.92
832.49	-13.14
832.667	42.15
832.844	52.39
833.021	105.64
833.198	40.11
833.374	31.91
833.551	83.11
833.728	58.54
833.905	33.96
834.082	36.01
834.259	52.39
834.436	56.49
834.612	74.92
834.789	50.35
834.966	101.55
835.143	44.2
835.319	64.68
835.496	93.35
835.673	33.96
835.85	66.73
836.026	40.11
836.203	85.16
836.38	50.35
836.556	128.17
836.733	23.72
836.909	79.02
837.086	74.92
837.262	83.11
837.439	52.39
837.616	9.39
837.792	79.02
837.968	74.92
838.145	85.16
838.321	83.11
838.498	-35.67
838.674	70.83
838.851	87.21
839.027	3.24
839.203	-4.95
839.38	25.77
839.556	54.44
839.732	44.2
839.909	42.15
840.085	91.31
840.261	54.44
840.437	91.31
840.614	83.11
840.79	83.11
840.966	87.21
841.142	40.11
841.318	-7
841.494	-17.24
841.671	-25.43
841.847	89.26
842.023	64.68
842.199	5.29
842.375	19.63
842.551	11.43
842.727	5.29
842.903	38.06
843.079	23.72
843.255	25.77
843.431	-25.43
843.607	19.63
843.783	1.19
843.959	66.73
844.134	42.15
844.31	85.16
844.486	56.49
844.662	13.48
844.838	1.19
845.013	54.44
845.189	1.19
845.365	-7
845.541	66.73
845.716	95.4
845.892	74.92
846.068	44.2
846.244	-19.29
846.419	83.11
846.595	-0.85
846.77	5.29
846.946	-2.9
847.122	79.02
847.297	40.11
847.473	62.63
847.648	-31.57
847.824	15.53
847.999	-52.05
848.175	15.53
848.35	54.44
848.526	-9.05
848.701	83.11
848.876	68.78
849.052	19.63
849.227	46.25
849.403	54.44
849.578	33.96
849.753	44.2
849.929	107.69
850.104	-15.19
850.279	54.44
850.454	-7
850.63	42.15
850.805	29.87
850.98	50.35
851.155	36.01
851.33	-41.81
851.505	-35.67
851.681	19.63
851.856	54.44
852.031	48.3
852.206	5.29
852.381	29.87
852.556	17.58
852.731	66.73
852.906	76.97
853.081	31.91
853.256	15.53
853.431	-43.86
853.606	48.3
853.781	21.67
853.956	1.19
854.131	44.2
854.305	29.87
854.48	13.48
854.655	13.48
854.83	50.35
855.005	-13.14
855.18	58.54
855.354	54.44
855.529	11.43
855.704	-37.72
855.879	-15.19
856.053	-27.48
856.228	38.06
856.403	40.11
856.577	79.02
856.752	13.48
856.926	87.21
857.101	48.3
857.276	83.11
857.45	33.96
857.625	70.83
857.799	7.34
857.974	48.3
858.148	-4.95
858.323	95.4
858.497	9.39
858.672	58.54
858.846	60.59
859.02	44.2
859.195	-2.9
859.369	105.64
859.543	13.48
859.718	81.07
859.892	17.58
860.066	40.11
860.241	27.82
860.415	21.67
860.589	-4.95
860.763	62.63
860.938	-13.14
861.112	9.39
861.286	9.39
861.46	25.77
861.634	-17.24
861.808	74.92
861.982	25.77
862.157	7.34
862.331	79.02
862.505	9.39
862.679	-109.4
862.853	13.48
863.027	25.77
863.201	119.98
863.375	-2.9
863.549	19.63
863.722	23.72
863.896	66.73
864.07	25.77
864.244	15.53
864.418	1.19
864.592	46.25
864.766	17.58
864.939	76.97
865.113	48.3
865.287	60.59
865.461	-4.95
865.634	-35.67
865.808	-9.05
865.982	15.53
866.156	7.34
866.329	9.39
866.503	38.06
866.676	-35.67
866.85	-17.24
867.024	25.77
867.197	13.48
867.371	25.77
867.544	50.35
867.718	-72.53
867.891	40.11
868.065	-15.19
868.238	29.87
868.412	-0.85
868.585	5.29
868.759	9.39
868.932	13.48
869.105	36.01
869.279	42.15
869.452	-11.09
869.625	25.77
869.799	95.4
869.972	21.67
870.145	-11.09
870.319	-47.96
870.492	31.91
870.665	-0.85
870.838	-25.43
871.011	5.29
871.185	56.49
871.358	29.87
871.531	-4.95
871.704	13.48
871.877	27.82
872.05	-37.72
872.223	1.19
872.396	56.49
872.569	13.48
872.742	-0.85
872.915	-2.9
873.088	9.39
873.261	-9.05
873.434	-35.67
873.607	62.63
873.78	72.87
873.953	64.68
874.126	42.15
874.299	-4.95
874.471	-31.57
874.644	19.63
874.817	-7
874.99	17.58
875.163	27.82
875.335	-2.9
875.508	68.78
875.681	15.53
875.853	9.39
876.026	-0.85
876.199	-37.72
876.371	-4.95
876.544	-17.24
876.717	5.29
876.889	62.63
877.062	52.39
877.234	-15.19
877.407	-7
877.579	-15.19
877.752	13.48
877.924	-23.38
878.097	9.39
878.269	62.63
878.442	-43.86
878.614	-27.48
878.786	81.07
878.959	-31.57
879.131	5.29
879.303	-45.91
879.476	-9.05
879.648	33.96
879.82	62.63
879.993	21.67
880.165	-47.96
880.337	-33.62
880.509	62.63
880.681	-50
880.854	25.77
881.026	-11.09
881.198	111.78
881.37	3.24
881.542	-41.81
881.714	-2.9
881.886	38.06
882.058	-25.43
882.23	3.24
882.402	-93.01
882.574	33.96
882.746	66.73
882.918	103.59
883.09	-9.05
883.262	27.82
883.434	-76.63
883.606	-23.38
883.778	-13.14
883.95	29.87
884.122	-37.72
884.293	9.39
884.465	7.34
884.637	46.25
884.809	-13.14
884.98	11.43
885.152	31.91
885.324	99.5
885.496	3.24
885.667	-11.09
885.839	36.01
886.011	105.64
886.182	9.39
886.354	58.54
886.525	58.54
886.697	40.11
886.869	1.19
887.04	33.96
887.212	-23.38
887.383	54.44
887.555	-60.24
887.726	81.07
887.897	44.2
888.069	-31.57
888.24	42.15
888.412	-47.96
888.583	58.54
888.754	33.96
888.926	1.19
889.097	52.39
889.268	29.87
889.44	54.44
889.611	3.24
889.782	38.06
889.953	-15.19
890.125	1.19
890.296	-7
890.467	25.77
890.638	-29.52
890.809	-41.81
890.98	-62.29
891.151	83.11
891.323	33.96
891.494	42.15
891.665	62.63
891.836	23.72
892.007	-19.29
892.178	-45.91
892.349	91.31
892.52	-21.33
892.691	38.06
892.862	-19.29
893.032	3.24
893.203	54.44
893.374	3.24
893.545	1.19
893.716	29.87
893.887	76.97
894.057	-33.62
894.228	-0.85
894.399	-97.11
894.57	33.96
894.74	11.43
894.911	-9.05
895.082	44.2
895.253	-47.96
895.423	-68.44
895.594	9.39
895.764	17.58
895.935	-17.24
896.106	-15.19
896.276	-23.38
896.447	109.74
896.617	-19.29
896.788	-54.1
896.958	44.2
897.129	56.49
897.299	11.43
897.47	-35.67
897.64	31.91
897.81	-7
897.981	-21.33
898.151	-27.48
898.322	-4.95
898.492	-19.29
898.662	33.96
898.832	58.54
899.003	25.77
899.173	17.58
899.343	-27.48
899.513	-11.09
