Data from USB4F104151__225__11-10-53-634.txt Node

Date: Wed Mar 12 11:10:53 EDT 2025
User: louis
Spectrometer: USB4F10415
Trigger mode: 4
Integration Time (sec): 2.000000E-2
Scans to average: 1
Electric dark correction enabled: true
Nonlinearity correction enabled: false
Boxcar width: 0
XAxis mode: Wavelengths
Number of Pixels in Spectrum: 3648
>>>>>Begin Spectral Data<<<<<
178.204	-108.03
178.424	-108.03
178.644	-108.03
178.864	-89.6
179.084	-101.89
179.304	18.94
179.524	31.23
179.744	-15.87
179.964	74.24
180.184	4.61
180.404	-34.3
180.624	-19.97
180.844	-15.87
181.064	39.42
181.283	-50.69
181.503	-1.54
181.723	-30.21
181.943	-7.68
182.163	45.57
182.383	35.33
182.602	-22.02
182.822	25.09
183.042	-5.63
183.262	49.66
183.482	6.66
183.701	-7.68
183.921	6.66
184.141	84.48
184.361	31.23
184.58	37.38
184.8	0.51
185.02	-26.11
185.239	47.62
185.459	70.14
185.679	23.04
185.898	-28.16
186.118	29.18
186.338	41.47
186.557	12.8
186.777	23.04
186.997	27.14
187.216	53.76
187.436	45.57
187.655	35.33
187.875	39.42
188.095	27.14
188.314	14.85
188.534	57.86
188.753	23.04
188.973	53.76
189.192	39.42
189.412	-46.59
189.631	37.38
189.851	-1.54
190.07	-13.82
190.29	6.66
190.509	2.56
190.729	-1.54
190.948	45.57
191.168	102.91
191.387	31.23
191.607	-28.16
191.826	33.28
192.045	37.38
192.265	10.75
192.484	29.18
192.704	12.8
192.923	68.09
193.142	-1.54
193.362	-32.26
193.581	-5.63
193.8	-11.78
194.02	-24.06
194.239	25.09
194.458	113.15
194.678	-19.97
194.897	70.14
195.116	14.85
195.335	125.44
195.555	29.18
195.774	61.95
195.993	14.85
196.212	27.14
196.432	6.66
196.651	31.23
196.87	-11.78
197.089	41.47
197.308	-13.82
197.528	-13.82
197.747	10.75
197.966	6.66
198.185	-28.16
198.404	41.47
198.623	29.18
198.842	-48.64
199.062	84.48
199.281	72.19
199.5	-13.82
199.719	14.85
199.938	-17.92
200.157	20.99
200.376	12.8
200.595	53.76
200.814	2.56
201.033	-26.11
201.252	-9.73
201.471	-38.4
201.69	-13.82
201.909	37.38
202.128	14.85
202.347	66.05
202.566	45.57
202.785	4.61
203.004	39.42
203.223	70.14
203.442	4.61
203.661	-5.63
203.879	-46.59
204.098	41.47
204.317	-11.78
204.536	94.72
204.755	14.85
204.974	68.09
205.193	51.71
205.411	25.09
205.63	61.95
205.849	64
206.068	31.23
206.287	82.43
206.505	29.18
206.724	41.47
206.943	16.9
207.162	-28.16
207.381	53.76
207.599	51.71
207.818	29.18
208.037	33.28
208.255	-1.54
208.474	23.04
208.693	-1.54
208.911	41.47
209.13	27.14
209.349	-24.06
209.567	-13.82
209.786	27.14
210.005	2.56
210.223	47.62
210.442	10.75
210.661	72.19
210.879	-5.63
211.098	-48.64
211.316	-3.58
211.535	45.57
211.753	-17.92
211.972	-5.63
212.191	-32.26
212.409	119.29
212.628	2.56
212.846	16.9
213.065	2.56
213.283	18.94
213.502	70.14
213.72	-24.06
213.938	20.99
214.157	-38.4
214.375	-50.69
214.594	-3.58
214.812	10.75
215.031	-42.5
215.249	-46.59
215.467	-38.4
215.686	33.28
215.904	94.72
216.122	0.51
216.341	121.34
216.559	47.62
216.778	-30.21
216.996	37.38
217.214	-24.06
217.432	-11.78
217.651	-38.4
217.869	-11.78
218.087	66.05
218.306	53.76
218.524	55.81
218.742	6.66
218.96	27.14
219.179	80.38
219.397	-9.73
219.615	-1.54
219.833	37.38
220.051	18.94
220.27	8.7
220.488	23.04
220.706	53.76
220.924	-15.87
221.142	33.28
221.36	-13.82
221.578	78.33
221.796	14.85
222.015	-38.4
222.233	29.18
222.451	47.62
222.669	-38.4
222.887	70.14
223.105	25.09
223.323	2.56
223.541	-1.54
223.759	-42.5
223.977	59.9
224.195	-5.63
224.413	2.56
224.631	47.62
224.849	6.66
225.067	49.66
225.285	-26.11
225.503	8.7
225.721	8.7
225.939	74.24
226.157	-5.63
226.375	57.86
226.592	-9.73
226.81	-60.93
227.028	-24.06
227.246	107.01
227.464	-5.63
227.682	-13.82
227.9	39.42
228.117	43.52
228.335	18.94
228.553	59.9
228.771	43.52
228.989	16.9
229.206	47.62
229.424	-77.31
229.642	-1.54
229.86	-1.54
230.077	-13.82
230.295	-24.06
230.513	14.85
230.731	57.86
230.948	-13.82
231.166	78.33
231.384	55.81
231.601	-36.35
231.819	6.66
232.037	-108.03
232.254	0.51
232.472	-32.26
232.689	-7.68
232.907	37.38
233.125	51.71
233.342	39.42
233.56	18.94
233.777	-60.93
233.995	12.8
234.213	35.33
234.43	14.85
234.648	-75.26
234.865	-13.82
235.083	12.8
235.3	-22.02
235.518	29.18
235.735	18.94
235.953	6.66
236.17	27.14
236.388	-11.78
236.605	-7.68
236.822	14.85
237.04	70.14
237.257	49.66
237.475	16.9
237.692	104.96
237.909	-36.35
238.127	23.04
238.344	55.81
238.562	39.42
238.779	14.85
238.996	12.8
239.214	23.04
239.431	64
239.648	-9.73
239.865	-36.35
240.083	53.76
240.3	80.38
240.517	10.75
240.735	55.81
240.952	51.71
241.169	96.77
241.386	92.67
241.603	20.99
241.821	-26.11
242.038	-3.58
242.255	61.95
242.472	-30.21
242.689	86.53
242.907	-11.78
243.124	-5.63
243.341	51.71
243.558	-15.87
243.775	2.56
243.992	-42.5
244.209	12.8
244.426	41.47
244.643	-9.73
244.86	14.85
245.078	39.42
245.295	-56.83
245.512	23.04
245.729	-65.02
245.946	88.57
246.163	-9.73
246.38	-5.63
246.597	-9.73
246.814	14.85
247.031	80.38
247.248	49.66
247.464	94.72
247.681	-9.73
247.898	-17.92
248.115	0.51
248.332	0.51
248.549	12.8
248.766	2.56
248.983	-17.92
249.2	-38.4
249.417	10.75
249.633	49.66
249.85	49.66
250.067	-5.63
250.284	-5.63
250.501	25.09
250.717	137.73
250.934	-17.92
251.151	47.62
251.368	-17.92
251.585	129.53
251.801	72.19
252.018	29.18
252.235	20.99
252.451	-54.78
252.668	-52.74
252.885	-62.98
253.102	31.23
253.318	25.09
253.535	-13.82
253.752	20.99
253.968	-26.11
254.185	51.71
254.401	-52.74
254.618	-30.21
254.835	-26.11
255.051	104.96
255.268	-73.21
255.484	-17.92
255.701	100.86
255.917	-11.78
256.134	20.99
256.351	-42.5
256.567	57.86
256.784	80.38
257	-22.02
257.217	4.61
257.433	-24.06
257.65	51.71
257.866	12.8
258.082	-36.35
258.299	-9.73
258.515	47.62
258.732	55.81
258.948	12.8
259.165	-9.73
259.381	18.94
259.597	43.52
259.814	6.66
260.03	-11.78
260.246	47.62
260.463	8.7
260.679	61.95
260.895	-9.73
261.112	59.9
261.328	8.7
261.544	51.71
261.761	113.15
261.977	49.66
262.193	-5.63
262.409	-5.63
262.626	25.09
262.842	33.28
263.058	10.75
263.274	68.09
263.49	33.28
263.707	53.76
263.923	23.04
264.139	86.53
264.355	74.24
264.571	-5.63
264.787	27.14
265.004	-9.73
265.22	0.51
265.436	31.23
265.652	27.14
265.868	4.61
266.084	-42.5
266.3	41.47
266.516	12.8
266.732	-75.26
266.948	20.99
267.164	66.05
267.38	49.66
267.596	47.62
267.812	74.24
268.028	-9.73
268.244	-36.35
268.46	31.23
268.676	-36.35
268.892	6.66
269.108	6.66
269.324	-22.02
269.54	-40.45
269.756	57.86
269.972	-9.73
270.188	92.67
270.403	-13.82
270.619	2.56
270.835	20.99
271.051	-26.11
271.267	-34.3
271.483	-5.63
271.698	64
271.914	37.38
272.13	61.95
272.346	68.09
272.562	41.47
272.777	14.85
272.993	-3.58
273.209	12.8
273.425	-28.16
273.64	2.56
273.856	18.94
274.072	51.71
274.287	-17.92
274.503	76.29
274.719	41.47
274.934	-60.93
275.15	-50.69
275.366	27.14
275.581	12.8
275.797	51.71
276.012	37.38
276.228	-13.82
276.444	41.47
276.659	-22.02
276.875	-46.59
277.09	-42.5
277.306	-26.11
277.521	104.96
277.737	39.42
277.952	109.05
278.168	14.85
278.383	31.23
278.599	-5.63
278.814	27.14
279.03	-17.92
279.245	80.38
279.461	16.9
279.676	41.47
279.892	-30.21
280.107	70.14
280.322	6.66
280.538	10.75
280.753	-38.4
280.969	43.52
281.184	-42.5
281.399	55.81
281.615	-26.11
281.83	35.33
282.045	20.99
282.26	-32.26
282.476	-1.54
282.691	47.62
282.906	45.57
283.122	68.09
283.337	23.04
283.552	31.23
283.767	-17.92
283.983	33.28
284.198	31.23
284.413	98.81
284.628	49.66
284.843	8.7
285.058	31.23
285.274	47.62
285.489	47.62
285.704	-13.82
285.919	29.18
286.134	-5.63
286.349	14.85
286.564	35.33
286.779	41.47
286.995	33.28
287.21	-1.54
287.425	2.56
287.64	12.8
287.855	18.94
288.07	-56.83
288.285	45.57
288.5	51.71
288.715	20.99
288.93	20.99
289.145	61.95
289.36	-9.73
289.575	10.75
289.79	53.76
290.004	51.71
290.219	12.8
290.434	-7.68
290.649	0.51
290.864	39.42
291.079	-34.3
291.294	92.67
291.509	-3.58
291.724	45.57
291.938	23.04
292.153	2.56
292.368	4.61
292.583	37.38
292.798	-1.54
293.012	66.05
293.227	39.42
293.442	23.04
293.657	104.96
293.871	70.14
294.086	39.42
294.301	53.76
294.516	104.96
294.73	88.57
294.945	-36.35
295.16	64
295.374	39.42
295.589	57.86
295.804	6.66
296.018	-52.74
296.233	47.62
296.447	18.94
296.662	53.76
296.877	8.7
297.091	6.66
297.306	-1.54
297.52	-22.02
297.735	78.33
297.949	27.14
298.164	88.57
298.378	-15.87
298.593	4.61
298.807	-50.69
299.022	4.61
299.236	61.95
299.451	55.81
299.665	-1.54
299.88	57.86
300.094	8.7
300.309	16.9
300.523	-40.45
300.737	18.94
300.952	41.47
301.166	78.33
301.381	-9.73
301.595	68.09
301.809	43.52
302.024	-1.54
302.238	45.57
302.452	49.66
302.667	8.7
302.881	66.05
303.095	55.81
303.309	10.75
303.524	-24.06
303.738	27.14
303.952	16.9
304.166	-46.59
304.381	51.71
304.595	98.81
304.809	35.33
305.023	-1.54
305.237	27.14
305.452	23.04
305.666	76.29
305.88	23.04
306.094	10.75
306.308	-1.54
306.522	88.57
306.736	-60.93
306.95	-7.68
307.164	47.62
307.379	-46.59
307.593	20.99
307.807	41.47
308.021	76.29
308.235	27.14
308.449	41.47
308.663	-22.02
308.877	57.86
309.091	43.52
309.305	45.57
309.519	47.62
309.733	33.28
309.947	4.61
310.161	27.14
310.374	-22.02
310.588	37.38
310.802	-15.87
311.016	80.38
311.23	-54.78
311.444	61.95
311.658	-44.54
311.872	68.09
312.085	10.75
312.299	-26.11
312.513	64
312.727	-9.73
312.941	16.9
313.154	45.57
313.368	68.09
313.582	29.18
313.796	27.14
314.009	68.09
314.223	68.09
314.437	59.9
314.651	0.51
314.864	55.81
315.078	-28.16
315.292	-11.78
315.505	-5.63
315.719	78.33
315.933	-46.59
316.146	82.43
316.36	23.04
316.573	4.61
316.787	29.18
317.001	55.81
317.214	6.66
317.428	-48.64
317.641	6.66
317.855	2.56
318.068	27.14
318.282	12.8
318.495	86.53
318.709	12.8
318.922	-17.92
319.136	10.75
319.349	72.19
319.563	-7.68
319.776	100.86
319.99	-5.63
320.203	-30.21
320.417	-7.68
320.63	39.42
320.843	80.38
321.057	66.05
321.27	41.47
321.483	47.62
321.697	111.1
321.91	66.05
322.124	41.47
322.337	45.57
322.55	-15.87
322.763	29.18
322.977	47.62
323.19	-26.11
323.403	51.71
323.617	14.85
323.83	104.96
324.043	49.66
324.256	88.57
324.469	72.19
324.683	6.66
324.896	-62.98
325.109	45.57
325.322	-52.74
325.535	47.62
325.748	2.56
325.962	53.76
326.175	39.42
326.388	61.95
326.601	37.38
326.814	-34.3
327.027	59.9
327.24	119.29
327.453	-3.58
327.666	6.66
327.879	76.29
328.092	96.77
328.305	64
328.518	53.76
328.731	-1.54
328.944	51.71
329.157	-1.54
329.37	59.9
329.583	49.66
329.796	20.99
330.009	-28.16
330.222	96.77
330.435	76.29
330.648	14.85
330.861	-24.06
331.073	123.39
331.286	109.05
331.499	-17.92
331.712	27.14
331.925	20.99
332.138	27.14
332.35	-13.82
332.563	-11.78
332.776	6.66
332.989	-36.35
333.202	59.9
333.414	-67.07
333.627	53.76
333.84	14.85
334.053	53.76
334.265	-36.35
334.478	-17.92
334.691	43.52
334.903	16.9
335.116	14.85
335.329	125.44
335.541	29.18
335.754	33.28
335.966	-32.26
336.179	33.28
336.392	45.57
336.604	-32.26
336.817	-17.92
337.029	92.67
337.242	23.04
337.454	107.01
337.667	33.28
337.88	53.76
338.092	-19.97
338.305	57.86
338.517	31.23
338.729	68.09
338.942	29.18
339.154	-30.21
339.367	-17.92
339.579	-9.73
339.792	0.51
340.004	59.9
340.217	-17.92
340.429	72.19
340.641	-32.26
340.854	59.9
341.066	55.81
341.278	-9.73
341.491	55.81
341.703	78.33
341.915	-13.82
342.128	74.24
342.34	115.2
342.552	31.23
342.764	18.94
342.977	-81.41
343.189	37.38
343.401	14.85
343.613	-22.02
343.826	0.51
344.038	35.33
344.25	78.33
344.462	-3.58
344.674	49.66
344.886	43.52
345.099	16.9
345.311	20.99
345.523	51.71
345.735	-11.78
345.947	27.14
346.159	6.66
346.371	-11.78
346.583	68.09
346.795	100.86
347.007	18.94
347.219	90.62
347.431	23.04
347.643	53.76
347.855	23.04
348.067	49.66
348.279	20.99
348.491	41.47
348.703	35.33
348.915	-15.87
349.127	14.85
349.339	2.56
349.551	-15.87
349.763	55.81
349.975	104.96
350.187	-36.35
350.399	-28.16
350.61	47.62
350.822	-34.3
351.034	68.09
351.246	61.95
351.458	39.42
351.669	-7.68
351.881	55.81
352.093	86.53
352.305	47.62
352.517	-9.73
352.728	57.86
352.94	14.85
353.152	14.85
353.363	64
353.575	31.23
353.787	-48.64
353.999	29.18
354.21	2.56
354.422	12.8
354.633	90.62
354.845	12.8
355.057	10.75
355.268	51.71
355.48	31.23
355.692	-75.26
355.903	23.04
356.115	14.85
356.326	-69.12
356.538	37.38
356.749	16.9
356.961	43.52
357.172	-13.82
357.384	-15.87
357.595	35.33
357.807	41.47
358.018	-42.5
358.23	8.7
358.441	12.8
358.653	35.33
358.864	76.29
359.075	-46.59
359.287	12.8
359.498	0.51
359.709	-3.58
359.921	51.71
360.132	20.99
360.344	-26.11
360.555	64
360.766	2.56
360.977	37.38
361.189	-3.58
361.4	23.04
361.611	92.67
361.823	88.57
362.034	55.81
362.245	49.66
362.456	27.14
362.667	59.9
362.879	-44.54
363.09	-32.26
363.301	53.76
363.512	-60.93
363.723	14.85
363.935	23.04
364.146	-7.68
364.357	80.38
364.568	10.75
364.779	43.52
364.99	92.67
365.201	-9.73
365.412	18.94
365.623	-1.54
365.834	6.66
366.045	43.52
366.256	43.52
366.467	10.75
366.678	14.85
366.889	-13.82
367.1	104.96
367.311	76.29
367.522	20.99
367.733	-7.68
367.944	43.52
368.155	74.24
368.366	27.14
368.577	14.85
368.788	33.28
368.999	6.66
369.209	12.8
369.42	49.66
369.631	45.57
369.842	76.29
370.053	6.66
370.264	113.15
370.474	76.29
370.685	4.61
370.896	51.71
371.107	-15.87
371.317	74.24
371.528	-36.35
371.739	74.24
371.95	92.67
372.16	29.18
372.371	-50.69
372.582	25.09
372.792	4.61
373.003	25.09
373.214	117.25
373.424	72.19
373.635	39.42
373.846	4.61
374.056	57.86
374.267	45.57
374.477	104.96
374.688	25.09
374.898	39.42
375.109	55.81
375.319	47.62
375.53	43.52
375.74	25.09
375.951	86.53
376.161	20.99
376.372	41.47
376.582	35.33
376.793	-13.82
377.003	-3.58
377.214	72.19
377.424	104.96
377.635	102.91
377.845	49.66
378.055	35.33
378.266	-36.35
378.476	-42.5
378.686	16.9
378.897	23.04
379.107	2.56
379.317	76.29
379.528	76.29
379.738	10.75
379.948	23.04
380.158	39.42
380.369	39.42
380.579	104.96
380.789	-46.59
380.999	14.85
381.21	88.57
381.42	25.09
381.63	41.47
381.84	23.04
382.05	20.99
382.261	68.09
382.471	111.1
382.681	29.18
382.891	0.51
383.101	2.56
383.311	29.18
383.521	-3.58
383.731	31.23
383.941	68.09
384.151	129.53
384.361	102.91
384.571	47.62
384.781	49.66
384.991	64
385.201	45.57
385.411	45.57
385.621	59.9
385.831	68.09
386.041	10.75
386.251	-26.11
386.461	41.47
386.671	47.62
386.881	76.29
387.091	-5.63
387.301	-1.54
387.511	-3.58
387.72	-40.45
387.93	35.33
388.14	61.95
388.35	64
388.56	49.66
388.769	45.57
388.979	102.91
389.189	2.56
389.399	127.49
389.609	16.9
389.818	57.86
390.028	31.23
390.238	-9.73
390.447	4.61
390.657	49.66
390.867	68.09
391.076	59.9
391.286	-22.02
391.496	-9.73
391.705	6.66
391.915	78.33
392.125	68.09
392.334	-26.11
392.544	88.57
392.753	31.23
392.963	-40.45
393.172	68.09
393.382	70.14
393.591	80.38
393.801	25.09
394.01	160.25
394.22	39.42
394.429	68.09
394.639	-3.58
394.848	117.25
395.058	45.57
395.267	55.81
395.477	115.2
395.686	6.66
395.895	94.72
396.105	98.81
396.314	53.76
396.524	82.43
396.733	59.9
396.942	57.86
397.152	2.56
397.361	-24.06
397.57	78.33
397.78	70.14
397.989	111.1
398.198	170.49
398.407	61.95
398.617	88.57
398.826	111.1
399.035	82.43
399.244	88.57
399.453	64
399.663	55.81
399.872	188.93
400.081	16.9
400.29	94.72
400.499	61.95
400.708	66.05
400.917	66.05
401.127	8.7
401.336	23.04
401.545	16.9
401.754	57.86
401.963	84.48
402.172	41.47
402.381	61.95
402.59	51.71
402.799	78.33
403.008	117.25
403.217	72.19
403.426	174.59
403.635	107.01
403.844	127.49
404.053	82.43
404.262	66.05
404.471	131.58
404.68	150.01
404.888	152.06
405.097	80.38
405.306	113.15
405.515	78.33
405.724	129.53
405.933	55.81
406.142	223.74
406.35	150.01
406.559	80.38
406.768	139.77
406.977	186.88
407.185	98.81
407.394	252.41
407.603	104.96
407.812	160.25
408.02	252.41
408.229	139.77
408.438	178.69
408.646	82.43
408.855	184.83
409.064	184.83
409.272	186.88
409.481	158.21
409.69	199.16
409.898	240.12
410.107	227.84
410.315	147.97
410.524	176.64
410.733	199.16
410.941	279.04
411.15	303.61
411.358	283.13
411.567	350.71
411.775	320
411.984	233.98
412.192	295.42
412.401	350.71
412.609	301.56
412.818	336.38
413.026	442.87
413.234	401.91
413.443	451.07
413.651	410.11
413.86	416.25
414.068	463.35
414.276	365.05
414.485	414.2
414.693	453.11
414.901	530.94
415.11	610.81
415.318	428.54
415.526	526.84
415.734	543.22
415.943	625.14
416.151	596.47
416.359	596.47
416.567	627.19
416.776	649.72
416.984	692.73
417.192	750.07
417.4	760.31
417.608	707.06
417.817	784.88
418.025	788.98
418.233	858.61
418.441	788.98
418.649	936.43
418.857	965.11
419.065	997.87
419.273	1004.02
419.481	938.48
419.689	1094.13
419.897	1053.17
420.105	1063.41
420.313	1196.53
420.521	1260.01
420.729	1178.09
420.937	1204.72
421.145	1360.36
421.353	1315.31
421.561	1339.88
421.769	1440.23
421.977	1487.34
422.185	1448.43
422.393	1548.78
422.601	1700.33
422.809	1655.27
423.017	1659.37
423.224	1817.06
423.432	1888.74
423.64	1804.77
423.848	1917.41
424.056	1989.09
424.263	2099.68
424.471	2169.31
424.679	2128.35
424.887	2308.57
425.094	2275.81
425.302	2298.33
425.51	2537.95
425.718	2441.69
425.925	2439.64
426.133	2574.81
426.341	2656.73
426.548	2914.77
426.756	2957.78
426.964	2990.55
427.171	3047.89
427.379	3176.91
427.586	3301.84
427.794	3383.76
428.001	3559.88
428.209	3641.8
428.417	3406.28
428.624	3795.4
428.832	3768.77
429.039	3881.41
429.247	3815.88
429.454	4116.93
429.662	4258.24
429.869	4053.44
430.076	4356.54
430.284	4241.86
430.491	4424.12
430.699	4813.24
430.906	4819.38
431.114	4735.42
431.321	4909.49
431.528	5067.19
431.736	5355.95
431.943	5689.77
432.15	5470.64
432.358	5677.48
432.565	5781.93
432.772	5853.61
432.979	5960.1
433.187	6199.71
433.394	6224.29
433.601	6644.12
433.808	6644.12
434.016	6480.29
434.223	6902.17
434.43	7371.15
434.637	7344.53
434.844	7621
435.052	7825.8
435.259	7645.58
435.466	7819.66
435.673	7623.05
435.88	8331.65
436.087	8747.39
436.294	8472.96
436.501	8462.72
436.708	8567.17
436.915	8866.17
437.122	9355.63
437.329	9304.43
437.537	9830.76
437.743	9746.8
437.95	9888.11
438.157	10320.23
438.364	10412.39
438.571	10344.8
438.778	10619.23
438.985	11372.88
439.192	10991.96
439.399	11383.12
439.606	11194.71
439.813	11888.97
440.02	12478.79
440.227	12347.72
440.433	12151.11
440.64	12607.81
440.847	12435.78
441.054	12636.48
441.261	13805.87
441.467	13379.89
441.674	13893.93
441.881	14221.61
442.088	14225.7
442.294	13981.99
442.501	14428.45
442.708	14682.4
442.914	15309.08
443.121	15989
443.328	15477.01
443.534	16429.32
443.741	15733.01
443.948	15968.52
444.154	17180.92
444.361	16806.14
444.568	16806.14
444.774	17107.19
444.981	17148.15
445.187	17580.28
445.394	18510.05
445.6	18280.68
445.807	20019.41
446.013	19106.01
446.22	19732.69
446.426	20101.33
446.633	20021.45
446.839	20809.92
447.046	20056.27
447.252	20979.9
447.459	21192.89
447.665	20994.24
447.871	22100.14
448.078	23187.61
448.284	21850.29
448.491	22347.95
448.697	23275.68
448.903	23529.62
449.11	23715.99
449.316	23455.9
449.522	24256.65
449.728	24322.19
449.935	24373.39
450.141	24486.03
450.347	25260.16
450.553	24354.96
450.76	24692.87
450.966	25280.64
451.172	25374.84
451.378	25907.32
451.584	24989.83
451.791	25888.88
451.997	25479.29
452.203	26333.29
452.409	26185.84
452.615	25964.66
452.821	25041.03
453.027	24492.17
453.233	26026.1
453.44	24905.86
453.646	25131.14
453.852	25313.41
454.058	25839.73
454.264	25077.89
454.47	25387.13
454.676	25008.26
454.882	25626.74
455.088	23105.7
455.294	23523.48
455.5	23920.79
455.705	23945.36
455.911	23492.76
456.117	22679.72
456.323	22519.98
456.529	21235.9
456.735	22266.03
456.941	21653.69
457.147	21414.07
457.352	20756.68
457.558	20191.44
457.764	20318.41
457.97	20179.15
458.176	19599.57
458.381	19652.82
458.587	18454.76
458.793	18458.85
458.999	17623.28
459.204	18833.63
459.41	18381.03
459.616	17082.62
459.821	17072.38
460.027	16963.84
460.233	16720.13
460.438	15632.66
460.644	15939.85
460.85	15464.72
461.055	15053.08
461.261	15085.85
461.466	14031.15
461.672	13492.53
461.878	14625.06
462.083	13445.43
462.289	13291.83
462.494	13328.69
462.7	12640.58
462.905	12296.52
463.111	12697.92
463.316	12730.69
463.522	12435.78
463.727	12495.17
463.932	12435.78
464.138	12448.07
464.343	12519.74
464.549	12063.05
464.754	12599.62
464.959	12286.28
465.165	12218.69
465.37	11671.89
465.575	11338.07
465.781	11800.91
465.986	11979.08
466.191	11747.66
466.397	11143.51
466.602	10709.34
466.807	11151.7
467.012	11151.7
467.218	11073.88
467.423	10803.55
467.628	11245.91
467.833	11360.59
468.038	11045.21
468.244	10875.23
468.449	11241.81
468.654	10680.67
468.859	10817.88
469.064	10545.5
469.269	10250.6
469.474	10375.52
469.679	10279.27
469.885	10307.94
470.09	10457.44
470.295	10219.88
470.5	9961.83
470.705	9912.68
470.91	9865.58
471.115	9836.91
471.32	9996.65
471.525	9879.91
471.73	9771.37
471.935	9589.1
472.139	9423.22
472.344	9408.88
472.549	9312.63
472.754	9345.39
472.959	9030.01
473.164	8880.5
473.369	8673.66
473.574	8913.27
473.778	8966.52
473.983	8620.41
474.188	8771.96
474.393	8427.9
474.598	8362.37
474.802	8382.85
475.007	8421.76
475.212	8425.86
475.417	7938.44
475.621	8016.26
475.826	8014.21
476.031	7952.77
476.235	7766.41
476.44	7743.88
476.645	7559.56
476.849	7772.55
477.054	7471.5
477.259	7453.07
477.463	7477.65
477.668	7375.25
477.872	7575.95
478.077	7405.97
478.282	7203.22
478.486	7133.59
478.691	6969.75
478.895	7002.52
479.1	6846.87
479.304	6922.65
479.509	6689.18
479.713	6740.38
479.918	6760.86
480.122	6660.51
480.326	6498.72
480.531	6625.69
480.735	6697.37
480.94	6384.03
481.144	6652.31
481.348	6420.89
481.553	6525.34
481.757	6472.09
481.961	6635.93
482.166	6601.12
482.37	6482.33
482.574	6375.84
482.778	6365.6
482.983	6619.55
483.187	6349.22
483.391	6594.97
483.595	6330.78
483.8	6267.3
484.004	6355.36
484.208	6531.48
484.412	6314.4
484.616	6447.52
484.821	6404.51
485.025	6398.37
485.229	6566.3
485.433	6330.78
485.637	6494.62
485.841	6146.47
486.045	6365.6
486.249	6517.15
486.453	6472.09
486.657	6336.93
486.861	6484.38
487.065	6193.57
487.269	6502.81
487.473	6263.2
487.677	6472.09
487.881	6427.04
488.085	6418.85
488.289	6541.72
488.493	6525.34
488.697	6439.33
488.901	6431.13
489.105	6416.8
489.309	6590.88
489.512	6476.19
489.716	6414.75
489.92	6447.52
490.124	6459.81
490.328	6633.88
490.531	6392.22
490.735	6691.23
490.939	6543.77
491.143	6537.63
491.346	6656.41
491.55	6588.83
491.754	6785.43
491.958	6599.07
492.161	6689.18
492.365	6715.8
492.569	6785.43
492.772	6711.71
492.976	6756.76
493.18	6674.84
493.383	6816.15
493.587	7018.9
493.79	7072.15
493.994	6891.93
494.197	7012.76
494.401	6992.28
494.605	7240.08
494.808	7289.23
495.012	7109.01
495.215	7115.16
495.419	7338.38
495.622	7360.91
495.825	7348.62
496.029	7410.06
496.232	7541.13
496.436	7635.34
496.639	7889.29
496.843	7715.21
497.046	7881.1
497.249	7944.58
497.453	7905.67
497.656	8165.76
497.859	7819.66
498.063	8259.97
498.266	8294.79
498.469	8448.38
498.673	8495.49
498.876	8581.5
499.079	8503.68
499.282	8677.76
499.485	8698.24
499.689	8860.02
499.892	8995.19
500.095	8890.74
500.298	9171.32
500.501	9034.1
500.705	9218.42
500.908	9507.18
501.111	9505.13
501.314	9623.92
501.517	9562.48
501.72	9959.78
501.923	9738.6
502.126	10174.82
502.329	10396
502.532	10324.32
502.735	10361.19
502.938	10439.01
503.141	10576.22
503.344	10754.4
503.547	10680.67
503.75	10821.98
503.953	11112.79
504.156	11190.61
504.359	11207
504.562	11200.85
504.765	11555.15
504.968	11686.22
505.17	11641.17
505.373	11958.6
505.576	12099.91
505.779	12304.71
505.982	12128.58
506.185	12343.62
506.387	12507.46
506.59	12691.77
506.793	12673.34
506.996	12788.03
507.198	13050.17
507.401	12880.19
507.604	13275.45
507.807	13619.5
508.009	13463.86
508.212	13805.87
508.415	13809.97
508.617	14012.71
508.82	14385.44
509.022	14121.26
509.225	14426.4
509.428	14584.1
509.63	14625.06
509.833	14833.95
510.035	15157.53
510.238	15046.94
510.44	15274.26
510.643	15358.23
510.845	15630.61
511.048	15429.91
511.25	15569.17
511.453	15980.81
511.655	16599.3
511.858	16210.18
512.06	16070.92
512.262	16521.48
512.465	16670.98
512.667	16847.1
512.87	17092.86
513.072	16990.46
513.274	17635.57
513.477	17666.29
513.679	17774.83
513.881	17864.94
514.084	18104.56
514.286	18055.4
514.488	18352.36
514.69	18753.76
514.893	18637.03
515.095	18661.6
515.297	19005.66
515.499	19331.29
515.701	19380.44
515.904	19681.49
516.106	19785.94
516.308	20084.94
516.51	20072.65
516.712	20306.12
516.914	20644.04
517.116	20584.65
517.318	20721.86
517.52	20801.73
517.722	21010.62
517.925	21164.22
518.127	21422.27
518.329	21536.95
518.531	21442.74
518.733	22091.95
518.935	22454.44
519.136	22237.36
519.338	22536.36
519.54	22878.37
519.742	22812.84
519.944	23249.05
520.146	23204
520.348	23369.88
520.55	23681.17
520.752	23834.77
520.954	24293.52
521.155	23814.29
521.357	24774.79
521.559	24582.28
521.761	24731.78
521.963	24479.88
522.164	24979.59
522.366	24926.34
522.568	25591.93
522.77	25628.79
522.971	26089.59
523.173	25643.13
523.375	25972.85
523.576	25952.37
523.778	26314.86
523.98	26468.46
524.181	26673.26
524.383	26726.5
524.584	27179.11
524.786	27166.82
524.988	27189.35
525.189	27519.07
525.391	27230.3
525.592	27375.71
525.794	27799.64
525.995	27914.33
526.197	28008.53
526.398	28026.96
526.6	28258.38
526.801	28297.3
527.003	28516.43
527.204	28375.12
527.406	28891.21
527.607	28569.68
527.808	28870.73
528.01	28620.88
528.211	28846.15
528.412	29397.06
528.614	29673.53
528.815	29040.71
529.016	29540.41
529.218	29032.52
529.419	29444.16
529.62	29667.39
529.822	29433.92
530.023	29726.78
530.224	29806.65
530.425	29943.86
530.626	29597.76
530.828	29716.54
531.029	29962.29
531.23	29892.66
531.431	29902.9
531.632	29825.08
531.833	30310.45
532.035	29870.14
532.236	30269.49
532.437	30445.62
532.638	30429.23
532.839	30427.18
533.04	30257.2
533.241	30550.06
533.442	30851.11
533.643	30466.1
533.844	30445.62
534.045	30335.03
534.246	30156.85
534.447	30797.87
534.648	30971.94
534.849	30509.1
535.05	30347.31
535.251	30578.73
535.451	30513.2
535.652	30922.79
535.853	30445.62
536.054	30638.12
536.255	30748.71
536.456	30013.49
536.657	30904.36
536.857	30818.35
537.058	30715.95
537.259	30707.76
537.46	30722.09
537.66	30699.56
537.861	30500.91
538.062	30863.4
538.263	30849.07
538.463	30818.35
538.664	30617.64
538.865	30623.79
539.065	31068.2
539.266	30574.64
539.466	30908.46
539.667	30238.77
539.868	30771.24
540.068	30677.04
540.269	30693.42
540.469	30728.24
540.67	30654.51
540.87	30271.54
541.071	30425.14
541.271	30693.42
541.472	30820.39
541.672	30437.42
541.873	30412.85
542.073	30433.33
542.274	30877.74
542.474	30550.06
542.675	30507.05
542.875	30924.84
543.075	30525.49
543.276	30822.44
543.476	30595.12
543.676	30441.52
543.877	30554.16
544.077	30699.56
544.277	30228.53
544.478	30433.33
544.678	30830.63
544.878	30568.49
545.078	30634.03
545.279	30431.28
545.479	30201.91
545.679	30967.85
545.879	30634.03
546.079	30789.67
546.28	30410.8
546.48	30287.92
546.68	30543.92
546.88	30539.82
547.08	30171.19
547.28	30165.04
547.48	30122.04
547.68	30339.12
547.88	30236.72
548.081	30105.65
548.281	30332.98
548.481	30089.27
548.681	30597.17
548.881	30558.25
549.081	30359.6
549.28	30089.27
549.48	30705.71
549.68	30396.46
549.88	30797.87
550.08	29851.7
550.28	30308.4
550.48	30031.93
550.68	30554.16
550.88	29941.82
551.08	30378.03
551.279	30056.5
551.479	30074.93
551.679	30167.09
551.879	30132.28
552.079	30488.62
552.278	29892.66
552.478	30408.75
552.678	30167.09
552.878	30271.54
553.077	30079.03
553.277	29757.5
553.477	30552.11
553.676	30013.49
553.876	29970.49
554.076	29972.53
554.275	30277.68
554.475	29648.96
554.674	29673.53
554.874	29855.8
555.074	29915.19
555.273	29921.34
555.473	29675.58
555.672	29816.89
555.872	29634.62
556.071	29945.91
556.271	29790.27
556.47	29464.64
556.67	29255.75
556.869	29427.77
557.068	29462.59
557.268	29122.63
557.467	29343.81
557.667	29485.12
557.866	29329.47
558.065	29540.41
558.265	29009.99
558.464	29253.7
558.663	29390.91
558.863	28821.58
559.062	29118.53
559.261	28729.42
559.461	29239.36
559.66	28514.38
559.859	29046.85
560.058	28600.4
560.258	28565.58
560.457	28786.76
560.656	29044.8
560.855	28543.05
561.054	28690.51
561.253	28463.18
561.453	28844.1
561.652	28561.48
561.851	28319.82
562.05	28557.39
562.249	28457.04
562.448	28653.64
562.647	28332.11
562.846	28459.09
563.045	28323.92
563.244	27918.42
563.443	28180.56
563.642	27918.42
563.841	28102.74
564.04	27435.1
564.239	27744.34
564.438	27578.46
564.637	27422.81
564.836	27940.95
565.035	27762.78
565.234	27707.48
565.432	27144.29
565.631	27209.82
565.83	27426.91
566.029	27267.17
566.228	27406.43
566.427	27220.06
566.625	26955.88
566.824	26853.48
567.023	27007.08
567.222	26574.95
567.42	26925.16
567.619	26495.08
567.818	26572.91
568.016	26605.67
568.215	26732.65
568.414	26308.72
568.612	26667.11
568.811	26325.1
569.01	26460.27
569.208	25913.46
569.407	26361.97
569.605	26032.24
569.804	26351.73
570.002	25725.05
570.201	26011.76
570.4	25741.43
570.598	25520.25
570.797	25393.28
570.995	25579.64
571.193	25596.03
571.392	25653.37
571.59	25280.64
571.789	25350.27
571.987	25331.84
572.186	25313.41
572.384	24930.44
572.582	25223.3
572.781	24916.1
572.979	24709.25
573.177	24903.81
573.376	25010.31
573.574	24475.79
573.772	24967.3
573.971	24297.61
574.169	24400.01
574.367	24477.83
574.565	24418.44
574.763	24273.04
574.962	24314
575.16	23992.47
575.358	24182.93
575.556	24058
575.754	24303.76
575.952	23771.29
576.151	24053.9
576.349	23750.81
576.547	23515.29
576.745	23943.31
576.943	23945.36
577.141	23730.33
577.339	23625.88
577.537	23488.67
577.735	23554.2
577.933	23298.2
578.131	23402.65
578.329	23023.78
578.527	22907.04
578.725	23214.24
578.923	23173.28
579.121	22960.29
579.319	22907.04
579.516	22991.01
579.714	22735.01
579.912	22546.6
580.11	22618.28
580.308	22872.23
580.506	22532.26
580.704	21829.81
580.901	22710.44
581.099	22446.25
581.297	22188.21
581.495	22130.86
581.692	22436.01
581.89	21831.86
582.088	22239.4
582.285	21825.71
582.483	21911.73
582.681	21901.49
582.878	21637.3
583.076	21514.42
583.274	21926.07
583.471	21412.03
583.669	21631.16
583.866	21285.05
584.064	21733.56
584.262	21184.7
584.459	21389.5
584.657	21262.52
584.854	21172.41
585.052	21051.58
585.249	21424.31
585.447	21002.43
585.644	20799.68
585.841	20760.77
586.039	21145.79
586.236	20916.42
586.434	20553.93
586.631	20545.73
586.828	20441.29
587.026	20703.43
587.223	20635.85
587.42	20211.92
587.618	20527.3
587.815	20173
588.012	19951.82
588.21	20175.05
588.407	20500.68
588.604	20029.65
588.801	19929.3
588.999	19794.13
589.196	19765.46
589.393	19835.09
589.59	19747.03
589.787	19798.23
589.984	19611.86
590.182	19173.6
590.379	19542.23
590.576	19527.89
590.773	19210.46
590.97	19101.92
591.167	19505.37
591.364	18952.41
591.561	19204.31
591.758	18829.54
591.955	19159.26
592.152	19212.51
592.349	18921.7
592.546	18745.57
592.743	18882.78
592.94	18630.88
593.137	18997.47
593.334	18864.35
593.531	18295.02
593.727	18743.52
593.924	18585.83
594.121	18401.51
594.318	18532.58
594.515	18278.63
594.712	18772.19
594.908	18079.98
595.105	18589.92
595.302	17981.68
595.499	18065.64
595.696	18200.81
595.892	17846.51
596.089	17985.77
596.286	17948.91
596.482	17910
596.679	18086.12
596.876	17959.15
597.072	17664.24
597.269	17668.34
597.466	17674.48
597.662	17254.65
597.859	17535.22
598.055	17651.95
598.252	17289.46
598.448	17264.89
598.645	17301.75
598.841	17021.18
599.038	17015.04
599.234	17146.11
599.431	16994.56
599.627	16867.58
599.824	17162.49
600.02	16785.66
600.217	17017.08
600.413	16673.03
600.609	16664.83
600.806	16599.3
601.002	16498.95
601.198	16591.11
601.395	16607.49
601.591	16146.7
601.787	16234.76
601.984	16220.42
602.18	16505.09
602.376	16199.94
602.572	16273.67
602.769	16042.25
602.965	16044.3
603.161	16288.01
603.357	16150.79
603.553	16118.03
603.75	16097.55
603.946	15761.68
604.142	15890.7
604.338	15507.73
604.534	15816.97
604.73	15317.27
604.926	15431.96
605.122	15554.83
605.318	15391
605.514	15335.7
605.71	15304.98
605.906	15370.52
606.102	15362.33
606.298	15251.74
606.494	15309.08
606.69	15083.8
606.886	15126.81
607.082	15026.46
607.278	15253.78
607.474	14952.73
607.67	15124.76
607.866	14946.59
608.062	15108.38
608.257	14842.14
608.453	14950.68
608.649	14969.12
608.845	14821.66
609.041	15005.98
609.236	14580
609.432	14549.28
609.628	14594.34
609.824	14555.43
610.019	14485.79
610.215	14504.23
610.411	14524.71
610.606	14403.88
610.802	14285.09
610.998	14520.61
611.193	14422.31
611.389	14461.22
611.584	14330.15
611.78	14215.46
611.976	14375.2
612.171	14348.58
612.367	14219.56
612.562	14379.3
612.758	13891.88
612.953	13953.32
613.149	14270.76
613.344	13801.77
613.539	14397.73
613.735	13809.97
613.93	14022.95
614.126	13895.98
614.321	13986.09
614.517	14106.92
614.712	13697.33
614.907	13775.15
615.103	13873.45
615.298	13707.57
615.493	13957.42
615.688	13609.26
615.884	13844.78
616.079	13484.34
616.274	13687.09
616.47	13619.5
616.665	13568.3
616.86	13414.71
617.055	13158.71
617.25	13596.98
617.445	13482.29
617.641	13179.19
617.836	13576.5
618.031	13369.65
618.226	13406.52
618.421	13119.8
618.616	13279.54
618.811	13068.6
619.006	13519.15
619.201	13001.02
619.396	12904.76
619.591	13039.93
619.786	13046.07
619.981	12427.59
620.176	12808.51
620.371	12849.47
620.566	12720.45
620.761	12439.87
620.956	12714.3
621.151	12534.08
621.346	12486.98
621.541	12509.51
621.735	12505.41
621.93	12161.35
622.125	12161.35
622.32	12061
622.515	12151.11
622.709	12190.02
622.904	12142.92
623.099	11850.06
623.294	11983.18
623.488	11614.54
623.683	11862.35
623.878	11600.21
624.072	11694.41
624.267	11579.73
624.462	11587.92
624.656	11219.28
624.851	11368.79
625.046	11422.03
625.24	11192.66
625.435	11188.57
625.629	11024.73
625.824	11178.33
626.018	11071.83
626.213	10725.72
626.407	11071.83
626.602	10631.52
626.796	10916.19
626.991	10873.18
627.185	10742.11
627.38	10670.43
627.574	10604.89
627.768	10502.5
627.963	10555.74
628.157	10293.6
628.352	10373.47
628.546	10228.07
628.74	10320.23
628.935	10402.15
629.129	10123.62
629.323	10097
629.517	10013.03
629.712	10004.84
629.906	9816.43
630.1	9765.23
630.294	9945.45
630.489	9658.73
630.683	9875.82
630.877	9642.35
631.071	9619.82
631.265	9570.67
631.459	9642.35
631.653	9443.7
631.848	9400.69
632.042	9320.82
632.236	9359.73
632.43	9228.66
632.624	9429.36
632.818	9242.99
633.012	9062.77
633.206	8878.46
633.4	9021.81
633.594	8987
633.788	8972.66
633.982	8769.91
634.176	8880.5
634.369	8767.87
634.563	8677.76
634.757	8728.95
634.951	8659.32
635.145	8679.8
635.339	8556.93
635.533	8511.87
635.726	8563.07
635.92	8292.74
636.114	8518.01
636.308	8305.03
636.501	8317.31
636.695	8231.3
636.889	8348.03
637.083	8235.39
637.276	7971.21
637.47	7983.49
637.664	8030.6
637.857	8034.69
638.051	7887.24
638.244	7795.08
638.438	7825.8
638.632	7907.72
638.825	7803.27
639.019	7833.99
639.212	7643.53
639.406	7549.32
639.599	7657.87
639.793	7661.96
639.986	7504.27
640.18	7569.8
640.373	7494.03
640.567	7362.96
640.76	7375.25
640.954	7272.85
641.147	7246.23
641.34	7344.53
641.534	7299.47
641.727	7176.59
641.92	7115.16
642.114	7160.21
642.307	7104.92
642.5	7219.6
642.694	7109.01
642.887	6992.28
643.08	6855.06
643.273	6908.31
643.467	6713.75
643.66	6640.03
643.853	6797.72
644.046	6715.8
644.239	6801.82
644.432	6637.98
644.626	6699.42
644.819	6590.88
645.012	6525.34
645.205	6652.31
645.398	6535.58
645.591	6332.83
645.784	6355.36
645.977	6306.21
646.17	6334.88
646.363	6318.5
646.556	6197.67
646.749	6195.62
646.942	6306.21
647.135	6205.86
647.328	6236.58
647.521	6142.37
647.714	5980.58
647.907	6070.69
648.099	6056.36
648.292	5951.91
648.485	5958.05
648.678	5951.91
648.871	5869.99
649.064	5837.22
649.256	5843.37
649.449	5783.98
649.642	5749.16
649.835	5720.49
650.027	5708.2
650.22	5628.33
650.413	5706.15
650.605	5534.12
650.798	5581.23
650.991	5657
651.183	5474.73
651.376	5448.11
651.568	5536.17
651.761	5480.88
651.954	5542.32
652.146	5300.66
652.339	5392.81
652.531	5382.57
652.724	5364.14
652.916	5132.72
653.109	5142.96
653.301	5188.02
653.494	5114.29
653.686	5095.86
653.879	5194.16
654.071	5159.35
654.263	5132.72
654.456	5061.04
654.648	5136.82
654.84	5040.56
655.033	4905.4
655.225	5013.94
655.417	4948.4
655.61	4893.11
655.802	4843.96
655.994	4897.21
656.186	4614.59
656.379	4821.43
656.571	4860.34
656.763	4516.28
656.955	4862.39
657.148	4719.03
657.34	4723.13
657.532	4725.18
657.724	4549.05
657.916	4723.13
658.108	4520.38
658.3	4598.2
658.492	4688.31
658.684	4506.04
658.876	4440.51
659.068	4440.51
659.26	4381.12
659.452	4534.71
659.644	4370.88
659.836	4288.96
660.028	4446.65
660.22	4250.05
660.412	4315.58
660.604	4303.29
660.796	4258.24
660.988	4307.39
661.18	4116.93
661.372	4200.9
661.563	4346.3
661.755	4231.62
661.947	4145.6
662.139	4073.92
662.331	4125.12
662.522	3924.42
662.714	4016.58
662.906	4010.43
663.097	4035.01
663.289	3903.94
663.481	3951.04
663.673	3942.85
663.864	3752.39
664.056	3899.84
664.247	3903.94
664.439	3815.88
664.631	3789.25
664.822	3951.04
665.014	3858.89
665.205	3860.93
665.397	3613.13
665.588	3738.05
665.78	3617.22
665.971	3596.75
666.163	3729.86
666.354	3709.38
666.546	3533.26
666.737	3496.39
666.929	3711.43
667.12	3740.1
667.311	3570.12
667.503	3484.11
667.694	3643.85
667.885	3508.68
668.077	3645.9
668.268	3506.63
668.459	3543.5
668.651	3525.07
668.842	3557.83
669.033	3439.05
669.224	3443.15
669.416	3434.96
669.607	3424.72
669.798	3338.7
669.989	3326.41
670.18	3316.17
670.371	3340.75
670.563	3193.3
670.754	3217.87
670.945	3199.44
671.136	3365.32
671.327	3236.3
671.518	3326.41
671.709	3326.41
671.9	3189.2
672.091	3250.64
672.282	3336.65
672.473	3250.64
672.664	3062.23
672.855	3107.28
673.046	3181.01
673.237	3103.18
673.428	3209.68
673.619	3140.05
673.809	3039.7
674	3207.63
674.191	3185.1
674.382	3041.75
674.573	3105.23
674.764	3041.75
674.954	2988.5
675.145	3033.55
675.336	3023.31
675.527	2965.97
675.717	2986.45
675.908	3101.14
676.099	3068.37
676.289	2947.54
676.48	3049.94
676.671	2976.21
676.861	2986.45
677.052	2959.83
677.243	2939.35
677.433	2845.14
677.624	2965.97
677.814	2884.05
678.005	2898.39
678.195	2882
678.386	2906.58
678.576	2865.62
678.767	2793.94
678.957	2836.95
679.148	2863.57
679.338	2826.71
679.529	2873.81
679.719	2830.8
679.909	2884.05
680.1	2808.28
680.29	2853.33
680.481	2830.8
680.671	2865.62
680.861	2789.85
681.052	2812.37
681.242	2849.24
681.432	2673.11
681.622	2718.17
681.813	2779.61
682.003	2802.13
682.193	2808.28
682.383	2728.41
682.573	2804.18
682.764	2720.21
682.954	2789.85
683.144	2775.51
683.334	2699.73
683.524	2730.45
683.714	2709.97
683.904	2759.13
684.094	2677.21
684.284	2697.69
684.474	2709.97
684.664	2646.49
684.854	2705.88
685.044	2695.64
685.234	2595.29
685.424	2511.32
685.614	2648.54
685.804	2669.02
685.994	2484.7
686.184	2615.77
686.374	2576.86
686.564	2615.77
686.753	2601.43
686.943	2517.47
687.133	2486.75
687.323	2515.42
687.513	2546.14
687.702	2533.85
687.892	2425.31
688.082	2537.95
688.272	2554.33
688.461	2478.55
688.651	2451.93
688.841	2386.4
689.03	2335.2
689.22	2503.13
689.41	2263.52
689.599	2306.52
689.789	2523.61
689.979	2388.44
690.168	2306.52
690.358	2361.82
690.547	2392.54
690.737	2327
690.926	2408.92
691.116	2402.78
691.305	2378.2
691.495	2417.12
691.684	2281.95
691.874	2308.57
692.063	2224.61
692.252	2333.15
692.442	2410.97
692.631	2232.8
692.82	2269.66
693.01	2265.57
693.199	2212.32
693.388	2175.45
693.578	2066.91
693.767	2238.94
693.956	2058.72
694.146	2118.11
694.335	2243.04
694.524	2249.18
694.713	2146.78
694.902	2118.11
695.092	2187.74
695.281	2197.98
695.47	2118.11
695.659	2148.83
695.848	2077.15
696.037	2167.26
696.226	2103.78
696.415	2085.34
696.604	2073.06
696.793	2134.5
696.982	2107.87
697.171	2028
697.36	2150.88
697.549	2030.05
697.738	2036.19
697.927	2167.26
698.116	2048.48
698.305	2013.67
698.494	2062.82
698.683	1968.61
698.872	2099.68
699.061	2068.96
699.25	2025.95
699.438	1991.14
699.627	2157.02
699.816	2011.62
700.005	2081.25
700.193	2058.72
700.382	2071.01
700.571	2058.72
700.76	2114.02
700.948	2081.25
701.137	2071.01
701.326	2103.78
701.514	2017.76
701.703	1984.99
701.892	1970.66
702.08	2085.34
702.269	2003.43
702.457	2019.81
702.646	2019.81
702.834	2030.05
703.023	2019.81
703.212	1980.9
703.4	1841.64
703.589	2036.19
703.777	1995.23
703.965	2028
704.154	2122.21
704.342	1933.79
704.531	1944.03
704.719	2095.58
704.907	2066.91
705.096	2032.1
705.284	2060.77
705.472	1999.33
705.661	1999.33
705.849	2073.06
706.037	2068.96
706.226	1966.56
706.414	2038.24
706.602	2013.67
706.79	1976.8
706.979	2093.54
707.167	2077.15
707.355	1997.28
707.543	1982.95
707.731	2028
707.919	2060.77
708.107	2017.76
708.296	1999.33
708.484	1921.51
708.672	2050.53
708.86	2038.24
709.048	2099.68
709.236	2009.57
709.424	2013.67
709.612	1995.23
709.8	2042.34
709.988	1919.46
710.176	2101.73
710.364	1999.33
710.551	1929.7
710.739	1858.02
710.927	1984.99
711.115	1966.56
711.303	2034.14
711.491	1987.04
711.679	1999.33
711.866	2075.1
712.054	2005.47
712.242	1903.07
712.43	2011.62
712.617	1976.8
712.805	1968.61
712.993	2048.48
713.181	1941.99
713.368	1923.55
713.556	1960.42
713.744	1923.55
713.931	2028
714.119	2011.62
714.306	1987.04
714.494	2163.17
714.682	1915.36
714.869	1896.93
715.057	1894.88
715.244	2034.14
715.432	1919.46
715.619	1905.12
715.807	2109.92
715.994	1978.85
716.182	2126.3
716.369	1903.07
716.556	2071.01
716.744	1903.07
716.931	2060.77
717.119	2036.19
717.306	2015.71
717.493	1835.49
717.681	1888.74
717.868	1939.94
718.055	1915.36
718.242	1991.14
718.43	2011.62
718.617	1937.89
718.804	1896.93
718.991	1982.95
719.179	1927.65
719.366	1921.51
719.553	1972.71
719.74	1915.36
719.927	1970.66
720.114	1901.03
720.301	1913.31
720.488	1995.23
720.676	1952.23
720.863	1954.27
721.05	2005.47
721.237	1962.47
721.424	1960.42
721.611	1989.09
721.798	1948.13
721.985	1927.65
722.172	1933.79
722.358	2025.95
722.545	1987.04
722.732	2015.71
722.919	1909.22
723.106	1896.93
723.293	1935.84
723.48	1976.8
723.667	1995.23
723.853	1890.79
724.04	1911.27
724.227	1841.64
724.414	2007.52
724.6	1853.92
724.787	1978.85
724.974	1905.12
725.161	1878.5
725.347	1982.95
725.534	2013.67
725.72	1919.46
725.907	1812.96
726.094	2034.14
726.28	1964.51
726.467	2017.76
726.653	2007.52
726.84	1991.14
727.027	1993.19
727.213	2013.67
727.4	1987.04
727.586	1950.18
727.773	1901.03
727.959	1821.16
728.145	1862.12
728.332	1948.13
728.518	1925.6
728.705	1950.18
728.891	2032.1
729.077	1905.12
729.264	1853.92
729.45	1868.26
729.636	1853.92
729.823	2009.57
730.009	1966.56
730.195	1984.99
730.382	1952.23
730.568	1841.64
730.754	1993.19
730.94	1980.9
731.126	1964.51
731.313	1933.79
731.499	1995.23
731.685	1939.94
731.871	1860.07
732.057	1995.23
732.243	1954.27
732.429	1927.65
732.615	1905.12
732.801	1894.88
732.987	2013.67
733.173	1935.84
733.359	1876.45
733.545	1958.37
733.731	1864.16
733.917	1876.45
734.103	1987.04
734.289	1927.65
734.475	1921.51
734.661	1972.71
734.847	1913.31
735.033	1808.87
735.219	1866.21
735.404	1987.04
735.59	1954.27
735.776	1976.8
735.962	1980.9
736.148	1915.36
736.333	1939.94
736.519	1923.55
736.705	1954.27
736.89	1974.75
737.076	1798.63
737.262	1913.31
737.447	1835.49
737.633	2013.67
737.819	1851.88
738.004	1966.56
738.19	1888.74
738.375	1876.45
738.561	1894.88
738.747	1946.08
738.932	1817.06
739.118	1882.6
739.303	1915.36
739.489	1862.12
739.674	1831.4
739.859	1860.07
740.045	1880.55
740.23	1788.39
740.416	1729
740.601	1823.2
740.786	1808.87
740.972	1847.78
741.157	1913.31
741.342	1821.16
741.528	1855.97
741.713	1882.6
741.898	1747.43
742.084	1733.09
742.269	1786.34
742.454	1819.11
742.639	1903.07
742.824	1733.09
743.01	1702.37
743.195	1796.58
743.38	1698.28
743.565	1692.13
743.75	1772
743.935	1788.39
744.12	1681.89
744.305	1714.66
744.49	1628.65
744.675	1739.24
744.86	1679.85
745.045	1602.02
745.23	1655.27
745.415	1710.57
745.6	1688.04
745.785	1630.7
745.97	1628.65
746.155	1700.33
746.34	1573.35
746.525	1546.73
746.71	1636.84
746.895	1599.98
747.079	1573.35
747.264	1536.49
747.449	1505.77
747.634	1556.97
747.819	1548.78
748.003	1507.82
748.188	1538.54
748.373	1554.92
748.557	1618.41
748.742	1536.49
748.927	1559.02
749.111	1526.25
749.296	1530.34
749.481	1528.3
749.665	1540.58
749.85	1473
750.034	1470.95
750.219	1538.54
750.404	1429.99
750.588	1427.95
750.773	1501.67
750.957	1399.27
751.141	1286.64
751.326	1378.79
751.51	1393.13
751.695	1366.51
751.879	1378.79
752.064	1395.18
752.248	1274.35
752.432	1374.7
752.617	1325.55
752.801	1300.97
752.985	1374.7
753.17	1268.2
753.354	1358.32
753.538	1364.46
753.722	1305.07
753.907	1317.36
754.091	1325.55
754.275	1296.88
754.459	1276.4
754.643	1212.91
754.828	1239.53
755.012	1206.77
755.196	1153.52
755.38	1167.85
755.564	1186.29
755.748	1206.77
755.932	1266.16
756.116	1139.18
756.3	1165.81
756.484	1081.84
756.668	1120.75
756.852	1155.57
757.036	1108.46
757.22	1137.13
757.404	1100.27
757.588	1096.18
757.772	1073.65
757.956	1004.02
758.14	1153.52
758.323	995.82
758.507	1137.13
758.691	993.78
758.875	1061.36
759.059	1137.13
759.242	1098.22
759.426	1104.37
759.61	1047.02
759.794	979.44
759.977	1024.5
760.161	1032.69
760.345	963.06
760.528	1059.31
760.712	967.15
760.895	997.87
761.079	928.24
761.263	1024.5
761.446	936.43
761.63	1004.02
761.813	1010.16
761.997	1024.5
762.18	868.85
762.364	1018.35
762.547	881.14
762.731	836.08
762.914	915.95
763.098	977.39
763.281	899.57
763.464	889.33
763.648	1014.26
763.831	969.2
764.015	930.29
764.198	942.58
764.381	897.52
764.564	877.04
764.748	870.9
764.931	918
765.114	895.47
765.297	842.23
765.481	862.71
765.664	903.67
765.847	842.23
766.03	842.23
766.213	903.67
766.397	950.77
766.58	874.99
766.763	872.95
766.946	793.08
767.129	838.13
767.312	801.27
767.495	821.75
767.678	860.66
767.861	813.56
768.044	768.5
768.227	856.56
768.41	868.85
768.593	856.56
768.776	797.17
768.959	838.13
769.142	840.18
769.324	813.56
769.507	811.51
769.69	698.87
769.873	721.4
770.056	793.08
770.239	756.21
770.421	856.56
770.604	743.92
770.787	791.03
770.97	797.17
771.152	647.67
771.335	735.73
771.518	756.21
771.7	823.8
771.883	780.79
772.066	719.35
772.248	666.1
772.431	764.4
772.613	709.11
772.796	672.25
772.978	692.73
773.161	715.25
773.343	764.4
773.526	621.05
773.708	686.58
773.891	686.58
774.073	696.82
774.256	686.58
774.438	709.11
774.621	530.94
774.803	633.33
774.985	557.56
775.168	725.49
775.35	627.19
775.532	754.16
775.715	612.85
775.897	633.33
776.079	639.48
776.261	676.34
776.444	573.94
776.626	608.76
776.808	655.86
776.99	610.81
777.173	598.52
777.355	659.96
777.537	606.71
777.719	657.91
777.901	539.13
778.083	569.85
778.265	575.99
778.447	608.76
778.629	616.95
778.811	547.32
778.993	578.04
779.175	522.74
779.357	539.13
779.539	575.99
779.721	541.18
779.903	588.28
780.085	582.14
780.267	535.03
780.449	596.47
780.631	477.69
780.812	489.98
780.994	483.83
781.176	418.3
781.358	528.89
781.54	494.07
781.721	489.98
781.903	489.98
782.085	555.51
782.267	510.46
782.448	438.78
782.63	469.5
782.812	461.3
782.993	459.26
783.175	522.74
783.357	424.44
783.538	479.74
783.72	399.87
783.901	434.68
784.083	463.35
784.264	379.39
784.446	514.55
784.627	473.59
784.809	393.72
784.99	449.02
785.172	440.83
785.353	379.39
785.535	422.39
785.716	352.76
785.897	465.4
786.079	416.25
786.26	375.29
786.441	426.49
786.623	430.59
786.804	389.63
786.985	336.38
787.167	389.63
787.348	432.63
787.529	414.2
787.71	387.58
787.891	395.77
788.073	334.33
788.254	242.17
788.435	326.14
788.616	336.38
788.797	416.25
788.978	367.1
789.159	334.33
789.34	391.67
789.522	299.52
789.703	346.62
789.884	285.18
790.065	322.04
790.246	383.48
790.427	342.52
790.607	332.28
790.788	393.72
790.969	342.52
791.15	340.47
791.331	348.67
791.512	297.47
791.693	246.27
791.874	262.65
792.054	383.48
792.235	363
792.416	268.8
792.597	256.51
792.778	291.32
792.958	272.89
793.139	326.14
793.32	340.47
793.5	260.6
793.681	270.84
793.862	250.36
794.042	285.18
794.223	301.56
794.404	287.23
794.584	260.6
794.765	272.89
794.945	254.46
795.126	315.9
795.306	233.98
795.487	283.13
795.667	229.88
795.848	279.04
796.028	248.32
796.209	231.93
796.389	293.37
796.57	246.27
796.75	225.79
796.93	258.56
797.111	301.56
797.291	283.13
797.471	223.74
797.652	225.79
797.832	293.37
798.012	252.41
798.192	205.31
798.373	264.7
798.553	225.79
798.733	264.7
798.913	305.66
799.093	283.13
799.274	233.98
799.454	301.56
799.634	199.16
799.814	289.28
799.994	199.16
800.174	225.79
800.354	227.84
800.534	199.16
800.714	172.54
800.894	229.88
801.074	209.4
801.254	199.16
801.434	168.45
801.614	236.03
801.794	201.21
801.974	563.7
802.154	240.12
802.334	258.56
802.514	150.01
802.693	242.17
802.873	215.55
803.053	264.7
803.233	238.08
803.413	170.49
803.592	186.88
803.772	186.88
803.952	209.4
804.131	203.26
804.311	131.58
804.491	162.3
804.67	236.03
804.85	164.35
805.03	227.84
805.209	190.97
805.389	223.74
805.568	178.69
805.748	205.31
805.928	168.45
806.107	199.16
806.287	176.64
806.466	193.02
806.646	180.73
806.825	227.84
807.004	172.54
807.184	135.68
807.363	143.87
807.543	195.07
807.722	193.02
807.901	131.58
808.081	186.88
808.26	119.29
808.439	264.7
808.619	125.44
808.798	143.87
808.977	137.73
809.156	209.4
809.336	96.77
809.515	162.3
809.694	133.63
809.873	133.63
810.052	211.45
810.231	170.49
810.411	66.05
810.59	172.54
810.769	182.78
810.948	193.02
811.127	88.57
811.306	193.02
811.485	199.16
811.664	174.59
811.843	61.95
812.022	125.44
812.201	231.93
812.38	123.39
812.559	147.97
812.737	143.87
812.916	90.62
813.095	84.48
813.274	135.68
813.453	162.3
813.632	223.74
813.811	100.86
813.989	127.49
814.168	121.34
814.347	64
814.526	170.49
814.704	86.53
814.883	168.45
815.062	145.92
815.24	190.97
815.419	166.4
815.598	107.01
815.776	166.4
815.955	131.58
816.133	-7.68
816.312	104.96
816.49	70.14
816.669	102.91
816.847	102.91
817.026	137.73
817.204	145.92
817.383	143.87
817.561	137.73
817.74	215.55
817.918	154.11
818.097	90.62
818.275	76.29
818.453	94.72
818.632	123.39
818.81	137.73
818.988	80.38
819.167	78.33
819.345	41.47
819.523	51.71
819.701	162.3
819.879	121.34
820.058	111.1
820.236	111.1
820.414	70.14
820.592	64
820.77	94.72
820.948	45.57
821.127	115.2
821.305	207.36
821.483	98.81
821.661	164.35
821.839	121.34
822.017	137.73
822.195	154.11
822.373	139.77
822.551	119.29
822.729	96.77
822.907	70.14
823.085	49.66
823.262	119.29
823.44	129.53
823.618	137.73
823.796	96.77
823.974	29.18
824.152	104.96
824.329	80.38
824.507	113.15
824.685	55.81
824.863	59.9
825.04	47.62
825.218	90.62
825.396	6.66
825.574	82.43
825.751	117.25
825.929	119.29
826.107	35.33
826.284	98.81
826.462	49.66
826.639	98.81
826.817	104.96
826.994	98.81
827.172	59.9
827.349	72.19
827.527	31.23
827.704	49.66
827.882	64
828.059	18.94
828.237	90.62
828.414	104.96
828.591	68.09
828.769	104.96
828.946	68.09
829.124	100.86
829.301	51.71
829.478	88.57
829.655	10.75
829.833	43.52
830.01	80.38
830.187	53.76
830.364	76.29
830.542	16.9
830.719	64
830.896	76.29
831.073	107.01
831.25	92.67
831.427	64
831.604	109.05
831.782	94.72
831.959	117.25
832.136	47.62
832.313	90.62
832.49	70.14
832.667	115.2
832.844	78.33
833.021	51.71
833.198	43.52
833.374	-7.68
833.551	78.33
833.728	133.63
833.905	72.19
834.082	45.57
834.259	68.09
834.436	104.96
834.612	20.99
834.789	107.01
834.966	55.81
835.143	109.05
835.319	2.56
835.496	121.34
835.673	78.33
835.85	82.43
836.026	59.9
836.203	45.57
836.38	98.81
836.556	6.66
836.733	90.62
836.909	57.86
837.086	55.81
837.262	66.05
837.439	16.9
837.616	121.34
837.792	-9.73
837.968	82.43
838.145	107.01
838.321	-22.02
838.498	47.62
838.674	76.29
838.851	20.99
839.027	39.42
839.203	37.38
839.38	18.94
839.556	-42.5
839.732	45.57
839.909	59.9
840.085	119.29
840.261	16.9
840.437	6.66
840.614	8.7
840.79	123.39
840.966	68.09
841.142	47.62
841.318	6.66
841.494	86.53
841.671	27.14
841.847	-44.54
842.023	41.47
842.199	39.42
842.375	100.86
842.551	51.71
842.727	25.09
842.903	125.44
843.079	66.05
843.255	104.96
843.431	66.05
843.607	35.33
843.783	47.62
843.959	45.57
844.134	10.75
844.31	86.53
844.486	-28.16
844.662	20.99
844.838	33.28
845.013	-5.63
845.189	43.52
845.365	25.09
845.541	-7.68
845.716	66.05
845.892	109.05
846.068	74.24
846.244	-62.98
846.419	35.33
846.595	80.38
846.77	10.75
846.946	96.77
847.122	25.09
847.297	31.23
847.473	82.43
847.648	35.33
847.824	78.33
847.999	45.57
848.175	8.7
848.35	102.91
848.526	88.57
848.701	98.81
848.876	88.57
849.052	70.14
849.227	31.23
849.403	45.57
849.578	10.75
849.753	20.99
849.929	66.05
850.104	39.42
850.279	39.42
850.454	113.15
850.63	57.86
850.805	45.57
850.98	-15.87
851.155	31.23
851.33	-40.45
851.505	68.09
851.681	68.09
851.856	20.99
852.031	68.09
852.206	35.33
852.381	49.66
852.556	80.38
852.731	51.71
852.906	33.28
853.081	-7.68
853.256	-7.68
853.431	-38.4
853.606	-19.97
853.781	-11.78
853.956	6.66
854.131	53.76
854.305	33.28
854.48	109.05
854.655	25.09
854.83	53.76
855.005	55.81
855.18	-5.63
855.354	-48.64
855.529	74.24
855.704	45.57
855.879	-36.35
856.053	45.57
856.228	16.9
856.403	-32.26
856.577	55.81
856.752	-24.06
856.926	88.57
857.101	51.71
857.276	18.94
857.45	53.76
857.625	8.7
857.799	37.38
857.974	27.14
858.148	53.76
858.323	20.99
858.497	-13.82
858.672	-62.98
858.846	-17.92
859.02	51.71
859.195	49.66
859.369	-5.63
859.543	-1.54
859.718	76.29
859.892	8.7
860.066	98.81
860.241	18.94
860.415	-62.98
860.589	43.52
860.763	6.66
860.938	0.51
861.112	102.91
861.286	55.81
861.46	-11.78
861.634	-56.83
861.808	70.14
861.982	12.8
862.157	6.66
862.331	16.9
862.505	-3.58
862.679	41.47
862.853	23.04
863.027	-26.11
863.201	111.1
863.375	25.09
863.549	61.95
863.722	25.09
863.896	29.18
864.07	-54.78
864.244	18.94
864.418	59.9
864.592	51.71
864.766	-22.02
864.939	-9.73
865.113	-71.17
865.287	61.95
865.461	12.8
865.634	2.56
865.808	39.42
865.982	27.14
866.156	14.85
866.329	8.7
866.503	8.7
866.676	-7.68
866.85	59.9
867.024	-19.97
867.197	-3.58
867.371	47.62
867.544	10.75
867.718	35.33
867.891	-1.54
868.065	-1.54
868.238	-34.3
868.412	25.09
868.585	18.94
868.759	41.47
868.932	-44.54
869.105	51.71
869.279	20.99
869.452	117.25
869.625	8.7
869.799	-3.58
869.972	90.62
870.145	68.09
870.319	47.62
870.492	-5.63
870.665	-48.64
870.838	76.29
871.011	-13.82
871.185	33.28
871.358	2.56
871.531	8.7
871.704	20.99
871.877	94.72
872.05	8.7
872.223	47.62
872.396	29.18
872.569	12.8
872.742	76.29
872.915	-17.92
873.088	-11.78
873.261	12.8
873.434	23.04
873.607	70.14
873.78	57.86
873.953	-36.35
874.126	45.57
874.299	43.52
874.471	74.24
874.644	-46.59
874.817	78.33
874.99	39.42
875.163	-13.82
875.335	-44.54
875.508	76.29
875.681	39.42
875.853	-9.73
876.026	-3.58
876.199	-34.3
876.371	-13.82
876.544	55.81
876.717	14.85
876.889	-1.54
877.062	10.75
877.234	-38.4
877.407	72.19
877.579	-50.69
877.752	-1.54
877.924	-15.87
878.097	0.51
878.269	-1.54
878.442	2.56
878.614	27.14
878.786	-3.58
878.959	51.71
879.131	-11.78
879.303	33.28
879.476	33.28
879.648	-13.82
879.82	59.9
879.993	18.94
880.165	51.71
880.337	59.9
880.509	27.14
880.681	37.38
880.854	0.51
881.026	0.51
881.198	68.09
881.37	47.62
881.542	119.29
881.714	-62.98
881.886	-46.59
882.058	53.76
882.23	12.8
882.402	14.85
882.574	51.71
882.746	35.33
882.918	-9.73
883.09	90.62
883.262	-5.63
883.434	14.85
883.606	37.38
883.778	-3.58
883.95	0.51
884.122	6.66
884.293	2.56
884.465	29.18
884.637	2.56
884.809	-32.26
884.98	18.94
885.152	10.75
885.324	-19.97
885.496	-58.88
885.667	53.76
885.839	8.7
886.011	8.7
886.182	68.09
886.354	80.38
886.525	-9.73
886.697	0.51
886.869	25.09
887.04	27.14
887.212	49.66
887.383	64
887.555	18.94
887.726	47.62
887.897	31.23
888.069	72.19
888.24	18.94
888.412	-44.54
888.583	-60.93
888.754	-11.78
888.926	23.04
889.097	86.53
889.268	-22.02
889.44	-28.16
889.611	-56.83
889.782	-60.93
889.953	-3.58
890.125	14.85
890.296	-32.26
890.467	-42.5
890.638	2.56
890.809	-28.16
890.98	10.75
891.151	53.76
891.323	47.62
891.494	20.99
891.665	-5.63
891.836	-32.26
892.007	20.99
892.178	-9.73
892.349	-26.11
892.52	-54.78
892.691	10.75
892.862	-34.3
893.032	25.09
893.203	27.14
893.374	-42.5
893.545	16.9
893.716	-13.82
893.887	35.33
894.057	-62.98
894.228	43.52
894.399	-26.11
894.57	-17.92
894.74	66.05
894.911	49.66
895.082	-46.59
895.253	6.66
895.423	-46.59
895.594	18.94
895.764	-34.3
895.935	-46.59
896.106	39.42
896.276	10.75
896.447	6.66
896.617	6.66
896.788	-50.69
896.958	25.09
897.129	4.61
897.299	14.85
897.47	33.28
897.64	18.94
897.81	41.47
897.981	0.51
898.151	-58.88
898.322	27.14
898.492	16.9
898.662	-89.6
898.832	-19.97
899.003	41.47
899.173	-26.11
899.343	33.28
899.513	-1.54
