Data from USB4F104151__262__11-11-58-022.txt Node

Date: Wed Mar 12 11:11:58 EDT 2025
User: louis
Spectrometer: USB4F10415
Trigger mode: 4
Integration Time (sec): 2.000000E-2
Scans to average: 1
Electric dark correction enabled: true
Nonlinearity correction enabled: false
Boxcar width: 0
XAxis mode: Wavelengths
Number of Pixels in Spectrum: 3648
>>>>>Begin Spectral Data<<<<<
178.204	-88.57
178.424	-88.57
178.644	-88.57
178.864	-113.15
179.084	-156.16
179.304	-55.81
179.524	22.02
179.744	-41.47
179.964	17.92
180.184	40.45
180.404	-16.9
180.624	-27.14
180.844	15.87
181.064	-29.18
181.283	36.35
181.503	54.78
181.723	-16.9
181.943	17.92
182.163	60.93
182.383	1.54
182.602	-0.51
182.822	-29.18
183.042	3.58
183.262	-16.9
183.482	-14.85
183.701	-74.24
183.921	-29.18
184.141	-16.9
184.361	11.78
184.58	-18.94
184.8	-6.66
185.02	-29.18
185.239	3.58
185.459	-84.48
185.679	56.83
185.898	13.82
186.118	54.78
186.338	-14.85
186.557	62.98
186.777	22.02
186.997	-0.51
187.216	-10.75
187.436	75.26
187.655	7.68
187.875	19.97
188.095	-4.61
188.314	52.74
188.534	19.97
188.753	-27.14
188.973	-4.61
189.192	-4.61
189.412	3.58
189.631	-16.9
189.851	17.92
190.07	3.58
190.29	-33.28
190.509	-20.99
190.729	-23.04
190.948	1.54
191.168	24.06
191.387	71.17
191.607	-20.99
191.826	13.82
192.045	-39.42
192.265	-10.75
192.484	-55.81
192.704	9.73
192.923	-25.09
193.142	24.06
193.362	32.26
193.581	-18.94
193.8	-6.66
194.02	-29.18
194.239	-31.23
194.458	58.88
194.678	24.06
194.897	34.3
195.116	-18.94
195.335	69.12
195.555	22.02
195.774	85.5
195.993	-0.51
196.212	5.63
196.432	13.82
196.651	-18.94
196.87	9.73
197.089	73.21
197.308	5.63
197.528	30.21
197.747	13.82
197.966	-27.14
198.185	-29.18
198.404	1.54
198.623	48.64
198.842	-33.28
199.062	30.21
199.281	38.4
199.5	24.06
199.719	15.87
199.938	69.12
200.157	-33.28
200.376	-18.94
200.595	22.02
200.814	-31.23
201.033	-64
201.252	71.17
201.471	-43.52
201.69	44.54
201.909	26.11
202.128	28.16
202.347	38.4
202.566	28.16
202.785	11.78
203.004	-59.9
203.223	44.54
203.442	-10.75
203.661	22.02
203.879	-25.09
204.098	-16.9
204.317	36.35
204.536	79.36
204.755	-25.09
204.974	110.08
205.193	-10.75
205.411	19.97
205.63	-8.7
205.849	-0.51
206.068	3.58
206.287	-78.33
206.505	3.58
206.724	28.16
206.943	13.82
207.162	-31.23
207.381	17.92
207.599	105.98
207.818	46.59
208.037	11.78
208.255	54.78
208.474	-2.56
208.693	75.26
208.911	-6.66
209.13	-59.9
209.349	-12.8
209.567	-4.61
209.786	60.93
210.005	28.16
210.223	67.07
210.442	-39.42
210.661	13.82
210.879	-16.9
211.098	-55.81
211.316	-6.66
211.535	15.87
211.753	-55.81
211.972	-8.7
212.191	77.31
212.409	52.74
212.628	58.88
212.846	-86.53
213.065	-2.56
213.283	91.65
213.502	17.92
213.72	-10.75
213.938	-94.72
214.157	9.73
214.375	46.59
214.594	50.69
214.812	108.03
215.031	-12.8
215.249	-35.33
215.467	-4.61
215.686	9.73
215.904	17.92
216.122	1.54
216.341	89.6
216.559	-27.14
216.778	30.21
216.996	-18.94
217.214	46.59
217.432	62.98
217.651	-6.66
217.869	-29.18
218.087	42.5
218.306	-6.66
218.524	-12.8
218.742	-37.38
218.96	-16.9
219.179	19.97
219.397	15.87
219.615	19.97
219.833	42.5
220.051	5.63
220.27	3.58
220.488	24.06
220.706	28.16
220.924	-43.52
221.142	-27.14
221.36	97.79
221.578	5.63
221.796	-61.95
222.015	34.3
222.233	65.02
222.451	50.69
222.669	-27.14
222.887	50.69
223.105	-31.23
223.323	38.4
223.541	62.98
223.759	22.02
223.977	-6.66
224.195	75.26
224.413	-20.99
224.631	-55.81
224.849	24.06
225.067	46.59
225.285	5.63
225.503	48.64
225.721	3.58
225.939	-2.56
226.157	9.73
226.375	67.07
226.592	-45.57
226.81	3.58
227.028	15.87
227.246	65.02
227.464	-80.38
227.682	91.65
227.9	1.54
228.117	19.97
228.335	-37.38
228.553	17.92
228.771	34.3
228.989	46.59
229.206	-6.66
229.424	-27.14
229.642	38.4
229.86	13.82
230.077	36.35
230.295	28.16
230.513	9.73
230.731	13.82
230.948	-14.85
231.166	19.97
231.384	-14.85
231.601	22.02
231.819	19.97
232.037	-47.62
232.254	1.54
232.472	-4.61
232.689	-0.51
232.907	-25.09
233.125	13.82
233.342	38.4
233.56	5.63
233.777	-16.9
233.995	-29.18
234.213	93.69
234.43	-0.51
234.648	17.92
234.865	13.82
235.083	11.78
235.3	-37.38
235.518	-14.85
235.735	-0.51
235.953	-16.9
236.17	1.54
236.388	15.87
236.605	54.78
236.822	3.58
237.04	48.64
237.257	34.3
237.475	3.58
237.692	-20.99
237.909	50.69
238.127	15.87
238.344	1.54
238.562	69.12
238.779	-29.18
238.996	38.4
239.214	-27.14
239.431	-16.9
239.648	22.02
239.865	7.68
240.083	-20.99
240.3	54.78
240.517	-55.81
240.735	11.78
240.952	71.17
241.169	26.11
241.386	32.26
241.603	-23.04
241.821	-29.18
242.038	52.74
242.255	67.07
242.472	58.88
242.689	11.78
242.907	-37.38
243.124	99.84
243.341	-66.05
243.558	65.02
243.775	-14.85
243.992	-27.14
244.209	9.73
244.426	32.26
244.643	17.92
244.86	1.54
245.078	32.26
245.295	-16.9
245.512	62.98
245.729	26.11
245.946	-70.14
246.163	-68.09
246.38	62.98
246.597	-59.9
246.814	30.21
247.031	-4.61
247.248	15.87
247.464	54.78
247.681	5.63
247.898	5.63
248.115	3.58
248.332	5.63
248.549	17.92
248.766	-20.99
248.983	52.74
249.2	38.4
249.417	-0.51
249.633	-39.42
249.85	5.63
250.067	-0.51
250.284	85.5
250.501	56.83
250.717	-25.09
250.934	-33.28
251.151	9.73
251.368	58.88
251.585	110.08
251.801	-20.99
252.018	40.45
252.235	13.82
252.451	-4.61
252.668	3.58
252.885	67.07
253.102	1.54
253.318	26.11
253.535	-25.09
253.752	30.21
253.968	-27.14
254.185	-0.51
254.401	-18.94
254.618	91.65
254.835	77.31
255.051	42.5
255.268	1.54
255.484	42.5
255.701	62.98
255.917	52.74
256.134	46.59
256.351	36.35
256.567	-12.8
256.784	7.68
257	9.73
257.217	32.26
257.433	52.74
257.65	-4.61
257.866	62.98
258.082	-61.95
258.299	91.65
258.515	-33.28
258.732	1.54
258.948	-25.09
259.165	58.88
259.381	-6.66
259.597	-16.9
259.814	44.54
260.03	50.69
260.246	83.45
260.463	15.87
260.679	42.5
260.895	26.11
261.112	36.35
261.328	15.87
261.544	-29.18
261.761	67.07
261.977	-23.04
262.193	11.78
262.409	19.97
262.626	13.82
262.842	11.78
263.058	-10.75
263.274	11.78
263.49	-16.9
263.707	69.12
263.923	-23.04
264.139	32.26
264.355	-25.09
264.571	40.45
264.787	-10.75
265.004	79.36
265.22	-33.28
265.436	-0.51
265.652	-12.8
265.868	24.06
266.084	24.06
266.3	-57.86
266.516	-10.75
266.732	77.31
266.948	-4.61
267.164	34.3
267.38	71.17
267.596	42.5
267.812	3.58
268.028	-16.9
268.244	-27.14
268.46	58.88
268.676	13.82
268.892	-8.7
269.108	-6.66
269.324	-12.8
269.54	7.68
269.756	22.02
269.972	-18.94
270.188	9.73
270.403	32.26
270.619	36.35
270.835	58.88
271.051	-59.9
271.267	38.4
271.483	-0.51
271.698	50.69
271.914	-10.75
272.13	26.11
272.346	67.07
272.562	19.97
272.777	19.97
272.993	11.78
273.209	15.87
273.425	9.73
273.64	-45.57
273.856	50.69
274.072	1.54
274.287	-27.14
274.503	95.74
274.719	97.79
274.934	40.45
275.15	-10.75
275.366	7.68
275.581	11.78
275.797	69.12
276.012	26.11
276.228	17.92
276.444	-0.51
276.659	65.02
276.875	34.3
277.09	-51.71
277.306	26.11
277.521	11.78
277.737	7.68
277.952	-39.42
278.168	62.98
278.383	-20.99
278.599	32.26
278.814	54.78
279.03	-12.8
279.245	15.87
279.461	-0.51
279.676	40.45
279.892	17.92
280.107	17.92
280.322	-6.66
280.538	40.45
280.753	-4.61
280.969	101.89
281.184	71.17
281.399	-8.7
281.615	-20.99
281.83	32.26
282.045	-23.04
282.26	-20.99
282.476	1.54
282.691	11.78
282.906	-16.9
283.122	9.73
283.337	-49.66
283.552	40.45
283.767	-18.94
283.983	81.41
284.198	56.83
284.413	42.5
284.628	54.78
284.843	-2.56
285.058	83.45
285.274	13.82
285.489	24.06
285.704	7.68
285.919	1.54
286.134	34.3
286.349	13.82
286.564	22.02
286.779	65.02
286.995	42.5
287.21	-23.04
287.425	9.73
287.64	26.11
287.855	-16.9
288.07	-16.9
288.285	120.32
288.5	58.88
288.715	-6.66
288.93	26.11
289.145	3.58
289.36	60.93
289.575	46.59
289.79	65.02
290.004	-90.62
290.219	71.17
290.434	-47.62
290.649	-8.7
290.864	42.5
291.079	1.54
291.294	77.31
291.509	1.54
291.724	15.87
291.938	-16.9
292.153	93.69
292.368	-45.57
292.583	19.97
292.798	-51.71
293.012	-35.33
293.227	83.45
293.442	36.35
293.657	19.97
293.871	13.82
294.086	-51.71
294.301	-18.94
294.516	26.11
294.73	38.4
294.945	-33.28
295.16	5.63
295.374	22.02
295.589	48.64
295.804	-47.62
296.018	-29.18
296.233	1.54
296.447	-6.66
296.662	17.92
296.877	34.3
297.091	-98.81
297.306	-4.61
297.52	-14.85
297.735	40.45
297.949	-14.85
298.164	93.69
298.378	28.16
298.593	-47.62
298.807	-0.51
299.022	54.78
299.236	11.78
299.451	-6.66
299.665	9.73
299.88	-2.56
300.094	62.98
300.309	-16.9
300.523	5.63
300.737	-20.99
300.952	17.92
301.166	-45.57
301.381	-47.62
301.595	-47.62
301.809	-49.66
302.024	9.73
302.238	-2.56
302.452	28.16
302.667	-14.85
302.881	73.21
303.095	34.3
303.309	-25.09
303.524	-25.09
303.738	17.92
303.952	-18.94
304.166	-12.8
304.381	-8.7
304.595	46.59
304.809	30.21
305.023	-37.38
305.237	46.59
305.452	-10.75
305.666	-6.66
305.88	97.79
306.094	-14.85
306.308	71.17
306.522	58.88
306.736	81.41
306.95	7.68
307.164	32.26
307.379	13.82
307.593	69.12
307.807	-35.33
308.021	-4.61
308.235	-8.7
308.449	-78.33
308.663	11.78
308.877	15.87
309.091	9.73
309.305	50.69
309.519	-8.7
309.733	22.02
309.947	-14.85
310.161	-16.9
310.374	-41.47
310.588	-66.05
310.802	-6.66
311.016	-25.09
311.23	52.74
311.444	1.54
311.658	-31.23
311.872	81.41
312.085	-90.62
312.299	26.11
312.513	120.32
312.727	99.84
312.941	52.74
313.154	-14.85
313.368	17.92
313.582	46.59
313.796	-0.51
314.009	87.55
314.223	24.06
314.437	7.68
314.651	-23.04
314.864	26.11
315.078	36.35
315.292	-10.75
315.505	-14.85
315.719	52.74
315.933	-31.23
316.146	24.06
316.36	36.35
316.573	5.63
316.787	-35.33
317.001	54.78
317.214	19.97
317.428	60.93
317.641	71.17
317.855	11.78
318.068	3.58
318.282	-18.94
318.495	40.45
318.709	52.74
318.922	-29.18
319.136	60.93
319.349	65.02
319.563	38.4
319.776	-0.51
319.99	24.06
320.203	-64
320.417	95.74
320.63	46.59
320.843	34.3
321.057	-47.62
321.27	60.93
321.483	3.58
321.697	85.5
321.91	-0.51
322.124	34.3
322.337	17.92
322.55	44.54
322.763	-6.66
322.977	54.78
323.19	-47.62
323.403	-16.9
323.617	3.58
323.83	58.88
324.043	-10.75
324.256	28.16
324.469	22.02
324.683	22.02
324.896	-43.52
325.109	26.11
325.322	-20.99
325.535	-20.99
325.748	-12.8
325.962	-57.86
326.175	28.16
326.388	34.3
326.601	44.54
326.814	-4.61
327.027	-29.18
327.24	5.63
327.453	-33.28
327.666	56.83
327.879	22.02
328.092	24.06
328.305	-0.51
328.518	75.26
328.731	-39.42
328.944	50.69
329.157	83.45
329.37	-27.14
329.583	67.07
329.796	42.5
330.009	34.3
330.222	-6.66
330.435	40.45
330.648	36.35
330.861	1.54
331.073	60.93
331.286	-4.61
331.499	54.78
331.712	22.02
331.925	15.87
332.138	3.58
332.35	108.03
332.563	-27.14
332.776	38.4
332.989	50.69
333.202	30.21
333.414	17.92
333.627	69.12
333.84	-20.99
334.053	38.4
334.265	5.63
334.478	-6.66
334.691	22.02
334.903	48.64
335.116	-33.28
335.329	-66.05
335.541	-0.51
335.754	71.17
335.966	1.54
336.179	42.5
336.392	5.63
336.604	22.02
336.817	1.54
337.029	34.3
337.242	42.5
337.454	7.68
337.667	79.36
337.88	13.82
338.092	-2.56
338.305	-12.8
338.517	9.73
338.729	-14.85
338.942	-4.61
339.154	-31.23
339.367	-27.14
339.579	-27.14
339.792	-4.61
340.004	11.78
340.217	32.26
340.429	-27.14
340.641	-98.81
340.854	34.3
341.066	42.5
341.278	-41.47
341.491	60.93
341.703	38.4
341.915	22.02
342.128	85.5
342.34	-41.47
342.552	5.63
342.764	11.78
342.977	30.21
343.189	87.55
343.401	56.83
343.613	-2.56
343.826	7.68
344.038	-16.9
344.25	19.97
344.462	-33.28
344.674	34.3
344.886	22.02
345.099	50.69
345.311	54.78
345.523	60.93
345.735	-51.71
345.947	28.16
346.159	-35.33
346.371	-94.72
346.583	-16.9
346.795	-20.99
347.007	-6.66
347.219	3.58
347.431	-16.9
347.643	93.69
347.855	-55.81
348.067	-23.04
348.279	1.54
348.491	83.45
348.703	26.11
348.915	-33.28
349.127	-35.33
349.339	22.02
349.551	24.06
349.763	28.16
349.975	67.07
350.187	81.41
350.399	-14.85
350.61	22.02
350.822	-2.56
351.034	-10.75
351.246	11.78
351.458	48.64
351.669	-64
351.881	13.82
352.093	17.92
352.305	-18.94
352.517	15.87
352.728	-12.8
352.94	36.35
353.152	44.54
353.363	9.73
353.575	11.78
353.787	24.06
353.999	46.59
354.21	1.54
354.422	62.98
354.633	-51.71
354.845	30.21
355.057	11.78
355.268	-39.42
355.48	19.97
355.692	-16.9
355.903	28.16
356.115	7.68
356.326	-88.57
356.538	67.07
356.749	26.11
356.961	5.63
357.172	46.59
357.384	-4.61
357.595	75.26
357.807	-74.24
358.018	-8.7
358.23	48.64
358.441	91.65
358.653	38.4
358.864	-2.56
359.075	-0.51
359.287	75.26
359.498	34.3
359.709	17.92
359.921	-10.75
360.132	73.21
360.344	-29.18
360.555	5.63
360.766	48.64
360.977	32.26
361.189	-18.94
361.4	-43.52
361.611	26.11
361.823	105.98
362.034	9.73
362.245	65.02
362.456	24.06
362.667	52.74
362.879	30.21
363.09	24.06
363.301	42.5
363.512	-18.94
363.723	24.06
363.935	24.06
364.146	17.92
364.357	19.97
364.568	22.02
364.779	-27.14
364.99	34.3
365.201	-6.66
365.412	87.55
365.623	34.3
365.834	34.3
366.045	15.87
366.256	46.59
366.467	1.54
366.678	56.83
366.889	42.5
367.1	-0.51
367.311	42.5
367.522	17.92
367.733	-51.71
367.944	69.12
368.155	-23.04
368.366	75.26
368.577	22.02
368.788	30.21
368.999	-51.71
369.209	13.82
369.42	75.26
369.631	40.45
369.842	11.78
370.053	22.02
370.264	38.4
370.474	-2.56
370.685	3.58
370.896	-2.56
371.107	32.26
371.317	15.87
371.528	22.02
371.739	58.88
371.95	-10.75
372.16	-8.7
372.371	-18.94
372.582	-18.94
372.792	50.69
373.003	58.88
373.214	7.68
373.424	58.88
373.635	50.69
373.846	22.02
374.056	11.78
374.267	19.97
374.477	26.11
374.688	-6.66
374.898	65.02
375.109	128.51
375.319	38.4
375.53	-4.61
375.74	-6.66
375.951	-25.09
376.161	-23.04
376.372	30.21
376.582	26.11
376.793	-47.62
377.003	-6.66
377.214	34.3
377.424	38.4
377.635	17.92
377.845	44.54
378.055	67.07
378.266	9.73
378.476	17.92
378.686	28.16
378.897	44.54
379.107	-2.56
379.317	58.88
379.528	1.54
379.738	79.36
379.948	-20.99
380.158	48.64
380.369	34.3
380.579	58.88
380.789	-33.28
380.999	-12.8
381.21	-8.7
381.42	42.5
381.63	11.78
381.84	13.82
382.05	7.68
382.261	48.64
382.471	99.84
382.681	1.54
382.891	-0.51
383.101	50.69
383.311	-12.8
383.521	-8.7
383.731	-0.51
383.941	9.73
384.151	99.84
384.361	30.21
384.571	-20.99
384.781	7.68
384.991	19.97
385.201	42.5
385.411	22.02
385.621	71.17
385.831	7.68
386.041	-8.7
386.251	24.06
386.461	13.82
386.671	13.82
386.881	7.68
387.091	52.74
387.301	40.45
387.511	22.02
387.72	48.64
387.93	42.5
388.14	28.16
388.35	38.4
388.56	93.69
388.769	1.54
388.979	-14.85
389.189	-68.09
389.399	52.74
389.609	89.6
389.818	110.08
390.028	118.27
390.238	54.78
390.447	24.06
390.657	36.35
390.867	7.68
391.076	44.54
391.286	-10.75
391.496	132.61
391.705	-4.61
391.915	-16.9
392.125	30.21
392.334	-55.81
392.544	81.41
392.753	13.82
392.963	-33.28
393.172	30.21
393.382	36.35
393.591	-23.04
393.801	3.58
394.01	52.74
394.22	67.07
394.429	1.54
394.639	58.88
394.848	32.26
395.058	36.35
395.267	32.26
395.477	52.74
395.686	54.78
395.895	75.26
396.105	110.08
396.314	73.21
396.524	50.69
396.733	46.59
396.942	71.17
397.152	-6.66
397.361	-29.18
397.57	114.17
397.78	79.36
397.989	22.02
398.198	71.17
398.407	34.3
398.617	58.88
398.826	89.6
399.035	34.3
399.244	81.41
399.453	110.08
399.663	120.32
399.872	24.06
400.081	3.58
400.29	26.11
400.499	56.83
400.708	65.02
400.917	40.45
401.127	108.03
401.336	50.69
401.545	97.79
401.754	32.26
401.963	97.79
402.172	-0.51
402.381	22.02
402.59	24.06
402.799	54.78
403.008	19.97
403.217	48.64
403.426	71.17
403.635	17.92
403.844	50.69
404.053	38.4
404.262	69.12
404.471	99.84
404.68	60.93
404.888	128.51
405.097	50.69
405.306	75.26
405.515	108.03
405.724	65.02
405.933	163.33
406.142	75.26
406.35	114.17
406.559	83.45
406.768	85.5
406.977	75.26
407.185	83.45
407.394	48.64
407.603	105.98
407.812	79.36
408.02	134.65
408.229	105.98
408.438	71.17
408.646	87.55
408.855	73.21
409.064	167.42
409.272	122.37
409.481	151.04
409.69	155.13
409.898	112.13
410.107	91.65
410.315	124.41
410.524	167.42
410.733	224.76
410.941	278.01
411.15	171.52
411.358	200.19
411.567	232.96
411.775	212.48
411.984	208.38
412.192	237.05
412.401	179.71
412.609	249.34
412.818	304.64
413.026	228.86
413.234	271.87
413.443	255.48
413.651	312.83
413.86	241.15
414.068	323.07
414.276	253.44
414.485	329.21
414.693	345.59
414.901	376.31
415.11	306.68
415.318	349.69
415.526	329.21
415.734	390.65
415.943	447.99
416.151	374.27
416.359	534.01
416.567	384.51
416.776	534.01
416.984	505.34
417.192	503.29
417.4	519.67
417.608	527.86
417.817	491
418.025	577.02
418.233	587.26
418.441	572.92
418.649	634.36
418.857	747
419.065	689.65
419.273	665.08
419.481	718.33
419.689	787.96
419.897	783.86
420.105	757.24
420.313	839.16
420.521	890.35
420.729	884.21
420.937	851.44
421.145	916.98
421.353	943.6
421.561	1011.18
421.769	988.66
421.977	1027.57
422.185	1056.24
422.393	1183.21
422.601	1189.36
422.809	1222.13
423.017	1179.12
423.224	1234.41
423.432	1283.56
423.64	1347.05
423.848	1441.26
424.056	1377.77
424.263	1562.09
424.471	1402.35
424.679	1570.28
424.887	1601
425.094	1754.6
425.302	1648.1
425.51	1740.26
425.718	1832.42
425.925	1863.14
426.133	1900
426.341	2020.83
426.548	2098.66
426.756	2172.38
426.964	2074.08
427.171	2213.34
427.379	2336.22
427.586	2350.56
427.794	2385.37
428.001	2557.4
428.209	2606.55
428.417	2618.84
428.624	2704.85
428.832	2711
429.039	2704.85
429.247	2688.47
429.454	2936.28
429.662	3222.99
429.869	2915.8
430.076	3284.43
430.284	3102.16
430.491	3110.35
430.699	3419.6
430.906	3372.49
431.114	3431.88
431.321	3560.91
431.528	3691.98
431.736	3712.46
431.943	4019.65
432.15	3970.5
432.358	3876.29
432.565	4314.56
432.772	4146.62
432.979	4308.41
433.187	4386.24
433.394	4453.82
433.601	4713.91
433.808	4840.89
434.016	4660.66
434.223	4969.91
434.43	5270.96
434.637	5084.59
434.844	5479.85
435.052	5602.73
435.259	5373.36
435.466	5612.97
435.673	5629.35
435.88	5807.53
436.087	6215.07
436.294	6215.07
436.501	6069.67
436.708	6196.64
436.915	6383.01
437.122	6694.3
437.329	6624.67
437.537	6808.98
437.743	7064.98
437.95	6856.09
438.157	7347.6
438.364	7378.32
438.571	7523.73
438.778	7474.57
438.985	8443.26
439.192	7902.6
439.399	8144.26
439.606	8140.16
439.813	8512.89
440.02	8779.13
440.227	8738.17
440.433	8732.03
440.64	9022.84
440.847	8908.15
441.054	9295.22
441.261	9663.85
441.467	9739.63
441.674	9772.39
441.881	10134.89
442.088	9749.87
442.294	10001.77
442.501	10304.87
442.708	10435.94
442.914	10978.65
443.121	11486.54
443.328	11283.8
443.534	11781.45
443.741	11445.59
443.948	11421.01
444.154	12066.12
444.361	12102.98
444.568	12246.34
444.774	12285.25
444.981	12326.21
445.187	12551.49
445.394	12983.61
445.6	12756.29
445.807	14124.33
446.013	13708.59
446.22	14073.13
446.426	14300.45
446.633	14714.14
446.839	14927.13
447.046	14552.35
447.252	15252.76
447.459	15197.46
447.665	15136.03
447.871	15578.39
448.078	16424.2
448.284	15891.73
448.491	16071.95
448.697	16907.52
448.903	17095.93
449.11	17227
449.316	16688.39
449.522	17112.31
449.728	17587.44
449.935	17753.33
450.141	17569.01
450.347	18214.12
450.553	17425.65
450.76	17505.52
450.966	17984.75
451.172	18066.67
451.378	18447.59
451.584	18316.52
451.791	18672.87
451.997	18650.34
452.203	18719.97
452.409	18851.04
452.615	18896.1
452.821	18011.37
453.027	17765.62
453.233	18947.29
453.44	18007.28
453.646	18482.41
453.852	18484.45
454.058	18482.41
454.264	18113.77
454.47	18595.04
454.676	17831.15
454.882	18693.35
455.088	16708.87
455.294	17143.03
455.5	17423.61
455.705	17794.29
455.911	16997.63
456.117	16669.95
456.323	16241.93
456.529	15742.22
456.735	15959.31
456.941	15774.99
457.147	15703.31
457.352	14927.13
457.558	14865.69
457.764	15129.88
457.97	14546.21
458.176	14538.02
458.381	14398.76
458.587	13591.86
458.793	13546.8
458.999	12766.53
459.204	13874.48
459.41	13397.3
459.616	12502.34
459.821	12664.13
460.027	12522.82
460.233	12246.34
460.438	11599.18
460.644	11875.66
460.85	11242.84
461.055	11009.37
461.261	10964.31
461.466	10100.07
461.672	9987.43
461.878	10626.4
462.083	9934.18
462.289	9690.48
462.494	9688.43
462.7	9463.15
462.905	9135.48
463.111	9364.85
463.316	9205.11
463.522	9139.57
463.727	9235.83
463.932	9164.15
464.138	8934.78
464.343	9133.43
464.549	8721.79
464.754	8854.9
464.959	8942.97
465.165	8992.12
465.37	8596.86
465.575	8367.49
465.781	8715.64
465.986	8893.82
466.191	8398.21
466.397	8273.28
466.602	7875.98
466.807	7980.42
467.012	8115.59
467.218	8015.24
467.423	8103.3
467.628	7966.09
467.833	8392.06
468.038	8058.25
468.244	7865.74
468.449	8181.12
468.654	7959.94
468.859	7865.74
469.064	7730.57
469.269	7519.63
469.474	7439.76
469.679	7703.95
469.885	7386.51
470.09	7513.49
470.295	7501.2
470.5	7259.54
470.705	7347.6
470.91	7247.25
471.115	6909.33
471.32	7148.95
471.525	7214.48
471.73	6917.53
471.935	7097.75
472.139	6765.98
472.344	6802.84
472.549	6639
472.754	6788.5
472.959	6536.6
473.164	6374.81
473.369	6374.81
473.574	6661.53
473.778	6438.3
473.983	6438.3
474.188	6387.1
474.393	6122.91
474.598	5979.56
474.802	6215.07
475.007	5946.79
475.212	5965.22
475.417	5739.94
475.621	5911.97
475.826	5979.56
476.031	5795.24
476.235	5690.79
476.44	5746.09
476.645	5531.05
476.849	5612.97
477.054	5549.48
477.259	5440.94
477.463	5586.35
477.668	5332.4
477.872	5463.47
478.077	5486
478.282	5238.19
478.486	5088.69
478.691	5035.44
478.895	5201.33
479.1	5178.8
479.304	5090.74
479.509	4887.99
479.713	5135.79
479.918	4799.93
480.122	4793.78
480.326	4720.06
480.531	4922.8
480.735	4820.41
480.94	4771.26
481.144	4986.29
481.348	4724.15
481.553	4742.58
481.757	4816.31
481.961	4840.89
482.166	4869.56
482.37	4885.94
482.574	4675
482.778	4668.86
482.983	4916.66
483.187	4718.01
483.391	4894.13
483.595	4849.08
483.8	4582.84
484.004	4789.69
484.208	4750.78
484.412	4691.38
484.616	4718.01
484.821	4785.59
485.025	4859.32
485.229	4578.75
485.433	4607.42
485.637	4756.92
485.841	4584.89
486.045	4654.52
486.249	4746.68
486.453	4668.86
486.657	4646.33
486.861	4662.71
487.065	4490.68
487.269	4644.28
487.473	4552.12
487.677	4695.48
487.881	4593.08
488.085	4679.1
488.289	4609.47
488.493	4636.09
488.697	4679.1
488.901	4746.68
489.105	4744.63
489.309	4718.01
489.512	4896.18
489.716	4867.51
489.92	4789.69
490.124	4652.47
490.328	4785.59
490.531	4687.29
490.735	4752.82
490.939	4865.46
491.143	4675
491.346	4822.45
491.55	4877.75
491.754	4974
491.958	4859.32
492.161	4838.84
492.365	5012.92
492.569	4890.04
492.772	4963.76
492.976	5086.64
493.18	4988.34
493.383	5045.68
493.587	5035.44
493.79	5162.42
493.994	5019.06
494.197	5213.62
494.401	5221.81
494.605	5182.9
494.808	5313.97
495.012	5201.33
495.215	5379.5
495.419	5277.1
495.622	5397.93
495.825	5342.64
496.029	5498.28
496.232	5467.56
496.436	5354.93
496.639	5658.03
496.843	5508.52
497.046	5690.79
497.249	5942.69
497.453	5828.01
497.656	5850.53
497.859	5780.9
498.063	6131.11
498.266	6274.46
498.469	6143.39
498.673	6055.33
498.876	6038.95
499.079	6104.48
499.282	6258.08
499.485	6440.35
499.689	6436.25
499.892	6614.43
500.095	6493.6
500.298	6614.43
500.501	6688.15
500.705	6784.41
500.908	6770.07
501.111	7005.59
501.314	6987.16
501.517	6952.34
501.72	7234.96
501.923	7228.82
502.126	7357.84
502.329	7437.71
502.532	7603.6
502.735	7402.9
502.938	7802.25
503.141	7648.65
503.344	7873.93
503.547	7658.89
503.75	7988.61
503.953	7998.85
504.156	8201.6
504.359	8478.08
504.562	8318.34
504.765	8541.57
504.968	8607.1
505.17	8533.37
505.373	8674.68
505.576	8721.79
505.779	9084.28
505.982	8895.86
506.185	9057.65
506.387	9158
506.59	9045.37
506.793	9282.93
506.996	9340.27
507.198	9543.02
507.401	9409.9
507.604	9772.39
507.807	9852.27
508.009	9815.4
508.212	9934.18
508.415	10044.77
508.617	10114.41
508.82	10413.41
509.022	10212.71
509.225	10567.01
509.428	10589.53
509.63	10585.44
509.833	10757.47
510.035	11009.37
510.238	10730.84
510.44	10911.07
510.643	11300.18
510.845	11294.04
511.048	11089.24
511.25	11378
511.453	11818.32
511.655	11959.63
511.858	11996.49
512.06	12033.35
512.262	12086.6
512.465	12105.03
512.667	12279.11
512.87	12352.84
513.072	12645.7
513.274	12715.33
513.477	12965.18
513.679	13067.58
513.881	13059.38
514.084	13100.34
514.286	13073.72
514.488	13368.63
514.69	13653.3
514.893	13425.97
515.095	13956.4
515.297	14003.5
515.499	14097.7
515.701	14261.54
515.904	14415.14
516.106	14357.8
516.308	14558.5
516.51	14619.94
516.712	14796.06
516.914	14935.32
517.116	15074.59
517.318	15172.89
517.52	15381.78
517.722	15383.83
517.925	15494.42
518.127	15791.38
518.329	15963.4
518.531	15865.1
518.733	16301.32
518.935	16594.18
519.136	16291.08
519.338	16559.36
519.54	16534.79
519.742	17020.16
519.944	16882.94
520.146	17431.8
520.348	17274.1
520.55	17446.13
520.752	17634.55
520.954	17898.73
521.155	17544.44
521.357	17851.63
521.559	18339.05
521.761	18427.11
521.963	18281.71
522.164	18590.95
522.366	18554.08
522.568	18840.8
522.77	18791.65
522.971	19182.81
523.173	19025.12
523.375	19078.36
523.576	19250.39
523.778	19375.32
523.98	19567.83
524.181	19698.9
524.383	19557.59
524.584	19922.13
524.786	19995.85
524.988	20002
525.189	20081.87
525.391	20518.09
525.592	20301
525.794	20612.29
525.995	20686.02
526.197	20444.36
526.398	20903.11
526.6	21116.09
526.801	21181.63
527.003	21294.27
527.204	21183.68
527.406	21533.88
527.607	21290.17
527.808	21658.81
528.01	21587.13
528.211	21957.81
528.412	21955.76
528.614	22019.25
528.815	21867.7
529.016	22244.52
529.218	21552.31
529.419	22236.33
529.62	21972.14
529.822	22226.09
530.023	22023.34
530.224	22334.64
530.425	22209.71
530.626	22406.31
530.828	22041.78
531.029	22512.81
531.23	22289.58
531.431	22570.15
531.632	22758.56
531.833	22807.72
532.035	22629.54
532.236	22600.87
532.437	22779.04
532.638	22731.94
532.839	22813.86
533.04	23010.46
533.241	22842.53
533.442	23069.86
533.643	23180.45
533.844	22805.67
534.045	22875.3
534.246	22613.16
534.447	22959.27
534.648	22758.56
534.849	23157.92
535.05	22707.37
535.251	22820
535.451	22867.11
535.652	22973.6
535.853	23256.22
536.054	22924.45
536.255	23288.99
536.456	22959.27
536.657	23467.16
536.857	23078.05
537.058	23037.09
537.259	23264.41
537.46	23153.82
537.66	22828.2
537.861	23082.14
538.062	23004.32
538.263	23401.63
538.463	22797.48
538.664	23190.69
538.865	23518.36
539.065	23133.34
539.266	23065.76
539.466	23338.14
539.667	22889.63
539.868	23444.63
540.068	23254.17
540.269	23143.58
540.469	23338.14
540.67	23133.34
540.87	23121.06
541.071	22967.46
541.271	23342.24
541.472	22989.99
541.672	23164.06
541.873	23184.54
542.073	22639.78
542.274	23424.15
542.474	23123.1
542.675	23276.7
542.875	22998.18
543.075	23231.65
543.276	22725.8
543.476	23430.3
543.676	22713.51
543.877	22963.36
544.077	23135.39
544.277	22934.69
544.478	23319.71
544.678	23108.77
544.878	22881.44
545.078	23106.72
545.279	23002.27
545.479	22826.15
545.679	23073.95
545.879	22994.08
546.079	23098.53
546.28	22865.06
546.48	22871.2
546.68	23303.32
546.88	23125.15
547.08	23008.42
547.28	22871.2
547.48	22996.13
547.68	23147.68
547.88	22826.15
548.081	22756.52
548.281	22903.97
548.481	22830.24
548.681	23186.59
548.881	22926.5
549.081	23272.6
549.28	22916.26
549.48	23245.98
549.68	22842.53
549.88	23233.69
550.08	22764.71
550.28	22977.7
550.48	22744.23
550.68	23026.85
550.88	22838.44
551.08	23071.9
551.279	22879.39
551.479	22584.49
551.679	22959.27
551.879	22795.43
552.079	23153.82
552.278	22740.13
552.478	22777
552.678	22893.73
552.878	22871.2
553.077	22686.89
553.277	22838.44
553.477	23059.62
553.676	23022.75
553.876	22623.4
554.076	22869.16
554.275	22738.09
554.475	22609.06
554.674	22942.88
554.874	22588.58
555.074	22678.69
555.273	22656.17
555.473	22623.4
555.672	22447.27
555.872	22324.4
556.071	22621.35
556.271	22820
556.47	22521
556.67	22246.57
556.869	22305.96
557.068	22379.69
557.268	22338.73
557.467	22099.12
557.667	22287.53
557.866	22174.89
558.065	22265
558.265	22291.63
558.464	22084.78
558.663	22138.03
558.863	21882.03
559.062	22037.68
559.261	22119.6
559.461	21959.86
559.66	21793.97
559.859	21824.69
560.058	21601.46
560.258	21847.22
560.457	21757.11
560.656	21875.89
560.855	21673.14
561.054	22129.84
561.253	21286.08
561.453	21783.73
561.652	21755.06
561.851	21466.3
562.05	21808.31
562.249	21312.7
562.448	21415.1
562.647	21333.18
562.846	21456.06
563.045	21054.65
563.244	21171.39
563.443	21163.2
563.642	20692.16
563.841	21101.76
564.04	21255.36
564.239	21404.86
564.438	20925.63
564.637	20962.5
564.836	21128.38
565.035	20946.11
565.234	21073.09
565.432	20704.45
565.631	20399.3
565.83	20716.74
566.029	20808.9
566.228	20446.41
566.427	20298.95
566.625	20243.66
566.824	20327.63
567.023	20417.74
567.222	20223.18
567.42	20389.06
567.619	20014.29
567.818	19989.71
568.016	20227.28
568.215	20069.58
568.414	20034.77
568.612	19950.8
568.811	19872.98
569.01	20049.1
569.208	19537.11
569.407	19756.24
569.605	19461.34
569.804	19543.25
570.002	19285.21
570.201	19467.48
570.4	19160.28
570.598	19229.91
570.797	19059.93
570.995	19277.02
571.193	19027.17
571.392	19315.93
571.59	19010.78
571.789	19176.67
571.987	19027.17
572.186	18914.53
572.384	18779.36
572.582	19045.6
572.781	18865.38
572.979	18492.65
573.177	18910.43
573.376	18775.27
573.574	18615.52
573.772	18703.59
573.971	18683.11
574.169	18445.54
574.367	18136.3
574.565	18293.99
574.763	18224.36
574.962	18060.52
575.16	18126.06
575.358	18234.6
575.556	17806.58
575.754	18218.22
575.952	17851.63
576.151	18140.4
576.349	17462.52
576.547	17841.39
576.745	17878.26
576.943	17970.41
577.141	17622.26
577.339	17853.68
577.537	17347.83
577.735	17747.19
577.933	17712.37
578.131	17515.76
578.329	17335.54
578.527	17392.89
578.725	17048.83
578.923	17339.64
579.121	16989.44
579.319	16981.24
579.516	17222.91
579.714	17030.4
579.912	17042.68
580.11	16739.58
580.308	16831.74
580.506	16694.53
580.704	16571.65
580.901	16909.57
581.099	16764.16
581.297	16700.67
581.495	16753.92
581.692	16825.6
581.89	16780.54
582.088	16579.84
582.285	16481.54
582.483	16407.81
582.681	16489.73
582.878	16448.77
583.076	16047.37
583.274	16239.88
583.471	16123.15
583.669	16098.57
583.866	16114.95
584.064	16215.3
584.262	15762.7
584.459	16069.9
584.657	16094.47
584.854	15836.43
585.052	15488.28
585.249	15652.11
585.447	15746.32
585.644	15846.67
585.841	15887.63
586.039	15711.5
586.236	15635.73
586.434	15656.21
586.631	15592.72
586.828	15422.74
587.026	15357.21
587.223	15570.19
587.42	15480.08
587.618	15457.56
587.815	15435.03
588.012	15193.37
588.21	15209.75
588.407	15131.93
588.604	15121.69
588.801	15162.65
588.999	14808.35
589.196	14980.38
589.393	14896.41
589.59	14585.12
589.787	14802.21
589.984	14652.7
590.182	14292.26
590.379	14533.92
590.576	14429.48
590.773	14511.39
590.97	14478.63
591.167	14693.66
591.364	14142.76
591.561	14480.68
591.758	14351.65
591.955	14224.68
592.152	14482.72
592.349	14443.81
592.546	14255.4
592.743	14183.72
592.94	13897
593.137	13970.73
593.334	14066.99
593.531	13880.62
593.727	13872.43
593.924	14214.44
594.121	13851.95
594.318	13815.09
594.515	13767.98
594.712	13815.09
594.908	13657.39
595.105	13667.63
595.302	13473.07
595.499	13612.34
595.696	13554.99
595.892	13241.65
596.089	13395.25
596.286	13532.47
596.482	13366.58
596.679	13473.07
596.876	13520.18
597.072	13137.21
597.269	13356.34
597.466	13012.28
597.662	13247.8
597.859	13063.48
598.055	13081.91
598.252	12983.61
598.448	13200.69
598.645	12889.4
598.841	12813.63
599.038	13016.38
599.234	13077.82
599.431	12774.72
599.627	12700.99
599.824	12762.43
600.02	12713.28
600.217	12719.42
600.413	12557.63
600.609	12526.91
600.806	12469.57
601.002	12631.36
601.198	12358.98
601.395	12424.51
601.591	12627.26
601.787	12416.32
601.984	12385.6
602.18	12395.84
602.376	12055.88
602.572	12098.89
602.769	11971.91
602.965	12135.75
603.161	12072.26
603.357	11986.25
603.553	11822.41
603.75	11887.95
603.946	11969.87
604.142	11603.28
604.338	11785.55
604.534	11775.31
604.73	11457.87
604.926	11539.79
605.122	11734.35
605.318	11697.49
605.514	11699.53
605.71	11580.75
605.906	11543.89
606.102	11593.04
606.298	11613.52
606.494	11382.1
606.69	11564.37
606.886	11601.23
607.082	11175.25
607.278	11390.29
607.474	11384.15
607.67	11375.95
607.866	11064.66
608.062	11371.86
608.257	11283.8
608.453	11081.05
608.649	11230.55
608.845	11101.53
609.041	10863.96
609.236	10968.41
609.432	11173.21
609.628	11205.97
609.824	10769.76
610.019	10902.87
610.215	11017.56
610.411	10995.03
610.606	10792.28
610.802	10949.98
610.998	10806.62
611.193	10892.63
611.389	10753.37
611.584	10904.92
611.78	10685.79
611.976	10593.63
612.171	10829.15
612.367	10630.49
612.562	10792.28
612.758	10489.18
612.953	10382.69
613.149	10540.38
613.344	10300.77
613.539	10759.52
613.735	10548.58
613.93	10569.05
614.126	10526.05
614.321	10786.14
614.517	10284.39
614.712	10376.55
614.907	10284.39
615.103	10728.8
615.298	10458.46
615.493	10339.68
615.688	10198.37
615.884	10321.25
616.079	10100.07
616.274	10245.48
616.47	10204.52
616.665	10265.96
616.86	10124.65
617.055	10171.75
617.25	10200.42
617.445	10200.42
617.641	9946.47
617.836	10141.03
618.031	9870.7
618.226	10253.67
618.421	9948.52
618.616	9981.29
618.811	9733.48
619.006	9930.09
619.201	9594.22
619.396	9786.73
619.591	9835.88
619.786	9796.97
619.981	9639.28
620.176	9727.34
620.371	9504.11
620.566	9561.45
620.761	9735.53
620.956	9334.13
621.151	9211.25
621.346	9538.93
621.541	9301.36
621.735	9354.61
621.93	9268.59
622.125	9119.09
622.32	8969.59
622.515	9149.81
622.709	8916.34
622.904	8975.74
623.099	8879.48
623.294	8947.06
623.488	8885.62
623.683	8842.62
623.878	8828.28
624.072	8920.44
624.267	8725.88
624.462	8557.95
624.656	8600.96
624.851	8566.14
625.046	8410.5
625.24	8650.11
625.435	8533.37
625.629	8426.88
625.824	8414.59
626.018	8234.37
626.213	8220.03
626.407	8478.08
626.602	8205.7
626.796	8197.51
626.991	8048.01
627.185	8029.57
627.38	8029.57
627.574	7931.27
627.768	7896.46
627.963	7986.57
628.157	7800.2
628.352	7740.81
628.546	7761.29
628.74	7624.08
628.935	7671.18
629.129	7619.98
629.323	7554.44
629.517	7536.01
629.712	7599.5
629.906	7495.05
630.1	7427.47
630.294	7546.25
630.489	7384.46
630.683	7298.45
630.877	7077.27
631.071	6999.45
631.265	7183.76
631.459	7093.65
631.653	7232.91
631.848	7017.88
632.042	6970.77
632.236	7044.5
632.43	6946.2
632.624	6946.2
632.818	6804.89
633.012	6772.12
633.206	6954.39
633.4	6821.27
633.594	6714.78
633.788	6489.5
633.982	6792.6
634.176	6774.17
634.369	6606.24
634.563	6677.91
634.757	6630.81
634.951	6507.93
635.145	6522.27
635.339	6544.8
635.533	6409.63
635.726	6276.51
635.92	6258.08
636.114	6378.91
636.308	6221.22
636.501	6364.57
636.695	6241.7
636.889	6147.49
637.083	6071.72
637.276	6153.63
637.47	6006.18
637.664	5977.51
637.857	6100.39
638.051	6041
638.244	6010.28
638.438	6043.04
638.632	5932.45
638.825	5821.86
639.019	5850.53
639.212	5825.96
639.406	5682.6
639.599	5723.56
639.793	5739.94
639.986	5674.41
640.18	5815.72
640.373	5713.32
640.567	5432.75
640.76	5670.31
640.954	5426.61
641.147	5711.27
641.34	5416.37
641.534	5262.77
641.727	5412.27
641.92	5361.07
642.114	5420.46
642.307	5377.45
642.5	5287.34
642.694	5223.86
642.887	5266.86
643.08	5209.52
643.273	5256.62
643.467	5285.3
643.66	5082.55
643.853	5068.21
644.046	5051.83
644.239	5051.83
644.432	5014.96
644.626	5041.59
644.819	4953.52
645.012	4974
645.205	4961.72
645.398	4890.04
645.591	4894.13
645.784	4812.21
645.977	4781.5
646.17	4718.01
646.363	4816.31
646.556	4853.17
646.749	4720.06
646.942	4666.81
647.135	4601.27
647.328	4580.79
647.521	4543.93
647.714	4595.13
647.907	4462.01
648.099	4564.41
648.292	4488.64
648.485	4343.23
648.678	4324.8
648.871	4396.48
649.064	4306.37
649.256	4429.24
649.449	4302.27
649.642	4322.75
649.835	4277.69
650.027	4312.51
650.22	4130.24
650.413	4216.26
650.605	4283.84
650.798	4107.71
650.991	4199.87
651.183	4289.98
651.376	4220.35
651.568	4142.53
651.761	4072.9
651.954	4259.26
652.146	4015.55
652.339	4095.43
652.531	3993.03
652.724	3988.93
652.916	3927.49
653.109	4113.86
653.301	4093.38
653.494	3939.78
653.686	3855.81
653.879	4036.03
654.071	3900.87
654.263	3921.35
654.456	3878.34
654.648	3874.24
654.84	3698.12
655.033	3812.81
655.225	3677.64
655.417	3648.97
655.61	3825.09
655.802	3655.11
655.994	3700.17
656.186	3757.51
656.379	3640.78
656.571	3626.44
656.763	3601.87
656.955	3685.83
657.148	3546.57
657.34	3497.42
657.532	3526.09
657.724	3388.88
657.916	3657.16
658.108	3493.32
658.3	3327.44
658.492	3448.27
658.684	3362.25
658.876	3425.74
659.068	3341.77
659.26	3286.48
659.452	3263.95
659.644	3429.84
659.836	3335.63
660.028	3298.77
660.22	3190.22
660.412	3128.78
660.604	3270.09
660.796	3098.06
660.988	3235.28
661.18	3266
661.372	3192.27
661.563	3108.3
661.755	3104.21
661.947	3243.47
662.139	3079.63
662.331	3169.74
662.522	3044.82
662.714	3126.74
662.906	3085.78
663.097	2946.52
663.289	3042.77
663.481	2921.94
663.673	3001.81
663.864	3042.77
664.056	2926.04
664.247	2815.45
664.439	2868.69
664.631	2837.97
664.822	2909.65
665.014	3007.95
665.205	2823.64
665.397	2825.68
665.588	2797.01
665.78	2842.07
665.971	2840.02
666.163	2799.06
666.354	2672.09
666.546	2813.4
666.737	2807.25
666.929	2794.97
667.12	2665.94
667.311	2770.39
667.503	2803.16
667.694	2772.44
667.885	2614.74
668.077	2739.67
668.268	2653.66
668.459	2766.29
668.651	2643.42
668.842	2602.46
669.033	2471.39
669.224	2647.51
669.416	2647.51
669.607	2508.25
669.798	2629.08
669.989	2614.74
670.18	2504.15
670.371	2477.53
670.563	2516.44
670.754	2522.59
670.945	2448.86
671.136	2536.92
671.327	2551.26
671.518	2459.1
671.709	2485.72
671.9	2473.43
672.091	2307.55
672.282	2409.95
672.473	2559.45
672.664	2467.29
672.855	2446.81
673.046	2383.32
673.237	2368.99
673.428	2307.55
673.619	2373.08
673.809	2381.28
674	2358.75
674.191	2354.65
674.382	2254.3
674.573	2422.24
674.764	2237.92
674.954	2364.89
675.145	2299.36
675.336	2336.22
675.527	2403.8
675.717	2260.45
675.908	2385.37
676.099	2270.69
676.289	2182.62
676.48	2291.17
676.671	2235.87
676.861	2239.97
677.052	2219.49
677.243	2184.67
677.433	2209.25
677.624	2315.74
677.814	2149.86
678.005	2276.83
678.195	2244.06
678.386	2117.09
678.576	2211.29
678.767	2149.86
678.957	2182.62
679.148	2203.1
679.338	2319.84
679.529	2094.56
679.719	2176.48
679.909	2137.57
680.1	2162.14
680.29	2082.27
680.481	2184.67
680.671	2067.94
680.861	2141.66
681.052	2170.33
681.242	2178.53
681.432	2096.61
681.622	2110.94
681.813	2135.52
682.003	2086.37
682.193	2225.63
682.383	2196.96
682.573	2059.74
682.764	2102.75
682.954	2139.62
683.144	2106.85
683.334	1992.16
683.524	2049.5
683.714	2041.31
683.904	2104.8
684.094	2072.03
684.284	2037.22
684.474	2039.26
684.664	1969.63
684.854	2139.62
685.044	2145.76
685.234	1906.15
685.424	2102.75
685.614	1920.48
685.804	2055.65
685.994	1979.87
686.184	2078.18
686.374	1990.11
686.564	1981.92
686.753	2076.13
686.943	1947.11
687.133	2010.59
687.323	1924.58
687.513	1986.02
687.702	1902.05
687.892	1848.8
688.082	1883.62
688.272	1807.84
688.461	1934.82
688.651	1959.39
688.841	1900
689.03	1918.43
689.22	1926.63
689.41	1893.86
689.599	1734.12
689.789	2016.74
689.979	1969.63
690.168	1666.53
690.358	1746.41
690.547	1773.03
690.737	1846.76
690.926	1854.95
691.116	1623.53
691.305	1813.99
691.495	1902.05
691.684	1682.92
691.874	1844.71
692.063	1809.89
692.252	1766.89
692.442	1762.79
692.631	1629.67
692.82	1754.6
693.01	1611.24
693.199	1791.46
693.388	1691.11
693.578	1730.02
693.767	1750.5
693.956	1660.39
694.146	1648.1
694.335	1689.06
694.524	1586.66
694.713	1732.07
694.902	1687.01
695.092	1699.3
695.281	1666.53
695.47	1639.91
695.659	1629.67
695.848	1684.97
696.037	1631.72
696.226	1562.09
696.415	1687.01
696.604	1570.28
696.793	1656.29
696.982	1586.66
697.171	1658.34
697.36	1629.67
697.549	1621.48
697.738	1586.66
697.927	1656.29
698.116	1580.52
698.305	1644.01
698.494	1586.66
698.683	1527.27
698.872	1658.34
699.061	1717.73
699.25	1592.81
699.438	1672.68
699.627	1601
699.816	1641.96
700.005	1619.43
700.193	1637.86
700.382	1660.39
700.571	1601
700.76	1586.66
700.948	1703.4
701.137	1574.38
701.326	1555.94
701.514	1633.77
701.703	1619.43
701.892	1633.77
702.08	1603.05
702.269	1609.19
702.457	1635.82
702.646	1713.64
702.834	1574.38
703.023	1502.7
703.212	1660.39
703.4	1611.24
703.589	1598.95
703.777	1588.71
703.965	1529.32
704.154	1543.66
704.342	1543.66
704.531	1543.66
704.719	1551.85
704.907	1818.08
705.096	1574.38
705.284	1727.97
705.472	1574.38
705.661	1611.24
705.849	1625.58
706.037	1568.23
706.226	1598.95
706.414	1623.53
706.602	1701.35
706.79	1590.76
706.979	1654.25
707.167	1644.01
707.355	1467.88
707.543	1607.14
707.731	1547.75
707.919	1562.09
708.107	1605.1
708.296	1598.95
708.484	1699.3
708.672	1660.39
708.86	1566.18
709.048	1598.95
709.236	1512.94
709.424	1605.1
709.612	1496.55
709.8	1586.66
709.988	1613.29
710.176	1615.34
710.364	1660.39
710.551	1592.81
710.739	1617.38
710.927	1574.38
711.115	1695.21
711.303	1564.14
711.491	1711.59
711.679	1598.95
711.866	1691.11
712.054	1676.77
712.242	1644.01
712.43	1590.76
712.617	1514.98
712.805	1568.23
712.993	1701.35
713.181	1459.69
713.368	1678.82
713.556	1660.39
713.744	1529.32
713.931	1625.58
714.119	1568.23
714.306	1617.38
714.494	1621.48
714.682	1613.29
714.869	1662.44
715.057	1680.87
715.244	1650.15
715.432	1676.77
715.619	1545.7
715.807	1623.53
715.994	1603.05
716.182	1629.67
716.369	1555.94
716.556	1535.46
716.744	1621.48
716.931	1623.53
717.119	1684.97
717.306	1541.61
717.493	1699.3
717.681	1592.81
717.868	1564.14
718.055	1535.46
718.242	1725.93
718.43	1611.24
718.617	1560.04
718.804	1635.82
718.991	1656.29
719.179	1672.68
719.366	1572.33
719.553	1723.88
719.74	1601
719.927	1549.8
720.114	1578.47
720.301	1650.15
720.488	1517.03
720.676	1557.99
720.863	1695.21
721.05	1615.34
721.237	1662.44
721.424	1625.58
721.611	1705.45
721.798	1682.92
721.985	1525.22
722.172	1711.59
722.358	1680.87
722.545	1697.25
722.732	1672.68
722.919	1670.63
723.106	1631.72
723.293	1527.27
723.48	1592.81
723.667	1715.69
723.853	1672.68
724.04	1693.16
724.227	1557.99
724.414	1727.97
724.6	1545.7
724.787	1535.46
724.974	1732.07
725.161	1660.39
725.347	1529.32
725.534	1687.01
725.72	1715.69
725.907	1697.25
726.094	1691.11
726.28	1553.9
726.467	1625.58
726.653	1674.73
726.84	1584.62
727.027	1746.41
727.213	1662.44
727.4	1648.1
727.586	1660.39
727.773	1678.82
727.959	1635.82
728.145	1576.42
728.332	1619.43
728.518	1609.19
728.705	1678.82
728.891	1590.76
729.077	1732.07
729.264	1672.68
729.45	1707.49
729.636	1584.62
729.823	1689.06
730.009	1592.81
730.195	1689.06
730.382	1666.53
730.568	1627.62
730.754	1711.59
730.94	1621.48
731.126	1660.39
731.313	1689.06
731.499	1715.69
731.685	1699.3
731.871	1709.54
732.057	1646.05
732.243	1713.64
732.429	1670.63
732.615	1631.72
732.801	1594.86
732.987	1727.97
733.173	1635.82
733.359	1707.49
733.545	1658.34
733.731	1637.86
733.917	1689.06
734.103	1764.84
734.289	1709.54
734.475	1502.7
734.661	1721.83
734.847	1586.66
735.033	1648.1
735.219	1601
735.404	1719.78
735.59	1641.96
735.776	1672.68
735.962	1670.63
736.148	1695.21
736.333	1664.49
736.519	1699.3
736.705	1637.86
736.89	1705.45
737.076	1656.29
737.262	1625.58
737.447	1617.38
737.633	1603.05
737.819	1650.15
738.004	1670.63
738.19	1557.99
738.375	1578.47
738.561	1564.14
738.747	1605.1
738.932	1607.14
739.118	1631.72
739.303	1631.72
739.489	1623.53
739.674	1566.18
739.859	1562.09
740.045	1529.32
740.23	1564.14
740.416	1578.47
740.601	1574.38
740.786	1517.03
740.972	1422.83
741.157	1584.62
741.342	1539.56
741.528	1533.42
741.713	1555.94
741.898	1484.27
742.084	1441.26
742.269	1613.29
742.454	1514.98
742.639	1514.98
742.824	1469.93
743.01	1508.84
743.195	1541.61
743.38	1469.93
743.565	1449.45
743.75	1572.33
743.935	1418.73
744.12	1644.01
744.305	1469.93
744.49	1461.74
744.675	1361.39
744.86	1451.5
745.045	1439.21
745.23	1562.09
745.415	1447.4
745.6	1416.68
745.785	1480.17
745.97	1447.4
746.155	1381.87
746.34	1400.3
746.525	1435.11
746.71	1426.92
746.895	1357.29
747.079	1437.16
747.264	1291.76
747.449	1414.63
747.634	1334.76
747.819	1396.2
748.003	1293.8
748.188	1318.38
748.373	1394.15
748.557	1345
748.742	1367.53
748.927	1365.48
749.111	1201.65
749.296	1218.03
749.481	1166.83
749.665	1179.12
749.85	1242.61
750.034	1275.37
750.219	1236.46
750.404	1236.46
750.588	1142.25
750.773	1168.88
750.957	1215.98
751.141	1166.83
751.326	1191.41
751.51	1248.75
751.695	1177.07
751.879	1084.91
752.064	1242.61
752.248	1181.17
752.432	1170.93
752.617	1172.97
752.801	1129.97
752.985	1123.82
753.17	1136.11
753.354	1103.34
753.538	1150.45
753.722	1037.81
753.907	1179.12
754.091	1166.83
754.275	1070.58
754.459	1080.82
754.643	992.75
754.828	1037.81
755.012	1060.34
755.196	1078.77
755.38	1037.81
755.564	1002.99
755.748	945.65
755.932	986.61
756.116	1031.66
756.3	1007.09
756.484	955.89
756.668	1072.62
756.852	941.55
757.036	980.47
757.22	988.66
757.404	925.17
757.588	943.6
757.772	992.75
757.956	998.9
758.14	974.32
758.323	968.18
758.507	972.27
758.691	859.63
758.875	943.6
759.059	859.63
759.242	892.4
759.426	835.06
759.61	857.59
759.794	837.11
759.977	861.68
760.161	914.93
760.345	826.87
760.528	837.11
760.712	824.82
760.895	894.45
761.079	812.53
761.263	869.87
761.446	800.24
761.63	878.07
761.813	771.57
761.997	818.68
762.18	810.48
762.364	882.16
762.547	740.85
762.731	763.38
762.914	742.9
763.098	798.2
763.281	837.11
763.464	812.53
763.648	804.34
763.831	783.86
764.015	744.95
764.198	753.14
764.381	812.53
764.564	751.09
764.748	718.33
764.931	773.62
765.114	728.56
765.297	771.57
765.481	720.37
765.664	773.62
765.847	787.96
766.03	810.48
766.213	777.72
766.397	744.95
766.58	738.8
766.763	820.72
766.946	779.76
767.129	765.43
767.312	693.75
767.495	781.81
767.678	552.44
767.861	775.67
768.044	732.66
768.227	609.78
768.41	646.65
768.593	732.66
768.776	703.99
768.959	710.13
769.142	724.47
769.324	695.8
769.507	691.7
769.69	695.8
769.873	609.78
770.056	701.94
770.239	613.88
770.421	699.89
770.604	624.12
770.787	595.45
770.97	667.13
771.152	607.73
771.335	617.97
771.518	622.07
771.7	734.71
771.883	591.35
772.066	644.6
772.248	570.87
772.431	716.28
772.613	609.78
772.796	513.53
772.978	597.49
773.161	638.45
773.343	540.15
773.526	679.41
773.708	562.68
773.891	519.67
774.073	587.26
774.256	609.78
774.438	611.83
774.621	538.1
774.803	595.45
774.985	560.63
775.168	595.45
775.35	478.71
775.532	646.65
775.715	534.01
775.897	589.3
776.079	509.43
776.261	570.87
776.444	548.34
776.626	472.57
776.808	505.34
776.99	480.76
777.173	474.62
777.355	562.68
777.537	452.09
777.719	546.3
777.901	544.25
778.083	458.23
778.265	470.52
778.447	529.91
778.629	542.2
778.811	468.47
778.993	523.77
779.175	577.02
779.357	402.94
779.539	445.95
779.721	474.62
779.903	388.6
780.085	464.38
780.267	460.28
780.449	476.66
780.631	515.58
780.812	382.46
780.994	509.43
781.176	388.6
781.358	415.23
781.54	488.95
781.721	411.13
781.903	310.78
782.085	396.79
782.267	433.66
782.448	392.7
782.63	394.75
782.812	425.47
782.993	437.75
783.175	335.35
783.357	380.41
783.538	290.3
783.72	341.5
783.901	337.4
784.083	353.79
784.264	394.75
784.446	355.83
784.627	374.27
784.809	398.84
784.99	292.35
785.172	382.46
785.353	341.5
785.535	345.59
785.716	409.08
785.897	343.55
786.079	421.37
786.26	384.51
786.441	302.59
786.623	325.12
786.804	357.88
786.985	316.92
787.167	341.5
787.348	321.02
787.529	314.88
787.71	364.03
787.891	288.25
788.073	312.83
788.254	292.35
788.435	282.11
788.616	370.17
788.797	245.24
788.978	267.77
789.159	241.15
789.34	331.26
789.522	269.82
789.703	290.3
789.884	257.53
790.065	304.64
790.246	349.69
790.427	224.76
790.607	265.72
790.788	249.34
790.969	273.92
791.15	282.11
791.331	286.2
791.512	304.64
791.693	259.58
791.874	224.76
792.054	323.07
792.235	271.87
792.416	210.43
792.597	263.68
792.778	265.72
792.958	228.86
793.139	235
793.32	265.72
793.5	235
793.681	247.29
793.862	189.95
794.042	241.15
794.223	165.37
794.404	200.19
794.584	237.05
794.765	222.72
794.945	222.72
795.126	316.92
795.306	198.14
795.487	300.54
795.667	218.62
795.848	220.67
796.028	202.24
796.209	198.14
796.389	200.19
796.57	194.05
796.75	214.52
796.93	218.62
797.111	196.09
797.291	159.23
797.471	165.37
797.652	216.57
797.832	226.81
798.012	216.57
798.192	228.86
798.373	181.76
798.553	196.09
798.733	222.72
798.913	114.17
799.093	181.76
799.274	179.71
799.454	175.61
799.634	157.18
799.814	251.39
799.994	165.37
800.174	251.39
800.354	196.09
800.534	220.67
800.714	175.61
800.894	230.91
801.074	185.85
801.254	212.48
801.434	230.91
801.614	265.72
801.794	206.33
801.974	513.53
802.154	91.65
802.334	194.05
802.514	103.93
802.693	140.8
802.873	99.84
803.053	142.85
803.233	173.57
803.413	136.7
803.592	216.57
803.772	126.46
803.952	110.08
804.131	216.57
804.311	85.5
804.491	142.85
804.67	173.57
804.85	157.18
805.03	249.34
805.209	210.43
805.389	202.24
805.568	144.89
805.748	210.43
805.928	175.61
806.107	151.04
806.287	173.57
806.466	189.95
806.646	173.57
806.825	114.17
807.004	99.84
807.184	157.18
807.363	218.62
807.543	138.75
807.722	105.98
807.901	181.76
808.081	200.19
808.26	89.6
808.439	202.24
808.619	165.37
808.798	200.19
808.977	153.09
809.156	155.13
809.336	157.18
809.515	148.99
809.694	116.22
809.873	97.79
810.052	114.17
810.231	148.99
810.411	79.36
810.59	108.03
810.769	161.28
810.948	220.67
811.127	116.22
811.306	140.8
811.485	157.18
811.664	114.17
811.843	97.79
812.022	142.85
812.201	144.89
812.38	122.37
812.559	101.89
812.737	101.89
812.916	93.69
813.095	146.94
813.274	159.23
813.453	71.17
813.632	146.94
813.811	114.17
813.989	83.45
814.168	132.61
814.347	85.5
814.526	103.93
814.704	124.41
814.883	112.13
815.062	116.22
815.24	97.79
815.419	75.26
815.598	103.93
815.776	87.55
815.955	140.8
816.133	38.4
816.312	136.7
816.49	108.03
816.669	103.93
816.847	36.35
817.026	126.46
817.204	95.74
817.383	42.5
817.561	130.56
817.74	108.03
817.918	169.47
818.097	126.46
818.275	93.69
818.453	114.17
818.632	126.46
818.81	52.74
818.988	140.8
819.167	140.8
819.345	58.88
819.523	89.6
819.701	151.04
819.879	108.03
820.058	83.45
820.236	75.26
820.414	120.32
820.592	77.31
820.77	67.07
820.948	71.17
821.127	42.5
821.305	97.79
821.483	73.21
821.661	112.13
821.839	126.46
822.017	124.41
822.195	44.54
822.373	58.88
822.551	83.45
822.729	85.5
822.907	126.46
823.085	118.27
823.262	34.3
823.44	36.35
823.618	26.11
823.796	120.32
823.974	103.93
824.152	130.56
824.329	77.31
824.507	89.6
824.685	116.22
824.863	87.55
825.04	13.82
825.218	87.55
825.396	28.16
825.574	75.26
825.751	114.17
825.929	44.54
826.107	34.3
826.284	50.69
826.462	153.09
826.639	116.22
826.817	79.36
826.994	83.45
827.172	71.17
827.349	118.27
827.527	105.98
827.704	50.69
827.882	89.6
828.059	79.36
828.237	105.98
828.414	42.5
828.591	7.68
828.769	126.46
828.946	75.26
829.124	116.22
829.301	67.07
829.478	87.55
829.655	118.27
829.833	65.02
830.01	11.78
830.187	67.07
830.364	73.21
830.542	83.45
830.719	56.83
830.896	52.74
831.073	138.75
831.25	79.36
831.427	83.45
831.604	44.54
831.782	-20.99
831.959	71.17
832.136	42.5
832.313	69.12
832.49	34.3
832.667	103.93
832.844	24.06
833.021	26.11
833.198	101.89
833.374	108.03
833.551	112.13
833.728	24.06
833.905	62.98
834.082	56.83
834.259	58.88
834.436	87.55
834.612	24.06
834.789	40.45
834.966	32.26
835.143	75.26
835.319	50.69
835.496	34.3
835.673	54.78
835.85	56.83
836.026	1.54
836.203	73.21
836.38	11.78
836.556	5.63
836.733	85.5
836.909	62.98
837.086	60.93
837.262	44.54
837.439	79.36
837.616	13.82
837.792	9.73
837.968	112.13
838.145	26.11
838.321	24.06
838.498	67.07
838.674	19.97
838.851	36.35
839.027	32.26
839.203	30.21
839.38	13.82
839.556	-27.14
839.732	46.59
839.909	103.93
840.085	75.26
840.261	5.63
840.437	38.4
840.614	73.21
840.79	34.3
840.966	50.69
841.142	48.64
841.318	69.12
841.494	83.45
841.671	34.3
841.847	48.64
842.023	32.26
842.199	114.17
842.375	22.02
842.551	56.83
842.727	32.26
842.903	103.93
843.079	15.87
843.255	30.21
843.431	-25.09
843.607	46.59
843.783	-96.77
843.959	-12.8
844.134	-0.51
844.31	17.92
844.486	38.4
844.662	-49.66
844.838	46.59
845.013	62.98
845.189	54.78
845.365	46.59
845.541	60.93
845.716	83.45
845.892	-4.61
846.068	50.69
846.244	56.83
846.419	58.88
846.595	75.26
846.77	46.59
846.946	40.45
847.122	144.89
847.297	-16.9
847.473	11.78
847.648	-2.56
847.824	60.93
847.999	7.68
848.175	52.74
848.35	60.93
848.526	38.4
848.701	38.4
848.876	65.02
849.052	-53.76
849.227	-23.04
849.403	58.88
849.578	52.74
849.753	13.82
849.929	34.3
850.104	9.73
850.279	26.11
850.454	-39.42
850.63	46.59
850.805	124.41
850.98	87.55
851.155	-41.47
851.33	91.65
851.505	-23.04
851.681	46.59
851.856	11.78
852.031	46.59
852.206	48.64
852.381	56.83
852.556	15.87
852.731	50.69
852.906	50.69
853.081	-37.38
853.256	19.97
853.431	46.59
853.606	-33.28
853.781	40.45
853.956	5.63
854.131	15.87
854.305	58.88
854.48	-20.99
854.655	67.07
854.83	22.02
855.005	75.26
855.18	50.69
855.354	13.82
855.529	65.02
855.704	54.78
855.879	19.97
856.053	-0.51
856.228	-0.51
856.403	-98.81
856.577	67.07
856.752	-8.7
856.926	5.63
857.101	30.21
857.276	-0.51
857.45	-14.85
857.625	-2.56
857.799	-18.94
857.974	30.21
858.148	-47.62
858.323	26.11
858.497	26.11
858.672	7.68
858.846	-12.8
859.02	11.78
859.195	-35.33
859.369	28.16
859.543	-10.75
859.718	17.92
859.892	34.3
860.066	34.3
860.241	-10.75
860.415	-68.09
860.589	-43.52
860.763	-4.61
860.938	-2.56
861.112	11.78
861.286	-6.66
861.46	40.45
861.634	-29.18
861.808	32.26
861.982	-10.75
862.157	-37.38
862.331	-16.9
862.505	-14.85
862.679	-82.43
862.853	-12.8
863.027	-80.38
863.201	58.88
863.375	-29.18
863.549	46.59
863.722	42.5
863.896	93.69
864.07	1.54
864.244	-23.04
864.418	-6.66
864.592	-35.33
864.766	30.21
864.939	11.78
865.113	-0.51
865.287	36.35
865.461	42.5
865.634	26.11
865.808	17.92
865.982	17.92
866.156	13.82
866.329	-86.53
866.503	-10.75
866.676	69.12
866.85	-8.7
867.024	34.3
867.197	-14.85
867.371	17.92
867.544	40.45
867.718	58.88
867.891	-53.76
868.065	-20.99
868.238	17.92
868.412	46.59
868.585	13.82
868.759	-23.04
868.932	-8.7
869.105	52.74
869.279	56.83
869.452	9.73
869.625	-51.71
869.799	-39.42
869.972	-57.86
870.145	3.58
870.319	22.02
870.492	83.45
870.665	30.21
870.838	-23.04
871.011	-74.24
871.185	-37.38
871.358	-80.38
871.531	-86.53
871.704	3.58
871.877	3.58
872.05	26.11
872.223	3.58
872.396	-37.38
872.569	-8.7
872.742	-6.66
872.915	34.3
873.088	-59.9
873.261	54.78
873.434	-29.18
873.607	-8.7
873.78	22.02
873.953	-18.94
874.126	-27.14
874.299	-20.99
874.471	-53.76
874.644	5.63
874.817	7.68
874.99	46.59
875.163	38.4
875.335	67.07
875.508	65.02
875.681	56.83
875.853	-4.61
876.026	-23.04
876.199	-23.04
876.371	-41.47
876.544	-41.47
876.717	-37.38
876.889	-33.28
877.062	24.06
877.234	1.54
877.407	-27.14
877.579	-41.47
877.752	81.41
877.924	9.73
878.097	54.78
878.269	-20.99
878.442	32.26
878.614	36.35
878.786	26.11
878.959	-16.9
879.131	22.02
879.303	-72.19
879.476	-12.8
879.648	-8.7
879.82	-0.51
879.993	-45.57
880.165	30.21
880.337	-51.71
880.509	34.3
880.681	24.06
880.854	-0.51
881.026	32.26
881.198	87.55
881.37	-37.38
881.542	11.78
881.714	3.58
881.886	-10.75
882.058	48.64
882.23	-33.28
882.402	-27.14
882.574	5.63
882.746	9.73
882.918	24.06
883.09	11.78
883.262	54.78
883.434	-6.66
883.606	5.63
883.778	22.02
883.95	-78.33
884.122	13.82
884.293	85.5
884.465	19.97
884.637	19.97
884.809	79.36
884.98	-4.61
885.152	42.5
885.324	-78.33
885.496	58.88
885.667	-41.47
885.839	-72.19
886.011	75.26
886.182	13.82
886.354	40.45
886.525	-6.66
886.697	-20.99
886.869	-18.94
887.04	-27.14
887.212	95.74
887.383	42.5
887.555	5.63
887.726	-59.9
887.897	-45.57
888.069	44.54
888.24	-74.24
888.412	48.64
888.583	17.92
888.754	15.87
888.926	-8.7
889.097	-20.99
889.268	-0.51
889.44	26.11
889.611	-64
889.782	9.73
889.953	-66.05
890.125	38.4
890.296	-31.23
890.467	26.11
890.638	22.02
890.809	-0.51
890.98	-2.56
891.151	-51.71
891.323	-18.94
891.494	11.78
891.665	-37.38
891.836	-4.61
892.007	1.54
892.178	1.54
892.349	22.02
892.52	30.21
892.691	-16.9
892.862	15.87
893.032	-111.1
893.203	9.73
893.374	-74.24
893.545	28.16
893.716	-72.19
893.887	1.54
894.057	-39.42
894.228	5.63
894.399	-64
894.57	28.16
894.74	-8.7
894.911	56.83
895.082	-57.86
895.253	-6.66
895.423	34.3
895.594	-55.81
895.764	17.92
895.935	-41.47
896.106	52.74
896.276	60.93
896.447	30.21
896.617	1.54
896.788	15.87
896.958	-0.51
897.129	-80.38
897.299	-37.38
897.47	71.17
897.64	-6.66
897.81	-18.94
897.981	-0.51
898.151	-27.14
898.322	13.82
898.492	24.06
898.662	-23.04
898.832	-33.28
899.003	-47.62
899.173	13.82
899.343	-41.47
899.513	-53.76
