Data from USB4F104151__69__11-06-10-005.txt Node

Date: Wed Mar 12 11:06:10 EDT 2025
User: louis
Spectrometer: USB4F10415
Trigger mode: 4
Integration Time (sec): 2.000000E-2
Scans to average: 1
Electric dark correction enabled: true
Nonlinearity correction enabled: false
Boxcar width: 0
XAxis mode: Wavelengths
Number of Pixels in Spectrum: 3648
>>>>>Begin Spectral Data<<<<<
178.204	-25.09
178.424	-25.09
178.644	-25.09
178.864	-64
179.084	-141.82
179.304	81.41
179.524	30.21
179.744	22.02
179.964	17.92
180.184	24.06
180.404	-35.33
180.624	-12.8
180.844	-45.57
181.064	-43.52
181.283	9.73
181.503	-39.42
181.723	-8.7
181.943	-80.38
182.163	60.93
182.383	26.11
182.602	-18.94
182.822	22.02
183.042	50.69
183.262	-31.23
183.482	-12.8
183.701	36.35
183.921	40.45
184.141	-16.9
184.361	38.4
184.58	17.92
184.8	-35.33
185.02	54.78
185.239	-14.85
185.459	19.97
185.679	153.09
185.898	11.78
186.118	-20.99
186.338	-51.71
186.557	-25.09
186.777	-37.38
186.997	19.97
187.216	32.26
187.436	75.26
187.655	28.16
187.875	42.5
188.095	11.78
188.314	9.73
188.534	24.06
188.753	3.58
188.973	58.88
189.192	19.97
189.412	-25.09
189.631	77.31
189.851	-14.85
190.07	77.31
190.29	101.89
190.509	-0.51
190.729	22.02
190.948	1.54
191.168	93.69
191.387	42.5
191.607	11.78
191.826	3.58
192.045	52.74
192.265	-18.94
192.484	17.92
192.704	87.55
192.923	-33.28
193.142	48.64
193.362	42.5
193.581	13.82
193.8	52.74
194.02	22.02
194.239	-59.9
194.458	3.58
194.678	-39.42
194.897	62.98
195.116	62.98
195.335	17.92
195.555	67.07
195.774	30.21
195.993	99.84
196.212	-31.23
196.432	-29.18
196.651	62.98
196.87	108.03
197.089	58.88
197.308	30.21
197.528	-2.56
197.747	22.02
197.966	15.87
198.185	50.69
198.404	13.82
198.623	50.69
198.842	9.73
199.062	60.93
199.281	-20.99
199.5	22.02
199.719	5.63
199.938	-25.09
200.157	7.68
200.376	-35.33
200.595	34.3
200.814	15.87
201.033	38.4
201.252	-18.94
201.471	19.97
201.69	-14.85
201.909	3.58
202.128	-0.51
202.347	42.5
202.566	67.07
202.785	-10.75
203.004	65.02
203.223	19.97
203.442	30.21
203.661	-43.52
203.879	40.45
204.098	13.82
204.317	-59.9
204.536	1.54
204.755	13.82
204.974	60.93
205.193	-12.8
205.411	40.45
205.63	-68.09
205.849	-66.05
206.068	-8.7
206.287	-2.56
206.505	46.59
206.724	32.26
206.943	38.4
207.162	54.78
207.381	50.69
207.599	13.82
207.818	48.64
208.037	67.07
208.255	-6.66
208.474	44.54
208.693	52.74
208.911	17.92
209.13	-6.66
209.349	40.45
209.567	-0.51
209.786	40.45
210.005	26.11
210.223	38.4
210.442	13.82
210.661	-51.71
210.879	42.5
211.098	116.22
211.316	103.93
211.535	87.55
211.753	99.84
211.972	-0.51
212.191	77.31
212.409	-0.51
212.628	60.93
212.846	79.36
213.065	75.26
213.283	60.93
213.502	17.92
213.72	50.69
213.938	58.88
214.157	-25.09
214.375	52.74
214.594	40.45
214.812	24.06
215.031	-8.7
215.249	1.54
215.467	103.93
215.686	-29.18
215.904	9.73
216.122	-12.8
216.341	110.08
216.559	54.78
216.778	-37.38
216.996	-49.66
217.214	69.12
217.432	-33.28
217.651	65.02
217.869	7.68
218.087	19.97
218.306	34.3
218.524	42.5
218.742	30.21
218.96	13.82
219.179	5.63
219.397	60.93
219.615	138.75
219.833	52.74
220.051	-61.95
220.27	44.54
220.488	-49.66
220.706	77.31
220.924	46.59
221.142	-0.51
221.36	60.93
221.578	46.59
221.796	36.35
222.015	19.97
222.233	40.45
222.451	112.13
222.669	60.93
222.887	87.55
223.105	5.63
223.323	30.21
223.541	-4.61
223.759	-47.62
223.977	-6.66
224.195	40.45
224.413	3.58
224.631	65.02
224.849	-27.14
225.067	7.68
225.285	3.58
225.503	62.98
225.721	19.97
225.939	38.4
226.157	38.4
226.375	48.64
226.592	-55.81
226.81	50.69
227.028	36.35
227.246	-12.8
227.464	105.98
227.682	87.55
227.9	83.45
228.117	17.92
228.335	30.21
228.553	50.69
228.771	58.88
228.989	103.93
229.206	7.68
229.424	42.5
229.642	36.35
229.86	112.13
230.077	22.02
230.295	114.17
230.513	34.3
230.731	17.92
230.948	50.69
231.166	54.78
231.384	67.07
231.601	38.4
231.819	56.83
232.037	-18.94
232.254	-0.51
232.472	-6.66
232.689	22.02
232.907	65.02
233.125	19.97
233.342	67.07
233.56	-47.62
233.777	60.93
233.995	9.73
234.213	38.4
234.43	-31.23
234.648	19.97
234.865	-2.56
235.083	-12.8
235.3	32.26
235.518	42.5
235.735	30.21
235.953	-45.57
236.17	-2.56
236.388	9.73
236.605	22.02
236.822	30.21
237.04	11.78
237.257	69.12
237.475	3.58
237.692	40.45
237.909	69.12
238.127	50.69
238.344	-37.38
238.562	32.26
238.779	9.73
238.996	-74.24
239.214	-31.23
239.431	30.21
239.648	56.83
239.865	22.02
240.083	114.17
240.3	48.64
240.517	-25.09
240.735	-6.66
240.952	79.36
241.169	73.21
241.386	-31.23
241.603	3.58
241.821	-14.85
242.038	42.5
242.255	-20.99
242.472	38.4
242.689	34.3
242.907	-6.66
243.124	54.78
243.341	36.35
243.558	-6.66
243.775	-49.66
243.992	-4.61
244.209	-2.56
244.426	46.59
244.643	36.35
244.86	-12.8
245.078	11.78
245.295	60.93
245.512	87.55
245.729	75.26
245.946	5.63
246.163	56.83
246.38	-37.38
246.597	24.06
246.814	65.02
247.031	71.17
247.248	81.41
247.464	97.79
247.681	95.74
247.898	9.73
248.115	67.07
248.332	-45.57
248.549	-27.14
248.766	13.82
248.983	24.06
249.2	-4.61
249.417	62.98
249.633	-45.57
249.85	-45.57
250.067	-31.23
250.284	-8.7
250.501	65.02
250.717	19.97
250.934	3.58
251.151	42.5
251.368	73.21
251.585	19.97
251.801	83.45
252.018	26.11
252.235	79.36
252.451	-25.09
252.668	-18.94
252.885	24.06
253.102	83.45
253.318	-14.85
253.535	46.59
253.752	77.31
253.968	42.5
254.185	32.26
254.401	1.54
254.618	73.21
254.835	73.21
255.051	77.31
255.268	67.07
255.484	-31.23
255.701	24.06
255.917	17.92
256.134	-8.7
256.351	91.65
256.567	65.02
256.784	-14.85
257	38.4
257.217	34.3
257.433	32.26
257.65	73.21
257.866	46.59
258.082	32.26
258.299	-6.66
258.515	85.5
258.732	-33.28
258.948	-2.56
259.165	1.54
259.381	62.98
259.597	46.59
259.814	-0.51
260.03	26.11
260.246	97.79
260.463	75.26
260.679	24.06
260.895	1.54
261.112	42.5
261.328	-47.62
261.544	-0.51
261.761	58.88
261.977	38.4
262.193	17.92
262.409	17.92
262.626	108.03
262.842	46.59
263.058	28.16
263.274	56.83
263.49	50.69
263.707	38.4
263.923	36.35
264.139	87.55
264.355	28.16
264.571	116.22
264.787	5.63
265.004	32.26
265.22	79.36
265.436	-14.85
265.652	7.68
265.868	-6.66
266.084	15.87
266.3	9.73
266.516	36.35
266.732	46.59
266.948	24.06
267.164	50.69
267.38	3.58
267.596	40.45
267.812	40.45
268.028	50.69
268.244	-49.66
268.46	28.16
268.676	24.06
268.892	-4.61
269.108	7.68
269.324	52.74
269.54	9.73
269.756	69.12
269.972	22.02
270.188	93.69
270.403	1.54
270.619	62.98
270.835	13.82
271.051	46.59
271.267	-18.94
271.483	-18.94
271.698	-14.85
271.914	15.87
272.13	56.83
272.346	17.92
272.562	-31.23
272.777	50.69
272.993	85.5
273.209	22.02
273.425	9.73
273.64	-35.33
273.856	-25.09
274.072	40.45
274.287	-2.56
274.503	48.64
274.719	79.36
274.934	9.73
275.15	30.21
275.366	19.97
275.581	26.11
275.797	46.59
276.012	34.3
276.228	-14.85
276.444	32.26
276.659	46.59
276.875	-47.62
277.09	56.83
277.306	7.68
277.521	5.63
277.737	1.54
277.952	7.68
278.168	22.02
278.383	28.16
278.599	56.83
278.814	83.45
279.03	77.31
279.245	28.16
279.461	-25.09
279.676	44.54
279.892	105.98
280.107	-20.99
280.322	9.73
280.538	-6.66
280.753	3.58
280.969	15.87
281.184	3.58
281.399	24.06
281.615	28.16
281.83	44.54
282.045	38.4
282.26	58.88
282.476	-16.9
282.691	-18.94
282.906	-10.75
283.122	38.4
283.337	-2.56
283.552	5.63
283.767	50.69
283.983	42.5
284.198	32.26
284.413	17.92
284.628	-16.9
284.843	-25.09
285.058	79.36
285.274	93.69
285.489	17.92
285.704	77.31
285.919	81.41
286.134	-6.66
286.349	-10.75
286.564	62.98
286.779	116.22
286.995	-6.66
287.21	-29.18
287.425	26.11
287.64	17.92
287.855	22.02
288.07	28.16
288.285	46.59
288.5	24.06
288.715	60.93
288.93	36.35
289.145	99.84
289.36	54.78
289.575	81.41
289.79	36.35
290.004	-0.51
290.219	17.92
290.434	83.45
290.649	-0.51
290.864	-39.42
291.079	15.87
291.294	32.26
291.509	-16.9
291.724	42.5
291.938	11.78
292.153	52.74
292.368	15.87
292.583	-59.9
292.798	1.54
293.012	50.69
293.227	87.55
293.442	79.36
293.657	67.07
293.871	26.11
294.086	-27.14
294.301	52.74
294.516	56.83
294.73	34.3
294.945	69.12
295.16	56.83
295.374	73.21
295.589	56.83
295.804	5.63
296.018	71.17
296.233	32.26
296.447	71.17
296.662	28.16
296.877	75.26
297.091	19.97
297.306	46.59
297.52	-10.75
297.735	71.17
297.949	65.02
298.164	13.82
298.378	30.21
298.593	-8.7
298.807	26.11
299.022	38.4
299.236	34.3
299.451	65.02
299.665	-31.23
299.88	19.97
300.094	24.06
300.309	87.55
300.523	99.84
300.737	56.83
300.952	46.59
301.166	42.5
301.381	46.59
301.595	24.06
301.809	28.16
302.024	36.35
302.238	13.82
302.452	30.21
302.667	22.02
302.881	69.12
303.095	124.41
303.309	75.26
303.524	3.58
303.738	65.02
303.952	11.78
304.166	26.11
304.381	-2.56
304.595	67.07
304.809	-18.94
305.023	52.74
305.237	40.45
305.452	-20.99
305.666	9.73
305.88	110.08
306.094	69.12
306.308	15.87
306.522	5.63
306.736	46.59
306.95	30.21
307.164	19.97
307.379	44.54
307.593	48.64
307.807	26.11
308.021	34.3
308.235	62.98
308.449	11.78
308.663	60.93
308.877	97.79
309.091	-23.04
309.305	60.93
309.519	28.16
309.733	136.7
309.947	-16.9
310.161	58.88
310.374	42.5
310.588	58.88
310.802	58.88
311.016	44.54
311.23	30.21
311.444	13.82
311.658	75.26
311.872	5.63
312.085	26.11
312.299	91.65
312.513	56.83
312.727	50.69
312.941	50.69
313.154	-23.04
313.368	32.26
313.582	60.93
313.796	7.68
314.009	-47.62
314.223	-47.62
314.437	17.92
314.651	5.63
314.864	40.45
315.078	9.73
315.292	32.26
315.505	48.64
315.719	69.12
315.933	34.3
316.146	28.16
316.36	-33.28
316.573	103.93
316.787	89.6
317.001	-18.94
317.214	56.83
317.428	69.12
317.641	30.21
317.855	36.35
318.068	3.58
318.282	-14.85
318.495	19.97
318.709	116.22
318.922	-18.94
319.136	42.5
319.349	-12.8
319.563	65.02
319.776	56.83
319.99	-0.51
320.203	3.58
320.417	69.12
320.63	108.03
320.843	103.93
321.057	75.26
321.27	97.79
321.483	91.65
321.697	40.45
321.91	17.92
322.124	-14.85
322.337	19.97
322.55	56.83
322.763	30.21
322.977	42.5
323.19	122.37
323.403	38.4
323.617	32.26
323.83	42.5
324.043	48.64
324.256	-18.94
324.469	52.74
324.683	62.98
324.896	116.22
325.109	56.83
325.322	-66.05
325.535	73.21
325.748	46.59
325.962	-8.7
326.175	48.64
326.388	62.98
326.601	34.3
326.814	36.35
327.027	5.63
327.24	97.79
327.453	95.74
327.666	118.27
327.879	56.83
328.092	69.12
328.305	30.21
328.518	15.87
328.731	38.4
328.944	91.65
329.157	93.69
329.37	19.97
329.583	75.26
329.796	50.69
330.009	32.26
330.222	85.5
330.435	93.69
330.648	32.26
330.861	26.11
331.073	46.59
331.286	75.26
331.499	9.73
331.712	38.4
331.925	46.59
332.138	50.69
332.35	118.27
332.563	-49.66
332.776	42.5
332.989	87.55
333.202	15.87
333.414	32.26
333.627	75.26
333.84	87.55
334.053	108.03
334.265	-2.56
334.478	44.54
334.691	65.02
334.903	103.93
335.116	11.78
335.329	17.92
335.541	15.87
335.754	28.16
335.966	28.16
336.179	40.45
336.392	40.45
336.604	30.21
336.817	1.54
337.029	-0.51
337.242	24.06
337.454	83.45
337.667	42.5
337.88	95.74
338.092	11.78
338.305	83.45
338.517	30.21
338.729	36.35
338.942	48.64
339.154	32.26
339.367	-6.66
339.579	71.17
339.792	17.92
340.004	138.75
340.217	34.3
340.429	77.31
340.641	81.41
340.854	34.3
341.066	22.02
341.278	11.78
341.491	48.64
341.703	44.54
341.915	83.45
342.128	112.13
342.34	89.6
342.552	24.06
342.764	67.07
342.977	30.21
343.189	13.82
343.401	67.07
343.613	42.5
343.826	22.02
344.038	7.68
344.25	79.36
344.462	48.64
344.674	30.21
344.886	19.97
345.099	46.59
345.311	73.21
345.523	81.41
345.735	22.02
345.947	19.97
346.159	54.78
346.371	81.41
346.583	-39.42
346.795	89.6
347.007	1.54
347.219	71.17
347.431	17.92
347.643	97.79
347.855	87.55
348.067	19.97
348.279	26.11
348.491	93.69
348.703	75.26
348.915	-0.51
349.127	13.82
349.339	65.02
349.551	-16.9
349.763	71.17
349.975	11.78
350.187	9.73
350.399	101.89
350.61	40.45
350.822	28.16
351.034	19.97
351.246	40.45
351.458	40.45
351.669	38.4
351.881	108.03
352.093	1.54
352.305	42.5
352.517	7.68
352.728	62.98
352.94	-2.56
353.152	67.07
353.363	40.45
353.575	5.63
353.787	-12.8
353.999	26.11
354.21	163.33
354.422	91.65
354.633	71.17
354.845	67.07
355.057	101.89
355.268	32.26
355.48	1.54
355.692	34.3
355.903	48.64
356.115	38.4
356.326	30.21
356.538	32.26
356.749	48.64
356.961	126.46
357.172	101.89
357.384	5.63
357.595	81.41
357.807	44.54
358.018	38.4
358.23	24.06
358.441	91.65
358.653	62.98
358.864	34.3
359.075	71.17
359.287	75.26
359.498	93.69
359.709	-39.42
359.921	44.54
360.132	44.54
360.344	32.26
360.555	87.55
360.766	7.68
360.977	-10.75
361.189	99.84
361.4	30.21
361.611	79.36
361.823	108.03
362.034	42.5
362.245	46.59
362.456	67.07
362.667	114.17
362.879	79.36
363.09	-16.9
363.301	32.26
363.512	67.07
363.723	95.74
363.935	56.83
364.146	50.69
364.357	81.41
364.568	108.03
364.779	17.92
364.99	15.87
365.201	30.21
365.412	97.79
365.623	58.88
365.834	89.6
366.045	-51.71
366.256	97.79
366.467	30.21
366.678	71.17
366.889	58.88
367.1	26.11
367.311	89.6
367.522	165.37
367.733	22.02
367.944	120.32
368.155	112.13
368.366	48.64
368.577	52.74
368.788	60.93
368.999	58.88
369.209	24.06
369.42	112.13
369.631	67.07
369.842	22.02
370.053	56.83
370.264	34.3
370.474	54.78
370.685	46.59
370.896	81.41
371.107	15.87
371.317	32.26
371.528	138.75
371.739	77.31
371.95	46.59
372.16	26.11
372.371	22.02
372.582	116.22
372.792	3.58
373.003	130.56
373.214	87.55
373.424	105.98
373.635	46.59
373.846	32.26
374.056	101.89
374.267	77.31
374.477	95.74
374.688	91.65
374.898	56.83
375.109	85.5
375.319	58.88
375.53	146.94
375.74	19.97
375.951	44.54
376.161	7.68
376.372	114.17
376.582	93.69
376.793	34.3
377.003	118.27
377.214	56.83
377.424	19.97
377.635	108.03
377.845	28.16
378.055	62.98
378.266	54.78
378.476	83.45
378.686	54.78
378.897	15.87
379.107	105.98
379.317	36.35
379.528	58.88
379.738	38.4
379.948	89.6
380.158	42.5
380.369	24.06
380.579	67.07
380.789	83.45
380.999	13.82
381.21	30.21
381.42	97.79
381.63	44.54
381.84	128.51
382.05	11.78
382.261	34.3
382.471	11.78
382.681	-6.66
382.891	67.07
383.101	79.36
383.311	60.93
383.521	185.85
383.731	22.02
383.941	52.74
384.151	13.82
384.361	69.12
384.571	54.78
384.781	60.93
384.991	144.89
385.201	40.45
385.411	65.02
385.621	103.93
385.831	40.45
386.041	17.92
386.251	73.21
386.461	138.75
386.671	62.98
386.881	50.69
387.091	50.69
387.301	26.11
387.511	81.41
387.72	75.26
387.93	40.45
388.14	36.35
388.35	124.41
388.56	89.6
388.769	44.54
388.979	69.12
389.189	-33.28
389.399	54.78
389.609	22.02
389.818	65.02
390.028	50.69
390.238	114.17
390.447	-23.04
390.657	101.89
390.867	-6.66
391.076	89.6
391.286	87.55
391.496	-4.61
391.705	17.92
391.915	71.17
392.125	79.36
392.334	91.65
392.544	46.59
392.753	134.65
392.963	130.56
393.172	126.46
393.382	91.65
393.591	58.88
393.801	42.5
394.01	112.13
394.22	101.89
394.429	77.31
394.639	75.26
394.848	52.74
395.058	144.89
395.267	15.87
395.477	116.22
395.686	77.31
395.895	38.4
396.105	136.7
396.314	122.37
396.524	108.03
396.733	79.36
396.942	148.99
397.152	189.95
397.361	77.31
397.57	75.26
397.78	146.94
397.989	103.93
398.198	148.99
398.407	69.12
398.617	128.51
398.826	116.22
399.035	112.13
399.244	151.04
399.453	42.5
399.663	171.52
399.872	171.52
400.081	34.3
400.29	132.61
400.499	40.45
400.708	140.8
400.917	85.5
401.127	187.9
401.336	67.07
401.545	140.8
401.754	144.89
401.963	136.7
402.172	108.03
402.381	105.98
402.59	132.61
402.799	116.22
403.008	187.9
403.217	169.47
403.426	151.04
403.635	69.12
403.844	239.1
404.053	189.95
404.262	87.55
404.471	177.66
404.68	171.52
404.888	179.71
405.097	183.81
405.306	212.48
405.515	120.32
405.724	161.28
405.933	232.96
406.142	183.81
406.35	232.96
406.559	114.17
406.768	216.57
406.977	278.01
407.185	167.42
407.394	294.4
407.603	329.21
407.812	239.1
408.02	290.3
408.229	224.76
408.438	337.4
408.646	282.11
408.855	349.69
409.064	300.54
409.272	280.06
409.481	288.25
409.69	374.27
409.898	349.69
410.107	364.03
410.315	454.14
410.524	368.12
410.733	386.55
410.941	384.51
411.15	472.57
411.358	392.7
411.567	468.47
411.775	509.43
411.984	519.67
412.192	458.23
412.401	437.75
412.609	534.01
412.818	548.34
413.026	593.4
413.234	595.45
413.443	652.79
413.651	634.36
413.86	708.09
414.068	775.67
414.276	634.36
414.485	669.17
414.693	804.34
414.901	826.87
415.11	839.16
415.318	837.11
415.526	949.75
415.734	890.35
415.943	830.96
416.151	949.75
416.359	978.42
416.567	1007.09
416.776	1066.48
416.984	1211.89
417.192	1213.93
417.4	1191.41
417.608	1136.11
417.817	1230.32
418.025	1332.72
418.233	1361.39
418.441	1310.19
418.649	1510.89
418.857	1625.58
419.065	1557.99
419.273	1560.04
419.481	1656.29
419.689	1816.04
419.897	1807.84
420.105	1750.5
420.313	1889.76
420.521	2004.45
420.729	1859.04
420.937	2012.64
421.145	2121.18
421.353	2121.18
421.561	2268.64
421.769	2334.17
421.977	2420.19
422.185	2430.43
422.393	2508.25
422.601	2719.19
422.809	2665.94
423.017	2690.52
423.224	2864.6
423.432	3016.15
423.64	3114.45
423.848	3175.89
424.056	3255.76
424.263	3368.4
424.471	3347.92
424.679	3438.03
424.887	3696.07
425.094	3743.17
425.302	3814.85
425.51	3913.16
425.718	4079.04
425.925	4183.49
426.133	4214.21
426.341	4584.89
426.548	4746.68
426.756	4720.06
426.964	4883.89
427.171	5086.64
427.379	5178.8
427.586	5318.06
427.794	5672.36
428.001	5668.27
428.209	5801.38
428.417	5860.77
428.624	6251.94
428.832	6397.34
429.039	6299.04
429.247	6145.44
429.454	6864.28
429.662	7472.53
429.869	6722.97
430.076	7431.57
430.284	7144.85
430.491	7351.7
430.699	7871.88
430.906	7933.32
431.114	8101.25
431.321	8236.42
431.528	8635.77
431.736	9158
431.943	9282.93
432.15	9127.28
432.358	9334.13
432.565	9596.27
432.772	9985.38
432.979	10200.42
433.187	10595.68
433.394	10476.9
433.601	11044.18
433.808	11095.38
434.016	11294.04
434.223	11709.77
434.43	12430.66
434.637	12064.07
434.844	12895.55
435.052	12971.32
435.259	12920.12
435.466	13126.97
435.673	12932.41
435.88	13911.34
436.087	14679.33
436.294	14652.7
436.501	14314.79
436.708	14458.15
436.915	15117.59
437.122	15602.96
437.329	15658.26
437.537	16401.67
437.743	16395.53
437.95	16469.25
438.157	17161.47
438.364	17976.56
438.571	17628.4
438.778	17882.35
438.985	19647.7
439.192	18902.24
439.399	19358.94
439.606	18765.03
439.813	20049.1
440.02	21124.29
440.227	20647.11
440.433	20894.91
440.64	21279.93
440.847	21337.27
441.054	21617.85
441.261	23268.51
441.467	23028.9
441.674	23526.55
441.881	24194.19
442.088	24122.51
442.294	24231.05
442.501	24802.44
442.708	25072.77
442.914	26440.81
443.121	27047.01
443.328	26537.07
443.534	28351.57
443.741	27683.93
443.948	27223.14
444.154	29049.92
444.361	28951.62
444.568	29295.68
444.774	29230.15
444.981	29463.61
445.187	30522.41
445.394	31599.65
445.6	31364.13
445.807	34255.86
446.013	32783.37
446.22	33756.16
446.426	34247.67
446.633	34900.97
446.839	35466.21
447.046	34587.63
447.252	36576.21
447.459	36436.95
447.665	36457.43
447.871	38243.26
448.078	39762.85
448.284	37604.29
448.491	38773.68
448.697	40256.41
448.903	40913.81
449.11	40973.2
449.316	40467.35
449.522	41325.45
449.728	41894.78
449.935	42462.07
450.141	42513.27
450.347	43266.92
450.553	42007.42
450.76	42441.59
450.966	43803.49
451.172	43418.47
451.378	44145.5
451.584	43406.19
451.791	44659.54
451.997	44350.3
452.203	44583.77
452.409	44962.64
452.615	44931.92
452.821	43426.67
453.027	42701.68
453.233	45026.13
453.44	42767.22
453.646	43858.79
453.852	43823.97
454.058	44350.3
454.264	42716.02
454.47	43338.6
454.676	42842.99
454.882	43815.78
455.088	39945.12
455.294	40870.8
455.5	41194.38
455.705	41669.51
455.911	40213.4
456.117	39580.58
456.323	38794.16
456.529	36455.38
456.735	38810.54
456.941	37483.46
457.147	36582.35
457.352	35353.57
457.558	35290.09
457.764	35378.15
457.97	34558.96
458.176	33833.98
458.381	33780.73
458.587	32185.36
458.793	32048.15
458.999	30671.92
459.204	32590.86
459.41	31902.75
459.616	29742.14
459.821	29840.44
460.027	29977.65
460.233	29258.82
460.438	27661.4
460.644	28116.05
460.85	26969.19
461.055	26315.89
461.261	26027.12
461.466	24435.85
461.672	23643.29
461.878	25236.61
462.083	23446.68
462.289	23137.44
462.494	22893.73
462.7	22000.82
462.905	21200.06
463.111	22080.69
463.316	22178.99
463.522	21494.97
463.727	21808.31
463.932	21517.5
464.138	21470.39
464.343	21257.4
464.549	20933.82
464.754	21562.55
464.959	21873.84
465.165	21441.72
465.37	20856
465.575	20085.97
465.781	20786.37
465.986	20888.77
466.191	20374.73
466.397	19946.7
466.602	18930.91
466.807	19547.35
467.012	19621.08
467.218	19578.07
467.423	19457.24
467.628	19191
467.833	20075.73
468.038	19516.63
468.244	18998.49
468.449	19604.69
468.654	19150.04
468.859	18889.95
469.064	19238.11
469.269	17929.45
469.474	18171.11
469.679	18377.96
469.885	18005.23
470.09	18128.11
470.295	18138.35
470.5	17663.22
470.705	17769.71
470.91	17593.59
471.115	17323.26
471.32	17411.32
471.525	17439.99
471.73	16940.29
471.935	16745.73
472.139	16299.27
472.344	16526.6
472.549	16557.32
472.754	16264.46
472.959	15920.4
473.164	15537.43
473.369	15336.73
473.574	15971.6
473.778	15670.54
473.983	15535.38
474.188	15387.93
474.393	15074.59
474.598	15041.82
474.802	14722.34
475.007	14763.29
475.212	14566.69
475.417	14013.74
475.621	14112.04
475.826	14302.5
476.031	14069.03
476.235	13653.3
476.44	13989.16
476.645	13491.51
476.849	13792.56
477.054	13497.65
477.259	13231.41
477.463	13296.95
477.668	12815.68
477.872	13071.67
478.077	12801.34
478.282	12719.42
478.486	12580.16
478.691	12436.8
478.895	12465.47
479.1	12352.84
479.304	12436.8
479.509	12135.75
479.713	12221.77
479.918	11949.39
480.122	11738.44
480.326	12113.22
480.531	11904.33
480.735	11537.74
480.94	11578.7
481.144	12000.58
481.348	11560.27
481.553	11726.16
481.757	11277.65
481.961	11674.96
482.166	11760.97
482.37	11705.68
482.574	11519.31
482.778	11371.86
482.983	11859.28
483.187	11679.05
483.391	11752.78
483.595	11421.01
483.8	11310.42
484.004	11640.14
484.208	11705.68
484.412	11646.29
484.616	11599.18
484.821	11617.61
485.025	11474.26
485.229	11717.97
485.433	11556.18
485.637	11533.65
485.841	11558.22
486.045	11404.63
486.249	11717.97
486.453	11308.37
486.657	11451.73
486.861	11777.36
487.065	11156.82
487.269	11556.18
487.473	11378
487.677	11666.77
487.881	11722.06
488.085	11437.39
488.289	11709.77
488.493	11590.99
488.697	11670.86
488.901	11967.82
489.105	11515.22
489.309	11849.04
489.512	11722.06
489.716	11812.17
489.92	11640.14
490.124	11709.77
490.328	11885.9
490.531	11883.85
490.735	11801.93
490.939	11996.49
491.143	11918.67
491.346	11877.71
491.55	12062.02
491.754	12227.91
491.958	12080.46
492.161	12371.27
492.365	12367.17
492.569	12164.42
492.772	12219.72
492.976	12488
493.18	12502.34
493.383	12688.7
493.587	12275.01
493.79	12825.92
493.994	12637.5
494.197	12805.44
494.401	12901.69
494.605	12961.08
494.808	13120.82
495.012	13174.07
495.215	13266.23
495.419	13401.4
495.622	13315.38
495.825	13587.76
496.029	13741.36
496.232	13999.4
496.436	13684.02
496.639	14290.21
496.843	14150.95
497.046	14562.59
497.249	14734.62
497.453	14515.49
497.656	14767.39
497.859	14626.08
498.063	15146.26
498.266	15250.71
498.469	15228.18
498.673	15381.78
498.876	15584.53
499.079	15736.08
499.282	15764.75
499.485	16137.48
499.689	16121.1
499.892	16366.85
500.095	16428.29
500.298	16731.39
500.501	16749.82
500.705	17509.62
500.908	17478.9
501.111	17886.45
501.314	17839.34
501.517	17960.17
501.72	17986.8
501.923	18050.28
502.126	18627.81
502.329	18746.59
502.532	18900.19
502.735	18871.52
502.938	19447
503.141	19434.71
503.344	20069.58
503.547	19903.7
503.75	20483.27
503.953	20423.88
504.156	20714.69
504.359	20780.23
504.562	20843.71
504.765	21558.46
504.968	21775.54
505.17	21855.41
505.373	22095.02
505.576	22338.73
505.779	22621.35
505.982	22494.38
506.185	23098.53
506.387	23194.78
506.59	23553.18
506.793	24126.61
506.996	23870.61
507.198	24863.88
507.401	24425.61
507.604	24767.62
507.807	25517.18
508.009	25293.95
508.212	25926.77
508.415	26000.5
508.617	26119.28
508.82	26418.28
509.022	26004.6
509.225	27092.07
509.428	26702.95
509.63	27188.32
509.833	27425.89
510.035	28363.86
510.238	27743.32
510.44	28499.02
510.643	28662.86
510.845	28863.56
511.048	28824.65
511.25	29623.36
511.453	29774.91
511.655	30381.1
511.858	30278.71
512.06	30671.92
512.262	31200.29
512.465	30901.29
512.667	31507.49
512.87	31988.76
513.072	32023.58
513.274	32535.57
513.477	32648.21
513.679	33047.56
513.881	33514.5
514.084	33999.87
514.286	33518.59
514.488	34173.94
514.69	35085.29
514.893	34765.81
515.095	35075.05
515.297	35855.32
515.499	35965.92
515.701	36158.42
515.904	36574.16
516.106	36527.06
516.308	36948.94
516.51	37475.27
516.712	37651.39
516.914	38030.27
517.116	38149.05
517.318	38499.25
517.52	38620.08
517.722	39005.1
517.925	39216.04
518.127	40070.04
518.329	39971.74
518.531	40205.21
518.733	40610.71
518.935	41069.45
519.136	41458.57
519.338	41874.31
519.54	42134.4
519.742	42331
519.944	42523.51
520.146	43488.1
520.348	43670.37
520.55	43637.61
520.752	43895.65
520.954	44714.84
521.155	44204.89
521.357	45132.62
521.559	45744.97
521.761	45796.17
521.963	45833.03
522.164	46222.14
522.366	46224.19
522.568	46766.9
522.77	46736.18
522.971	47921.96
523.173	47031.09
523.375	47616.81
523.576	48057.12
523.778	48159.52
523.98	48878.36
524.181	48835.35
524.383	49163.03
524.584	49681.16
524.786	49783.56
524.988	49443.6
525.189	50184.96
525.391	50242.31
525.592	50625.28
525.794	50924.28
525.995	51043.06
526.197	50686.71
526.398	51321.58
526.6	51829.48
526.801	51698.41
527.003	52028.13
527.204	51663.6
527.406	52378.34
527.607	52472.54
527.808	52867.8
528.01	52267.75
528.211	52587.23
528.412	53508.82
528.614	53144.28
528.815	53377.75
529.016	54104.77
529.218	53125.85
529.419	53676.75
529.62	53754.57
529.822	53566.16
530.023	54016.71
530.224	54059.72
530.425	53963.46
530.626	53920.46
530.828	53496.53
531.029	54919.87
531.23	54196.93
531.431	54438.59
531.632	54655.68
531.833	55063.22
532.035	54311.62
532.236	54823.61
532.437	54995.64
532.638	54702.78
532.839	55061.18
533.04	55370.42
533.241	54086.34
533.442	55804.59
533.643	54854.33
533.844	55044.79
534.045	55610.03
534.246	54856.38
534.447	55325.36
534.648	55349.94
534.849	55509.68
535.05	54817.47
535.251	55229.11
535.451	55339.7
535.652	55872.17
535.853	55607.98
536.054	55712.43
536.255	56015.53
536.456	54987.45
536.657	56019.63
536.857	55493.3
537.058	55548.59
537.259	55700.14
537.46	55411.38
537.66	55560.88
537.861	55505.59
538.062	55399.09
538.263	55892.65
538.463	55333.56
538.664	55294.64
538.865	55911.08
539.065	55896.75
539.266	55405.23
539.466	55872.17
539.667	55112.38
539.868	56033.96
540.068	55849.64
540.269	55417.52
540.469	55745.2
540.67	55233.21
540.87	55470.77
541.071	55464.63
541.271	55829.16
541.472	55429.81
541.672	55194.29
541.873	55478.96
542.073	55151.29
542.274	56101.54
542.474	55270.07
542.675	55261.88
542.875	56005.29
543.075	55665.33
543.276	55028.41
543.476	55921.32
543.676	55569.07
543.877	55605.94
544.077	55110.33
544.277	55540.4
544.478	55313.08
544.678	55491.25
544.878	55728.81
545.078	55569.07
545.279	55120.57
545.479	55184.05
545.679	55949.99
545.879	55593.65
546.079	55251.64
546.28	55259.83
546.48	54758.08
546.68	55380.66
546.88	55632.56
547.08	55448.24
547.28	55298.74
547.48	55061.18
547.68	55290.55
547.88	54819.52
548.081	55603.89
548.281	55210.68
548.481	55468.72
548.681	55491.25
548.881	55532.21
549.081	55071.42
549.28	54885.05
549.48	54958.78
549.68	55364.28
549.88	55847.6
550.08	54749.88
550.28	55139
550.48	55290.55
550.68	55354.04
550.88	55069.37
551.08	54868.67
551.279	54995.64
551.479	54487.74
551.679	55403.19
551.879	55202.49
552.079	55184.05
552.278	54624.96
552.478	55165.62
552.678	55448.24
552.878	55540.4
553.077	55048.89
553.277	54348.48
553.477	55118.52
553.676	55073.46
553.876	54778.56
554.076	54717.12
554.275	54786.75
554.475	54524.61
554.674	54921.91
554.874	54702.78
555.074	54637.25
555.273	55028.41
555.473	54950.59
555.672	54264.52
555.872	54760.12
556.071	54823.61
556.271	55145.14
556.47	54311.62
556.67	53938.89
556.869	54241.99
557.068	54815.42
557.268	53549.77
557.467	54076.1
557.667	54153.93
557.866	53818.06
558.065	54055.62
558.265	54029
558.464	53750.48
558.663	54262.47
558.863	53373.65
559.062	54401.73
559.261	53258.96
559.461	54262.47
559.66	53086.93
559.859	53678.8
560.058	53469.9
560.258	53220.05
560.457	53119.7
560.656	53418.7
560.855	53234.39
561.054	53056.21
561.253	52955.86
561.453	53144.28
561.652	52927.19
561.851	53154.52
562.05	52783.83
562.249	52546.27
562.448	52884.19
562.647	52970.2
562.846	52959.96
563.045	52648.67
563.244	52275.94
563.443	52962.01
563.642	51641.07
563.841	52407.01
564.04	51772.14
564.239	52445.92
564.438	51864.3
564.637	51876.58
564.836	52044.52
565.035	51182.32
565.234	52220.64
565.432	50981.62
565.631	51313.39
565.83	51604.2
566.029	51346.16
566.228	50989.81
566.427	51055.35
566.625	50836.22
566.824	50410.24
567.023	50875.13
567.222	49982.21
567.42	50950.9
567.619	50539.26
567.818	50318.08
568.016	49939.21
568.215	50778.87
568.414	50096.9
568.612	50463.49
568.811	49832.71
569.01	49738.51
569.208	49273.62
569.407	49982.21
569.605	48778.01
569.804	50193.15
570.002	49021.72
570.201	49761.03
570.4	49373.97
570.598	48868.12
570.797	48739.1
570.995	48919.32
571.193	48515.87
571.392	48798.49
571.59	48425.76
571.789	48495.39
571.987	48468.76
572.186	48392.99
572.384	47989.54
572.582	48286.5
572.781	48159.52
572.979	47418.16
573.177	47962.92
573.376	48151.33
573.574	47248.18
573.772	47829.8
573.971	47647.53
574.169	47123.25
574.367	47065.91
574.565	47522.6
574.763	47102.77
574.962	47051.57
575.16	46621.5
575.358	46486.33
575.556	46238.53
575.754	46959.41
575.952	46015.3
576.151	46496.57
576.349	45841.22
576.547	46238.53
576.745	45626.18
576.943	46304.06
577.141	46031.68
577.339	46172.99
577.537	45513.55
577.735	45380.43
577.933	45413.2
578.131	45491.02
578.329	45280.08
578.527	44827.48
578.725	44874.58
578.923	45468.49
579.121	44757.85
579.319	44301.15
579.516	44913.49
579.714	44516.18
579.912	44229.47
580.11	44383.07
580.308	44507.99
580.506	44675.93
580.704	43789.16
580.901	44452.7
581.099	44460.89
581.297	43729.76
581.495	43776.87
581.692	43895.65
581.89	43674.47
582.088	43791.2
582.285	43391.85
582.483	43391.85
582.681	43164.53
582.878	42838.9
583.076	42853.23
583.274	43139.95
583.471	42431.35
583.669	42867.57
583.866	42687.35
584.064	42640.25
584.262	42355.58
584.459	42730.36
584.657	42195.84
584.854	42431.35
585.052	41872.26
585.249	42095.49
585.447	41679.75
585.644	41401.22
585.841	41958.27
586.039	41730.95
586.236	41159.56
586.434	40700.82
586.631	41221
586.828	41192.33
587.026	41046.93
587.223	40919.95
587.42	40756.11
587.618	40915.86
587.815	40756.11
588.012	40938.38
588.21	40584.08
588.407	40733.59
588.604	40360.86
588.801	39848.86
588.999	40024.99
589.196	40336.28
589.393	40049.56
589.59	39541.67
589.787	39650.21
589.984	39758.75
590.182	38896.56
590.379	39482.28
590.576	39115.69
590.773	39162.79
590.97	38912.94
591.167	39408.55
591.364	38767.54
591.561	38652.85
591.758	38386.61
591.955	38663.09
592.152	38706.1
592.349	38441.91
592.546	38454.2
592.743	38273.98
592.94	37864.38
593.137	38355.89
593.334	38286.26
593.531	37333.96
593.727	38257.59
593.924	37747.65
594.121	37389.25
594.318	37473.22
594.515	36830.16
594.712	37170.12
594.908	36946.89
595.105	36860.88
595.302	37088.2
595.499	37125.07
595.696	36832.21
595.892	36479.96
596.089	36875.21
596.286	36574.16
596.482	36531.15
596.679	36322.26
596.876	36324.31
597.072	35898.33
597.269	35834.85
597.466	35797.98
597.662	35843.04
597.859	35816.41
598.055	35941.34
598.252	35111.91
598.448	35412.96
598.645	35101.67
598.841	34978.79
599.038	35341.28
599.234	35027.95
599.431	35021.8
599.627	34751.47
599.824	34860.01
600.02	34827.24
600.217	34937.83
600.413	34472.95
600.609	34319.35
600.806	34343.92
601.002	34391.03
601.198	33999.87
601.395	33975.29
601.591	34022.39
601.787	33758.2
601.984	33725.44
602.18	34096.12
602.376	33829.88
602.572	33387.52
602.769	33440.77
602.965	33170.44
603.161	33590.27
603.357	33063.94
603.553	33285.12
603.75	33035.27
603.946	32752.65
604.142	32840.71
604.338	32199.7
604.534	32488.46
604.73	32713.74
604.926	32123.93
605.122	32492.56
605.318	32164.89
605.514	32283.67
605.71	32060.44
605.906	31990.81
606.102	32068.63
606.298	31980.57
606.494	31794.2
606.69	31822.87
606.886	31618.08
607.082	31413.28
607.278	31636.51
607.474	31153.19
607.67	31632.41
607.866	31167.52
608.062	31818.78
608.257	30952.49
608.453	30970.92
608.649	31599.65
608.845	31038.5
609.041	31089.7
609.236	31145
609.432	30835.75
609.628	30796.84
609.824	30772.27
610.019	30442.54
610.215	30567.47
610.411	30747.69
610.606	30334
610.802	30796.84
610.998	30542.89
611.193	30350.38
611.389	30239.79
611.584	30198.84
611.78	30012.47
611.976	30125.11
612.171	30397.49
612.367	30219.31
612.562	29946.94
612.758	29625.4
612.953	29441.09
613.149	30325.81
613.344	29666.36
613.539	30063.67
613.735	29787.19
613.93	29848.63
614.126	29324.35
614.321	29725.75
614.517	29908.02
614.712	29580.35
614.907	29516.86
615.103	29797.43
615.298	29273.15
615.493	29584.44
615.688	29004.87
615.884	29813.82
616.079	29027.4
616.274	29078.6
616.47	29256.77
616.665	29176.9
616.86	28806.22
617.055	28947.53
617.25	28564.56
617.445	29035.59
617.641	28527.69
617.836	28607.56
618.031	28511.31
618.226	28537.93
618.421	28824.65
618.616	28746.83
618.811	28044.37
619.006	28408.91
619.201	28120.15
619.396	28404.81
619.591	27677.79
619.786	27860.05
619.981	27513.95
620.176	28056.66
620.371	27497.56
620.566	27589.72
620.761	27309.15
620.956	27733.08
621.151	26909.8
621.346	27303.01
621.541	26971.24
621.735	26987.62
621.93	26395.76
622.125	26666.09
622.32	26205.3
622.515	26231.92
622.709	26240.11
622.904	25828.47
623.099	25982.07
623.294	25855.09
623.488	25302.14
623.683	26020.98
623.878	25306.24
624.072	25592.95
624.267	25549.95
624.462	25324.67
624.656	24941.7
624.851	24824.97
625.046	24933.51
625.24	24353.93
625.435	24407.18
625.629	24519.82
625.824	24306.83
626.018	24186
626.213	23639.19
626.407	23848.08
626.602	23887
626.796	24081.55
626.991	23817.36
627.185	23686.29
627.38	23334.04
627.574	23143.58
627.768	23092.38
627.963	23016.61
628.157	22834.34
628.352	22729.89
628.546	22801.57
628.74	22455.47
628.935	22244.52
629.129	22574.25
629.323	22228.14
629.517	22305.96
629.712	22201.52
629.906	21757.11
630.1	21626.04
630.294	21830.83
630.489	21540.02
630.683	21593.27
630.877	21189.82
631.071	21327.03
631.265	21261.5
631.459	21241.02
631.653	20966.59
631.848	20982.98
632.042	20708.55
632.236	20868.29
632.43	20458.7
632.624	20647.11
632.818	20346.06
633.012	20098.25
633.206	20249.8
633.4	20434.12
633.594	19668.18
633.788	19952.85
633.982	19961.04
634.176	19604.69
634.369	19246.3
634.563	19664.08
634.757	19201.24
634.951	19244.25
635.145	19221.72
635.339	19408.09
635.533	19182.81
635.726	18932.96
635.92	18754.79
636.114	18617.57
636.308	18803.94
636.501	18644.2
636.695	18627.81
636.889	18580.71
637.083	18220.27
637.276	18152.68
637.47	18169.07
637.664	18019.57
637.857	18066.67
638.051	17833.2
638.244	17708.27
638.438	17831.15
638.632	17573.11
638.825	17427.7
639.019	17351.93
639.212	17296.63
639.406	17259.77
639.599	17077.5
639.793	16942.33
639.986	16872.7
640.18	17032.44
640.373	16835.84
640.567	16721.15
640.76	16749.82
640.954	16471.3
641.147	16319.75
641.34	16317.7
641.534	16450.82
641.727	16301.32
641.92	16121.1
642.114	15947.02
642.307	16065.8
642.5	15811.85
642.694	15559.95
642.887	15801.61
643.08	15861.01
643.273	15564.05
643.467	15314.2
643.66	15328.53
643.853	15306.01
644.046	15301.91
644.239	15291.67
644.432	15226.14
644.626	15017.24
644.819	15023.39
645.012	15117.59
645.205	14839.07
645.398	14966.04
645.591	14570.79
645.784	14710.05
645.977	14558.5
646.17	14378.28
646.363	14267.69
646.556	14327.08
646.749	14091.56
646.942	14341.41
647.135	13995.31
647.328	14066.99
647.521	13935.92
647.714	13810.99
647.907	13933.87
648.099	13638.96
648.292	13989.16
648.485	13684.02
648.678	13448.5
648.871	13395.25
649.064	13399.35
649.256	13630.77
649.449	13497.65
649.642	13221.17
649.835	13159.74
650.027	13186.36
650.22	13022.52
650.413	12916.03
650.605	12936.51
650.798	12928.31
650.991	12625.22
651.183	12668.22
651.376	12684.61
651.568	12623.17
651.761	12569.92
651.954	12277.06
652.146	12385.6
652.339	12365.12
652.531	12248.39
652.724	12141.89
652.916	11853.13
653.109	11937.1
653.301	11840.84
653.494	12010.82
653.686	11822.41
653.879	11955.53
654.071	11795.79
654.263	11713.87
654.456	11642.19
654.648	11607.37
654.84	11509.07
655.033	11519.31
655.225	11345.23
655.417	11519.31
655.61	11122.01
655.802	11412.82
655.994	10980.7
656.186	11203.93
656.379	10919.26
656.571	11201.88
656.763	10755.42
656.955	10909.02
657.148	10859.87
657.34	10866.01
657.532	10648.93
657.724	10663.26
657.916	10538.34
658.108	10739.04
658.3	10468.7
658.492	10634.59
658.684	10325.35
658.876	10505.57
659.068	10198.37
659.26	10298.72
659.452	10202.47
659.644	10190.18
659.836	10026.34
660.028	10186.08
660.22	9864.55
660.412	10079.59
660.604	9842.03
660.796	9858.41
660.988	9950.57
661.18	9860.46
661.372	9745.77
661.563	9565.55
661.755	9745.77
661.947	9788.78
662.139	9661.8
662.331	9483.63
662.522	9303.41
662.714	9432.43
662.906	9323.89
663.097	9352.56
663.289	9115
663.481	9248.11
663.673	9258.35
663.864	9041.27
664.056	8936.82
664.247	9078.13
664.439	8822.14
664.631	8873.34
664.822	8793.47
665.014	8856.95
665.205	8772.99
665.397	8764.79
665.588	8703.36
665.78	8603
665.971	8709.5
666.163	8758.65
666.354	8369.54
666.546	8549.76
666.737	8267.14
666.929	8574.33
667.12	8134.02
667.311	8451.46
667.503	8048.01
667.694	8269.19
667.885	8238.47
668.077	8226.18
668.268	8015.24
668.459	8156.55
668.651	7990.66
668.842	7871.88
669.033	7882.12
669.224	7904.65
669.416	8185.22
669.607	7955.85
669.798	7808.39
669.989	7798.15
670.18	7761.29
670.371	7693.71
670.563	7685.51
670.754	7599.5
670.945	7542.16
671.136	7617.93
671.327	7820.68
671.518	7435.66
671.709	7753.1
671.9	7277.97
672.091	7368.08
672.282	7404.94
672.473	7368.08
672.664	7441.81
672.855	7198.1
673.046	7286.16
673.237	7255.44
673.428	7333.26
673.619	7222.67
673.809	7150.99
674	7048.6
674.191	7077.27
674.382	6948.25
674.573	7003.54
674.764	7177.62
674.954	6866.33
675.145	6833.56
675.336	6876.57
675.527	6843.8
675.717	6933.91
675.908	6811.03
676.099	6784.41
676.289	6661.53
676.48	6636.95
676.671	6675.87
676.861	6714.78
677.052	6524.32
677.243	6618.52
677.433	6458.78
677.624	6698.39
677.814	6626.71
678.005	6591.9
678.195	6583.71
678.386	6395.29
678.576	6380.96
678.767	6471.07
678.957	6469.02
679.148	6272.42
679.338	6374.81
679.529	6391.2
679.719	6342.05
679.909	6290.85
680.1	6151.59
680.29	6319.52
680.481	6084
680.671	6192.55
680.861	6223.27
681.052	6098.34
681.242	6186.4
681.432	6202.79
681.622	5975.46
681.813	5975.46
682.003	6102.43
682.193	6030.76
682.383	6004.13
682.573	5975.46
682.764	6024.61
682.954	5948.84
683.144	5858.73
683.334	5985.7
683.524	5737.9
683.714	5764.52
683.904	5762.47
684.094	5834.15
684.284	5871.01
684.474	5758.38
684.664	5713.32
684.854	5676.46
685.044	5684.65
685.234	5643.69
685.424	5631.4
685.614	5658.03
685.804	5617.07
685.994	5539.24
686.184	5522.86
686.374	5547.44
686.564	5350.83
686.753	5490.09
686.943	5447.08
687.133	5285.3
687.323	5363.12
687.513	5250.48
687.702	5526.96
687.892	5432.75
688.082	5344.69
688.272	5320.11
688.461	5371.31
688.651	5428.65
688.841	5273.01
689.03	5225.9
689.22	5139.89
689.41	5119.41
689.599	5215.66
689.789	5158.32
689.979	5137.84
690.168	5045.68
690.358	5047.73
690.547	5060.02
690.737	4976.05
690.926	4971.96
691.116	5039.54
691.305	5027.25
691.495	4898.23
691.684	4875.7
691.874	4922.8
692.063	4836.79
692.252	4896.18
692.442	4740.54
692.631	4904.37
692.82	4761.02
693.01	4855.22
693.199	4761.02
693.388	4664.76
693.578	4769.21
693.767	4801.97
693.956	4752.82
694.146	4785.59
694.335	4765.11
694.524	4593.08
694.713	4640.19
694.902	4552.12
695.092	4597.18
695.281	4619.71
695.47	4519.36
695.659	4523.45
695.848	4459.96
696.037	4382.14
696.226	4558.27
696.415	4488.64
696.604	4490.68
696.793	4484.54
696.982	4472.25
697.171	4353.47
697.36	4232.64
697.549	4335.04
697.738	4453.82
697.927	4404.67
698.116	4494.78
698.305	4392.38
698.494	4388.29
698.683	4365.76
698.872	4232.64
699.061	4390.33
699.25	4261.31
699.438	4271.55
699.627	4347.33
699.816	4410.81
700.005	4296.13
700.193	4234.69
700.382	4353.47
700.571	4302.27
700.76	4318.65
700.948	4388.29
701.137	4044.23
701.326	4281.79
701.514	4201.92
701.703	4085.19
701.892	4158.91
702.08	4224.45
702.269	4138.43
702.457	4265.41
702.646	4216.26
702.834	4150.72
703.023	4214.21
703.212	4191.68
703.4	4298.17
703.589	4068.8
703.777	4279.74
703.965	4122.05
704.154	4189.63
704.342	4066.75
704.531	4036.03
704.719	4023.75
704.907	4036.03
705.096	4042.18
705.284	4165.06
705.472	4064.71
705.661	3939.78
705.849	3945.92
706.037	4007.36
706.226	4007.36
706.414	4040.13
706.602	3962.31
706.79	3966.4
706.979	3806.66
707.167	3898.82
707.355	3911.11
707.543	3956.16
707.731	3956.16
707.919	3921.35
708.107	3814.85
708.296	3939.78
708.484	3921.35
708.672	3943.88
708.86	4015.55
709.048	4005.31
709.236	3878.34
709.424	3802.57
709.612	3855.81
709.8	3933.64
709.988	3814.85
710.176	3777.99
710.364	3800.52
710.551	3825.09
710.739	3868.1
710.927	3810.76
711.115	3775.94
711.303	3925.44
711.491	3864.01
711.679	3642.82
711.866	3792.33
712.054	3794.37
712.242	3630.54
712.43	3909.06
712.617	3655.11
712.805	3673.54
712.993	3765.7
713.181	3528.14
713.368	3732.94
713.556	3827.14
713.744	3712.46
713.931	3685.83
714.119	3587.53
714.306	3657.16
714.494	3657.16
714.682	3560.91
714.869	3550.67
715.057	3683.78
715.244	3661.26
715.432	3593.67
715.619	3610.06
715.807	3565
715.994	3638.73
716.182	3587.53
716.369	3595.72
716.556	3743.17
716.744	3499.47
716.931	3491.27
717.119	3497.42
717.306	3483.08
717.493	3532.23
717.681	3614.15
717.868	3476.94
718.055	3503.56
718.242	3429.84
718.43	3628.49
718.617	3517.9
718.804	3468.75
718.991	3593.67
719.179	3536.33
719.366	3413.45
719.553	3440.08
719.74	3423.69
719.927	3550.67
720.114	3468.75
720.301	3511.75
720.488	3290.57
720.676	3366.35
720.863	3313.1
721.05	3331.53
721.237	3378.64
721.424	3382.73
721.611	3278.29
721.798	3352.01
721.985	3227.09
722.172	3325.39
722.358	3237.33
722.545	3352.01
722.732	3364.3
722.919	3243.47
723.106	3261.9
723.293	3352.01
723.48	3253.71
723.667	3349.96
723.853	3292.62
724.04	3366.35
724.227	3124.69
724.414	3220.94
724.6	3284.43
724.787	3214.8
724.974	3192.27
725.161	3225.04
725.347	3120.59
725.534	3272.14
725.72	3163.6
725.907	3282.38
726.094	3257.81
726.28	3208.66
726.467	3108.3
726.653	3136.98
726.84	3167.7
727.027	3134.93
727.213	3022.29
727.4	3085.78
727.586	3065.3
727.773	3102.16
727.959	3159.5
728.145	3098.06
728.332	3153.36
728.518	3145.17
728.705	3165.65
728.891	3212.75
729.077	3040.72
729.264	3028.43
729.45	2917.84
729.636	3139.02
729.823	2921.94
730.009	3018.19
730.195	2958.8
730.382	3026.39
730.568	3075.54
730.754	3046.87
730.94	3012.05
731.126	3098.06
731.313	3046.87
731.499	3016.15
731.685	3110.35
731.871	3010
732.057	2989.52
732.243	2993.62
732.429	3028.43
732.615	2964.95
732.801	2971.09
732.987	2999.76
733.173	2983.38
733.359	2944.47
733.545	2934.23
733.731	2948.56
733.917	3116.5
734.103	2915.8
734.289	2921.94
734.475	3024.34
734.661	2864.6
734.847	2962.9
735.033	2944.47
735.219	2901.46
735.404	2923.99
735.59	2731.48
735.776	2864.6
735.962	2868.69
736.148	2897.36
736.333	2860.5
736.519	2772.44
736.705	2901.46
736.89	2821.59
737.076	2858.45
737.262	2723.29
737.447	2842.07
737.633	2745.81
737.819	2823.64
738.004	2682.33
738.19	2809.3
738.375	2774.49
738.561	2780.63
738.747	2733.53
738.932	2676.18
739.118	2827.73
739.303	2672.09
739.489	2815.45
739.674	2622.94
739.859	2717.14
740.045	2680.28
740.23	2614.74
740.416	2547.16
740.601	2670.04
740.786	2590.17
740.972	2665.94
741.157	2506.2
741.342	2692.57
741.528	2547.16
741.713	2571.74
741.898	2590.17
742.084	2530.78
742.269	2612.7
742.454	2520.54
742.639	2594.26
742.824	2469.34
743.01	2549.21
743.195	2485.72
743.38	2526.68
743.565	2547.16
743.75	2412
743.935	2530.78
744.12	2461.15
744.305	2448.86
744.49	2379.23
744.675	2463.19
744.86	2469.34
745.045	2348.51
745.23	2424.28
745.415	2368.99
745.6	2375.13
745.785	2377.18
745.97	2407.9
746.155	2332.12
746.34	2346.46
746.525	2262.49
746.71	2285.02
746.895	2332.12
747.079	2293.21
747.264	2282.97
747.449	2356.7
747.634	2246.11
747.819	2276.83
748.003	2221.53
748.188	2139.62
748.373	2166.24
748.557	2110.94
748.742	2221.53
748.927	2233.82
749.111	2127.33
749.296	1986.02
749.481	2041.31
749.665	2160.1
749.85	1988.07
750.034	2131.42
750.219	2106.85
750.404	2000.35
750.588	2061.79
750.773	2029.03
750.957	1990.11
751.141	1957.35
751.326	1881.57
751.51	1902.05
751.695	1897.96
751.879	1914.34
752.064	1934.82
752.248	1908.19
752.432	2043.36
752.617	1844.71
752.801	1848.8
752.985	1918.43
753.17	1754.6
753.354	1840.61
753.538	1725.93
753.722	1754.6
753.907	1738.21
754.091	1672.68
754.275	1734.12
754.459	1748.45
754.643	1730.02
754.828	1803.75
755.012	1715.69
755.196	1666.53
755.38	1773.03
755.564	1664.49
755.748	1682.92
755.932	1697.25
756.116	1586.66
756.3	1601
756.484	1654.25
756.668	1766.89
756.852	1578.47
757.036	1562.09
757.22	1517.03
757.404	1676.77
757.588	1535.46
757.772	1598.95
757.956	1586.66
758.14	1607.14
758.323	1494.51
758.507	1478.12
758.691	1406.44
758.875	1431.02
759.059	1498.6
759.242	1465.83
759.426	1396.2
759.61	1422.83
759.794	1381.87
759.977	1471.98
760.161	1453.55
760.345	1463.79
760.528	1443.31
760.712	1375.72
760.895	1392.11
761.079	1310.19
761.263	1314.28
761.446	1408.49
761.63	1400.3
761.813	1320.43
761.997	1369.58
762.18	1349.1
762.364	1295.85
762.547	1336.81
762.731	1371.63
762.914	1304.04
763.098	1295.85
763.281	1312.24
763.464	1271.28
763.648	1220.08
763.831	1283.56
764.015	1250.8
764.198	1299.95
764.381	1293.8
764.564	1234.41
764.748	1336.81
764.931	1207.79
765.114	1304.04
765.297	1232.37
765.481	1228.27
765.664	1199.6
765.847	1250.8
766.03	1226.22
766.213	1291.76
766.397	1254.89
766.58	1236.46
766.763	1207.79
766.946	1232.37
767.129	1211.89
767.312	1191.41
767.495	1113.58
767.678	1129.97
767.861	1230.32
768.044	1103.34
768.227	1177.07
768.41	1156.59
768.593	1197.55
768.776	1154.54
768.959	1148.4
769.142	1179.12
769.324	1070.58
769.507	1062.38
769.69	1160.69
769.873	1099.25
770.056	1080.82
770.239	1193.45
770.421	1156.59
770.604	1091.06
770.787	1005.04
770.97	1127.92
771.152	1039.86
771.335	1048.05
771.518	1150.45
771.7	1095.15
771.883	1099.25
772.066	970.23
772.248	1113.58
772.431	1029.62
772.613	964.08
772.796	992.75
772.978	1101.3
773.161	929.27
773.343	1066.48
773.526	998.9
773.708	1005.04
773.891	900.59
774.073	980.47
774.256	925.17
774.438	1011.18
774.621	882.16
774.803	937.46
774.985	908.79
775.168	980.47
775.35	970.23
775.532	951.79
775.715	929.27
775.897	896.5
776.079	869.87
776.261	968.18
776.444	904.69
776.626	890.35
776.808	888.31
776.99	857.59
777.173	837.11
777.355	957.94
777.537	904.69
777.719	808.44
777.901	902.64
778.083	824.82
778.265	720.37
778.447	845.3
778.629	843.25
778.811	841.2
778.993	847.35
779.175	798.2
779.357	861.68
779.539	740.85
779.721	724.47
779.903	830.96
780.085	761.33
780.267	798.2
780.449	759.28
780.631	736.76
780.812	689.65
780.994	744.95
781.176	769.52
781.358	747
781.54	779.76
781.721	703.99
781.903	777.72
782.085	620.02
782.267	654.84
782.448	624.12
782.63	673.27
782.812	638.45
782.993	691.7
783.175	656.89
783.357	630.26
783.538	632.31
783.72	648.69
783.901	695.8
784.083	589.3
784.264	607.73
784.446	615.93
784.627	527.86
784.809	611.83
784.99	634.36
785.172	587.26
785.353	603.64
785.535	562.68
785.716	560.63
785.897	652.79
786.079	617.97
786.26	583.16
786.441	534.01
786.623	474.62
786.804	568.82
786.985	505.34
787.167	548.34
787.348	525.82
787.529	558.58
787.71	607.73
787.891	495.1
788.073	511.48
788.254	525.82
788.435	433.66
788.616	503.29
788.797	464.38
788.978	519.67
789.159	546.3
789.34	458.23
789.522	509.43
789.703	499.19
789.884	521.72
790.065	474.62
790.246	509.43
790.427	390.65
790.607	513.53
790.788	413.18
790.969	409.08
791.15	493.05
791.331	474.62
791.512	441.85
791.693	427.51
791.874	366.07
792.054	521.72
792.235	394.75
792.416	404.99
792.597	437.75
792.778	429.56
792.958	425.47
793.139	413.18
793.32	402.94
793.5	394.75
793.681	462.33
793.862	349.69
794.042	439.8
794.223	312.83
794.404	409.08
794.584	335.35
794.765	370.17
794.945	368.12
795.126	341.5
795.306	411.13
795.487	386.55
795.667	372.22
795.848	421.37
796.028	378.36
796.209	357.88
796.389	398.84
796.57	437.75
796.75	407.03
796.93	409.08
797.111	353.79
797.291	370.17
797.471	382.46
797.652	327.16
797.832	407.03
798.012	390.65
798.192	394.75
798.373	325.12
798.553	452.09
798.733	351.74
798.913	325.12
799.093	382.46
799.274	308.73
799.454	384.51
799.634	353.79
799.814	300.54
799.994	361.98
800.174	339.45
800.354	310.78
800.534	259.58
800.714	267.77
800.894	271.87
801.074	318.97
801.254	361.98
801.434	329.21
801.614	280.06
801.794	239.1
801.974	669.17
802.154	290.3
802.334	247.29
802.514	251.39
802.693	288.25
802.873	302.59
803.053	308.73
803.233	304.64
803.413	357.88
803.592	312.83
803.772	239.1
803.952	296.44
804.131	228.86
804.311	296.44
804.491	275.96
804.67	202.24
804.85	296.44
805.03	290.3
805.209	288.25
805.389	267.77
805.568	241.15
805.748	263.68
805.928	237.05
806.107	308.73
806.287	316.92
806.466	269.82
806.646	241.15
806.825	273.92
807.004	290.3
807.184	212.48
807.363	255.48
807.543	222.72
807.722	263.68
807.901	140.8
808.081	325.12
808.26	251.39
808.439	239.1
808.619	292.35
808.798	210.43
808.977	216.57
809.156	247.29
809.336	302.59
809.515	224.76
809.694	232.96
809.873	255.48
810.052	302.59
810.231	306.68
810.411	249.34
810.59	253.44
810.769	251.39
810.948	243.2
811.127	179.71
811.306	206.33
811.485	214.52
811.664	204.28
811.843	220.67
812.022	216.57
812.201	245.24
812.38	204.28
812.559	206.33
812.737	265.72
812.916	202.24
813.095	138.75
813.274	202.24
813.453	196.09
813.632	177.66
813.811	325.12
813.989	220.67
814.168	189.95
814.347	214.52
814.526	108.03
814.704	235
814.883	265.72
815.062	110.08
815.24	294.4
815.419	235
815.598	251.39
815.776	108.03
815.955	202.24
816.133	167.42
816.312	243.2
816.49	114.17
816.669	183.81
816.847	144.89
817.026	144.89
817.204	177.66
817.383	124.41
817.561	163.33
817.74	189.95
817.918	198.14
818.097	173.57
818.275	155.13
818.453	194.05
818.632	132.61
818.81	165.37
818.988	163.33
819.167	77.31
819.345	132.61
819.523	132.61
819.701	167.42
819.879	181.76
820.058	112.13
820.236	142.85
820.414	138.75
820.592	122.37
820.77	130.56
820.948	128.51
821.127	192
821.305	163.33
821.483	124.41
821.661	192
821.839	116.22
822.017	118.27
822.195	226.81
822.373	165.37
822.551	175.61
822.729	108.03
822.907	189.95
823.085	151.04
823.262	128.51
823.44	153.09
823.618	173.57
823.796	97.79
823.974	153.09
824.152	183.81
824.329	134.65
824.507	134.65
824.685	120.32
824.863	99.84
825.04	112.13
825.218	179.71
825.396	75.26
825.574	93.69
825.751	126.46
825.929	112.13
826.107	79.36
826.284	46.59
826.462	116.22
826.639	83.45
826.817	93.69
826.994	161.28
827.172	93.69
827.349	181.76
827.527	126.46
827.704	204.28
827.882	69.12
828.059	192
828.237	144.89
828.414	67.07
828.591	146.94
828.769	103.93
828.946	140.8
829.124	130.56
829.301	134.65
829.478	138.75
829.655	60.93
829.833	62.98
830.01	101.89
830.187	114.17
830.364	140.8
830.542	200.19
830.719	136.7
830.896	134.65
831.073	91.65
831.25	44.54
831.427	89.6
831.604	132.61
831.782	83.45
831.959	69.12
832.136	91.65
832.313	148.99
832.49	124.41
832.667	56.83
832.844	110.08
833.021	181.76
833.198	108.03
833.374	126.46
833.551	71.17
833.728	91.65
833.905	30.21
834.082	-0.51
834.259	77.31
834.436	146.94
834.612	140.8
834.789	83.45
834.966	120.32
835.143	112.13
835.319	71.17
835.496	167.42
835.673	75.26
835.85	140.8
836.026	91.65
836.203	140.8
836.38	13.82
836.556	91.65
836.733	126.46
836.909	75.26
837.086	58.88
837.262	52.74
837.439	36.35
837.616	112.13
837.792	46.59
837.968	42.5
838.145	60.93
838.321	71.17
838.498	101.89
838.674	40.45
838.851	103.93
839.027	97.79
839.203	15.87
839.38	114.17
839.556	58.88
839.732	83.45
839.909	42.5
840.085	114.17
840.261	42.5
840.437	7.68
840.614	44.54
840.79	75.26
840.966	38.4
841.142	81.41
841.318	91.65
841.494	122.37
841.671	87.55
841.847	99.84
842.023	32.26
842.199	93.69
842.375	103.93
842.551	-25.09
842.727	118.27
842.903	132.61
843.079	60.93
843.255	52.74
843.431	65.02
843.607	-8.7
843.783	28.16
843.959	110.08
844.134	108.03
844.31	40.45
844.486	5.63
844.662	62.98
844.838	30.21
845.013	97.79
845.189	95.74
845.365	60.93
845.541	105.98
845.716	24.06
845.892	62.98
846.068	48.64
846.244	42.5
846.419	89.6
846.595	38.4
846.77	30.21
846.946	62.98
847.122	62.98
847.297	60.93
847.473	97.79
847.648	36.35
847.824	40.45
847.999	50.69
848.175	-16.9
848.35	-0.51
848.526	3.58
848.701	28.16
848.876	73.21
849.052	11.78
849.227	42.5
849.403	26.11
849.578	71.17
849.753	9.73
849.929	50.69
850.104	30.21
850.279	75.26
850.454	71.17
850.63	87.55
850.805	87.55
850.98	46.59
851.155	30.21
851.33	62.98
851.505	48.64
851.681	62.98
851.856	-4.61
852.031	52.74
852.206	56.83
852.381	13.82
852.556	-12.8
852.731	79.36
852.906	44.54
853.081	83.45
853.256	30.21
853.431	65.02
853.606	-6.66
853.781	24.06
853.956	-74.24
854.131	36.35
854.305	50.69
854.48	44.54
854.655	75.26
854.83	67.07
855.005	22.02
855.18	62.98
855.354	105.98
855.529	34.3
855.704	3.58
855.879	-4.61
856.053	24.06
856.228	83.45
856.403	79.36
856.577	67.07
856.752	75.26
856.926	17.92
857.101	42.5
857.276	15.87
857.45	56.83
857.625	81.41
857.799	-27.14
857.974	32.26
858.148	7.68
858.323	48.64
858.497	-4.61
858.672	54.78
858.846	48.64
859.02	62.98
859.195	62.98
859.369	32.26
859.543	42.5
859.718	-25.09
859.892	32.26
860.066	60.93
860.241	30.21
860.415	95.74
860.589	30.21
860.763	13.82
860.938	-4.61
861.112	40.45
861.286	-4.61
861.46	-0.51
861.634	-8.7
861.808	69.12
861.982	103.93
862.157	54.78
862.331	52.74
862.505	-2.56
862.679	101.89
862.853	26.11
863.027	38.4
863.201	97.79
863.375	62.98
863.549	17.92
863.722	-98.81
863.896	26.11
864.07	28.16
864.244	-6.66
864.418	-27.14
864.592	30.21
864.766	40.45
864.939	77.31
865.113	-14.85
865.287	-16.9
865.461	28.16
865.634	26.11
865.808	-35.33
865.982	81.41
866.156	44.54
866.329	-12.8
866.503	11.78
866.676	75.26
866.85	93.69
867.024	-16.9
867.197	15.87
867.371	30.21
867.544	-6.66
867.718	34.3
867.891	19.97
868.065	50.69
868.238	-35.33
868.412	26.11
868.585	-37.38
868.759	36.35
868.932	-25.09
869.105	-59.9
869.279	-53.76
869.452	-6.66
869.625	-2.56
869.799	19.97
869.972	-27.14
870.145	-23.04
870.319	-12.8
870.492	79.36
870.665	13.82
870.838	46.59
871.011	52.74
871.185	13.82
871.358	38.4
871.531	13.82
871.704	46.59
871.877	32.26
872.05	11.78
872.223	-33.28
872.396	89.6
872.569	48.64
872.742	-29.18
872.915	11.78
873.088	48.64
873.261	-51.71
873.434	22.02
873.607	91.65
873.78	-8.7
873.953	-12.8
874.126	-2.56
874.299	67.07
874.471	22.02
874.644	60.93
874.817	36.35
874.99	38.4
875.163	-6.66
875.335	30.21
875.508	-12.8
875.681	65.02
875.853	-6.66
876.026	-2.56
876.199	-35.33
876.371	73.21
876.544	-51.71
876.717	17.92
876.889	58.88
877.062	108.03
877.234	-37.38
877.407	48.64
877.579	26.11
877.752	-16.9
877.924	3.58
878.097	28.16
878.269	9.73
878.442	-25.09
878.614	81.41
878.786	87.55
878.959	-43.52
879.131	22.02
879.303	-12.8
879.476	85.5
879.648	-45.57
879.82	-25.09
879.993	15.87
880.165	17.92
880.337	26.11
880.509	-20.99
880.681	13.82
880.854	58.88
881.026	60.93
881.198	75.26
881.37	-29.18
881.542	5.63
881.714	-2.56
881.886	7.68
882.058	9.73
882.23	38.4
882.402	60.93
882.574	26.11
882.746	-12.8
882.918	32.26
883.09	38.4
883.262	73.21
883.434	40.45
883.606	-2.56
883.778	19.97
883.95	87.55
884.122	-43.52
884.293	89.6
884.465	1.54
884.637	52.74
884.809	-61.95
884.98	34.3
885.152	-25.09
885.324	62.98
885.496	-10.75
885.667	-39.42
885.839	3.58
886.011	36.35
886.182	38.4
886.354	13.82
886.525	26.11
886.697	-20.99
886.869	-66.05
887.04	-8.7
887.212	15.87
887.383	38.4
887.555	32.26
887.726	40.45
887.897	-6.66
888.069	73.21
888.24	-80.38
888.412	97.79
888.583	-35.33
888.754	-61.95
888.926	-18.94
889.097	-23.04
889.268	-80.38
889.44	46.59
889.611	36.35
889.782	-43.52
889.953	-18.94
890.125	79.36
890.296	-12.8
890.467	36.35
890.638	15.87
890.809	87.55
890.98	1.54
891.151	-33.28
891.323	-31.23
891.494	48.64
891.665	13.82
891.836	24.06
892.007	24.06
892.178	99.84
892.349	58.88
892.52	36.35
892.691	40.45
892.862	-20.99
893.032	-43.52
893.203	1.54
893.374	50.69
893.545	60.93
893.716	38.4
893.887	60.93
894.057	17.92
894.228	13.82
894.399	-4.61
894.57	93.69
894.74	22.02
894.911	65.02
895.082	71.17
895.253	40.45
895.423	65.02
895.594	62.98
895.764	22.02
895.935	-27.14
896.106	19.97
896.276	48.64
896.447	-47.62
896.617	32.26
896.788	11.78
896.958	-0.51
897.129	-23.04
897.299	-76.29
897.47	52.74
897.64	3.58
897.81	-29.18
897.981	50.69
898.151	-35.33
898.322	11.78
898.492	-55.81
898.662	34.3
898.832	-29.18
899.003	54.78
899.173	42.5
899.343	-8.7
899.513	13.82
