Data from USB4F104151__255__11-11-47-628.txt Node

Date: Wed Mar 12 11:11:47 EDT 2025
User: louis
Spectrometer: USB4F10415
Trigger mode: 4
Integration Time (sec): 2.000000E-2
Scans to average: 1
Electric dark correction enabled: true
Nonlinearity correction enabled: false
Boxcar width: 0
XAxis mode: Wavelengths
Number of Pixels in Spectrum: 3648
>>>>>Begin Spectral Data<<<<<
178.204	-9.22
178.424	-9.22
178.644	-9.22
178.864	-160.77
179.084	-103.42
179.304	-50.18
179.524	5.12
179.744	21.5
179.964	60.42
180.184	-1.02
180.404	39.94
180.624	-19.46
180.844	-5.12
181.064	-76.8
181.283	-39.94
181.503	33.79
181.723	31.74
181.943	-11.26
182.163	-60.42
182.383	-54.27
182.602	25.6
182.822	80.89
183.042	-25.6
183.262	-125.95
183.482	5.12
183.701	-91.13
183.921	68.61
184.141	-5.12
184.361	11.26
184.58	27.65
184.8	39.94
185.02	27.65
185.239	-11.26
185.459	-48.13
185.679	-29.7
185.898	-56.32
186.118	-17.41
186.338	15.36
186.557	74.75
186.777	-60.42
186.997	3.07
187.216	-9.22
187.436	-70.65
187.655	1.02
187.875	-11.26
188.095	-19.46
188.314	9.22
188.534	64.51
188.753	52.22
188.973	27.65
189.192	33.79
189.412	3.07
189.631	-3.07
189.851	39.94
190.07	1.02
190.29	-35.84
190.509	-21.5
190.729	66.56
190.948	9.22
191.168	31.74
191.387	56.32
191.607	-68.61
191.826	-60.42
192.045	54.27
192.265	3.07
192.484	21.5
192.704	-37.89
192.923	-29.7
193.142	35.84
193.362	-17.41
193.581	33.79
193.8	35.84
194.02	-64.51
194.239	-19.46
194.458	37.89
194.678	-17.41
194.897	-3.07
195.116	-29.7
195.335	9.22
195.555	50.18
195.774	1.02
195.993	64.51
196.212	-39.94
196.432	25.6
196.651	-44.03
196.87	-50.18
197.089	29.7
197.308	3.07
197.528	5.12
197.747	60.42
197.966	-31.74
198.185	37.89
198.404	-66.56
198.623	66.56
198.842	-29.7
199.062	37.89
199.281	60.42
199.5	-35.84
199.719	27.65
199.938	-1.02
200.157	39.94
200.376	-25.6
200.595	11.26
200.814	25.6
201.033	25.6
201.252	13.31
201.471	-5.12
201.69	31.74
201.909	41.98
202.128	3.07
202.347	-1.02
202.566	7.17
202.785	-11.26
203.004	-103.42
203.223	68.61
203.442	44.03
203.661	23.55
203.879	46.08
204.098	27.65
204.317	9.22
204.536	27.65
204.755	25.6
204.974	48.13
205.193	-9.22
205.411	29.7
205.63	-15.36
205.849	-11.26
206.068	-37.89
206.287	-17.41
206.505	-44.03
206.724	-23.55
206.943	-52.22
207.162	-13.31
207.381	-68.61
207.599	-41.98
207.818	-29.7
208.037	64.51
208.255	-62.46
208.474	-19.46
208.693	56.32
208.911	-27.65
209.13	56.32
209.349	37.89
209.567	48.13
209.786	62.46
210.005	-33.79
210.223	-76.8
210.442	-87.04
210.661	-11.26
210.879	44.03
211.098	-37.89
211.316	21.5
211.535	39.94
211.753	-27.65
211.972	-11.26
212.191	-58.37
212.409	-5.12
212.628	-39.94
212.846	-66.56
213.065	5.12
213.283	-27.65
213.502	13.31
213.72	-33.79
213.938	-17.41
214.157	-11.26
214.375	-25.6
214.594	31.74
214.812	-31.74
215.031	-80.89
215.249	50.18
215.467	-39.94
215.686	-7.17
215.904	56.32
216.122	5.12
216.341	97.28
216.559	-44.03
216.778	-44.03
216.996	48.13
217.214	23.55
217.432	-17.41
217.651	3.07
217.869	-35.84
218.087	17.41
218.306	-7.17
218.524	19.46
218.742	-5.12
218.96	11.26
219.179	56.32
219.397	17.41
219.615	72.7
219.833	25.6
220.051	-31.74
220.27	-39.94
220.488	-54.27
220.706	60.42
220.924	-25.6
221.142	-17.41
221.36	68.61
221.578	-33.79
221.796	21.5
222.015	48.13
222.233	-76.8
222.451	39.94
222.669	-9.22
222.887	1.02
223.105	-52.22
223.323	-54.27
223.541	-5.12
223.759	46.08
223.977	-50.18
224.195	76.8
224.413	-44.03
224.631	-5.12
224.849	5.12
225.067	-7.17
225.285	-21.5
225.503	-52.22
225.721	-58.37
225.939	-7.17
226.157	128
226.375	35.84
226.592	23.55
226.81	-9.22
227.028	9.22
227.246	58.37
227.464	-60.42
227.682	21.5
227.9	15.36
228.117	60.42
228.335	-70.65
228.553	-13.31
228.771	13.31
228.989	-31.74
229.206	-15.36
229.424	17.41
229.642	5.12
229.86	-27.65
230.077	52.22
230.295	-25.6
230.513	35.84
230.731	15.36
230.948	-1.02
231.166	-35.84
231.384	-17.41
231.601	41.98
231.819	31.74
232.037	-21.5
232.254	-11.26
232.472	1.02
232.689	-9.22
232.907	-17.41
233.125	17.41
233.342	-3.07
233.56	39.94
233.777	-66.56
233.995	-72.7
234.213	1.02
234.43	15.36
234.648	87.04
234.865	1.02
235.083	-17.41
235.3	-3.07
235.518	119.81
235.735	144.38
235.953	56.32
236.17	37.89
236.388	-62.46
236.605	11.26
236.822	37.89
237.04	35.84
237.257	27.65
237.475	-56.32
237.692	-3.07
237.909	-44.03
238.127	44.03
238.344	9.22
238.562	-7.17
238.779	-19.46
238.996	-3.07
239.214	70.65
239.431	23.55
239.648	37.89
239.865	33.79
240.083	7.17
240.3	3.07
240.517	-80.89
240.735	-37.89
240.952	23.55
241.169	1.02
241.386	-7.17
241.603	9.22
241.821	1.02
242.038	31.74
242.255	33.79
242.472	23.55
242.689	-13.31
242.907	-7.17
243.124	-11.26
243.341	-17.41
243.558	-33.79
243.775	-9.22
243.992	-70.65
244.209	58.37
244.426	5.12
244.643	-17.41
244.86	-66.56
245.078	9.22
245.295	-31.74
245.512	70.65
245.729	-54.27
245.946	76.8
246.163	-17.41
246.38	7.17
246.597	-13.31
246.814	7.17
247.031	19.46
247.248	27.65
247.464	-60.42
247.681	52.22
247.898	103.42
248.115	33.79
248.332	54.27
248.549	31.74
248.766	68.61
248.983	-19.46
249.2	50.18
249.417	31.74
249.633	-9.22
249.85	101.37
250.067	-21.5
250.284	17.41
250.501	-35.84
250.717	64.51
250.934	-52.22
251.151	15.36
251.368	-5.12
251.585	-23.55
251.801	-44.03
252.018	-54.27
252.235	-41.98
252.451	-11.26
252.668	37.89
252.885	-5.12
253.102	-19.46
253.318	21.5
253.535	-87.04
253.752	-17.41
253.968	-17.41
254.185	41.98
254.401	-37.89
254.618	-17.41
254.835	-13.31
255.051	74.75
255.268	-9.22
255.484	-23.55
255.701	44.03
255.917	17.41
256.134	-48.13
256.351	1.02
256.567	23.55
256.784	7.17
257	-1.02
257.217	-27.65
257.433	31.74
257.65	9.22
257.866	39.94
258.082	-19.46
258.299	23.55
258.515	3.07
258.732	1.02
258.948	23.55
259.165	17.41
259.381	-35.84
259.597	115.71
259.814	33.79
260.03	-23.55
260.246	23.55
260.463	-15.36
260.679	11.26
260.895	25.6
261.112	17.41
261.328	5.12
261.544	-3.07
261.761	78.85
261.977	21.5
262.193	-107.52
262.409	72.7
262.626	50.18
262.842	-39.94
263.058	-87.04
263.274	29.7
263.49	17.41
263.707	84.99
263.923	89.09
264.139	-50.18
264.355	72.7
264.571	-13.31
264.787	7.17
265.004	-7.17
265.22	-9.22
265.436	23.55
265.652	-37.89
265.868	-27.65
266.084	21.5
266.3	-39.94
266.516	-80.89
266.732	52.22
266.948	-7.17
267.164	9.22
267.38	-1.02
267.596	11.26
267.812	66.56
268.028	-41.98
268.244	-15.36
268.46	48.13
268.676	-46.08
268.892	-25.6
269.108	29.7
269.324	9.22
269.54	-95.23
269.756	-3.07
269.972	-72.7
270.188	3.07
270.403	-9.22
270.619	-21.5
270.835	15.36
271.051	60.42
271.267	-48.13
271.483	-58.37
271.698	13.31
271.914	27.65
272.13	-7.17
272.346	84.99
272.562	25.6
272.777	52.22
272.993	9.22
273.209	-31.74
273.425	-29.7
273.64	-5.12
273.856	-19.46
274.072	35.84
274.287	-15.36
274.503	64.51
274.719	1.02
274.934	7.17
275.15	-5.12
275.366	44.03
275.581	-25.6
275.797	62.46
276.012	-39.94
276.228	-82.94
276.444	-33.79
276.659	19.46
276.875	-35.84
277.09	19.46
277.306	29.7
277.521	50.18
277.737	-58.37
277.952	27.65
278.168	9.22
278.383	78.85
278.599	11.26
278.814	13.31
279.03	19.46
279.245	19.46
279.461	-1.02
279.676	-9.22
279.892	-109.57
280.107	-35.84
280.322	37.89
280.538	95.23
280.753	-9.22
280.969	-21.5
281.184	-72.7
281.399	64.51
281.615	-17.41
281.83	56.32
282.045	-29.7
282.26	25.6
282.476	11.26
282.691	-15.36
282.906	48.13
283.122	-5.12
283.337	-80.89
283.552	23.55
283.767	41.98
283.983	-23.55
284.198	48.13
284.413	41.98
284.628	-44.03
284.843	58.37
285.058	-70.65
285.274	31.74
285.489	-17.41
285.704	-33.79
285.919	15.36
286.134	-33.79
286.349	78.85
286.564	-50.18
286.779	-62.46
286.995	1.02
287.21	11.26
287.425	19.46
287.64	-48.13
287.855	3.07
288.07	11.26
288.285	68.61
288.5	-9.22
288.715	17.41
288.93	-27.65
289.145	95.23
289.36	-27.65
289.575	-39.94
289.79	97.28
290.004	5.12
290.219	78.85
290.434	19.46
290.649	-72.7
290.864	-37.89
291.079	9.22
291.294	-19.46
291.509	58.37
291.724	-17.41
291.938	-25.6
292.153	52.22
292.368	21.5
292.583	9.22
292.798	21.5
293.012	13.31
293.227	39.94
293.442	-3.07
293.657	68.61
293.871	7.17
294.086	-82.94
294.301	37.89
294.516	37.89
294.73	27.65
294.945	-27.65
295.16	107.52
295.374	3.07
295.589	60.42
295.804	-15.36
296.018	19.46
296.233	-11.26
296.447	37.89
296.662	-17.41
296.877	-27.65
297.091	-5.12
297.306	48.13
297.52	-7.17
297.735	-27.65
297.949	-13.31
298.164	68.61
298.378	-29.7
298.593	-7.17
298.807	25.6
299.022	15.36
299.236	-25.6
299.451	-62.46
299.665	31.74
299.88	23.55
300.094	-74.75
300.309	-5.12
300.523	46.08
300.737	-1.02
300.952	-23.55
301.166	-70.65
301.381	-27.65
301.595	3.07
301.809	-87.04
302.024	-27.65
302.238	-5.12
302.452	-1.02
302.667	27.65
302.881	25.6
303.095	-25.6
303.309	39.94
303.524	5.12
303.738	52.22
303.952	31.74
304.166	64.51
304.381	27.65
304.595	11.26
304.809	19.46
305.023	19.46
305.237	9.22
305.452	-25.6
305.666	44.03
305.88	-7.17
306.094	-19.46
306.308	21.5
306.522	1.02
306.736	-33.79
306.95	-17.41
307.164	5.12
307.379	3.07
307.593	19.46
307.807	46.08
308.021	46.08
308.235	7.17
308.449	-1.02
308.663	-48.13
308.877	21.5
309.091	-21.5
309.305	48.13
309.519	-7.17
309.733	-3.07
309.947	-1.02
310.161	-35.84
310.374	-7.17
310.588	15.36
310.802	-78.85
311.016	56.32
311.23	-64.51
311.444	-13.31
311.658	54.27
311.872	11.26
312.085	31.74
312.299	64.51
312.513	39.94
312.727	-13.31
312.941	-5.12
313.154	37.89
313.368	50.18
313.582	5.12
313.796	50.18
314.009	-41.98
314.223	56.32
314.437	-60.42
314.651	-5.12
314.864	-44.03
315.078	-48.13
315.292	-11.26
315.505	89.09
315.719	5.12
315.933	-31.74
316.146	-23.55
316.36	-21.5
316.573	11.26
316.787	-25.6
317.001	60.42
317.214	-44.03
317.428	31.74
317.641	23.55
317.855	-25.6
318.068	37.89
318.282	23.55
318.495	50.18
318.709	-9.22
318.922	-13.31
319.136	52.22
319.349	89.09
319.563	-33.79
319.776	27.65
319.99	-33.79
320.203	27.65
320.417	13.31
320.63	-37.89
320.843	74.75
321.057	23.55
321.27	62.46
321.483	-31.74
321.697	13.31
321.91	-21.5
322.124	17.41
322.337	50.18
322.55	-1.02
322.763	21.5
322.977	-58.37
323.19	56.32
323.403	41.98
323.617	-62.46
323.83	11.26
324.043	31.74
324.256	-13.31
324.469	-3.07
324.683	-80.89
324.896	-44.03
325.109	35.84
325.322	-23.55
325.535	35.84
325.748	-41.98
325.962	-5.12
326.175	64.51
326.388	27.65
326.601	-52.22
326.814	-70.65
327.027	68.61
327.24	50.18
327.453	-29.7
327.666	5.12
327.879	-19.46
328.092	48.13
328.305	54.27
328.518	-48.13
328.731	-23.55
328.944	58.37
329.157	25.6
329.37	56.32
329.583	-35.84
329.796	15.36
330.009	21.5
330.222	35.84
330.435	-21.5
330.648	-7.17
330.861	-58.37
331.073	7.17
331.286	27.65
331.499	-7.17
331.712	35.84
331.925	-15.36
332.138	-46.08
332.35	-33.79
332.563	-48.13
332.776	46.08
332.989	-5.12
333.202	-17.41
333.414	3.07
333.627	-13.31
333.84	15.36
334.053	7.17
334.265	3.07
334.478	9.22
334.691	23.55
334.903	-7.17
335.116	39.94
335.329	7.17
335.541	-23.55
335.754	72.7
335.966	-41.98
336.179	-27.65
336.392	-9.22
336.604	-37.89
336.817	19.46
337.029	-74.75
337.242	-19.46
337.454	-5.12
337.667	44.03
337.88	33.79
338.092	-17.41
338.305	33.79
338.517	23.55
338.729	56.32
338.942	84.99
339.154	21.5
339.367	13.31
339.579	56.32
339.792	-78.85
340.004	19.46
340.217	60.42
340.429	56.32
340.641	52.22
340.854	-17.41
341.066	-70.65
341.278	37.89
341.491	44.03
341.703	76.8
341.915	-58.37
342.128	33.79
342.34	9.22
342.552	-37.89
342.764	23.55
342.977	-19.46
343.189	60.42
343.401	33.79
343.613	-13.31
343.826	-11.26
344.038	39.94
344.25	-5.12
344.462	-17.41
344.674	-31.74
344.886	21.5
345.099	37.89
345.311	-11.26
345.523	-1.02
345.735	35.84
345.947	-7.17
346.159	-9.22
346.371	7.17
346.583	48.13
346.795	19.46
347.007	9.22
347.219	1.02
347.431	5.12
347.643	52.22
347.855	-54.27
348.067	64.51
348.279	29.7
348.491	-17.41
348.703	5.12
348.915	31.74
349.127	-35.84
349.339	-11.26
349.551	9.22
349.763	23.55
349.975	-50.18
350.187	80.89
350.399	13.31
350.61	-60.42
350.822	-62.46
351.034	-33.79
351.246	-37.89
351.458	64.51
351.669	11.26
351.881	60.42
352.093	-46.08
352.305	-27.65
352.517	21.5
352.728	35.84
352.94	52.22
353.152	-23.55
353.363	15.36
353.575	-13.31
353.787	64.51
353.999	25.6
354.21	-3.07
354.422	-93.18
354.633	-39.94
354.845	-25.6
355.057	52.22
355.268	-39.94
355.48	-9.22
355.692	35.84
355.903	-76.8
356.115	17.41
356.326	29.7
356.538	37.89
356.749	33.79
356.961	78.85
357.172	-1.02
357.384	27.65
357.595	44.03
357.807	13.31
358.018	7.17
358.23	31.74
358.441	33.79
358.653	89.09
358.864	52.22
359.075	41.98
359.287	-27.65
359.498	27.65
359.709	-37.89
359.921	48.13
360.132	-50.18
360.344	-11.26
360.555	-9.22
360.766	31.74
360.977	-58.37
361.189	13.31
361.4	-13.31
361.611	50.18
361.823	125.95
362.034	-72.7
362.245	-37.89
362.456	-1.02
362.667	-13.31
362.879	48.13
363.09	50.18
363.301	-7.17
363.512	-9.22
363.723	5.12
363.935	-21.5
364.146	15.36
364.357	23.55
364.568	31.74
364.779	-27.65
364.99	15.36
365.201	7.17
365.412	9.22
365.623	-29.7
365.834	-25.6
366.045	87.04
366.256	78.85
366.467	11.26
366.678	15.36
366.889	-17.41
367.1	-7.17
367.311	39.94
367.522	52.22
367.733	35.84
367.944	9.22
368.155	-9.22
368.366	15.36
368.577	9.22
368.788	87.04
368.999	1.02
369.209	21.5
369.42	68.61
369.631	-13.31
369.842	-7.17
370.053	-5.12
370.264	-5.12
370.474	56.32
370.685	60.42
370.896	-23.55
371.107	17.41
371.317	89.09
371.528	-50.18
371.739	39.94
371.95	78.85
372.16	78.85
372.371	-56.32
372.582	58.37
372.792	21.5
373.003	72.7
373.214	23.55
373.424	50.18
373.635	19.46
373.846	-9.22
374.056	17.41
374.267	5.12
374.477	68.61
374.688	56.32
374.898	-44.03
375.109	21.5
375.319	-13.31
375.53	60.42
375.74	11.26
375.951	97.28
376.161	-15.36
376.372	44.03
376.582	-1.02
376.793	60.42
377.003	-15.36
377.214	35.84
377.424	-35.84
377.635	70.65
377.845	15.36
378.055	3.07
378.266	-29.7
378.476	-27.65
378.686	-39.94
378.897	95.23
379.107	62.46
379.317	95.23
379.528	-41.98
379.738	58.37
379.948	9.22
380.158	64.51
380.369	19.46
380.579	29.7
380.789	15.36
380.999	19.46
381.21	25.6
381.42	23.55
381.63	52.22
381.84	52.22
382.05	23.55
382.261	37.89
382.471	27.65
382.681	3.07
382.891	13.31
383.101	60.42
383.311	48.13
383.521	37.89
383.731	39.94
383.941	70.65
384.151	-5.12
384.361	-19.46
384.571	7.17
384.781	1.02
384.991	66.56
385.201	56.32
385.411	-60.42
385.621	-17.41
385.831	31.74
386.041	-46.08
386.251	50.18
386.461	50.18
386.671	-84.99
386.881	33.79
387.091	56.32
387.301	52.22
387.511	-37.89
387.72	7.17
387.93	15.36
388.14	-50.18
388.35	-15.36
388.56	44.03
388.769	-25.6
388.979	115.71
389.189	-3.07
389.399	-5.12
389.609	52.22
389.818	84.99
390.028	58.37
390.238	11.26
390.447	-17.41
390.657	-11.26
390.867	21.5
391.076	-23.55
391.286	89.09
391.496	93.18
391.705	27.65
391.915	54.27
392.125	74.75
392.334	19.46
392.544	7.17
392.753	78.85
392.963	3.07
393.172	-3.07
393.382	84.99
393.591	68.61
393.801	15.36
394.01	50.18
394.22	66.56
394.429	60.42
394.639	-7.17
394.848	9.22
395.058	-9.22
395.267	35.84
395.477	70.65
395.686	33.79
395.895	62.46
396.105	89.09
396.314	44.03
396.524	25.6
396.733	62.46
396.942	72.7
397.152	35.84
397.361	11.26
397.57	93.18
397.78	25.6
397.989	35.84
398.198	-5.12
398.407	19.46
398.617	44.03
398.826	15.36
399.035	35.84
399.244	66.56
399.453	23.55
399.663	21.5
399.872	48.13
400.081	91.13
400.29	128
400.499	52.22
400.708	11.26
400.917	84.99
401.127	87.04
401.336	19.46
401.545	158.72
401.754	56.32
401.963	1.02
402.172	74.75
402.381	31.74
402.59	44.03
402.799	46.08
403.008	80.89
403.217	44.03
403.426	44.03
403.635	80.89
403.844	-29.7
404.053	84.99
404.262	52.22
404.471	162.81
404.68	76.8
404.888	130.05
405.097	60.42
405.306	115.71
405.515	76.8
405.724	54.27
405.933	76.8
406.142	146.43
406.35	78.85
406.559	82.94
406.768	15.36
406.977	142.33
407.185	87.04
407.394	134.14
407.603	113.66
407.812	97.28
408.02	162.81
408.229	146.43
408.438	89.09
408.646	89.09
408.855	101.37
409.064	236.54
409.272	205.82
409.481	191.49
409.69	197.63
409.898	248.83
410.107	142.33
410.315	179.2
410.524	224.25
410.733	171.01
410.941	248.83
411.15	265.21
411.358	267.26
411.567	199.68
411.775	300.03
411.984	207.87
412.192	259.07
412.401	338.94
412.609	336.89
412.818	320.51
413.026	240.64
413.234	367.61
413.443	398.33
413.651	318.46
413.86	326.65
414.068	470.01
414.276	506.87
414.485	312.32
414.693	398.33
414.901	549.88
415.11	472.06
415.318	461.82
415.526	510.97
415.734	424.95
415.943	519.16
416.151	588.79
416.359	500.73
416.567	617.46
416.776	652.28
416.984	680.95
417.192	666.61
417.4	660.47
417.608	642.04
417.817	674.81
418.025	711.67
418.233	762.87
418.441	705.53
418.649	822.26
418.857	906.23
419.065	928.75
419.273	895.99
419.481	906.23
419.689	979.95
419.897	1016.82
420.105	998.38
420.313	1047.54
420.521	1070.06
420.729	1117.17
420.937	1104.88
421.145	1104.88
421.353	1289.2
421.561	1321.96
421.769	1299.44
421.977	1364.97
422.185	1346.54
422.393	1477.61
422.601	1530.86
422.809	1539.05
423.017	1620.97
423.224	1606.63
423.432	1739.75
423.64	1807.33
423.848	1827.81
424.056	1725.41
424.263	1938.4
424.471	1782.76
424.679	1934.31
424.887	2061.28
425.094	2139.1
425.302	2184.16
425.51	2188.25
425.718	2268.13
425.925	2264.03
426.133	2397.15
426.341	2536.41
426.548	2579.42
426.756	2601.94
426.964	2667.48
427.171	2751.45
427.379	2939.86
427.586	2964.43
427.794	3066.83
428.001	3187.66
428.209	3322.83
428.417	3251.15
428.624	3376.08
428.832	3421.13
429.039	3376.08
429.247	3488.71
429.454	3793.86
429.662	4101.06
429.869	3775.43
430.076	4006.85
430.284	4008.9
430.491	4002.75
430.699	4418.49
430.906	4307.9
431.114	4453.31
431.321	4613.05
431.528	4584.38
431.736	5014.45
431.943	5196.72
432.15	5051.31
432.358	5086.13
432.565	5299.12
432.772	5241.78
432.979	5737.38
433.187	5704.62
433.394	5759.91
433.601	6134.69
433.808	6198.18
434.016	6038.44
434.223	6308.77
434.43	6759.32
434.637	6609.82
434.844	7052.18
435.052	7213.97
435.259	7103.38
435.466	7123.86
435.673	7029.65
435.88	7644.04
436.087	7969.67
436.294	7863.18
436.501	7713.67
436.708	8018.82
436.915	8131.46
437.122	8618.88
437.329	8582.01
437.537	8870.78
437.743	8913.78
437.95	9018.23
438.157	9278.32
438.364	9751.4
438.571	9524.08
438.778	9751.4
438.985	10576.73
439.192	10054.5
439.399	10273.64
439.606	10201.96
439.813	10851.16
440.02	11576.14
440.227	11197.27
440.433	11230.04
440.64	11522.9
440.847	11408.21
441.054	11682.64
441.261	12655.42
441.467	12204.87
441.674	12448.58
441.881	12958.52
442.088	12874.56
442.294	12981.05
442.501	13245.24
442.708	13456.18
442.914	14248.74
443.121	14486.31
443.328	14084.91
443.534	15215.38
443.741	14850.85
443.948	14453.54
444.154	15739.66
444.361	15594.26
444.568	15514.39
444.774	15434.52
444.981	15667.98
445.187	16206.6
445.394	16780.03
445.6	16657.15
445.807	18352.87
446.013	17490.68
446.22	17820.4
446.426	18610.92
446.633	18797.28
446.839	19204.83
447.046	18549.48
447.252	19339.99
447.459	19456.73
447.665	19438.3
447.871	20347.59
448.078	21207.74
448.284	20280.01
448.491	20722.37
448.697	21406.39
448.903	21875.38
449.11	21807.8
449.316	21504.7
449.522	21924.53
449.728	22536.87
449.935	22461.1
450.141	22758.05
450.347	22932.13
450.553	22508.2
450.76	22422.19
450.966	23274.14
451.172	22878.88
451.378	23708.31
451.584	23429.79
451.791	23421.59
451.997	23859.86
452.203	23736.98
452.409	24011.41
452.615	23663.25
452.821	23067.3
453.027	22774.44
453.233	24060.56
453.44	22872.74
453.646	23208.61
453.852	23491.23
454.058	23796.37
454.264	22858.4
454.47	23425.69
454.676	22930.08
454.882	23358.11
455.088	21666.49
455.294	21793.46
455.5	21957.3
455.705	22229.68
455.911	21381.82
456.117	20892.35
456.323	20820.67
456.529	19634.9
456.735	20300.49
456.941	19841.75
457.147	19471.06
457.352	19036.89
457.558	18664.16
457.764	18787.04
457.97	18225.9
458.176	18092.78
458.381	17951.47
458.587	17117.95
458.793	17103.61
458.999	15909.65
459.204	17527.54
459.41	16947.97
459.616	15852.3
459.821	15459.09
460.027	15624.98
460.233	15409.94
460.438	14592.8
460.644	14787.36
460.85	14162.73
461.055	13962.03
461.261	13970.22
461.466	12804.92
461.672	12340.04
461.878	13433.65
462.083	12376.9
462.289	12323.65
462.494	12084.04
462.7	11500.37
462.905	11004.76
463.111	11752.27
463.316	11764.56
463.522	11729.74
463.727	11467.6
463.932	11522.9
464.138	11600.72
464.343	11440.98
464.549	11006.81
464.754	11647.82
464.959	11457.36
465.165	11295.57
465.37	10767.2
465.575	10224.48
465.781	10949.46
465.986	10787.68
466.191	10470.24
466.397	10359.65
466.602	9792.36
466.807	10107.75
467.012	10457.95
467.218	10040.17
467.423	10117.99
467.628	10052.45
467.833	10638.17
468.038	10230.63
468.244	9861.99
468.449	10287.97
468.654	9823.08
468.859	9833.32
469.064	9730.92
469.269	9347.95
469.474	9266.03
469.679	9775.98
469.885	9157.49
470.09	9591.66
470.295	9427.82
470.5	9139.06
470.705	9354.1
470.91	8919.93
471.115	8975.22
471.32	9171.83
471.525	8874.87
471.73	8881.02
471.935	8694.65
472.139	8401.79
472.344	8512.38
472.549	8516.48
472.754	8455.04
472.959	8303.49
473.164	7998.34
473.369	8010.63
473.574	8094.6
473.778	8110.98
473.983	7998.34
474.188	8057.73
474.393	7699.34
474.598	7852.94
474.802	7654.28
475.007	7533.45
475.212	7500.69
475.417	7312.27
475.621	7416.72
475.826	7256.98
476.031	7136.15
476.235	7150.48
476.44	7189.39
476.645	7134.1
476.849	6988.69
477.054	6992.79
477.259	6980.5
477.463	6886.29
477.668	6675.35
477.872	6859.67
478.077	6560.67
478.282	6456.22
478.486	6609.82
478.691	6396.83
478.895	6480.8
479.1	6454.17
479.304	6409.12
479.509	6165.41
479.713	6319.01
479.918	6196.13
480.122	6165.41
480.326	6198.18
480.531	6255.52
480.735	5966.76
480.94	6075.3
481.144	6284.19
481.348	5718.95
481.553	5925.8
481.757	5833.64
481.961	5968.8
482.166	6087.59
482.37	5991.33
482.574	5933.99
482.778	5929.89
482.983	6001.57
483.187	5837.73
483.391	5835.69
483.595	5868.45
483.8	5862.31
484.004	5970.85
484.208	5987.24
484.412	5983.14
484.616	5905.32
484.821	6001.57
485.025	5989.28
485.229	5798.82
485.433	5778.34
485.637	5940.13
485.841	5723.05
486.045	5809.06
486.249	5768.1
486.453	5872.55
486.657	5751.72
486.861	5909.41
487.065	5817.26
487.269	5782.44
487.473	5721
487.677	5819.3
487.881	5903.27
488.085	5811.11
488.289	5706.66
488.493	5723.05
488.697	5972.9
488.901	5956.52
489.105	5702.57
489.309	5936.04
489.512	5878.69
489.716	5905.32
489.92	5905.32
490.124	5897.13
490.328	6040.48
490.531	6101.92
490.735	6101.92
490.939	5989.28
491.143	5950.37
491.346	5864.36
491.55	6138.79
491.754	6118.31
491.958	6243.23
492.161	6103.97
492.365	6337.44
492.569	6069.16
492.772	6218.66
492.976	6355.87
493.18	6241.18
493.383	6224.8
493.587	6327.2
493.79	6421.41
493.994	6421.41
494.197	6552.48
494.401	6570.91
494.605	6388.64
494.808	6636.44
495.012	6503.32
495.215	6726.55
495.419	6704.03
495.622	6912.92
495.825	6785.94
496.029	6867.86
496.232	6894.49
496.436	6857.62
496.639	7039.89
496.843	7240.59
497.046	7076.76
497.249	7246.74
497.453	7199.63
497.656	7220.11
497.859	7369.62
498.063	7424.91
498.266	7572.36
498.469	7609.23
498.673	7672.71
498.876	7803.78
499.079	7879.56
499.282	7986.05
499.485	8098.69
499.689	8199.04
499.892	8278.91
500.095	8350.59
500.298	8428.42
500.501	8196.99
500.705	8598.4
500.908	8469.37
501.111	8815.48
501.314	8706.94
501.517	8866.68
501.72	8930.17
501.923	8895.35
502.126	9227.12
502.329	9206.64
502.532	9366.39
502.735	9321.33
502.938	9649
503.141	9519.98
503.344	9763.69
503.547	9775.98
503.75	9915.24
503.953	10261.35
504.156	10367.84
504.359	10310.5
504.562	10505.06
504.765	10435.42
504.968	10677.09
505.17	10802.01
505.373	10709.85
505.576	10945.37
505.779	11152.21
505.982	11133.78
506.185	11391.83
506.387	11473.74
506.59	11643.73
506.793	11645.77
506.996	11709.26
507.198	12081.99
507.401	12012.36
507.604	12127.05
507.807	12497.73
508.009	12415.81
508.212	12553.02
508.415	12688.19
508.617	12782.4
508.82	12780.35
509.022	12792.64
509.225	13155.13
509.428	13200.18
509.63	13357.88
509.833	13656.88
510.035	13699.89
510.238	13595.44
510.44	13943.6
510.643	13941.55
510.845	14125.86
511.048	14185.26
511.25	14224.17
511.453	14420.77
511.655	15127.32
511.858	14617.38
512.06	14969.63
512.262	15061.79
512.465	15026.97
512.667	15145.75
512.87	15575.83
513.072	15414.04
513.274	15751.95
513.477	15950.6
513.679	16014.09
513.881	16347.91
514.084	16407.3
514.286	16478.98
514.488	16620.29
514.69	16986.88
514.893	17165.05
515.095	17275.64
515.297	17042.17
515.499	17502.96
515.701	17550.07
515.904	17601.27
516.106	17826.54
516.308	17883.89
516.51	18205.42
516.712	18115.31
516.914	18301.67
517.116	18713.31
517.318	18766.56
517.52	18932.45
517.722	19149.53
517.925	19098.33
518.127	19722.96
518.329	19364.57
518.531	19534.55
518.733	19778.26
518.935	20075.21
519.136	19806.93
519.338	20441.8
519.54	20476.62
519.742	20763.33
519.944	20951.74
520.146	21113.53
520.348	21222.08
520.55	21258.94
520.752	21701.3
520.954	21990.06
521.155	21666.49
521.357	21920.43
521.559	22147.76
521.761	22622.89
521.963	22268.59
522.164	22694.57
522.366	22837.92
522.568	22909.6
522.77	22665.89
522.971	23347.87
523.173	23276.19
523.375	23423.64
523.576	23421.59
523.778	23569.05
523.98	23765.65
524.181	24093.33
524.383	24281.74
524.584	24234.64
524.786	24259.21
524.988	24158.86
525.189	24330.89
525.391	24547.98
525.592	24830.6
525.794	24988.29
525.995	25021.06
526.197	25219.71
526.398	25184.9
526.6	25309.82
526.801	25608.83
527.003	25746.04
527.204	25944.69
527.406	25891.44
527.607	25850.49
527.808	25852.53
528.01	25655.93
528.211	25920.12
528.412	26575.47
528.614	26403.44
528.815	26239.6
529.016	26438.25
529.218	26485.36
529.419	26641
529.62	26690.15
529.822	26630.76
530.023	26651.24
530.224	26866.28
530.425	26786.41
530.626	26536.56
530.828	26612.33
531.029	27087.46
531.23	27026.02
531.431	26581.61
531.632	27288.16
531.833	27517.53
532.035	27204.19
532.236	27230.82
532.437	27296.35
532.638	27210.34
532.839	27191.91
533.04	27482.72
533.241	27576.92
533.442	27673.18
533.643	27339.36
533.844	27554.4
534.045	27685.47
534.246	27122.27
534.447	27802.2
534.648	27341.41
534.849	27574.88
535.05	27437.66
535.251	27306.59
535.451	27525.72
535.652	27804.25
535.853	27662.94
536.054	27513.44
536.255	27664.99
536.456	27296.35
536.657	27959.89
536.857	27220.58
537.058	27789.91
537.259	27873.88
537.46	27898.45
537.66	27562.59
537.861	27851.35
538.062	27820.63
538.263	27626.07
538.463	27513.44
538.664	27718.23
538.865	27759.19
539.065	28021.33
539.266	27478.62
539.466	28088.92
539.667	27595.35
539.868	27705.95
540.068	27595.35
540.269	27816.54
540.469	27439.71
540.67	27372.13
540.87	27621.98
541.071	27656.79
541.271	27847.26
541.472	27716.19
541.672	27804.25
541.873	27695.71
542.073	27226.72
542.274	27724.38
542.474	27501.15
542.675	27226.72
542.875	27818.58
543.075	27509.34
543.276	27318.88
543.476	27857.49
543.676	27331.17
543.877	27435.61
544.077	27595.35
544.277	27468.38
544.478	27380.32
544.678	27949.65
544.878	27312.74
545.078	27320.93
545.279	27378.27
545.479	27314.78
545.679	27380.32
545.879	27681.37
546.079	27560.54
546.28	27382.37
546.48	27208.29
546.68	27865.69
546.88	27535.96
547.08	27615.83
547.28	27335.26
547.48	27026.02
547.68	27460.19
547.88	27232.86
548.081	27611.74
548.281	27271.78
548.481	27196
548.681	27570.78
548.881	27255.39
549.081	27241.06
549.28	27132.51
549.48	27388.51
549.68	27073.12
549.88	27615.83
550.08	27509.34
550.28	27069.03
550.48	27251.3
550.68	27499.1
550.88	26960.48
551.08	27183.71
551.279	27120.23
551.479	27011.68
551.679	27208.29
551.879	27161.19
552.079	27374.17
552.278	27069.03
552.478	26761.83
552.678	27083.36
552.878	27404.89
553.077	27234.91
553.277	27015.78
553.477	27398.75
553.676	26983.01
553.876	27187.81
554.076	26786.41
554.275	26974.82
554.475	26833.51
554.674	26829.41
554.874	27175.52
555.074	26806.89
555.273	26657.39
555.473	27138.66
555.672	26692.2
555.872	26782.31
556.071	26776.17
556.271	26770.02
556.47	26634.86
556.67	26667.63
556.869	26620.52
557.068	26804.84
557.268	26483.31
557.467	26614.38
557.667	26720.87
557.866	26272.37
558.065	26380.91
558.265	26153.58
558.464	26036.85
558.663	26493.55
558.863	26002.04
559.062	26587.75
559.261	26061.43
559.461	26378.86
559.66	25983.6
559.859	26112.63
560.058	25801.33
560.258	26141.3
560.457	25588.35
560.656	26026.61
560.855	25764.47
561.054	25619.07
561.253	25768.57
561.453	25778.81
561.652	25645.69
561.851	25696.89
562.05	25401.98
562.249	25498.23
562.448	25655.93
562.647	25383.55
562.846	25545.34
563.045	25508.47
563.244	24992.39
563.443	25633.4
563.642	25027.2
563.841	25334.4
564.04	25092.74
564.239	25105.02
564.438	25092.74
564.637	24693.38
564.836	24994.43
565.035	24742.53
565.234	24765.06
565.432	24533.64
565.631	24674.95
565.83	24513.16
566.029	24373.9
566.228	24203.92
566.427	24410.76
566.625	24371.85
566.824	24150.67
567.023	24339.08
567.222	24197.77
567.42	24146.58
567.619	23857.81
567.818	23927.44
568.016	23630.49
568.215	24066.7
568.414	23812.76
568.612	23958.16
568.811	23505.56
569.01	23155.36
569.208	23433.88
569.407	23798.42
569.605	23077.54
569.804	23763.61
570.002	23087.78
570.201	23413.4
570.4	23118.5
570.598	22977.19
570.797	23143.07
570.995	22923.94
571.193	22731.43
571.392	23175.84
571.59	22459.05
571.789	22934.18
571.987	22860.45
572.186	22438.57
572.384	22356.65
572.582	22506.15
572.781	22805.16
572.979	22178.48
573.177	22317.74
573.376	22201.01
573.574	22110.89
573.772	22299.31
573.971	21734.07
574.169	21701.3
574.367	21889.71
574.565	22098.61
574.763	21879.47
574.962	21734.07
575.16	21629.62
575.358	21715.64
575.556	21379.77
575.754	21742.26
575.952	21222.08
576.151	21494.46
576.349	21109.44
576.547	21381.82
576.745	21357.24
576.943	21314.23
577.141	21060.29
577.339	21199.55
577.537	21091.01
577.735	21060.29
577.933	21019.33
578.131	20974.27
578.329	20800.19
578.527	20558.53
578.725	20902.59
578.923	20810.43
579.121	20406.98
579.319	20789.95
579.516	20560.58
579.714	20533.96
579.912	20366.03
580.11	20327.11
580.308	20398.79
580.506	20243.15
580.704	19954.38
580.901	20533.96
581.099	20222.67
581.297	19931.86
581.495	20349.64
581.692	20370.12
581.89	19606.23
582.088	20032.21
582.285	19559.13
582.483	20013.77
582.681	19858.13
582.878	19354.33
583.076	19223.26
583.274	19780.31
583.471	19231.45
583.669	19393.24
583.866	19524.31
584.064	19350.23
584.262	19032.8
584.459	18916.06
584.657	19028.7
584.854	19292.89
585.052	18676.45
585.249	18995.93
585.447	18940.64
585.644	18838.24
585.841	18782.95
586.039	19129.05
586.236	18688.74
586.434	18592.48
586.631	18678.5
586.828	18498.28
587.026	18553.57
587.223	18404.07
587.42	18549.48
587.618	18406.12
587.815	18279.15
588.012	18133.74
588.21	18326.25
588.407	18266.86
588.604	17849.07
588.801	17961.71
588.999	17875.7
589.196	17734.39
589.393	17875.7
589.59	17892.08
589.787	17881.84
589.984	17605.36
590.182	17498.87
590.379	17586.93
590.576	17474.29
590.773	17324.79
590.97	17396.47
591.167	17470.2
591.364	16909.05
591.561	17167.1
591.758	17093.37
591.955	17027.84
592.152	17361.66
592.349	17042.17
592.546	17038.08
592.743	16960.25
592.94	16734.98
593.137	16884.48
593.334	16952.06
593.531	16634.63
593.727	16923.39
593.924	16601.86
594.121	16599.81
594.318	16792.32
594.515	16358.15
594.712	16745.22
594.908	16769.79
595.105	16644.87
595.302	16196.36
595.499	16233.22
595.696	16192.26
595.892	16104.2
596.089	16300.81
596.286	16298.76
596.482	16179.98
596.679	15991.56
596.876	15903.5
597.072	15809.29
597.269	15966.99
597.466	15653.65
597.662	15876.88
597.859	15526.68
598.055	15581.97
598.252	15510.29
598.448	15721.23
598.645	15498
598.841	15199
599.038	15524.63
599.234	15577.87
599.431	15231.77
599.627	15258.39
599.824	15217.43
600.02	14828.32
600.217	15207.19
600.413	15072.03
600.609	15041.31
600.806	14912.28
601.002	15063.83
601.198	14822.17
601.395	14826.27
601.591	14848.8
601.787	14922.52
601.984	14912.28
602.18	14635.81
602.376	14586.66
602.572	14498.59
602.769	14629.66
602.965	14471.97
603.161	14455.59
603.357	14363.43
603.553	14531.36
603.75	14324.52
603.946	14183.21
604.142	14273.32
604.338	13869.87
604.534	13855.53
604.73	14039.85
604.926	13988.65
605.122	14146.34
605.318	14009.13
605.514	13738.8
605.71	13976.36
605.906	13925.16
606.102	13966.12
606.298	13839.15
606.494	13761.33
606.69	13740.85
606.886	13792.05
607.082	13617.97
607.278	13730.61
607.474	13685.55
607.67	13871.92
607.866	13296.44
608.062	13775.66
608.257	13435.7
608.453	13441.84
608.649	13335.35
608.845	13042.49
609.041	13288.25
609.236	13329.2
609.432	13306.68
609.628	13120.31
609.824	13093.69
610.019	13071.16
610.215	13116.22
610.411	13288.25
610.606	13253.43
610.802	13173.56
610.998	13108.02
611.193	13146.94
611.389	12862.27
611.584	12890.94
611.78	12624.7
611.976	12833.6
612.171	12778.3
612.367	12895.04
612.562	12677.95
612.758	12577.6
612.953	12589.89
613.149	12821.31
613.344	12442.43
613.539	12682.05
613.735	12493.63
613.93	12577.6
614.126	12469.06
614.321	12704.57
614.517	12708.67
614.712	12503.87
614.907	12233.54
615.103	12622.66
615.298	12424
615.493	12436.29
615.688	12182.34
615.884	12618.56
616.079	12077.9
616.274	12323.65
616.47	12299.08
616.665	12317.51
616.86	12239.69
617.055	12204.87
617.25	12231.49
617.445	12303.17
617.641	12000.07
617.836	12196.68
618.031	11817.8
618.226	11879.24
618.421	11869
618.616	11985.74
618.811	11774.8
619.006	11965.26
619.201	11727.69
619.396	11785.04
619.591	11615.05
619.786	11705.17
619.981	11619.15
620.176	11731.79
620.371	11404.11
620.566	11440.98
620.761	11406.16
620.956	11301.72
621.151	11127.64
621.346	11400.02
621.541	11205.46
621.735	11170.65
621.93	11094.87
622.125	11101.01
622.32	10842.97
622.515	11209.56
622.709	10900.31
622.904	10941.27
623.099	10877.79
623.294	10728.28
623.488	10351.46
623.683	10711.9
623.878	10605.41
624.072	10541.92
624.267	10486.62
624.462	10625.89
624.656	10378.08
624.851	10488.67
625.046	10478.43
625.24	10369.89
625.435	10042.21
625.629	10224.48
625.824	10234.72
626.018	10113.89
626.213	9841.51
626.407	9759.6
626.602	9620.33
626.796	9837.42
626.991	9700.2
627.185	9773.93
627.38	9675.63
627.574	9554.8
627.768	9548.65
627.963	9438.06
628.157	9419.63
628.352	9358.19
628.546	9161.59
628.74	9393.01
628.935	9282.42
629.129	8989.56
629.323	9042.81
629.517	9118.58
629.712	9012.09
629.906	8907.64
630.1	8827.77
630.294	9007.99
630.489	9040.76
630.683	8764.28
630.877	8817.53
631.071	8567.68
631.265	8641.4
631.459	8739.71
631.653	8670.08
631.848	8448.9
632.042	8317.83
632.236	8485.76
632.43	8137.6
632.624	8248.19
632.818	8444.8
633.012	8303.49
633.206	8070.02
633.4	8174.47
633.594	7951.24
633.788	8027.01
633.982	7988.1
634.176	8047.49
634.369	7848.84
634.563	7756.68
634.757	7922.57
634.951	7854.98
635.145	7877.51
635.339	7764.87
635.533	7680.91
635.726	7664.52
635.92	7488.4
636.114	7609.23
636.308	7445.39
636.501	7416.72
636.695	7508.88
636.889	7496.59
637.083	7357.33
637.276	7390.1
637.47	7177.11
637.664	7336.85
637.857	7418.77
638.051	7306.13
638.244	7023.51
638.438	7132.05
638.632	7117.72
638.825	6861.72
639.019	7000.98
639.212	6800.28
639.406	6998.93
639.599	6902.68
639.793	6833.05
639.986	6837.14
640.18	6732.7
640.373	6740.89
640.567	6679.45
640.76	6566.81
640.954	6605.72
641.147	6460.32
641.34	6679.45
641.534	6298.53
641.727	6501.28
641.92	6480.8
642.114	6384.54
642.307	6480.8
642.5	6558.62
642.694	6134.69
642.887	6282.14
643.08	6255.52
643.273	6292.38
643.467	6230.94
643.66	6052.77
643.853	6056.87
644.046	5950.37
644.239	5921.7
644.432	6007.72
644.626	5964.71
644.819	5929.89
645.012	5866.41
645.205	5895.08
645.398	5927.85
645.591	5831.59
645.784	5960.61
645.977	5757.86
646.17	5786.54
646.363	5757.86
646.556	5499.82
646.749	5581.74
646.942	5671.85
647.135	5602.22
647.328	5561.26
647.521	5458.86
647.714	5393.33
647.907	5428.14
648.099	5352.37
648.292	5415.85
648.485	5405.61
648.678	5315.5
648.871	5284.78
649.064	5313.45
649.256	5338.03
649.449	5317.55
649.642	5206.96
649.835	5170.1
650.027	5153.71
650.22	5252.02
650.413	5188.53
650.605	5141.43
650.798	5192.62
650.991	5006.26
651.183	4860.85
651.376	4844.47
651.568	5151.67
651.761	4965.3
651.954	4938.68
652.146	4856.76
652.339	4899.77
652.531	4875.19
652.724	4795.32
652.916	4694.97
653.109	4817.85
653.301	4754.36
653.494	4715.45
653.686	4518.84
653.879	4647.87
654.071	4565.95
654.263	4584.38
654.456	4520.89
654.648	4615.1
654.84	4465.6
655.033	4594.62
655.225	4299.71
655.417	4463.55
655.61	4488.12
655.802	4332.48
655.994	4350.91
656.186	4307.9
656.379	4395.96
656.571	4287.42
656.763	4254.66
656.955	4262.85
657.148	4309.95
657.34	4389.82
657.532	4139.97
657.724	4195.26
657.916	4111.3
658.108	4209.6
658.3	4078.53
658.492	4182.98
658.684	4004.8
658.876	4004.8
659.068	4031.43
659.26	3982.28
659.452	3929.03
659.644	4041.67
659.836	3918.79
660.028	3877.83
660.22	4002.75
660.412	3955.65
660.604	3869.64
660.796	3847.11
660.988	3859.4
661.18	3769.29
661.372	3830.73
661.563	3783.62
661.755	3697.61
661.947	3834.82
662.139	3656.65
662.331	3730.38
662.522	3707.85
662.714	3627.98
662.906	3697.61
663.097	3584.97
663.289	3537.87
663.481	3507.15
663.673	3560.39
663.864	3464.14
664.056	3507.15
664.247	3505.1
664.439	3455.95
664.631	3468.24
664.822	3531.72
665.014	3425.23
665.205	3357.64
665.397	3396.56
665.588	3345.36
665.78	3298.25
665.971	3380.17
666.163	3226.57
666.354	3240.91
666.546	3425.23
666.737	3236.81
666.929	3324.88
667.12	3404.75
667.311	3283.92
667.503	3177.42
667.694	3306.45
667.885	3183.57
668.077	3079.12
668.268	3161.04
668.459	3148.75
668.651	3113.94
668.842	3124.18
669.033	3095.5
669.224	3042.26
669.416	3087.31
669.607	3107.79
669.798	3007.44
669.989	3138.51
670.18	2933.72
670.371	3062.74
670.563	3103.7
670.754	3036.11
670.945	2991.06
671.136	2929.62
671.327	2923.48
671.518	2970.58
671.709	2884.56
671.9	2911.19
672.091	2862.04
672.282	2849.75
672.473	2763.73
672.664	2839.51
672.855	2788.31
673.046	2915.28
673.237	2849.75
673.428	2788.31
673.619	2743.25
673.809	2759.64
674	2808.79
674.191	2812.89
674.382	2808.79
674.573	2773.97
674.764	2778.07
674.954	2776.02
675.145	2776.02
675.336	2710.49
675.527	2696.15
675.717	2743.25
675.908	2597.85
676.099	2679.77
676.289	2681.82
676.48	2606.04
676.671	2751.45
676.861	2669.53
677.052	2675.67
677.243	2642.9
677.433	2577.37
677.624	2673.62
677.814	2802.65
678.005	2556.89
678.195	2636.76
678.386	2624.47
678.576	2544.6
678.767	2577.37
678.957	2540.51
679.148	2649.05
679.338	2579.42
679.529	2636.76
679.719	2483.16
679.909	2661.34
680.1	2677.72
680.29	2517.98
680.481	2575.32
680.671	2595.8
680.861	2546.65
681.052	2534.36
681.242	2472.92
681.432	2593.75
681.622	2540.51
681.813	2370.52
682.003	2630.62
682.193	2399.2
682.383	2472.92
682.573	2577.37
682.764	2511.83
682.954	2356.19
683.144	2352.09
683.334	2391
683.524	2415.58
683.714	2405.34
683.904	2530.27
684.094	2378.72
684.284	2376.67
684.474	2417.63
684.664	2368.48
684.854	2440.15
685.044	2434.01
685.234	2417.63
685.424	2362.33
685.614	2304.99
685.804	2268.13
685.994	2436.06
686.184	2272.22
686.374	2376.67
686.564	2300.89
686.753	2245.6
686.943	2333.66
687.133	2382.81
687.323	2278.37
687.513	2178.01
687.702	2157.54
687.892	2216.93
688.082	2202.59
688.272	2366.43
688.461	2214.88
688.651	2331.61
688.841	2196.45
689.03	2139.1
689.22	2184.16
689.41	2227.17
689.599	2257.89
689.789	2282.46
689.979	2135.01
690.168	2231.26
690.358	2026.47
690.547	2153.44
690.737	2063.33
690.926	2022.37
691.116	2003.94
691.305	2020.32
691.495	2102.24
691.684	2077.66
691.874	2065.38
692.063	2167.77
692.252	2034.66
692.442	2083.81
692.631	2141.15
692.82	1975.27
693.01	2046.94
693.199	2026.47
693.388	1991.65
693.578	1987.55
693.767	1903.59
693.956	1915.87
694.146	1907.68
694.335	1868.77
694.524	1891.3
694.713	1913.83
694.902	1956.83
695.092	1883.11
695.281	1944.55
695.47	1932.26
695.659	1747.94
695.848	1801.19
696.037	1821.67
696.226	1868.77
696.415	1850.34
696.604	1881.06
696.793	1922.02
696.982	1903.59
697.171	1821.67
697.36	1768.42
697.549	1954.79
697.738	1692.65
697.927	1721.32
698.116	1850.34
698.305	1856.48
698.494	1749.99
698.683	1885.16
698.872	1860.58
699.061	1862.63
699.25	1811.43
699.438	1858.53
699.627	1795.04
699.816	1805.28
700.005	1731.56
700.193	1829.86
700.382	1840.1
700.571	1772.52
700.76	1831.91
700.948	1797.09
701.137	1747.94
701.326	1786.85
701.514	1833.96
701.703	1940.45
701.892	1858.53
702.08	1836
702.269	1809.38
702.457	1776.61
702.646	1729.51
702.834	1756.13
703.023	1803.24
703.212	1760.23
703.4	1698.79
703.589	1850.34
703.777	1874.92
703.965	1731.56
704.154	1829.86
704.342	1731.56
704.531	1819.62
704.719	1717.22
704.907	1786.85
705.096	1795.04
705.284	1756.13
705.472	1821.67
705.661	1799.14
705.849	1815.52
706.037	1735.65
706.226	1858.53
706.414	1889.25
706.602	1778.66
706.79	1846.24
706.979	1741.8
707.167	1690.6
707.355	1831.91
707.543	1829.86
707.731	1721.32
707.919	1774.56
708.107	1788.9
708.296	1729.51
708.484	1713.13
708.672	1805.28
708.86	1727.46
709.048	1778.66
709.236	1801.19
709.424	1844.2
709.612	1739.75
709.8	1786.85
709.988	1725.41
710.176	1848.29
710.364	1838.05
710.551	1731.56
710.739	1801.19
710.927	1797.09
711.115	1887.2
711.303	1813.48
711.491	1868.77
711.679	1698.79
711.866	1739.75
712.054	1831.91
712.242	1770.47
712.43	1827.81
712.617	1741.8
712.805	1768.42
712.993	1782.76
713.181	1766.37
713.368	1813.48
713.556	1842.15
713.744	1782.76
713.931	1883.11
714.119	2038.75
714.306	1752.04
714.494	1805.28
714.682	1764.33
714.869	1844.2
715.057	1801.19
715.244	1754.09
715.432	1838.05
715.619	1754.09
715.807	1766.37
715.994	1848.29
716.182	1715.17
716.369	1833.96
716.556	1774.56
716.744	1776.61
716.931	1723.37
717.119	1846.24
717.306	1766.37
717.493	1803.24
717.681	1813.48
717.868	1842.15
718.055	1850.34
718.242	1825.76
718.43	1756.13
718.617	1747.94
718.804	1786.85
718.991	1850.34
719.179	1866.72
719.366	1811.43
719.553	1725.41
719.74	1846.24
719.927	1743.85
720.114	1723.37
720.301	1752.04
720.488	1690.6
720.676	1770.47
720.863	1743.85
721.05	1711.08
721.237	1805.28
721.424	1727.46
721.611	1827.81
721.798	1809.38
721.985	1713.13
722.172	1850.34
722.358	1668.07
722.545	1838.05
722.732	1790.95
722.919	1885.16
723.106	1817.57
723.293	1709.03
723.48	1752.04
723.667	1735.65
723.853	1854.44
724.04	1752.04
724.227	1846.24
724.414	1764.33
724.6	1772.52
724.787	1758.18
724.974	1764.33
725.161	1829.86
725.347	1735.65
725.534	1788.9
725.72	1813.48
725.907	1756.13
726.094	1975.27
726.28	1754.09
726.467	1717.22
726.653	1735.65
726.84	1780.71
727.027	1825.76
727.213	1715.17
727.4	1694.69
727.586	1819.62
727.773	1692.65
727.959	1782.76
728.145	1780.71
728.332	1915.87
728.518	1840.1
728.705	1770.47
728.891	1780.71
729.077	1762.28
729.264	1723.37
729.45	1788.9
729.636	1760.23
729.823	1731.56
730.009	1795.04
730.195	1844.2
730.382	1936.35
730.568	1827.81
730.754	1850.34
730.94	1840.1
731.126	1838.05
731.313	1793
731.499	1840.1
731.685	1833.96
731.871	1856.48
732.057	1737.7
732.243	1735.65
732.429	1868.77
732.615	1745.89
732.801	1887.2
732.987	1700.84
733.173	1776.61
733.359	1731.56
733.545	1782.76
733.731	1737.7
733.917	1807.33
734.103	1729.51
734.289	1725.41
734.475	1774.56
734.661	1799.14
734.847	1772.52
735.033	1833.96
735.219	1786.85
735.404	1754.09
735.59	1825.76
735.776	1715.17
735.962	1768.42
736.148	1745.89
736.333	1801.19
736.519	1772.52
736.705	1674.21
736.89	1768.42
737.076	1661.93
737.262	1711.08
737.447	1825.76
737.633	1682.41
737.819	1874.92
738.004	1717.22
738.19	1821.67
738.375	1758.18
738.561	1725.41
738.747	1756.13
738.932	1745.89
739.118	1704.93
739.303	1760.23
739.489	1700.84
739.674	1698.79
739.859	1684.45
740.045	1686.5
740.23	1725.41
740.416	1676.26
740.601	1786.85
740.786	1698.79
740.972	1616.87
741.157	1645.54
741.342	1631.21
741.528	1661.93
741.713	1672.17
741.898	1653.73
742.084	1631.21
742.269	1715.17
742.454	1713.13
742.639	1590.25
742.824	1674.21
743.01	1666.02
743.195	1582.06
743.38	1629.16
743.565	1596.39
743.75	1541.1
743.935	1731.56
744.12	1616.87
744.305	1588.2
744.49	1688.55
744.675	1584.1
744.86	1512.42
745.045	1514.47
745.23	1592.3
745.415	1666.02
745.6	1561.58
745.785	1530.86
745.97	1545.19
746.155	1575.91
746.34	1539.05
746.525	1543.14
746.71	1496.04
746.895	1543.14
747.079	1506.28
747.264	1354.73
747.449	1481.71
747.634	1457.13
747.819	1442.79
748.003	1397.74
748.188	1453.03
748.373	1369.07
748.557	1393.64
748.742	1381.35
748.927	1440.75
749.111	1465.32
749.296	1317.87
749.481	1274.86
749.665	1334.25
749.85	1321.96
750.034	1260.52
750.219	1246.19
750.404	1186.8
750.588	1383.4
750.773	1235.95
750.957	1352.68
751.141	1319.92
751.326	1254.38
751.51	1389.55
751.695	1289.2
751.879	1231.85
752.064	1274.86
752.248	1248.24
752.432	1281
752.617	1166.32
752.801	1291.24
752.985	1219.57
753.17	1256.43
753.354	1190.89
753.538	1211.37
753.722	1133.55
753.907	1151.98
754.091	1125.36
754.275	1102.83
754.459	1113.07
754.643	1125.36
754.828	1008.62
755.012	1137.65
755.196	1117.17
755.38	1111.02
755.564	1084.4
755.748	1041.39
755.932	1131.5
756.116	1002.48
756.3	1106.93
756.484	1113.07
756.668	1127.41
756.852	957.43
757.036	1037.3
757.22	961.52
757.404	1080.3
757.588	971.76
757.772	1006.58
757.956	963.57
758.14	1061.87
758.323	1092.59
758.507	965.62
758.691	893.94
758.875	998.38
759.059	889.84
759.242	891.89
759.426	961.52
759.61	957.43
759.794	977.91
759.977	898.03
760.161	955.38
760.345	902.13
760.528	941.04
760.712	906.23
760.895	945.14
761.079	898.03
761.263	850.93
761.446	791.54
761.63	850.93
761.813	891.89
761.997	875.51
762.18	900.08
762.364	895.99
762.547	760.82
762.731	873.46
762.914	748.53
763.098	832.5
763.281	797.68
763.464	764.92
763.648	842.74
763.831	904.18
764.015	812.02
764.198	773.11
764.381	859.12
764.564	961.52
764.748	805.88
764.931	785.4
765.114	699.38
765.297	822.26
765.481	766.96
765.664	842.74
765.847	752.63
766.03	814.07
766.213	760.82
766.397	756.72
766.58	721.91
766.763	936.95
766.946	789.49
767.129	719.86
767.312	715.77
767.495	799.73
767.678	773.11
767.861	748.53
768.044	744.44
768.227	734.2
768.41	783.35
768.593	756.72
768.776	711.67
768.959	771.06
769.142	699.38
769.324	621.56
769.507	717.81
769.69	855.03
769.873	748.53
770.056	709.62
770.239	701.43
770.421	703.48
770.604	779.25
770.787	797.68
770.97	621.56
771.152	662.52
771.335	609.27
771.518	691.19
771.7	654.33
771.883	789.49
772.066	627.7
772.248	664.57
772.431	592.89
772.613	752.63
772.796	666.61
772.978	629.75
773.161	742.39
773.343	584.7
773.526	621.56
773.708	574.46
773.891	556.02
774.073	695.29
774.256	580.6
774.438	646.13
774.621	562.17
774.803	605.17
774.985	668.66
775.168	599.03
775.35	545.78
775.532	564.22
775.715	556.02
775.897	527.35
776.079	660.47
776.261	594.93
776.444	502.78
776.626	506.87
776.808	535.54
776.99	566.26
777.173	541.69
777.355	537.59
777.537	480.25
777.719	455.67
777.901	506.87
778.083	449.53
778.265	531.45
778.447	543.74
778.629	424.95
778.811	549.88
778.993	541.69
779.175	490.49
779.357	496.63
779.539	484.34
779.721	449.53
779.903	521.21
780.085	441.34
780.267	404.47
780.449	510.97
780.631	506.87
780.812	429.05
780.994	500.73
781.176	435.19
781.358	361.47
781.54	422.91
781.721	539.64
781.903	476.15
782.085	379.9
782.267	463.86
782.448	445.43
782.63	447.48
782.812	443.39
782.993	453.63
783.175	414.71
783.357	379.9
783.538	447.48
783.72	334.84
783.901	429.05
784.083	472.06
784.264	310.27
784.446	381.95
784.627	332.79
784.809	359.42
784.99	332.79
785.172	322.56
785.353	300.03
785.535	273.4
785.716	367.61
785.897	277.5
786.079	336.89
786.26	343.03
786.441	381.95
786.623	369.66
786.804	304.12
786.985	343.03
787.167	302.08
787.348	396.28
787.529	363.51
787.71	375.8
787.891	318.46
788.073	332.79
788.254	300.03
788.435	383.99
788.616	353.27
788.797	291.84
788.978	322.56
789.159	291.84
789.34	445.43
789.522	300.03
789.703	246.78
789.884	332.79
790.065	193.53
790.246	285.69
790.427	351.23
790.607	379.9
790.788	291.84
790.969	257.02
791.15	273.4
791.331	306.17
791.512	240.64
791.693	265.21
791.874	224.25
792.054	267.26
792.235	371.71
792.416	273.4
792.597	203.77
792.778	228.35
792.958	304.12
793.139	224.25
793.32	250.88
793.5	171.01
793.681	257.02
793.862	273.4
794.042	236.54
794.223	207.87
794.404	252.92
794.584	304.12
794.765	199.68
794.945	224.25
795.126	232.44
795.306	222.2
795.487	220.16
795.667	242.68
795.848	224.25
796.028	166.91
796.209	275.45
796.389	158.72
796.57	257.02
796.75	240.64
796.93	271.36
797.111	275.45
797.291	228.35
797.471	207.87
797.652	183.29
797.832	189.44
798.012	183.29
798.192	244.73
798.373	193.53
798.553	199.68
798.733	138.24
798.913	214.01
799.093	279.55
799.274	232.44
799.454	134.14
799.634	179.2
799.814	238.59
799.994	220.16
800.174	199.68
800.354	189.44
800.534	150.53
800.714	203.77
800.894	138.24
801.074	216.06
801.254	158.72
801.434	158.72
801.614	216.06
801.794	66.56
801.974	592.89
802.154	146.43
802.334	158.72
802.514	199.68
802.693	121.85
802.873	257.02
803.053	154.62
803.233	128
803.413	164.86
803.592	93.18
803.772	197.63
803.952	160.77
804.131	123.9
804.311	142.33
804.491	119.81
804.67	105.47
804.85	148.48
805.03	168.96
805.209	197.63
805.389	97.28
805.568	183.29
805.748	138.24
805.928	29.7
806.107	205.82
806.287	113.66
806.466	121.85
806.646	123.9
806.825	107.52
807.004	125.95
807.184	179.2
807.363	181.25
807.543	134.14
807.722	109.57
807.901	148.48
808.081	179.2
808.26	80.89
808.439	87.04
808.619	134.14
808.798	111.61
808.977	115.71
809.156	195.58
809.336	130.05
809.515	156.67
809.694	171.01
809.873	138.24
810.052	103.42
810.231	177.15
810.411	99.33
810.59	89.09
810.769	183.29
810.948	130.05
811.127	44.03
811.306	154.62
811.485	-21.5
811.664	248.83
811.843	35.84
812.022	142.33
812.201	93.18
812.38	111.61
812.559	66.56
812.737	97.28
812.916	91.13
813.095	150.53
813.274	136.19
813.453	111.61
813.632	138.24
813.811	195.58
813.989	60.42
814.168	52.22
814.347	84.99
814.526	29.7
814.704	158.72
814.883	80.89
815.062	97.28
815.24	97.28
815.419	105.47
815.598	72.7
815.776	48.13
815.955	109.57
816.133	72.7
816.312	105.47
816.49	31.74
816.669	134.14
816.847	99.33
817.026	64.51
817.204	91.13
817.383	46.08
817.561	87.04
817.74	117.76
817.918	13.31
818.097	154.62
818.275	46.08
818.453	64.51
818.632	64.51
818.81	91.13
818.988	113.66
819.167	13.31
819.345	99.33
819.523	76.8
819.701	52.22
819.879	82.94
820.058	136.19
820.236	82.94
820.414	84.99
820.592	87.04
820.77	97.28
820.948	64.51
821.127	138.24
821.305	-21.5
821.483	60.42
821.661	93.18
821.839	-13.31
822.017	31.74
822.195	72.7
822.373	44.03
822.551	60.42
822.729	82.94
822.907	89.09
823.085	156.67
823.262	84.99
823.44	109.57
823.618	78.85
823.796	128
823.974	97.28
824.152	109.57
824.329	89.09
824.507	29.7
824.685	72.7
824.863	72.7
825.04	19.46
825.218	105.47
825.396	60.42
825.574	72.7
825.751	19.46
825.929	84.99
826.107	9.22
826.284	46.08
826.462	87.04
826.639	58.37
826.817	105.47
826.994	3.07
827.172	-3.07
827.349	50.18
827.527	52.22
827.704	5.12
827.882	39.94
828.059	-27.65
828.237	72.7
828.414	105.47
828.591	23.55
828.769	52.22
828.946	37.89
829.124	48.13
829.301	64.51
829.478	109.57
829.655	68.61
829.833	80.89
830.01	50.18
830.187	17.41
830.364	52.22
830.542	60.42
830.719	152.57
830.896	68.61
831.073	89.09
831.25	60.42
831.427	37.89
831.604	-1.02
831.782	13.31
831.959	113.66
832.136	33.79
832.313	103.42
832.49	19.46
832.667	1.02
832.844	17.41
833.021	54.27
833.198	-70.65
833.374	91.13
833.551	1.02
833.728	31.74
833.905	101.37
834.082	-33.79
834.259	7.17
834.436	82.94
834.612	21.5
834.789	54.27
834.966	46.08
835.143	35.84
835.319	50.18
835.496	113.66
835.673	27.65
835.85	74.75
836.026	37.89
836.203	50.18
836.38	13.31
836.556	56.32
836.733	25.6
836.909	152.57
837.086	60.42
837.262	-21.5
837.439	-17.41
837.616	15.36
837.792	-25.6
837.968	-46.08
838.145	72.7
838.321	1.02
838.498	-7.17
838.674	-1.02
838.851	-15.36
839.027	76.8
839.203	41.98
839.38	25.6
839.556	68.61
839.732	84.99
839.909	56.32
840.085	58.37
840.261	23.55
840.437	35.84
840.614	72.7
840.79	97.28
840.966	41.98
841.142	-87.04
841.318	3.07
841.494	84.99
841.671	64.51
841.847	-17.41
842.023	-1.02
842.199	11.26
842.375	74.75
842.551	23.55
842.727	5.12
842.903	105.47
843.079	56.32
843.255	-27.65
843.431	-1.02
843.607	-25.6
843.783	23.55
843.959	117.76
844.134	-29.7
844.31	3.07
844.486	5.12
844.662	-1.02
844.838	-27.65
845.013	87.04
845.189	-13.31
845.365	48.13
845.541	1.02
845.716	23.55
845.892	-11.26
846.068	-17.41
846.244	15.36
846.419	33.79
846.595	33.79
846.77	-52.22
846.946	-17.41
847.122	15.36
847.297	-52.22
847.473	58.37
847.648	25.6
847.824	39.94
847.999	-7.17
848.175	-46.08
848.35	33.79
848.526	17.41
848.701	-48.13
848.876	56.32
849.052	19.46
849.227	66.56
849.403	-11.26
849.578	60.42
849.753	-11.26
849.929	33.79
850.104	-39.94
850.279	66.56
850.454	9.22
850.63	123.9
850.805	-89.09
850.98	70.65
851.155	31.74
851.33	50.18
851.505	25.6
851.681	23.55
851.856	-13.31
852.031	23.55
852.206	27.65
852.381	-13.31
852.556	-35.84
852.731	31.74
852.906	23.55
853.081	-37.89
853.256	11.26
853.431	25.6
853.606	17.41
853.781	-13.31
853.956	-1.02
854.131	-7.17
854.305	23.55
854.48	60.42
854.655	-52.22
854.83	70.65
855.005	-21.5
855.18	25.6
855.354	-27.65
855.529	27.65
855.704	7.17
855.879	19.46
856.053	-21.5
856.228	7.17
856.403	-93.18
856.577	19.46
856.752	-15.36
856.926	56.32
857.101	48.13
857.276	89.09
857.45	-17.41
857.625	33.79
857.799	17.41
857.974	-7.17
858.148	-33.79
858.323	-23.55
858.497	21.5
858.672	-48.13
858.846	15.36
859.02	-9.22
859.195	23.55
859.369	3.07
859.543	29.7
859.718	60.42
859.892	-9.22
860.066	111.61
860.241	-3.07
860.415	-50.18
860.589	9.22
860.763	52.22
860.938	-37.89
861.112	54.27
861.286	-19.46
861.46	44.03
861.634	76.8
861.808	11.26
861.982	-80.89
862.157	-25.6
862.331	1.02
862.505	-1.02
862.679	3.07
862.853	-91.13
863.027	60.42
863.201	60.42
863.375	-25.6
863.549	39.94
863.722	-21.5
863.896	56.32
864.07	35.84
864.244	56.32
864.418	-117.76
864.592	31.74
864.766	-35.84
864.939	-21.5
865.113	9.22
865.287	87.04
865.461	29.7
865.634	48.13
865.808	-5.12
865.982	-9.22
866.156	-33.79
866.329	-1.02
866.503	-1.02
866.676	25.6
866.85	-17.41
867.024	-13.31
867.197	-13.31
867.371	23.55
867.544	31.74
867.718	-50.18
867.891	103.42
868.065	54.27
868.238	-48.13
868.412	-23.55
868.585	-1.02
868.759	-54.27
868.932	-91.13
869.105	-27.65
869.279	-1.02
869.452	1.02
869.625	23.55
869.799	-44.03
869.972	-84.99
870.145	-64.51
870.319	-46.08
870.492	-60.42
870.665	-17.41
870.838	15.36
871.011	-78.85
871.185	-25.6
871.358	1.02
871.531	-44.03
871.704	-9.22
871.877	5.12
872.05	13.31
872.223	-25.6
872.396	31.74
872.569	7.17
872.742	-27.65
872.915	-27.65
873.088	-46.08
873.261	-41.98
873.434	-11.26
873.607	103.42
873.78	-19.46
873.953	-11.26
874.126	-21.5
874.299	66.56
874.471	-3.07
874.644	7.17
874.817	-35.84
874.99	-19.46
875.163	-25.6
875.335	17.41
875.508	66.56
875.681	58.37
875.853	-41.98
876.026	-62.46
876.199	-17.41
876.371	-1.02
876.544	-19.46
876.717	52.22
876.889	-21.5
877.062	-29.7
877.234	-31.74
877.407	-3.07
877.579	23.55
877.752	-27.65
877.924	21.5
878.097	80.89
878.269	39.94
878.442	31.74
878.614	5.12
878.786	50.18
878.959	25.6
879.131	44.03
879.303	15.36
879.476	-5.12
879.648	-37.89
879.82	27.65
879.993	-37.89
880.165	-74.75
880.337	13.31
880.509	11.26
880.681	5.12
880.854	-1.02
881.026	-3.07
881.198	-48.13
881.37	-33.79
881.542	46.08
881.714	-21.5
881.886	64.51
882.058	27.65
882.23	-13.31
882.402	7.17
882.574	-46.08
882.746	11.26
882.918	-66.56
883.09	37.89
883.262	-15.36
883.434	11.26
883.606	-70.65
883.778	1.02
883.95	7.17
884.122	37.89
884.293	44.03
884.465	39.94
884.637	-1.02
884.809	-50.18
884.98	-39.94
885.152	1.02
885.324	-3.07
885.496	-9.22
885.667	1.02
885.839	15.36
886.011	-33.79
886.182	37.89
886.354	-35.84
886.525	-54.27
886.697	-29.7
886.869	-35.84
887.04	3.07
887.212	-46.08
887.383	-64.51
887.555	46.08
887.726	-68.61
887.897	-11.26
888.069	54.27
888.24	23.55
888.412	-15.36
888.583	-72.7
888.754	-1.02
888.926	-76.8
889.097	1.02
889.268	-13.31
889.44	-107.52
889.611	-5.12
889.782	93.18
889.953	-27.65
890.125	58.37
890.296	-52.22
890.467	58.37
890.638	-29.7
890.809	-37.89
890.98	-84.99
891.151	-39.94
891.323	-39.94
891.494	35.84
891.665	3.07
891.836	48.13
892.007	-1.02
892.178	-5.12
892.349	15.36
892.52	-33.79
892.691	-33.79
892.862	-21.5
893.032	-5.12
893.203	-62.46
893.374	-54.27
893.545	41.98
893.716	27.65
893.887	56.32
894.057	31.74
894.228	3.07
894.399	-31.74
894.57	41.98
894.74	-76.8
894.911	13.31
895.082	23.55
895.253	-62.46
895.423	-56.32
895.594	-5.12
895.764	5.12
895.935	-35.84
896.106	-1.02
896.276	-58.37
896.447	35.84
896.617	31.74
896.788	-84.99
896.958	-5.12
897.129	-9.22
897.299	1.02
897.47	-74.75
897.64	84.99
897.81	-15.36
897.981	25.6
898.151	-35.84
898.322	-25.6
898.492	5.12
898.662	-33.79
898.832	-23.55
899.003	-44.03
899.173	54.27
899.343	-56.32
899.513	-52.22
