Data from USB4F104151__105__11-07-08-639.txt Node

Date: Wed Mar 12 11:07:08 EDT 2025
User: louis
Spectrometer: USB4F10415
Trigger mode: 4
Integration Time (sec): 2.000000E-2
Scans to average: 1
Electric dark correction enabled: true
Nonlinearity correction enabled: false
Boxcar width: 0
XAxis mode: Wavelengths
Number of Pixels in Spectrum: 3648
>>>>>Begin Spectral Data<<<<<
178.204	-60.42
178.424	-60.42
178.644	-60.42
178.864	-70.65
179.084	-33.79
179.304	-44.03
179.524	13.31
179.744	35.84
179.964	-7.17
180.184	7.17
180.404	27.65
180.624	-9.22
180.844	-41.98
181.064	3.07
181.283	7.17
181.503	-70.65
181.723	78.85
181.943	-13.31
182.163	23.55
182.383	29.7
182.602	80.89
182.822	9.22
183.042	35.84
183.262	21.5
183.482	-13.31
183.701	25.6
183.921	66.56
184.141	-31.74
184.361	93.18
184.58	54.27
184.8	17.41
185.02	-17.41
185.239	78.85
185.459	56.32
185.679	35.84
185.898	5.12
186.118	48.13
186.338	74.75
186.557	64.51
186.777	-48.13
186.997	7.17
187.216	11.26
187.436	44.03
187.655	37.89
187.875	136.19
188.095	19.46
188.314	62.46
188.534	89.09
188.753	15.36
188.973	93.18
189.192	50.18
189.412	52.22
189.631	144.38
189.851	44.03
190.07	56.32
190.29	-7.17
190.509	23.55
190.729	48.13
190.948	74.75
191.168	138.24
191.387	80.89
191.607	70.65
191.826	29.7
192.045	50.18
192.265	-37.89
192.484	113.66
192.704	33.79
192.923	91.13
193.142	97.28
193.362	82.94
193.581	97.28
193.8	23.55
194.02	91.13
194.239	84.99
194.458	48.13
194.678	44.03
194.897	97.28
195.116	7.17
195.335	66.56
195.555	-1.02
195.774	72.7
195.993	152.57
196.212	58.37
196.432	-27.65
196.651	46.08
196.87	13.31
197.089	111.61
197.308	78.85
197.528	70.65
197.747	66.56
197.966	72.7
198.185	107.52
198.404	41.98
198.623	17.41
198.842	125.95
199.062	37.89
199.281	113.66
199.5	17.41
199.719	-3.07
199.938	-15.36
200.157	82.94
200.376	-5.12
200.595	52.22
200.814	62.46
201.033	93.18
201.252	17.41
201.471	72.7
201.69	89.09
201.909	70.65
202.128	15.36
202.347	5.12
202.566	31.74
202.785	50.18
203.004	-25.6
203.223	56.32
203.442	48.13
203.661	56.32
203.879	-17.41
204.098	115.71
204.317	11.26
204.536	74.75
204.755	39.94
204.974	33.79
205.193	9.22
205.411	91.13
205.63	74.75
205.849	35.84
206.068	9.22
206.287	5.12
206.505	60.42
206.724	60.42
206.943	29.7
207.162	-9.22
207.381	80.89
207.599	54.27
207.818	76.8
208.037	48.13
208.255	25.6
208.474	5.12
208.693	46.08
208.911	25.6
209.13	46.08
209.349	46.08
209.567	31.74
209.786	111.61
210.005	54.27
210.223	89.09
210.442	15.36
210.661	33.79
210.879	72.7
211.098	29.7
211.316	52.22
211.535	-5.12
211.753	-15.36
211.972	78.85
212.191	64.51
212.409	84.99
212.628	50.18
212.846	-5.12
213.065	74.75
213.283	66.56
213.502	11.26
213.72	9.22
213.938	29.7
214.157	-3.07
214.375	31.74
214.594	-7.17
214.812	33.79
215.031	54.27
215.249	-9.22
215.467	-27.65
215.686	87.04
215.904	76.8
216.122	21.5
216.341	48.13
216.559	89.09
216.778	5.12
216.996	103.42
217.214	21.5
217.432	62.46
217.651	95.23
217.869	-7.17
218.087	70.65
218.306	68.61
218.524	39.94
218.742	1.02
218.96	37.89
219.179	21.5
219.397	31.74
219.615	15.36
219.833	78.85
220.051	74.75
220.27	60.42
220.488	107.52
220.706	35.84
220.924	-23.55
221.142	21.5
221.36	91.13
221.578	60.42
221.796	72.7
222.015	5.12
222.233	13.31
222.451	41.98
222.669	52.22
222.887	54.27
223.105	48.13
223.323	-19.46
223.541	37.89
223.759	76.8
223.977	1.02
224.195	64.51
224.413	119.81
224.631	29.7
224.849	58.37
225.067	123.9
225.285	-25.6
225.503	54.27
225.721	-17.41
225.939	3.07
226.157	-29.7
226.375	115.71
226.592	44.03
226.81	-15.36
227.028	76.8
227.246	87.04
227.464	-31.74
227.682	80.89
227.9	52.22
228.117	9.22
228.335	99.33
228.553	74.75
228.771	72.7
228.989	109.57
229.206	39.94
229.424	95.23
229.642	44.03
229.86	54.27
230.077	97.28
230.295	29.7
230.513	21.5
230.731	109.57
230.948	33.79
231.166	56.32
231.384	105.47
231.601	107.52
231.819	-7.17
232.037	1.02
232.254	-56.32
232.472	1.02
232.689	23.55
232.907	50.18
233.125	48.13
233.342	7.17
233.56	27.65
233.777	48.13
233.995	62.46
234.213	84.99
234.43	82.94
234.648	84.99
234.865	54.27
235.083	78.85
235.3	91.13
235.518	78.85
235.735	60.42
235.953	113.66
236.17	35.84
236.388	91.13
236.605	9.22
236.822	95.23
237.04	140.29
237.257	15.36
237.475	31.74
237.692	41.98
237.909	80.89
238.127	48.13
238.344	-44.03
238.562	29.7
238.779	48.13
238.996	-3.07
239.214	-3.07
239.431	41.98
239.648	50.18
239.865	1.02
240.083	33.79
240.3	91.13
240.517	50.18
240.735	60.42
240.952	66.56
241.169	29.7
241.386	84.99
241.603	29.7
241.821	25.6
242.038	105.47
242.255	21.5
242.472	-50.18
242.689	72.7
242.907	54.27
243.124	21.5
243.341	74.75
243.558	84.99
243.775	54.27
243.992	-21.5
244.209	-13.31
244.426	37.89
244.643	87.04
244.86	60.42
245.078	7.17
245.295	50.18
245.512	-3.07
245.729	-31.74
245.946	23.55
246.163	52.22
246.38	101.37
246.597	93.18
246.814	13.31
247.031	46.08
247.248	19.46
247.464	25.6
247.681	46.08
247.898	39.94
248.115	44.03
248.332	7.17
248.549	48.13
248.766	54.27
248.983	70.65
249.2	50.18
249.417	70.65
249.633	91.13
249.85	70.65
250.067	-19.46
250.284	150.53
250.501	58.37
250.717	37.89
250.934	-3.07
251.151	91.13
251.368	60.42
251.585	70.65
251.801	-46.08
252.018	68.61
252.235	19.46
252.451	33.79
252.668	152.57
252.885	101.37
253.102	52.22
253.318	54.27
253.535	76.8
253.752	-11.26
253.968	70.65
254.185	41.98
254.401	41.98
254.618	56.32
254.835	35.84
255.051	125.95
255.268	56.32
255.484	50.18
255.701	17.41
255.917	142.33
256.134	60.42
256.351	76.8
256.567	29.7
256.784	101.37
257	80.89
257.217	44.03
257.433	56.32
257.65	48.13
257.866	91.13
258.082	97.28
258.299	50.18
258.515	35.84
258.732	41.98
258.948	103.42
259.165	9.22
259.381	-21.5
259.597	58.37
259.814	15.36
260.03	78.85
260.246	101.37
260.463	56.32
260.679	68.61
260.895	37.89
261.112	119.81
261.328	41.98
261.544	23.55
261.761	39.94
261.977	35.84
262.193	72.7
262.409	44.03
262.626	37.89
262.842	39.94
263.058	-39.94
263.274	111.61
263.49	44.03
263.707	164.86
263.923	33.79
264.139	21.5
264.355	17.41
264.571	58.37
264.787	44.03
265.004	13.31
265.22	48.13
265.436	107.52
265.652	60.42
265.868	33.79
266.084	3.07
266.3	58.37
266.516	1.02
266.732	66.56
266.948	66.56
267.164	68.61
267.38	99.33
267.596	99.33
267.812	46.08
268.028	74.75
268.244	76.8
268.46	44.03
268.676	-58.37
268.892	113.66
269.108	54.27
269.324	21.5
269.54	23.55
269.756	50.18
269.972	11.26
270.188	103.42
270.403	-7.17
270.619	37.89
270.835	-33.79
271.051	17.41
271.267	-33.79
271.483	25.6
271.698	-13.31
271.914	-31.74
272.13	50.18
272.346	68.61
272.562	11.26
272.777	66.56
272.993	-9.22
273.209	21.5
273.425	48.13
273.64	64.51
273.856	111.61
274.072	5.12
274.287	99.33
274.503	15.36
274.719	62.46
274.934	87.04
275.15	-5.12
275.366	68.61
275.581	-17.41
275.797	80.89
276.012	44.03
276.228	54.27
276.444	95.23
276.659	117.76
276.875	35.84
277.09	103.42
277.306	46.08
277.521	-15.36
277.737	-54.27
277.952	66.56
278.168	54.27
278.383	31.74
278.599	72.7
278.814	72.7
279.03	31.74
279.245	-15.36
279.461	64.51
279.676	58.37
279.892	9.22
280.107	91.13
280.322	-23.55
280.538	41.98
280.753	23.55
280.969	72.7
281.184	19.46
281.399	91.13
281.615	-9.22
281.83	117.76
282.045	89.09
282.26	17.41
282.476	52.22
282.691	9.22
282.906	113.66
283.122	46.08
283.337	-37.89
283.552	95.23
283.767	62.46
283.983	99.33
284.198	74.75
284.413	56.32
284.628	25.6
284.843	56.32
285.058	33.79
285.274	76.8
285.489	25.6
285.704	82.94
285.919	11.26
286.134	48.13
286.349	101.37
286.564	68.61
286.779	-25.6
286.995	70.65
287.21	19.46
287.425	93.18
287.64	25.6
287.855	48.13
288.07	58.37
288.285	89.09
288.5	58.37
288.715	44.03
288.93	44.03
289.145	9.22
289.36	58.37
289.575	-1.02
289.79	101.37
290.004	91.13
290.219	-3.07
290.434	21.5
290.649	66.56
290.864	72.7
291.079	9.22
291.294	101.37
291.509	82.94
291.724	113.66
291.938	21.5
292.153	101.37
292.368	56.32
292.583	3.07
292.798	70.65
293.012	56.32
293.227	9.22
293.442	76.8
293.657	80.89
293.871	5.12
294.086	68.61
294.301	107.52
294.516	44.03
294.73	33.79
294.945	-15.36
295.16	31.74
295.374	56.32
295.589	91.13
295.804	-13.31
296.018	39.94
296.233	130.05
296.447	70.65
296.662	89.09
296.877	97.28
297.091	33.79
297.306	74.75
297.52	50.18
297.735	33.79
297.949	60.42
298.164	134.14
298.378	23.55
298.593	-5.12
298.807	23.55
299.022	48.13
299.236	5.12
299.451	119.81
299.665	-15.36
299.88	87.04
300.094	33.79
300.309	31.74
300.523	60.42
300.737	29.7
300.952	58.37
301.166	70.65
301.381	82.94
301.595	46.08
301.809	89.09
302.024	74.75
302.238	39.94
302.452	119.81
302.667	41.98
302.881	-3.07
303.095	50.18
303.309	1.02
303.524	84.99
303.738	54.27
303.952	87.04
304.166	132.09
304.381	-27.65
304.595	130.05
304.809	3.07
305.023	74.75
305.237	11.26
305.452	50.18
305.666	17.41
305.88	76.8
306.094	29.7
306.308	62.46
306.522	-7.17
306.736	82.94
306.95	21.5
307.164	87.04
307.379	78.85
307.593	78.85
307.807	29.7
308.021	27.65
308.235	58.37
308.449	50.18
308.663	-21.5
308.877	64.51
309.091	74.75
309.305	62.46
309.519	39.94
309.733	62.46
309.947	31.74
310.161	72.7
310.374	93.18
310.588	33.79
310.802	66.56
311.016	105.47
311.23	60.42
311.444	82.94
311.658	62.46
311.872	70.65
312.085	95.23
312.299	74.75
312.513	99.33
312.727	11.26
312.941	5.12
313.154	107.52
313.368	50.18
313.582	72.7
313.796	74.75
314.009	60.42
314.223	89.09
314.437	82.94
314.651	113.66
314.864	15.36
315.078	84.99
315.292	39.94
315.505	-1.02
315.719	82.94
315.933	-13.31
316.146	64.51
316.36	33.79
316.573	41.98
316.787	17.41
317.001	58.37
317.214	33.79
317.428	74.75
317.641	52.22
317.855	82.94
318.068	148.48
318.282	33.79
318.495	64.51
318.709	66.56
318.922	52.22
319.136	70.65
319.349	58.37
319.563	74.75
319.776	103.42
319.99	23.55
320.203	-7.17
320.417	27.65
320.63	66.56
320.843	80.89
321.057	99.33
321.27	56.32
321.483	58.37
321.697	113.66
321.91	80.89
322.124	101.37
322.337	111.61
322.55	23.55
322.763	9.22
322.977	52.22
323.19	-29.7
323.403	105.47
323.617	23.55
323.83	87.04
324.043	33.79
324.256	62.46
324.469	107.52
324.683	115.71
324.896	-15.36
325.109	87.04
325.322	29.7
325.535	58.37
325.748	66.56
325.962	9.22
326.175	39.94
326.388	46.08
326.601	46.08
326.814	50.18
327.027	41.98
327.24	52.22
327.453	107.52
327.666	134.14
327.879	60.42
328.092	70.65
328.305	101.37
328.518	82.94
328.731	1.02
328.944	56.32
329.157	78.85
329.37	62.46
329.583	111.61
329.796	111.61
330.009	25.6
330.222	-5.12
330.435	3.07
330.648	-1.02
330.861	39.94
331.073	17.41
331.286	87.04
331.499	19.46
331.712	5.12
331.925	-7.17
332.138	44.03
332.35	103.42
332.563	-7.17
332.776	41.98
332.989	33.79
333.202	107.52
333.414	29.7
333.627	11.26
333.84	107.52
334.053	154.62
334.265	-15.36
334.478	-37.89
334.691	89.09
334.903	48.13
335.116	25.6
335.329	101.37
335.541	72.7
335.754	68.61
335.966	72.7
336.179	82.94
336.392	78.85
336.604	109.57
336.817	146.43
337.029	56.32
337.242	62.46
337.454	103.42
337.667	97.28
337.88	82.94
338.092	56.32
338.305	-9.22
338.517	-5.12
338.729	21.5
338.942	99.33
339.154	19.46
339.367	17.41
339.579	107.52
339.792	35.84
340.004	166.91
340.217	76.8
340.429	97.28
340.641	5.12
340.854	25.6
341.066	68.61
341.278	52.22
341.491	13.31
341.703	82.94
341.915	-1.02
342.128	82.94
342.34	58.37
342.552	39.94
342.764	80.89
342.977	64.51
343.189	41.98
343.401	35.84
343.613	50.18
343.826	89.09
344.038	74.75
344.25	33.79
344.462	41.98
344.674	1.02
344.886	130.05
345.099	95.23
345.311	54.27
345.523	33.79
345.735	33.79
345.947	37.89
346.159	66.56
346.371	121.85
346.583	60.42
346.795	25.6
347.007	64.51
347.219	142.33
347.431	76.8
347.643	103.42
347.855	37.89
348.067	105.47
348.279	21.5
348.491	37.89
348.703	-3.07
348.915	62.46
349.127	68.61
349.339	68.61
349.551	68.61
349.763	60.42
349.975	113.66
350.187	117.76
350.399	109.57
350.61	76.8
350.822	84.99
351.034	41.98
351.246	58.37
351.458	62.46
351.669	11.26
351.881	97.28
352.093	107.52
352.305	46.08
352.517	82.94
352.728	56.32
352.94	27.65
353.152	27.65
353.363	78.85
353.575	91.13
353.787	9.22
353.999	50.18
354.21	68.61
354.422	150.53
354.633	46.08
354.845	3.07
355.057	25.6
355.268	50.18
355.48	-7.17
355.692	99.33
355.903	66.56
356.115	21.5
356.326	21.5
356.538	66.56
356.749	97.28
356.961	62.46
357.172	5.12
357.384	72.7
357.595	23.55
357.807	64.51
358.018	23.55
358.23	101.37
358.441	111.61
358.653	109.57
358.864	35.84
359.075	44.03
359.287	72.7
359.498	80.89
359.709	33.79
359.921	119.81
360.132	5.12
360.344	54.27
360.555	74.75
360.766	41.98
360.977	82.94
361.189	84.99
361.4	46.08
361.611	119.81
361.823	72.7
362.034	109.57
362.245	-7.17
362.456	21.5
362.667	128
362.879	15.36
363.09	27.65
363.301	70.65
363.512	5.12
363.723	119.81
363.935	107.52
364.146	70.65
364.357	9.22
364.568	41.98
364.779	-9.22
364.99	56.32
365.201	21.5
365.412	97.28
365.623	17.41
365.834	54.27
366.045	46.08
366.256	66.56
366.467	91.13
366.678	54.27
366.889	33.79
367.1	80.89
367.311	58.37
367.522	25.6
367.733	54.27
367.944	93.18
368.155	3.07
368.366	89.09
368.577	33.79
368.788	103.42
368.999	1.02
369.209	130.05
369.42	23.55
369.631	91.13
369.842	41.98
370.053	-52.22
370.264	39.94
370.474	44.03
370.685	78.85
370.896	11.26
371.107	33.79
371.317	62.46
371.528	82.94
371.739	66.56
371.95	66.56
372.16	101.37
372.371	23.55
372.582	78.85
372.792	76.8
373.003	46.08
373.214	25.6
373.424	115.71
373.635	70.65
373.846	60.42
374.056	121.85
374.267	15.36
374.477	70.65
374.688	19.46
374.898	58.37
375.109	74.75
375.319	89.09
375.53	123.9
375.74	74.75
375.951	70.65
376.161	84.99
376.372	99.33
376.582	37.89
376.793	152.57
377.003	142.33
377.214	72.7
377.424	37.89
377.635	46.08
377.845	-27.65
378.055	82.94
378.266	5.12
378.476	-11.26
378.686	173.05
378.897	87.04
379.107	58.37
379.317	80.89
379.528	76.8
379.738	162.81
379.948	41.98
380.158	105.47
380.369	41.98
380.579	119.81
380.789	-9.22
380.999	33.79
381.21	31.74
381.42	17.41
381.63	5.12
381.84	66.56
382.05	76.8
382.261	21.5
382.471	76.8
382.681	74.75
382.891	68.61
383.101	78.85
383.311	41.98
383.521	48.13
383.731	107.52
383.941	130.05
384.151	80.89
384.361	25.6
384.571	195.58
384.781	97.28
384.991	142.33
385.201	82.94
385.411	54.27
385.621	70.65
385.831	48.13
386.041	64.51
386.251	136.19
386.461	37.89
386.671	13.31
386.881	107.52
387.091	72.7
387.301	52.22
387.511	31.74
387.72	58.37
387.93	78.85
388.14	48.13
388.35	13.31
388.56	95.23
388.769	107.52
388.979	35.84
389.189	48.13
389.399	93.18
389.609	27.65
389.818	33.79
390.028	56.32
390.238	95.23
390.447	48.13
390.657	68.61
390.867	-29.7
391.076	35.84
391.286	119.81
391.496	144.38
391.705	103.42
391.915	19.46
392.125	107.52
392.334	84.99
392.544	136.19
392.753	68.61
392.963	50.18
393.172	97.28
393.382	60.42
393.591	52.22
393.801	46.08
394.01	117.76
394.22	87.04
394.429	89.09
394.639	101.37
394.848	148.48
395.058	78.85
395.267	72.7
395.477	113.66
395.686	134.14
395.895	107.52
396.105	123.9
396.314	128
396.524	119.81
396.733	105.47
396.942	21.5
397.152	132.09
397.361	117.76
397.57	101.37
397.78	185.34
397.989	117.76
398.198	97.28
398.407	103.42
398.617	74.75
398.826	87.04
399.035	103.42
399.244	144.38
399.453	82.94
399.663	144.38
399.872	187.39
400.081	171.01
400.29	128
400.499	99.33
400.708	54.27
400.917	80.89
401.127	185.34
401.336	76.8
401.545	171.01
401.754	125.95
401.963	199.68
402.172	95.23
402.381	121.85
402.59	101.37
402.799	148.48
403.008	132.09
403.217	201.72
403.426	134.14
403.635	185.34
403.844	107.52
404.053	146.43
404.262	93.18
404.471	162.81
404.68	207.87
404.888	111.61
405.097	144.38
405.306	193.53
405.515	111.61
405.724	177.15
405.933	193.53
406.142	171.01
406.35	158.72
406.559	142.33
406.768	179.2
406.977	168.96
407.185	185.34
407.394	111.61
407.603	175.1
407.812	189.44
408.02	205.82
408.229	222.2
408.438	166.91
408.646	218.11
408.855	310.27
409.064	226.3
409.272	263.16
409.481	185.34
409.69	250.88
409.898	289.79
410.107	320.51
410.315	302.08
410.524	293.88
410.733	267.26
410.941	271.36
411.15	277.5
411.358	279.55
411.567	347.13
411.775	310.27
411.984	310.27
412.192	386.04
412.401	261.12
412.609	361.47
412.818	431.1
413.026	357.37
413.234	431.1
413.443	484.34
413.651	445.43
413.86	488.44
414.068	457.72
414.276	535.54
414.485	517.11
414.693	553.98
414.901	607.22
415.11	541.69
415.318	531.45
415.526	570.36
415.734	592.89
415.943	578.55
416.151	613.37
416.359	648.18
416.567	664.57
416.776	719.86
416.984	801.78
417.192	789.49
417.4	697.33
417.608	746.48
417.817	769.01
418.025	873.46
418.233	1082.35
418.441	938.99
418.649	965.62
418.857	1020.91
419.065	992.24
419.273	1016.82
419.481	1063.92
419.689	1149.93
419.897	1088.5
420.105	1180.65
420.313	1182.7
420.521	1272.81
420.729	1305.58
420.937	1262.57
421.145	1319.92
421.353	1407.98
421.561	1481.71
421.769	1491.95
421.977	1635.3
422.185	1514.47
422.393	1653.73
422.601	1747.94
422.809	1749.99
423.017	1778.66
423.224	1836
423.432	2003.94
423.64	1928.16
423.848	1987.55
424.056	2139.1
424.263	2231.26
424.471	2274.27
424.679	2239.45
424.887	2321.37
425.094	2274.27
425.302	2376.67
425.51	2524.12
425.718	2552.79
425.925	2687.96
426.133	2847.7
426.341	2903
426.548	2927.57
426.756	2896.85
426.964	3044.31
427.171	3134.42
427.379	3083.22
427.586	3355.6
427.794	3488.71
428.001	3619.78
428.209	3623.88
428.417	3630.02
428.624	3947.46
428.832	4076.48
429.039	3834.82
429.247	4037.57
429.454	4221.89
429.662	4684.73
429.869	4287.42
430.076	4651.96
430.284	4567.99
430.491	4674.49
430.699	4969.4
430.906	4875.19
431.114	4950.96
431.321	5075.89
431.528	5333.93
431.736	5616.55
431.943	5917.61
432.15	5684.14
432.358	5776.3
432.565	6151.07
432.772	5989.28
432.979	6237.09
433.187	6564.76
433.394	6464.41
433.601	6761.37
433.808	7095.19
434.016	6906.77
434.223	7209.87
434.43	7707.53
434.637	7414.67
434.844	7932.81
435.052	8229.76
435.259	8006.53
435.466	7957.38
435.673	7981.96
435.88	8672.12
436.087	9163.64
436.294	9130.87
436.501	8795
436.708	8987.51
436.915	9347.95
437.122	9505.65
437.329	9628.53
437.537	9948.01
437.743	10265.44
437.95	9943.91
438.157	10570.59
438.364	11004.76
438.571	10986.33
438.778	11101.01
438.985	12274.5
439.192	11479.89
439.399	12004.17
439.606	11717.45
439.813	12168.01
440.02	12991.29
440.227	12849.98
440.433	12653.37
440.64	13028.15
440.847	13247.29
441.054	13394.74
441.261	14330.66
441.467	13992.75
441.674	14422.82
441.881	15004.44
442.088	14986.01
442.294	14730.02
442.501	14983.96
442.708	15420.18
442.914	16182.03
443.121	16587.52
443.328	16053
443.534	17505.01
443.741	16970.49
443.948	16734.98
444.154	18129.64
444.361	17855.22
444.568	18010.86
444.774	18191.08
444.981	18180.84
445.187	18631.4
445.394	19323.61
445.6	19036.89
445.807	21099.2
446.013	20107.98
446.22	20456.14
446.426	21363.39
446.633	21390.01
446.839	22117.04
447.046	21359.29
447.252	22311.6
447.459	22682.28
447.665	22500.01
447.871	23179.93
448.078	24267.41
448.284	23126.69
448.491	23515.8
448.697	24656.52
448.903	25250.43
449.11	25232
449.316	24750.73
449.522	25057.92
449.728	25940.6
449.935	26129.01
450.141	26024.56
450.347	26686.06
450.553	25909.88
450.76	25954.93
450.966	27152.99
451.172	26595.95
451.378	27181.67
451.584	26772.07
451.791	27791.96
451.997	27454.05
452.203	27732.57
452.409	28058.2
452.615	27667.03
452.821	26737.26
453.027	26352.24
453.233	27761.24
453.44	26636.91
453.646	26817.13
453.852	27175.52
454.058	27603.55
454.264	26290.8
454.47	26915.43
454.676	26342
454.882	27642.46
455.088	25141.89
455.294	25381.5
455.5	25899.64
455.705	25999.99
455.911	24908.42
456.117	24537.74
456.323	24306.32
456.529	22878.88
456.735	23796.37
456.941	23206.56
457.147	23012
457.352	22606.5
457.558	21750.45
457.764	21979.82
457.97	21668.53
458.176	21412.54
458.381	21283.52
458.587	20034.25
458.793	19776.21
458.999	19159.77
459.204	20591.3
459.41	19770.07
459.616	18289.38
459.821	18442.98
460.027	18301.67
460.233	18080.49
460.438	16974.59
460.644	17257.21
460.85	16648.96
461.055	16466.69
461.261	16454.4
461.466	15239.96
461.672	14662.43
461.878	15590.16
462.083	14811.93
462.289	14668.58
462.494	14177.06
462.7	13679.41
462.905	13128.5
463.111	13912.88
463.316	13986.6
463.522	13550.39
463.727	13536.05
463.932	13591.34
464.138	13255.48
464.343	13503.28
464.549	13062.97
464.754	13447.99
464.959	13488.95
465.165	13333.3
465.37	12841.79
465.575	12434.24
465.781	12911.42
465.986	13009.72
466.191	12426.05
466.397	12200.77
466.602	11639.63
466.807	12125
467.012	11948.87
467.218	11948.87
467.423	11692.88
467.628	11998.02
467.833	12409.67
468.038	11952.97
468.244	11699.02
468.449	12067.66
468.654	11832.14
468.859	11686.73
469.064	11537.23
469.269	10984.28
469.474	11305.81
469.679	11375.44
469.885	11101.01
470.09	11238.23
470.295	11303.76
470.5	10961.75
470.705	11076.44
470.91	10601.31
471.115	10353.51
471.32	10830.68
471.525	10666.85
471.73	10529.63
471.935	10503.01
472.139	9952.1
472.344	10128.23
472.549	10001.26
472.754	10029.93
472.959	9859.95
473.164	9565.04
473.369	9513.84
473.574	9948.01
473.778	9659.24
473.983	9562.99
474.188	9513.84
474.393	9077.62
474.598	9247.6
474.802	9159.54
475.007	9028.47
475.212	9003.89
475.417	8739.71
475.621	8915.83
475.826	8715.13
476.031	8528.77
476.235	8457.09
476.44	8725.37
476.645	8289.15
476.849	8428.42
477.054	8293.25
477.259	8262.53
477.463	8246.15
477.668	7875.46
477.872	8141.7
478.077	7861.13
478.282	7728.01
478.486	7791.5
478.691	7596.94
478.895	7680.91
479.1	7680.91
479.304	7590.8
479.509	7426.96
479.713	7527.31
479.918	7439.25
480.122	7170.96
480.326	7467.92
480.531	7304.08
480.735	7193.49
480.94	7179.15
481.144	7623.56
481.348	7078.8
481.553	7158.67
481.757	7121.81
481.961	7164.82
482.166	7256.98
482.37	7220.11
482.574	6964.12
482.778	7064.47
482.983	7142.29
483.187	7017.36
483.391	7127.96
483.595	7099.28
483.8	7021.46
484.004	6910.87
484.208	7033.75
484.412	7037.84
484.616	7103.38
484.821	7216.02
485.025	6982.55
485.229	7181.2
485.433	6953.88
485.637	6933.4
485.841	7031.7
486.045	7046.04
486.249	6896.53
486.453	7134.1
486.657	7029.65
486.861	6976.41
487.065	6824.86
487.269	7009.17
487.473	6792.09
487.677	6908.82
487.881	7043.99
488.085	7033.75
488.289	6953.88
488.493	7033.75
488.697	7046.04
488.901	7050.13
489.105	6960.02
489.309	7144.34
489.512	7259.03
489.716	7148.43
489.92	7201.68
490.124	7256.98
490.328	7232.4
490.531	7187.35
490.735	7326.61
490.939	7320.46
491.143	7173.01
491.346	7177.11
491.55	7386
491.754	7351.18
491.958	7416.72
492.161	7414.67
492.365	7414.67
492.569	7365.52
492.772	7474.06
492.976	7523.21
493.18	7732.11
493.383	7629.71
493.587	7611.28
493.79	7615.37
493.994	7576.46
494.197	7633.8
494.401	7900.04
494.605	7691.15
494.808	8102.79
495.012	8158.08
495.215	8014.73
495.419	8248.19
495.622	8139.65
495.825	8065.92
496.029	8426.37
496.232	8457.09
496.436	8256.39
496.639	8496
496.843	8477.57
497.046	8559.49
497.249	8766.33
497.453	8733.56
497.656	8803.19
497.859	8780.67
498.063	8708.99
498.266	9034.61
498.469	9108.34
498.673	9343.86
498.876	9315.19
499.079	9497.46
499.282	9491.31
499.485	9767.79
499.689	9522.03
499.892	9911.14
500.095	9929.58
500.298	10189.67
500.501	10085.22
500.705	10449.76
500.908	10412.9
501.111	10470.24
501.314	10769.24
501.517	10642.27
501.72	10791.77
501.923	10888.03
502.126	11101.01
502.329	11449.17
502.532	11635.53
502.735	11119.45
502.938	11705.17
503.141	11760.46
503.344	11932.49
503.547	11844.43
503.75	11936.59
503.953	12202.82
504.156	12415.81
504.359	12522.3
504.562	12481.35
504.765	12759.87
504.968	13101.88
505.17	13056.82
505.373	13214.52
505.576	13466.42
505.779	13241.14
505.982	13835.05
506.185	13962.03
506.387	13931.31
506.59	13945.64
506.793	14465.83
506.996	14144.3
507.198	14551.84
507.401	14619.42
507.604	14576.42
507.807	15182.62
508.009	15016.73
508.212	15172.38
508.415	15477.52
508.617	15592.21
508.82	15868.69
509.022	15672.08
509.225	16102.15
509.428	16321.29
509.63	16245.51
509.833	16595.71
510.035	16743.17
510.238	16673.54
510.44	16909.05
510.643	17429.24
510.845	17173.24
511.048	17306.36
511.25	17672.95
511.453	17705.71
511.655	18606.82
511.858	18229.99
512.06	18475.75
512.262	18410.22
512.465	18658.02
512.667	18770.66
512.87	19167.96
513.072	19000.03
513.274	19323.61
513.477	19843.79
513.679	19765.97
513.881	20087.5
514.084	20429.51
514.286	20443.85
514.488	20435.66
514.69	21263.04
514.893	21002.94
515.095	20976.32
515.297	21506.74
515.499	21553.85
515.701	22010.54
515.904	22041.26
516.106	22317.74
516.308	22418.09
516.51	22669.99
516.712	22629.03
516.914	22710.95
517.116	23419.55
517.318	23302.81
517.52	23536.28
517.722	23689.88
517.925	24021.65
518.127	24275.6
518.329	24767.11
518.531	24418.96
518.733	25019.01
518.935	25068.16
519.136	25426.56
519.338	25782.9
519.54	25848.44
519.742	26016.37
519.944	26116.72
520.146	26514.03
520.348	27011.68
520.55	26958.44
520.752	27263.58
520.954	27804.25
521.155	27085.41
521.357	27822.68
521.559	28119.63
521.761	28189.27
521.963	28435.02
522.164	28643.91
522.366	28572.24
522.568	28944.97
522.77	29139.52
522.971	29686.33
523.173	29612.6
523.375	29489.73
523.576	29874.74
523.778	29950.52
523.98	30364.21
524.181	30755.37
524.383	30505.52
524.584	31121.96
524.786	31105.57
524.988	31224.36
525.189	31482.4
525.391	31570.46
525.592	31431.2
525.794	31891.99
525.995	32041.5
526.197	32109.08
526.398	32324.11
526.6	32109.08
526.801	32678.41
527.003	32735.76
527.204	32707.08
527.406	33124.87
527.607	33047.05
527.808	33108.49
528.01	32772.62
528.211	33233.41
528.412	33708.54
528.614	33880.57
528.815	33722.88
529.016	34040.31
529.218	33681.92
529.419	34060.79
529.62	34138.62
529.822	34081.27
530.023	34402.8
530.224	34177.53
530.425	34363.89
530.626	33970.68
530.828	34097.66
531.029	34814.44
531.23	34648.56
531.431	34482.67
531.632	34931.18
531.833	35052.01
532.035	34800.11
532.236	34927.08
532.437	34998.76
532.638	34832.88
532.839	35365.35
533.04	35228.13
533.241	34607.6
533.442	35809.76
533.643	35346.92
533.844	34959.85
534.045	35574.24
534.246	35056.11
534.447	35287.53
534.648	35060.2
534.849	35588.58
535.05	35262.95
535.251	35049.96
535.451	35449.32
535.652	35549.67
535.853	35813.85
536.054	35805.66
536.255	35574.24
536.456	35277.29
536.657	35981.79
536.857	35334.63
537.058	35506.66
537.259	36100.57
537.46	35455.46
537.66	35426.79
537.861	35772.89
538.062	35305.96
538.263	35412.45
538.463	35629.54
538.664	35850.72
538.865	35613.15
539.065	35748.32
539.266	35068.39
539.466	35879.39
539.667	35285.48
539.868	35934.68
540.068	35650.02
540.269	35801.57
540.469	35969.5
540.67	35604.96
540.87	35568.1
541.071	35437.03
541.271	35551.71
541.472	35453.41
541.672	35496.42
541.873	35443.17
542.073	35047.91
542.274	35658.21
542.474	35428.84
542.675	35365.35
542.875	35791.33
543.075	35623.39
543.276	34953.71
543.476	35561.95
543.676	35508.71
543.877	35586.53
544.077	35443.17
544.277	35494.37
544.478	35191.27
544.678	35295.72
544.878	35437.03
545.078	35303.91
545.279	35254.76
545.479	35480.03
545.679	35467.75
545.879	35604.96
546.079	35076.58
546.28	35310.05
546.48	35199.46
546.68	35355.11
546.88	35316.2
547.08	35506.66
547.28	35107.3
547.48	34826.73
547.68	35561.95
547.88	34953.71
548.081	35623.39
548.281	35209.7
548.481	35019.24
548.681	35226.09
548.881	35244.52
549.081	35326.44
549.28	35088.87
549.48	35226.09
549.68	35480.03
549.88	35498.47
550.08	35058.15
550.28	35006.95
550.48	34765.29
550.68	35156.46
550.88	35027.43
551.08	35219.94
551.279	35152.36
551.479	35164.65
551.679	35367.4
551.879	34849.26
552.079	35387.88
552.278	34953.71
552.478	35072.49
552.678	35316.2
552.878	35424.74
553.077	34810.35
553.277	34753.01
553.477	35404.26
553.676	35314.15
553.876	34836.97
554.076	34781.68
554.275	35019.24
554.475	34515.44
554.674	34638.32
554.874	34888.17
555.074	34589.17
555.273	35039.72
555.473	34912.75
555.672	34511.35
555.872	34363.89
556.071	34865.64
556.271	34597.36
556.47	34720.24
556.67	34155
556.869	34433.52
557.068	34951.66
557.268	34146.81
557.467	34064.89
557.667	34273.78
557.866	34236.92
558.065	34140.66
558.265	34101.75
558.464	33671.68
558.663	34343.41
558.863	33761.79
559.062	34097.66
559.261	33532.42
559.461	34042.36
559.66	33301
559.859	33737.21
560.058	33448.45
560.258	33892.86
560.457	33456.64
560.656	33616.38
560.855	33434.11
561.054	33645.05
561.253	33200.65
561.453	33540.61
561.652	33188.36
561.851	33477.12
562.05	32991.75
562.249	32696.85
562.448	33212.93
562.647	33204.74
562.846	33065.48
563.045	33169.93
563.244	32539.15
563.443	32932.36
563.642	32786.96
563.841	32516.62
564.04	32592.4
564.239	32762.38
564.438	32399.89
564.637	32588.3
564.836	32418.32
565.035	31711.77
565.234	32033.3
565.432	32066.07
565.631	32037.4
565.83	31894.04
566.029	32141.85
566.228	31504.93
566.427	31857.18
566.625	31894.04
566.824	31214.12
567.023	31674.91
567.222	30882.34
567.42	31615.52
567.619	31341.09
567.818	31232.55
568.016	30896.68
568.215	31173.16
568.414	30681.64
568.612	31494.69
568.811	30972.46
569.01	30855.72
569.208	30788.14
569.407	31023.65
569.605	30480.94
569.804	30489.13
570.002	30253.62
570.201	30401.07
570.4	30016.05
570.598	30284.34
570.797	29735.48
570.995	30200.37
571.193	29389.38
571.392	30181.94
571.59	29538.88
571.789	29698.62
571.987	29526.59
572.186	29452.86
572.384	29217.35
572.582	29651.52
572.781	29205.06
572.979	29422.14
573.177	28846.66
573.376	29200.96
573.574	28901.96
573.772	28955.21
573.971	28797.51
574.169	29063.75
574.367	28605
574.565	28797.51
574.763	28559.95
574.962	28306
575.16	27945.56
575.358	28070.48
575.556	27814.49
575.754	28392.01
575.952	28226.13
576.151	28213.84
576.349	27662.94
576.547	27953.75
576.745	28045.91
576.943	27941.46
577.141	27621.98
577.339	27452
577.537	27427.42
577.735	27630.17
577.933	27140.71
578.131	27171.43
578.329	27040.36
578.527	27013.73
578.725	27239.01
578.923	27179.62
579.121	26612.33
579.319	26620.52
579.516	26903.14
579.714	26767.98
579.912	26845.8
580.11	26559.08
580.308	26579.56
580.506	26307.18
580.704	26169.97
580.901	26446.44
581.099	26356.33
581.297	25830.01
581.495	25860.73
581.692	25991.8
581.89	25817.72
582.088	26008.18
582.285	25834.1
582.483	25617.02
582.681	25885.3
582.878	25875.06
583.076	25451.13
583.274	25664.12
583.471	25383.55
583.669	25268.86
583.866	25326.21
584.064	25475.71
584.262	25156.22
584.459	25078.4
584.657	24773.25
584.854	25254.53
585.052	24525.45
585.249	24808.07
585.447	24808.07
585.644	24670.86
585.841	24496.78
586.039	24777.35
586.236	24562.31
586.434	24128.14
586.631	24390.28
586.828	24302.22
587.026	24523.4
587.223	24324.75
587.42	23972.5
587.618	24029.84
587.815	23763.61
588.012	23669.4
588.21	23753.37
588.407	24093.33
588.604	23407.26
588.801	23687.83
588.999	23503.51
589.196	23470.75
589.393	23734.93
589.59	23143.07
589.787	23087.78
589.984	23009.95
590.182	22868.64
590.379	23200.41
590.576	23098.02
590.773	23198.37
590.97	22741.67
591.167	22950.56
591.364	22803.11
591.561	22895.27
591.758	22559.4
591.955	22528.68
592.152	22649.51
592.349	22473.39
592.546	22612.65
592.743	22434.47
592.94	22010.54
593.137	22174.38
593.334	22209.2
593.531	21797.56
593.727	22166.19
593.924	22219.44
594.121	21715.64
594.318	21990.06
594.515	21590.71
594.712	21951.15
594.908	21582.52
595.105	21428.92
595.302	21482.17
595.499	21795.51
595.696	21394.11
595.892	21037.76
596.089	21195.45
596.286	21332.67
596.482	21326.52
596.679	21285.56
596.876	20972.22
597.072	21195.45
597.269	21000.9
597.466	20835.01
597.662	20824.77
597.859	20718.28
598.055	20826.82
598.252	20476.62
598.448	20675.27
598.645	20851.39
598.841	20212.43
599.038	20564.68
599.234	20396.74
599.431	20490.95
599.627	20171.47
599.824	20001.49
600.02	20060.88
600.217	20388.55
600.413	19878.61
600.609	19890.9
600.806	19675.86
601.002	20054.73
601.198	19507.93
601.395	19536.6
601.591	19628.76
601.787	19671.76
601.984	19555.03
602.18	19583.7
602.376	19397.34
602.572	19112.67
602.769	19442.39
602.965	19114.72
603.161	19272.41
603.357	19192.54
603.553	18756.32
603.75	18985.69
603.946	19040.99
604.142	19104.48
604.338	18541.29
604.534	18799.33
604.73	18891.49
604.926	18645.73
605.122	18549.48
605.318	18690.79
605.514	18526.95
605.71	18516.71
605.906	18303.72
606.102	18602.72
606.298	18578.15
606.494	18207.47
606.69	18184.94
606.886	18442.98
607.082	17894.13
607.278	18395.88
607.474	17746.67
607.67	17959.66
607.866	18051.82
608.062	18092.78
608.257	17744.63
608.453	17920.75
608.649	17832.69
608.845	17683.19
609.041	17718
609.236	17742.58
609.432	17607.41
609.628	17654.51
609.824	17681.14
610.019	17416.95
610.215	17584.88
610.411	17545.97
610.606	17294.07
610.802	17410.81
610.998	17298.17
611.193	17347.32
611.389	17201.91
611.584	17033.98
611.78	17195.77
611.976	17240.82
612.171	17308.41
612.367	17138.43
612.562	16972.54
612.758	16917.25
612.953	17038.08
613.149	17027.84
613.344	17085.18
613.539	17115.9
613.735	16749.31
613.93	16714.5
614.126	16452.36
614.321	16853.76
614.517	16677.63
614.712	16622.34
614.907	16472.84
615.103	16769.79
615.298	16798.46
615.493	16857.85
615.688	16663.3
615.884	16810.75
616.079	16366.34
616.274	16665.35
616.47	16173.83
616.665	16591.62
616.86	16608
617.055	16468.74
617.25	16239.37
617.445	16306.95
617.641	16003.85
617.836	16155.4
618.031	16073.48
618.226	15997.71
618.421	15817.49
618.616	16206.6
618.811	15981.32
619.006	15962.89
619.201	15524.63
619.396	15825.68
619.591	15807.25
619.786	15651.6
619.981	15616.79
620.176	15850.25
620.371	15362.84
620.566	15440.66
620.761	15231.77
620.956	15162.14
621.151	15022.87
621.346	15149.85
621.541	15084.31
621.735	15235.86
621.93	14891.8
622.125	14891.8
622.32	14801.69
622.515	14756.64
622.709	14703.39
622.904	14633.76
623.099	14510.88
623.294	14433.06
623.488	14412.58
623.683	14209.83
623.878	14263.08
624.072	14142.25
624.267	14117.67
624.462	14066.47
624.656	14019.37
624.851	13906.73
625.046	13925.16
625.24	13638.45
625.435	13964.07
625.629	13671.22
625.824	13667.12
626.018	13392.69
626.213	13210.42
626.407	13263.67
626.602	13218.61
626.796	13513.52
626.991	13216.57
627.185	13128.5
627.38	13017.91
627.574	12917.56
627.768	12882.75
627.963	12870.46
628.157	12493.63
628.352	12796.73
628.546	12483.39
628.74	12636.99
628.935	12395.33
629.129	12290.88
629.323	12108.62
629.517	12211.01
629.712	12192.58
629.906	12225.35
630.1	11862.86
630.294	11991.88
630.489	11799.37
630.683	12051.27
630.877	11590.48
631.071	11713.36
631.265	11823.95
631.459	11615.05
631.653	11682.64
631.848	11463.51
632.042	11426.64
632.236	11467.6
632.43	11320.15
632.624	11385.68
632.818	11227.99
633.012	11184.98
633.206	10918.75
633.4	11273.04
633.594	10912.6
633.788	11058.01
633.982	11133.78
634.176	10873.69
634.369	10793.82
634.563	10746.72
634.757	10603.36
634.951	10652.51
635.145	10814.3
635.339	10453.86
635.533	10466.14
635.726	10492.77
635.92	10511.2
636.114	10326.88
636.308	10371.94
636.501	10185.57
636.695	10009.45
636.889	10185.57
637.083	9861.99
637.276	9993.06
637.47	10050.41
637.664	9855.85
637.857	9878.38
638.051	9689.96
638.244	9778.03
638.438	9728.88
638.632	9493.36
638.825	9698.16
639.019	9571.18
639.212	9257.84
639.406	9388.91
639.599	9474.93
639.793	9675.63
639.986	9132.92
640.18	9182.07
640.373	9155.44
640.567	8975.22
640.76	9229.17
640.954	8913.78
641.147	8870.78
641.34	8782.71
641.534	8823.67
641.727	8960.89
641.92	8860.54
642.114	8594.3
642.307	8715.13
642.5	8780.67
642.694	8326.02
642.887	8514.43
643.08	8496
643.273	8510.33
643.467	8338.3
643.66	8483.71
643.853	8274.82
644.046	8180.61
644.239	8330.11
644.432	8160.13
644.626	7926.66
644.819	8225.67
645.012	7926.66
645.205	8031.11
645.398	7893.9
645.591	7998.34
645.784	7809.93
645.977	7793.55
646.17	8047.49
646.363	7797.64
646.556	7613.32
646.749	7764.87
646.942	7734.15
647.135	7566.22
647.328	7666.57
647.521	7625.61
647.714	7568.27
647.907	7447.44
648.099	7422.86
648.292	7445.39
648.485	7361.42
648.678	7154.58
648.871	7224.21
649.064	7054.23
649.256	7062.42
649.449	7138.2
649.642	7238.55
649.835	7109.52
650.027	7105.43
650.22	6937.49
650.413	6947.73
650.605	6990.74
650.798	6751.13
650.991	6814.62
651.183	6730.65
651.376	6742.94
651.568	6841.24
651.761	6669.21
651.954	6718.36
652.146	6431.65
652.339	6583.2
652.531	6570.91
652.724	6495.13
652.916	6534.04
653.109	6357.92
653.301	6427.55
653.494	6601.63
653.686	6298.53
653.879	6353.82
654.071	6267.81
654.263	6276
654.456	6370.21
654.648	6331.3
654.84	5972.9
655.033	6228.9
655.225	6060.96
655.417	6005.67
655.61	6054.82
655.802	6054.82
655.994	6151.07
656.186	6060.96
656.379	6007.72
656.571	5911.46
656.763	5929.89
656.955	5921.7
657.148	5864.36
657.34	5946.28
657.532	5735.34
657.724	5725.1
657.916	5620.65
658.108	5925.8
658.3	5692.33
658.492	5612.46
658.684	5569.45
658.876	5657.51
659.068	5292.98
659.26	5518.25
659.452	5526.44
659.644	5479.34
659.836	5424.05
660.028	5389.23
660.22	5227.44
660.412	5321.65
660.604	5200.82
660.796	5331.89
660.988	5319.6
661.18	5286.83
661.372	5333.93
661.563	5307.31
661.755	5166
661.947	5215.15
662.139	5010.36
662.331	5149.62
662.522	5135.28
662.714	4981.68
662.906	4989.88
663.097	4950.96
663.289	5075.89
663.481	4944.82
663.673	4793.27
663.864	4785.08
664.056	4910.01
664.247	4795.32
664.439	4821.94
664.631	4692.92
664.822	4799.41
665.014	4752.31
665.205	4731.83
665.397	4678.58
665.588	4776.89
665.78	4625.34
665.971	4621.24
666.163	4570.04
666.354	4543.42
666.546	4572.09
666.737	4537.27
666.929	4543.42
667.12	4465.6
667.311	4494.27
667.503	4395.96
667.694	4330.43
667.885	4443.07
668.077	4289.47
668.268	4277.18
668.459	4412.35
668.651	4240.32
668.842	4084.67
669.033	4377.53
669.224	4213.7
669.416	4352.96
669.607	4307.9
669.798	4387.77
669.989	4256.7
670.18	4195.26
670.371	4115.39
670.563	4146.11
670.754	4152.26
670.945	4060.1
671.136	3904.45
671.327	3830.73
671.518	4039.62
671.709	4082.63
671.9	4017.09
672.091	4125.63
672.282	3963.84
672.473	3959.75
672.664	3939.27
672.855	3902.4
673.046	3900.36
673.237	3840.97
673.428	3920.84
673.619	3824.58
673.809	3875.78
674	3847.11
674.191	3673.03
674.382	3924.93
674.573	3886.02
674.764	3912.64
674.954	3818.44
675.145	3752.9
675.336	3691.46
675.527	3670.98
675.717	3730.38
675.908	3533.77
676.099	3722.18
676.289	3613.64
676.48	3535.82
676.671	3509.19
676.861	3591.11
677.052	3544.01
677.243	3550.15
677.433	3566.54
677.624	3488.71
677.814	3503.05
678.005	3584.97
678.195	3519.43
678.386	3546.06
678.576	3435.47
678.767	3460.04
678.957	3597.26
679.148	3400.65
679.338	3523.53
679.529	3378.12
679.719	3288.01
679.909	3455.95
680.1	3453.9
680.29	3414.99
680.481	3384.27
680.671	3386.32
680.861	3394.51
681.052	3314.64
681.242	3421.13
681.432	3259.34
681.622	3179.47
681.813	3292.11
682.003	3374.03
682.193	3333.07
682.383	3337.17
682.573	3224.53
682.764	3245.01
682.954	3312.59
683.144	3275.73
683.334	3271.63
683.524	3195.86
683.714	3208.14
683.904	3263.44
684.094	3402.7
684.284	3226.57
684.474	3218.38
684.664	3259.34
684.854	3210.19
685.044	3146.7
685.234	3204.05
685.424	3183.57
685.614	3191.76
685.804	3128.27
685.994	3199.95
686.184	3148.75
686.374	3118.03
686.564	2982.87
686.753	2991.06
686.943	2997.2
687.133	3095.5
687.323	3015.63
687.513	3032.02
687.702	2986.96
687.892	2974.67
688.082	2960.34
688.272	3007.44
688.461	2919.38
688.651	3072.98
688.841	2970.58
689.03	2966.48
689.22	2925.52
689.41	3070.93
689.599	2790.36
689.789	2909.14
689.979	2905.04
690.168	2929.62
690.358	2808.79
690.547	2958.29
690.737	2857.94
690.926	2724.82
691.116	2847.7
691.305	2851.8
691.495	2796.5
691.684	2739.16
691.874	2851.8
692.063	2747.35
692.252	2784.21
692.442	2872.28
692.631	2927.57
692.82	2714.58
693.01	2794.45
693.199	2798.55
693.388	2692.05
693.578	2644.95
693.767	2628.57
693.956	2651.1
694.146	2616.28
694.335	2696.15
694.524	2751.45
694.713	2771.93
694.902	2661.34
695.092	2638.81
695.281	2626.52
695.47	2638.81
695.659	2804.69
695.848	2665.43
696.037	2630.62
696.226	2659.29
696.415	2622.42
696.604	2581.46
696.793	2603.99
696.982	2655.19
697.171	2577.37
697.36	2603.99
697.549	2536.41
697.738	2694.1
697.927	2569.18
698.116	2522.07
698.305	2675.67
698.494	2554.84
698.683	2548.7
698.872	2493.4
699.061	2528.22
699.25	2694.1
699.438	2534.36
699.627	2601.94
699.816	2534.36
700.005	2620.38
700.193	2436.06
700.382	2540.51
700.571	2499.55
700.76	2489.31
700.948	2526.17
701.137	2642.9
701.326	2622.42
701.514	2608.09
701.703	2530.27
701.892	2477.02
702.08	2567.13
702.269	2468.83
702.457	2692.05
702.646	2628.57
702.834	2536.41
703.023	2556.89
703.212	2614.23
703.4	2550.75
703.589	2464.73
703.777	2560.98
703.965	2571.22
704.154	2587.61
704.342	2583.51
704.531	2452.44
704.719	2444.25
704.907	2456.54
705.096	2565.08
705.284	2626.52
705.472	2591.7
705.661	2538.46
705.849	2528.22
706.037	2708.44
706.226	2599.9
706.414	2477.02
706.602	2540.51
706.79	2548.7
706.979	2515.93
707.167	2577.37
707.355	2577.37
707.543	2429.91
707.731	2436.06
707.919	2575.32
708.107	2460.63
708.296	2628.57
708.484	2565.08
708.672	2495.45
708.86	2610.14
709.048	2458.59
709.236	2483.16
709.424	2485.21
709.612	2575.32
709.8	2456.54
709.988	2397.15
710.176	2556.89
710.364	2446.3
710.551	2569.18
710.739	2413.53
710.927	2505.69
711.115	2483.16
711.303	2526.17
711.491	2485.21
711.679	2446.3
711.866	2532.31
712.054	2444.25
712.242	2417.63
712.43	2532.31
712.617	2495.45
712.805	2343.9
712.993	2431.96
713.181	2409.44
713.368	2362.33
713.556	2427.87
713.744	2423.77
713.931	2368.48
714.119	2391
714.306	2454.49
714.494	2526.17
714.682	2479.07
714.869	2374.62
715.057	2413.53
715.244	2374.62
715.432	2472.92
715.619	2599.9
715.807	2411.48
715.994	2407.39
716.182	2378.72
716.369	2468.83
716.556	2358.24
716.744	2339.8
716.931	2378.72
717.119	2370.52
717.306	2319.32
717.493	2479.07
717.681	2368.48
717.868	2407.39
718.055	2483.16
718.242	2464.73
718.43	2413.53
718.617	2243.55
718.804	2409.44
718.991	2378.72
719.179	2288.61
719.366	2368.48
719.553	2499.55
719.74	2327.52
719.927	2501.59
720.114	2407.39
720.301	2380.76
720.488	2388.96
720.676	2341.85
720.863	2415.58
721.05	2421.72
721.237	2302.94
721.424	2370.52
721.611	2374.62
721.798	2479.07
721.985	2421.72
722.172	2315.23
722.358	2520.03
722.545	2311.13
722.732	2472.92
722.919	2272.22
723.106	2401.24
723.293	2280.41
723.48	2333.66
723.667	2440.15
723.853	2233.31
724.04	2341.85
724.227	2325.47
724.414	2431.96
724.6	2311.13
724.787	2350.04
724.974	2417.63
725.161	2292.7
725.347	2311.13
725.534	2325.47
725.72	2300.89
725.907	2304.99
726.094	2315.23
726.28	2374.62
726.467	2173.92
726.653	2294.75
726.84	2391
727.027	2384.86
727.213	2241.5
727.4	2276.32
727.586	2266.08
727.773	2311.13
727.959	2339.8
728.145	2294.75
728.332	2268.13
728.518	2296.8
728.705	2245.6
728.891	2290.65
729.077	2348
729.264	2298.84
729.45	2325.47
729.636	2229.21
729.823	2198.49
730.009	2376.67
730.195	2284.51
730.382	2302.94
730.568	2325.47
730.754	2227.17
730.94	2343.9
731.126	2233.31
731.313	2335.71
731.499	2298.84
731.685	2327.52
731.871	2257.89
732.057	2329.56
732.243	2341.85
732.429	2188.25
732.615	2255.84
732.801	2243.55
732.987	2194.4
733.173	2171.87
733.359	2255.84
733.545	2169.82
733.731	2216.93
733.917	2159.58
734.103	2257.89
734.289	2216.93
734.475	2165.73
734.661	2235.36
734.847	2227.17
735.033	2143.2
735.219	2264.03
735.404	2237.41
735.59	2241.5
735.776	2159.58
735.962	2274.27
736.148	2272.22
736.333	2163.68
736.519	2178.01
736.705	2249.69
736.89	2173.92
737.076	2126.82
737.262	2128.86
737.447	2147.3
737.633	2153.44
737.819	2171.87
738.004	2151.39
738.19	2167.77
738.375	2106.34
738.561	2243.55
738.747	2147.3
738.932	2163.68
739.118	2151.39
739.303	2094.05
739.489	2141.15
739.674	2112.48
739.859	2024.42
740.045	2116.58
740.23	2001.89
740.416	2040.8
740.601	2024.42
740.786	2034.66
740.972	1881.06
741.157	2073.57
741.342	2073.57
741.528	2081.76
741.713	2012.13
741.898	2098.14
742.084	1940.45
742.269	1891.3
742.454	2003.94
742.639	2012.13
742.824	1985.51
743.01	1995.75
743.195	1936.35
743.38	2032.61
743.565	1846.24
743.75	1967.07
743.935	1860.58
744.12	2038.75
744.305	1989.6
744.49	1913.83
744.675	1891.3
744.86	1856.48
745.045	1965.03
745.23	1930.21
745.415	1934.31
745.6	1917.92
745.785	1795.04
745.97	1879.01
746.155	1745.89
746.34	1778.66
746.525	1709.03
746.71	1788.9
746.895	1795.04
747.079	1793
747.264	1844.2
747.449	1694.69
747.634	1704.93
747.819	1678.31
748.003	1686.5
748.188	1723.37
748.373	1772.52
748.557	1688.55
748.742	1631.21
748.927	1774.56
749.111	1674.21
749.296	1709.03
749.481	1627.11
749.665	1608.68
749.85	1698.79
750.034	1715.17
750.219	1598.44
750.404	1625.06
750.588	1608.68
750.773	1582.06
750.957	1563.62
751.141	1676.26
751.326	1590.25
751.51	1553.38
751.695	1491.95
751.879	1565.67
752.064	1594.34
752.248	1612.78
752.432	1565.67
752.617	1453.03
752.801	1430.51
752.985	1508.33
753.17	1373.16
753.354	1334.25
753.538	1428.46
753.722	1371.12
753.907	1455.08
754.091	1321.96
754.275	1475.56
754.459	1381.35
754.643	1326.06
754.828	1362.92
755.012	1410.03
755.196	1299.44
755.38	1317.87
755.564	1260.52
755.748	1264.62
755.932	1369.07
756.116	1231.85
756.3	1303.53
756.484	1270.76
756.668	1287.15
756.852	1211.37
757.036	1270.76
757.22	1213.42
757.404	1299.44
757.588	1137.65
757.772	1254.38
757.956	1227.76
758.14	1297.39
758.323	1172.46
758.507	1180.65
758.691	1147.89
758.875	1324.01
759.059	1221.61
759.242	1117.17
759.426	1231.85
759.61	1186.8
759.794	1080.3
759.977	1205.23
760.161	1203.18
760.345	1145.84
760.528	1172.46
760.712	1125.36
760.895	1113.07
761.079	1192.94
761.263	965.62
761.446	1065.97
761.63	1055.73
761.813	1082.35
761.997	1084.4
762.18	1018.86
762.364	1035.25
762.547	1096.69
762.731	1082.35
762.914	1000.43
763.098	936.95
763.281	1006.58
763.464	1049.58
763.648	1008.62
763.831	1063.92
764.015	1133.55
764.198	1041.39
764.381	1078.26
764.564	1037.3
764.748	973.81
764.931	1059.82
765.114	963.57
765.297	1045.49
765.481	957.43
765.664	1002.48
765.847	844.79
766.03	955.38
766.213	906.23
766.397	930.8
766.58	945.14
766.763	996.34
766.946	803.83
767.129	938.99
767.312	926.71
767.495	922.61
767.678	924.66
767.861	918.51
768.044	840.69
768.227	973.81
768.41	877.55
768.593	904.18
768.776	926.71
768.959	951.28
769.142	891.89
769.324	920.56
769.507	877.55
769.69	914.42
769.873	871.41
770.056	906.23
770.239	838.64
770.421	816.12
770.604	779.25
770.787	895.99
770.97	924.66
771.152	822.26
771.335	828.4
771.518	875.51
771.7	869.36
771.883	875.51
772.066	758.77
772.248	848.88
772.431	881.65
772.613	902.13
772.796	783.35
772.978	771.06
773.161	779.25
773.343	801.78
773.526	713.72
773.708	709.62
773.891	721.91
774.073	769.01
774.256	752.63
774.438	820.21
774.621	666.61
774.803	734.2
774.985	809.97
775.168	764.92
775.35	781.3
775.532	654.33
775.715	703.48
775.897	689.14
776.079	660.47
776.261	719.86
776.444	734.2
776.626	721.91
776.808	723.96
776.99	721.91
777.173	732.15
777.355	721.91
777.537	646.13
777.719	685.05
777.901	615.41
778.083	662.52
778.265	705.53
778.447	582.65
778.629	560.12
778.811	562.17
778.993	656.37
779.175	701.43
779.357	615.41
779.539	607.22
779.721	625.65
779.903	683
780.085	580.6
780.267	637.94
780.449	637.94
780.631	570.36
780.812	594.93
780.994	543.74
781.176	599.03
781.358	517.11
781.54	615.41
781.721	639.99
781.903	527.35
782.085	611.32
782.267	566.26
782.448	537.59
782.63	574.46
782.812	500.73
782.993	584.7
783.175	615.41
783.357	543.74
783.538	562.17
783.72	523.26
783.901	490.49
784.083	517.11
784.264	488.44
784.446	478.2
784.627	445.43
784.809	529.4
784.99	560.12
785.172	482.3
785.353	510.97
785.535	508.92
785.716	484.34
785.897	482.3
786.079	453.63
786.26	525.3
786.441	484.34
786.623	422.91
786.804	470.01
786.985	480.25
787.167	439.29
787.348	418.81
787.529	470.01
787.71	506.87
787.891	486.39
788.073	377.85
788.254	371.71
788.435	394.23
788.616	361.47
788.797	359.42
788.978	390.14
789.159	394.23
789.34	295.93
789.522	355.32
789.703	396.28
789.884	369.66
790.065	379.9
790.246	363.51
790.427	420.86
790.607	482.3
790.788	414.71
790.969	355.32
791.15	392.19
791.331	398.33
791.512	375.8
791.693	365.56
791.874	365.56
792.054	431.1
792.235	431.1
792.416	318.46
792.597	422.91
792.778	308.22
792.958	330.75
793.139	445.43
793.32	402.43
793.5	306.17
793.681	351.23
793.862	345.08
794.042	308.22
794.223	291.84
794.404	396.28
794.584	349.18
794.765	349.18
794.945	349.18
795.126	369.66
795.306	345.08
795.487	347.13
795.667	361.47
795.848	338.94
796.028	197.63
796.209	257.02
796.389	273.4
796.57	359.42
796.75	248.83
796.93	295.93
797.111	279.55
797.291	281.6
797.471	314.36
797.652	254.97
797.832	209.92
798.012	322.56
798.192	271.36
798.373	246.78
798.553	261.12
798.733	343.03
798.913	326.65
799.093	287.74
799.274	343.03
799.454	289.79
799.634	242.68
799.814	302.08
799.994	248.83
800.174	214.01
800.354	267.26
800.534	320.51
800.714	242.68
800.894	248.83
801.074	177.15
801.254	265.21
801.434	205.82
801.614	271.36
801.794	175.1
801.974	619.51
802.154	207.87
802.334	240.64
802.514	271.36
802.693	189.44
802.873	254.97
803.053	324.6
803.233	216.06
803.413	265.21
803.592	232.44
803.772	222.2
803.952	289.79
804.131	257.02
804.311	257.02
804.491	242.68
804.67	203.77
804.85	238.59
805.03	283.64
805.209	271.36
805.389	318.46
805.568	232.44
805.748	275.45
805.928	279.55
806.107	297.98
806.287	222.2
806.466	236.54
806.646	234.49
806.825	236.54
807.004	275.45
807.184	209.92
807.363	214.01
807.543	205.82
807.722	168.96
807.901	211.96
808.081	242.68
808.26	228.35
808.439	248.83
808.619	189.44
808.798	205.82
808.977	191.49
809.156	144.38
809.336	238.59
809.515	267.26
809.694	173.05
809.873	250.88
810.052	234.49
810.231	216.06
810.411	185.34
810.59	300.03
810.769	205.82
810.948	168.96
811.127	138.24
811.306	259.07
811.485	150.53
811.664	175.1
811.843	189.44
812.022	242.68
812.201	242.68
812.38	201.72
812.559	214.01
812.737	187.39
812.916	148.48
813.095	218.11
813.274	164.86
813.453	171.01
813.632	123.9
813.811	261.12
813.989	128
814.168	175.1
814.347	123.9
814.526	193.53
814.704	248.83
814.883	242.68
815.062	211.96
815.24	109.57
815.419	156.67
815.598	125.95
815.776	216.06
815.955	171.01
816.133	136.19
816.312	197.63
816.49	173.05
816.669	171.01
816.847	175.1
817.026	199.68
817.204	166.91
817.383	183.29
817.561	105.47
817.74	113.66
817.918	146.43
818.097	142.33
818.275	123.9
818.453	224.25
818.632	191.49
818.81	140.29
818.988	199.68
819.167	121.85
819.345	140.29
819.523	140.29
819.701	175.1
819.879	181.25
820.058	183.29
820.236	117.76
820.414	160.77
820.592	111.61
820.77	177.15
820.948	193.53
821.127	171.01
821.305	179.2
821.483	91.13
821.661	181.25
821.839	84.99
822.017	144.38
822.195	142.33
822.373	181.25
822.551	123.9
822.729	181.25
822.907	173.05
823.085	119.81
823.262	171.01
823.44	168.96
823.618	33.79
823.796	160.77
823.974	119.81
824.152	107.52
824.329	166.91
824.507	207.87
824.685	179.2
824.863	148.48
825.04	144.38
825.218	160.77
825.396	191.49
825.574	140.29
825.751	125.95
825.929	175.1
826.107	82.94
826.284	123.9
826.462	150.53
826.639	171.01
826.817	115.71
826.994	103.42
827.172	162.81
827.349	193.53
827.527	148.48
827.704	119.81
827.882	111.61
828.059	128
828.237	132.09
828.414	166.91
828.591	103.42
828.769	93.18
828.946	76.8
829.124	130.05
829.301	119.81
829.478	97.28
829.655	66.56
829.833	117.76
830.01	140.29
830.187	82.94
830.364	107.52
830.542	109.57
830.719	82.94
830.896	109.57
831.073	93.18
831.25	140.29
831.427	103.42
831.604	158.72
831.782	173.05
831.959	160.77
832.136	130.05
832.313	101.37
832.49	64.51
832.667	146.43
832.844	113.66
833.021	142.33
833.198	152.57
833.374	115.71
833.551	60.42
833.728	111.61
833.905	171.01
834.082	103.42
834.259	80.89
834.436	121.85
834.612	64.51
834.789	115.71
834.966	50.18
835.143	95.23
835.319	29.7
835.496	144.38
835.673	58.37
835.85	72.7
836.026	80.89
836.203	107.52
836.38	21.5
836.556	99.33
836.733	87.04
836.909	207.87
837.086	41.98
837.262	91.13
837.439	84.99
837.616	87.04
837.792	109.57
837.968	70.65
838.145	-7.17
838.321	95.23
838.498	95.23
838.674	199.68
838.851	107.52
839.027	9.22
839.203	15.36
839.38	82.94
839.556	72.7
839.732	3.07
839.909	130.05
840.085	70.65
840.261	84.99
840.437	44.03
840.614	5.12
840.79	93.18
840.966	93.18
841.142	87.04
841.318	60.42
841.494	130.05
841.671	76.8
841.847	33.79
842.023	89.09
842.199	44.03
842.375	111.61
842.551	46.08
842.727	154.62
842.903	119.81
843.079	115.71
843.255	111.61
843.431	115.71
843.607	60.42
843.783	37.89
843.959	76.8
844.134	109.57
844.31	95.23
844.486	56.32
844.662	89.09
844.838	123.9
845.013	87.04
845.189	76.8
845.365	54.27
845.541	-11.26
845.716	101.37
845.892	144.38
846.068	80.89
846.244	78.85
846.419	80.89
846.595	82.94
846.77	48.13
846.946	117.76
847.122	60.42
847.297	95.23
847.473	152.57
847.648	58.37
847.824	44.03
847.999	35.84
848.175	37.89
848.35	48.13
848.526	68.61
848.701	46.08
848.876	80.89
849.052	105.47
849.227	66.56
849.403	97.28
849.578	1.02
849.753	82.94
849.929	158.72
850.104	64.51
850.279	121.85
850.454	89.09
850.63	48.13
850.805	97.28
850.98	78.85
851.155	87.04
851.33	125.95
851.505	91.13
851.681	54.27
851.856	66.56
852.031	56.32
852.206	125.95
852.381	37.89
852.556	31.74
852.731	95.23
852.906	80.89
853.081	123.9
853.256	132.09
853.431	11.26
853.606	37.89
853.781	33.79
853.956	33.79
854.131	91.13
854.305	37.89
854.48	62.46
854.655	95.23
854.83	103.42
855.005	27.65
855.18	95.23
855.354	25.6
855.529	78.85
855.704	11.26
855.879	82.94
856.053	91.13
856.228	41.98
856.403	46.08
856.577	99.33
856.752	3.07
856.926	87.04
857.101	80.89
857.276	56.32
857.45	39.94
857.625	56.32
857.799	23.55
857.974	56.32
858.148	78.85
858.323	93.18
858.497	25.6
858.672	62.46
858.846	58.37
859.02	50.18
859.195	48.13
859.369	44.03
859.543	19.46
859.718	216.06
859.892	113.66
860.066	3.07
860.241	-1.02
860.415	-23.55
860.589	-39.94
860.763	76.8
860.938	-58.37
861.112	144.38
861.286	64.51
861.46	60.42
861.634	111.61
861.808	70.65
861.982	17.41
862.157	31.74
862.331	25.6
862.505	-3.07
862.679	1.02
862.853	5.12
863.027	9.22
863.201	84.99
863.375	35.84
863.549	56.32
863.722	95.23
863.896	99.33
864.07	27.65
864.244	52.22
864.418	9.22
864.592	48.13
864.766	35.84
864.939	56.32
865.113	5.12
865.287	33.79
865.461	9.22
865.634	58.37
865.808	82.94
865.982	23.55
866.156	70.65
866.329	35.84
866.503	58.37
866.676	101.37
866.85	105.47
867.024	39.94
867.197	17.41
867.371	21.5
867.544	82.94
867.718	48.13
867.891	74.75
868.065	11.26
868.238	31.74
868.412	103.42
868.585	60.42
868.759	72.7
868.932	48.13
869.105	13.31
869.279	25.6
869.452	68.61
869.625	48.13
869.799	35.84
869.972	-1.02
870.145	91.13
870.319	13.31
870.492	50.18
870.665	44.03
870.838	25.6
871.011	-9.22
871.185	48.13
871.358	89.09
871.531	64.51
871.704	66.56
871.877	9.22
872.05	66.56
872.223	-11.26
872.396	82.94
872.569	17.41
872.742	25.6
872.915	80.89
873.088	-48.13
873.261	3.07
873.434	-3.07
873.607	41.98
873.78	35.84
873.953	37.89
874.126	56.32
874.299	54.27
874.471	60.42
874.644	29.7
874.817	130.05
874.99	9.22
875.163	13.31
875.335	-11.26
875.508	60.42
875.681	105.47
875.853	1.02
876.026	37.89
876.199	-11.26
876.371	-1.02
876.544	41.98
876.717	68.61
876.889	1.02
877.062	58.37
877.234	25.6
877.407	121.85
877.579	29.7
877.752	9.22
877.924	41.98
878.097	-35.84
878.269	25.6
878.442	5.12
878.614	84.99
878.786	58.37
878.959	37.89
879.131	82.94
879.303	31.74
879.476	29.7
879.648	70.65
879.82	17.41
879.993	46.08
880.165	52.22
880.337	17.41
880.509	89.09
880.681	-7.17
880.854	41.98
881.026	41.98
881.198	60.42
881.37	50.18
881.542	41.98
881.714	-3.07
881.886	31.74
882.058	-9.22
882.23	33.79
882.402	-60.42
882.574	25.6
882.746	74.75
882.918	91.13
883.09	7.17
883.262	29.7
883.434	-5.12
883.606	-31.74
883.778	13.31
883.95	76.8
884.122	-41.98
884.293	46.08
884.465	-3.07
884.637	19.46
884.809	33.79
884.98	-3.07
885.152	-23.55
885.324	50.18
885.496	-7.17
885.667	29.7
885.839	70.65
886.011	99.33
886.182	95.23
886.354	-9.22
886.525	62.46
886.697	-29.7
886.869	72.7
887.04	29.7
887.212	44.03
887.383	37.89
887.555	-17.41
887.726	39.94
887.897	-9.22
888.069	37.89
888.24	107.52
888.412	48.13
888.583	46.08
888.754	117.76
888.926	50.18
889.097	84.99
889.268	-17.41
889.44	21.5
889.611	-25.6
889.782	5.12
889.953	33.79
890.125	17.41
890.296	9.22
890.467	21.5
890.638	-21.5
890.809	41.98
890.98	25.6
891.151	21.5
891.323	27.65
891.494	21.5
891.665	64.51
891.836	39.94
892.007	101.37
892.178	15.36
892.349	82.94
892.52	-27.65
892.691	-39.94
892.862	15.36
893.032	58.37
893.203	-37.89
893.374	25.6
893.545	68.61
893.716	41.98
893.887	3.07
894.057	37.89
894.228	31.74
894.399	-39.94
894.57	17.41
894.74	46.08
894.911	44.03
895.082	41.98
895.253	17.41
895.423	60.42
895.594	19.46
895.764	41.98
895.935	62.46
896.106	3.07
896.276	-60.42
896.447	25.6
896.617	21.5
896.788	39.94
896.958	31.74
897.129	13.31
897.299	25.6
897.47	-35.84
897.64	95.23
897.81	21.5
897.981	11.26
898.151	54.27
898.322	48.13
898.492	-1.02
898.662	27.65
898.832	-52.22
899.003	33.79
899.173	54.27
899.343	-27.65
899.513	37.89
