Data from USB4F104151__285__11-12-57-001.txt Node

Date: Wed Mar 12 11:12:57 EDT 2025
User: louis
Spectrometer: USB4F10415
Trigger mode: 4
Integration Time (sec): 2.000000E-2
Scans to average: 1
Electric dark correction enabled: true
Nonlinearity correction enabled: false
Boxcar width: 0
XAxis mode: Wavelengths
Number of Pixels in Spectrum: 3648
>>>>>Begin Spectral Data<<<<<
178.204	-73.73
178.424	-73.73
178.644	-73.73
178.864	-88.06
179.084	-36.86
179.304	-14.34
179.524	6.14
179.744	63.49
179.964	49.15
180.184	-22.53
180.404	-26.62
180.624	59.39
180.844	-63.49
181.064	-2.05
181.283	4.1
181.503	-30.72
181.723	-22.53
181.943	12.29
182.163	32.77
182.383	30.72
182.602	43.01
182.822	47.1
183.042	24.58
183.262	0
183.482	26.62
183.701	-57.34
183.921	26.62
184.141	6.14
184.361	-16.38
184.58	-28.67
184.8	45.06
185.02	49.15
185.239	-24.58
185.459	20.48
185.679	8.19
185.898	26.62
186.118	104.45
186.338	6.14
186.557	96.25
186.777	20.48
186.997	69.63
187.216	34.82
187.436	102.4
187.655	73.73
187.875	22.53
188.095	-43.01
188.314	12.29
188.534	63.49
188.753	53.25
188.973	59.39
189.192	24.58
189.412	-43.01
189.631	-14.34
189.851	-75.77
190.07	30.72
190.29	4.1
190.509	43.01
190.729	79.87
190.948	36.86
191.168	137.21
191.387	2.05
191.607	-45.06
191.826	51.2
192.045	-10.24
192.265	63.49
192.484	28.67
192.704	71.68
192.923	-55.3
193.142	47.1
193.362	16.38
193.581	-32.77
193.8	92.16
194.02	4.1
194.239	55.3
194.458	30.72
194.678	-12.29
194.897	-24.58
195.116	30.72
195.335	65.53
195.555	59.39
195.774	0
195.993	0
196.212	16.38
196.432	34.82
196.651	-14.34
196.87	38.91
197.089	73.73
197.308	16.38
197.528	47.1
197.747	34.82
197.966	34.82
198.185	22.53
198.404	-38.91
198.623	-18.43
198.842	16.38
199.062	88.06
199.281	-12.29
199.5	12.29
199.719	4.1
199.938	118.78
200.157	38.91
200.376	26.62
200.595	61.44
200.814	43.01
201.033	-34.82
201.252	8.19
201.471	61.44
201.69	73.73
201.909	34.82
202.128	63.49
202.347	-16.38
202.566	24.58
202.785	-36.86
203.004	-16.38
203.223	73.73
203.442	53.25
203.661	30.72
203.879	86.01
204.098	77.82
204.317	-63.49
204.536	55.3
204.755	83.97
204.974	10.24
205.193	18.43
205.411	59.39
205.63	55.3
205.849	2.05
206.068	-20.48
206.287	69.63
206.505	43.01
206.724	22.53
206.943	55.3
207.162	0
207.381	10.24
207.599	20.48
207.818	22.53
208.037	10.24
208.255	14.34
208.474	71.68
208.693	-12.29
208.911	2.05
209.13	4.1
209.349	47.1
209.567	81.92
209.786	14.34
210.005	65.53
210.223	110.59
210.442	14.34
210.661	-18.43
210.879	-6.14
211.098	116.73
211.316	10.24
211.535	8.19
211.753	67.58
211.972	77.82
212.191	2.05
212.409	2.05
212.628	-38.91
212.846	55.3
213.065	-49.15
213.283	49.15
213.502	16.38
213.72	-30.72
213.938	-6.14
214.157	83.97
214.375	16.38
214.594	71.68
214.812	34.82
215.031	-6.14
215.249	92.16
215.467	-12.29
215.686	-28.67
215.904	26.62
216.122	24.58
216.341	153.6
216.559	12.29
216.778	55.3
216.996	40.96
217.214	10.24
217.432	14.34
217.651	-4.1
217.869	57.34
218.087	12.29
218.306	22.53
218.524	-10.24
218.742	26.62
218.96	10.24
219.179	122.88
219.397	26.62
219.615	47.1
219.833	-30.72
220.051	26.62
220.27	45.06
220.488	65.53
220.706	38.91
220.924	-24.58
221.142	38.91
221.36	-55.3
221.578	112.64
221.796	10.24
222.015	-6.14
222.233	32.77
222.451	30.72
222.669	63.49
222.887	-2.05
223.105	51.2
223.323	92.16
223.541	2.05
223.759	18.43
223.977	4.1
224.195	-2.05
224.413	126.97
224.631	98.3
224.849	51.2
225.067	104.45
225.285	0
225.503	18.43
225.721	22.53
225.939	-4.1
226.157	16.38
226.375	36.86
226.592	-28.67
226.81	-12.29
227.028	20.48
227.246	120.83
227.464	10.24
227.682	-12.29
227.9	59.39
228.117	-51.2
228.335	18.43
228.553	-30.72
228.771	63.49
228.989	-30.72
229.206	4.1
229.424	0
229.642	24.58
229.86	-4.1
230.077	-24.58
230.295	-4.1
230.513	14.34
230.731	-2.05
230.948	6.14
231.166	118.78
231.384	-8.19
231.601	18.43
231.819	47.1
232.037	88.06
232.254	20.48
232.472	14.34
232.689	55.3
232.907	14.34
233.125	16.38
233.342	16.38
233.56	-69.63
233.777	18.43
233.995	40.96
234.213	53.25
234.43	-16.38
234.648	67.58
234.865	-30.72
235.083	-14.34
235.3	47.1
235.518	71.68
235.735	24.58
235.953	-22.53
236.17	63.49
236.388	43.01
236.605	59.39
236.822	51.2
237.04	43.01
237.257	4.1
237.475	63.49
237.692	0
237.909	12.29
238.127	0
238.344	-20.48
238.562	40.96
238.779	47.1
238.996	-16.38
239.214	-24.58
239.431	-2.05
239.648	2.05
239.865	-4.1
240.083	-6.14
240.3	55.3
240.517	-32.77
240.735	-22.53
240.952	26.62
241.169	18.43
241.386	4.1
241.603	65.53
241.821	6.14
242.038	43.01
242.255	79.87
242.472	49.15
242.689	12.29
242.907	49.15
243.124	61.44
243.341	22.53
243.558	57.34
243.775	-4.1
243.992	22.53
244.209	20.48
244.426	55.3
244.643	47.1
244.86	47.1
245.078	-18.43
245.295	10.24
245.512	51.2
245.729	36.86
245.946	8.19
246.163	26.62
246.38	38.91
246.597	20.48
246.814	22.53
247.031	18.43
247.248	63.49
247.464	16.38
247.681	6.14
247.898	57.34
248.115	4.1
248.332	-43.01
248.549	122.88
248.766	59.39
248.983	22.53
249.2	-4.1
249.417	-8.19
249.633	47.1
249.85	59.39
250.067	2.05
250.284	36.86
250.501	30.72
250.717	20.48
250.934	-55.3
251.151	98.3
251.368	-38.91
251.585	38.91
251.801	4.1
252.018	-12.29
252.235	40.96
252.451	6.14
252.668	-51.2
252.885	28.67
253.102	63.49
253.318	34.82
253.535	43.01
253.752	-14.34
253.968	0
254.185	-30.72
254.401	49.15
254.618	-8.19
254.835	14.34
255.051	118.78
255.268	47.1
255.484	8.19
255.701	-34.82
255.917	-12.29
256.134	51.2
256.351	104.45
256.567	2.05
256.784	4.1
257	-30.72
257.217	100.35
257.433	63.49
257.65	57.34
257.866	79.87
258.082	36.86
258.299	26.62
258.515	-2.05
258.732	65.53
258.948	6.14
259.165	26.62
259.381	14.34
259.597	79.87
259.814	-34.82
260.03	2.05
260.246	16.38
260.463	53.25
260.679	16.38
260.895	59.39
261.112	45.06
261.328	28.67
261.544	6.14
261.761	75.77
261.977	2.05
262.193	-10.24
262.409	49.15
262.626	43.01
262.842	24.58
263.058	-10.24
263.274	51.2
263.49	20.48
263.707	45.06
263.923	-16.38
264.139	-8.19
264.355	0
264.571	-4.1
264.787	61.44
265.004	102.4
265.22	18.43
265.436	45.06
265.652	-12.29
265.868	61.44
266.084	6.14
266.3	20.48
266.516	53.25
266.732	14.34
266.948	77.82
267.164	4.1
267.38	-57.34
267.596	0
267.812	102.4
268.028	65.53
268.244	32.77
268.46	-4.1
268.676	-34.82
268.892	22.53
269.108	10.24
269.324	73.73
269.54	-6.14
269.756	36.86
269.972	-22.53
270.188	49.15
270.403	77.82
270.619	43.01
270.835	38.91
271.051	83.97
271.267	2.05
271.483	108.54
271.698	-20.48
271.914	26.62
272.13	36.86
272.346	-12.29
272.562	30.72
272.777	49.15
272.993	6.14
273.209	8.19
273.425	22.53
273.64	-12.29
273.856	-14.34
274.072	16.38
274.287	10.24
274.503	69.63
274.719	43.01
274.934	71.68
275.15	28.67
275.366	40.96
275.581	-22.53
275.797	24.58
276.012	47.1
276.228	-6.14
276.444	14.34
276.659	120.83
276.875	22.53
277.09	34.82
277.306	-38.91
277.521	36.86
277.737	69.63
277.952	6.14
278.168	6.14
278.383	116.73
278.599	26.62
278.814	32.77
279.03	96.25
279.245	12.29
279.461	108.54
279.676	51.2
279.892	49.15
280.107	-34.82
280.322	75.77
280.538	32.77
280.753	83.97
280.969	4.1
281.184	-2.05
281.399	30.72
281.615	30.72
281.83	0
282.045	55.3
282.26	-40.96
282.476	65.53
282.691	61.44
282.906	34.82
283.122	51.2
283.337	-14.34
283.552	55.3
283.767	14.34
283.983	36.86
284.198	20.48
284.413	10.24
284.628	-10.24
284.843	-6.14
285.058	34.82
285.274	-47.1
285.489	-4.1
285.704	32.77
285.919	-45.06
286.134	36.86
286.349	-4.1
286.564	10.24
286.779	14.34
286.995	-34.82
287.21	10.24
287.425	63.49
287.64	-4.1
287.855	55.3
288.07	-45.06
288.285	10.24
288.5	90.11
288.715	38.91
288.93	59.39
289.145	2.05
289.36	26.62
289.575	16.38
289.79	34.82
290.004	59.39
290.219	55.3
290.434	-57.34
290.649	51.2
290.864	28.67
291.079	2.05
291.294	59.39
291.509	53.25
291.724	40.96
291.938	51.2
292.153	26.62
292.368	36.86
292.583	26.62
292.798	6.14
293.012	10.24
293.227	22.53
293.442	36.86
293.657	2.05
293.871	24.58
294.086	22.53
294.301	-10.24
294.516	65.53
294.73	34.82
294.945	-71.68
295.16	2.05
295.374	-34.82
295.589	53.25
295.804	12.29
296.018	26.62
296.233	63.49
296.447	65.53
296.662	2.05
296.877	65.53
297.091	79.87
297.306	26.62
297.52	-24.58
297.735	-10.24
297.949	110.59
298.164	55.3
298.378	100.35
298.593	14.34
298.807	32.77
299.022	-30.72
299.236	75.77
299.451	36.86
299.665	4.1
299.88	28.67
300.094	69.63
300.309	38.91
300.523	94.21
300.737	-47.1
300.952	34.82
301.166	-14.34
301.381	24.58
301.595	53.25
301.809	18.43
302.024	-6.14
302.238	-14.34
302.452	55.3
302.667	-57.34
302.881	116.73
303.095	79.87
303.309	34.82
303.524	65.53
303.738	-2.05
303.952	30.72
304.166	116.73
304.381	-34.82
304.595	118.78
304.809	-43.01
305.023	45.06
305.237	28.67
305.452	-14.34
305.666	63.49
305.88	38.91
306.094	2.05
306.308	12.29
306.522	55.3
306.736	47.1
306.95	-14.34
307.164	-26.62
307.379	102.4
307.593	32.77
307.807	-4.1
308.021	32.77
308.235	40.96
308.449	86.01
308.663	-22.53
308.877	75.77
309.091	28.67
309.305	94.21
309.519	-6.14
309.733	40.96
309.947	12.29
310.161	22.53
310.374	53.25
310.588	2.05
310.802	-4.1
311.016	43.01
311.23	38.91
311.444	-16.38
311.658	-10.24
311.872	51.2
312.085	53.25
312.299	43.01
312.513	8.19
312.727	-57.34
312.941	34.82
313.154	47.1
313.368	100.35
313.582	110.59
313.796	43.01
314.009	10.24
314.223	65.53
314.437	34.82
314.651	36.86
314.864	26.62
315.078	49.15
315.292	57.34
315.505	-36.86
315.719	12.29
315.933	45.06
316.146	16.38
316.36	30.72
316.573	18.43
316.787	49.15
317.001	32.77
317.214	57.34
317.428	14.34
317.641	-12.29
317.855	51.2
318.068	24.58
318.282	10.24
318.495	2.05
318.709	18.43
318.922	47.1
319.136	73.73
319.349	47.1
319.563	34.82
319.776	79.87
319.99	-34.82
320.203	4.1
320.417	26.62
320.63	51.2
320.843	57.34
321.057	120.83
321.27	65.53
321.483	14.34
321.697	79.87
321.91	55.3
322.124	55.3
322.337	47.1
322.55	81.92
322.763	30.72
322.977	-6.14
323.19	10.24
323.403	8.19
323.617	104.45
323.83	45.06
324.043	53.25
324.256	77.82
324.469	-4.1
324.683	63.49
324.896	30.72
325.109	47.1
325.322	-38.91
325.535	43.01
325.748	36.86
325.962	30.72
326.175	-20.48
326.388	83.97
326.601	-10.24
326.814	16.38
327.027	30.72
327.24	83.97
327.453	22.53
327.666	28.67
327.879	-6.14
328.092	118.78
328.305	71.68
328.518	69.63
328.731	59.39
328.944	43.01
329.157	8.19
329.37	12.29
329.583	77.82
329.796	63.49
330.009	14.34
330.222	104.45
330.435	61.44
330.648	43.01
330.861	59.39
331.073	-43.01
331.286	22.53
331.499	0
331.712	45.06
331.925	10.24
332.138	36.86
332.35	30.72
332.563	81.92
332.776	-22.53
332.989	24.58
333.202	22.53
333.414	-14.34
333.627	106.49
333.84	106.49
334.053	10.24
334.265	-16.38
334.478	38.91
334.691	55.3
334.903	59.39
335.116	-10.24
335.329	59.39
335.541	86.01
335.754	43.01
335.966	75.77
336.179	-2.05
336.392	6.14
336.604	22.53
336.817	18.43
337.029	6.14
337.242	57.34
337.454	14.34
337.667	32.77
337.88	59.39
338.092	-6.14
338.305	40.96
338.517	49.15
338.729	92.16
338.942	2.05
339.154	-34.82
339.367	24.58
339.579	43.01
339.792	4.1
340.004	47.1
340.217	94.21
340.429	-6.14
340.641	18.43
340.854	24.58
341.066	22.53
341.278	90.11
341.491	83.97
341.703	-18.43
341.915	-77.82
342.128	-6.14
342.34	116.73
342.552	100.35
342.764	59.39
342.977	65.53
343.189	32.77
343.401	2.05
343.613	47.1
343.826	10.24
344.038	-16.38
344.25	51.2
344.462	8.19
344.674	88.06
344.886	98.3
345.099	28.67
345.311	124.93
345.523	43.01
345.735	106.49
345.947	55.3
346.159	32.77
346.371	18.43
346.583	38.91
346.795	71.68
347.007	81.92
347.219	73.73
347.431	88.06
347.643	75.77
347.855	14.34
348.067	34.82
348.279	-20.48
348.491	69.63
348.703	81.92
348.915	69.63
349.127	55.3
349.339	122.88
349.551	61.44
349.763	30.72
349.975	-2.05
350.187	47.1
350.399	129.02
350.61	47.1
350.822	4.1
351.034	40.96
351.246	-12.29
351.458	77.82
351.669	116.73
351.881	26.62
352.093	18.43
352.305	143.36
352.517	6.14
352.728	131.07
352.94	55.3
353.152	-18.43
353.363	59.39
353.575	73.73
353.787	30.72
353.999	59.39
354.21	26.62
354.422	40.96
354.633	-2.05
354.845	6.14
355.057	129.02
355.268	-32.77
355.48	38.91
355.692	53.25
355.903	71.68
356.115	26.62
356.326	100.35
356.538	18.43
356.749	59.39
356.961	126.97
357.172	28.67
357.384	-49.15
357.595	38.91
357.807	43.01
358.018	8.19
358.23	36.86
358.441	61.44
358.653	43.01
358.864	71.68
359.075	-10.24
359.287	55.3
359.498	77.82
359.709	34.82
359.921	-20.48
360.132	90.11
360.344	49.15
360.555	59.39
360.766	124.93
360.977	36.86
361.189	79.87
361.4	32.77
361.611	47.1
361.823	36.86
362.034	6.14
362.245	30.72
362.456	53.25
362.667	-8.19
362.879	4.1
363.09	43.01
363.301	65.53
363.512	30.72
363.723	6.14
363.935	8.19
364.146	88.06
364.357	43.01
364.568	24.58
364.779	-14.34
364.99	102.4
365.201	49.15
365.412	71.68
365.623	-2.05
365.834	38.91
366.045	30.72
366.256	114.69
366.467	63.49
366.678	-30.72
366.889	67.58
367.1	-24.58
367.311	34.82
367.522	-20.48
367.733	69.63
367.944	114.69
368.155	-16.38
368.366	8.19
368.577	53.25
368.788	55.3
368.999	88.06
369.209	59.39
369.42	20.48
369.631	79.87
369.842	108.54
370.053	26.62
370.264	-43.01
370.474	26.62
370.685	96.25
370.896	-8.19
371.107	47.1
371.317	38.91
371.528	-20.48
371.739	59.39
371.95	30.72
372.16	63.49
372.371	67.58
372.582	-20.48
372.792	36.86
373.003	49.15
373.214	34.82
373.424	36.86
373.635	32.77
373.846	79.87
374.056	63.49
374.267	98.3
374.477	28.67
374.688	30.72
374.898	100.35
375.109	63.49
375.319	65.53
375.53	71.68
375.74	-2.05
375.951	77.82
376.161	104.45
376.372	120.83
376.582	8.19
376.793	122.88
377.003	8.19
377.214	14.34
377.424	122.88
377.635	36.86
377.845	38.91
378.055	-6.14
378.266	59.39
378.476	0
378.686	71.68
378.897	51.2
379.107	-4.1
379.317	59.39
379.528	20.48
379.738	24.58
379.948	59.39
380.158	24.58
380.369	79.87
380.579	47.1
380.789	75.77
380.999	57.34
381.21	55.3
381.42	26.62
381.63	77.82
381.84	-2.05
382.05	92.16
382.261	75.77
382.471	112.64
382.681	20.48
382.891	96.25
383.101	18.43
383.311	-8.19
383.521	71.68
383.731	88.06
383.941	20.48
384.151	45.06
384.361	94.21
384.571	43.01
384.781	108.54
384.991	-43.01
385.201	69.63
385.411	92.16
385.621	81.92
385.831	30.72
386.041	61.44
386.251	-10.24
386.461	43.01
386.671	90.11
386.881	102.4
387.091	32.77
387.301	81.92
387.511	8.19
387.72	98.3
387.93	28.67
388.14	96.25
388.35	79.87
388.56	43.01
388.769	102.4
388.979	75.77
389.189	18.43
389.399	-55.3
389.609	47.1
389.818	40.96
390.028	53.25
390.238	49.15
390.447	-30.72
390.657	59.39
390.867	36.86
391.076	59.39
391.286	98.3
391.496	43.01
391.705	24.58
391.915	96.25
392.125	8.19
392.334	63.49
392.544	169.98
392.753	104.45
392.963	88.06
393.172	90.11
393.382	4.1
393.591	145.41
393.801	75.77
394.01	96.25
394.22	94.21
394.429	86.01
394.639	63.49
394.848	34.82
395.058	98.3
395.267	-12.29
395.477	38.91
395.686	88.06
395.895	38.91
396.105	149.5
396.314	96.25
396.524	61.44
396.733	36.86
396.942	126.97
397.152	151.55
397.361	94.21
397.57	141.31
397.78	63.49
397.989	106.49
398.198	137.21
398.407	28.67
398.617	100.35
398.826	51.2
399.035	114.69
399.244	137.21
399.453	116.73
399.663	112.64
399.872	210.94
400.081	129.02
400.29	169.98
400.499	69.63
400.708	151.55
400.917	129.02
401.127	174.08
401.336	63.49
401.545	239.61
401.754	47.1
401.963	118.78
402.172	90.11
402.381	38.91
402.59	124.93
402.799	151.55
403.008	176.13
403.217	108.54
403.426	167.93
403.635	61.44
403.844	133.12
404.053	112.64
404.262	38.91
404.471	141.31
404.68	151.55
404.888	145.41
405.097	143.36
405.306	165.89
405.515	155.65
405.724	104.45
405.933	217.08
406.142	116.73
406.35	131.07
406.559	141.31
406.768	266.24
406.977	219.13
407.185	184.32
407.394	161.79
407.603	135.17
407.812	212.99
408.02	202.75
408.229	235.52
408.438	243.71
408.646	249.85
408.855	256
409.064	278.52
409.272	290.81
409.481	276.48
409.69	305.15
409.898	299
410.107	327.67
410.315	311.29
410.524	311.29
410.733	342.01
410.941	305.15
411.15	370.68
411.358	432.12
411.567	419.83
411.775	378.87
411.984	411.64
412.192	440.31
412.401	419.83
412.609	428.03
412.818	481.27
413.026	485.37
413.234	481.27
413.443	518.14
413.651	550.9
413.86	641.01
414.068	612.34
414.276	628.73
414.485	622.58
414.693	618.49
414.901	675.83
415.11	737.27
415.318	632.82
415.526	684.02
415.734	770.04
415.943	720.88
416.151	780.28
416.359	837.62
416.567	868.34
416.776	841.72
416.984	972.79
417.192	976.88
417.4	1007.6
417.608	997.36
417.817	993.26
418.025	1083.38
418.233	1171.44
418.441	1105.9
418.649	1148.91
418.857	1189.87
419.065	1300.46
419.273	1308.65
419.481	1380.33
419.689	1468.39
419.897	1374.19
420.105	1480.68
420.313	1632.23
420.521	1599.46
420.729	1562.6
420.937	1681.38
421.145	1794.02
421.353	1806.31
421.561	1867.75
421.769	1974.24
421.977	2170.85
422.185	2115.55
422.393	2195.42
422.601	2326.49
422.809	2179.04
423.017	2404.32
423.224	2363.36
423.432	2478.04
423.64	2435.03
423.848	2703.32
424.056	2648.02
424.263	2940.88
424.471	2850.77
424.679	2906.07
424.887	2971.6
425.094	3196.88
425.302	3223.5
425.51	3229.65
425.718	3364.81
425.925	3393.48
426.133	3735.49
426.341	3723.21
426.548	3882.95
426.756	3829.7
426.964	3864.52
427.171	4126.66
427.379	4485.05
427.586	4231.1
427.794	4460.48
428.001	4722.62
428.209	4915.12
428.417	4745.14
428.624	5242.8
428.832	5216.18
429.039	5099.44
429.247	5156.79
429.454	5713.83
429.662	6174.63
429.869	5695.4
430.076	6016.93
430.284	5767.08
430.491	6154.15
430.699	6381.47
430.906	6539.16
431.114	6639.51
431.321	6662.04
431.528	7055.25
431.736	7309.2
431.943	7673.74
432.15	7524.24
432.358	7704.46
432.565	8003.46
432.772	7876.49
432.979	8290.18
433.187	8658.81
433.394	8681.34
433.601	9234.29
433.808	9072.5
434.016	9090.93
434.223	9430.9
434.43	9881.45
434.637	9899.88
434.844	10458.98
435.052	10749.79
435.259	10563.42
435.466	10733.4
435.673	10487.65
435.88	11376.47
436.087	11720.53
436.294	11722.57
436.501	11671.37
436.708	11601.74
436.915	12279.62
437.122	12781.37
437.329	12783.42
437.537	13080.38
437.743	13184.82
437.95	13158.2
438.157	13713.2
438.364	14554.91
438.571	14495.52
438.778	14532.39
438.985	15769.36
439.192	15341.33
439.399	15642.39
439.606	15374.1
439.813	16252.68
440.02	17094.4
440.227	16844.54
440.433	16600.83
440.64	17016.57
440.847	17266.42
441.054	17686.26
441.261	18888.42
441.467	18360.04
441.674	18867.94
441.881	19678.93
442.088	19230.43
442.294	19463.9
442.501	19814.1
442.708	19959.5
442.914	21132.99
443.121	21800.63
443.328	21075.65
443.534	22771.36
443.741	22093.49
443.948	21706.42
444.154	23416.47
444.361	23295.64
444.568	23359.13
444.774	23338.65
444.981	23608.98
445.187	24450.7
445.394	25255.55
445.6	25089.67
445.807	27575.9
446.013	26252.91
446.22	26719.85
446.426	27635.29
446.633	27700.83
446.839	28978.76
447.046	27756.12
447.252	29122.12
447.459	29449.79
447.665	29089.35
447.871	30203.44
448.078	31718.94
448.284	29992.5
448.491	31006.25
448.697	32063
448.903	32646.67
449.11	32736.78
449.316	31985.18
449.522	32970.25
449.728	33424.9
449.935	33797.63
450.141	33777.15
450.347	34412.02
450.553	33472
450.76	33695.23
450.966	34930.15
451.172	34434.55
451.378	35419.62
451.584	34866.67
451.791	35560.93
451.997	35091.94
452.203	35991
452.409	35655.14
452.615	35544.55
452.821	34639.34
453.027	33701.37
453.233	36070.87
453.44	34356.72
453.646	34577.9
453.852	34932.2
454.058	35362.28
454.264	33928.7
454.47	35034.6
454.676	33861.12
454.882	35298.79
455.088	31970.84
455.294	32753.16
455.5	32861.71
455.705	33426.95
455.911	32026.14
456.117	31286.82
456.323	30940.71
456.529	29331.01
456.735	30371.38
456.941	30064.18
457.147	29367.87
457.352	28434
457.558	28173.91
457.764	27866.71
457.97	27586.14
458.176	26865.25
458.381	26928.74
458.587	25972.34
458.793	25468.54
458.999	24096.4
459.204	26044.02
459.41	25208.45
459.616	23781.01
459.821	23633.56
460.027	23631.51
460.233	23000.74
460.438	21829.3
460.644	22345.39
460.85	21229.24
461.055	21044.93
461.261	20631.24
461.466	19283.67
461.672	19007.2
461.878	20047.57
462.083	18953.95
462.289	18454.25
462.494	18181.87
462.7	17178.36
462.905	16989.95
463.111	17598.2
463.316	17508.08
463.522	17016.57
463.727	17188.6
463.932	17225.47
464.138	17086.2
464.343	16963.33
464.549	16645.89
464.754	17127.16
464.959	17059.58
465.165	16852.73
465.37	16301.83
465.575	15918.86
465.781	16498.44
465.986	16725.76
466.191	15763.22
466.397	15449.88
466.602	14794.53
466.807	15425.3
467.012	15548.18
467.218	15380.25
467.423	15097.63
467.628	15236.89
467.833	15955.72
468.038	15419.16
468.244	14638.88
468.449	15433.49
468.654	15062.81
468.859	14858.01
469.064	14782.24
469.269	14057.26
469.474	14073.64
469.679	14540.58
469.885	14231.33
470.09	14434.08
470.295	14163.75
470.5	13713.2
470.705	13868.84
470.91	13739.82
471.115	13526.83
471.32	13676.34
471.525	13508.4
471.73	13170.49
471.935	13455.15
472.139	12912.44
472.344	12801.85
472.549	12924.73
472.754	12795.71
472.959	12433.22
473.164	12046.15
473.369	12044.1
473.574	12519.23
473.778	12152.65
473.983	12078.92
474.188	12031.82
474.393	11568.98
474.598	11773.77
474.802	11794.25
475.007	11564.88
475.212	11417.43
475.417	11075.41
475.621	11030.36
475.826	11054.94
476.031	10762.08
476.235	10727.26
476.44	10774.36
476.645	10438.5
476.849	10784.6
477.054	10489.7
477.259	10397.54
477.463	10256.23
477.668	10258.28
477.872	10499.94
478.077	10065.77
478.282	9840.49
478.486	9740.14
478.691	9629.55
478.895	9762.67
479.1	9602.93
479.304	9635.69
479.509	9371.5
479.713	9439.09
479.918	9281.39
480.122	8966.01
480.326	9340.79
480.531	9322.35
480.735	9109.36
480.94	8982.39
481.144	9404.27
481.348	8877.94
481.553	8963.96
481.757	8859.51
481.961	9074.55
482.166	9013.11
482.37	9101.17
482.574	8882.04
482.778	9035.64
482.983	9111.41
483.187	8951.67
483.391	9058.17
483.595	8750.97
483.8	8773.5
484.004	8927.1
484.208	9027.45
484.412	8789.88
484.616	9015.16
484.821	8931.19
485.025	8847.22
485.229	8841.08
485.433	8900.47
485.637	9109.36
485.841	8695.68
486.045	8890.23
486.249	8810.36
486.453	8830.84
486.657	8871.8
486.861	8892.28
487.065	8609.66
487.269	8851.32
487.473	8742.78
487.677	8890.23
487.881	8949.62
488.085	8796.03
488.289	8890.23
488.493	8828.79
488.697	8929.14
488.901	8849.27
489.105	8931.19
489.309	9105.27
489.512	9152.37
489.716	9054.07
489.92	9004.92
490.124	8908.66
490.328	9205.62
490.531	8906.62
490.735	8974.2
490.939	8841.08
491.143	9095.03
491.346	8994.68
491.55	9183.09
491.754	9095.03
491.958	9351.03
492.161	9183.09
492.365	9355.12
492.569	9385.84
492.772	9314.16
492.976	9381.74
493.18	9404.27
493.383	9418.61
493.587	9713.52
493.79	9811.82
493.994	9852.78
494.197	9801.58
494.401	9781.1
494.605	9789.29
494.808	10172.26
495.012	9903.98
495.215	9869.16
495.419	10051.43
495.622	10051.43
495.825	10354.53
496.029	10315.62
496.232	10588
496.436	10415.97
496.639	10805.08
496.843	10250.08
497.046	10899.29
497.249	10811.23
497.453	10952.54
497.656	11257.68
497.859	11061.08
498.063	11282.26
498.266	11466.58
498.469	11683.66
498.673	11687.76
498.876	11806.54
499.079	12064.58
499.282	11886.41
499.485	12103.5
499.689	12255.04
499.892	12271.43
500.095	12420.93
500.298	12769.09
500.501	12775.23
500.705	13207.35
500.908	13176.63
501.111	13094.71
501.314	13227.83
501.517	13403.96
501.72	13606.7
501.923	13520.69
502.126	13748.01
502.329	14063.4
502.532	14178.09
502.735	14284.58
502.938	14587.68
503.141	14575.39
503.344	14772
503.547	14935.84
503.75	15247.13
503.953	15441.68
504.156	15386.39
504.359	15601.43
504.562	15730.45
504.765	16086.79
504.968	16224.01
505.17	16189.19
505.373	16213.77
505.576	16633.6
505.779	16774.91
505.982	16686.85
506.185	16922.37
506.387	17053.44
506.59	17653.49
506.793	17542.9
506.996	17712.88
507.198	18343.66
507.401	18079.47
507.604	18224.87
507.807	18523.88
508.009	18556.64
508.212	18644.71
508.415	19017.44
508.617	19132.12
508.82	19480.28
509.022	19461.85
509.225	19728.08
509.428	19664.6
509.63	20027.09
509.833	20027.09
510.035	20891.33
510.238	20764.36
510.44	20739.78
510.643	21114.56
510.845	21264.06
511.048	21159.61
511.25	21784.24
511.453	21569.21
511.655	22449.83
511.858	22259.37
512.06	22255.28
512.262	22853.28
512.465	22779.56
512.667	23115.42
512.87	23269.02
513.072	23060.13
513.274	23527.06
513.477	23967.38
513.679	24024.72
513.881	24276.62
514.084	24563.34
514.286	24436.36
514.488	24721.03
514.69	25579.13
514.893	25572.99
515.095	25151.1
515.297	25927.28
515.499	25941.62
515.701	26195.57
515.904	26367.6
516.106	27059.81
516.308	26852.97
516.51	27352.67
516.712	26953.32
516.914	27463.26
517.116	27833.94
517.318	27700.83
517.52	28057.17
517.722	28122.71
517.925	28210.77
518.127	28956.23
518.329	29376.06
518.531	28958.28
518.733	29595.2
518.935	29707.83
519.136	29691.45
519.338	30316.08
519.54	30404.14
519.742	30613.04
519.944	30932.52
520.146	30998.06
520.348	31309.35
520.55	31231.52
520.752	31811.1
520.954	32239.12
521.155	31938.07
521.357	32237.08
521.559	32685.58
521.761	32964.1
521.963	33142.28
522.164	32951.82
522.366	33246.72
522.568	33527.3
522.77	33660.41
522.971	34278.9
523.173	33932.79
523.375	34360.82
523.576	34319.86
523.778	34412.02
523.98	34967.02
524.181	34770.41
524.383	34915.82
524.584	35073.51
524.786	35497.44
524.988	35110.38
525.189	35794.4
525.391	35894.75
525.592	35841.5
525.794	36437.46
525.995	36466.13
526.197	36150.74
526.398	36249.05
526.6	36738.51
526.801	36859.34
527.003	37039.56
527.204	36724.18
527.406	36908.49
527.607	37211.59
527.808	37258.7
528.01	37064.14
528.211	37332.42
528.412	37952.96
528.614	37926.33
528.815	38043.07
529.016	38454.71
529.218	37746.11
529.419	38057.4
529.62	38124.99
529.822	37969.34
530.023	38231.48
530.224	38014.4
530.425	38192.57
530.626	38006.2
530.828	37983.68
531.029	38882.73
531.23	38014.4
531.431	38391.22
531.632	38649.27
531.833	38866.35
532.035	38649.27
532.236	38487.48
532.437	38731.18
532.638	38651.31
532.839	38755.76
533.04	38919.6
533.241	38188.47
533.442	39042.48
533.643	38632.88
533.844	38997.42
534.045	39177.64
534.246	38532.53
534.447	38780.34
534.648	38792.62
534.849	38952.37
535.05	38577.59
535.251	38854.06
535.451	38860.21
535.652	38759.86
535.853	39093.68
536.054	38948.27
536.255	39329.19
536.456	38626.74
536.657	39267.75
536.857	38710.71
537.058	38993.32
537.259	39218.6
537.46	39054.76
537.66	38495.67
537.861	38974.89
538.062	38747.57
538.263	39220.65
538.463	38571.44
538.664	38886.83
538.865	38751.66
539.065	38968.75
539.266	38438.33
539.466	39271.85
539.667	38622.64
539.868	38784.43
540.068	38852.02
540.269	38634.93
540.469	38835.63
540.67	39077.29
540.87	38632.88
541.071	38809.01
541.271	38725.04
541.472	38892.97
541.672	38555.06
541.873	38243.77
542.073	37881.28
542.274	39284.14
542.474	38641.07
542.675	38393.27
542.875	39093.68
543.075	38743.47
543.276	38190.52
543.476	39124.39
543.676	38616.5
543.877	38444.47
544.077	38452.66
544.277	38632.88
544.478	38423.99
544.678	38507.96
544.878	38473.14
545.078	38876.59
545.279	38292.92
545.479	38497.72
545.679	38960.56
545.879	38694.32
546.079	38548.92
546.28	38280.63
546.48	38108.6
546.68	38591.92
546.88	38331.83
547.08	38677.94
547.28	38567.35
547.48	38364.6
547.68	38372.79
547.88	38266.3
548.081	38356.41
548.281	38204.86
548.481	38215.1
548.681	38839.73
548.881	38227.38
549.081	38073.79
549.28	38110.65
549.48	38469.04
549.68	38235.58
549.88	38786.48
550.08	38290.87
550.28	38264.25
550.48	38088.12
550.68	38749.62
550.88	37756.35
551.08	38225.34
551.279	38380.98
551.479	37952.96
551.679	38290.87
551.879	37985.72
552.079	38473.14
552.278	37952.96
552.478	38102.46
552.678	38051.26
552.878	38325.69
553.077	37899.71
553.277	37469.64
553.477	38438.33
553.676	38051.26
553.876	38081.98
554.076	38137.27
554.275	38196.67
554.475	37381.57
554.674	37748.16
554.874	37791.17
555.074	37518.79
555.273	37662.15
555.473	37850.56
555.672	37561.79
555.872	37643.71
556.071	37604.8
556.271	37879.23
556.47	37539.27
556.67	37178.82
556.869	37096.91
557.068	37572.03
557.268	37375.43
557.467	37420.49
557.667	37520.84
557.866	37561.79
558.065	37162.44
558.265	37154.25
558.464	36926.92
558.663	37027.28
558.863	36740.56
559.062	37354.95
559.261	36488.66
559.461	37184.97
559.66	36808.14
559.859	37080.52
560.058	36468.18
560.258	36883.92
560.457	36097.5
560.656	36859.34
560.855	36509.14
561.054	36879.82
561.253	36322.77
561.453	36330.97
561.652	36455.89
561.851	36613.59
562.05	36193.75
562.249	35739.1
562.448	36562.39
562.647	36193.75
562.846	35687.9
563.045	36097.5
563.244	35921.37
563.443	36335.06
563.642	35448.29
563.841	35892.7
564.04	35429.86
564.239	35864.03
564.438	35708.38
564.637	35648.99
564.836	35847.64
565.035	34876.91
565.234	35546.59
565.432	35214.82
565.631	35055.08
565.83	35577.31
566.029	35302.89
566.228	35075.56
566.427	34672.11
566.625	34776.56
566.824	34745.84
567.023	34997.74
567.222	34350.58
567.42	35028.46
567.619	34541.04
567.818	34575.86
568.016	34758.13
568.215	34639.34
568.414	34203.13
568.612	34713.07
568.811	34283
569.01	34442.74
569.208	33992.19
569.407	34203.13
569.605	33680.89
569.804	34299.38
570.002	33811.96
570.201	34008.57
570.4	33572.35
570.598	33588.74
570.797	33582.59
570.995	33490.43
571.193	33619.46
571.392	33633.79
571.59	33115.65
571.789	33369.6
571.987	33418.75
572.186	33164.81
572.384	33037.83
572.582	33279.49
572.781	32865.8
572.979	32615.95
573.177	33168.9
573.376	32812.56
573.574	32488.98
573.772	32908.81
573.971	32362
574.169	32478.74
574.367	32456.21
574.565	32357.91
574.763	32079.38
574.962	32306.71
575.16	31976.98
575.358	32067.09
575.556	31964.7
575.754	32005.66
575.952	31333.92
576.151	31809.05
576.349	31524.38
576.547	31729.18
576.745	31378.98
576.943	31792.67
577.141	31321.63
577.339	31505.95
577.537	31088.17
577.735	31276.58
577.933	30817.83
578.131	31022.63
578.329	31131.17
578.527	30479.92
578.725	30758.44
578.923	31006.25
579.121	30522.93
579.319	30680.62
579.516	30627.37
579.714	30721.58
579.912	30625.32
580.11	30539.31
580.308	30320.18
580.506	30234.16
580.704	29752.89
580.901	29806.14
581.099	30191.16
581.297	29783.61
581.495	29574.72
581.692	29953.59
581.89	29531.71
582.088	29693.5
582.285	29621.82
582.483	29587
582.681	29257.28
582.878	29443.65
583.076	28956.23
583.274	29376.06
583.471	29163.08
583.669	29130.31
583.866	29040.2
584.064	29040.2
584.262	28552.78
584.459	29027.91
584.657	28708.43
584.854	28831.3
585.052	28227.15
585.249	28708.43
585.447	28696.14
585.644	28089.94
585.841	28337.74
586.039	28417.61
586.236	27788.89
586.434	27983.44
586.631	28163.67
586.828	27823.7
587.026	27721.31
587.223	27715.16
587.42	27940.44
587.618	27754.07
587.815	27500.12
588.012	27514.46
588.21	27403.87
588.407	27524.7
588.604	27258.46
588.801	26998.37
588.999	26984.04
589.196	27029.09
589.393	27235.94
589.59	26877.54
589.787	26748.52
589.984	26705.51
590.182	26422.89
590.379	26668.65
590.576	26277.49
590.773	26326.64
590.97	26207.86
591.167	26373.74
591.364	26183.28
591.561	26361.45
591.758	26097.27
591.955	26125.94
592.152	26007.16
592.349	25652.86
592.546	25869.94
592.743	26046.07
592.94	25458.3
593.137	25677.43
593.334	25550.46
593.531	25214.59
593.727	25476.73
593.924	25054.85
594.121	25177.73
594.318	25210.5
594.515	25056.9
594.712	25091.71
594.908	24905.35
595.105	25087.62
595.302	24655.5
595.499	25063.04
595.696	24690.31
595.892	24753.8
596.089	24643.21
596.286	24645.26
596.482	24565.39
596.679	24551.05
596.876	24411.79
597.072	24256.14
597.269	24440.46
597.466	23981.71
597.662	24014.48
597.859	24118.93
598.055	23817.88
598.252	23789.2
598.448	23963.28
598.645	23619.22
598.841	23482.01
599.038	23727.77
599.234	23439
599.431	23455.39
599.627	23051.94
599.824	23525.02
600.02	23027.36
600.217	23144.09
600.413	23187.1
600.609	22814.37
600.806	22841
601.002	23074.46
601.198	22642.34
601.395	22709.93
601.591	22884
601.787	22357.67
601.984	22419.11
602.18	22711.97
602.376	22206.13
602.572	22449.83
602.769	22310.57
602.965	22199.98
603.161	22275.76
603.357	22027.95
603.553	22195.89
603.75	22005.42
603.946	21751.48
604.142	21866.16
604.338	21507.77
604.534	21638.84
604.73	21595.83
604.926	21511.86
605.122	21679.8
605.318	21470.9
605.514	21237.44
605.71	21335.74
605.906	21305.02
606.102	21120.7
606.298	21063.36
606.494	21022.4
606.69	20911.81
606.886	21096.13
607.082	20833.99
607.278	20940.48
607.474	20577.99
607.67	20809.41
607.866	20520.65
608.062	20911.81
608.257	20451.02
608.453	20405.96
608.649	20569.8
608.845	20565.7
609.041	20465.35
609.236	20586.18
609.432	20467.4
609.628	20330.19
609.824	20131.53
610.019	20287.18
610.215	20102.86
610.411	20293.32
610.606	20131.53
610.802	20287.18
610.998	20029.13
611.193	20139.72
611.389	20088.53
611.584	19791.57
611.78	19828.43
611.976	19756.75
612.171	19748.56
612.367	19957.46
612.562	19625.68
612.758	19615.44
612.953	19484.37
613.149	19787.47
613.344	19617.49
613.539	19910.35
613.735	19293.91
613.93	19586.77
614.126	19617.49
614.321	19545.81
614.517	19527.38
614.712	19447.51
614.907	19109.6
615.103	19519.19
615.298	19336.92
615.493	19310.3
615.688	19218.14
615.884	19437.27
616.079	18927.33
616.274	19140.32
616.47	18894.56
616.665	18980.57
616.86	19158.75
617.055	18798.31
617.25	18900.7
617.445	19080.92
617.641	18890.46
617.836	19164.89
618.031	18411.24
618.226	18544.36
618.421	18659.04
618.616	18747.11
618.811	18022.12
619.006	18601.7
619.201	18028.27
619.396	18325.22
619.591	17809.14
619.786	18202.35
619.981	17950.45
620.176	18122.48
620.371	17649.39
620.566	17643.25
620.761	17782.51
620.956	18009.84
621.151	17381.11
621.346	17342.2
621.541	17401.59
621.735	17577.72
621.93	17069.82
622.125	16989.95
622.32	16785.15
622.515	17198.84
622.709	16776.96
622.904	16965.37
623.099	16324.36
623.294	16936.7
623.488	16633.6
623.683	16611.07
623.878	16150.28
624.072	16430.85
624.267	16254.73
624.462	16260.87
624.656	16127.75
624.851	15982.35
625.046	15759.12
625.24	16197.38
625.435	15898.38
625.629	15642.39
625.824	15537.94
626.018	15724.3
626.213	15126.3
626.407	15494.93
626.602	15103.77
626.796	15286.04
626.991	15191.83
627.185	15003.42
627.38	15036.19
627.574	14868.25
627.768	14577.44
627.963	14886.68
628.157	14427.94
628.352	14491.43
628.546	14493.47
628.74	14579.49
628.935	14348.07
629.129	14292.77
629.323	14055.21
629.517	14227.24
629.712	13965.1
629.906	13975.34
630.1	13645.62
630.294	13930.28
630.489	13829.93
630.683	14034.73
630.877	13647.66
631.071	13578.03
631.265	13496.11
631.459	13614.9
631.653	13344.56
631.848	13352.76
632.042	13219.64
632.236	13180.73
632.43	12990.27
632.624	12969.79
632.818	13031.23
633.012	12640.06
633.206	12756.8
633.4	12787.52
633.594	12437.31
633.788	12707.65
633.982	12582.72
634.176	12429.12
634.369	12314.44
634.563	12267.33
634.757	12377.92
634.951	12031.82
635.145	12289.86
635.339	12347.2
635.533	11616.08
635.726	11923.27
635.92	11824.97
636.114	11757.39
636.308	11781.96
636.501	11755.34
636.695	11755.34
636.889	11786.06
637.083	11417.43
637.276	11493.2
637.47	11511.63
637.664	11560.78
637.857	11462.48
638.051	11499.34
638.244	11224.92
638.438	11163.48
638.632	10970.97
638.825	11110.23
639.019	10930.01
639.212	10962.78
639.406	10889.05
639.599	10637.15
639.793	10790.75
639.986	10749.79
640.18	10708.83
640.373	10764.12
640.567	10676.06
640.76	10506.08
640.954	10364.77
641.147	10311.52
641.34	10395.49
641.534	10395.49
641.727	10266.47
641.92	10280.8
642.114	10067.81
642.307	10090.34
642.5	10045.29
642.694	9914.22
642.887	9645.93
643.08	10033
643.273	9754.48
643.467	9752.43
643.66	9676.65
643.853	9582.45
644.046	9559.92
644.239	9541.49
644.432	9455.47
644.626	9387.89
644.819	9437.04
645.012	9224.05
645.205	9478
645.398	9344.88
645.591	9201.52
645.784	9123.7
645.977	9146.23
646.17	9074.55
646.363	8763.26
646.556	8886.14
646.749	8851.32
646.942	8923
647.135	8785.79
647.328	8773.5
647.521	8677.24
647.714	8671.1
647.907	8587.13
648.099	8730.49
648.292	8525.69
648.485	8488.83
648.678	8273.79
648.871	8478.59
649.064	8355.71
649.256	8392.58
649.449	8425.34
649.642	8251.27
649.835	8159.11
650.027	8243.07
650.22	8081.28
650.413	8206.21
650.605	8152.96
650.798	7866.25
650.991	7892.87
651.183	7876.49
651.376	7942.02
651.568	7901.06
651.761	7718.79
651.954	7706.51
652.146	7749.51
652.339	7542.67
652.531	7569.29
652.724	7606.16
652.916	7374.74
653.109	7489.42
653.301	7405.45
653.494	7608.2
653.686	7405.45
653.879	7319.44
654.071	7448.46
654.263	7247.76
654.456	7245.71
654.648	7290.77
654.84	7067.54
655.033	7149.46
655.225	7057.3
655.417	7045.01
655.61	7059.35
655.802	7163.79
655.994	6948.76
656.186	6893.46
656.379	6848.41
656.571	6877.08
656.763	6805.4
656.955	6766.49
657.148	6911.89
657.34	6625.18
657.532	6698.91
657.724	6756.25
657.916	6619.03
658.108	6614.94
658.3	6666.14
658.492	6588.32
658.684	6436.77
658.876	6592.41
659.068	6432.67
659.26	6336.42
659.452	6385.57
659.644	6385.57
659.836	6215.59
660.028	6246.3
660.22	6066.08
660.412	6258.59
660.604	6238.11
660.796	6225.82
660.988	6047.65
661.18	6035.36
661.372	5978.02
661.563	5994.4
661.755	5842.85
661.947	6082.47
662.139	5984.16
662.331	5887.91
662.522	5822.38
662.714	5799.85
662.906	5638.06
663.097	5719.98
663.289	5769.13
663.481	5824.42
663.673	5773.22
663.864	5468.08
664.056	5552.04
664.247	5621.67
664.439	5580.71
664.631	5619.63
664.822	5568.43
665.014	5439.4
665.205	5597.1
665.397	5416.88
665.588	5386.16
665.78	5273.52
665.971	5363.63
666.163	5388.21
666.354	5283.76
666.546	5156.79
666.737	5355.44
666.929	5189.55
667.12	5296.05
667.311	5136.31
667.503	5085.11
667.694	5265.33
667.885	5111.73
668.077	5099.44
668.268	5083.06
668.459	5115.83
668.651	4949.94
668.842	5068.72
669.033	4954.04
669.224	4951.99
669.416	5050.29
669.607	5017.52
669.798	4845.49
669.989	5058.48
670.18	4820.92
670.371	4796.34
670.563	4968.37
670.754	4868.02
670.945	4739
671.136	4739
671.327	4663.22
671.518	4800.44
671.709	4546.49
671.9	4704.18
672.091	4753.34
672.282	4550.59
672.473	4732.86
672.664	4724.66
672.855	4427.71
673.046	4466.62
673.237	4558.78
673.428	4411.32
673.619	4466.62
673.809	4468.67
674	4566.97
674.191	4489.15
674.382	4347.84
674.573	4515.77
674.764	4401.08
674.954	4470.72
675.145	4335.55
675.336	4239.3
675.527	4288.45
675.717	4349.89
675.908	4245.44
676.099	4278.21
676.289	4245.44
676.48	4300.73
676.671	4122.56
676.861	4243.39
677.052	4186.05
677.243	4216.77
677.433	4227.01
677.624	4272.06
677.814	4097.99
678.005	4184
678.195	4124.61
678.386	3999.68
678.576	4169.66
678.767	4171.71
678.957	3936.2
679.148	4134.85
679.338	3962.82
679.529	4097.99
679.719	3964.87
679.909	4069.31
680.1	3964.87
680.29	4042.69
680.481	3903.43
680.671	4016.07
680.861	3811.27
681.052	3876.8
681.242	3928
681.432	3979.2
681.622	3850.18
681.813	3950.53
682.003	3819.46
682.193	3866.56
682.383	3966.92
682.573	3790.79
682.764	3858.37
682.954	3860.42
683.144	3899.33
683.334	3727.3
683.524	3786.69
683.714	3803.08
683.904	3893.19
684.094	3891.14
684.284	3780.55
684.474	3815.37
684.664	3747.78
684.854	3885
685.044	3643.34
685.234	3622.86
685.424	3768.26
685.614	3749.83
685.804	3669.96
685.994	3610.57
686.184	3731.4
686.374	3667.91
686.564	3547.08
686.753	3665.86
686.943	3637.19
687.133	3454.92
687.323	3643.34
687.513	3502.03
687.702	3571.66
687.892	3588.04
688.082	3510.22
688.272	3489.74
688.461	3475.4
688.651	3487.69
688.841	3446.73
689.03	3413.96
689.22	3393.48
689.41	3567.56
689.599	3434.44
689.789	3315.66
689.979	3299.28
690.168	3323.85
690.358	3225.55
690.547	3205.07
690.737	3332.05
690.926	3362.76
691.116	3200.98
691.305	3237.84
691.495	3276.75
691.684	3182.54
691.874	3194.83
692.063	3135.44
692.252	3135.44
692.442	3139.54
692.631	3200.98
692.82	3133.39
693.01	3047.38
693.199	3100.62
693.388	3059.67
693.578	3074
693.767	3080.15
693.956	3026.9
694.146	3143.63
694.335	2914.26
694.524	2879.44
694.713	2977.75
694.902	3012.56
695.092	2875.35
695.281	2879.44
695.47	2922.45
695.659	2875.35
695.848	2891.73
696.037	2717.65
696.226	2996.18
696.415	2901.97
696.604	2883.54
696.793	2764.76
696.982	2936.79
697.171	2801.62
697.36	2758.61
697.549	2807.77
697.738	2670.55
697.927	2721.75
698.116	2824.15
698.305	2641.88
698.494	2697.17
698.683	2697.17
698.872	2742.23
699.061	2736.09
699.25	2707.41
699.438	2709.46
699.627	2750.42
699.816	2787.29
700.005	2725.85
700.193	2738.13
700.382	2641.88
700.571	2678.74
700.76	2623.45
700.948	2664.41
701.137	2752.47
701.326	2635.74
701.514	2654.17
701.703	2631.64
701.892	2553.82
702.08	2631.64
702.269	2533.34
702.457	2600.92
702.646	2494.43
702.834	2590.68
703.023	2682.84
703.212	2521.05
703.4	2582.49
703.589	2514.91
703.777	2572.25
703.965	2551.77
704.154	2545.63
704.342	2502.62
704.531	2516.95
704.719	2514.91
704.907	2533.34
705.096	2465.75
705.284	2529.24
705.472	2578.39
705.661	2539.48
705.849	2635.74
706.037	2586.58
706.226	2574.3
706.414	2455.51
706.602	2510.81
706.79	2424.8
706.979	2502.62
707.167	2590.68
707.355	2480.09
707.543	2531.29
707.731	2547.67
707.919	2574.3
708.107	2451.42
708.296	2443.23
708.484	2486.23
708.672	2426.84
708.86	2498.52
709.048	2488.28
709.236	2508.76
709.424	2514.91
709.612	2455.51
709.8	2351.07
709.988	2396.12
710.176	2387.93
710.364	2365.4
710.551	2387.93
710.739	2324.44
710.927	2416.6
711.115	2453.47
711.303	2480.09
711.491	2568.15
711.679	2488.28
711.866	2334.68
712.054	2379.74
712.242	2359.26
712.43	2596.82
712.617	2551.77
712.805	2346.97
712.993	2422.75
713.181	2406.36
713.368	2312.16
713.556	2549.72
713.744	2408.41
713.931	2443.23
714.119	2351.07
714.306	2406.36
714.494	2437.08
714.682	2322.4
714.869	2291.68
715.057	2306.01
715.244	2418.65
715.432	2361.31
715.619	2299.87
715.807	2320.35
715.994	2402.27
716.182	2346.97
716.369	2355.16
716.556	2392.03
716.744	2244.57
716.931	2363.36
717.119	2457.56
717.306	2355.16
717.493	2381.79
717.681	2449.37
717.868	2359.26
718.055	2250.72
718.242	2439.13
718.43	2310.11
718.617	2287.58
718.804	2389.98
718.991	2230.24
719.179	2357.21
719.366	2328.54
719.553	2252.77
719.74	2402.27
719.927	2336.73
720.114	2381.79
720.301	2439.13
720.488	2265.05
720.676	2332.64
720.863	2260.96
721.05	2484.19
721.237	2430.94
721.424	2324.44
721.611	2404.32
721.798	2332.64
721.985	2310.11
722.172	2357.21
722.358	2340.83
722.545	2396.12
722.732	2220
722.919	2396.12
723.106	2254.81
723.293	2342.88
723.48	2375.64
723.667	2320.35
723.853	2392.03
724.04	2373.6
724.227	2361.31
724.414	2363.36
724.6	2330.59
724.787	2357.21
724.974	2430.94
725.161	2299.87
725.347	2324.44
725.534	2320.35
725.72	2379.74
725.907	2355.16
726.094	2435.03
726.28	2377.69
726.467	2344.92
726.653	2326.49
726.84	2242.53
727.027	2447.32
727.213	2310.11
727.4	2500.57
727.586	2346.97
727.773	2322.4
727.959	2361.31
728.145	2451.42
728.332	2453.47
728.518	2449.37
728.705	2447.32
728.891	2289.63
729.077	2299.87
729.264	2373.6
729.45	2351.07
729.636	2437.08
729.823	2355.16
730.009	2435.03
730.195	2387.93
730.382	2443.23
730.568	2406.36
730.754	2447.32
730.94	2357.21
731.126	2369.5
731.313	2318.3
731.499	2375.64
731.685	2318.3
731.871	2334.68
732.057	2422.75
732.243	2404.32
732.429	2353.12
732.615	2351.07
732.801	2510.81
732.987	2263.01
733.173	2396.12
733.359	2406.36
733.545	2322.4
733.731	2330.59
733.917	2426.84
734.103	2498.52
734.289	2432.99
734.475	2400.22
734.661	2422.75
734.847	2361.31
735.033	2424.8
735.219	2439.13
735.404	2389.98
735.59	2441.18
735.776	2443.23
735.962	2506.71
736.148	2445.27
736.333	2373.6
736.519	2488.28
736.705	2475.99
736.89	2334.68
737.076	2398.17
737.262	2496.47
737.447	2295.77
737.633	2299.87
737.819	2432.99
738.004	2316.25
738.19	2369.5
738.375	2351.07
738.561	2404.32
738.747	2410.46
738.932	2324.44
739.118	2406.36
739.303	2363.36
739.489	2357.21
739.674	2371.55
739.859	2359.26
740.045	2281.44
740.23	2373.6
740.416	2293.72
740.601	2383.84
740.786	2314.2
740.972	2324.44
741.157	2392.03
741.342	2205.66
741.528	2379.74
741.713	2277.34
741.898	2244.57
742.084	2263.01
742.269	2363.36
742.454	2441.18
742.639	2312.16
742.824	2240.48
743.01	2185.18
743.195	2207.71
743.38	2258.91
743.565	2211.81
743.75	2213.85
743.935	2201.57
744.12	2209.76
744.305	2176.99
744.49	2215.9
744.675	2232.29
744.86	2115.55
745.045	2230.24
745.23	2156.51
745.415	2205.66
745.6	2226.14
745.785	2172.89
745.97	2144.22
746.155	2133.98
746.34	2191.33
746.525	2144.22
746.71	2256.86
746.895	2174.94
747.079	1972.19
747.264	2078.69
747.449	2162.65
747.634	2090.98
747.819	2064.35
748.003	2060.26
748.188	1988.58
748.373	1998.82
748.557	2015.2
748.742	1996.77
748.927	1982.43
749.111	2060.26
749.296	1894.37
749.481	1947.62
749.665	1996.77
749.85	2009.06
750.034	1902.56
750.219	1849.32
750.404	1851.36
750.588	1900.51
750.773	1873.89
750.957	1830.88
751.141	1787.88
751.326	1968.1
751.51	1763.3
751.695	1785.83
751.879	1847.27
752.064	1839.08
752.248	1849.32
752.432	1677.29
752.617	1718.25
752.801	1771.49
752.985	1728.49
753.17	1757.16
753.354	1662.95
753.538	1763.3
753.722	1744.87
753.907	1722.34
754.091	1677.29
754.275	1611.75
754.459	1710.05
754.643	1599.46
754.828	1595.37
755.012	1669.09
755.196	1605.61
755.38	1597.42
755.564	1597.42
755.748	1595.37
755.932	1533.93
756.116	1527.78
756.3	1437.67
756.484	1583.08
756.668	1478.63
756.852	1527.78
757.036	1507.31
757.22	1433.58
757.404	1423.34
757.588	1525.74
757.772	1456.11
757.956	1409
758.14	1503.21
758.323	1368.04
758.507	1447.91
758.691	1325.04
758.875	1335.28
759.059	1277.93
759.242	1314.8
759.426	1376.23
759.61	1335.28
759.794	1361.9
759.977	1343.47
760.161	1361.9
760.345	1329.13
760.528	1292.27
760.712	1331.18
760.895	1411.05
761.079	1349.61
761.263	1255.4
761.446	1286.12
761.63	1343.47
761.813	1300.46
761.997	1267.69
762.18	1177.58
762.364	1333.23
762.547	1306.6
762.731	1183.73
762.914	1322.99
763.098	1228.78
763.281	1218.54
763.464	1216.49
763.648	1222.64
763.831	1200.11
764.015	1210.35
764.198	1157.1
764.381	1228.78
764.564	1234.93
764.748	1157.1
764.931	1093.62
765.114	1230.83
765.297	1099.76
765.481	1181.68
765.664	1110
765.847	1099.76
766.03	1161.2
766.213	1214.45
766.397	1183.73
766.58	1052.66
766.763	1085.42
766.946	1134.57
767.129	1050.61
767.312	1069.04
767.495	1138.67
767.678	1099.76
767.861	1173.49
768.044	1124.33
768.227	1023.98
768.41	1054.7
768.593	1112.05
768.776	1038.32
768.959	1038.32
769.142	1095.66
769.324	991.22
769.507	1081.33
769.69	1085.42
769.873	1001.46
770.056	1112.05
770.239	1093.62
770.421	1110
770.604	970.74
770.787	1028.08
770.97	1044.46
771.152	1005.55
771.335	991.22
771.518	978.93
771.7	1021.94
771.883	952.31
772.066	1124.33
772.248	937.97
772.431	1052.66
772.613	976.88
772.796	962.55
772.978	944.11
773.161	960.5
773.343	964.59
773.526	948.21
773.708	854
773.891	854
774.073	903.15
774.256	1005.55
774.438	995.31
774.621	862.19
774.803	915.44
774.985	901.11
775.168	886.77
775.35	862.19
775.532	831.48
775.715	886.77
775.897	913.39
776.079	935.92
776.261	882.67
776.444	815.09
776.626	815.09
776.808	870.39
776.99	772.08
777.173	837.62
777.355	776.18
777.537	829.43
777.719	782.32
777.901	772.08
778.083	790.52
778.265	706.55
778.447	720.88
778.629	747.51
778.811	716.79
778.993	770.04
779.175	780.28
779.357	747.51
779.539	755.7
779.721	741.36
779.903	669.69
780.085	671.73
780.267	743.41
780.449	681.97
780.631	714.74
780.812	704.5
780.994	739.32
781.176	661.49
781.358	663.54
781.54	636.92
781.721	593.91
781.903	667.64
782.085	645.11
782.267	638.97
782.448	616.44
782.63	620.53
782.812	614.39
782.993	583.67
783.175	649.21
783.357	634.87
783.538	696.31
783.72	538.62
783.901	608.25
784.083	579.58
784.264	573.43
784.446	532.47
784.627	638.97
784.809	524.28
784.99	536.57
785.172	518.14
785.353	641.01
785.535	638.97
785.716	634.87
785.897	522.23
786.079	507.9
786.26	454.65
786.441	559.1
786.623	503.8
786.804	524.28
786.985	573.43
787.167	636.92
787.348	505.85
787.529	417.79
787.71	495.61
787.891	436.22
788.073	376.83
788.254	466.94
788.435	481.27
788.616	438.27
788.797	497.66
788.978	434.17
789.159	423.93
789.34	405.5
789.522	405.5
789.703	460.79
789.884	382.97
790.065	419.83
790.246	446.46
790.427	428.03
790.607	432.12
790.788	391.16
790.969	378.87
791.15	331.77
791.331	448.51
791.512	485.37
791.693	378.87
791.874	358.39
792.054	438.27
792.235	399.35
792.416	407.55
792.597	397.31
792.778	417.79
792.958	362.49
793.139	399.35
793.32	335.87
793.5	391.16
793.681	464.89
793.862	313.34
794.042	370.68
794.223	370.68
794.404	360.44
794.584	397.31
794.765	342.01
794.945	350.2
795.126	432.12
795.306	352.25
795.487	305.15
795.667	309.24
795.848	329.72
796.028	305.15
796.209	413.69
796.389	317.44
796.57	292.86
796.75	337.91
796.93	405.5
797.111	305.15
797.291	368.63
797.471	301.05
797.652	411.64
797.832	288.76
798.012	288.76
798.192	313.34
798.373	319.48
798.553	317.44
798.733	362.49
798.913	319.48
799.093	342.01
799.274	360.44
799.454	335.87
799.634	325.63
799.814	333.82
799.994	264.19
800.174	301.05
800.354	305.15
800.534	284.67
800.714	296.96
800.894	313.34
801.074	342.01
801.254	219.13
801.434	317.44
801.614	321.53
801.794	299
801.974	598.01
802.154	260.09
802.334	292.86
802.514	280.57
802.693	278.52
802.873	282.62
803.053	315.39
803.233	227.32
803.413	309.24
803.592	284.67
803.772	233.47
803.952	270.33
804.131	241.66
804.311	237.56
804.491	251.9
804.67	223.23
804.85	153.6
805.03	256
805.209	290.81
805.389	200.7
805.568	266.24
805.748	227.32
805.928	266.24
806.107	249.85
806.287	212.99
806.466	266.24
806.646	219.13
806.825	198.65
807.004	280.57
807.184	245.76
807.363	296.96
807.543	260.09
807.722	249.85
807.901	333.82
808.081	249.85
808.26	272.38
808.439	227.32
808.619	253.95
808.798	151.55
808.977	237.56
809.156	190.46
809.336	204.8
809.515	282.62
809.694	184.32
809.873	167.93
810.052	227.32
810.231	278.52
810.411	176.13
810.59	237.56
810.769	200.7
810.948	180.22
811.127	188.41
811.306	204.8
811.485	284.67
811.664	204.8
811.843	227.32
812.022	202.75
812.201	280.57
812.38	137.21
812.559	223.23
812.737	223.23
812.916	188.41
813.095	184.32
813.274	151.55
813.453	206.84
813.632	221.18
813.811	251.9
813.989	202.75
814.168	143.36
814.347	182.27
814.526	188.41
814.704	221.18
814.883	202.75
815.062	206.84
815.24	176.13
815.419	118.78
815.598	178.17
815.776	120.83
815.955	174.08
816.133	153.6
816.312	303.1
816.49	167.93
816.669	180.22
816.847	81.92
817.026	165.89
817.204	153.6
817.383	118.78
817.561	143.36
817.74	139.26
817.918	157.69
818.097	102.4
818.275	86.01
818.453	108.54
818.632	133.12
818.81	186.37
818.988	196.61
819.167	174.08
819.345	108.54
819.523	161.79
819.701	186.37
819.879	114.69
820.058	106.49
820.236	131.07
820.414	120.83
820.592	112.64
820.77	169.98
820.948	143.36
821.127	163.84
821.305	96.25
821.483	114.69
821.661	157.69
821.839	208.89
822.017	100.35
822.195	118.78
822.373	153.6
822.551	178.17
822.729	149.5
822.907	202.75
823.085	161.79
823.262	153.6
823.44	104.45
823.618	139.26
823.796	145.41
823.974	151.55
824.152	139.26
824.329	86.01
824.507	94.21
824.685	36.86
824.863	114.69
825.04	141.31
825.218	100.35
825.396	137.21
825.574	126.97
825.751	176.13
825.929	126.97
826.107	96.25
826.284	-2.05
826.462	161.79
826.639	94.21
826.817	110.59
826.994	161.79
827.172	53.25
827.349	122.88
827.527	69.63
827.704	116.73
827.882	133.12
828.059	57.34
828.237	135.17
828.414	184.32
828.591	88.06
828.769	141.31
828.946	137.21
829.124	108.54
829.301	122.88
829.478	104.45
829.655	96.25
829.833	108.54
830.01	147.45
830.187	77.82
830.364	114.69
830.542	159.74
830.719	143.36
830.896	63.49
831.073	122.88
831.25	116.73
831.427	133.12
831.604	86.01
831.782	163.84
831.959	153.6
832.136	108.54
832.313	153.6
832.49	71.68
832.667	104.45
832.844	102.4
833.021	198.65
833.198	135.17
833.374	98.3
833.551	67.58
833.728	55.3
833.905	73.73
834.082	86.01
834.259	88.06
834.436	90.11
834.612	102.4
834.789	94.21
834.966	34.82
835.143	45.06
835.319	96.25
835.496	112.64
835.673	65.53
835.85	114.69
836.026	120.83
836.203	92.16
836.38	47.1
836.556	71.68
836.733	133.12
836.909	102.4
837.086	43.01
837.262	81.92
837.439	47.1
837.616	34.82
837.792	75.77
837.968	71.68
838.145	28.67
838.321	108.54
838.498	73.73
838.674	2.05
838.851	124.93
839.027	55.3
839.203	86.01
839.38	92.16
839.556	26.62
839.732	69.63
839.909	96.25
840.085	40.96
840.261	53.25
840.437	145.41
840.614	10.24
840.79	38.91
840.966	2.05
841.142	51.2
841.318	81.92
841.494	51.2
841.671	49.15
841.847	-24.58
842.023	40.96
842.199	98.3
842.375	51.2
842.551	47.1
842.727	43.01
842.903	43.01
843.079	32.77
843.255	96.25
843.431	20.48
843.607	-14.34
843.783	43.01
843.959	83.97
844.134	79.87
844.31	59.39
844.486	55.3
844.662	90.11
844.838	47.1
845.013	106.49
845.189	81.92
845.365	36.86
845.541	73.73
845.716	-2.05
845.892	57.34
846.068	124.93
846.244	53.25
846.419	24.58
846.595	65.53
846.77	112.64
846.946	38.91
847.122	118.78
847.297	51.2
847.473	59.39
847.648	-2.05
847.824	96.25
847.999	61.44
848.175	55.3
848.35	71.68
848.526	61.44
848.701	83.97
848.876	18.43
849.052	-30.72
849.227	30.72
849.403	8.19
849.578	49.15
849.753	69.63
849.929	32.77
850.104	71.68
850.279	38.91
850.454	34.82
850.63	14.34
850.805	59.39
850.98	108.54
851.155	83.97
851.33	59.39
851.505	61.44
851.681	38.91
851.856	65.53
852.031	63.49
852.206	12.29
852.381	77.82
852.556	55.3
852.731	102.4
852.906	174.08
853.081	32.77
853.256	118.78
853.431	18.43
853.606	-24.58
853.781	79.87
853.956	24.58
854.131	53.25
854.305	-63.49
854.48	6.14
854.655	0
854.83	2.05
855.005	18.43
855.18	61.44
855.354	63.49
855.529	69.63
855.704	100.35
855.879	55.3
856.053	-2.05
856.228	59.39
856.403	61.44
856.577	22.53
856.752	18.43
856.926	10.24
857.101	47.1
857.276	22.53
857.45	47.1
857.625	59.39
857.799	55.3
857.974	69.63
858.148	77.82
858.323	96.25
858.497	88.06
858.672	71.68
858.846	38.91
859.02	16.38
859.195	24.58
859.369	122.88
859.543	47.1
859.718	69.63
859.892	49.15
860.066	-36.86
860.241	26.62
860.415	4.1
860.589	-2.05
860.763	38.91
860.938	102.4
861.112	59.39
861.286	-43.01
861.46	102.4
861.634	22.53
861.808	65.53
861.982	-22.53
862.157	65.53
862.331	2.05
862.505	18.43
862.679	38.91
862.853	-34.82
863.027	-43.01
863.201	-2.05
863.375	-18.43
863.549	73.73
863.722	106.49
863.896	59.39
864.07	45.06
864.244	51.2
864.418	63.49
864.592	-10.24
864.766	47.1
864.939	28.67
865.113	45.06
865.287	75.77
865.461	-26.62
865.634	18.43
865.808	61.44
865.982	4.1
866.156	22.53
866.329	53.25
866.503	10.24
866.676	47.1
866.85	26.62
867.024	0
867.197	36.86
867.371	63.49
867.544	96.25
867.718	-4.1
867.891	-10.24
868.065	26.62
868.238	49.15
868.412	96.25
868.585	-12.29
868.759	22.53
868.932	32.77
869.105	45.06
869.279	-24.58
869.452	12.29
869.625	-12.29
869.799	55.3
869.972	-34.82
870.145	43.01
870.319	24.58
870.492	2.05
870.665	14.34
870.838	10.24
871.011	-51.2
871.185	26.62
871.358	16.38
871.531	12.29
871.704	59.39
871.877	94.21
872.05	12.29
872.223	6.14
872.396	77.82
872.569	75.77
872.742	16.38
872.915	43.01
873.088	83.97
873.261	-4.1
873.434	38.91
873.607	63.49
873.78	4.1
873.953	-36.86
874.126	38.91
874.299	71.68
874.471	-38.91
874.644	-12.29
874.817	86.01
874.99	-10.24
875.163	30.72
875.335	2.05
875.508	24.58
875.681	51.2
875.853	14.34
876.026	26.62
876.199	-2.05
876.371	34.82
876.544	-16.38
876.717	69.63
876.889	26.62
877.062	-2.05
877.234	32.77
877.407	10.24
877.579	-14.34
877.752	-34.82
877.924	67.58
878.097	51.2
878.269	26.62
878.442	-12.29
878.614	-28.67
878.786	-83.97
878.959	-16.38
879.131	-26.62
879.303	6.14
879.476	-30.72
879.648	51.2
879.82	59.39
879.993	-45.06
880.165	34.82
880.337	18.43
880.509	2.05
880.681	-36.86
880.854	92.16
881.026	10.24
881.198	10.24
881.37	14.34
881.542	47.1
881.714	-24.58
881.886	16.38
882.058	2.05
882.23	32.77
882.402	-6.14
882.574	55.3
882.746	92.16
882.918	2.05
883.09	-55.3
883.262	-59.39
883.434	-32.77
883.606	12.29
883.778	69.63
883.95	63.49
884.122	26.62
884.293	6.14
884.465	38.91
884.637	45.06
884.809	26.62
884.98	51.2
885.152	139.26
885.324	24.58
885.496	59.39
885.667	22.53
885.839	-26.62
886.011	2.05
886.182	-36.86
886.354	69.63
886.525	88.06
886.697	47.1
886.869	-51.2
887.04	22.53
887.212	51.2
887.383	90.11
887.555	14.34
887.726	-26.62
887.897	65.53
888.069	34.82
888.24	26.62
888.412	14.34
888.583	-10.24
888.754	92.16
888.926	40.96
889.097	59.39
889.268	32.77
889.44	51.2
889.611	24.58
889.782	16.38
889.953	26.62
890.125	38.91
890.296	-26.62
890.467	12.29
890.638	59.39
890.809	-53.25
890.98	-67.58
891.151	2.05
891.323	-43.01
891.494	14.34
891.665	-10.24
891.836	-16.38
892.007	-20.48
892.178	20.48
892.349	18.43
892.52	49.15
892.691	59.39
892.862	18.43
893.032	-34.82
893.203	8.19
893.374	24.58
893.545	10.24
893.716	18.43
893.887	51.2
894.057	-57.34
894.228	100.35
894.399	-30.72
894.57	88.06
894.74	71.68
894.911	6.14
895.082	106.49
895.253	18.43
895.423	-55.3
895.594	51.2
895.764	14.34
895.935	-6.14
896.106	36.86
896.276	79.87
896.447	59.39
896.617	-36.86
896.788	-53.25
896.958	10.24
897.129	24.58
897.299	32.77
897.47	-6.14
897.64	30.72
897.81	-10.24
897.981	77.82
898.151	-61.44
898.322	34.82
898.492	57.34
898.662	18.43
898.832	-4.1
899.003	98.3
899.173	47.1
899.343	-20.48
899.513	24.58
