Data from USB4F104151__140__11-07-58-936.txt Node

Date: Wed Mar 12 11:07:58 EDT 2025
User: louis
Spectrometer: USB4F10415
Trigger mode: 4
Integration Time (sec): 2.000000E-2
Scans to average: 1
Electric dark correction enabled: true
Nonlinearity correction enabled: false
Boxcar width: 0
XAxis mode: Wavelengths
Number of Pixels in Spectrum: 3648
>>>>>Begin Spectral Data<<<<<
178.204	-17.92
178.424	-17.92
178.644	-17.92
178.864	-114.17
179.084	-69.12
179.304	47.62
179.524	12.8
179.744	-40.45
179.964	51.71
180.184	10.75
180.404	-19.97
180.624	-3.58
180.844	43.52
181.064	-73.21
181.283	-13.82
181.503	-54.78
181.723	39.42
181.943	-28.16
182.163	18.94
182.383	-5.63
182.602	14.85
182.822	2.56
183.042	57.86
183.262	82.43
183.482	18.94
183.701	-11.78
183.921	31.23
184.141	-42.5
184.361	35.33
184.58	55.81
184.8	18.94
185.02	2.56
185.239	2.56
185.459	59.9
185.679	51.71
185.898	-32.26
186.118	23.04
186.338	-42.5
186.557	49.66
186.777	-5.63
186.997	-30.21
187.216	72.19
187.436	59.9
187.655	-1.54
187.875	10.75
188.095	39.42
188.314	12.8
188.534	10.75
188.753	18.94
188.973	8.7
189.192	37.38
189.412	39.42
189.631	29.18
189.851	39.42
190.07	23.04
190.29	39.42
190.509	-48.64
190.729	-19.97
190.948	-1.54
191.168	51.71
191.387	25.09
191.607	8.7
191.826	20.99
192.045	14.85
192.265	-1.54
192.484	61.95
192.704	-9.73
192.923	41.47
193.142	96.77
193.362	78.33
193.581	-9.73
193.8	72.19
194.02	55.81
194.239	10.75
194.458	37.38
194.678	6.66
194.897	37.38
195.116	-89.6
195.335	10.75
195.555	-3.58
195.774	-24.06
195.993	-26.11
196.212	14.85
196.432	20.99
196.651	55.81
196.87	-3.58
197.089	37.38
197.308	84.48
197.528	-13.82
197.747	-1.54
197.966	23.04
198.185	27.14
198.404	27.14
198.623	64
198.842	-7.68
199.062	66.05
199.281	68.09
199.5	39.42
199.719	25.09
199.938	45.57
200.157	0.51
200.376	27.14
200.595	29.18
200.814	-38.4
201.033	23.04
201.252	-48.64
201.471	18.94
201.69	4.61
201.909	29.18
202.128	10.75
202.347	18.94
202.566	33.28
202.785	31.23
203.004	-30.21
203.223	66.05
203.442	41.47
203.661	-3.58
203.879	14.85
204.098	-11.78
204.317	18.94
204.536	-40.45
204.755	18.94
204.974	8.7
205.193	0.51
205.411	10.75
205.63	-26.11
205.849	6.66
206.068	68.09
206.287	-34.3
206.505	111.1
206.724	-26.11
206.943	-3.58
207.162	-7.68
207.381	49.66
207.599	33.28
207.818	-65.02
208.037	59.9
208.255	68.09
208.474	23.04
208.693	-30.21
208.911	53.76
209.13	-19.97
209.349	76.29
209.567	57.86
209.786	64
210.005	41.47
210.223	41.47
210.442	-56.83
210.661	72.19
210.879	-11.78
211.098	49.66
211.316	2.56
211.535	80.38
211.753	-7.68
211.972	45.57
212.191	18.94
212.409	137.73
212.628	-30.21
212.846	-3.58
213.065	41.47
213.283	109.05
213.502	37.38
213.72	27.14
213.938	-48.64
214.157	12.8
214.375	94.72
214.594	-38.4
214.812	41.47
215.031	12.8
215.249	-54.78
215.467	2.56
215.686	20.99
215.904	39.42
216.122	-13.82
216.341	-5.63
216.559	53.76
216.778	82.43
216.996	-9.73
217.214	-52.74
217.432	61.95
217.651	-1.54
217.869	59.9
218.087	45.57
218.306	-17.92
218.524	33.28
218.742	-22.02
218.96	2.56
219.179	45.57
219.397	80.38
219.615	84.48
219.833	61.95
220.051	10.75
220.27	29.18
220.488	2.56
220.706	45.57
220.924	-9.73
221.142	72.19
221.36	-73.21
221.578	4.61
221.796	27.14
222.015	-1.54
222.233	16.9
222.451	39.42
222.669	-54.78
222.887	84.48
223.105	25.09
223.323	-13.82
223.541	0.51
223.759	43.52
223.977	-44.54
224.195	45.57
224.413	35.33
224.631	-5.63
224.849	39.42
225.067	45.57
225.285	-62.98
225.503	31.23
225.721	-46.59
225.939	72.19
226.157	-9.73
226.375	61.95
226.592	4.61
226.81	-28.16
227.028	45.57
227.246	59.9
227.464	0.51
227.682	-3.58
227.9	51.71
228.117	29.18
228.335	25.09
228.553	84.48
228.771	-17.92
228.989	94.72
229.206	59.9
229.424	35.33
229.642	2.56
229.86	23.04
230.077	10.75
230.295	70.14
230.513	14.85
230.731	12.8
230.948	80.38
231.166	12.8
231.384	45.57
231.601	25.09
231.819	39.42
232.037	-7.68
232.254	-28.16
232.472	6.66
232.689	49.66
232.907	18.94
233.125	31.23
233.342	72.19
233.56	12.8
233.777	39.42
233.995	14.85
234.213	31.23
234.43	43.52
234.648	14.85
234.865	35.33
235.083	45.57
235.3	-17.92
235.518	53.76
235.735	12.8
235.953	78.33
236.17	74.24
236.388	88.57
236.605	-11.78
236.822	-11.78
237.04	72.19
237.257	18.94
237.475	-11.78
237.692	16.9
237.909	45.57
238.127	16.9
238.344	72.19
238.562	111.1
238.779	-15.87
238.996	16.9
239.214	16.9
239.431	51.71
239.648	31.23
239.865	47.62
240.083	-38.4
240.3	49.66
240.517	4.61
240.735	72.19
240.952	37.38
241.169	27.14
241.386	-17.92
241.603	47.62
241.821	-9.73
242.038	-22.02
242.255	111.1
242.472	31.23
242.689	88.57
242.907	74.24
243.124	64
243.341	29.18
243.558	-1.54
243.775	39.42
243.992	49.66
244.209	-28.16
244.426	27.14
244.643	68.09
244.86	94.72
245.078	29.18
245.295	64
245.512	80.38
245.729	-3.58
245.946	-60.93
246.163	23.04
246.38	0.51
246.597	-77.31
246.814	-9.73
247.031	23.04
247.248	64
247.464	39.42
247.681	35.33
247.898	18.94
248.115	55.81
248.332	-50.69
248.549	8.7
248.766	14.85
248.983	72.19
249.2	47.62
249.417	74.24
249.633	47.62
249.85	68.09
250.067	-28.16
250.284	-9.73
250.501	2.56
250.717	51.71
250.934	23.04
251.151	45.57
251.368	82.43
251.585	70.14
251.801	51.71
252.018	-1.54
252.235	-38.4
252.451	-15.87
252.668	-15.87
252.885	-28.16
253.102	16.9
253.318	-26.11
253.535	43.52
253.752	39.42
253.968	55.81
254.185	-22.02
254.401	12.8
254.618	37.38
254.835	47.62
255.051	-30.21
255.268	84.48
255.484	33.28
255.701	57.86
255.917	96.77
256.134	23.04
256.351	-11.78
256.567	66.05
256.784	61.95
257	6.66
257.217	0.51
257.433	-13.82
257.65	20.99
257.866	35.33
258.082	61.95
258.299	37.38
258.515	86.53
258.732	-22.02
258.948	4.61
259.165	-42.5
259.381	45.57
259.597	117.25
259.814	2.56
260.03	35.33
260.246	78.33
260.463	-22.02
260.679	2.56
260.895	59.9
261.112	27.14
261.328	-1.54
261.544	10.75
261.761	59.9
261.977	27.14
262.193	12.8
262.409	43.52
262.626	31.23
262.842	49.66
263.058	82.43
263.274	8.7
263.49	57.86
263.707	-28.16
263.923	12.8
264.139	16.9
264.355	74.24
264.571	74.24
264.787	80.38
265.004	-62.98
265.22	35.33
265.436	41.47
265.652	-71.17
265.868	35.33
266.084	57.86
266.3	-50.69
266.516	-17.92
266.732	39.42
266.948	2.56
267.164	-56.83
267.38	72.19
267.596	27.14
267.812	47.62
268.028	10.75
268.244	18.94
268.46	12.8
268.676	2.56
268.892	80.38
269.108	-5.63
269.324	6.66
269.54	-13.82
269.756	35.33
269.972	-3.58
270.188	-32.26
270.403	76.29
270.619	55.81
270.835	29.18
271.051	-26.11
271.267	35.33
271.483	61.95
271.698	-5.63
271.914	-5.63
272.13	59.9
272.346	74.24
272.562	-24.06
272.777	55.81
272.993	4.61
273.209	27.14
273.425	16.9
273.64	-13.82
273.856	-13.82
274.072	14.85
274.287	-42.5
274.503	43.52
274.719	33.28
274.934	20.99
275.15	-13.82
275.366	59.9
275.581	51.71
275.797	31.23
276.012	12.8
276.228	109.05
276.444	-22.02
276.659	49.66
276.875	0.51
277.09	37.38
277.306	4.61
277.521	27.14
277.737	41.47
277.952	12.8
278.168	-36.35
278.383	55.81
278.599	66.05
278.814	-38.4
279.03	12.8
279.245	31.23
279.461	12.8
279.676	2.56
279.892	6.66
280.107	45.57
280.322	8.7
280.538	31.23
280.753	43.52
280.969	23.04
281.184	39.42
281.399	4.61
281.615	68.09
281.83	-1.54
282.045	-34.3
282.26	72.19
282.476	-15.87
282.691	127.49
282.906	59.9
283.122	76.29
283.337	41.47
283.552	20.99
283.767	18.94
283.983	18.94
284.198	27.14
284.413	68.09
284.628	-9.73
284.843	70.14
285.058	78.33
285.274	49.66
285.489	10.75
285.704	31.23
285.919	-36.35
286.134	57.86
286.349	14.85
286.564	-11.78
286.779	64
286.995	55.81
287.21	-73.21
287.425	39.42
287.64	37.38
287.855	100.86
288.07	49.66
288.285	100.86
288.5	-32.26
288.715	41.47
288.93	16.9
289.145	57.86
289.36	33.28
289.575	4.61
289.79	-22.02
290.004	86.53
290.219	39.42
290.434	-1.54
290.649	-11.78
290.864	-24.06
291.079	-83.45
291.294	27.14
291.509	0.51
291.724	-5.63
291.938	-54.78
292.153	133.63
292.368	47.62
292.583	37.38
292.798	-1.54
293.012	-32.26
293.227	10.75
293.442	-15.87
293.657	70.14
293.871	53.76
294.086	10.75
294.301	92.67
294.516	37.38
294.73	-19.97
294.945	20.99
295.16	-42.5
295.374	-9.73
295.589	-13.82
295.804	-7.68
296.018	12.8
296.233	12.8
296.447	82.43
296.662	14.85
296.877	113.15
297.091	18.94
297.306	74.24
297.52	-11.78
297.735	41.47
297.949	16.9
298.164	33.28
298.378	33.28
298.593	53.76
298.807	12.8
299.022	29.18
299.236	4.61
299.451	80.38
299.665	31.23
299.88	59.9
300.094	47.62
300.309	0.51
300.523	20.99
300.737	2.56
300.952	-26.11
301.166	12.8
301.381	-3.58
301.595	55.81
301.809	35.33
302.024	27.14
302.238	10.75
302.452	70.14
302.667	4.61
302.881	51.71
303.095	64
303.309	33.28
303.524	27.14
303.738	49.66
303.952	39.42
304.166	82.43
304.381	-13.82
304.595	55.81
304.809	8.7
305.023	4.61
305.237	61.95
305.452	4.61
305.666	47.62
305.88	59.9
306.094	31.23
306.308	6.66
306.522	27.14
306.736	14.85
306.95	10.75
307.164	-7.68
307.379	27.14
307.593	2.56
307.807	94.72
308.021	31.23
308.235	-1.54
308.449	-13.82
308.663	20.99
308.877	96.77
309.091	49.66
309.305	127.49
309.519	-56.83
309.733	47.62
309.947	2.56
310.161	10.75
310.374	51.71
310.588	29.18
310.802	-7.68
311.016	-15.87
311.23	-24.06
311.444	57.86
311.658	41.47
311.872	76.29
312.085	84.48
312.299	51.71
312.513	64
312.727	20.99
312.941	31.23
313.154	25.09
313.368	33.28
313.582	92.67
313.796	53.76
314.009	39.42
314.223	18.94
314.437	-81.41
314.651	64
314.864	-3.58
315.078	-1.54
315.292	-13.82
315.505	41.47
315.719	37.38
315.933	-17.92
316.146	39.42
316.36	-34.3
316.573	57.86
316.787	39.42
317.001	-1.54
317.214	49.66
317.428	-5.63
317.641	12.8
317.855	55.81
318.068	47.62
318.282	76.29
318.495	82.43
318.709	43.52
318.922	20.99
319.136	41.47
319.349	-62.98
319.563	66.05
319.776	51.71
319.99	37.38
320.203	2.56
320.417	45.57
320.63	49.66
320.843	47.62
321.057	66.05
321.27	78.33
321.483	43.52
321.697	59.9
321.91	31.23
322.124	57.86
322.337	14.85
322.55	33.28
322.763	82.43
322.977	18.94
323.19	64
323.403	47.62
323.617	94.72
323.83	109.05
324.043	29.18
324.256	31.23
324.469	-19.97
324.683	72.19
324.896	37.38
325.109	-11.78
325.322	8.7
325.535	-5.63
325.748	33.28
325.962	61.95
326.175	25.09
326.388	2.56
326.601	113.15
326.814	29.18
327.027	51.71
327.24	41.47
327.453	8.7
327.666	102.91
327.879	20.99
328.092	27.14
328.305	14.85
328.518	16.9
328.731	-30.21
328.944	8.7
329.157	23.04
329.37	43.52
329.583	14.85
329.796	61.95
330.009	0.51
330.222	-32.26
330.435	84.48
330.648	61.95
330.861	78.33
331.073	51.71
331.286	88.57
331.499	45.57
331.712	18.94
331.925	8.7
332.138	0.51
332.35	33.28
332.563	4.61
332.776	49.66
332.989	82.43
333.202	25.09
333.414	-11.78
333.627	51.71
333.84	41.47
334.053	68.09
334.265	0.51
334.478	0.51
334.691	37.38
334.903	51.71
335.116	29.18
335.329	18.94
335.541	31.23
335.754	100.86
335.966	12.8
336.179	-11.78
336.392	68.09
336.604	43.52
336.817	10.75
337.029	27.14
337.242	6.66
337.454	107.01
337.667	31.23
337.88	82.43
338.092	23.04
338.305	61.95
338.517	27.14
338.729	2.56
338.942	8.7
339.154	47.62
339.367	23.04
339.579	57.86
339.792	-3.58
340.004	84.48
340.217	16.9
340.429	-5.63
340.641	-1.54
340.854	-3.58
341.066	53.76
341.278	2.56
341.491	84.48
341.703	6.66
341.915	-19.97
342.128	51.71
342.34	80.38
342.552	74.24
342.764	-22.02
342.977	33.28
343.189	10.75
343.401	-13.82
343.613	41.47
343.826	14.85
344.038	37.38
344.25	53.76
344.462	10.75
344.674	39.42
344.886	16.9
345.099	100.86
345.311	43.52
345.523	27.14
345.735	0.51
345.947	96.77
346.159	-1.54
346.371	-60.93
346.583	55.81
346.795	70.14
347.007	70.14
347.219	45.57
347.431	37.38
347.643	123.39
347.855	10.75
348.067	61.95
348.279	27.14
348.491	49.66
348.703	59.9
348.915	25.09
349.127	2.56
349.339	49.66
349.551	12.8
349.763	12.8
349.975	64
350.187	123.39
350.399	-24.06
350.61	113.15
350.822	43.52
351.034	47.62
351.246	16.9
351.458	59.9
351.669	39.42
351.881	23.04
352.093	129.53
352.305	-9.73
352.517	68.09
352.728	27.14
352.94	53.76
353.152	37.38
353.363	-26.11
353.575	61.95
353.787	172.54
353.999	117.25
354.21	78.33
354.422	4.61
354.633	39.42
354.845	37.38
355.057	18.94
355.268	2.56
355.48	10.75
355.692	33.28
355.903	-7.68
356.115	-34.3
356.326	-13.82
356.538	59.9
356.749	14.85
356.961	23.04
357.172	8.7
357.384	53.76
357.595	96.77
357.807	16.9
358.018	23.04
358.23	23.04
358.441	86.53
358.653	53.76
358.864	25.09
359.075	-56.83
359.287	82.43
359.498	45.57
359.709	53.76
359.921	43.52
360.132	66.05
360.344	18.94
360.555	18.94
360.766	53.76
360.977	55.81
361.189	27.14
361.4	4.61
361.611	51.71
361.823	18.94
362.034	57.86
362.245	43.52
362.456	41.47
362.667	25.09
362.879	12.8
363.09	68.09
363.301	33.28
363.512	125.44
363.723	0.51
363.935	27.14
364.146	64
364.357	53.76
364.568	39.42
364.779	47.62
364.99	6.66
365.201	-5.63
365.412	-11.78
365.623	8.7
365.834	27.14
366.045	59.9
366.256	80.38
366.467	78.33
366.678	76.29
366.889	80.38
367.1	6.66
367.311	61.95
367.522	59.9
367.733	-7.68
367.944	70.14
368.155	49.66
368.366	55.81
368.577	55.81
368.788	61.95
368.999	-11.78
369.209	53.76
369.42	49.66
369.631	78.33
369.842	25.09
370.053	31.23
370.264	55.81
370.474	72.19
370.685	68.09
370.896	41.47
371.107	14.85
371.317	23.04
371.528	-1.54
371.739	29.18
371.95	51.71
372.16	84.48
372.371	18.94
372.582	18.94
372.792	53.76
373.003	92.67
373.214	-17.92
373.424	86.53
373.635	-28.16
373.846	76.29
374.056	23.04
374.267	41.47
374.477	72.19
374.688	18.94
374.898	90.62
375.109	-17.92
375.319	49.66
375.53	94.72
375.74	64
375.951	39.42
376.161	74.24
376.372	-5.63
376.582	33.28
376.793	6.66
377.003	-9.73
377.214	57.86
377.424	18.94
377.635	4.61
377.845	-7.68
378.055	35.33
378.266	74.24
378.476	107.01
378.686	-17.92
378.897	113.15
379.107	-11.78
379.317	80.38
379.528	68.09
379.738	92.67
379.948	47.62
380.158	70.14
380.369	70.14
380.579	121.34
380.789	41.47
380.999	23.04
381.21	51.71
381.42	72.19
381.63	100.86
381.84	102.91
382.05	41.47
382.261	117.25
382.471	66.05
382.681	74.24
382.891	16.9
383.101	18.94
383.311	53.76
383.521	47.62
383.731	123.39
383.941	41.47
384.151	47.62
384.361	51.71
384.571	-22.02
384.781	102.91
384.991	8.7
385.201	10.75
385.411	35.33
385.621	84.48
385.831	-22.02
386.041	78.33
386.251	25.09
386.461	94.72
386.671	107.01
386.881	59.9
387.091	68.09
387.301	66.05
387.511	78.33
387.72	90.62
387.93	68.09
388.14	18.94
388.35	111.1
388.56	162.3
388.769	31.23
388.979	66.05
389.189	29.18
389.399	-1.54
389.609	84.48
389.818	90.62
390.028	107.01
390.238	80.38
390.447	31.23
390.657	84.48
390.867	6.66
391.076	96.77
391.286	0.51
391.496	41.47
391.705	90.62
391.915	119.29
392.125	43.52
392.334	45.57
392.544	104.96
392.753	80.38
392.963	-17.92
393.172	90.62
393.382	78.33
393.591	123.39
393.801	107.01
394.01	80.38
394.22	125.44
394.429	55.81
394.639	84.48
394.848	43.52
395.058	66.05
395.267	117.25
395.477	66.05
395.686	88.57
395.895	98.81
396.105	147.97
396.314	80.38
396.524	31.23
396.733	143.87
396.942	61.95
397.152	61.95
397.361	57.86
397.57	49.66
397.78	104.96
397.989	115.2
398.198	160.25
398.407	-19.97
398.617	178.69
398.826	49.66
399.035	102.91
399.244	43.52
399.453	156.16
399.663	80.38
399.872	100.86
400.081	78.33
400.29	166.4
400.499	39.42
400.708	125.44
400.917	68.09
401.127	117.25
401.336	109.05
401.545	109.05
401.754	154.11
401.963	125.44
402.172	100.86
402.381	156.16
402.59	109.05
402.799	125.44
403.008	123.39
403.217	6.66
403.426	133.63
403.635	88.57
403.844	59.9
404.053	133.63
404.262	66.05
404.471	68.09
404.68	100.86
404.888	51.71
405.097	131.58
405.306	66.05
405.515	68.09
405.724	129.53
405.933	168.45
406.142	178.69
406.35	117.25
406.559	184.83
406.768	123.39
406.977	119.29
407.185	143.87
407.394	154.11
407.603	129.53
407.812	137.73
408.02	154.11
408.229	170.49
408.438	242.17
408.646	137.73
408.855	141.82
409.064	213.5
409.272	240.12
409.481	256.51
409.69	221.69
409.898	262.65
410.107	260.6
410.315	313.85
410.524	227.84
410.733	238.08
410.941	287.23
411.15	307.71
411.358	332.28
411.567	305.66
411.775	371.19
411.984	350.71
412.192	324.09
412.401	291.32
412.609	379.39
412.818	367.1
413.026	365.05
413.234	371.19
413.443	305.66
413.651	420.35
413.86	387.58
414.068	500.22
414.276	469.5
414.485	465.4
414.693	483.83
414.901	457.21
415.11	461.3
415.318	592.37
415.526	559.61
415.734	659.96
415.943	631.29
416.151	633.33
416.359	674.29
416.567	602.61
416.776	748.02
416.984	819.7
417.192	776.69
417.4	782.84
417.608	750.07
417.817	842.23
418.025	879.09
418.233	907.76
418.441	915.95
418.649	926.19
418.857	971.25
419.065	1114.61
419.273	1061.36
419.481	1081.84
419.689	1106.42
419.897	1094.13
420.105	1114.61
420.313	1184.24
420.521	1227.25
420.729	1266.16
420.937	1358.32
421.145	1350.12
421.353	1524.2
421.561	1450.47
421.769	1444.33
421.977	1532.39
422.185	1634.79
422.393	1706.47
422.601	1812.96
422.809	1767.91
423.017	1745.38
423.224	1954.27
423.432	1886.69
423.64	1868.26
423.848	2118.11
424.056	2142.69
424.263	2169.31
424.471	2191.84
424.679	2277.85
424.887	2400.73
425.094	2488.79
425.302	2472.41
425.51	2613.72
425.718	2720.21
425.925	2777.56
426.133	2847.19
426.341	2882
426.548	3154.38
426.756	3111.38
426.964	3191.25
427.171	3320.27
427.379	3437
427.586	3391.95
427.794	3449.29
428.001	3557.83
428.209	3862.98
428.417	3684.81
428.624	4063.68
428.832	4112.83
429.039	4159.94
429.247	4014.53
429.454	4403.64
429.662	4577.72
429.869	4411.84
430.076	4807.09
430.284	4647.35
430.491	4843.96
430.699	5165.49
430.906	4962.74
431.114	5015.99
431.321	5194.16
431.528	5331.37
431.736	5788.07
431.943	6044.07
432.15	5816.74
432.358	5917.09
432.565	6220.19
432.772	6056.36
432.979	6676.89
433.187	6683.03
433.394	6707.61
433.601	7225.75
433.808	7123.35
434.016	7127.44
434.223	7596.43
434.43	7866.76
434.637	7590.28
434.844	8112.52
435.052	8315.27
435.259	8229.25
435.466	8604.03
435.673	8286.59
435.88	8960.38
436.087	9365.87
436.294	9304.43
436.501	8913.27
436.708	9054.58
436.915	9677.16
437.122	10010.98
437.329	9802.09
437.537	10318.18
437.743	10514.78
437.95	10332.51
438.157	10991.96
438.364	11401.55
438.571	11127.13
438.778	11309.4
438.985	12312.9
439.192	11651.41
439.399	12364.1
439.606	12061
439.813	12601.66
440.02	13650.22
440.227	13287.73
440.433	13295.93
440.64	13730.09
440.847	13357.36
441.054	13840.68
441.261	14901.53
441.467	14727.46
441.674	14797.09
441.881	15319.32
442.088	15325.46
442.294	15059.23
442.501	15577.36
442.708	15896.85
442.914	16752.9
443.121	17156.35
443.328	17094.91
443.534	18028.78
443.741	17336.57
443.948	17146.11
444.154	18749.67
444.361	18280.68
444.568	18350.31
444.774	18587.88
444.981	18583.78
445.187	19351.77
445.394	20164.81
445.6	19943.63
445.807	21899.44
446.013	20760.77
446.22	21487.8
446.426	22114.48
446.633	22180.01
446.839	22849.7
447.046	22294.7
447.252	23236.77
447.459	23214.24
447.665	22954.15
447.871	24354.96
448.078	25311.36
448.284	23836.82
448.491	24438.92
448.697	25616.51
448.903	26040.43
449.11	25890.93
449.316	25567.35
449.522	26282.09
449.728	26763.37
449.935	27285.6
450.141	26593.39
450.347	27379.81
450.553	26857.57
450.76	26955.88
450.966	27928.66
451.172	27904.09
451.378	28414.03
451.584	27902.04
451.791	28405.84
451.997	28160.08
452.203	28727.37
452.409	28584.01
452.615	28645.45
452.821	27459.68
453.027	27316.32
453.233	28733.51
453.44	27435.1
453.646	28239.95
453.852	28309.58
454.058	28289.1
454.264	27469.92
454.47	28051.54
454.676	27424.86
454.882	28395.6
455.088	25763.96
455.294	26228.85
455.5	26632.3
455.705	26986.6
455.911	25917.56
456.117	25364.6
456.323	24914.05
456.529	23568.54
456.735	24410.25
456.941	23928.98
457.147	23582.87
457.352	23070.88
457.558	22466.73
457.764	22649
457.97	22073.52
458.176	21907.63
458.381	21749.94
458.587	20629.7
458.793	20715.72
458.999	19499.22
459.204	21070.01
459.41	20406.47
459.616	19142.88
459.821	19128.54
460.027	19003.61
460.233	18788.58
460.438	17594.61
460.644	17848.56
460.85	16943.36
461.055	16910.59
461.261	16750.85
461.466	15468.82
461.672	14907.68
461.878	16163.08
462.083	15198.49
462.289	15075.61
462.494	14930.2
462.7	14063.91
462.905	13855.02
463.111	14188.84
463.316	14240.04
463.522	13977.9
463.727	14000.43
463.932	13904.17
464.138	13588.78
464.343	13867.31
464.549	13424.95
464.754	13902.12
464.959	13760.81
465.165	13551.92
465.37	13005.11
465.575	12597.57
465.781	13185.33
465.986	13576.5
466.191	12792.12
466.397	12564.8
466.602	12314.95
466.807	12503.36
467.012	12325.19
467.218	12568.9
467.423	12169.54
467.628	12454.21
467.833	12984.63
468.038	12568.9
468.244	12190.02
468.449	12507.46
468.654	12171.59
468.859	12132.68
469.064	11802.96
469.269	11561.3
469.474	11419.99
469.679	11731.28
469.885	11499.86
470.09	11786.57
470.295	11575.63
470.5	11303.25
470.705	11188.57
470.91	10951
471.115	10901.85
471.32	11290.96
471.525	11200.85
471.73	10776.92
471.935	10797.4
472.139	10443.1
472.344	10682.72
472.549	10293.6
472.754	10189.16
472.959	10172.77
473.164	9881.96
473.369	9875.82
473.574	10166.63
473.778	10013.03
473.983	9906.54
474.188	9793.9
474.393	9441.65
474.598	9498.99
474.802	9408.88
475.007	9257.33
475.212	9263.47
475.417	9050.49
475.621	9150.84
475.826	9173.36
476.031	8872.31
476.235	8804.73
476.44	9023.86
476.645	8614.27
476.849	8761.72
477.054	8606.08
477.259	8409.47
477.463	8298.88
477.668	8165.76
477.872	8380.8
478.077	8270.21
478.282	7975.3
478.486	8026.5
478.691	7977.35
478.895	7899.53
479.1	8036.74
479.304	7811.46
479.509	7770.51
479.713	7833.99
479.918	7545.23
480.122	7623.05
480.326	7479.69
480.531	7582.09
480.735	7463.31
480.94	7553.42
481.144	7723.4
481.348	7434.64
481.553	7422.35
481.757	7145.87
481.961	7491.98
482.166	7479.69
482.37	7305.62
482.574	7494.03
482.778	7336.34
482.983	7395.73
483.187	7373.2
483.391	7401.87
483.595	7301.52
483.8	7295.38
484.004	7375.25
484.208	7334.29
484.412	7410.06
484.616	7197.07
484.821	7465.36
485.025	7309.71
485.229	7369.1
485.433	7164.31
485.637	7164.31
485.841	7352.72
486.045	7176.59
486.249	7424.4
486.453	7238.03
486.657	7520.65
486.861	7387.54
487.065	7137.68
487.269	7287.18
487.473	7215.51
487.677	7414.16
487.881	7311.76
488.085	7586.19
488.289	7592.33
488.493	7262.61
488.697	7580.04
488.901	7205.27
489.105	7455.12
489.309	7467.41
489.512	7528.85
489.716	7354.77
489.92	7459.21
490.124	7477.65
490.328	7684.49
490.531	7489.93
490.735	7412.11
490.939	7627.15
491.143	7428.49
491.346	7485.84
491.55	7788.94
491.754	7696.78
491.958	7797.13
492.161	7719.31
492.365	7993.73
492.569	7793.03
492.772	7610.76
492.976	8153.48
493.18	7846.28
493.383	7979.4
493.587	7799.18
493.79	8122.76
493.994	7954.82
494.197	8055.17
494.401	8159.62
494.605	8169.86
494.808	8237.44
495.012	8386.94
495.215	8307.07
495.419	8534.4
495.622	8335.74
495.825	8659.32
496.029	8694.14
496.232	8860.02
496.436	8774.01
496.639	9077.11
496.843	8851.83
497.046	9150.84
497.249	9253.23
497.453	9163.12
497.656	9335.15
497.859	9367.92
498.063	9507.18
498.266	9656.68
498.469	9632.11
498.673	9587.05
498.876	9773.42
499.079	9886.06
499.282	9914.73
499.485	10197.35
499.689	10228.07
499.892	10379.62
500.095	10361.19
500.298	10785.12
500.501	10660.19
500.705	10918.23
500.908	10996.06
501.111	11256.15
501.314	10856.79
501.517	11198.81
501.72	11460.95
501.923	11299.16
502.126	11852.11
502.329	12077.38
502.532	12108.1
502.735	11989.32
502.938	12261.7
503.141	12503.36
503.344	12609.86
503.547	12685.63
503.75	12757.31
503.953	12994.87
504.156	13103.42
504.359	13175.09
504.562	13109.56
504.765	13556.02
504.968	13576.5
505.17	13893.93
505.373	13842.73
505.576	14096.68
505.779	14281
505.982	14260.52
506.185	14625.06
506.387	14897.44
506.59	14598.43
506.793	15175.96
506.996	14868.77
507.198	15583.51
507.401	15501.59
507.604	15634.71
507.807	15882.51
508.009	15900.94
508.212	16158.99
508.415	16374.02
508.617	16693.51
508.82	16769.28
509.022	16527.62
509.225	17150.2
509.428	17076.48
509.63	17180.92
509.833	17314.04
510.035	17987.82
510.238	17760.5
510.44	17897.71
510.643	18305.26
510.845	18776.29
511.048	18272.49
511.25	18764
511.453	18843.87
511.655	19554.52
511.858	19210.46
512.06	19429.59
512.262	19779.79
512.465	19646.68
512.667	20048.08
512.87	20402.38
513.072	20441.29
513.274	20820.16
513.477	20644.04
513.679	21108.93
513.881	21242.04
514.084	21356.73
514.286	21713.08
514.488	21999.79
514.69	22591.66
514.893	22034.61
515.095	22278.32
515.297	22771.88
515.499	22739.11
515.701	23034.02
515.904	23562.39
516.106	23849.11
516.308	23828.63
516.51	23965.84
516.712	24109.2
516.914	24330.38
517.116	24967.3
517.318	24903.81
517.52	25092.23
517.722	25047.17
517.925	25553.02
518.127	26044.53
518.329	25999.48
518.531	26155.12
518.733	26611.82
518.935	26843.24
519.136	27023.46
519.338	27072.61
519.54	27478.11
519.742	27699.29
519.944	27797.59
520.146	28360.78
520.348	28285.01
520.55	28633.16
520.752	28489.81
520.954	29005.89
521.155	28751.95
521.357	29331.52
521.559	29476.93
521.761	30031.93
521.963	30216.24
522.164	30441.52
522.366	30087.22
522.568	30656.56
522.77	30822.44
522.971	31037.48
523.173	31096.87
523.375	31645.73
523.576	31191.08
523.778	31666.2
523.98	32299.03
524.181	32319.51
524.383	31963.16
524.584	32966.66
524.786	32798.73
524.988	32823.31
525.189	33093.64
525.391	33603.58
525.592	33722.37
525.794	33640.45
525.995	33869.82
526.197	34131.96
526.398	33916.92
526.6	34308.08
526.801	34826.22
527.003	34590.7
527.204	34641.9
527.406	34981.87
527.607	34775.02
527.808	35223.53
528.01	35055.59
528.211	35244.01
528.412	35934.17
528.614	35602.4
528.815	35882.97
529.016	35758.05
529.218	35758.05
529.419	36245.46
529.62	36388.82
529.822	36161.5
530.023	36284.37
530.224	36388.82
530.425	36433.88
530.626	36345.81
530.828	36204.5
531.029	37404.61
531.23	36401.11
531.431	36655.06
531.632	36972.49
531.833	36911.05
532.035	37220.3
532.236	36820.94
532.437	37142.47
532.638	36579.28
532.839	37521.35
533.04	37382.09
533.241	36767.69
533.442	37894.08
533.643	37349.32
533.844	37572.55
534.045	37523.4
534.246	36964.3
534.447	37613.51
534.648	37351.37
534.849	37871.55
535.05	37500.87
535.251	37783.49
535.451	37468.1
535.652	37832.64
535.853	37466.05
536.054	37781.44
536.255	37900.22
536.456	37654.47
536.657	38195.13
536.857	37498.82
537.058	37470.15
537.259	38105.02
537.46	38076.35
537.66	37732.29
537.861	37722.05
538.062	37779.39
538.263	37965.76
538.463	37298.12
538.664	37785.54
538.865	38070.2
539.065	38428.6
539.266	37560.26
539.466	38154.17
539.667	37306.31
539.868	38082.49
540.068	37504.96
540.269	37674.95
540.469	38158.27
540.67	37537.73
540.87	37748.67
541.071	37924.8
541.271	38090.68
541.472	37982.14
541.672	37437.38
541.873	37674.95
542.073	37404.61
542.274	38191.03
542.474	37738.43
542.675	37666.75
542.875	38121.4
543.075	37898.17
543.276	37103.56
543.476	38305.72
543.676	37754.82
543.877	37740.48
544.077	37875.65
544.277	37646.27
544.478	38197.18
544.678	37883.84
544.878	37363.65
545.078	37822.4
545.279	37269.45
545.479	38117.31
545.679	37812.16
545.879	37769.15
546.079	37703.62
546.28	37572.55
546.48	37341.13
546.68	37963.71
546.88	37756.86
547.08	37830.59
547.28	37926.85
547.48	37210.06
547.68	37945.28
547.88	37674.95
548.081	38074.3
548.281	37965.76
548.481	37756.86
548.681	38262.71
548.881	37728.19
549.081	37865.41
549.28	37724.1
549.48	38270.9
549.68	37656.51
549.88	37978.04
550.08	37777.34
550.28	37584.83
550.48	37369.8
550.68	37945.28
550.88	37466.05
551.08	37611.46
551.279	37865.41
551.479	37478.34
551.679	37703.62
551.879	37341.13
552.079	37828.54
552.278	37160.9
552.478	37617.6
552.678	37570.5
552.878	37836.73
553.077	37746.62
553.277	37412.81
553.477	37625.79
553.676	37425.09
553.876	37672.9
554.076	37404.61
554.275	37003.21
554.475	37087.18
554.674	37265.35
554.874	37421
555.074	37175.24
555.273	37126.09
555.473	37679.04
555.672	37060.55
555.872	37359.56
556.071	37334.98
556.271	37343.17
556.47	36982.73
556.67	36702.16
556.869	37175.24
557.068	36923.34
557.268	37140.43
557.467	37033.93
557.667	36706.26
557.866	36880.33
558.065	36896.72
558.265	36759.5
558.464	36648.91
558.663	37162.95
558.863	35893.21
559.062	36974.54
559.261	36149.21
559.461	36978.64
559.66	36282.33
559.859	36491.22
560.058	36106.2
560.258	36186.07
560.457	35604.45
560.656	36351.96
560.855	36179.93
561.054	36485.08
561.253	35846.11
561.453	35930.08
561.652	36089.82
561.851	36267.99
562.05	36075.48
562.249	35520.48
562.448	35784.67
562.647	36061.15
562.846	35592.16
563.045	35330.02
563.244	35135.46
563.443	35424.23
563.642	35264.49
563.841	35479.52
564.04	34836.46
564.239	35545.06
564.438	34746.35
564.637	35098.6
564.836	35086.31
565.035	34830.32
565.234	34629.62
565.432	34512.88
565.631	34492.4
565.83	34727.92
566.029	34125.82
566.228	34271.22
566.427	34291.7
566.625	34123.77
566.824	33599.49
567.023	33968.12
567.222	33464.32
567.42	33853.44
567.619	34101.24
567.818	33521.66
568.016	33579.01
568.215	34007.03
568.414	33007.62
568.612	33617.92
568.811	33427.46
569.01	33026.06
569.208	33038.34
569.407	33409.03
569.605	32839.69
569.804	33126.41
570.002	33095.69
570.201	32839.69
570.4	32550.93
570.598	32446.48
570.797	32337.94
570.995	32591.89
571.193	31985.69
571.392	32659.47
571.59	32387.09
571.789	32223.25
571.987	32288.79
572.186	32124.95
572.384	32065.56
572.582	32174.1
572.781	32024.6
572.979	31324.19
573.177	31471.65
573.376	31967.26
573.574	31270.95
573.772	31369.25
573.971	31246.37
574.169	31522.85
574.367	30994.47
574.565	31272.99
574.763	30969.9
574.962	30922.79
575.16	30314.55
575.358	30771.24
575.556	30496.81
575.754	30937.13
575.952	30126.13
576.151	30756.91
576.349	30410.8
576.547	30294.07
576.745	30468.14
576.943	30105.65
577.141	30003.25
577.339	30058.55
577.537	29845.56
577.735	29800.51
577.933	29536.32
578.131	29853.75
578.329	29761.59
578.527	29208.64
578.725	29476.93
578.923	29517.89
579.121	29560.89
579.319	29261.89
579.516	29435.97
579.714	29198.4
579.912	28868.68
580.11	29106.24
580.308	28813.38
580.506	29118.53
580.704	28543.05
580.901	28708.94
581.099	28973.13
581.297	28371.02
581.495	28633.16
581.692	28430.41
581.89	28385.36
582.088	28356.69
582.285	28198.99
582.483	28303.44
582.681	28317.78
582.878	28172.37
583.076	28026.96
583.274	28065.88
583.471	27545.69
583.669	27687
583.866	27664.47
584.064	27791.45
584.262	27226.21
584.459	27574.36
584.657	27586.65
584.854	27461.72
585.052	26810.47
585.249	27031.65
585.447	26931.3
585.644	26947.68
585.841	27295.84
586.039	27236.45
586.236	26824.81
586.434	26669.16
586.631	26628.2
586.828	26656.87
587.026	26642.54
587.223	26431.6
587.42	26306.67
587.618	26359.92
587.815	26161.26
588.012	26321.01
588.21	26148.98
588.407	26310.77
588.604	26091.63
588.801	25745.53
588.999	26138.74
589.196	25987.19
589.393	26169.46
589.59	25739.38
589.787	25499.77
589.984	25352.32
590.182	25301.12
590.379	25227.39
590.576	25219.2
590.773	25077.89
590.97	25041.03
591.167	25348.22
591.364	24588.42
591.561	25366.65
591.758	24627.34
591.955	24676.49
592.152	24995.97
592.349	24684.68
592.546	24635.53
592.743	24389.77
592.94	24359.05
593.137	24393.87
593.334	24510.6
593.531	24088.72
593.727	24486.03
593.924	24068.24
594.121	23859.35
594.318	24113.3
594.515	24019.09
594.712	24311.95
594.908	23799.96
595.105	23621.78
595.302	23636.12
595.499	23627.93
595.696	23472.28
595.892	23462.04
596.089	23906.45
596.286	23314.59
596.482	23290.01
596.679	23517.34
596.876	23132.32
597.072	22991.01
597.269	22988.96
597.466	22945.95
597.662	22898.85
597.859	22921.38
598.055	22821.03
598.252	22675.62
598.448	22857.89
598.645	22610.09
598.841	22567.08
599.038	22530.22
599.234	22401.19
599.431	22362.28
599.627	22259.88
599.824	22605.99
600.02	22165.68
600.217	22249.64
600.413	21969.07
600.609	21762.23
600.806	21688.5
601.002	21571.77
601.198	21792.95
601.395	21729.46
601.591	21594.29
601.787	21506.23
601.984	21637.3
602.18	21612.73
602.376	21371.07
602.572	21217.47
602.769	21414.07
602.965	21121.21
603.161	21276.86
603.357	21149.89
603.553	21047.49
603.75	21166.27
603.946	20644.04
604.142	21145.79
604.338	20678.85
604.534	20977.86
604.73	20598.98
604.926	20680.9
605.122	20611.27
605.318	20662.47
605.514	20281.55
605.71	20379.85
605.906	20324.55
606.102	20166.86
606.298	20228.3
606.494	20443.34
606.69	20394.18
606.886	20195.53
607.082	19720.4
607.278	20373.71
607.474	20027.6
607.67	19984.59
607.866	19667.16
608.062	19931.34
608.257	19620.05
608.453	19861.71
608.649	19611.86
608.845	19560.66
609.041	19706.07
609.236	19626.2
609.432	19540.18
609.628	19615.96
609.824	19531.99
610.019	19550.42
610.215	19544.28
610.411	19296.47
610.606	19099.87
610.802	19351.77
610.998	19194.08
611.193	19398.87
611.389	19042.53
611.584	19220.7
611.78	19149.02
611.976	19103.96
612.171	19206.36
612.367	18694.37
612.562	18843.87
612.758	18512.1
612.953	18811.1
613.149	18933.98
613.344	18651.36
613.539	18962.65
613.735	18796.77
613.93	19081.44
614.126	18809.06
614.321	18833.63
614.517	18575.59
614.712	18579.68
614.907	18790.63
615.103	18589.92
615.298	18528.49
615.493	18815.2
615.688	18421.99
615.884	18618.6
616.079	18194.67
616.274	18628.84
616.47	17996.01
616.665	18071.79
616.86	18243.82
617.055	18317.54
617.25	18094.32
617.445	18165.99
617.641	17883.38
617.836	18161.9
618.031	17879.28
618.226	17905.9
618.421	17871.09
618.616	18065.64
618.811	17490.17
619.006	17975.53
619.201	17316.09
619.396	17604.85
619.591	17242.36
619.786	17492.21
619.981	17281.27
620.176	17348.86
620.371	17060.09
620.566	17240.31
620.761	17103.1
620.956	17080.57
621.151	16777.47
621.346	16982.27
621.541	16701.7
621.735	16820.48
621.93	16607.49
622.125	16410.89
622.32	16435.46
622.515	16453.89
622.709	16173.32
622.904	16367.88
623.099	15958.28
623.294	16478.47
623.488	16054.54
623.683	15810.83
623.878	15554.83
624.072	15776.02
624.267	15841.55
624.462	15634.71
624.656	15495.44
624.851	15589.65
625.046	15530.26
625.24	15526.16
625.435	14995.74
625.629	15223.06
625.824	15198.49
626.018	14958.88
626.213	14723.36
626.407	14901.53
626.602	14659.87
626.796	14879
626.991	14879
627.185	14702.88
627.38	14383.4
627.574	14553.38
627.768	14270.76
627.963	14405.92
628.157	14301.48
628.352	14297.38
628.546	13904.17
628.74	13928.75
628.935	14111.02
629.129	13879.6
629.323	13549.87
629.517	13664.56
629.712	13580.59
629.906	13633.84
630.1	13330.74
630.294	13607.22
630.489	13539.63
630.683	13279.54
630.877	13160.76
631.071	12927.29
631.265	13177.14
631.459	13070.65
631.653	12923.19
631.848	13084.98
632.042	12781.88
632.236	12998.97
632.43	12505.41
632.624	12769.6
632.818	12654.91
633.012	12587.33
633.206	12497.22
633.4	12439.87
633.594	12265.8
633.788	12529.98
633.982	12224.84
634.176	12161.35
634.369	12093.77
634.563	11921.74
634.757	11995.46
634.951	12032.33
635.145	12032.33
635.339	11788.62
635.533	11635.02
635.726	12048.71
635.92	11549.01
636.114	11643.21
636.308	11438.42
636.501	11493.71
636.695	11368.79
636.889	11401.55
637.083	11381.07
637.276	11254.1
637.47	11301.2
637.664	11137.37
637.857	11286.87
638.051	11034.97
638.244	10850.65
638.438	10815.83
638.632	10883.42
638.825	10668.38
639.019	10477.92
639.212	10762.59
639.406	10625.37
639.599	10529.12
639.793	10656.09
639.986	10256.74
640.18	10312.03
640.373	10256.74
640.567	10162.53
640.76	10191.2
640.954	9947.5
641.147	10150.25
641.34	9945.45
641.534	9896.3
641.727	10088.81
641.92	9816.43
642.114	9773.42
642.307	9918.82
642.5	9812.33
642.694	9738.6
642.887	9623.92
643.08	9761.13
643.273	9447.79
643.467	9474.42
643.66	9560.43
643.853	9240.95
644.046	9425.26
644.239	9353.59
644.432	9136.5
644.626	9388.4
644.819	9261.43
645.012	9255.28
645.205	9081.21
645.398	9103.73
645.591	8962.42
645.784	9025.91
645.977	8960.38
646.17	8792.44
646.363	8784.25
646.556	8700.28
646.749	8733.05
646.942	8718.71
647.135	8597.88
647.328	8561.02
647.521	8577.41
647.714	8661.37
647.907	8669.56
648.099	8491.39
648.292	8386.94
648.485	8462.72
648.678	8247.68
648.871	8182.15
649.064	8305.03
649.256	8292.74
649.449	8147.33
649.642	8083.84
649.835	7948.68
650.027	8104.32
650.22	8010.12
650.413	7784.84
650.605	7965.06
650.798	7860.62
650.991	7948.68
651.183	7743.88
651.376	7633.29
651.568	7727.5
651.761	7698.83
651.954	7491.98
652.146	7541.13
652.339	7592.33
652.531	7385.49
652.724	7530.89
652.916	7250.32
653.109	7516.56
653.301	7479.69
653.494	7387.54
653.686	7139.73
653.879	7115.16
654.071	7139.73
654.263	6998.42
654.456	7088.53
654.648	7027.09
654.84	7020.95
655.033	6797.72
655.225	7063.96
655.417	6930.84
655.61	6900.12
655.802	6990.23
655.994	6859.16
656.186	6777.24
656.379	6736.28
656.571	6848.92
656.763	6644.12
656.955	6664.6
657.148	6623.64
657.34	6478.24
657.532	6640.03
657.724	6666.65
657.916	6504.86
658.108	6660.51
658.3	6363.55
658.492	6531.48
658.684	6336.93
658.876	6187.43
659.068	6336.93
659.26	6187.43
659.452	6263.2
659.644	6293.92
659.836	5984.68
660.028	6326.69
660.22	5982.63
660.412	6146.47
660.604	6060.45
660.796	6062.5
660.988	5982.63
661.18	5704.1
661.372	5896.61
661.563	5829.03
661.755	5974.44
661.947	5941.67
662.139	5906.85
662.331	5708.2
662.522	5779.88
662.714	5652.91
662.906	5638.57
663.097	5720.49
663.289	5773.74
663.481	5613.99
663.673	5669.29
663.864	5556.65
664.056	5546.41
664.247	5468.59
664.439	5345.71
664.631	5364.14
664.822	5466.54
665.014	5401.01
665.205	5448.11
665.397	5325.23
665.588	5372.33
665.78	5325.23
665.971	5271.98
666.163	5368.24
666.354	5089.71
666.546	5228.98
666.737	5153.2
666.929	5323.18
667.12	5073.33
667.311	5198.26
667.503	5020.08
667.694	4923.83
667.885	5007.8
668.077	4972.98
668.268	5013.94
668.459	4966.84
668.651	4940.21
668.842	4803
669.033	4893.11
669.224	4866.49
669.416	4889.01
669.607	4774.33
669.798	4727.22
669.989	4874.68
670.18	4635.07
670.371	4645.31
670.563	4659.64
670.754	4725.18
670.945	4577.72
671.136	4714.94
671.327	4450.75
671.518	4624.83
671.709	4473.28
671.9	4528.57
672.091	4329.92
672.282	4590.01
672.473	4411.84
672.664	4575.67
672.855	4508.09
673.046	4460.99
673.237	4590.01
673.428	4491.71
673.619	4495.8
673.809	4454.84
674	4372.93
674.191	4383.17
674.382	4362.69
674.573	4383.17
674.764	4274.62
674.954	4524.47
675.145	4274.62
675.336	4274.62
675.527	4342.21
675.717	4219.33
675.908	4311.49
676.099	4325.82
676.289	4260.29
676.48	4110.79
676.671	4258.24
676.861	4168.13
677.052	4057.54
677.243	3979.72
677.433	4184.51
677.624	4170.18
677.814	4131.26
678.005	4073.92
678.195	3996.1
678.386	4069.83
678.576	3932.61
678.767	3869.12
678.957	4020.67
679.148	3938.76
679.338	3903.94
679.529	3860.93
679.719	3998.15
679.909	4043.2
680.1	3912.13
680.29	3903.94
680.481	3951.04
680.671	3953.09
680.861	3908.04
681.052	3946.95
681.242	3912.13
681.432	3852.74
681.622	4051.39
681.813	3721.67
682.003	3897.8
682.193	3875.27
682.383	3826.12
682.573	3746.25
682.764	3785.16
682.954	3756.49
683.144	3824.07
683.334	3756.49
683.524	3770.82
683.714	3799.49
683.904	3652.04
684.094	3656.14
684.284	3709.38
684.474	3813.83
684.664	3701.19
684.854	3731.91
685.044	3709.38
685.234	3668.42
685.424	3639.75
685.614	3537.35
685.804	3629.51
685.994	3590.6
686.184	3551.69
686.374	3645.9
686.564	3451.34
686.753	3529.16
686.943	3463.63
687.133	3709.38
687.323	3434.96
687.513	3363.28
687.702	3533.26
687.892	3439.05
688.082	3549.64
688.272	3514.83
688.461	3387.85
688.651	3549.64
688.841	3383.76
689.03	3383.76
689.22	3359.18
689.41	3457.48
689.599	3369.42
689.789	3328.46
689.979	3426.76
690.168	3279.31
690.358	3273.17
690.547	3238.35
690.737	3256.78
690.926	3275.21
691.116	3072.47
691.305	3271.12
691.495	3176.91
691.684	3224.01
691.874	3181.01
692.063	3250.64
692.252	3172.82
692.442	3203.54
692.631	3254.73
692.82	3107.28
693.01	3228.11
693.199	3060.18
693.388	3197.39
693.578	3187.15
693.767	3027.41
693.956	3101.14
694.146	3205.58
694.335	3047.89
694.524	3076.56
694.713	3191.25
694.902	3142.1
695.092	3056.08
695.281	2947.54
695.47	3023.31
695.659	2910.68
695.848	3135.95
696.037	3060.18
696.226	3013.07
696.415	2978.26
696.604	2968.02
696.793	3021.27
696.982	2986.45
697.171	3119.57
697.36	3072.47
697.549	3074.51
697.738	3008.98
697.927	2920.92
698.116	2992.59
698.305	2982.35
698.494	3029.46
698.683	2941.4
698.872	3111.38
699.061	3035.6
699.25	2996.69
699.438	3029.46
699.627	3043.79
699.816	2925.01
700.005	2927.06
700.193	2990.55
700.382	2984.4
700.571	2961.87
700.76	2978.26
700.948	2970.07
701.137	2939.35
701.326	3037.65
701.514	2963.92
701.703	2841.04
701.892	2861.52
702.08	2972.11
702.269	3017.17
702.457	2865.62
702.646	2755.03
702.834	2841.04
703.023	2961.87
703.212	2908.63
703.4	2861.52
703.589	2892.24
703.777	2959.83
703.965	2804.18
704.154	2869.72
704.342	2851.28
704.531	2789.85
704.719	2861.52
704.907	2953.68
705.096	2763.22
705.284	2886.1
705.472	2888.15
705.661	2777.56
705.849	2914.77
706.037	2935.25
706.226	2873.81
706.414	2902.48
706.602	2822.61
706.79	2845.14
706.979	2834.9
707.167	2853.33
707.355	2777.56
707.543	2783.7
707.731	2869.72
707.919	2939.35
708.107	2861.52
708.296	2832.85
708.484	2714.07
708.672	2931.16
708.86	2769.37
709.048	2884.05
709.236	2849.24
709.424	2943.44
709.612	2800.09
709.8	2808.28
709.988	2836.95
710.176	2867.67
710.364	2820.56
710.551	2658.78
710.739	2841.04
710.927	2804.18
711.115	2865.62
711.303	2816.47
711.491	2822.61
711.679	2798.04
711.866	2755.03
712.054	2912.72
712.242	2789.85
712.43	2808.28
712.617	2820.56
712.805	2755.03
712.993	2808.28
713.181	2677.21
713.368	2834.9
713.556	2886.1
713.744	2654.68
713.931	2583
714.119	2810.33
714.306	2705.88
714.494	2722.26
714.682	2750.93
714.869	2904.53
715.057	2812.37
715.244	2746.84
715.432	2705.88
715.619	2752.98
715.807	2732.5
715.994	2806.23
716.182	2826.71
716.369	2845.14
716.556	2714.07
716.744	2726.36
716.931	2744.79
717.119	2709.97
717.306	2820.56
717.493	2808.28
717.681	2798.04
717.868	2650.58
718.055	2775.51
718.242	2648.54
718.43	2783.7
718.617	2744.79
718.804	2789.85
718.991	2646.49
719.179	2654.68
719.366	2652.63
719.553	2593.24
719.74	2693.59
719.927	2779.61
720.114	2621.91
720.301	2630.1
720.488	2644.44
720.676	2634.2
720.863	2697.69
721.05	2853.33
721.237	2648.54
721.424	2781.65
721.611	2673.11
721.798	2730.45
721.985	2646.49
722.172	2619.86
722.358	2628.06
722.545	2851.28
722.732	2595.29
722.919	2664.92
723.106	2576.86
723.293	2695.64
723.48	2734.55
723.667	2664.92
723.853	2681.3
724.04	2691.54
724.227	2566.62
724.414	2451.93
724.6	2486.75
724.787	2705.88
724.974	2607.58
725.161	2660.82
725.347	2556.38
725.534	2628.06
725.72	2603.48
725.907	2574.81
726.094	2621.91
726.28	2556.38
726.467	2671.06
726.653	2656.73
726.84	2597.34
727.027	2669.02
727.213	2554.33
727.4	2591.19
727.586	2494.94
727.773	2640.34
727.959	2675.16
728.145	2585.05
728.332	2601.43
728.518	2482.65
728.705	2626.01
728.891	2548.19
729.077	2716.12
729.264	2587.1
729.45	2468.31
729.636	2537.95
729.823	2562.52
730.009	2636.25
730.195	2583
730.382	2644.44
730.568	2488.79
730.754	2531.8
730.94	2546.14
731.126	2619.86
731.313	2656.73
731.499	2605.53
731.685	2658.78
731.871	2501.08
732.057	2617.82
732.243	2488.79
732.429	2492.89
732.615	2525.66
732.801	2628.06
732.987	2484.7
733.173	2341.34
733.359	2456.03
733.545	2525.66
733.731	2499.03
733.917	2597.34
734.103	2496.99
734.289	2390.49
734.475	2476.51
734.661	2462.17
734.847	2539.99
735.033	2468.31
735.219	2490.84
735.404	2503.13
735.59	2423.26
735.776	2542.04
735.962	2380.25
736.148	2529.75
736.333	2472.41
736.519	2427.35
736.705	2437.59
736.89	2470.36
737.076	2451.93
737.262	2460.12
737.447	2552.28
737.633	2460.12
737.819	2337.24
738.004	2429.4
738.19	2388.44
738.375	2447.83
738.561	2406.88
738.747	2482.65
738.932	2359.77
739.118	2492.89
739.303	2245.09
739.489	2392.54
739.674	2423.26
739.859	2255.33
740.045	2308.57
740.23	2320.86
740.416	2226.65
740.601	2308.57
740.786	2243.04
740.972	2314.72
741.157	2306.52
741.342	2349.53
741.528	2281.95
741.713	2243.04
741.898	2185.69
742.084	2300.38
742.269	2228.7
742.454	2175.45
742.639	2157.02
742.824	2197.98
743.01	2236.89
743.195	2265.57
743.38	2062.82
743.565	2171.36
743.75	2204.13
743.935	2187.74
744.12	2159.07
744.305	2286.05
744.49	2181.6
744.675	2138.59
744.86	2091.49
745.045	2116.06
745.23	2245.09
745.415	2107.87
745.6	2259.42
745.785	2154.98
745.97	2091.49
746.155	2091.49
746.34	2105.82
746.525	2052.58
746.71	2032.1
746.895	1935.84
747.079	2030.05
747.264	2062.82
747.449	1972.71
747.634	1956.32
747.819	1946.08
748.003	1898.98
748.188	1984.99
748.373	1972.71
748.557	1892.84
748.742	1964.51
748.927	1817.06
749.111	1917.41
749.296	1880.55
749.481	1946.08
749.665	1741.29
749.85	1767.91
750.034	1925.6
750.219	1776.1
750.404	1819.11
750.588	1702.37
750.773	1735.14
750.957	1737.19
751.141	1749.48
751.326	1741.29
751.51	1675.75
751.695	1692.13
751.879	1724.9
752.064	1657.32
752.248	1706.47
752.432	1710.57
752.617	1599.98
752.801	1655.27
752.985	1602.02
753.17	1608.17
753.354	1550.82
753.538	1685.99
753.722	1495.53
753.907	1587.69
754.091	1536.49
754.275	1591.78
754.459	1567.21
754.643	1599.98
754.828	1571.3
755.012	1497.58
755.196	1577.45
755.38	1493.48
755.564	1534.44
755.748	1479.15
755.932	1429.99
756.116	1485.29
756.3	1407.47
756.484	1530.34
756.668	1376.75
756.852	1427.95
757.036	1376.75
757.22	1391.08
757.404	1376.75
757.588	1296.88
757.772	1380.84
757.956	1391.08
758.14	1374.7
758.323	1319.4
758.507	1391.08
758.691	1356.27
758.875	1329.64
759.059	1313.26
759.242	1370.6
759.426	1276.4
759.61	1288.68
759.794	1251.82
759.977	1354.22
760.161	1393.13
760.345	1247.72
760.528	1305.07
760.712	1290.73
760.895	1212.91
761.079	1204.72
761.263	1171.95
761.446	1243.63
761.63	1180.14
761.813	1266.16
761.997	1221.1
762.18	1219.05
762.364	1233.39
762.547	1149.42
762.731	1135.09
762.914	1110.51
763.098	1081.84
763.281	1075.7
763.464	1178.09
763.648	1137.13
763.831	1145.33
764.015	1147.37
764.198	1036.78
764.381	1077.74
764.564	1112.56
764.748	1128.94
764.931	1153.52
765.114	1081.84
765.297	1047.02
765.481	1139.18
765.664	1079.79
765.847	1100.27
766.03	1063.41
766.213	1038.83
766.397	1034.74
766.58	1006.06
766.763	1075.7
766.946	1071.6
767.129	1073.65
767.312	1018.35
767.495	963.06
767.678	1075.7
767.861	1053.17
768.044	1067.5
768.227	1040.88
768.41	995.82
768.593	1120.75
768.776	969.2
768.959	975.35
769.142	1008.11
769.324	913.91
769.507	1026.54
769.69	967.15
769.873	950.77
770.056	926.19
770.239	961.01
770.421	963.06
770.604	1069.55
770.787	963.06
770.97	973.3
771.152	897.52
771.335	903.67
771.518	1018.35
771.7	905.71
771.883	920.05
772.066	874.99
772.248	948.72
772.431	967.15
772.613	909.81
772.796	895.47
772.978	926.19
773.161	961.01
773.343	889.33
773.526	805.36
773.708	848.37
773.891	944.63
774.073	788.98
774.256	754.16
774.438	934.39
774.621	850.42
774.803	825.84
774.985	838.13
775.168	823.8
775.35	862.71
775.532	805.36
775.715	838.13
775.897	805.36
776.079	907.76
776.261	852.47
776.444	860.66
776.626	719.35
776.808	719.35
776.99	739.83
777.173	780.79
777.355	756.21
777.537	750.07
777.719	752.12
777.901	762.36
778.083	633.33
778.265	696.82
778.447	750.07
778.629	678.39
778.811	696.82
778.993	719.35
779.175	643.57
779.357	674.29
779.539	657.91
779.721	674.29
779.903	799.22
780.085	676.34
780.267	659.96
780.449	637.43
780.631	641.53
780.812	637.43
780.994	627.19
781.176	666.1
781.358	637.43
781.54	625.14
781.721	657.91
781.903	643.57
782.085	567.8
782.267	651.77
782.448	659.96
782.63	604.66
782.812	602.61
782.993	555.51
783.175	535.03
783.357	555.51
783.538	594.42
783.72	551.42
783.901	518.65
784.083	502.26
784.264	555.51
784.446	580.09
784.627	502.26
784.809	514.55
784.99	537.08
785.172	485.88
785.353	461.3
785.535	569.85
785.716	520.7
785.897	469.5
786.079	565.75
786.26	453.11
786.441	477.69
786.623	494.07
786.804	551.42
786.985	514.55
787.167	504.31
787.348	430.59
787.529	461.3
787.71	510.46
787.891	492.02
788.073	397.82
788.254	420.35
788.435	444.92
788.616	438.78
788.797	469.5
788.978	416.25
789.159	418.3
789.34	446.97
789.522	332.28
789.703	469.5
789.884	465.4
790.065	434.68
790.246	373.24
790.427	371.19
790.607	416.25
790.788	391.67
790.969	440.83
791.15	444.92
791.331	365.05
791.512	444.92
791.693	354.81
791.874	358.91
792.054	403.96
792.235	410.11
792.416	338.43
792.597	416.25
792.778	438.78
792.958	395.77
793.139	430.59
793.32	430.59
793.5	379.39
793.681	377.34
793.862	401.91
794.042	360.95
794.223	346.62
794.404	367.1
794.584	352.76
794.765	389.63
794.945	320
795.126	313.85
795.306	360.95
795.487	367.1
795.667	317.95
795.848	379.39
796.028	371.19
796.209	268.8
796.389	350.71
796.57	381.43
796.75	334.33
796.93	356.86
797.111	356.86
797.291	360.95
797.471	340.47
797.652	256.51
797.832	371.19
798.012	297.47
798.192	332.28
798.373	264.7
798.553	317.95
798.733	295.42
798.913	268.8
799.093	303.61
799.274	311.8
799.454	264.7
799.634	328.19
799.814	295.42
799.994	291.32
800.174	326.14
800.354	240.12
800.534	207.36
800.714	272.89
800.894	219.64
801.074	248.32
801.254	307.71
801.434	299.52
801.614	268.8
801.794	268.8
801.974	592.37
802.154	238.08
802.334	283.13
802.514	262.65
802.693	287.23
802.873	242.17
803.053	248.32
803.233	184.83
803.413	225.79
803.592	242.17
803.772	221.69
803.952	233.98
804.131	274.94
804.311	236.03
804.491	313.85
804.67	209.4
804.85	274.94
805.03	207.36
805.209	254.46
805.389	209.4
805.568	242.17
805.748	291.32
805.928	262.65
806.107	217.6
806.287	307.71
806.466	227.84
806.646	199.16
806.825	236.03
807.004	145.92
807.184	258.56
807.363	242.17
807.543	227.84
807.722	188.93
807.901	229.88
808.081	168.45
808.26	168.45
808.439	190.97
808.619	195.07
808.798	219.64
808.977	170.49
809.156	190.97
809.336	203.26
809.515	199.16
809.694	195.07
809.873	176.64
810.052	207.36
810.231	190.97
810.411	215.55
810.59	186.88
810.769	164.35
810.948	223.74
811.127	205.31
811.306	158.21
811.485	182.78
811.664	170.49
811.843	180.73
812.022	221.69
812.201	152.06
812.38	107.01
812.559	170.49
812.737	188.93
812.916	190.97
813.095	184.83
813.274	174.59
813.453	207.36
813.632	180.73
813.811	190.97
813.989	168.45
814.168	223.74
814.347	158.21
814.526	225.79
814.704	162.3
814.883	231.93
815.062	135.68
815.24	209.4
815.419	162.3
815.598	188.93
815.776	152.06
815.955	174.59
816.133	168.45
816.312	131.58
816.49	94.72
816.669	190.97
816.847	88.57
817.026	152.06
817.204	104.96
817.383	61.95
817.561	102.91
817.74	59.9
817.918	182.78
818.097	186.88
818.275	266.75
818.453	174.59
818.632	137.73
818.81	115.2
818.988	92.67
819.167	176.64
819.345	182.78
819.523	205.31
819.701	182.78
819.879	129.53
820.058	162.3
820.236	107.01
820.414	102.91
820.592	117.25
820.77	117.25
820.948	147.97
821.127	107.01
821.305	162.3
821.483	115.2
821.661	150.01
821.839	123.39
822.017	150.01
822.195	111.1
822.373	84.48
822.551	109.05
822.729	190.97
822.907	166.4
823.085	98.81
823.262	113.15
823.44	160.25
823.618	57.86
823.796	190.97
823.974	176.64
824.152	141.82
824.329	64
824.507	125.44
824.685	145.92
824.863	113.15
825.04	84.48
825.218	131.58
825.396	113.15
825.574	-7.68
825.751	39.42
825.929	96.77
826.107	78.33
826.284	104.96
826.462	88.57
826.639	217.6
826.817	76.29
826.994	57.86
827.172	111.1
827.349	141.82
827.527	127.49
827.704	127.49
827.882	86.53
828.059	117.25
828.237	147.97
828.414	55.81
828.591	86.53
828.769	166.4
828.946	88.57
829.124	172.54
829.301	57.86
829.478	121.34
829.655	233.98
829.833	51.71
830.01	96.77
830.187	109.05
830.364	49.66
830.542	121.34
830.719	61.95
830.896	92.67
831.073	51.71
831.25	156.16
831.427	51.71
831.604	76.29
831.782	80.38
831.959	76.29
832.136	107.01
832.313	127.49
832.49	109.05
832.667	111.1
832.844	43.52
833.021	64
833.198	131.58
833.374	143.87
833.551	-22.02
833.728	72.19
833.905	84.48
834.082	25.09
834.259	47.62
834.436	57.86
834.612	55.81
834.789	100.86
834.966	72.19
835.143	107.01
835.319	-1.54
835.496	94.72
835.673	33.28
835.85	92.67
836.026	57.86
836.203	10.75
836.38	104.96
836.556	43.52
836.733	80.38
836.909	119.29
837.086	55.81
837.262	84.48
837.439	57.86
837.616	66.05
837.792	43.52
837.968	68.09
838.145	92.67
838.321	16.9
838.498	90.62
838.674	96.77
838.851	78.33
839.027	147.97
839.203	80.38
839.38	35.33
839.556	-22.02
839.732	61.95
839.909	59.9
840.085	-3.58
840.261	59.9
840.437	49.66
840.614	12.8
840.79	158.21
840.966	86.53
841.142	78.33
841.318	76.29
841.494	82.43
841.671	53.76
841.847	82.43
842.023	100.86
842.199	80.38
842.375	68.09
842.551	92.67
842.727	66.05
842.903	61.95
843.079	55.81
843.255	88.57
843.431	23.04
843.607	121.34
843.783	84.48
843.959	8.7
844.134	20.99
844.31	113.15
844.486	80.38
844.662	20.99
844.838	0.51
845.013	27.14
845.189	78.33
845.365	14.85
845.541	51.71
845.716	102.91
845.892	109.05
846.068	47.62
846.244	55.81
846.419	121.34
846.595	49.66
846.77	43.52
846.946	64
847.122	29.18
847.297	33.28
847.473	180.73
847.648	41.47
847.824	104.96
847.999	31.23
848.175	96.77
848.35	88.57
848.526	123.39
848.701	37.38
848.876	109.05
849.052	47.62
849.227	2.56
849.403	-1.54
849.578	49.66
849.753	47.62
849.929	84.48
850.104	47.62
850.279	-17.92
850.454	59.9
850.63	31.23
850.805	12.8
850.98	100.86
851.155	16.9
851.33	92.67
851.505	47.62
851.681	70.14
851.856	-38.4
852.031	16.9
852.206	66.05
852.381	-5.63
852.556	90.62
852.731	125.44
852.906	43.52
853.081	45.57
853.256	84.48
853.431	25.09
853.606	-22.02
853.781	68.09
853.956	-19.97
854.131	-34.3
854.305	35.33
854.48	16.9
854.655	70.14
854.83	43.52
855.005	10.75
855.18	102.91
855.354	27.14
855.529	-9.73
855.704	16.9
855.879	23.04
856.053	84.48
856.228	61.95
856.403	-7.68
856.577	43.52
856.752	10.75
856.926	4.61
857.101	6.66
857.276	-17.92
857.45	45.57
857.625	57.86
857.799	94.72
857.974	57.86
858.148	35.33
858.323	45.57
858.497	-32.26
858.672	84.48
858.846	35.33
859.02	55.81
859.195	68.09
859.369	57.86
859.543	51.71
859.718	53.76
859.892	41.47
860.066	14.85
860.241	-13.82
860.415	-3.58
860.589	100.86
860.763	74.24
860.938	-11.78
861.112	45.57
861.286	-5.63
861.46	-17.92
861.634	45.57
861.808	45.57
861.982	-11.78
862.157	-19.97
862.331	20.99
862.505	-17.92
862.679	27.14
862.853	-1.54
863.027	-30.21
863.201	135.68
863.375	-1.54
863.549	0.51
863.722	-13.82
863.896	53.76
864.07	16.9
864.244	-9.73
864.418	-1.54
864.592	76.29
864.766	25.09
864.939	-34.3
865.113	-5.63
865.287	41.47
865.461	-38.4
865.634	-11.78
865.808	2.56
865.982	8.7
866.156	37.38
866.329	8.7
866.503	41.47
866.676	-5.63
866.85	74.24
867.024	76.29
867.197	-9.73
867.371	53.76
867.544	39.42
867.718	-30.21
867.891	78.33
868.065	70.14
868.238	47.62
868.412	47.62
868.585	86.53
868.759	-83.45
868.932	29.18
869.105	43.52
869.279	-1.54
869.452	45.57
869.625	64
869.799	37.38
869.972	29.18
870.145	2.56
870.319	23.04
870.492	59.9
870.665	61.95
870.838	23.04
871.011	-40.45
871.185	23.04
871.358	4.61
871.531	-3.58
871.704	2.56
871.877	86.53
872.05	-65.02
872.223	31.23
872.396	27.14
872.569	14.85
872.742	53.76
872.915	-3.58
873.088	18.94
873.261	-26.11
873.434	49.66
873.607	-108.03
873.78	-22.02
873.953	-9.73
874.126	25.09
874.299	-13.82
874.471	6.66
874.644	25.09
874.817	31.23
874.99	-15.87
875.163	6.66
875.335	53.76
875.508	14.85
875.681	35.33
875.853	2.56
876.026	35.33
876.199	31.23
876.371	-46.59
876.544	14.85
876.717	55.81
876.889	-65.02
877.062	29.18
877.234	-19.97
877.407	47.62
877.579	43.52
877.752	-1.54
877.924	-17.92
878.097	82.43
878.269	49.66
878.442	-9.73
878.614	-22.02
878.786	-30.21
878.959	37.38
879.131	-1.54
879.303	-11.78
879.476	-7.68
879.648	33.28
879.82	10.75
879.993	-13.82
880.165	45.57
880.337	35.33
880.509	92.67
880.681	-56.83
880.854	20.99
881.026	23.04
881.198	41.47
881.37	80.38
881.542	8.7
881.714	68.09
881.886	-11.78
882.058	51.71
882.23	53.76
882.402	29.18
882.574	23.04
882.746	66.05
882.918	78.33
883.09	-9.73
883.262	37.38
883.434	-24.06
883.606	20.99
883.778	23.04
883.95	43.52
884.122	33.28
884.293	64
884.465	2.56
884.637	74.24
884.809	-22.02
884.98	16.9
885.152	92.67
885.324	-26.11
885.496	-48.64
885.667	33.28
885.839	59.9
886.011	35.33
886.182	-44.54
886.354	6.66
886.525	25.09
886.697	47.62
886.869	-17.92
887.04	-40.45
887.212	-7.68
887.383	-46.59
887.555	25.09
887.726	-11.78
887.897	4.61
888.069	16.9
888.24	23.04
888.412	66.05
888.583	8.7
888.754	2.56
888.926	-5.63
889.097	-9.73
889.268	2.56
889.44	20.99
889.611	12.8
889.782	14.85
889.953	25.09
890.125	-13.82
890.296	-5.63
890.467	16.9
890.638	-30.21
890.809	-30.21
890.98	-11.78
891.151	-3.58
891.323	64
891.494	51.71
891.665	12.8
891.836	51.71
892.007	27.14
892.178	35.33
892.349	90.62
892.52	78.33
892.691	37.38
892.862	-48.64
893.032	4.61
893.203	72.19
893.374	10.75
893.545	35.33
893.716	76.29
893.887	2.56
894.057	-19.97
894.228	10.75
894.399	-30.21
894.57	-7.68
894.74	-42.5
894.911	33.28
895.082	43.52
895.253	4.61
895.423	-26.11
895.594	98.81
895.764	0.51
895.935	31.23
896.106	12.8
896.276	16.9
896.447	-77.31
896.617	4.61
896.788	20.99
896.958	-56.83
897.129	2.56
897.299	35.33
897.47	8.7
897.64	100.86
897.81	2.56
897.981	12.8
898.151	-28.16
898.322	61.95
898.492	31.23
898.662	23.04
898.832	39.42
899.003	-11.78
899.173	-71.17
899.343	51.71
899.513	55.81
