Data from USB4F104151__149__11-08-19-851.txt Node

Date: Wed Mar 12 11:08:19 EDT 2025
User: louis
Spectrometer: USB4F10415
Trigger mode: 4
Integration Time (sec): 2.000000E-2
Scans to average: 1
Electric dark correction enabled: true
Nonlinearity correction enabled: false
Boxcar width: 0
XAxis mode: Wavelengths
Number of Pixels in Spectrum: 3648
>>>>>Begin Spectral Data<<<<<
178.204	-86.53
178.424	-86.53
178.644	-86.53
178.864	-100.86
179.084	-94.72
179.304	-51.71
179.524	19.97
179.744	-6.66
179.964	34.3
180.184	-10.75
180.404	13.82
180.624	24.06
180.844	1.54
181.064	-31.23
181.283	32.26
181.503	-16.9
181.723	-8.7
181.943	-61.95
182.163	-16.9
182.383	-45.57
182.602	75.26
182.822	13.82
183.042	-66.05
183.262	22.02
183.482	-2.56
183.701	-76.29
183.921	9.73
184.141	-64
184.361	-8.7
184.58	-27.14
184.8	-98.81
185.02	65.02
185.239	-33.28
185.459	5.63
185.679	54.78
185.898	-12.8
186.118	5.63
186.338	-6.66
186.557	32.26
186.777	-16.9
186.997	67.07
187.216	-115.2
187.436	3.58
187.655	-29.18
187.875	15.87
188.095	-31.23
188.314	-39.42
188.534	50.69
188.753	-55.81
188.973	-10.75
189.192	-10.75
189.412	-16.9
189.631	77.31
189.851	11.78
190.07	-14.85
190.29	-8.7
190.509	-0.51
190.729	26.11
190.948	22.02
191.168	50.69
191.387	50.69
191.607	26.11
191.826	9.73
192.045	-12.8
192.265	7.68
192.484	22.02
192.704	-29.18
192.923	-55.81
193.142	-39.42
193.362	5.63
193.581	13.82
193.8	22.02
194.02	30.21
194.239	-70.14
194.458	54.78
194.678	-14.85
194.897	-35.33
195.116	-55.81
195.335	9.73
195.555	-49.66
195.774	-25.09
195.993	42.5
196.212	-35.33
196.432	17.92
196.651	-8.7
196.87	1.54
197.089	95.74
197.308	60.93
197.528	46.59
197.747	5.63
197.966	7.68
198.185	1.54
198.404	-74.24
198.623	5.63
198.842	50.69
199.062	91.65
199.281	17.92
199.5	-51.71
199.719	-78.33
199.938	-12.8
200.157	-23.04
200.376	-0.51
200.595	-35.33
200.814	46.59
201.033	22.02
201.252	9.73
201.471	-61.95
201.69	22.02
201.909	-82.43
202.128	13.82
202.347	22.02
202.566	-64
202.785	-16.9
203.004	-16.9
203.223	71.17
203.442	-25.09
203.661	-86.53
203.879	-33.28
204.098	26.11
204.317	-27.14
204.536	54.78
204.755	-59.9
204.974	34.3
205.193	40.45
205.411	85.5
205.63	52.74
205.849	-35.33
206.068	-10.75
206.287	22.02
206.505	54.78
206.724	-88.57
206.943	44.54
207.162	-57.86
207.381	30.21
207.599	-35.33
207.818	-10.75
208.037	-66.05
208.255	-33.28
208.474	-41.47
208.693	-16.9
208.911	-45.57
209.13	-23.04
209.349	24.06
209.567	-84.48
209.786	28.16
210.005	-8.7
210.223	1.54
210.442	-18.94
210.661	-12.8
210.879	-41.47
211.098	-10.75
211.316	38.4
211.535	-43.52
211.753	-37.38
211.972	1.54
212.191	15.87
212.409	56.83
212.628	-35.33
212.846	-41.47
213.065	54.78
213.283	19.97
213.502	58.88
213.72	-18.94
213.938	-61.95
214.157	-25.09
214.375	-20.99
214.594	22.02
214.812	11.78
215.031	5.63
215.249	30.21
215.467	-10.75
215.686	-4.61
215.904	54.78
216.122	24.06
216.341	22.02
216.559	-35.33
216.778	101.89
216.996	1.54
217.214	9.73
217.432	17.92
217.651	-27.14
217.869	-6.66
218.087	-2.56
218.306	-0.51
218.524	-10.75
218.742	-2.56
218.96	24.06
219.179	-12.8
219.397	1.54
219.615	71.17
219.833	30.21
220.051	-31.23
220.27	5.63
220.488	56.83
220.706	-33.28
220.924	-4.61
221.142	1.54
221.36	-4.61
221.578	58.88
221.796	-35.33
222.015	1.54
222.233	26.11
222.451	17.92
222.669	7.68
222.887	85.5
223.105	-20.99
223.323	-47.62
223.541	-18.94
223.759	40.45
223.977	-59.9
224.195	-64
224.413	17.92
224.631	62.98
224.849	-8.7
225.067	-76.29
225.285	-4.61
225.503	-35.33
225.721	-94.72
225.939	-25.09
226.157	-14.85
226.375	42.5
226.592	34.3
226.81	11.78
227.028	-4.61
227.246	5.63
227.464	-31.23
227.682	-35.33
227.9	11.78
228.117	17.92
228.335	-12.8
228.553	-31.23
228.771	-2.56
228.989	24.06
229.206	34.3
229.424	-55.81
229.642	17.92
229.86	-80.38
230.077	-43.52
230.295	-14.85
230.513	19.97
230.731	24.06
230.948	-18.94
231.166	-0.51
231.384	11.78
231.601	-29.18
231.819	17.92
232.037	1.54
232.254	-18.94
232.472	9.73
232.689	-16.9
232.907	58.88
233.125	-16.9
233.342	-12.8
233.56	-10.75
233.777	-55.81
233.995	26.11
234.213	15.87
234.43	52.74
234.648	24.06
234.865	-43.52
235.083	56.83
235.3	-49.66
235.518	-16.9
235.735	30.21
235.953	-6.66
236.17	-37.38
236.388	30.21
236.605	13.82
236.822	38.4
237.04	1.54
237.257	50.69
237.475	-10.75
237.692	52.74
237.909	-2.56
238.127	50.69
238.344	-31.23
238.562	48.64
238.779	46.59
238.996	34.3
239.214	-20.99
239.431	-51.71
239.648	26.11
239.865	46.59
240.083	-4.61
240.3	-72.19
240.517	-25.09
240.735	58.88
240.952	19.97
241.169	-0.51
241.386	44.54
241.603	-8.7
241.821	-27.14
242.038	95.74
242.255	-57.86
242.472	17.92
242.689	40.45
242.907	52.74
243.124	-31.23
243.341	-14.85
243.558	3.58
243.775	9.73
243.992	-55.81
244.209	46.59
244.426	46.59
244.643	3.58
244.86	-8.7
245.078	38.4
245.295	-33.28
245.512	56.83
245.729	-84.48
245.946	-55.81
246.163	1.54
246.38	-16.9
246.597	17.92
246.814	-57.86
247.031	-12.8
247.248	56.83
247.464	-49.66
247.681	-0.51
247.898	58.88
248.115	3.58
248.332	-59.9
248.549	-14.85
248.766	3.58
248.983	26.11
249.2	-33.28
249.417	32.26
249.633	-61.95
249.85	-37.38
250.067	52.74
250.284	71.17
250.501	36.35
250.717	-29.18
250.934	-127.49
251.151	32.26
251.368	-94.72
251.585	22.02
251.801	19.97
252.018	-39.42
252.235	-31.23
252.451	-25.09
252.668	48.64
252.885	26.11
253.102	-12.8
253.318	36.35
253.535	-31.23
253.752	-12.8
253.968	-35.33
254.185	5.63
254.401	11.78
254.618	5.63
254.835	-4.61
255.051	91.65
255.268	-27.14
255.484	-33.28
255.701	-76.29
255.917	-27.14
256.134	-25.09
256.351	5.63
256.567	60.93
256.784	-37.38
257	7.68
257.217	-33.28
257.433	5.63
257.65	50.69
257.866	30.21
258.082	-0.51
258.299	-12.8
258.515	28.16
258.732	-68.09
258.948	-31.23
259.165	-25.09
259.381	5.63
259.597	-29.18
259.814	17.92
260.03	3.58
260.246	60.93
260.463	38.4
260.679	5.63
260.895	83.45
261.112	13.82
261.328	-72.19
261.544	38.4
261.761	32.26
261.977	-68.09
262.193	5.63
262.409	-2.56
262.626	-82.43
262.842	-0.51
263.058	9.73
263.274	-70.14
263.49	58.88
263.707	-6.66
263.923	3.58
264.139	-33.28
264.355	65.02
264.571	-0.51
264.787	-0.51
265.004	-35.33
265.22	-16.9
265.436	-39.42
265.652	-37.38
265.868	-31.23
266.084	-27.14
266.3	-16.9
266.516	-27.14
266.732	-29.18
266.948	-12.8
267.164	-39.42
267.38	-4.61
267.596	58.88
267.812	-6.66
268.028	54.78
268.244	38.4
268.46	-43.52
268.676	-2.56
268.892	42.5
269.108	11.78
269.324	-35.33
269.54	-25.09
269.756	5.63
269.972	-49.66
270.188	17.92
270.403	-74.24
270.619	15.87
270.835	34.3
271.051	54.78
271.267	-27.14
271.483	-27.14
271.698	22.02
271.914	-25.09
272.13	58.88
272.346	-0.51
272.562	15.87
272.777	54.78
272.993	-39.42
273.209	-18.94
273.425	7.68
273.64	9.73
273.856	32.26
274.072	-39.42
274.287	-16.9
274.503	30.21
274.719	-6.66
274.934	-43.52
275.15	-18.94
275.366	-27.14
275.581	34.3
275.797	30.21
276.012	-10.75
276.228	-25.09
276.444	17.92
276.659	-12.8
276.875	-47.62
277.09	-6.66
277.306	-51.71
277.521	58.88
277.737	-16.9
277.952	22.02
278.168	-45.57
278.383	26.11
278.599	30.21
278.814	42.5
279.03	15.87
279.245	40.45
279.461	44.54
279.676	69.12
279.892	48.64
280.107	-20.99
280.322	-6.66
280.538	-18.94
280.753	5.63
280.969	-16.9
281.184	75.26
281.399	-8.7
281.615	-4.61
281.83	77.31
282.045	32.26
282.26	-27.14
282.476	-61.95
282.691	-47.62
282.906	-20.99
283.122	-4.61
283.337	36.35
283.552	-18.94
283.767	-57.86
283.983	-4.61
284.198	17.92
284.413	46.59
284.628	1.54
284.843	24.06
285.058	13.82
285.274	-39.42
285.489	50.69
285.704	-43.52
285.919	50.69
286.134	54.78
286.349	-20.99
286.564	-41.47
286.779	11.78
286.995	103.93
287.21	36.35
287.425	24.06
287.64	-6.66
287.855	60.93
288.07	-6.66
288.285	17.92
288.5	-0.51
288.715	-39.42
288.93	79.36
289.145	11.78
289.36	24.06
289.575	3.58
289.79	83.45
290.004	-2.56
290.219	38.4
290.434	46.59
290.649	-39.42
290.864	5.63
291.079	-53.76
291.294	-4.61
291.509	54.78
291.724	7.68
291.938	-29.18
292.153	60.93
292.368	-10.75
292.583	-12.8
292.798	-16.9
293.012	-10.75
293.227	73.21
293.442	19.97
293.657	42.5
293.871	26.11
294.086	-27.14
294.301	52.74
294.516	58.88
294.73	42.5
294.945	-23.04
295.16	24.06
295.374	-55.81
295.589	44.54
295.804	-6.66
296.018	7.68
296.233	52.74
296.447	58.88
296.662	-33.28
296.877	46.59
297.091	22.02
297.306	-39.42
297.52	9.73
297.735	-2.56
297.949	9.73
298.164	-8.7
298.378	-8.7
298.593	-68.09
298.807	-78.33
299.022	34.3
299.236	34.3
299.451	46.59
299.665	38.4
299.88	24.06
300.094	-6.66
300.309	32.26
300.523	-25.09
300.737	-6.66
300.952	3.58
301.166	36.35
301.381	-10.75
301.595	-55.81
301.809	15.87
302.024	52.74
302.238	9.73
302.452	17.92
302.667	24.06
302.881	60.93
303.095	19.97
303.309	50.69
303.524	-33.28
303.738	-18.94
303.952	26.11
304.166	-45.57
304.381	-18.94
304.595	-0.51
304.809	3.58
305.023	1.54
305.237	-6.66
305.452	11.78
305.666	-49.66
305.88	13.82
306.094	46.59
306.308	26.11
306.522	17.92
306.736	50.69
306.95	38.4
307.164	15.87
307.379	-25.09
307.593	36.35
307.807	54.78
308.021	3.58
308.235	-33.28
308.449	-33.28
308.663	-0.51
308.877	32.26
309.091	28.16
309.305	36.35
309.519	-27.14
309.733	5.63
309.947	-29.18
310.161	-14.85
310.374	52.74
310.588	34.3
310.802	-2.56
311.016	-20.99
311.23	22.02
311.444	-6.66
311.658	1.54
311.872	60.93
312.085	71.17
312.299	85.5
312.513	-8.7
312.727	1.54
312.941	-33.28
313.154	9.73
313.368	26.11
313.582	-57.86
313.796	-2.56
314.009	69.12
314.223	91.65
314.437	-0.51
314.651	1.54
314.864	-8.7
315.078	-45.57
315.292	79.36
315.505	-64
315.719	42.5
315.933	-14.85
316.146	5.63
316.36	17.92
316.573	116.22
316.787	34.3
317.001	30.21
317.214	-23.04
317.428	46.59
317.641	44.54
317.855	-29.18
318.068	-10.75
318.282	85.5
318.495	-10.75
318.709	-2.56
318.922	-39.42
319.136	71.17
319.349	34.3
319.563	24.06
319.776	15.87
319.99	1.54
320.203	30.21
320.417	50.69
320.63	97.79
320.843	9.73
321.057	-0.51
321.27	-29.18
321.483	-0.51
321.697	22.02
321.91	-16.9
322.124	1.54
322.337	7.68
322.55	13.82
322.763	19.97
322.977	87.55
323.19	1.54
323.403	19.97
323.617	26.11
323.83	-6.66
324.043	-25.09
324.256	60.93
324.469	3.58
324.683	3.58
324.896	-47.62
325.109	77.31
325.322	-41.47
325.535	91.65
325.748	97.79
325.962	-18.94
326.175	17.92
326.388	-4.61
326.601	-12.8
326.814	32.26
327.027	36.35
327.24	15.87
327.453	-45.57
327.666	28.16
327.879	62.98
328.092	67.07
328.305	-37.38
328.518	1.54
328.731	15.87
328.944	34.3
329.157	1.54
329.37	79.36
329.583	22.02
329.796	46.59
330.009	-25.09
330.222	-12.8
330.435	65.02
330.648	36.35
330.861	56.83
331.073	-43.52
331.286	13.82
331.499	38.4
331.712	38.4
331.925	-8.7
332.138	62.98
332.35	56.83
332.563	19.97
332.776	13.82
332.989	7.68
333.202	-0.51
333.414	26.11
333.627	7.68
333.84	-12.8
334.053	5.63
334.265	5.63
334.478	50.69
334.691	-25.09
334.903	122.37
335.116	-14.85
335.329	42.5
335.541	22.02
335.754	81.41
335.966	17.92
336.179	1.54
336.392	19.97
336.604	3.58
336.817	81.41
337.029	-4.61
337.242	15.87
337.454	-18.94
337.667	-39.42
337.88	71.17
338.092	50.69
338.305	-0.51
338.517	-6.66
338.729	-4.61
338.942	38.4
339.154	30.21
339.367	22.02
339.579	-27.14
339.792	-6.66
340.004	42.5
340.217	11.78
340.429	-29.18
340.641	-49.66
340.854	15.87
341.066	11.78
341.278	95.74
341.491	17.92
341.703	11.78
341.915	-4.61
342.128	22.02
342.34	5.63
342.552	-2.56
342.764	7.68
342.977	5.63
343.189	-2.56
343.401	79.36
343.613	-8.7
343.826	-0.51
344.038	-23.04
344.25	19.97
344.462	22.02
344.674	62.98
344.886	17.92
345.099	-45.57
345.311	60.93
345.523	9.73
345.735	-20.99
345.947	42.5
346.159	50.69
346.371	-27.14
346.583	-4.61
346.795	42.5
347.007	13.82
347.219	-31.23
347.431	42.5
347.643	3.58
347.855	34.3
348.067	3.58
348.279	-12.8
348.491	3.58
348.703	24.06
348.915	-55.81
349.127	1.54
349.339	32.26
349.551	24.06
349.763	-2.56
349.975	36.35
350.187	1.54
350.399	54.78
350.61	87.55
350.822	-18.94
351.034	24.06
351.246	52.74
351.458	32.26
351.669	67.07
351.881	42.5
352.093	48.64
352.305	144.89
352.517	24.06
352.728	5.63
352.94	-33.28
353.152	83.45
353.363	-6.66
353.575	3.58
353.787	-37.38
353.999	-2.56
354.21	24.06
354.422	40.45
354.633	-57.86
354.845	-6.66
355.057	7.68
355.268	-2.56
355.48	46.59
355.692	7.68
355.903	34.3
356.115	-14.85
356.326	19.97
356.538	30.21
356.749	5.63
356.961	101.89
357.172	-6.66
357.384	19.97
357.595	32.26
357.807	19.97
358.018	77.31
358.23	3.58
358.441	17.92
358.653	-2.56
358.864	24.06
359.075	17.92
359.287	-8.7
359.498	60.93
359.709	-6.66
359.921	36.35
360.132	17.92
360.344	15.87
360.555	24.06
360.766	40.45
360.977	-0.51
361.189	46.59
361.4	-23.04
361.611	42.5
361.823	46.59
362.034	11.78
362.245	1.54
362.456	-27.14
362.667	-86.53
362.879	24.06
363.09	-4.61
363.301	62.98
363.512	13.82
363.723	13.82
363.935	3.58
364.146	97.79
364.357	-2.56
364.568	75.26
364.779	26.11
364.99	15.87
365.201	50.69
365.412	99.84
365.623	48.64
365.834	-4.61
366.045	58.88
366.256	71.17
366.467	69.12
366.678	13.82
366.889	-0.51
367.1	30.21
367.311	-29.18
367.522	3.58
367.733	-29.18
367.944	17.92
368.155	-55.81
368.366	48.64
368.577	79.36
368.788	34.3
368.999	5.63
369.209	-2.56
369.42	3.58
369.631	77.31
369.842	19.97
370.053	28.16
370.264	40.45
370.474	11.78
370.685	-80.38
370.896	26.11
371.107	83.45
371.317	36.35
371.528	-6.66
371.739	56.83
371.95	58.88
372.16	24.06
372.371	-16.9
372.582	5.63
372.792	5.63
373.003	26.11
373.214	9.73
373.424	-39.42
373.635	13.82
373.846	-4.61
374.056	83.45
374.267	-31.23
374.477	15.87
374.688	42.5
374.898	54.78
375.109	42.5
375.319	-29.18
375.53	60.93
375.74	7.68
375.951	24.06
376.161	-8.7
376.372	-27.14
376.582	-33.28
376.793	-18.94
377.003	-43.52
377.214	79.36
377.424	13.82
377.635	22.02
377.845	46.59
378.055	71.17
378.266	7.68
378.476	-33.28
378.686	40.45
378.897	-6.66
379.107	81.41
379.317	22.02
379.528	42.5
379.738	26.11
379.948	40.45
380.158	-27.14
380.369	38.4
380.579	30.21
380.789	48.64
380.999	44.54
381.21	-18.94
381.42	112.13
381.63	44.54
381.84	58.88
382.05	85.5
382.261	54.78
382.471	103.93
382.681	-2.56
382.891	73.21
383.101	60.93
383.311	32.26
383.521	-104.96
383.731	38.4
383.941	71.17
384.151	7.68
384.361	-45.57
384.571	54.78
384.781	69.12
384.991	83.45
385.201	56.83
385.411	40.45
385.621	48.64
385.831	19.97
386.041	101.89
386.251	24.06
386.461	58.88
386.671	24.06
386.881	67.07
387.091	-20.99
387.301	48.64
387.511	48.64
387.72	-57.86
387.93	52.74
388.14	-0.51
388.35	-29.18
388.56	-4.61
388.769	58.88
388.979	26.11
389.189	15.87
389.399	1.54
389.609	3.58
389.818	-18.94
390.028	3.58
390.238	75.26
390.447	5.63
390.657	-6.66
390.867	38.4
391.076	22.02
391.286	79.36
391.496	44.54
391.705	11.78
391.915	58.88
392.125	65.02
392.334	56.83
392.544	93.69
392.753	62.98
392.963	19.97
393.172	44.54
393.382	7.68
393.591	32.26
393.801	56.83
394.01	95.74
394.22	26.11
394.429	-16.9
394.639	-0.51
394.848	48.64
395.058	56.83
395.267	73.21
395.477	75.26
395.686	3.58
395.895	157.18
396.105	22.02
396.314	65.02
396.524	38.4
396.733	85.5
396.942	62.98
397.152	-16.9
397.361	48.64
397.57	48.64
397.78	22.02
397.989	126.46
398.198	126.46
398.407	-8.7
398.617	42.5
398.826	81.41
399.035	-14.85
399.244	38.4
399.453	42.5
399.663	83.45
399.872	15.87
400.081	58.88
400.29	83.45
400.499	44.54
400.708	42.5
400.917	114.17
401.127	62.98
401.336	85.5
401.545	85.5
401.754	91.65
401.963	89.6
402.172	99.84
402.381	73.21
402.59	58.88
402.799	71.17
403.008	132.61
403.217	58.88
403.426	122.37
403.635	65.02
403.844	81.41
404.053	79.36
404.262	71.17
404.471	87.55
404.68	140.8
404.888	95.74
405.097	118.27
405.306	118.27
405.515	136.7
405.724	87.55
405.933	165.37
406.142	105.98
406.35	101.89
406.559	124.41
406.768	187.9
406.977	212.48
407.185	165.37
407.394	208.38
407.603	183.81
407.812	146.94
408.02	177.66
408.229	214.52
408.438	163.33
408.646	183.81
408.855	187.9
409.064	210.43
409.272	235
409.481	232.96
409.69	165.37
409.898	181.76
410.107	280.06
410.315	261.63
410.524	206.33
410.733	316.92
410.941	294.4
411.15	284.16
411.358	343.55
411.567	400.89
411.775	366.07
411.984	407.03
412.192	378.36
412.401	370.17
412.609	443.9
412.818	372.22
413.026	427.51
413.234	439.8
413.443	474.62
413.651	439.8
413.86	400.89
414.068	521.72
414.276	529.91
414.485	548.34
414.693	511.48
414.901	622.07
415.11	615.93
415.318	656.89
415.526	669.17
415.734	716.28
415.943	749.04
416.151	699.89
416.359	787.96
416.567	802.29
416.776	781.81
416.984	816.63
417.192	878.07
417.4	902.64
417.608	871.92
417.817	908.79
418.025	1048.05
418.233	968.18
418.441	1062.38
418.649	1082.86
418.857	1086.96
419.065	1134.06
419.273	1195.5
419.481	1191.41
419.689	1136.11
419.897	1361.39
420.105	1347.05
420.313	1357.29
420.521	1490.41
420.729	1453.55
420.937	1469.93
421.145	1523.18
421.353	1656.29
421.561	1822.18
421.769	1904.1
421.977	1877.48
422.185	1844.71
422.393	2012.64
422.601	2018.79
422.809	2012.64
423.017	2078.18
423.224	2098.66
423.432	2201.05
423.64	2137.57
423.848	2444.76
424.056	2463.19
424.263	2475.48
424.471	2655.7
424.679	2637.27
424.887	2909.65
425.094	2938.32
425.302	2840.02
425.51	2911.7
425.718	3141.07
425.925	3130.83
426.133	3198.42
426.341	3454.41
426.548	3526.09
426.756	3562.95
426.964	3581.39
427.171	3814.85
427.379	3825.09
427.586	3980.74
427.794	4079.04
428.001	4224.45
428.209	4431.29
428.417	4437.44
428.624	4715.96
428.832	4926.9
429.039	4734.39
429.247	4746.68
429.454	5160.37
429.662	5516.72
429.869	5066.16
430.076	5467.56
430.284	5395.89
430.491	5694.89
430.699	6038.95
430.906	5995.94
431.114	6057.38
431.321	6225.31
431.528	6372.77
431.736	6759.83
431.943	7069.08
432.15	6995.35
432.358	7128.47
432.565	7357.84
432.772	7196.05
432.979	7675.27
433.187	7914.89
433.394	7855.5
433.601	8316.29
433.808	8430.98
434.016	8254.85
434.223	8760.7
434.43	9395.57
434.637	9348.47
434.844	9756.01
435.052	9790.83
435.259	9811.31
435.466	9862.51
435.673	9670
435.88	10319.2
436.087	10835.29
436.294	10708.32
436.501	10691.93
436.708	10929.5
436.915	11242.84
437.122	11885.9
437.329	11588.94
437.537	11984.2
437.743	12342.6
437.95	12045.64
438.157	12703.04
438.364	13255.99
438.571	13346.1
438.778	13352.24
438.985	14658.85
439.192	13894.96
439.399	14464.29
439.606	14015.79
439.813	14953.76
440.02	15826.19
440.227	15357.21
440.433	15183.13
440.64	16024.84
440.847	15834.38
441.054	16041.23
441.261	17102.08
441.467	16979.2
441.674	17507.57
441.881	17798.38
442.088	18003.18
442.294	17616.12
442.501	18195.69
442.708	18617.57
442.914	19334.36
443.121	19901.65
443.328	19803.35
443.534	20937.92
443.741	20528.33
443.948	20380.87
444.154	21638.33
444.361	21470.39
444.568	21650.61
444.774	21804.21
444.981	21935.28
445.187	22508.71
445.394	23626.9
445.6	23078.05
445.807	25240.7
446.013	24315.02
446.22	24972.42
446.426	25341.05
446.633	25744.5
446.839	26623.08
447.046	25629.82
447.252	27006.05
447.459	27038.82
447.665	27216.99
447.871	28326.99
448.078	29111.36
448.284	27806.81
448.491	28507.21
448.697	29795.39
448.903	30383.15
449.11	30219.31
449.316	29596.73
449.522	30387.25
449.728	31157.28
449.935	31505.44
450.141	31448.1
450.347	31460.38
450.553	30839.85
450.76	31466.53
450.966	32189.46
451.172	32148.5
451.378	32891.91
451.584	31921.18
451.791	32898.06
451.997	32627.73
452.203	33061.9
452.409	32959.5
452.615	32953.35
452.821	31769.63
453.027	31665.18
453.233	32799.76
453.44	31482.91
453.646	32283.67
453.852	32164.89
454.058	32859.15
454.264	31513.63
454.47	32185.36
454.676	31267.87
454.882	32502.8
455.088	29768.76
455.294	29928.5
455.5	30755.88
455.705	30786.6
455.911	29420.61
456.117	28896.33
456.323	28664.91
456.529	27145.31
456.735	28294.22
456.941	27372.64
457.147	27073.63
457.352	26408.05
457.558	25758.84
457.764	26133.62
457.97	25416.83
458.176	24749.19
458.381	24593.54
458.587	23565.46
458.793	23661.72
458.999	22367.4
459.204	23852.18
459.41	23348.38
459.616	22023.34
459.821	21904.56
460.027	21732.53
460.233	21488.82
460.438	20155.6
460.644	20597.96
460.85	19709.14
461.055	19291.35
461.261	19252.44
461.466	17380.6
461.672	17130.75
461.878	18375.91
462.083	17181.95
462.289	16889.09
462.494	16729.34
462.7	15951.12
462.905	15465.75
463.111	16182.54
463.316	15901.97
463.522	16006.41
463.727	15756.56
463.932	15832.33
464.138	15654.16
464.343	15873.29
464.549	15394.07
464.754	15861.01
464.959	15840.53
465.165	15691.02
465.37	14857.5
465.575	14550.31
465.781	15062.3
465.986	15209.75
466.191	14697.76
466.397	14419.24
466.602	13663.54
466.807	14089.51
467.012	14136.62
467.218	14118.18
467.423	13823.28
467.628	14136.62
467.833	14562.59
468.038	13989.16
468.244	13565.23
468.449	14226.73
468.654	13792.56
468.859	13618.48
469.064	13612.34
469.269	12948.79
469.474	13110.58
469.679	13239.61
469.885	12866.88
470.09	13255.99
470.295	13002.04
470.5	12647.74
470.705	12709.18
470.91	12612.93
471.115	12481.86
471.32	12590.4
471.525	12483.91
471.73	12152.13
471.935	12209.48
472.139	11724.11
472.344	11740.49
472.549	11775.31
472.754	11797.84
472.959	11609.42
473.164	11261.27
473.369	11158.87
473.574	11550.03
473.778	11320.66
473.983	11275.6
474.188	11134.29
474.393	10419.55
474.598	10761.56
474.802	10540.38
475.007	10597.73
475.212	10624.35
475.417	10112.36
475.621	10073.45
475.826	9981.29
476.031	10085.73
476.235	9934.18
476.44	9876.84
476.645	9725.29
476.849	9923.94
477.054	9547.12
477.259	9454.96
477.463	9473.39
477.668	9244.02
477.872	9311.6
478.077	9479.54
478.282	8889.72
478.486	9229.68
478.691	8959.35
478.895	8949.11
479.1	8715.64
479.304	8815.99
479.509	8572.29
479.713	8748.41
479.918	8523.13
480.122	8318.34
480.326	8609.15
480.531	8490.37
480.735	8502.65
480.94	8205.7
481.144	8607.1
481.348	8250.75
481.553	8453.5
481.757	8308.1
481.961	8332.67
482.166	8418.69
482.37	8115.59
482.574	8009.09
482.778	8394.11
482.983	8355.2
483.187	8097.16
483.391	8191.36
483.595	8312.19
483.8	8193.41
484.004	8201.6
484.208	8328.58
484.412	8334.72
484.616	8131.97
484.821	8179.08
485.025	8056.2
485.229	8383.87
485.433	8025.48
485.637	8121.73
485.841	8023.43
486.045	8041.86
486.249	8119.68
486.453	8023.43
486.657	8297.86
486.861	8123.78
487.065	7914.89
487.269	8123.78
487.473	8045.96
487.677	8177.03
487.881	8271.23
488.085	8152.45
488.289	8254.85
488.493	8252.8
488.697	8301.95
488.901	8306.05
489.105	8209.79
489.309	8195.46
489.512	8187.27
489.716	8172.93
489.92	8129.92
490.124	8254.85
490.328	8394.11
490.531	8392.06
490.735	8306.05
490.939	8465.79
491.143	8195.46
491.346	8363.39
491.55	8523.13
491.754	8457.6
491.958	8656.25
492.161	8598.91
492.365	8734.07
492.569	8676.73
492.772	8623.48
492.976	8729.98
493.18	8768.89
493.383	8693.12
493.587	8760.7
493.79	9035.13
493.994	8727.93
494.197	8971.64
494.401	9100.66
494.605	9106.81
494.808	9172.34
495.012	9293.17
495.215	9307.51
495.419	9389.42
495.622	9457.01
495.825	9571.69
496.029	9487.73
496.232	9565.55
496.436	9602.41
496.639	9837.93
496.843	9809.26
497.046	10046.82
497.249	10108.26
497.453	10063.21
497.656	10325.35
497.859	10294.63
498.063	10401.12
498.266	10702.17
498.469	10640.73
498.673	10904.92
498.876	10880.35
499.079	10974.55
499.282	10945.88
499.485	11152.73
499.689	11289.94
499.892	11601.23
500.095	11562.32
500.298	11865.42
500.501	11588.94
500.705	12084.55
500.908	12029.26
501.111	12250.44
501.314	12340.55
501.517	12492.1
501.72	12821.82
501.923	12533.06
502.126	12799.29
502.329	12989.75
502.532	13129.02
502.735	13104.44
502.938	13636.91
503.141	13407.54
503.344	13778.22
503.547	13581.62
503.75	13829.42
503.953	14251.3
504.156	14112.04
504.359	14386.47
504.562	14431.52
504.765	14818.59
504.968	14837.02
505.17	15121.69
505.373	14964
505.576	15289.62
505.779	15404.31
505.982	15869.2
506.185	16026.89
506.387	15764.75
506.59	16190.73
506.793	16385.29
506.996	16622.85
507.198	16960.77
507.401	16801.02
507.604	16811.26
507.807	17308.92
508.009	17380.6
508.212	17466.61
508.415	17935.6
508.617	18005.23
508.82	18177.26
509.022	18048.24
509.225	18582.76
509.428	18808.03
509.63	18846.94
509.833	18914.53
510.035	18986.21
510.238	19123.42
510.44	19592.41
510.643	19827.92
510.845	19903.7
511.048	19928.27
511.25	20214.99
511.453	20401.35
511.655	20872.39
511.858	20772.04
512.06	21314.75
512.262	21271.74
512.465	21290.17
512.667	21900.47
512.87	21974.19
513.072	21671.09
513.274	22103.21
513.477	22367.4
513.679	22445.23
513.881	22748.32
514.084	23002.27
514.286	22932.64
514.488	23544.98
514.69	24054.93
514.893	23846.04
515.095	23930
515.297	24431.76
515.499	24452.23
515.701	24763.53
515.904	24802.44
516.106	25015.43
516.308	25400.44
516.51	25851
516.712	25783.41
516.914	25912.44
517.116	26309.74
517.318	26539.12
517.52	26639.47
517.722	26936.42
517.925	27006.05
518.127	27391.07
518.329	27665.5
518.531	27528.28
518.733	28144.72
518.935	28114
519.136	28101.72
519.338	29191.23
519.54	29045.83
519.742	29346.88
519.944	29041.73
520.146	29707.32
520.348	29451.33
520.55	29973.56
520.752	30202.93
520.954	30590
521.155	30440.5
521.357	30913.58
521.559	31355.94
521.761	31798.3
521.963	31398.94
522.164	31755.29
522.366	31829.02
522.568	31859.74
522.77	32158.74
522.971	33008.65
523.173	32498.7
523.375	33180.68
523.576	32828.43
523.778	33115.14
523.98	33465.35
524.181	33684.48
524.383	33672.19
524.584	34325.49
524.786	34030.58
524.988	34188.28
525.189	34579.44
525.391	34638.83
525.592	34950.12
525.794	34866.16
525.995	34948.07
526.197	35249.13
526.398	35044.33
526.6	35515.36
526.801	35634.14
527.003	36203.48
527.204	35924.96
527.406	36099.03
527.607	35918.81
527.808	36432.85
528.01	36105.18
528.211	36461.52
528.412	37233.61
528.614	36920.27
528.815	36938.7
529.016	37110.73
529.218	37014.48
529.419	37157.83
529.62	37227.46
529.822	37073.87
530.023	37331.91
530.224	37100.49
530.425	37247.94
530.626	37243.85
530.828	37057.48
531.029	37974.97
531.23	37620.67
531.431	37280.71
531.632	37817.28
531.833	38040.51
532.035	37897.15
532.236	38028.22
532.437	38095.8
532.638	37960.64
532.839	38212.54
533.04	37915.58
533.241	38052.8
533.442	38681.52
533.643	37985.21
533.844	38134.71
534.045	38468.53
534.246	37905.34
534.447	38583.22
534.648	38235.06
534.849	38417.33
535.05	38099.9
535.251	38052.8
535.451	38194.11
535.652	38300.6
535.853	38042.56
536.054	38464.44
536.255	38484.92
536.456	37870.53
536.657	38747.06
536.857	38335.42
537.058	38564.79
537.259	38497.2
537.46	38951.85
537.66	38052.8
537.861	38656.95
538.062	38108.09
538.263	38738.86
538.463	38292.41
538.664	38198.2
538.865	38204.35
539.065	38869.93
539.266	38398.9
539.466	38710.19
539.667	38308.79
539.868	38556.6
540.068	38091.71
540.269	38591.41
540.469	38581.17
540.67	38429.62
540.87	38753.2
541.071	38433.72
541.271	38171.58
541.472	38368.18
541.672	38230.97
541.873	38423.48
542.073	37954.49
542.274	38476.72
542.474	38253.5
542.675	37753.79
542.875	38906.8
543.075	38132.67
543.276	38065.08
543.476	38476.72
543.676	38134.71
543.877	38357.94
544.077	38253.5
544.277	37917.63
544.478	38134.71
544.678	38441.91
544.878	38300.6
545.078	38190.01
545.279	38071.23
545.479	38222.78
545.679	38321.08
545.879	38243.26
546.079	38310.84
546.28	37804.99
546.48	37643.2
546.68	38124.47
546.88	38194.11
547.08	38333.37
547.28	38327.22
547.48	37680.07
547.68	37884.86
547.88	37694.4
548.081	38245.3
548.281	37872.57
548.481	38142.91
548.681	38425.53
548.881	38013.88
549.081	37882.81
549.28	37870.53
549.48	38560.69
549.68	37716.93
549.88	38366.13
550.08	37866.43
550.28	38044.6
550.48	37700.54
550.68	37950.4
550.88	37919.68
551.08	38011.84
551.279	37989.31
551.479	37721.02
551.679	37645.25
551.879	37555.14
552.079	37784.51
552.278	37790.66
552.478	37544.9
552.678	37643.2
552.878	37544.9
553.077	37934.01
553.277	37188.55
553.477	37960.64
553.676	37344.2
553.876	37516.23
554.076	37391.3
554.275	37510.08
554.475	37266.38
554.674	37219.27
554.874	37262.28
555.074	37000.14
555.273	37309.38
555.473	37557.19
555.672	37071.82
555.872	37178.31
556.071	37278.66
556.271	37475.27
556.47	37018.57
556.67	36658.13
556.869	36920.27
557.068	37278.66
557.268	36924.36
557.467	37000.14
557.667	36981.71
557.866	36543.44
558.065	36535.25
558.265	36705.23
558.464	36801.49
558.663	36647.89
558.863	36387.8
559.062	36692.94
559.261	36080.6
559.461	37114.83
559.66	35660.77
559.859	36293.59
560.058	36070.36
560.258	36074.46
560.457	35687.39
560.656	36215.77
560.855	35898.33
561.054	35816.41
561.253	35666.91
561.453	36039.64
561.652	35914.72
561.851	35769.31
562.05	35726.3
562.249	35533.79
562.448	35812.32
562.647	35623.9
562.846	35560.42
563.045	35441.64
563.244	35208.17
563.443	35736.54
563.642	34831.34
563.841	35120.1
564.04	34933.74
564.239	35251.17
564.438	34634.74
564.637	35085.29
564.836	35236.84
565.035	34569.2
565.234	35181.54
565.432	34489.33
565.631	34362.36
565.83	34556.91
566.029	34485.23
566.228	34348.02
566.427	34200.57
566.625	34186.23
566.824	33745.92
567.023	33926.14
567.222	33649.66
567.42	34020.34
567.619	33782.78
567.818	33520.64
568.016	33451.01
568.215	33317.89
568.414	33090.57
568.612	33913.85
568.811	33197.06
569.01	33274.88
569.208	32875.53
569.407	33156.1
569.605	32701.45
569.804	33074.18
570.002	32857.1
570.201	32721.93
570.4	32619.53
570.598	32572.43
570.797	32203.8
570.995	32443.41
571.193	32123.93
571.392	32510.99
571.59	32455.7
571.789	32291.86
571.987	31847.45
572.186	31910.94
572.384	31738.91
572.582	31847.45
572.781	31798.3
572.979	31278.11
573.177	31314.98
573.376	31718.43
573.574	31231.01
573.772	31304.74
573.971	30766.12
574.169	30751.79
574.367	30590
574.565	31132.71
574.763	30798.89
574.962	30563.37
575.16	30565.42
575.358	30641.2
575.556	30399.54
575.754	30843.95
575.952	30571.57
576.151	30592.05
576.349	30252.08
576.547	30106.68
576.745	30250.03
576.943	29910.07
577.141	29742.14
577.339	30092.34
577.537	29420.61
577.735	29531.2
577.933	29465.66
578.131	29412.42
578.329	29463.61
578.527	29365.31
578.725	29183.04
578.923	29187.14
579.121	28978.25
579.319	28763.21
579.516	29176.9
579.714	28628.04
579.912	28486.73
580.11	28822.6
580.308	28755.02
580.506	28570.7
580.704	28126.29
580.901	28304.46
581.099	28419.15
581.297	28423.25
581.495	28351.57
581.692	28267.6
581.89	27827.29
582.088	28173.39
582.285	27858.01
582.483	27935.83
582.681	27735.13
582.878	27636.83
583.076	27384.93
583.274	27665.5
583.471	27395.17
583.669	27577.44
583.866	27376.73
584.064	27739.22
584.262	26700.9
584.459	27376.73
584.657	27024.48
584.854	26909.8
585.052	26584.17
585.249	27001.96
585.447	27206.75
585.644	26489.96
585.841	26500.2
586.039	26877.03
586.236	26414.19
586.434	26156.14
586.631	25984.12
586.828	26272.88
587.026	26094.71
587.223	26059.89
587.42	26262.64
587.618	25980.02
587.815	25676.92
588.012	25597.05
588.21	25547.9
588.407	25771.13
588.604	25627.77
588.801	25527.42
588.999	25400.44
589.196	25427.07
589.393	25472.12
589.59	25304.19
589.787	24908.93
589.984	25187.46
590.182	24896.64
590.379	24966.28
590.576	24853.64
590.773	24671.37
590.97	24597.64
591.167	24824.97
591.364	24515.72
591.561	24704.14
591.758	24186
591.955	24374.41
592.152	24312.97
592.349	24362.12
592.546	23966.87
592.743	24175.76
592.94	23661.72
593.137	23970.96
593.334	24188.05
593.531	23549.08
593.727	23665.81
593.924	23913.62
594.121	23178.4
594.318	23676.05
594.515	23401.63
594.712	23487.64
594.908	23084.19
595.105	23489.69
595.302	23303.32
595.499	23284.89
595.696	23223.45
595.892	22512.81
596.089	23149.73
596.286	22946.98
596.482	22971.55
596.679	22715.56
596.876	22934.69
597.072	22592.68
597.269	22834.34
597.466	22228.14
597.662	22338.73
597.859	22549.67
598.055	22338.73
598.252	22160.56
598.448	22129.84
598.645	22398.12
598.841	21935.28
599.038	22209.71
599.234	21904.56
599.431	21531.83
599.627	21636.28
599.824	21918.9
600.02	21408.95
600.217	21753.01
600.413	21394.62
600.609	21480.63
600.806	21290.17
601.002	21431.48
601.198	21204.16
601.395	21138.62
601.591	20786.37
601.787	20903.11
601.984	20780.23
602.18	20901.06
602.376	20704.45
602.572	20790.47
602.769	20493.51
602.965	20370.63
603.161	20563.14
603.357	20456.65
603.553	20470.98
603.75	20382.92
603.946	20364.49
604.142	20307.15
604.338	20135.12
604.534	20298.95
604.73	19981.52
604.926	20036.81
605.122	19983.57
605.318	19979.47
605.514	19727.57
605.71	19725.52
605.906	19571.93
606.102	19477.72
606.298	19729.62
606.494	19563.73
606.69	19825.87
606.886	19522.77
607.082	19313.88
607.278	19602.64
607.474	19152.09
607.67	19334.36
607.866	18969.82
608.062	19545.3
608.257	19127.52
608.453	19072.22
608.649	19082.46
608.845	19031.26
609.041	18978.01
609.236	19018.97
609.432	18631.91
609.628	18986.21
609.824	18812.13
610.019	18629.86
610.215	18736.35
610.411	18859.23
610.606	18584.8
610.802	18722.02
610.998	18490.6
611.193	18676.96
611.389	18398.44
611.584	18283.75
611.78	18189.55
611.976	18601.19
612.171	18132.2
612.367	18060.52
612.562	17904.88
612.758	18087.15
612.953	17886.45
613.149	18521.32
613.344	17849.58
613.539	18171.11
613.735	18085.1
613.93	18261.23
614.126	17759.47
614.321	18111.72
614.517	17665.27
614.712	17685.75
614.907	17847.54
615.103	17753.33
615.298	17431.8
615.493	17886.45
615.688	17218.81
615.884	17724.66
616.079	17272.06
616.274	17673.46
616.47	17489.14
616.665	17442.04
616.86	17399.03
617.055	17517.81
617.25	17257.72
617.445	17585.4
617.641	17294.58
617.836	17370.36
618.031	16760.06
618.226	17374.45
618.421	16962.81
618.616	17079.55
618.811	16651.52
619.006	17061.12
619.201	16473.35
619.396	16798.98
619.591	16532.74
619.786	16739.58
619.981	16270.6
620.176	16907.52
620.371	16176.39
620.566	16329.99
620.761	16094.47
620.956	16319.75
621.151	16125.19
621.346	15957.26
621.541	15961.36
621.735	16008.46
621.93	15760.66
622.125	15725.84
622.32	15693.07
622.515	15686.93
622.709	15578.39
622.904	15430.93
623.099	15392.02
623.294	15164.7
623.488	15172.89
623.683	15381.78
623.878	14980.38
624.072	15183.13
624.267	14968.09
624.462	14777.63
624.656	14683.42
624.851	14800.16
625.046	14714.14
625.24	14570.79
625.435	14531.87
625.629	14517.54
625.824	14263.59
626.018	14265.64
626.213	14062.89
626.407	14159.14
626.602	13901.1
626.796	13956.4
626.991	13796.65
627.185	13759.79
627.38	13806.89
627.574	13864.24
627.768	13628.72
627.963	13458.74
628.157	13714.73
628.352	13350.2
628.546	13137.21
628.74	13120.82
628.935	13110.58
629.129	13137.21
629.323	12934.46
629.517	13061.43
629.712	12866.88
629.906	12959.03
630.1	12840.25
630.294	12645.7
630.489	12381.51
630.683	12563.78
630.877	12279.11
631.071	12313.92
631.265	12488
631.459	12176.71
631.653	12164.42
631.848	12088.65
632.042	12178.76
632.236	12209.48
632.43	11908.43
632.624	11963.72
632.818	11830.6
633.012	11533.65
633.206	11629.9
633.4	11754.83
633.594	11621.71
633.788	11849.04
633.982	11418.96
634.176	11455.83
634.369	11263.32
634.563	11285.84
634.757	11353.43
634.951	11232.6
635.145	11146.58
635.339	11224.4
635.533	11113.81
635.726	11033.94
635.92	10841.43
636.114	10710.36
636.308	10863.96
636.501	10820.95
636.695	10603.87
636.889	10515.81
637.083	10556.77
637.276	10358.11
637.47	10419.55
637.664	10493.28
637.857	10444.13
638.051	10186.08
638.244	10278.24
638.438	10083.69
638.632	10040.68
638.825	9909.61
639.019	9971.05
639.212	10130.79
639.406	9983.34
639.599	9887.08
639.793	9854.31
639.986	9743.72
640.18	9825.64
640.373	9641.32
640.567	9721.2
640.76	9307.51
640.954	9383.28
641.147	9567.6
641.34	9334.13
641.534	9534.83
641.727	9459.06
641.92	9239.92
642.114	9223.54
642.307	9065.85
642.5	9221.49
642.694	8936.82
642.887	9037.17
643.08	9094.52
643.273	8852.86
643.467	8924.54
643.66	8836.47
643.853	8666.49
644.046	8736.12
644.239	8676.73
644.432	8570.24
644.626	8566.14
644.819	8682.88
645.012	8633.72
645.205	8615.29
645.398	8353.15
645.591	8359.3
645.784	8332.67
645.977	8213.89
646.17	8113.54
646.363	8064.39
646.556	7996.81
646.749	7978.37
646.942	8060.29
647.135	7912.84
647.328	7767.43
647.521	8027.53
647.714	7781.77
647.907	7857.54
648.099	7849.35
648.292	7984.52
648.485	7632.27
648.678	7630.22
648.871	7550.35
649.064	7736.71
649.256	7685.51
649.449	7574.92
649.642	7474.57
649.835	7628.17
650.027	7247.25
650.22	7210.39
650.413	7280.02
650.605	7263.63
650.798	7263.63
650.991	7021.97
651.183	7296.4
651.376	7112.08
651.568	7216.53
651.761	7042.45
651.954	6851.99
652.146	7032.21
652.339	6923.67
652.531	6854.04
652.724	7003.54
652.916	6694.3
653.109	6722.97
653.301	6843.8
653.494	6882.71
653.686	6636.95
653.879	6745.5
654.071	6567.32
654.263	6587.8
654.456	6596
654.648	6518.17
654.84	6469.02
655.033	6321.57
655.225	6348.19
655.417	6446.49
655.61	6405.53
655.802	6313.38
655.994	6266.27
656.186	6204.83
656.379	6253.98
656.571	6190.5
656.763	6147.49
656.955	6108.58
657.148	6178.21
657.34	6104.48
657.532	6077.86
657.724	5936.55
657.916	6002.08
658.108	5764.52
658.3	5963.17
658.492	5877.16
658.684	5680.55
658.876	5828.01
659.068	5723.56
659.26	5727.66
659.452	5760.42
659.644	5696.94
659.836	5617.07
660.028	5686.7
660.22	5361.07
660.412	5440.94
660.604	5453.23
660.796	5393.84
660.988	5645.74
661.18	5467.56
661.372	5588.39
661.563	5465.52
661.755	5395.89
661.947	5256.62
662.139	5270.96
662.331	5318.06
662.522	5184.94
662.714	5195.18
662.906	5174.71
663.097	5137.84
663.289	5111.22
663.481	4967.86
663.673	5215.66
663.864	4961.72
664.056	5066.16
664.247	5039.54
664.439	4844.98
664.631	4947.38
664.822	4918.71
665.014	4976.05
665.205	4834.74
665.397	4830.65
665.588	4902.33
665.78	4924.85
665.971	4722.1
666.163	4920.76
666.354	4713.91
666.546	4791.73
666.737	4707.77
666.929	4730.3
667.12	4617.66
667.311	4709.82
667.503	4552.12
667.694	4543.93
667.885	4572.6
668.077	4531.64
668.268	4593.08
668.459	4605.37
668.651	4627.9
668.842	4384.19
669.033	4376
669.224	4509.12
669.416	4513.21
669.607	4283.84
669.798	4328.89
669.989	4169.15
670.18	4281.79
670.371	4324.8
670.563	4294.08
670.754	4122.05
670.945	4275.65
671.136	4232.64
671.327	4224.45
671.518	4267.45
671.709	4126.15
671.9	4130.24
672.091	4222.4
672.282	4105.67
672.473	4070.85
672.664	4005.31
672.855	4081.09
673.046	4099.52
673.237	4132.29
673.428	4050.37
673.619	3995.08
673.809	3945.92
674	4056.51
674.191	3816.9
674.382	4005.31
674.573	3966.4
674.764	3884.48
674.954	3964.36
675.145	3765.7
675.336	3878.34
675.527	3978.69
675.717	3843.53
675.908	3759.56
676.099	3829.19
676.289	3878.34
676.48	3950.02
676.671	3702.22
676.861	3691.98
677.052	3757.51
677.243	3706.31
677.433	3767.75
677.624	3728.84
677.814	3689.93
678.005	3624.39
678.195	3872.2
678.386	3630.54
678.576	3513.8
678.767	3775.94
678.957	3587.53
679.148	3540.43
679.338	3528.14
679.529	3730.89
679.719	3440.08
679.909	3546.57
680.1	3478.99
680.29	3675.59
680.481	3562.95
680.671	3691.98
680.861	3630.54
681.052	3505.61
681.242	3573.19
681.432	3433.93
681.622	3476.94
681.813	3345.87
682.003	3501.51
682.193	3403.21
682.383	3466.7
682.573	3558.86
682.764	3589.58
682.954	3401.16
683.144	3499.47
683.334	3395.02
683.524	3413.45
683.714	3376.59
683.904	3419.6
684.094	3366.35
684.284	3335.63
684.474	3339.73
684.664	3370.44
684.854	3306.96
685.044	3304.91
685.234	3298.77
685.424	3413.45
685.614	3286.48
685.804	3311.05
685.994	3257.81
686.184	3136.98
686.374	3313.1
686.564	3165.65
686.753	3136.98
686.943	3065.3
687.133	3061.2
687.323	3096.02
687.513	3202.51
687.702	3216.85
687.892	3087.82
688.082	3046.87
688.272	3196.37
688.461	3079.63
688.651	3177.94
688.841	3122.64
689.03	2983.38
689.22	3020.24
689.41	2966.99
689.599	3038.67
689.789	2993.62
689.979	2833.88
690.168	3159.5
690.358	2923.99
690.547	2917.84
690.737	2954.71
690.926	2923.99
691.116	2919.89
691.305	2837.97
691.495	2915.8
691.684	2897.36
691.874	2928.08
692.063	2721.24
692.252	2729.43
692.442	2835.92
692.631	2762.2
692.82	2794.97
693.01	2733.53
693.199	2747.86
693.388	2754.01
693.578	2651.61
693.767	2819.54
693.956	2670.04
694.146	2678.23
694.335	2739.67
694.524	2672.09
694.713	2596.31
694.902	2647.51
695.092	2604.5
695.281	2653.66
695.47	2555.35
695.659	2698.71
695.848	2563.54
696.037	2610.65
696.226	2690.52
696.415	2608.6
696.604	2444.76
696.793	2555.35
696.982	2598.36
697.171	2690.52
697.36	2639.32
697.549	2596.31
697.738	2547.16
697.927	2526.68
698.116	2545.11
698.305	2450.91
698.494	2639.32
698.683	2520.54
698.872	2577.88
699.061	2475.48
699.25	2506.2
699.438	2553.31
699.627	2434.52
699.816	2526.68
700.005	2512.35
700.193	2463.19
700.382	2522.59
700.571	2590.17
700.76	2528.73
700.948	2498.01
701.137	2557.4
701.326	2379.23
701.514	2528.73
701.703	2520.54
701.892	2520.54
702.08	2448.86
702.269	2526.68
702.457	2483.67
702.646	2579.93
702.834	2342.36
703.023	2479.58
703.212	2414.04
703.4	2534.87
703.589	2491.87
703.777	2471.39
703.965	2438.62
704.154	2440.67
704.342	2446.81
704.531	2452.95
704.719	2442.71
704.907	2504.15
705.096	2500.06
705.284	2469.34
705.472	2373.08
705.661	2538.97
705.849	2475.48
706.037	2467.29
706.226	2422.24
706.414	2471.39
706.602	2487.77
706.79	2538.97
706.979	2420.19
707.167	2434.52
707.355	2385.37
707.543	2414.04
707.731	2528.73
707.919	2428.38
708.107	2328.03
708.296	2356.7
708.484	2393.56
708.672	2371.04
708.86	2385.37
709.048	2366.94
709.236	2301.4
709.424	2416.09
709.612	2432.47
709.8	2383.32
709.988	2450.91
710.176	2395.61
710.364	2418.14
710.551	2442.71
710.739	2358.75
710.927	2379.23
711.115	2317.79
711.303	2389.47
711.491	2280.93
711.679	2424.28
711.866	2414.04
712.054	2407.9
712.242	2237.92
712.43	2487.77
712.617	2323.93
712.805	2297.31
712.993	2291.17
713.181	2315.74
713.368	2207.2
713.556	2385.37
713.744	2383.32
713.931	2344.41
714.119	2244.06
714.306	2278.88
714.494	2487.77
714.682	2446.81
714.869	2364.89
715.057	2344.41
715.244	2246.11
715.432	2330.08
715.619	2313.69
715.807	2432.47
715.994	2293.21
716.182	2321.88
716.369	2317.79
716.556	2356.7
716.744	2215.39
716.931	2227.68
717.119	2266.59
717.306	2297.31
717.493	2254.3
717.681	2461.15
717.868	2285.02
718.055	2256.35
718.242	2258.4
718.43	2305.5
718.617	2352.6
718.804	2287.07
718.991	2287.07
719.179	2289.12
719.366	2262.49
719.553	2368.99
719.74	2225.63
719.927	2229.73
720.114	2303.45
720.301	2307.55
720.488	2213.34
720.676	2231.77
720.863	2217.44
721.05	2254.3
721.237	2229.73
721.424	2233.82
721.611	2291.17
721.798	2325.98
721.985	2194.91
722.172	2321.88
722.358	2203.1
722.545	2186.72
722.732	2184.67
722.919	2211.29
723.106	2227.68
723.293	2371.04
723.48	2239.97
723.667	2080.22
723.853	2233.82
724.04	2317.79
724.227	2221.53
724.414	2215.39
724.6	2233.82
724.787	2184.67
724.974	2291.17
725.161	2131.42
725.347	2188.77
725.534	2325.98
725.72	2377.18
725.907	2348.51
726.094	2168.29
726.28	2194.91
726.467	2168.29
726.653	2229.73
726.84	2260.45
727.027	2254.3
727.213	2280.93
727.4	2231.77
727.586	2194.91
727.773	2266.59
727.959	2209.25
728.145	2242.01
728.332	2239.97
728.518	2276.83
728.705	2145.76
728.891	2174.43
729.077	2223.58
729.264	2110.94
729.45	2115.04
729.636	2299.36
729.823	2051.55
730.009	2248.16
730.195	2217.44
730.382	2285.02
730.568	2221.53
730.754	2149.86
730.94	2188.77
731.126	2168.29
731.313	2325.98
731.499	2153.95
731.685	2282.97
731.871	2170.33
732.057	2256.35
732.243	2153.95
732.429	2162.14
732.615	2123.23
732.801	2151.9
732.987	2221.53
733.173	2174.43
733.359	2164.19
733.545	2203.1
733.731	2090.46
733.917	2145.76
734.103	2174.43
734.289	2229.73
734.475	2164.19
734.661	2158.05
734.847	2184.67
735.033	2199.01
735.219	2055.65
735.404	2170.33
735.59	2135.52
735.776	2104.8
735.962	2149.86
736.148	2133.47
736.333	2022.88
736.519	1994.21
736.705	2129.38
736.89	2164.19
737.076	2051.55
737.262	2065.89
737.447	2024.93
737.633	2094.56
737.819	2080.22
738.004	2067.94
738.19	1924.58
738.375	2061.79
738.561	2008.55
738.747	2033.12
738.932	2016.74
739.118	2072.03
739.303	2069.98
739.489	2010.59
739.674	2074.08
739.859	2024.93
740.045	2082.27
740.23	2020.83
740.416	1947.11
740.601	1932.77
740.786	2029.03
740.972	1955.3
741.157	2049.5
741.342	1928.67
741.528	1865.19
741.713	2012.64
741.898	1983.97
742.084	1971.68
742.269	1938.91
742.454	1920.48
742.639	2014.69
742.824	1986.02
743.01	1914.34
743.195	1916.39
743.38	1832.42
743.565	1953.25
743.75	2014.69
743.935	1887.72
744.12	1891.81
744.305	1961.44
744.49	1918.43
744.675	1836.52
744.86	1816.04
745.045	1934.82
745.23	1811.94
745.415	1730.02
745.6	1779.17
745.785	1865.19
745.97	1727.97
746.155	1799.65
746.34	1846.76
746.525	1822.18
746.71	1779.17
746.895	1619.43
747.079	1705.45
747.264	1678.82
747.449	1779.17
747.634	1727.97
747.819	1697.25
748.003	1627.62
748.188	1623.53
748.373	1666.53
748.557	1699.3
748.742	1682.92
748.927	1574.38
749.111	1668.58
749.296	1570.28
749.481	1639.91
749.665	1670.63
749.85	1529.32
750.034	1566.18
750.219	1592.81
750.404	1664.49
750.588	1551.85
750.773	1467.88
750.957	1576.42
751.141	1490.41
751.326	1529.32
751.51	1492.46
751.695	1476.07
751.879	1459.69
752.064	1455.59
752.248	1451.5
752.432	1492.46
752.617	1531.37
752.801	1463.79
752.985	1484.27
753.17	1375.72
753.354	1484.27
753.538	1416.68
753.722	1398.25
753.907	1414.63
754.091	1379.82
754.275	1334.76
754.459	1373.68
754.643	1338.86
754.828	1408.49
755.012	1326.57
755.196	1238.51
755.38	1340.91
755.564	1336.81
755.748	1187.31
755.932	1193.45
756.116	1367.53
756.3	1338.86
756.484	1273.32
756.668	1228.27
756.852	1232.37
757.036	1213.93
757.22	1289.71
757.404	1084.91
757.588	1175.02
757.772	1220.08
757.956	1138.16
758.14	1261.04
758.323	1236.46
758.507	1191.41
758.691	1158.64
758.875	1091.06
759.059	1181.17
759.242	1156.59
759.426	1185.26
759.61	1144.3
759.794	1205.74
759.977	1099.25
760.161	1127.92
760.345	1152.49
760.528	1101.3
760.712	1037.81
760.895	1101.3
761.079	1058.29
761.263	1013.23
761.446	978.42
761.63	1107.44
761.813	1109.49
761.997	1046
762.18	1060.34
762.364	1035.76
762.547	951.79
762.731	914.93
762.914	923.12
763.098	1013.23
763.281	1015.28
763.464	1021.42
763.648	914.93
763.831	988.66
764.015	878.07
764.198	949.75
764.381	1017.33
764.564	1009.14
764.748	890.35
764.931	998.9
765.114	931.31
765.297	953.84
765.481	880.11
765.664	988.66
765.847	982.51
766.03	949.75
766.213	896.5
766.397	972.27
766.58	910.83
766.763	972.27
766.946	876.02
767.129	890.35
767.312	923.12
767.495	871.92
767.678	882.16
767.861	923.12
768.044	792.05
768.227	871.92
768.41	1039.86
768.593	837.11
768.776	974.32
768.959	853.49
769.142	839.16
769.324	785.91
769.507	853.49
769.69	871.92
769.873	847.35
770.056	878.07
770.239	853.49
770.421	837.11
770.604	765.43
770.787	863.73
770.97	902.64
771.152	747
771.335	767.48
771.518	806.39
771.7	816.63
771.883	824.82
772.066	738.8
772.248	845.3
772.431	761.33
772.613	775.67
772.796	738.8
772.978	683.51
773.161	781.81
773.343	806.39
773.526	763.38
773.708	814.58
773.891	804.34
774.073	671.22
774.256	751.09
774.438	697.85
774.621	763.38
774.803	740.85
774.985	765.43
775.168	714.23
775.35	648.69
775.532	712.18
775.715	632.31
775.897	677.37
776.079	747
776.261	703.99
776.444	697.85
776.626	667.13
776.808	632.31
776.99	683.51
777.173	722.42
777.355	755.19
777.537	630.26
777.719	593.4
777.901	679.41
778.083	726.52
778.265	611.83
778.447	644.6
778.629	595.45
778.811	605.69
778.993	599.54
779.175	579.06
779.357	552.44
779.539	540.15
779.721	646.65
779.903	648.69
780.085	583.16
780.267	558.58
780.449	534.01
780.631	595.45
780.812	558.58
780.994	519.67
781.176	501.24
781.358	538.1
781.54	525.82
781.721	630.26
781.903	542.2
782.085	450.04
782.267	480.76
782.448	456.19
782.63	441.85
782.812	566.78
782.993	546.3
783.175	497.14
783.357	464.38
783.538	480.76
783.72	439.8
783.901	513.53
784.083	503.29
784.264	517.62
784.446	515.58
784.627	478.71
784.809	460.28
784.99	478.71
785.172	419.32
785.353	431.61
785.535	452.09
785.716	488.95
785.897	491
786.079	390.65
786.26	464.38
786.441	370.17
786.623	376.31
786.804	331.26
786.985	411.13
787.167	384.51
787.348	419.32
787.529	372.22
787.71	409.08
787.891	423.42
788.073	386.55
788.254	361.98
788.435	382.46
788.616	423.42
788.797	310.78
788.978	368.12
789.159	349.69
789.34	425.47
789.522	402.94
789.703	388.6
789.884	380.41
790.065	427.51
790.246	398.84
790.427	333.31
790.607	378.36
790.788	341.5
790.969	306.68
791.15	259.58
791.331	353.79
791.512	370.17
791.693	343.55
791.874	384.51
792.054	419.32
792.235	337.4
792.416	304.64
792.597	353.79
792.778	306.68
792.958	323.07
793.139	308.73
793.32	265.72
793.5	288.25
793.681	290.3
793.862	275.96
794.042	294.4
794.223	251.39
794.404	255.48
794.584	230.91
794.765	239.1
794.945	325.12
795.126	361.98
795.306	267.77
795.487	261.63
795.667	232.96
795.848	259.58
796.028	259.58
796.209	286.2
796.389	302.59
796.57	298.49
796.75	288.25
796.93	300.54
797.111	271.87
797.291	269.82
797.471	249.34
797.652	316.92
797.832	212.48
798.012	226.81
798.192	259.58
798.373	144.89
798.553	146.94
798.733	245.24
798.913	241.15
799.093	226.81
799.274	259.58
799.454	249.34
799.634	282.11
799.814	177.66
799.994	181.76
800.174	292.35
800.354	206.33
800.534	237.05
800.714	226.81
800.894	204.28
801.074	251.39
801.254	235
801.434	226.81
801.614	185.85
801.794	204.28
801.974	505.34
802.154	194.05
802.334	140.8
802.514	175.61
802.693	153.09
802.873	226.81
803.053	253.44
803.233	263.68
803.413	286.2
803.592	138.75
803.772	189.95
803.952	116.22
804.131	124.41
804.311	202.24
804.491	204.28
804.67	198.14
804.85	177.66
805.03	255.48
805.209	126.46
805.389	159.23
805.568	177.66
805.748	202.24
805.928	165.37
806.107	187.9
806.287	237.05
806.466	185.85
806.646	189.95
806.825	226.81
807.004	206.33
807.184	105.98
807.363	163.33
807.543	138.75
807.722	171.52
807.901	194.05
808.081	189.95
808.26	173.57
808.439	132.61
808.619	204.28
808.798	175.61
808.977	212.48
809.156	239.1
809.336	179.71
809.515	157.18
809.694	169.47
809.873	165.37
810.052	155.13
810.231	159.23
810.411	128.51
810.59	136.7
810.769	77.31
810.948	136.7
811.127	71.17
811.306	165.37
811.485	122.37
811.664	247.29
811.843	110.08
812.022	196.09
812.201	116.22
812.38	155.13
812.559	120.32
812.737	169.47
812.916	105.98
813.095	226.81
813.274	101.89
813.453	175.61
813.632	26.11
813.811	161.28
813.989	171.52
814.168	56.83
814.347	146.94
814.526	167.42
814.704	192
814.883	130.56
815.062	185.85
815.24	130.56
815.419	11.78
815.598	171.52
815.776	132.61
815.955	114.17
816.133	189.95
816.312	144.89
816.49	116.22
816.669	73.21
816.847	163.33
817.026	116.22
817.204	95.74
817.383	159.23
817.561	153.09
817.74	93.69
817.918	120.32
818.097	81.41
818.275	83.45
818.453	81.41
818.632	108.03
818.81	114.17
818.988	95.74
819.167	69.12
819.345	85.5
819.523	153.09
819.701	173.57
819.879	136.7
820.058	87.55
820.236	87.55
820.414	42.5
820.592	77.31
820.77	34.3
820.948	19.97
821.127	124.41
821.305	120.32
821.483	136.7
821.661	79.36
821.839	79.36
822.017	93.69
822.195	91.65
822.373	130.56
822.551	52.74
822.729	71.17
822.907	99.84
823.085	52.74
823.262	128.51
823.44	79.36
823.618	71.17
823.796	124.41
823.974	105.98
824.152	99.84
824.329	132.61
824.507	120.32
824.685	105.98
824.863	32.26
825.04	19.97
825.218	32.26
825.396	79.36
825.574	17.92
825.751	50.69
825.929	112.13
826.107	15.87
826.284	101.89
826.462	167.42
826.639	-8.7
826.817	77.31
826.994	67.07
827.172	112.13
827.349	101.89
827.527	99.84
827.704	85.5
827.882	28.16
828.059	79.36
828.237	69.12
828.414	108.03
828.591	75.26
828.769	56.83
828.946	71.17
829.124	62.98
829.301	83.45
829.478	34.3
829.655	50.69
829.833	69.12
830.01	81.41
830.187	81.41
830.364	-8.7
830.542	-12.8
830.719	69.12
830.896	65.02
831.073	60.93
831.25	87.55
831.427	-8.7
831.604	17.92
831.782	26.11
831.959	62.98
832.136	7.68
832.313	89.6
832.49	24.06
832.667	108.03
832.844	5.63
833.021	95.74
833.198	-10.75
833.374	69.12
833.551	30.21
833.728	91.65
833.905	138.75
834.082	32.26
834.259	52.74
834.436	103.93
834.612	58.88
834.789	60.93
834.966	124.41
835.143	42.5
835.319	34.3
835.496	101.89
835.673	-2.56
835.85	58.88
836.026	3.58
836.203	110.08
836.38	60.93
836.556	1.54
836.733	30.21
836.909	134.65
837.086	9.73
837.262	-43.52
837.439	5.63
837.616	36.35
837.792	40.45
837.968	50.69
838.145	-23.04
838.321	-2.56
838.498	101.89
838.674	44.54
838.851	69.12
839.027	26.11
839.203	62.98
839.38	1.54
839.556	-31.23
839.732	114.17
839.909	83.45
840.085	128.51
840.261	58.88
840.437	17.92
840.614	-61.95
840.79	42.5
840.966	-6.66
841.142	54.78
841.318	67.07
841.494	11.78
841.671	71.17
841.847	5.63
842.023	-12.8
842.199	44.54
842.375	-25.09
842.551	-37.38
842.727	24.06
842.903	32.26
843.079	34.3
843.255	11.78
843.431	75.26
843.607	32.26
843.783	24.06
843.959	13.82
844.134	26.11
844.31	79.36
844.486	30.21
844.662	32.26
844.838	30.21
845.013	54.78
845.189	28.16
845.365	77.31
845.541	-0.51
845.716	60.93
845.892	40.45
846.068	52.74
846.244	79.36
846.419	24.06
846.595	-18.94
846.77	-16.9
846.946	24.06
847.122	-0.51
847.297	26.11
847.473	79.36
847.648	3.58
847.824	-16.9
847.999	-25.09
848.175	-55.81
848.35	26.11
848.526	30.21
848.701	9.73
848.876	17.92
849.052	-41.47
849.227	40.45
849.403	-4.61
849.578	11.78
849.753	56.83
849.929	54.78
850.104	-53.76
850.279	83.45
850.454	-6.66
850.63	-51.71
850.805	-31.23
850.98	1.54
851.155	13.82
851.33	40.45
851.505	69.12
851.681	30.21
851.856	-27.14
852.031	-29.18
852.206	11.78
852.381	-43.52
852.556	32.26
852.731	-18.94
852.906	34.3
853.081	77.31
853.256	17.92
853.431	67.07
853.606	-2.56
853.781	13.82
853.956	-16.9
854.131	5.63
854.305	42.5
854.48	1.54
854.655	34.3
854.83	-12.8
855.005	-59.9
855.18	38.4
855.354	-10.75
855.529	3.58
855.704	-10.75
855.879	52.74
856.053	24.06
856.228	11.78
856.403	28.16
856.577	93.69
856.752	-43.52
856.926	-59.9
857.101	34.3
857.276	9.73
857.45	-6.66
857.625	-43.52
857.799	46.59
857.974	34.3
858.148	-37.38
858.323	-70.14
858.497	13.82
858.672	22.02
858.846	-41.47
859.02	24.06
859.195	-14.85
859.369	32.26
859.543	-2.56
859.718	52.74
859.892	9.73
860.066	-4.61
860.241	38.4
860.415	26.11
860.589	-27.14
860.763	34.3
860.938	13.82
861.112	9.73
861.286	44.54
861.46	85.5
861.634	-31.23
861.808	-45.57
861.982	-0.51
862.157	48.64
862.331	-29.18
862.505	-39.42
862.679	-37.38
862.853	-16.9
863.027	-23.04
863.201	48.64
863.375	-43.52
863.549	-2.56
863.722	50.69
863.896	-4.61
864.07	-53.76
864.244	-59.9
864.418	-80.38
864.592	32.26
864.766	36.35
864.939	-43.52
865.113	-86.53
865.287	-53.76
865.461	19.97
865.634	30.21
865.808	38.4
865.982	-12.8
866.156	-33.28
866.329	19.97
866.503	5.63
866.676	5.63
866.85	34.3
867.024	-45.57
867.197	-84.48
867.371	-8.7
867.544	52.74
867.718	-8.7
867.891	-16.9
868.065	-23.04
868.238	-20.99
868.412	17.92
868.585	-23.04
868.759	36.35
868.932	-92.67
869.105	-35.33
869.279	13.82
869.452	-10.75
869.625	54.78
869.799	26.11
869.972	26.11
870.145	32.26
870.319	58.88
870.492	-27.14
870.665	-51.71
870.838	9.73
871.011	36.35
871.185	26.11
871.358	65.02
871.531	-45.57
871.704	-20.99
871.877	-23.04
872.05	32.26
872.223	-23.04
872.396	-39.42
872.569	19.97
872.742	-6.66
872.915	40.45
873.088	-12.8
873.261	-29.18
873.434	-39.42
873.607	9.73
873.78	17.92
873.953	-55.81
874.126	-20.99
874.299	-2.56
874.471	-4.61
874.644	97.79
874.817	-41.47
874.99	34.3
875.163	-45.57
875.335	-16.9
875.508	-37.38
875.681	-31.23
875.853	26.11
876.026	-35.33
876.199	60.93
876.371	-6.66
876.544	-41.47
876.717	13.82
876.889	-25.09
877.062	-0.51
877.234	5.63
877.407	17.92
877.579	-51.71
877.752	-53.76
877.924	46.59
878.097	22.02
878.269	-33.28
878.442	81.41
878.614	26.11
878.786	-23.04
878.959	-2.56
879.131	28.16
879.303	-20.99
879.476	28.16
879.648	-0.51
879.82	19.97
879.993	-20.99
880.165	-16.9
880.337	5.63
880.509	13.82
880.681	1.54
880.854	1.54
881.026	-8.7
881.198	62.98
881.37	17.92
881.542	-23.04
881.714	22.02
881.886	-18.94
882.058	-47.62
882.23	26.11
882.402	-51.71
882.574	50.69
882.746	-6.66
882.918	-29.18
883.09	-37.38
883.262	1.54
883.434	-14.85
883.606	-2.56
883.778	26.11
883.95	60.93
884.122	-10.75
884.293	-18.94
884.465	-51.71
884.637	19.97
884.809	32.26
884.98	15.87
885.152	-102.91
885.324	-14.85
885.496	-41.47
885.667	-72.19
885.839	-23.04
886.011	36.35
886.182	-10.75
886.354	-27.14
886.525	11.78
886.697	9.73
886.869	-10.75
887.04	19.97
887.212	81.41
887.383	42.5
887.555	40.45
887.726	-33.28
887.897	-8.7
888.069	-51.71
888.24	1.54
888.412	-12.8
888.583	11.78
888.754	-35.33
888.926	-43.52
889.097	-14.85
889.268	-39.42
889.44	1.54
889.611	-98.81
889.782	-37.38
889.953	9.73
890.125	-25.09
890.296	-23.04
890.467	19.97
890.638	3.58
890.809	-31.23
890.98	-0.51
891.151	-0.51
891.323	-23.04
891.494	19.97
891.665	32.26
891.836	-29.18
892.007	11.78
892.178	-6.66
892.349	13.82
892.52	-0.51
892.691	-16.9
892.862	-29.18
893.032	1.54
893.203	-31.23
893.374	-35.33
893.545	-27.14
893.716	-6.66
893.887	105.98
894.057	-41.47
894.228	30.21
894.399	-33.28
894.57	-14.85
894.74	26.11
894.911	-66.05
895.082	-66.05
895.253	-76.29
895.423	-35.33
895.594	-0.51
895.764	-78.33
895.935	-33.28
896.106	-61.95
896.276	-125.44
896.447	-45.57
896.617	-33.28
896.788	-86.53
896.958	-14.85
897.129	11.78
897.299	-43.52
897.47	60.93
897.64	-8.7
897.81	-33.28
897.981	-76.29
898.151	-53.76
898.322	-45.57
898.492	-49.66
898.662	3.58
898.832	19.97
899.003	11.78
899.173	-70.14
899.343	-6.66
899.513	-8.7
