Data from USB4F104151__286__11-12-57-480.txt Node

Date: Wed Mar 12 11:12:57 EDT 2025
User: louis
Spectrometer: USB4F10415
Trigger mode: 4
Integration Time (sec): 2.000000E-2
Scans to average: 1
Electric dark correction enabled: true
Nonlinearity correction enabled: false
Boxcar width: 0
XAxis mode: Wavelengths
Number of Pixels in Spectrum: 3648
>>>>>Begin Spectral Data<<<<<
178.204	-77.31
178.424	-77.31
178.644	-77.31
178.864	-69.12
179.084	-81.41
179.304	53.76
179.524	-34.3
179.744	-26.11
179.964	33.28
180.184	-17.92
180.404	-11.78
180.624	45.57
180.844	-11.78
181.064	20.99
181.283	-50.69
181.503	-26.11
181.723	25.09
181.943	-30.21
182.163	-48.64
182.383	12.8
182.602	39.42
182.822	61.95
183.042	2.56
183.262	-22.02
183.482	37.38
183.701	2.56
183.921	-11.78
184.141	-9.73
184.361	-3.58
184.58	66.05
184.8	4.61
185.02	-7.68
185.239	84.48
185.459	-3.58
185.679	23.04
185.898	-24.06
186.118	51.71
186.338	-17.92
186.557	-11.78
186.777	-48.64
186.997	49.66
187.216	45.57
187.436	47.62
187.655	-3.58
187.875	51.71
188.095	27.14
188.314	29.18
188.534	88.57
188.753	-28.16
188.973	84.48
189.192	27.14
189.412	31.23
189.631	39.42
189.851	27.14
190.07	66.05
190.29	-36.35
190.509	20.99
190.729	-17.92
190.948	-22.02
191.168	107.01
191.387	0.51
191.607	29.18
191.826	-11.78
192.045	55.81
192.265	-32.26
192.484	53.76
192.704	12.8
192.923	14.85
193.142	123.39
193.362	53.76
193.581	53.76
193.8	53.76
194.02	88.57
194.239	-3.58
194.458	49.66
194.678	-5.63
194.897	16.9
195.116	-32.26
195.335	43.52
195.555	76.29
195.774	59.9
195.993	86.53
196.212	61.95
196.432	59.9
196.651	49.66
196.87	27.14
197.089	76.29
197.308	43.52
197.528	74.24
197.747	-36.35
197.966	64
198.185	66.05
198.404	86.53
198.623	0.51
198.842	47.62
199.062	68.09
199.281	18.94
199.5	29.18
199.719	-15.87
199.938	29.18
200.157	-1.54
200.376	66.05
200.595	-1.54
200.814	59.9
201.033	84.48
201.252	74.24
201.471	31.23
201.69	125.44
201.909	57.86
202.128	113.15
202.347	10.75
202.566	64
202.785	-60.93
203.004	59.9
203.223	-1.54
203.442	16.9
203.661	33.28
203.879	41.47
204.098	43.52
204.317	74.24
204.536	29.18
204.755	64
204.974	41.47
205.193	0.51
205.411	80.38
205.63	37.38
205.849	-40.45
206.068	10.75
206.287	20.99
206.505	82.43
206.724	-15.87
206.943	18.94
207.162	72.19
207.381	16.9
207.599	-5.63
207.818	59.9
208.037	78.33
208.255	61.95
208.474	47.62
208.693	23.04
208.911	53.76
209.13	-3.58
209.349	109.05
209.567	49.66
209.786	23.04
210.005	23.04
210.223	76.29
210.442	-42.5
210.661	55.81
210.879	-17.92
211.098	41.47
211.316	-19.97
211.535	-5.63
211.753	23.04
211.972	82.43
212.191	86.53
212.409	64
212.628	72.19
212.846	82.43
213.065	113.15
213.283	37.38
213.502	70.14
213.72	-28.16
213.938	41.47
214.157	37.38
214.375	41.47
214.594	102.91
214.812	16.9
215.031	8.7
215.249	113.15
215.467	29.18
215.686	41.47
215.904	51.71
216.122	70.14
216.341	29.18
216.559	25.09
216.778	66.05
216.996	68.09
217.214	61.95
217.432	33.28
217.651	-15.87
217.869	41.47
218.087	-38.4
218.306	6.66
218.524	88.57
218.742	10.75
218.96	55.81
219.179	55.81
219.397	41.47
219.615	66.05
219.833	-11.78
220.051	-48.64
220.27	20.99
220.488	74.24
220.706	-22.02
220.924	41.47
221.142	61.95
221.36	4.61
221.578	117.25
221.796	23.04
222.015	37.38
222.233	23.04
222.451	70.14
222.669	29.18
222.887	35.33
223.105	-5.63
223.323	49.66
223.541	-11.78
223.759	70.14
223.977	61.95
224.195	29.18
224.413	14.85
224.631	59.9
224.849	-7.68
225.067	10.75
225.285	20.99
225.503	-19.97
225.721	18.94
225.939	107.01
226.157	68.09
226.375	113.15
226.592	41.47
226.81	-19.97
227.028	49.66
227.246	33.28
227.464	-1.54
227.682	-19.97
227.9	68.09
228.117	23.04
228.335	45.57
228.553	49.66
228.771	12.8
228.989	96.77
229.206	47.62
229.424	12.8
229.642	31.23
229.86	57.86
230.077	-40.45
230.295	14.85
230.513	-17.92
230.731	70.14
230.948	14.85
231.166	-5.63
231.384	8.7
231.601	43.52
231.819	94.72
232.037	29.18
232.254	14.85
232.472	59.9
232.689	33.28
232.907	14.85
233.125	31.23
233.342	41.47
233.56	6.66
233.777	-5.63
233.995	4.61
234.213	4.61
234.43	119.29
234.648	49.66
234.865	39.42
235.083	76.29
235.3	-15.87
235.518	37.38
235.735	39.42
235.953	53.76
236.17	-1.54
236.388	-7.68
236.605	25.09
236.822	45.57
237.04	115.2
237.257	47.62
237.475	-5.63
237.692	12.8
237.909	115.2
238.127	-40.45
238.344	41.47
238.562	76.29
238.779	-1.54
238.996	-42.5
239.214	14.85
239.431	29.18
239.648	18.94
239.865	82.43
240.083	59.9
240.3	104.96
240.517	-17.92
240.735	20.99
240.952	119.29
241.169	90.62
241.386	51.71
241.603	0.51
241.821	18.94
242.038	18.94
242.255	49.66
242.472	47.62
242.689	102.91
242.907	0.51
243.124	49.66
243.341	4.61
243.558	49.66
243.775	35.33
243.992	49.66
244.209	-3.58
244.426	152.06
244.643	29.18
244.86	64
245.078	66.05
245.295	41.47
245.512	20.99
245.729	25.09
245.946	43.52
246.163	37.38
246.38	33.28
246.597	12.8
246.814	12.8
247.031	74.24
247.248	86.53
247.464	72.19
247.681	2.56
247.898	35.33
248.115	35.33
248.332	6.66
248.549	94.72
248.766	154.11
248.983	35.33
249.2	43.52
249.417	2.56
249.633	102.91
249.85	33.28
250.067	4.61
250.284	96.77
250.501	29.18
250.717	35.33
250.934	-30.21
251.151	12.8
251.368	43.52
251.585	74.24
251.801	88.57
252.018	-30.21
252.235	16.9
252.451	8.7
252.668	70.14
252.885	100.86
253.102	82.43
253.318	37.38
253.535	18.94
253.752	51.71
253.968	23.04
254.185	43.52
254.401	-3.58
254.618	16.9
254.835	39.42
255.051	90.62
255.268	12.8
255.484	14.85
255.701	66.05
255.917	43.52
256.134	0.51
256.351	-19.97
256.567	-48.64
256.784	86.53
257	12.8
257.217	43.52
257.433	135.68
257.65	57.86
257.866	117.25
258.082	37.38
258.299	-11.78
258.515	14.85
258.732	37.38
258.948	14.85
259.165	57.86
259.381	0.51
259.597	68.09
259.814	10.75
260.03	8.7
260.246	14.85
260.463	27.14
260.679	131.58
260.895	0.51
261.112	94.72
261.328	125.44
261.544	61.95
261.761	119.29
261.977	-46.59
262.193	72.19
262.409	8.7
262.626	27.14
262.842	53.76
263.058	53.76
263.274	23.04
263.49	64
263.707	82.43
263.923	74.24
264.139	-9.73
264.355	61.95
264.571	23.04
264.787	49.66
265.004	27.14
265.22	82.43
265.436	-7.68
265.652	6.66
265.868	18.94
266.084	33.28
266.3	82.43
266.516	-3.58
266.732	25.09
266.948	-15.87
267.164	8.7
267.38	57.86
267.596	137.73
267.812	49.66
268.028	92.67
268.244	4.61
268.46	59.9
268.676	86.53
268.892	57.86
269.108	2.56
269.324	0.51
269.54	-3.58
269.756	68.09
269.972	72.19
270.188	16.9
270.403	47.62
270.619	25.09
270.835	61.95
271.051	20.99
271.267	25.09
271.483	-38.4
271.698	57.86
271.914	47.62
272.13	-34.3
272.346	37.38
272.562	64
272.777	29.18
272.993	-7.68
273.209	70.14
273.425	43.52
273.64	16.9
273.856	57.86
274.072	107.01
274.287	-9.73
274.503	12.8
274.719	33.28
274.934	84.48
275.15	29.18
275.366	150.01
275.581	82.43
275.797	39.42
276.012	37.38
276.228	18.94
276.444	-22.02
276.659	82.43
276.875	-44.54
277.09	33.28
277.306	53.76
277.521	41.47
277.737	-1.54
277.952	20.99
278.168	20.99
278.383	33.28
278.599	72.19
278.814	61.95
279.03	25.09
279.245	55.81
279.461	68.09
279.676	74.24
279.892	-5.63
280.107	10.75
280.322	16.9
280.538	4.61
280.753	84.48
280.969	31.23
281.184	18.94
281.399	-7.68
281.615	102.91
281.83	47.62
282.045	-52.74
282.26	31.23
282.476	98.81
282.691	51.71
282.906	2.56
283.122	8.7
283.337	8.7
283.552	-13.82
283.767	4.61
283.983	27.14
284.198	25.09
284.413	76.29
284.628	39.42
284.843	33.28
285.058	14.85
285.274	33.28
285.489	-7.68
285.704	-44.54
285.919	14.85
286.134	49.66
286.349	10.75
286.564	27.14
286.779	47.62
286.995	104.96
287.21	37.38
287.425	113.15
287.64	70.14
287.855	23.04
288.07	25.09
288.285	57.86
288.5	61.95
288.715	76.29
288.93	39.42
289.145	29.18
289.36	23.04
289.575	47.62
289.79	-13.82
290.004	-7.68
290.219	49.66
290.434	25.09
290.649	39.42
290.864	49.66
291.079	-17.92
291.294	-17.92
291.509	-17.92
291.724	-13.82
291.938	41.47
292.153	57.86
292.368	29.18
292.583	33.28
292.798	90.62
293.012	98.81
293.227	45.57
293.442	14.85
293.657	20.99
293.871	37.38
294.086	0.51
294.301	23.04
294.516	76.29
294.73	68.09
294.945	23.04
295.16	23.04
295.374	74.24
295.589	2.56
295.804	129.53
296.018	70.14
296.233	72.19
296.447	4.61
296.662	51.71
296.877	39.42
297.091	92.67
297.306	53.76
297.52	-11.78
297.735	84.48
297.949	55.81
298.164	80.38
298.378	49.66
298.593	39.42
298.807	98.81
299.022	37.38
299.236	123.39
299.451	-24.06
299.665	47.62
299.88	92.67
300.094	4.61
300.309	27.14
300.523	94.72
300.737	45.57
300.952	137.73
301.166	72.19
301.381	-3.58
301.595	20.99
301.809	61.95
302.024	53.76
302.238	25.09
302.452	47.62
302.667	127.49
302.881	84.48
303.095	10.75
303.309	96.77
303.524	31.23
303.738	29.18
303.952	-28.16
304.166	125.44
304.381	43.52
304.595	41.47
304.809	-44.54
305.023	64
305.237	-17.92
305.452	68.09
305.666	16.9
305.88	23.04
306.094	104.96
306.308	98.81
306.522	109.05
306.736	4.61
306.95	49.66
307.164	23.04
307.379	49.66
307.593	27.14
307.807	53.76
308.021	31.23
308.235	4.61
308.449	12.8
308.663	80.38
308.877	104.96
309.091	61.95
309.305	88.57
309.519	-54.78
309.733	43.52
309.947	25.09
310.161	156.16
310.374	-26.11
310.588	57.86
310.802	76.29
311.016	82.43
311.23	-1.54
311.444	74.24
311.658	68.09
311.872	100.86
312.085	49.66
312.299	61.95
312.513	88.57
312.727	129.53
312.941	14.85
313.154	92.67
313.368	61.95
313.582	47.62
313.796	61.95
314.009	90.62
314.223	-24.06
314.437	29.18
314.651	20.99
314.864	0.51
315.078	129.53
315.292	-7.68
315.505	-9.73
315.719	51.71
315.933	-40.45
316.146	18.94
316.36	18.94
316.573	94.72
316.787	113.15
317.001	-11.78
317.214	61.95
317.428	74.24
317.641	70.14
317.855	41.47
318.068	-15.87
318.282	51.71
318.495	72.19
318.709	57.86
318.922	43.52
319.136	25.09
319.349	86.53
319.563	49.66
319.776	25.09
319.99	6.66
320.203	35.33
320.417	92.67
320.63	72.19
320.843	150.01
321.057	57.86
321.27	-17.92
321.483	51.71
321.697	20.99
321.91	78.33
322.124	16.9
322.337	-7.68
322.55	27.14
322.763	86.53
322.977	64
323.19	-22.02
323.403	92.67
323.617	76.29
323.83	23.04
324.043	66.05
324.256	84.48
324.469	49.66
324.683	74.24
324.896	14.85
325.109	123.39
325.322	16.9
325.535	25.09
325.748	43.52
325.962	72.19
326.175	43.52
326.388	96.77
326.601	8.7
326.814	80.38
327.027	-19.97
327.24	70.14
327.453	20.99
327.666	57.86
327.879	68.09
328.092	68.09
328.305	33.28
328.518	119.29
328.731	-13.82
328.944	45.57
329.157	68.09
329.37	84.48
329.583	117.25
329.796	74.24
330.009	61.95
330.222	-5.63
330.435	43.52
330.648	16.9
330.861	10.75
331.073	51.71
331.286	53.76
331.499	125.44
331.712	-69.12
331.925	47.62
332.138	98.81
332.35	47.62
332.563	39.42
332.776	-1.54
332.989	43.52
333.202	94.72
333.414	86.53
333.627	57.86
333.84	113.15
334.053	-28.16
334.265	111.1
334.478	20.99
334.691	39.42
334.903	86.53
335.116	16.9
335.329	66.05
335.541	-7.68
335.754	14.85
335.966	27.14
336.179	39.42
336.392	29.18
336.604	82.43
336.817	-15.87
337.029	23.04
337.242	45.57
337.454	111.1
337.667	29.18
337.88	57.86
338.092	41.47
338.305	18.94
338.517	23.04
338.729	102.91
338.942	-30.21
339.154	45.57
339.367	33.28
339.579	-30.21
339.792	-36.35
340.004	154.11
340.217	86.53
340.429	49.66
340.641	59.9
340.854	27.14
341.066	74.24
341.278	66.05
341.491	51.71
341.703	80.38
341.915	27.14
342.128	57.86
342.34	31.23
342.552	51.71
342.764	74.24
342.977	-24.06
343.189	84.48
343.401	150.01
343.613	45.57
343.826	29.18
344.038	4.61
344.25	76.29
344.462	68.09
344.674	94.72
344.886	0.51
345.099	90.62
345.311	41.47
345.523	33.28
345.735	80.38
345.947	57.86
346.159	72.19
346.371	82.43
346.583	49.66
346.795	104.96
347.007	53.76
347.219	57.86
347.431	66.05
347.643	57.86
347.855	20.99
348.067	-11.78
348.279	10.75
348.491	57.86
348.703	96.77
348.915	49.66
349.127	12.8
349.339	51.71
349.551	84.48
349.763	-11.78
349.975	10.75
350.187	31.23
350.399	51.71
350.61	45.57
350.822	72.19
351.034	49.66
351.246	68.09
351.458	104.96
351.669	74.24
351.881	45.57
352.093	98.81
352.305	8.7
352.517	121.34
352.728	84.48
352.94	43.52
353.152	70.14
353.363	70.14
353.575	117.25
353.787	92.67
353.999	111.1
354.21	66.05
354.422	84.48
354.633	74.24
354.845	33.28
355.057	18.94
355.268	25.09
355.48	4.61
355.692	74.24
355.903	57.86
356.115	18.94
356.326	-24.06
356.538	115.2
356.749	74.24
356.961	61.95
357.172	88.57
357.384	37.38
357.595	10.75
357.807	88.57
358.018	33.28
358.23	57.86
358.441	131.58
358.653	45.57
358.864	25.09
359.075	-17.92
359.287	41.47
359.498	-22.02
359.709	-3.58
359.921	39.42
360.132	80.38
360.344	102.91
360.555	23.04
360.766	10.75
360.977	2.56
361.189	113.15
361.4	160.25
361.611	90.62
361.823	119.29
362.034	119.29
362.245	-30.21
362.456	45.57
362.667	45.57
362.879	92.67
363.09	127.49
363.301	14.85
363.512	-50.69
363.723	68.09
363.935	66.05
364.146	127.49
364.357	-19.97
364.568	37.38
364.779	4.61
364.99	135.68
365.201	16.9
365.412	-17.92
365.623	25.09
365.834	80.38
366.045	98.81
366.256	98.81
366.467	8.7
366.678	61.95
366.889	57.86
367.1	33.28
367.311	90.62
367.522	64
367.733	70.14
367.944	172.54
368.155	68.09
368.366	92.67
368.577	82.43
368.788	16.9
368.999	-15.87
369.209	51.71
369.42	115.2
369.631	74.24
369.842	16.9
370.053	12.8
370.264	70.14
370.474	98.81
370.685	94.72
370.896	0.51
371.107	29.18
371.317	41.47
371.528	31.23
371.739	61.95
371.95	37.38
372.16	143.87
372.371	90.62
372.582	35.33
372.792	-40.45
373.003	45.57
373.214	37.38
373.424	-3.58
373.635	94.72
373.846	88.57
374.056	29.18
374.267	8.7
374.477	41.47
374.688	49.66
374.898	66.05
375.109	141.82
375.319	90.62
375.53	70.14
375.74	53.76
375.951	51.71
376.161	25.09
376.372	14.85
376.582	8.7
376.793	68.09
377.003	-38.4
377.214	35.33
377.424	96.77
377.635	47.62
377.845	84.48
378.055	12.8
378.266	68.09
378.476	68.09
378.686	23.04
378.897	96.77
379.107	61.95
379.317	-7.68
379.528	100.86
379.738	90.62
379.948	29.18
380.158	68.09
380.369	47.62
380.579	59.9
380.789	113.15
380.999	47.62
381.21	31.23
381.42	121.34
381.63	94.72
381.84	168.45
382.05	80.38
382.261	121.34
382.471	129.53
382.681	80.38
382.891	90.62
383.101	88.57
383.311	78.33
383.521	18.94
383.731	74.24
383.941	43.52
384.151	16.9
384.361	41.47
384.571	70.14
384.781	76.29
384.991	51.71
385.201	139.77
385.411	27.14
385.621	16.9
385.831	61.95
386.041	49.66
386.251	86.53
386.461	55.81
386.671	80.38
386.881	49.66
387.091	88.57
387.301	174.59
387.511	27.14
387.72	49.66
387.93	84.48
388.14	0.51
388.35	139.77
388.56	33.28
388.769	113.15
388.979	82.43
389.189	49.66
389.399	12.8
389.609	12.8
389.818	143.87
390.028	115.2
390.238	74.24
390.447	-3.58
390.657	59.9
390.867	72.19
391.076	111.1
391.286	25.09
391.496	115.2
391.705	16.9
391.915	174.59
392.125	90.62
392.334	98.81
392.544	109.05
392.753	64
392.963	61.95
393.172	86.53
393.382	107.01
393.591	162.3
393.801	78.33
394.01	152.06
394.22	145.92
394.429	70.14
394.639	49.66
394.848	72.19
395.058	131.58
395.267	70.14
395.477	64
395.686	14.85
395.895	135.68
396.105	84.48
396.314	166.4
396.524	35.33
396.733	76.29
396.942	217.6
397.152	113.15
397.361	160.25
397.57	111.1
397.78	115.2
397.989	147.97
398.198	147.97
398.407	33.28
398.617	115.2
398.826	59.9
399.035	115.2
399.244	57.86
399.453	104.96
399.663	170.49
399.872	131.58
400.081	55.81
400.29	193.02
400.499	115.2
400.708	92.67
400.917	98.81
401.127	76.29
401.336	88.57
401.545	113.15
401.754	107.01
401.963	96.77
402.172	152.06
402.381	96.77
402.59	143.87
402.799	64
403.008	172.54
403.217	152.06
403.426	135.68
403.635	109.05
403.844	96.77
404.053	131.58
404.262	70.14
404.471	145.92
404.68	180.73
404.888	94.72
405.097	147.97
405.306	125.44
405.515	184.83
405.724	207.36
405.933	156.16
406.142	285.18
406.35	180.73
406.559	145.92
406.768	211.45
406.977	154.11
407.185	180.73
407.394	236.03
407.603	152.06
407.812	242.17
408.02	188.93
408.229	180.73
408.438	223.74
408.646	205.31
408.855	242.17
409.064	238.08
409.272	246.27
409.481	287.23
409.69	279.04
409.898	279.04
410.107	360.95
410.315	381.43
410.524	332.28
410.733	471.54
410.941	338.43
411.15	399.87
411.358	397.82
411.567	406.01
411.775	426.49
411.984	449.02
412.192	436.73
412.401	467.45
412.609	424.44
412.818	541.18
413.026	508.41
413.234	539.13
413.443	553.46
413.651	512.5
413.86	553.46
414.068	602.61
414.276	700.92
414.485	639.48
414.693	700.92
414.901	637.43
415.11	676.34
415.318	666.1
415.526	762.36
415.734	743.92
415.943	864.75
416.151	797.17
416.359	786.93
416.567	872.95
416.776	907.76
416.984	918
417.192	1063.41
417.4	958.96
417.608	1042.93
417.817	1055.22
418.025	1065.46
418.233	1157.61
418.441	1196.53
418.649	1208.81
418.857	1356.27
419.065	1350.12
419.273	1294.83
419.481	1399.27
419.689	1401.32
419.897	1464.81
420.105	1571.3
420.313	1499.63
420.521	1624.55
420.729	1616.36
420.937	1751.53
421.145	1733.09
421.353	1921.51
421.561	1966.56
421.769	1966.56
421.977	2023.91
422.185	2021.86
422.393	2173.41
422.601	2327
422.809	2331.1
423.017	2296.28
423.224	2449.88
423.432	2519.51
423.64	2617.82
423.848	2730.45
424.056	2677.21
424.263	2822.61
424.471	2834.9
424.679	3043.79
424.887	3101.14
425.094	3256.78
425.302	3297.74
425.51	3252.69
425.718	3387.85
425.925	3502.54
426.133	3633.61
426.341	3621.32
426.548	3920.32
426.756	4020.67
426.964	4030.91
427.171	4282.81
427.379	4139.46
427.586	4336.06
427.794	4536.76
428.001	4671.93
428.209	4823.48
428.417	4800.95
428.624	5192.11
428.832	5231.02
429.039	5124.53
429.247	5075.38
429.454	5695.91
429.662	6078.88
429.869	5669.29
430.076	6046.12
430.284	5982.63
430.491	6166.95
430.699	6449.57
430.906	6453.66
431.114	6435.23
431.321	6781.34
431.528	6916.5
431.736	7465.36
431.943	7768.46
432.15	7485.84
432.358	7618.96
432.565	8026.5
432.772	7928.2
432.979	8536.45
433.187	8644.99
433.394	8532.35
433.601	9224.56
433.808	9124.21
434.016	9042.29
434.223	9568.62
434.43	10152.29
434.637	9826.67
434.844	10303.84
435.052	10750.3
435.259	10598.75
435.466	10727.77
435.673	10678.62
435.88	11270.48
436.087	12038.47
436.294	12087.62
436.501	11585.87
436.708	11878.73
436.915	12208.45
437.122	12714.3
437.329	12955.96
437.537	13396.28
437.743	13271.35
437.95	13392.18
438.157	13953.32
438.364	14401.83
438.571	14121.26
438.778	14455.08
438.985	15612.18
439.192	15255.83
439.399	15767.82
439.606	15376.66
439.813	16113.93
440.02	16847.1
440.227	16759.04
440.433	16756.99
440.64	17438.97
440.847	17058.04
441.054	17488.12
441.261	18448.61
441.467	18284.78
441.674	18854.11
441.881	19376.34
442.088	19560.66
442.294	19390.68
442.501	19712.21
442.708	20113.61
442.914	20996.29
443.121	21686.45
443.328	21260.48
443.534	22753.44
443.741	21924.02
443.948	22010.03
444.154	23552.15
444.361	23097.5
444.568	23724.18
444.774	23353.5
444.981	23732.37
445.187	24778.89
445.394	25546.87
445.6	25254.01
445.807	27400.29
446.013	26421.36
446.22	26810.47
446.426	27652.19
446.633	28078.16
446.839	29044.8
447.046	27877.46
447.252	29245.51
447.459	29440.06
447.665	29390.91
447.871	30201.91
448.078	31961.11
448.284	30222.39
448.491	31082.53
448.697	31985.69
448.903	32673.81
449.11	32540.69
449.316	32339.99
449.522	32995.34
449.728	33720.32
449.935	33828.86
450.141	33703.93
450.347	34840.56
450.553	33630.21
450.76	33449.99
450.966	35088.36
451.172	34734.06
451.378	35252.2
451.584	34828.27
451.791	35518.43
451.997	35653.6
452.203	35874.78
452.409	35631.07
452.615	35686.37
452.821	34443.25
453.027	34119.67
453.233	35878.88
453.44	34351.09
453.646	34656.24
453.852	34924.52
454.058	35420.13
454.264	34277.36
454.47	34975.72
454.676	34310.13
454.882	35282.92
455.088	32176.15
455.294	32321.55
455.5	32985.1
455.705	33282.05
455.911	32124.95
456.117	31572
456.323	30875.69
456.529	28993.61
456.735	30586.93
456.941	29616.19
457.147	29055.04
457.352	28385.36
457.558	27918.42
457.764	28184.66
457.97	27469.92
458.176	27125.86
458.381	26658.92
458.587	25301.12
458.793	25739.38
458.999	24584.33
459.204	25831.54
459.41	25450.62
459.616	23658.65
459.821	23650.46
460.027	23429.27
460.233	23095.46
460.438	21889.2
460.644	22538.41
460.85	21260.48
461.055	20789.44
461.261	20523.21
461.466	19484.89
461.672	18665.7
461.878	19992.78
462.083	18553.06
462.289	18475.24
462.494	18165.99
462.7	17500.4
462.905	16793.86
463.111	17617.14
463.316	17926.38
463.522	17084.67
463.727	17336.57
463.932	17406.2
464.138	17281.27
464.343	17086.72
464.549	16705.79
464.754	17221.88
464.959	17168.63
465.165	16918.78
465.37	16197.9
465.575	15724.82
465.781	16388.36
465.986	16759.04
466.191	16109.83
466.397	15671.57
466.602	15147.29
466.807	15440.15
467.012	15388.95
467.218	15354.13
467.423	15204.63
467.628	15472.92
467.833	15927.56
468.038	15257.88
468.244	14934.3
468.449	15526.16
468.654	14993.69
468.859	14846.24
469.064	14696.74
469.269	14258.47
469.474	14338.34
469.679	14661.92
469.885	14115.11
470.09	14356.77
470.295	14344.49
470.5	13861.16
470.705	13918.51
470.91	13386.04
471.115	13482.29
471.32	13842.73
471.525	13508.91
471.73	13287.73
471.935	13336.88
472.139	12810.56
472.344	12845.37
472.549	12826.94
472.754	12976.44
472.959	12521.79
473.164	12413.25
473.369	12075.34
473.574	12613.95
473.778	12147.01
473.983	12294.47
474.188	12157.25
474.393	11663.69
474.598	11675.98
474.802	11612.49
475.007	11501.9
475.212	11628.88
475.417	11184.47
475.621	11143.51
475.826	10973.53
476.031	10971.48
476.235	10707.29
476.44	10932.57
476.645	10355.04
476.849	10584.41
477.054	10600.8
477.259	10264.93
477.463	10371.43
477.668	10088.81
477.872	10172.77
478.077	10013.03
478.282	9759.08
478.486	9660.78
478.691	9832.81
478.895	9927.02
479.1	9685.36
479.304	9679.21
479.509	9386.35
479.713	9632.11
479.918	9259.38
480.122	9032.05
480.326	9236.85
480.531	9206.13
480.735	9189.75
480.94	9142.64
481.144	9302.39
481.348	8931.7
481.553	9064.82
481.757	8833.4
481.961	9009.53
482.166	9179.51
482.37	9204.08
482.574	8939.9
482.778	9019.77
482.983	9052.53
483.187	8997.24
483.391	9081.21
483.595	9030.01
483.8	8759.67
484.004	9036.15
484.208	8933.75
484.412	8900.98
484.616	8946.04
484.821	8923.51
485.025	8630.65
485.229	8800.63
485.433	8876.41
485.637	8661.37
485.841	8806.78
486.045	8800.63
486.249	8774.01
486.453	8880.5
486.657	8857.98
486.861	8929.66
487.065	8800.63
487.269	9019.77
487.473	8800.63
487.677	9048.44
487.881	8921.46
488.085	8995.19
488.289	9036.15
488.493	9068.92
488.697	8888.7
488.901	8958.33
489.105	8993.14
489.309	9187.7
489.512	8911.22
489.716	9025.91
489.92	8991.09
490.124	8900.98
490.328	9199.99
490.531	9210.23
490.735	8941.94
490.939	9122.16
491.143	8984.95
491.346	9212.28
491.55	9281.91
491.754	9396.59
491.958	9339.25
492.161	9210.23
492.365	9343.35
492.569	9159.03
492.772	9410.93
492.976	9496.94
493.18	9333.11
493.383	9560.43
493.587	9648.49
493.79	9816.43
493.994	9560.43
494.197	9707.88
494.401	9904.49
494.605	9836.91
494.808	9884.01
495.012	10103.14
495.215	10072.42
495.419	10146.15
495.622	10094.95
495.825	10312.03
496.029	10377.57
496.232	10565.98
496.436	10514.78
496.639	10854.75
496.843	10629.47
497.046	10963.29
497.249	11215.19
497.453	10821.98
497.656	11135.32
497.859	11290.96
498.063	11143.51
498.266	11575.63
498.469	11469.14
498.673	11714.89
498.876	11862.35
499.079	11954.51
499.282	11997.51
499.485	12333.38
499.689	12339.52
499.892	12398.91
500.095	12472.64
500.298	12849.47
500.501	12693.82
500.705	12869.95
500.908	13039.93
501.111	13281.59
501.314	13338.93
501.517	13515.06
501.72	13508.91
501.923	13631.79
502.126	13713.71
502.329	14281
502.532	14194.98
502.735	14379.3
502.938	14532.9
503.141	14694.69
503.344	15020.31
503.547	15028.51
503.75	15096.09
503.953	15624.47
504.156	15434
504.359	15487.25
504.562	15786.26
504.765	15962.38
504.968	15737.1
505.17	16247.05
505.373	16120.07
505.576	16845.05
505.779	16666.88
505.982	16744.7
506.185	17377.53
506.387	17182.97
506.59	17244.41
506.793	17633.52
506.996	17580.28
507.198	18264.3
507.401	17969.39
507.604	18256.11
507.807	18645.22
508.009	18731.23
508.212	18870.5
508.415	19046.62
508.617	19345.62
508.82	19376.34
509.022	19587.29
509.225	19736.79
509.428	19861.71
509.63	20211.92
509.833	20234.44
510.035	20672.71
510.238	20613.32
510.44	21008.58
510.643	21080.25
510.845	21323.96
511.048	21233.85
511.25	21637.3
511.453	21856.43
511.655	22702.25
511.858	22188.21
512.06	22405.29
512.262	22593.7
512.465	22796.45
512.667	23007.39
512.87	23300.25
513.072	23208.09
513.274	23945.36
513.477	23834.77
513.679	24115.34
513.881	24438.92
514.084	24813.7
514.286	24684.68
514.488	24647.82
514.69	25395.32
514.893	25651.32
515.095	25325.69
515.297	26083.44
515.499	25815.16
515.701	26482.8
515.904	26368.11
516.106	26609.77
516.308	27117.67
516.51	26996.84
516.712	27363.42
516.914	27519.07
517.116	28065.88
517.318	27756.63
517.52	28358.74
517.722	28362.83
517.925	28221.52
518.127	29063.24
518.329	29167.68
518.531	29026.37
518.733	29532.22
518.935	29960.25
519.136	29974.58
519.338	30337.07
519.54	30101.56
519.742	30775.34
519.944	30816.3
520.146	31017
520.348	31393.82
520.55	31371.3
520.752	31459.36
520.954	32081.94
521.155	31520.8
521.357	32491.54
521.559	32620.56
521.761	33265.67
521.963	33019.91
522.164	33536
522.366	33368.07
522.568	33576.96
522.77	33865.72
522.971	34213.88
523.173	33984.51
523.375	34420.72
523.576	34342.9
523.778	34322.42
523.98	34981.87
524.181	35155.94
524.383	34885.61
524.584	35928.03
524.786	35616.74
524.988	35358.69
525.189	35690.46
525.391	35891.16
525.592	35786.72
525.794	36106.2
525.995	36130.78
526.197	36528.08
526.398	36351.96
526.6	36663.25
526.801	36882.38
527.003	36911.05
527.204	37091.27
527.406	36763.6
527.607	37228.49
527.808	37556.16
528.01	37074.89
528.211	37636.03
528.412	38418.36
528.614	38014.91
528.815	37738.43
529.016	38283.19
529.218	37564.35
529.419	38217.66
529.62	38025.15
529.822	37906.37
530.023	38571.96
530.224	38127.55
530.425	38430.65
530.626	38283.19
530.828	37769.15
531.029	39055.28
531.23	38393.78
531.431	38332.34
531.632	38662.07
531.833	38586.29
532.035	38481.84
532.236	38477.75
532.437	38999.98
532.638	38672.31
532.839	39032.75
533.04	38887.34
533.241	38528.95
533.442	39202.73
533.643	38920.11
533.844	38801.33
534.045	38805.42
534.246	38887.34
534.447	39118.76
534.648	38997.93
534.849	38963.12
535.05	38883.25
535.251	39118.76
535.451	38881.2
535.652	39151.53
535.853	38899.63
536.054	39065.52
536.255	39192.49
536.456	38682.55
536.657	39509.93
536.857	39200.68
537.058	38766.51
537.259	38995.88
537.46	39092.14
537.66	39053.23
537.861	38789.04
538.062	38784.94
538.263	39008.17
538.463	38678.45
538.664	38799.28
538.865	38893.49
539.065	39458.73
539.266	39016.36
539.466	39245.74
539.667	38559.67
539.868	39276.46
540.068	38897.58
540.269	38895.53
540.469	39147.43
540.67	38598.58
540.87	38782.9
541.071	38827.95
541.271	39100.33
541.472	38662.07
541.672	38365.11
541.873	38586.29
542.073	38137.79
542.274	38727.6
542.474	38772.66
542.675	38209.46
542.875	38995.88
543.075	38926.25
543.276	38453.17
543.476	38963.12
543.676	38709.17
543.877	38807.47
544.077	38834.1
544.277	38850.48
544.478	38231.99
544.678	39145.39
544.878	38737.84
545.078	38715.31
545.279	38434.74
545.479	38426.55
545.679	38729.65
545.879	38553.52
546.079	38518.71
546.28	38215.61
546.48	38510.52
546.68	38111.16
546.88	38444.98
547.08	38780.85
547.28	38414.26
547.48	38207.42
547.68	38631.35
547.88	37892.03
548.081	38430.65
548.281	38361.01
548.481	38424.5
548.681	38393.78
548.881	38328.25
549.081	38635.44
549.28	38436.79
549.48	38352.82
549.68	38154.17
549.88	38895.53
550.08	38213.56
550.28	38412.21
550.48	38133.69
550.68	38352.82
550.88	38393.78
551.08	37842.88
551.279	38078.39
551.479	38066.11
551.679	38266.81
551.879	38172.6
552.079	38451.13
552.278	37965.76
552.478	37984.19
552.678	37881.79
552.878	38322.1
553.077	38199.23
553.277	37863.36
553.477	38563.76
553.676	37689.28
553.876	37734.34
554.076	37892.03
554.275	37773.25
554.475	37234.63
554.674	38000.57
554.874	37892.03
555.074	37812.16
555.273	37701.57
555.473	37738.43
555.672	37691.33
555.872	37435.33
556.071	38115.26
556.271	38008.76
556.47	37631.94
556.67	37584.83
556.869	37349.32
557.068	37822.4
557.268	36956.11
557.467	37484.48
557.667	37588.93
557.866	37320.65
558.065	37181.38
558.265	36771.79
558.464	37042.12
558.663	37308.36
558.863	36722.64
559.062	37613.51
559.261	37189.58
559.461	37445.57
559.66	36442.07
559.859	36964.3
560.058	36693.97
560.258	37087.18
560.457	36345.81
560.656	36792.27
560.855	36562.9
561.054	36933.58
561.253	35919.84
561.453	36540.37
561.652	36820.94
561.851	36671.44
562.05	36491.22
562.249	36286.42
562.448	36331.48
562.647	36270.04
562.846	36378.58
563.045	36397.01
563.244	36030.43
563.443	36472.79
563.642	35612.64
563.841	36286.42
564.04	35667.94
564.239	36028.38
564.438	35358.69
564.637	35932.12
564.836	35477.47
565.035	35366.88
565.234	35547.11
565.432	35459.04
565.631	35256.29
565.83	35413.99
566.029	35100.65
566.228	35506.15
566.427	35035.11
566.625	35141.61
566.824	34473.97
567.023	35399.65
567.222	34629.62
567.42	35162.09
567.619	34336.76
567.818	34652.14
568.016	34695.15
568.215	34981.87
568.414	34408.43
568.612	34639.86
568.811	34564.08
569.01	34543.6
569.208	34101.24
569.407	34062.33
569.605	33765.37
569.804	34465.78
570.002	33449.99
570.201	34097.14
570.4	33677.31
570.598	33748.99
570.797	33650.69
570.995	33396.74
571.193	33597.44
571.392	33632.25
571.59	33116.17
571.789	33679.36
571.987	33454.08
572.186	33406.98
572.384	32641.04
572.582	33298.44
572.781	33101.83
572.979	32954.38
573.177	32532.5
573.376	32868.36
573.574	32802.83
573.772	33126.41
573.971	32423.95
574.169	32659.47
574.367	32518.16
574.565	32786.44
574.763	31930.39
574.962	32094.23
575.16	31821.85
575.358	32368.66
575.556	32024.6
575.754	32180.24
575.952	31696.92
576.151	31696.92
576.349	31158.31
576.547	31438.88
576.745	31563.81
576.943	31549.47
577.141	31463.46
577.339	31463.46
577.537	31246.37
577.735	31211.56
577.933	31051.81
578.131	31279.14
578.329	30838.83
578.527	30568.49
578.725	30754.86
578.923	31199.27
579.121	30701.61
579.319	30418.99
579.516	30758.95
579.714	30797.87
579.912	30505.01
580.11	30586.93
580.308	30529.58
580.506	30451.76
580.704	29659.2
580.901	30439.47
581.099	30212.15
581.297	30052.41
581.495	30044.21
581.692	30060.6
581.89	29702.2
582.088	29698.11
582.285	29651
582.483	29866.04
582.681	29599.8
582.878	29478.97
583.076	29190.21
583.274	29444.16
583.471	29009.99
583.669	29214.79
583.866	29120.58
584.064	28907.59
584.262	28483.66
584.459	29001.8
584.657	28717.13
584.854	28932.17
585.052	28340.3
585.249	28356.69
585.447	28559.44
585.644	28092.5
585.841	28278.86
586.039	28573.77
586.236	28403.79
586.434	28125.27
586.631	27799.64
586.828	27840.6
587.026	27816.02
587.223	27899.99
587.42	27414.62
587.618	27687
587.815	27334.75
588.012	27349.09
588.21	27447.39
588.407	27689.05
588.604	27486.3
588.801	27056.23
588.999	26929.25
589.196	27035.75
589.393	27185.25
589.59	27056.23
589.787	26763.37
589.984	26531.95
590.182	26466.41
590.379	26919.01
590.576	26558.57
590.773	26830.95
590.97	26159.22
591.167	26308.72
591.364	26208.37
591.561	26243.18
591.758	26234.99
591.955	26073.2
592.152	26136.69
592.349	26069.11
592.546	26108.02
592.743	25944.18
592.94	25374.84
593.137	25516.15
593.334	25901.17
593.531	25141.38
593.727	25626.74
593.924	25407.61
594.121	25024.64
594.318	25118.85
594.515	24989.83
594.712	25192.58
594.908	24746.12
595.105	25280.64
595.302	24866.95
595.499	24985.73
595.696	24848.52
595.892	24617.1
596.089	24819.85
596.286	24813.7
596.482	24522.89
596.679	24670.34
596.876	24402.06
597.072	24301.71
597.269	23982.23
597.466	24176.78
597.662	23935.12
597.859	23951.51
598.055	24000.66
598.252	23789.72
598.448	24058
598.645	23351.45
598.841	23361.69
599.038	23548.06
599.234	23498.91
599.431	22997.15
599.627	23298.2
599.824	23548.06
600.02	23019.68
600.217	23212.19
600.413	23001.25
600.609	22894.75
600.806	22726.82
601.002	22886.56
601.198	22966.43
601.395	22585.51
601.591	22945.95
601.787	22730.92
601.984	22497.45
602.18	22720.68
602.376	22552.74
602.572	22349.99
602.769	22464.68
602.965	22118.57
603.161	22257.84
603.357	22067.38
603.553	21913.78
603.75	22073.52
603.946	21862.58
604.142	22053.04
604.338	21491.9
604.534	21842.1
604.73	21473.46
604.926	21897.39
605.122	21500.09
605.318	21360.83
605.514	21334.2
605.71	21485.75
605.906	21221.56
606.102	21350.59
606.298	21287.1
606.494	20955.33
606.69	21430.46
606.886	20981.95
607.082	20795.59
607.278	21065.92
607.474	20779.2
607.67	20902.08
607.866	20527.3
608.062	20994.24
608.257	20834.5
608.453	20818.11
608.649	20625.61
608.845	20541.64
609.041	20394.18
609.236	20422.86
609.432	20338.89
609.628	20175.05
609.824	20381.9
610.019	20263.11
610.215	20195.53
610.411	20222.16
610.606	20113.61
610.802	20324.55
610.998	20142.28
611.193	20007.12
611.389	19726.55
611.584	19919.06
611.78	19845.33
611.976	20011.21
612.171	19927.25
612.367	19880.14
612.562	19599.57
612.758	19417.3
612.953	19531.99
613.149	19826.9
613.344	19593.43
613.539	19871.95
613.735	19525.85
613.93	19618
614.126	19386.58
614.321	19562.71
614.517	19566.81
614.712	19194.08
614.907	19312.86
615.103	19505.37
615.298	19140.83
615.493	19300.57
615.688	19179.74
615.884	19415.26
616.079	18860.26
616.274	19034.33
616.47	18981.09
616.665	18841.82
616.86	18841.82
617.055	19134.68
617.25	18983.13
617.445	18870.5
617.641	18565.35
617.836	18798.82
618.031	18395.37
618.226	18634.98
618.421	18342.12
618.616	18587.88
618.811	18383.08
619.006	18559.2
619.201	18262.25
619.396	18174.19
619.591	17834.22
619.786	18192.62
619.981	17649.91
620.176	18327.78
620.371	17774.83
620.566	17905.9
620.761	17715.44
620.956	17838.32
621.151	17516.79
621.346	17549.56
621.541	17387.77
621.735	17719.54
621.93	17078.52
622.125	17176.83
622.32	16871.68
622.515	17223.93
622.709	16857.34
622.904	16990.46
623.099	16765.18
623.294	16978.17
623.488	16570.63
623.683	16783.62
623.878	16527.62
624.072	16429.32
624.267	16423.17
624.462	16345.35
624.656	16175.37
624.851	16130.31
625.046	16191.75
625.24	15925.52
625.435	15821.07
625.629	15765.78
625.824	15788.3
626.018	15733.01
626.213	15401.24
626.407	15458.58
626.602	15077.66
626.796	15403.28
626.991	15270.17
627.185	14858.53
627.38	15087.9
627.574	14930.2
627.768	14917.92
627.963	14833.95
628.157	14754.08
628.352	14569.76
628.546	14274.85
628.74	14434.6
628.935	14344.49
629.129	14600.48
629.323	14287.14
629.517	14172.46
629.712	14194.98
629.906	14045.48
630.1	13871.4
630.294	14072.11
630.489	13513.01
630.683	13977.9
630.877	13590.83
631.071	13601.07
631.265	13431.09
631.459	13355.32
631.653	13304.12
631.848	13504.82
632.042	13392.18
632.236	13283.64
632.43	13156.66
632.624	13125.94
632.818	12833.08
633.012	12702.01
633.206	12648.77
633.4	12898.62
633.594	12800.32
633.788	13041.98
633.982	12718.4
634.176	12509.51
634.369	12362.05
634.563	12390.72
634.757	12394.82
634.951	12384.58
635.145	12198.21
635.339	12204.36
635.533	12056.9
635.726	12206.41
635.92	11983.18
636.114	11688.27
636.308	12044.62
636.501	11837.77
636.695	11802.96
636.889	11639.12
637.083	11661.65
637.276	11493.71
637.47	11419.99
637.664	11293.01
637.857	11374.93
638.051	11499.86
638.244	10946.9
638.438	11266.39
638.632	11116.89
638.825	10969.43
639.019	10981.72
639.212	11114.84
639.406	10652
639.599	10768.73
639.793	10762.59
639.986	10633.57
640.18	10723.68
640.373	10684.76
640.567	10361.19
640.76	10668.38
640.954	10391.91
641.147	10488.16
641.34	10244.45
641.534	10371.43
641.727	10363.23
641.92	10137.96
642.114	10099.05
642.307	10099.05
642.5	10010.98
642.694	9890.15
642.887	9849.19
643.08	10029.41
643.273	9832.81
643.467	9703.79
643.66	9750.89
643.853	9707.88
644.046	9693.55
644.239	9529.71
644.432	9462.13
644.626	9619.82
644.819	9376.11
645.012	9476.46
645.205	9445.74
645.398	9347.44
645.591	9216.37
645.784	9083.25
645.977	9062.77
646.17	9220.47
646.363	8970.62
646.556	9060.73
646.749	8884.6
646.942	8878.46
647.135	8716.67
647.328	8806.78
647.521	8868.22
647.714	8593.79
647.907	8634.75
648.099	8710.52
648.292	8716.67
648.485	8692.09
648.678	8454.53
648.871	8352.13
649.064	8284.55
649.256	8421.76
649.449	8200.58
649.642	8294.79
649.835	8317.31
650.027	8247.68
650.22	8204.67
650.413	8110.47
650.605	8044.93
650.798	7895.43
650.991	7917.96
651.183	8057.22
651.376	7877
651.568	7766.41
651.761	7895.43
651.954	7795.08
652.146	7686.54
652.339	7747.98
652.531	7647.63
652.724	7627.15
652.916	7444.88
653.109	7637.39
653.301	7553.42
653.494	7551.37
653.686	7215.51
653.879	7295.38
654.071	7354.77
654.263	7305.62
654.456	7379.34
654.648	7297.42
654.84	7145.87
655.033	7053.72
655.225	7190.93
655.417	7074.2
655.61	6990.23
655.802	6967.7
655.994	7023
656.186	6918.55
656.379	6990.23
656.571	6828.44
656.763	6941.08
656.955	6801.82
657.148	6820.25
657.34	6775.19
657.532	6551.96
657.724	6740.38
657.916	6558.11
658.108	6680.99
658.3	6404.51
658.492	6547.87
658.684	6500.76
658.876	6369.69
659.068	6449.57
659.26	6312.35
659.452	6386.08
659.644	6427.04
659.836	6152.61
660.028	6308.26
660.22	6255.01
660.412	6289.82
660.604	6140.32
660.796	6119.84
660.988	6119.84
661.18	5869.99
661.372	6029.73
661.563	6021.54
661.755	5874.09
661.947	6023.59
662.139	5949.86
662.331	5775.78
662.522	5949.86
662.714	5757.35
662.906	5736.87
663.097	5749.16
663.289	5794.22
663.481	5749.16
663.673	5661.1
663.864	5640.62
664.056	5544.36
664.247	5501.36
664.439	5616.04
664.631	5444.01
664.822	5597.61
665.014	5530.03
665.205	5435.82
665.397	5484.97
665.588	5306.8
665.78	5329.33
665.971	5448.11
666.163	5476.78
666.354	5140.91
666.546	5089.71
666.737	5308.85
666.929	5149.11
667.12	5175.73
667.311	5099.95
667.503	5118.39
667.694	5142.96
667.885	5056.95
668.077	5046.71
668.268	4921.78
668.459	4962.74
668.651	5013.94
668.842	5007.8
669.033	4927.92
669.224	4829.62
669.416	4723.13
669.607	5011.89
669.798	4768.18
669.989	5112.24
670.18	4903.35
670.371	4852.15
670.563	4673.98
670.754	4759.99
670.945	4641.21
671.136	4764.09
671.327	4598.2
671.518	4657.59
671.709	4624.83
671.9	4778.42
672.091	4534.71
672.282	4637.11
672.473	4618.68
672.664	4780.47
672.855	4520.38
673.046	4616.63
673.237	4512.19
673.428	4608.44
673.619	4477.37
673.809	4514.24
674	4424.12
674.191	4358.59
674.382	4379.07
674.573	4424.12
674.764	4346.3
674.954	4555.19
675.145	4448.7
675.336	4272.57
675.527	4327.87
675.717	4420.03
675.908	4311.49
676.099	4260.29
676.289	4368.83
676.48	4288.96
676.671	4176.32
676.861	4295.1
677.052	4096.45
677.243	4102.59
677.433	4078.02
677.624	4217.28
677.814	4106.69
678.005	4149.7
678.195	4182.46
678.386	4082.11
678.576	4182.46
678.767	4137.41
678.957	4045.25
679.148	4112.83
679.338	4045.25
679.529	4092.35
679.719	4127.17
679.909	4063.68
680.1	4020.67
680.29	3989.96
680.481	4022.72
680.671	4004.29
680.861	3973.57
681.052	3871.17
681.242	3985.86
681.432	3953.09
681.622	3862.98
681.813	3789.25
682.003	3731.91
682.193	3871.17
682.383	3793.35
682.573	3946.95
682.764	3834.31
682.954	3793.35
683.144	3946.95
683.334	3817.93
683.524	3822.02
683.714	3635.66
683.904	3779.01
684.094	3908.04
684.284	3846.6
684.474	3832.26
684.664	3803.59
684.854	3680.71
685.044	3643.85
685.234	3684.81
685.424	3643.85
685.614	3668.42
685.804	3834.31
685.994	3654.09
686.184	3727.82
686.374	3523.02
686.564	3555.79
686.753	3695.05
686.943	3578.31
687.133	3475.91
687.323	3551.69
687.513	3510.73
687.702	3512.78
687.892	3498.44
688.082	3545.55
688.272	3563.98
688.461	3496.39
688.651	3457.48
688.841	3363.28
689.03	3523.02
689.22	3314.13
689.41	3418.57
689.599	3412.43
689.789	3275.21
689.979	3318.22
690.168	3355.08
690.358	3273.17
690.547	3348.94
690.737	3252.69
690.926	3301.84
691.116	3164.62
691.305	3246.54
691.495	3322.32
691.684	3301.84
691.874	3301.84
692.063	3195.34
692.252	3049.94
692.442	2984.4
692.631	3121.62
692.82	3103.18
693.01	3123.66
693.199	2996.69
693.388	3029.46
693.578	3174.86
693.767	3185.1
693.956	3107.28
694.146	2879.96
694.335	2908.63
694.524	3004.88
694.713	2955.73
694.902	2988.5
695.092	3111.38
695.281	2951.63
695.47	2851.28
695.659	2965.97
695.848	2890.2
696.037	2925.01
696.226	2914.77
696.415	2689.49
696.604	2869.72
696.793	2861.52
696.982	2871.76
697.171	2898.39
697.36	2875.86
697.549	2806.23
697.738	2867.67
697.927	2750.93
698.116	2759.13
698.305	2757.08
698.494	2882
698.683	2793.94
698.872	2734.55
699.061	2795.99
699.25	2714.07
699.438	2701.78
699.627	2638.3
699.816	2712.02
700.005	2609.62
700.193	2726.36
700.382	2771.41
700.571	2693.59
700.76	2755.03
700.948	2705.88
701.137	2623.96
701.326	2597.34
701.514	2564.57
701.703	2656.73
701.892	2546.14
702.08	2521.56
702.269	2666.97
702.457	2642.39
702.646	2595.29
702.834	2560.47
703.023	2556.38
703.212	2585.05
703.4	2681.3
703.589	2544.09
703.777	2562.52
703.965	2580.95
704.154	2550.23
704.342	2591.19
704.531	2531.8
704.719	2599.38
704.907	2542.04
705.096	2525.66
705.284	2503.13
705.472	2515.42
705.661	2566.62
705.849	2470.36
706.037	2462.17
706.226	2593.24
706.414	2572.76
706.602	2449.88
706.79	2421.21
706.979	2480.6
707.167	2496.99
707.355	2507.23
707.543	2431.45
707.731	2417.12
707.919	2361.82
708.107	2468.31
708.296	2488.79
708.484	2417.12
708.672	2441.69
708.86	2476.51
709.048	2392.54
709.236	2343.39
709.424	2523.61
709.612	2482.65
709.8	2376.16
709.988	2390.49
710.176	2501.08
710.364	2476.51
710.551	2433.5
710.739	2382.3
710.927	2513.37
711.115	2353.63
711.303	2589.14
711.491	2372.06
711.679	2460.12
711.866	2453.98
712.054	2472.41
712.242	2427.35
712.43	2496.99
712.617	2435.55
712.805	2398.68
712.993	2316.76
713.181	2343.39
713.368	2413.02
713.556	2501.08
713.744	2284
713.931	2374.11
714.119	2417.12
714.306	2486.75
714.494	2456.03
714.682	2367.96
714.869	2339.29
715.057	2476.51
715.244	2243.04
715.432	2347.48
715.619	2513.37
715.807	2347.48
715.994	2413.02
716.182	2298.33
716.369	2476.51
716.556	2402.78
716.744	2339.29
716.931	2327
717.119	2382.3
717.306	2380.25
717.493	2314.72
717.681	2343.39
717.868	2351.58
718.055	2324.96
718.242	2365.92
718.43	2343.39
718.617	2458.07
718.804	2417.12
718.991	2447.83
719.179	2310.62
719.366	2370.01
719.553	2341.34
719.74	2265.57
719.927	2392.54
720.114	2351.58
720.301	2458.07
720.488	2413.02
720.676	2406.88
720.863	2501.08
721.05	2445.79
721.237	2333.15
721.424	2335.2
721.611	2359.77
721.798	2298.33
721.985	2415.07
722.172	2339.29
722.358	2400.73
722.545	2447.83
722.732	2361.82
722.919	2458.07
723.106	2370.01
723.293	2429.4
723.48	2408.92
723.667	2458.07
723.853	2402.78
724.04	2425.31
724.227	2320.86
724.414	2302.43
724.6	2390.49
724.787	2462.17
724.974	2388.44
725.161	2333.15
725.347	2351.58
725.534	2486.75
725.72	2464.22
725.907	2367.96
726.094	2386.4
726.28	2290.14
726.467	2349.53
726.653	2453.98
726.84	2378.2
727.027	2507.23
727.213	2294.24
727.4	2269.66
727.586	2408.92
727.773	2312.67
727.959	2458.07
728.145	2408.92
728.332	2519.51
728.518	2417.12
728.705	2386.4
728.891	2353.63
729.077	2419.16
729.264	2425.31
729.45	2435.55
729.636	2425.31
729.823	2376.16
730.009	2478.55
730.195	2374.11
730.382	2523.61
730.568	2515.42
730.754	2408.92
730.94	2437.59
731.126	2509.27
731.313	2402.78
731.499	2447.83
731.685	2419.16
731.871	2380.25
732.057	2499.03
732.243	2378.2
732.429	2406.88
732.615	2429.4
732.801	2406.88
732.987	2470.36
733.173	2425.31
733.359	2374.11
733.545	2453.98
733.731	2343.39
733.917	2417.12
734.103	2374.11
734.289	2441.69
734.475	2365.92
734.661	2523.61
734.847	2472.41
735.033	2476.51
735.219	2396.64
735.404	2382.3
735.59	2415.07
735.776	2492.89
735.962	2472.41
736.148	2562.52
736.333	2322.91
736.519	2327
736.705	2515.42
736.89	2488.79
737.076	2388.44
737.262	2339.29
737.447	2439.64
737.633	2294.24
737.819	2329.05
738.004	2451.93
738.19	2478.55
738.375	2347.48
738.561	2429.4
738.747	2304.48
738.932	2257.37
739.118	2314.72
739.303	2298.33
739.489	2372.06
739.674	2353.63
739.859	2357.72
740.045	2441.69
740.23	2429.4
740.416	2243.04
740.601	2320.86
740.786	2310.62
740.972	2324.96
741.157	2284
741.342	2337.24
741.528	2267.61
741.713	2376.16
741.898	2324.96
742.084	2314.72
742.269	2200.03
742.454	2271.71
742.639	2413.02
742.824	2230.75
743.01	2304.48
743.195	2187.74
743.38	2327
743.565	2212.32
743.75	2259.42
743.935	2167.26
744.12	2294.24
744.305	2210.27
744.49	2327
744.675	2173.41
744.86	2183.65
745.045	2146.78
745.23	2150.88
745.415	2169.31
745.6	2138.59
745.785	2111.97
745.97	2146.78
746.155	2081.25
746.34	2019.81
746.525	2032.1
746.71	2234.85
746.895	2204.13
747.079	1939.94
747.264	1995.23
747.449	2111.97
747.634	1978.85
747.819	2064.86
748.003	2075.1
748.188	2066.91
748.373	2028
748.557	2150.88
748.742	2062.82
748.927	1933.79
749.111	2032.1
749.296	1931.75
749.481	1909.22
749.665	1769.96
749.85	1913.31
750.034	1763.81
750.219	1892.84
750.404	1907.17
750.588	1866.21
750.773	1829.35
750.957	1726.95
751.141	1806.82
751.326	1804.77
751.51	1884.64
751.695	1747.43
751.879	1767.91
752.064	1794.53
752.248	1747.43
752.432	1765.86
752.617	1739.24
752.801	1700.33
752.985	1694.18
753.17	1724.9
753.354	1710.57
753.538	1614.31
753.722	1694.18
753.907	1724.9
754.091	1681.89
754.275	1583.59
754.459	1655.27
754.643	1647.08
754.828	1667.56
755.012	1614.31
755.196	1597.93
755.38	1614.31
755.564	1563.11
755.748	1571.3
755.932	1638.89
756.116	1567.21
756.3	1509.86
756.484	1589.74
756.668	1556.97
756.852	1446.38
757.036	1505.77
757.22	1444.33
757.404	1501.67
757.588	1429.99
757.772	1497.58
757.956	1487.34
758.14	1395.18
758.323	1524.2
758.507	1417.71
758.691	1343.98
758.875	1374.7
759.059	1415.66
759.242	1395.18
759.426	1305.07
759.61	1415.66
759.794	1372.65
759.977	1411.56
760.161	1425.9
760.345	1438.19
760.528	1360.36
760.712	1346.03
760.895	1290.73
761.079	1323.5
761.263	1282.54
761.446	1335.79
761.63	1284.59
761.813	1307.12
761.997	1272.3
762.18	1251.82
762.364	1335.79
762.547	1290.73
762.731	1313.26
762.914	1184.24
763.098	1182.19
763.281	1165.81
763.464	1223.15
763.648	1229.29
763.831	1214.96
764.015	1161.71
764.198	1264.11
764.381	1278.44
764.564	1298.92
764.748	1212.91
764.931	1143.28
765.114	1217.01
765.297	1188.33
765.481	1247.72
765.664	1143.28
765.847	1147.37
766.03	1120.75
766.213	1167.85
766.397	1153.52
766.58	1151.47
766.763	1153.52
766.946	1141.23
767.129	991.73
767.312	1155.57
767.495	1118.7
767.678	1040.88
767.861	1204.72
768.044	1157.61
768.227	1145.33
768.41	1186.29
768.593	1004.02
768.776	1104.37
768.959	1075.7
769.142	1174
769.324	1151.47
769.507	1067.5
769.69	1032.69
769.873	1075.7
770.056	1139.18
770.239	1006.06
770.421	1036.78
770.604	995.82
770.787	1049.07
770.97	1042.93
771.152	985.58
771.335	967.15
771.518	1020.4
771.7	975.35
771.883	1032.69
772.066	1069.55
772.248	1016.3
772.431	1049.07
772.613	1042.93
772.796	956.91
772.978	956.91
773.161	991.73
773.343	965.11
773.526	971.25
773.708	942.58
773.891	877.04
774.073	909.81
774.256	969.2
774.438	920.05
774.621	918
774.803	997.87
774.985	872.95
775.168	934.39
775.35	889.33
775.532	901.62
775.715	846.32
775.897	856.56
776.079	862.71
776.261	895.47
776.444	870.9
776.626	770.55
776.808	729.59
776.99	754.16
777.173	778.74
777.355	711.16
777.537	803.32
777.719	797.17
777.901	762.36
778.083	748.02
778.265	803.32
778.447	770.55
778.629	729.59
778.811	719.35
778.993	719.35
779.175	801.27
779.357	813.56
779.539	719.35
779.721	707.06
779.903	717.3
780.085	758.26
780.267	641.53
780.449	758.26
780.631	705.01
780.812	717.3
780.994	756.21
781.176	688.63
781.358	612.85
781.54	657.91
781.721	723.44
781.903	682.49
782.085	707.06
782.267	678.39
782.448	602.61
782.63	668.15
782.812	592.37
782.993	668.15
783.175	573.94
783.357	657.91
783.538	627.19
783.72	500.22
783.901	543.22
784.083	608.76
784.264	555.51
784.446	559.61
784.627	528.89
784.809	602.61
784.99	492.02
785.172	575.99
785.353	549.37
785.535	520.7
785.716	578.04
785.897	500.22
786.079	553.46
786.26	541.18
786.441	469.5
786.623	543.22
786.804	551.42
786.985	498.17
787.167	541.18
787.348	479.74
787.529	487.93
787.71	518.65
787.891	637.43
788.073	442.87
788.254	471.54
788.435	549.37
788.616	485.88
788.797	508.41
788.978	442.87
789.159	508.41
789.34	492.02
789.522	471.54
789.703	436.73
789.884	561.66
790.065	360.95
790.246	483.83
790.427	416.25
790.607	498.17
790.788	504.31
790.969	459.26
791.15	459.26
791.331	367.1
791.512	494.07
791.693	477.69
791.874	426.49
792.054	426.49
792.235	446.97
792.416	348.67
792.597	410.11
792.778	440.83
792.958	412.15
793.139	457.21
793.32	453.11
793.5	281.08
793.681	420.35
793.862	412.15
794.042	395.77
794.223	342.52
794.404	358.91
794.584	385.53
794.765	363
794.945	371.19
795.126	412.15
795.306	393.72
795.487	365.05
795.667	291.32
795.848	371.19
796.028	410.11
796.209	342.52
796.389	418.3
796.57	385.53
796.75	297.47
796.93	297.47
797.111	381.43
797.291	371.19
797.471	348.67
797.652	348.67
797.832	317.95
798.012	311.8
798.192	262.65
798.373	317.95
798.553	320
798.733	313.85
798.913	217.6
799.093	379.39
799.274	305.66
799.454	371.19
799.634	326.14
799.814	315.9
799.994	360.95
800.174	311.8
800.354	295.42
800.534	305.66
800.714	299.52
800.894	276.99
801.074	291.32
801.254	334.33
801.434	299.52
801.614	254.46
801.794	309.76
801.974	602.61
802.154	289.28
802.334	324.09
802.514	352.76
802.693	250.36
802.873	305.66
803.053	207.36
803.233	330.23
803.413	309.76
803.592	209.4
803.772	281.08
803.952	264.7
804.131	287.23
804.311	178.69
804.491	236.03
804.67	268.8
804.85	221.69
805.03	350.71
805.209	289.28
805.389	266.75
805.568	281.08
805.748	184.83
805.928	309.76
806.107	324.09
806.287	258.56
806.466	307.71
806.646	252.41
806.825	158.21
807.004	348.67
807.184	252.41
807.363	270.84
807.543	260.6
807.722	279.04
807.901	162.3
808.081	217.6
808.26	176.64
808.439	289.28
808.619	270.84
808.798	274.94
808.977	309.76
809.156	217.6
809.336	207.36
809.515	279.04
809.694	307.71
809.873	150.01
810.052	215.55
810.231	209.4
810.411	225.79
810.59	248.32
810.769	211.45
810.948	184.83
811.127	256.51
811.306	201.21
811.485	150.01
811.664	229.88
811.843	176.64
812.022	184.83
812.201	193.02
812.38	197.12
812.559	176.64
812.737	205.31
812.916	100.86
813.095	197.12
813.274	182.78
813.453	211.45
813.632	309.76
813.811	254.46
813.989	166.4
814.168	211.45
814.347	156.16
814.526	156.16
814.704	270.84
814.883	164.35
815.062	143.87
815.24	139.77
815.419	150.01
815.598	186.88
815.776	193.02
815.955	176.64
816.133	193.02
816.312	168.45
816.49	188.93
816.669	186.88
816.847	64
817.026	182.78
817.204	164.35
817.383	113.15
817.561	164.35
817.74	184.83
817.918	205.31
818.097	117.25
818.275	64
818.453	137.73
818.632	168.45
818.81	215.55
818.988	184.83
819.167	150.01
819.345	186.88
819.523	162.3
819.701	129.53
819.879	231.93
820.058	102.91
820.236	195.07
820.414	137.73
820.592	166.4
820.77	197.12
820.948	201.21
821.127	70.14
821.305	152.06
821.483	127.49
821.661	135.68
821.839	147.97
822.017	143.87
822.195	117.25
822.373	182.78
822.551	135.68
822.729	131.58
822.907	152.06
823.085	172.54
823.262	115.2
823.44	100.86
823.618	129.53
823.796	131.58
823.974	88.57
824.152	160.25
824.329	115.2
824.507	197.12
824.685	90.62
824.863	158.21
825.04	168.45
825.218	150.01
825.396	82.43
825.574	72.19
825.751	74.24
825.929	127.49
826.107	55.81
826.284	123.39
826.462	156.16
826.639	104.96
826.817	170.49
826.994	107.01
827.172	76.29
827.349	250.36
827.527	174.59
827.704	35.33
827.882	115.2
828.059	133.63
828.237	107.01
828.414	25.09
828.591	94.72
828.769	61.95
828.946	86.53
829.124	172.54
829.301	137.73
829.478	74.24
829.655	109.05
829.833	115.2
830.01	41.47
830.187	115.2
830.364	141.82
830.542	117.25
830.719	137.73
830.896	111.1
831.073	119.29
831.25	-5.63
831.427	170.49
831.604	147.97
831.782	111.1
831.959	66.05
832.136	111.1
832.313	127.49
832.49	117.25
832.667	117.25
832.844	80.38
833.021	172.54
833.198	49.66
833.374	57.86
833.551	55.81
833.728	150.01
833.905	88.57
834.082	47.62
834.259	86.53
834.436	135.68
834.612	102.91
834.789	59.9
834.966	86.53
835.143	96.77
835.319	66.05
835.496	104.96
835.673	127.49
835.85	115.2
836.026	111.1
836.203	147.97
836.38	111.1
836.556	47.62
836.733	88.57
836.909	139.77
837.086	23.04
837.262	84.48
837.439	37.38
837.616	31.23
837.792	84.48
837.968	66.05
838.145	72.19
838.321	84.48
838.498	135.68
838.674	152.06
838.851	107.01
839.027	29.18
839.203	113.15
839.38	152.06
839.556	88.57
839.732	84.48
839.909	127.49
840.085	107.01
840.261	29.18
840.437	88.57
840.614	92.67
840.79	121.34
840.966	82.43
841.142	104.96
841.318	102.91
841.494	41.47
841.671	59.9
841.847	31.23
842.023	70.14
842.199	125.44
842.375	96.77
842.551	47.62
842.727	96.77
842.903	94.72
843.079	-15.87
843.255	59.9
843.431	66.05
843.607	147.97
843.783	20.99
843.959	86.53
844.134	86.53
844.31	64
844.486	16.9
844.662	59.9
844.838	113.15
845.013	84.48
845.189	102.91
845.365	98.81
845.541	68.09
845.716	133.63
845.892	143.87
846.068	86.53
846.244	53.76
846.419	98.81
846.595	70.14
846.77	43.52
846.946	39.42
847.122	98.81
847.297	74.24
847.473	109.05
847.648	88.57
847.824	125.44
847.999	80.38
848.175	55.81
848.35	49.66
848.526	107.01
848.701	115.2
848.876	115.2
849.052	102.91
849.227	68.09
849.403	100.86
849.578	-11.78
849.753	80.38
849.929	-32.26
850.104	74.24
850.279	111.1
850.454	68.09
850.63	66.05
850.805	82.43
850.98	154.11
851.155	43.52
851.33	72.19
851.505	25.09
851.681	94.72
851.856	37.38
852.031	68.09
852.206	33.28
852.381	31.23
852.556	-7.68
852.731	35.33
852.906	49.66
853.081	20.99
853.256	82.43
853.431	115.2
853.606	61.95
853.781	39.42
853.956	-26.11
854.131	68.09
854.305	8.7
854.48	86.53
854.655	4.61
854.83	-3.58
855.005	51.71
855.18	14.85
855.354	92.67
855.529	109.05
855.704	49.66
855.879	29.18
856.053	-7.68
856.228	111.1
856.403	80.38
856.577	4.61
856.752	86.53
856.926	25.09
857.101	20.99
857.276	66.05
857.45	35.33
857.625	35.33
857.799	70.14
857.974	72.19
858.148	4.61
858.323	61.95
858.497	4.61
858.672	-15.87
858.846	55.81
859.02	64
859.195	53.76
859.369	49.66
859.543	88.57
859.718	64
859.892	25.09
860.066	76.29
860.241	29.18
860.415	61.95
860.589	-44.54
860.763	39.42
860.938	-22.02
861.112	100.86
861.286	6.66
861.46	37.38
861.634	47.62
861.808	59.9
861.982	51.71
862.157	68.09
862.331	37.38
862.505	47.62
862.679	10.75
862.853	41.47
863.027	14.85
863.201	133.63
863.375	20.99
863.549	29.18
863.722	14.85
863.896	104.96
864.07	47.62
864.244	27.14
864.418	37.38
864.592	43.52
864.766	80.38
864.939	55.81
865.113	61.95
865.287	84.48
865.461	-7.68
865.634	68.09
865.808	29.18
865.982	45.57
866.156	86.53
866.329	16.9
866.503	-36.35
866.676	25.09
866.85	0.51
867.024	53.76
867.197	68.09
867.371	29.18
867.544	29.18
867.718	-17.92
867.891	94.72
868.065	12.8
868.238	-11.78
868.412	53.76
868.585	31.23
868.759	35.33
868.932	55.81
869.105	66.05
869.279	74.24
869.452	47.62
869.625	74.24
869.799	-1.54
869.972	-17.92
870.145	-65.02
870.319	23.04
870.492	0.51
870.665	-30.21
870.838	78.33
871.011	-48.64
871.185	-50.69
871.358	0.51
871.531	53.76
871.704	20.99
871.877	0.51
872.05	20.99
872.223	12.8
872.396	-13.82
872.569	109.05
872.742	-9.73
872.915	43.52
873.088	2.56
873.261	45.57
873.434	39.42
873.607	0.51
873.78	49.66
873.953	76.29
874.126	55.81
874.299	2.56
874.471	-3.58
874.644	31.23
874.817	70.14
874.99	51.71
875.163	2.56
875.335	45.57
875.508	29.18
875.681	43.52
875.853	8.7
876.026	33.28
876.199	53.76
876.371	33.28
876.544	90.62
876.717	43.52
876.889	-26.11
877.062	29.18
877.234	-36.35
877.407	10.75
877.579	47.62
877.752	31.23
877.924	-3.58
878.097	33.28
878.269	33.28
878.442	18.94
878.614	104.96
878.786	82.43
878.959	35.33
879.131	-13.82
879.303	33.28
879.476	31.23
879.648	-32.26
879.82	18.94
879.993	78.33
880.165	33.28
880.337	-28.16
880.509	4.61
880.681	10.75
880.854	-48.64
881.026	0.51
881.198	57.86
881.37	72.19
881.542	100.86
881.714	25.09
881.886	39.42
882.058	92.67
882.23	82.43
882.402	-62.98
882.574	51.71
882.746	-17.92
882.918	53.76
883.09	27.14
883.262	-24.06
883.434	100.86
883.606	4.61
883.778	16.9
883.95	123.39
884.122	25.09
884.293	100.86
884.465	14.85
884.637	8.7
884.809	39.42
884.98	51.71
885.152	33.28
885.324	23.04
885.496	-15.87
885.667	27.14
885.839	-40.45
886.011	64
886.182	37.38
886.354	-17.92
886.525	61.95
886.697	70.14
886.869	25.09
887.04	94.72
887.212	74.24
887.383	41.47
887.555	78.33
887.726	-26.11
887.897	47.62
888.069	10.75
888.24	55.81
888.412	27.14
888.583	-28.16
888.754	-11.78
888.926	59.9
889.097	-13.82
889.268	-48.64
889.44	20.99
889.611	2.56
889.782	-15.87
889.953	-7.68
890.125	64
890.296	107.01
890.467	82.43
890.638	25.09
890.809	39.42
890.98	8.7
891.151	-15.87
891.323	66.05
891.494	27.14
891.665	88.57
891.836	-3.58
892.007	16.9
892.178	68.09
892.349	66.05
892.52	-13.82
892.691	-26.11
892.862	14.85
893.032	33.28
893.203	45.57
893.374	70.14
893.545	16.9
893.716	57.86
893.887	70.14
894.057	66.05
894.228	-36.35
894.399	-32.26
894.57	41.47
894.74	4.61
894.911	27.14
895.082	20.99
895.253	55.81
895.423	-15.87
895.594	64
895.764	35.33
895.935	-46.59
896.106	-26.11
896.276	-13.82
896.447	8.7
896.617	25.09
896.788	27.14
896.958	39.42
897.129	23.04
897.299	53.76
897.47	33.28
897.64	41.47
897.81	-34.3
897.981	72.19
898.151	-87.55
898.322	74.24
898.492	31.23
898.662	31.23
898.832	-5.63
899.003	49.66
899.173	33.28
899.343	45.57
899.513	16.9
