Data from USB4F104151__91__11-06-44-201.txt Node

Date: Wed Mar 12 11:06:44 EDT 2025
User: louis
Spectrometer: USB4F10415
Trigger mode: 4
Integration Time (sec): 2.000000E-2
Scans to average: 1
Electric dark correction enabled: true
Nonlinearity correction enabled: false
Boxcar width: 0
XAxis mode: Wavelengths
Number of Pixels in Spectrum: 3648
>>>>>Begin Spectral Data<<<<<
178.204	-74.07
178.424	-74.07
178.644	-74.07
178.864	-110.93
179.084	-106.84
179.304	-69.97
179.524	26.28
179.744	30.38
179.964	-4.44
180.184	32.43
180.404	36.52
180.624	-2.39
180.844	-43.35
181.064	-72.02
181.283	18.09
181.503	-6.49
181.723	54.95
181.943	-102.74
182.163	1.71
182.383	-57.68
182.602	46.76
182.822	-10.58
183.042	38.57
183.262	-4.44
183.482	5.8
183.701	104.11
183.921	-4.44
184.141	-0.34
184.361	42.67
184.58	20.14
184.8	-41.3
185.02	34.47
185.239	-29.01
185.459	-39.25
185.679	-10.58
185.898	34.47
186.118	40.62
186.338	-14.68
186.557	36.52
186.777	-18.77
186.997	1.71
187.216	-131.41
187.436	38.57
187.655	38.57
187.875	-26.96
188.095	-22.87
188.314	42.67
188.534	46.76
188.753	20.14
188.973	-0.34
189.192	-18.77
189.412	24.23
189.631	5.8
189.851	3.75
190.07	34.47
190.29	46.76
190.509	28.33
190.729	-12.63
190.948	73.39
191.168	42.67
191.387	77.48
191.607	-45.4
191.826	-14.68
192.045	36.52
192.265	20.14
192.484	-35.16
192.704	63.15
192.923	22.19
193.142	22.19
193.362	-2.39
193.581	-45.4
193.8	9.9
194.02	5.8
194.239	18.09
194.458	42.67
194.678	-16.73
194.897	13.99
195.116	-31.06
195.335	-39.25
195.555	42.67
195.774	13.99
195.993	24.23
196.212	11.95
196.432	59.05
196.651	5.8
196.87	1.71
197.089	3.75
197.308	-0.34
197.528	40.62
197.747	-39.25
197.966	7.85
198.185	22.19
198.404	11.95
198.623	-47.44
198.842	-12.63
199.062	69.29
199.281	-2.39
199.5	24.23
199.719	28.33
199.938	34.47
200.157	34.47
200.376	-16.73
200.595	-35.16
200.814	61.1
201.033	22.19
201.252	67.24
201.471	-20.82
201.69	71.34
201.909	-8.53
202.128	42.67
202.347	79.53
202.566	71.34
202.785	-6.49
203.004	36.52
203.223	75.43
203.442	79.53
203.661	-31.06
203.879	65.19
204.098	54.95
204.317	18.09
204.536	61.1
204.755	-4.44
204.974	122.54
205.193	63.15
205.411	44.71
205.63	9.9
205.849	-4.44
206.068	57
206.287	54.95
206.505	77.48
206.724	13.99
206.943	3.75
207.162	71.34
207.381	36.52
207.599	-4.44
207.818	-18.77
208.037	11.95
208.255	3.75
208.474	69.29
208.693	3.75
208.911	36.52
209.13	24.23
209.349	-51.54
209.567	-22.87
209.786	-14.68
210.005	-43.35
210.223	3.75
210.442	-20.82
210.661	7.85
210.879	24.23
211.098	28.33
211.316	46.76
211.535	26.28
211.753	54.95
211.972	-8.53
212.191	-78.16
212.409	-100.69
212.628	48.81
212.846	9.9
213.065	-61.78
213.283	143.02
213.502	-0.34
213.72	48.81
213.938	1.71
214.157	59.05
214.375	24.23
214.594	42.67
214.812	-53.59
215.031	-14.68
215.249	34.47
215.467	61.1
215.686	30.38
215.904	63.15
216.122	-22.87
216.341	-26.96
216.559	-4.44
216.778	32.43
216.996	75.43
217.214	-0.34
217.432	48.81
217.651	-67.92
217.869	20.14
218.087	-29.01
218.306	-14.68
218.524	22.19
218.742	16.04
218.96	83.63
219.179	-8.53
219.397	11.95
219.615	24.23
219.833	16.04
220.051	52.91
220.27	128.68
220.488	22.19
220.706	40.62
220.924	-18.77
221.142	26.28
221.36	1.71
221.578	50.86
221.796	40.62
222.015	30.38
222.233	1.71
222.451	22.19
222.669	32.43
222.887	44.71
223.105	32.43
223.323	18.09
223.541	-12.63
223.759	1.71
223.977	11.95
224.195	59.05
224.413	1.71
224.631	22.19
224.849	22.19
225.067	52.91
225.285	24.23
225.503	-20.82
225.721	44.71
225.939	-26.96
226.157	9.9
226.375	104.11
226.592	-67.92
226.81	57
227.028	3.75
227.246	59.05
227.464	54.95
227.682	67.24
227.9	65.19
228.117	-33.11
228.335	20.14
228.553	-2.39
228.771	3.75
228.989	-0.34
229.206	-2.39
229.424	-55.64
229.642	22.19
229.86	-35.16
230.077	46.76
230.295	-12.63
230.513	32.43
230.731	24.23
230.948	3.75
231.166	7.85
231.384	-61.78
231.601	-18.77
231.819	89.77
232.037	26.28
232.254	11.95
232.472	40.62
232.689	-20.82
232.907	28.33
233.125	48.81
233.342	42.67
233.56	-16.73
233.777	30.38
233.995	34.47
234.213	75.43
234.43	-14.68
234.648	-14.68
234.865	28.33
235.083	7.85
235.3	-18.77
235.518	57
235.735	5.8
235.953	91.82
236.17	-41.3
236.388	-39.25
236.605	-8.53
236.822	104.11
237.04	-22.87
237.257	20.14
237.475	-14.68
237.692	54.95
237.909	-72.02
238.127	32.43
238.344	40.62
238.562	-16.73
238.779	-14.68
238.996	-35.16
239.214	-4.44
239.431	11.95
239.648	1.71
239.865	18.09
240.083	30.38
240.3	32.43
240.517	-2.39
240.735	-24.92
240.952	-41.3
241.169	-31.06
241.386	18.09
241.603	13.99
241.821	-2.39
242.038	38.57
242.255	9.9
242.472	-37.2
242.689	-53.59
242.907	30.38
243.124	26.28
243.341	18.09
243.558	65.19
243.775	67.24
243.992	16.04
244.209	-10.58
244.426	24.23
244.643	50.86
244.86	9.9
245.078	13.99
245.295	69.29
245.512	32.43
245.729	-26.96
245.946	-2.39
246.163	114.34
246.38	26.28
246.597	48.81
246.814	38.57
247.031	34.47
247.248	63.15
247.464	22.19
247.681	-12.63
247.898	-0.34
248.115	28.33
248.332	-55.64
248.549	50.86
248.766	3.75
248.983	38.57
249.2	-16.73
249.417	-35.16
249.633	52.91
249.85	57
250.067	30.38
250.284	122.54
250.501	-33.11
250.717	32.43
250.934	46.76
251.151	5.8
251.368	65.19
251.585	-12.63
251.801	11.95
252.018	-26.96
252.235	-2.39
252.451	-35.16
252.668	1.71
252.885	16.04
253.102	67.24
253.318	1.71
253.535	28.33
253.752	-2.39
253.968	-10.58
254.185	1.71
254.401	18.09
254.618	-26.96
254.835	7.85
255.051	48.81
255.268	9.9
255.484	65.19
255.701	30.38
255.917	-31.06
256.134	-29.01
256.351	59.05
256.567	-0.34
256.784	110.25
257	-31.06
257.217	54.95
257.433	-26.96
257.65	67.24
257.866	28.33
258.082	5.8
258.299	32.43
258.515	28.33
258.732	46.76
258.948	67.24
259.165	54.95
259.381	-63.83
259.597	46.76
259.814	32.43
260.03	22.19
260.246	11.95
260.463	79.53
260.679	65.19
260.895	-12.63
261.112	26.28
261.328	-4.44
261.544	81.58
261.761	97.96
261.977	3.75
262.193	-16.73
262.409	5.8
262.626	9.9
262.842	79.53
263.058	-47.44
263.274	93.87
263.49	7.85
263.707	7.85
263.923	83.63
264.139	34.47
264.355	9.9
264.571	40.62
264.787	-29.01
265.004	-26.96
265.22	32.43
265.436	77.48
265.652	65.19
265.868	-22.87
266.084	-6.49
266.3	5.8
266.516	9.9
266.732	52.91
266.948	18.09
267.164	28.33
267.38	5.8
267.596	-12.63
267.812	93.87
268.028	13.99
268.244	-0.34
268.46	73.39
268.676	36.52
268.892	13.99
269.108	38.57
269.324	97.96
269.54	-2.39
269.756	71.34
269.972	-39.25
270.188	30.38
270.403	63.15
270.619	36.52
270.835	11.95
271.051	-39.25
271.267	24.23
271.483	26.28
271.698	20.14
271.914	3.75
272.13	32.43
272.346	61.1
272.562	67.24
272.777	59.05
272.993	-20.82
273.209	-12.63
273.425	-20.82
273.64	-22.87
273.856	52.91
274.072	28.33
274.287	20.14
274.503	65.19
274.719	13.99
274.934	95.91
275.15	-6.49
275.366	83.63
275.581	-8.53
275.797	-51.54
276.012	18.09
276.228	-22.87
276.444	26.28
276.659	36.52
276.875	-37.2
277.09	54.95
277.306	28.33
277.521	22.19
277.737	-20.82
277.952	42.67
278.168	36.52
278.383	40.62
278.599	34.47
278.814	-14.68
279.03	71.34
279.245	50.86
279.461	-57.68
279.676	54.95
279.892	54.95
280.107	67.24
280.322	-24.92
280.538	-0.34
280.753	46.76
280.969	77.48
281.184	73.39
281.399	61.1
281.615	34.47
281.83	81.58
282.045	-2.39
282.26	44.71
282.476	-12.63
282.691	79.53
282.906	20.14
283.122	46.76
283.337	-14.68
283.552	30.38
283.767	28.33
283.983	-2.39
284.198	-2.39
284.413	28.33
284.628	9.9
284.843	54.95
285.058	-24.92
285.274	11.95
285.489	-37.2
285.704	24.23
285.919	-0.34
286.134	50.86
286.349	-6.49
286.564	24.23
286.779	-22.87
286.995	9.9
287.21	-10.58
287.425	34.47
287.64	9.9
287.855	3.75
288.07	-0.34
288.285	65.19
288.5	22.19
288.715	18.09
288.93	3.75
289.145	-29.01
289.36	-4.44
289.575	5.8
289.79	-35.16
290.004	48.81
290.219	34.47
290.434	-35.16
290.649	-31.06
290.864	20.14
291.079	24.23
291.294	-10.58
291.509	97.96
291.724	-14.68
291.938	-4.44
292.153	11.95
292.368	7.85
292.583	59.05
292.798	108.2
293.012	32.43
293.227	26.28
293.442	-12.63
293.657	71.34
293.871	87.72
294.086	26.28
294.301	46.76
294.516	59.05
294.73	34.47
294.945	24.23
295.16	63.15
295.374	-8.53
295.589	124.58
295.804	18.09
296.018	118.44
296.233	-14.68
296.447	13.99
296.662	-100.69
296.877	-29.01
297.091	18.09
297.306	73.39
297.52	132.78
297.735	16.04
297.949	38.57
298.164	20.14
298.378	-2.39
298.593	18.09
298.807	22.19
299.022	16.04
299.236	26.28
299.451	61.1
299.665	65.19
299.88	13.99
300.094	-14.68
300.309	26.28
300.523	-61.78
300.737	44.71
300.952	28.33
301.166	100.01
301.381	26.28
301.595	38.57
301.809	16.04
302.024	-26.96
302.238	40.62
302.452	44.71
302.667	54.95
302.881	77.48
303.095	5.8
303.309	59.05
303.524	13.99
303.738	67.24
303.952	38.57
304.166	83.63
304.381	-43.35
304.595	24.23
304.809	1.71
305.023	5.8
305.237	44.71
305.452	30.38
305.666	30.38
305.88	44.71
306.094	48.81
306.308	50.86
306.522	34.47
306.736	46.76
306.95	46.76
307.164	-43.35
307.379	18.09
307.593	73.39
307.807	34.47
308.021	24.23
308.235	110.25
308.449	32.43
308.663	7.85
308.877	-4.44
309.091	108.2
309.305	102.06
309.519	30.38
309.733	13.99
309.947	30.38
310.161	65.19
310.374	42.67
310.588	26.28
310.802	24.23
311.016	48.81
311.23	87.72
311.444	54.95
311.658	26.28
311.872	-14.68
312.085	44.71
312.299	9.9
312.513	50.86
312.727	65.19
312.941	22.19
313.154	59.05
313.368	26.28
313.582	71.34
313.796	13.99
314.009	114.34
314.223	22.19
314.437	71.34
314.651	-29.01
314.864	69.29
315.078	36.52
315.292	-41.3
315.505	38.57
315.719	48.81
315.933	-59.73
316.146	22.19
316.36	-2.39
316.573	38.57
316.787	18.09
317.001	11.95
317.214	3.75
317.428	-33.11
317.641	-67.92
317.855	34.47
318.068	32.43
318.282	-43.35
318.495	9.9
318.709	-6.49
318.922	36.52
319.136	97.96
319.349	46.76
319.563	-31.06
319.776	30.38
319.99	-22.87
320.203	57
320.417	52.91
320.63	77.48
320.843	75.43
321.057	13.99
321.27	40.62
321.483	59.05
321.697	85.67
321.91	87.72
322.124	38.57
322.337	40.62
322.55	-0.34
322.763	-45.4
322.977	48.81
323.19	79.53
323.403	-12.63
323.617	73.39
323.83	28.33
324.043	57
324.256	75.43
324.469	-6.49
324.683	46.76
324.896	9.9
325.109	22.19
325.322	-31.06
325.535	1.71
325.748	67.24
325.962	5.8
326.175	-8.53
326.388	-2.39
326.601	59.05
326.814	44.71
327.027	34.47
327.24	71.34
327.453	13.99
327.666	67.24
327.879	85.67
328.092	20.14
328.305	50.86
328.518	5.8
328.731	-14.68
328.944	-45.4
329.157	30.38
329.37	34.47
329.583	100.01
329.796	110.25
330.009	24.23
330.222	-26.96
330.435	48.81
330.648	71.34
330.861	16.04
331.073	54.95
331.286	89.77
331.499	7.85
331.712	-14.68
331.925	59.05
332.138	13.99
332.35	75.43
332.563	73.39
332.776	24.23
332.989	-65.88
333.202	71.34
333.414	126.63
333.627	-0.34
333.84	108.2
334.053	44.71
334.265	-37.2
334.478	11.95
334.691	-4.44
334.903	40.62
335.116	9.9
335.329	28.33
335.541	100.01
335.754	36.52
335.966	-10.58
336.179	52.91
336.392	54.95
336.604	-53.59
336.817	87.72
337.029	-43.35
337.242	-31.06
337.454	36.52
337.667	52.91
337.88	145.06
338.092	48.81
338.305	22.19
338.517	1.71
338.729	118.44
338.942	26.28
339.154	26.28
339.367	-8.53
339.579	44.71
339.792	-39.25
340.004	-4.44
340.217	59.05
340.429	40.62
340.641	44.71
340.854	16.04
341.066	-0.34
341.278	95.91
341.491	40.62
341.703	50.86
341.915	-6.49
342.128	67.24
342.34	32.43
342.552	-35.16
342.764	28.33
342.977	34.47
343.189	87.72
343.401	38.57
343.613	59.05
343.826	32.43
344.038	16.04
344.25	65.19
344.462	61.1
344.674	7.85
344.886	54.95
345.099	65.19
345.311	34.47
345.523	30.38
345.735	22.19
345.947	63.15
346.159	30.38
346.371	48.81
346.583	18.09
346.795	71.34
347.007	32.43
347.219	1.71
347.431	120.49
347.643	91.82
347.855	16.04
348.067	-8.53
348.279	73.39
348.491	-33.11
348.703	83.63
348.915	79.53
349.127	7.85
349.339	77.48
349.551	-2.39
349.763	28.33
349.975	59.05
350.187	65.19
350.399	13.99
350.61	30.38
350.822	-6.49
351.034	87.72
351.246	26.28
351.458	3.75
351.669	26.28
351.881	30.38
352.093	87.72
352.305	87.72
352.517	57
352.728	40.62
352.94	18.09
353.152	3.75
353.363	20.14
353.575	-26.96
353.787	128.68
353.999	87.72
354.21	42.67
354.422	40.62
354.633	18.09
354.845	20.14
355.057	24.23
355.268	40.62
355.48	9.9
355.692	42.67
355.903	59.05
356.115	52.91
356.326	38.57
356.538	16.04
356.749	-10.58
356.961	20.14
357.172	87.72
357.384	1.71
357.595	77.48
357.807	28.33
358.018	-16.73
358.23	59.05
358.441	67.24
358.653	-29.01
358.864	28.33
359.075	26.28
359.287	52.91
359.498	-0.34
359.709	65.19
359.921	28.33
360.132	67.24
360.344	57
360.555	54.95
360.766	65.19
360.977	65.19
361.189	-8.53
361.4	38.57
361.611	102.06
361.823	34.47
362.034	7.85
362.245	22.19
362.456	79.53
362.667	102.06
362.879	54.95
363.09	7.85
363.301	102.06
363.512	28.33
363.723	-6.49
363.935	16.04
364.146	102.06
364.357	-10.58
364.568	-22.87
364.779	30.38
364.99	124.58
365.201	-22.87
365.412	130.73
365.623	-31.06
365.834	69.29
366.045	57
366.256	-10.58
366.467	71.34
366.678	34.47
366.889	46.76
367.1	-16.73
367.311	-18.77
367.522	36.52
367.733	73.39
367.944	-0.34
368.155	102.06
368.366	44.71
368.577	59.05
368.788	48.81
368.999	24.23
369.209	38.57
369.42	40.62
369.631	73.39
369.842	13.99
370.053	42.67
370.264	24.23
370.474	73.39
370.685	-22.87
370.896	65.19
371.107	75.43
371.317	-10.58
371.528	-92.5
371.739	65.19
371.95	93.87
372.16	93.87
372.371	26.28
372.582	-33.11
372.792	67.24
373.003	16.04
373.214	83.63
373.424	89.77
373.635	-10.58
373.846	93.87
374.056	71.34
374.267	3.75
374.477	71.34
374.688	11.95
374.898	40.62
375.109	-0.34
375.319	-20.82
375.53	116.39
375.74	83.63
375.951	-4.44
376.161	-12.63
376.372	91.82
376.582	30.38
376.793	102.06
377.003	59.05
377.214	54.95
377.424	40.62
377.635	16.04
377.845	42.67
378.055	71.34
378.266	95.91
378.476	-43.35
378.686	75.43
378.897	81.58
379.107	-6.49
379.317	36.52
379.528	91.82
379.738	81.58
379.948	11.95
380.158	67.24
380.369	69.29
380.579	71.34
380.789	-16.73
380.999	-10.58
381.21	108.2
381.42	57
381.63	87.72
381.84	69.29
382.05	-14.68
382.261	22.19
382.471	40.62
382.681	71.34
382.891	59.05
383.101	1.71
383.311	34.47
383.521	40.62
383.731	134.82
383.941	67.24
384.151	57
384.361	30.38
384.571	7.85
384.781	16.04
384.991	57
385.201	95.91
385.411	16.04
385.621	77.48
385.831	-31.06
386.041	63.15
386.251	44.71
386.461	65.19
386.671	36.52
386.881	75.43
387.091	13.99
387.301	38.57
387.511	-43.35
387.72	50.86
387.93	34.47
388.14	16.04
388.35	136.87
388.56	81.58
388.769	110.25
388.979	75.43
389.189	22.19
389.399	69.29
389.609	67.24
389.818	59.05
390.028	-12.63
390.238	83.63
390.447	13.99
390.657	114.34
390.867	79.53
391.076	-0.34
391.286	-33.11
391.496	52.91
391.705	97.96
391.915	48.81
392.125	83.63
392.334	50.86
392.544	63.15
392.753	104.11
392.963	75.43
393.172	22.19
393.382	63.15
393.591	50.86
393.801	85.67
394.01	61.1
394.22	40.62
394.429	85.67
394.639	48.81
394.848	112.3
395.058	108.2
395.267	28.33
395.477	108.2
395.686	20.14
395.895	120.49
396.105	91.82
396.314	165.54
396.524	147.11
396.733	44.71
396.942	124.58
397.152	116.39
397.361	102.06
397.57	54.95
397.78	36.52
397.989	52.91
398.198	173.74
398.407	140.97
398.617	120.49
398.826	30.38
399.035	112.3
399.244	143.02
399.453	59.05
399.663	67.24
399.872	122.54
400.081	75.43
400.29	61.1
400.499	95.91
400.708	61.1
400.917	42.67
401.127	7.85
401.336	159.4
401.545	181.93
401.754	128.68
401.963	91.82
402.172	145.06
402.381	118.44
402.59	81.58
402.799	132.78
403.008	116.39
403.217	177.83
403.426	145.06
403.635	112.3
403.844	159.4
404.053	120.49
404.262	69.29
404.471	186.02
404.68	181.93
404.888	79.53
405.097	124.58
405.306	120.49
405.515	145.06
405.724	104.11
405.933	153.26
406.142	165.54
406.35	140.97
406.559	130.73
406.768	167.59
406.977	161.45
407.185	157.35
407.394	116.39
407.603	179.88
407.812	202.41
408.02	169.64
408.229	224.94
408.438	261.8
408.646	181.93
408.855	259.75
409.064	229.03
409.272	222.89
409.481	272.04
409.69	200.36
409.898	276.13
410.107	345.77
410.315	331.43
410.524	317.09
410.733	335.53
410.941	358.05
411.15	362.15
411.358	362.15
411.567	368.29
411.775	368.29
411.984	358.05
412.192	427.68
412.401	480.93
412.609	491.17
412.818	454.31
413.026	427.68
413.234	503.46
413.443	452.26
413.651	562.85
413.86	556.71
414.068	589.47
414.276	593.57
414.485	556.71
414.693	689.82
414.901	640.67
415.11	681.63
415.318	626.34
415.526	818.85
415.734	831.13
415.943	767.65
416.151	749.22
416.359	822.94
416.567	816.8
416.776	839.33
416.984	970.4
417.192	947.87
417.4	923.29
417.608	892.57
417.817	1011.36
418.025	1089.18
418.233	1072.79
418.441	1054.36
418.649	1183.38
418.857	1203.86
419.065	1291.93
419.273	1238.68
419.481	1345.17
419.689	1361.56
419.897	1355.41
420.105	1468.05
420.313	1572.5
420.521	1597.07
420.729	1599.12
420.937	1633.94
421.145	1664.66
421.353	1875.6
421.561	1883.79
421.769	1939.09
421.977	2016.91
422.185	1930.89
422.393	2174.6
422.601	2223.75
422.809	2174.6
423.017	2207.37
423.224	2305.67
423.432	2432.65
423.64	2455.17
423.848	2666.11
424.056	2645.63
424.263	2766.46
424.471	2803.33
424.679	3151.48
424.887	2981.5
425.094	2997.88
425.302	3241.59
425.51	3202.68
425.718	3430.01
425.925	3313.27
426.133	3524.21
426.341	3614.32
426.548	3917.42
426.756	3915.37
426.964	3804.78
427.171	4062.83
427.379	4232.81
427.586	4243.05
427.794	4404.84
428.001	4615.78
428.209	4851.3
428.417	4851.3
428.624	5056.09
428.832	5031.52
429.039	4931.17
429.247	5211.74
429.454	5570.13
429.662	5901.9
429.869	5469.78
430.076	6100.56
430.284	5791.31
430.491	5989.97
430.699	6329.93
430.906	6434.38
431.114	6409.8
431.321	6778.44
431.528	6874.69
431.736	7206.46
431.943	7571
432.15	7212.6
432.358	7550.52
432.565	7736.88
432.772	7767.6
432.979	8089.14
433.187	8300.08
433.394	8463.91
433.601	9043.49
433.808	8955.43
434.016	9043.49
434.223	9451.03
434.43	10046.99
434.637	9592.34
434.844	10401.29
435.052	10651.14
435.259	10546.7
435.466	10692.1
435.673	10429.96
435.88	11296.25
436.087	11894.26
436.294	11793.91
436.501	11400.7
436.708	11703.8
436.915	12295.66
437.122	12619.24
437.329	12426.73
437.537	12967.4
437.743	13084.13
437.95	13149.67
438.157	13622.75
438.364	14185.94
438.571	14239.19
438.778	14269.9
438.985	15812.03
439.192	14908.87
439.399	15556.03
439.606	15011.27
439.813	16045.49
440.02	17229.22
440.227	16532.91
440.433	16367.02
440.64	17100.2
440.847	16893.35
441.054	17440.16
441.261	18599.31
441.467	18515.34
441.674	19008.9
441.881	19481.99
442.088	19223.94
442.294	19297.67
442.501	19692.93
442.708	20100.47
442.914	20804.97
443.121	21558.63
443.328	21349.73
443.534	22586.71
443.741	22013.27
443.948	21833.05
444.154	23491.91
444.361	23002.44
444.568	23379.27
444.774	23471.43
444.981	23725.38
445.187	24413.49
445.394	25197.87
445.6	25023.79
445.807	27344.14
446.013	26060.06
446.22	26780.95
446.426	27456.78
446.633	28073.21
446.839	28808.44
447.046	27442.44
447.252	29220.08
447.459	29240.56
447.665	28951.79
447.871	30584.02
448.078	31864
448.284	29912.29
448.491	30690.52
448.697	32066.75
448.903	32838.84
449.11	32720.06
449.316	32021.7
449.522	32863.41
449.728	33473.71
449.935	33645.74
450.141	33672.36
450.347	34897.05
450.553	33436.84
450.76	33979.56
450.966	35009.68
451.172	34651.29
451.378	35402.89
451.584	34575.52
451.791	35648.65
451.997	35693.71
452.203	35855.5
452.409	35691.66
452.615	36068.48
452.821	34260.13
453.027	34018.47
453.233	36050.05
453.44	34170.02
453.646	34940.05
453.852	34770.07
454.058	35462.29
454.264	34049.19
454.47	35093.65
454.676	34010.28
454.882	35077.27
455.088	31878.34
455.294	32646.33
455.5	32847.03
455.705	33418.41
455.911	32232.64
456.117	31237.33
456.323	30842.07
456.529	29111.53
456.735	30280.92
456.941	29738.21
457.147	29050.1
457.352	28556.53
457.558	27784.45
457.764	28017.92
457.97	27751.68
458.176	26742.03
458.381	27135.24
458.587	25722.15
458.793	25482.53
458.999	24206.65
459.204	26117.4
459.41	25320.74
459.616	23549.25
459.821	23672.13
460.027	23532.87
460.233	22945.1
460.438	21726.56
460.644	22330.71
460.85	21230.95
461.055	20870.51
461.261	20700.53
461.466	19135.88
461.672	18589.07
461.878	19942.78
462.083	18867.59
462.289	18513.3
462.494	18105.75
462.7	17515.94
462.905	16620.97
463.111	17511.84
463.316	17444.26
463.522	17024.42
463.727	17327.52
463.932	17173.92
464.138	16852.39
464.343	16975.27
464.549	16465.33
464.754	17051.05
464.959	17065.38
465.165	17008.04
465.37	16303.54
465.575	15832.51
465.781	16491.95
465.986	16344.5
466.191	16090.55
466.397	15623.61
466.602	14656.97
466.807	15662.52
467.012	15504.83
467.218	15437.25
467.423	15166.92
467.628	15099.33
467.833	16156.08
468.038	15414.72
468.244	14945.73
468.449	15697.34
468.654	14943.69
468.859	15015.37
469.064	14648.78
469.269	14337.49
469.474	14253.52
469.679	14554.57
469.885	13891.03
470.09	14278.1
470.295	14253.52
470.5	13835.74
470.705	13979.09
470.91	13471.2
471.115	13551.07
471.32	13630.94
471.525	13719
471.73	13477.34
471.935	13362.65
472.139	12744.17
472.344	12908.01
472.549	12838.37
472.754	12899.81
472.959	12410.35
473.164	12107.25
473.369	11894.26
473.574	12410.35
473.778	12328.43
473.983	12344.81
474.188	12097.01
474.393	11738.62
474.598	11634.17
474.802	11722.23
475.007	11499
475.212	11556.35
475.417	11290.11
475.621	11238.91
475.826	11253.25
476.031	11046.4
476.235	10649.1
476.44	10790.41
476.645	10475.02
476.849	10835.46
477.054	10372.62
477.259	10403.34
477.463	10378.76
477.668	10118.67
477.872	10354.19
478.077	10018.32
478.282	9917.97
478.486	10040.85
478.691	9774.61
478.895	9643.54
479.1	9655.83
479.304	9717.27
479.509	9451.03
479.713	9344.54
479.918	9383.45
480.122	9117.22
480.326	9215.52
480.531	9352.73
480.735	9309.72
480.94	9074.21
481.144	9346.59
481.348	9053.73
481.553	9215.52
481.757	8930.85
481.961	9174.56
482.166	9190.94
482.37	9057.82
482.574	8857.12
482.778	9059.87
482.983	9197.09
483.187	9098.78
483.391	9139.74
483.595	8975.91
483.8	8869.41
484.004	9053.73
484.208	8965.67
484.412	8889.89
484.616	8865.32
484.821	9121.31
485.025	8787.49
485.229	9045.54
485.433	8717.86
485.637	8914.47
485.841	8932.9
486.045	8918.56
486.249	8965.67
486.453	9068.06
486.657	9231.9
486.861	9072.16
487.065	8779.3
487.269	8912.42
487.473	8767.01
487.677	8951.33
487.881	9008.67
488.085	8893.99
488.289	9139.74
488.493	9018.91
488.697	8879.65
488.901	9076.26
489.105	9029.15
489.309	9004.58
489.512	8943.14
489.716	8967.71
489.92	9029.15
490.124	8896.03
490.328	9274.91
490.531	9197.09
490.735	9303.58
490.939	9233.95
491.143	9192.99
491.346	9326.11
491.55	9395.74
491.754	9262.62
491.958	9377.31
492.161	9424.41
492.365	9664.02
492.569	9446.94
492.772	9332.25
492.976	9637.4
493.18	9784.85
493.383	9893.4
493.587	9635.35
493.79	10126.86
493.994	9635.35
494.197	10051.09
494.401	9932.31
494.605	10040.85
494.808	9969.17
495.012	10083.86
495.215	10192.4
495.419	10472.97
495.622	10204.69
495.825	10479.11
496.029	10569.23
496.232	10819.08
496.436	10413.58
496.639	11046.4
496.843	10817.03
497.046	10964.48
497.249	11144.7
497.453	11183.62
497.656	11312.64
497.859	11351.55
498.063	11593.21
498.266	11814.39
498.469	11603.45
498.673	11920.88
498.876	12023.28
499.079	12219.89
499.282	12234.22
499.485	12514.8
499.689	12467.69
499.892	12797.42
500.095	12686.83
500.298	13307.36
500.501	12850.66
500.705	13317.6
500.908	13311.46
501.111	13583.84
501.314	13749.72
501.517	13866.46
501.72	13952.47
501.923	14083.54
502.126	14138.83
502.329	14489.04
502.532	14484.94
502.735	14538.19
502.938	14996.93
503.141	14652.88
503.344	15254.98
503.547	15216.07
503.75	15306.18
503.953	15640
504.156	15895.99
504.359	15832.51
504.562	16027.06
504.765	16356.79
504.968	16326.07
505.17	16876.97
505.373	16860.59
505.576	17313.19
505.779	17227.17
505.982	17268.13
506.185	17618.33
506.387	17749.4
506.59	17692.06
506.793	18279.83
506.996	18277.78
507.198	18869.64
507.401	18380.18
507.604	18965.9
507.807	19172.74
508.009	19369.35
508.212	19477.89
508.415	19416.45
508.617	19744.13
508.82	19953.02
509.022	19864.96
509.225	20360.56
509.428	20815.21
509.63	20890.99
509.833	20942.19
510.035	21513.57
510.238	21411.17
510.44	21742.94
510.643	21822.81
510.845	22230.36
511.048	21902.68
511.25	22377.81
511.453	22304.09
511.655	23344.45
511.858	22959.44
512.06	23342.41
512.262	23838.01
512.465	23700.8
512.667	23952.7
512.87	24300.86
513.072	24143.16
513.274	25189.67
513.477	25062.7
513.679	25150.76
513.881	25427.24
514.084	25599.27
514.286	25836.83
514.488	26006.81
514.69	26873.1
514.893	26574.1
515.095	26891.54
515.297	27090.19
515.499	27301.13
515.701	27589.89
515.904	27905.28
516.106	27780.35
516.308	28321.02
516.51	28669.17
516.712	28431.61
516.914	29005.04
517.116	29488.36
517.318	29646.05
517.52	29824.23
517.722	30014.69
517.925	30311.64
518.127	30764.25
518.329	30799.06
518.531	30780.63
518.733	31548.62
518.935	31519.95
519.136	31730.89
519.338	32148.67
519.54	32353.47
519.742	32654.52
519.944	32720.06
520.146	33082.55
520.348	33606.83
520.55	33676.46
520.752	33774.76
520.954	34084
521.155	34135.2
521.357	34460.83
521.559	34960.53
521.761	35058.84
521.963	35593.36
522.164	35482.77
522.366	35798.15
522.568	35781.77
522.77	36144.26
522.971	36783.23
523.173	36783.23
523.375	36897.91
523.576	36926.58
523.778	37362.8
523.98	37629.04
524.181	37930.09
524.383	37717.1
524.584	38329.44
524.786	38513.76
524.988	38298.72
525.189	38700.12
525.391	39005.27
525.592	39314.51
525.794	39464.02
525.995	39220.31
526.197	39425.11
526.398	39330.9
526.6	39900.23
526.801	40375.36
527.003	40279.11
527.204	40111.17
527.406	40789.05
527.607	40752.19
527.808	40911.93
528.01	40641.6
528.211	41008.18
528.412	41385.01
528.614	41403.44
528.815	41421.87
529.016	41911.34
529.218	41327.67
529.419	41208.89
529.62	41817.13
529.822	41614.38
530.023	41870.38
530.224	41974.83
530.425	42064.94
530.626	41755.69
530.828	41972.78
531.029	42941.47
531.23	42114.09
531.431	42296.36
531.632	42521.63
531.833	42527.78
532.035	42341.41
532.236	42839.07
532.437	42742.81
532.638	42613.79
532.839	42933.28
533.04	42873.88
533.241	42372.13
533.442	43539.47
533.643	42843.16
533.844	43162.65
534.045	43158.55
534.246	43088.92
534.447	43258.9
534.648	42900.51
534.849	43576.34
535.05	42984.47
535.251	43273.24
535.451	43172.89
535.652	43136.02
535.853	43195.42
536.054	42687.52
536.255	43224.09
536.456	43322.39
536.657	43904.01
536.857	43222.04
537.058	42986.52
537.259	43691.02
537.46	43367.44
537.66	43029.53
537.861	43613.2
538.062	43121.69
538.263	43430.93
538.463	43312.15
538.664	43844.62
538.865	43260.95
539.065	43619.35
539.266	43117.59
539.466	43693.07
539.667	43035.67
539.868	43553.81
540.068	42920.99
540.269	43611.15
540.469	43920.4
540.67	43275.29
540.87	43052.06
541.071	43269.14
541.271	43535.38
541.472	43150.36
541.672	43371.54
541.873	43101.21
542.073	42742.81
542.274	43584.53
542.474	43080.73
542.675	42771.49
542.875	43371.54
543.075	43019.29
543.276	42933.28
543.476	43627.54
543.676	43219.99
543.877	43322.39
544.077	42505.25
544.277	42947.61
544.478	43070.49
544.678	43115.54
544.878	42959.9
545.078	43164.7
545.279	42964
545.479	42871.84
545.679	43394.07
545.879	43336.73
546.079	43113.5
546.28	42970.14
546.48	42650.66
546.68	43086.87
546.88	43117.59
547.08	42949.66
547.28	43095.07
547.48	42880.03
547.68	42933.28
547.88	42587.17
548.081	43439.12
548.281	43080.73
548.481	42644.51
548.681	43428.88
548.881	43150.36
549.081	43041.82
549.28	42710.05
549.48	43074.59
549.68	42761.25
549.88	43406.36
550.08	42615.84
550.28	43078.68
550.48	42910.75
550.68	42910.75
550.88	42785.82
551.08	42740.77
551.279	42755.1
551.479	42337.32
551.679	42642.46
551.879	42658.85
552.079	42699.81
552.278	42574.88
552.478	42753.05
552.678	42667.04
552.878	42679.33
553.077	42409
553.277	42241.06
553.477	43125.78
553.676	42300.45
553.876	42458.15
554.076	42404.9
554.275	42421.28
554.475	41878.57
554.674	42546.21
554.874	42611.74
555.074	41989.16
555.273	42376.23
555.473	42341.41
555.672	42159.14
555.872	42456.1
556.071	42306.6
556.271	41899.05
556.47	41989.16
556.67	41571.38
556.869	41901.1
557.068	42253.35
557.268	41786.41
557.467	41999.4
557.667	41421.87
557.866	41878.57
558.065	41706.54
558.265	42069.03
558.464	41319.48
558.663	41987.11
558.863	41229.37
559.062	41729.07
559.261	41452.59
559.461	42095.66
559.66	40739.9
559.859	41544.75
560.058	41401.39
560.258	41098.3
560.457	40635.45
560.656	40948.79
560.855	41026.62
561.054	41004.09
561.253	40627.26
561.453	41360.44
561.652	40877.11
561.851	40942.65
562.05	40614.97
562.249	40426.56
562.448	40834.11
562.647	40426.56
562.846	40502.34
563.045	40248.39
563.244	39730.25
563.443	40688.7
563.642	39724.11
563.841	40383.55
564.04	39918.67
564.239	40244.29
564.438	39525.46
564.637	40256.58
564.836	40000.58
565.035	39302.23
565.234	39728.2
565.432	39361.62
565.631	39302.23
565.83	39378
566.029	39238.74
566.228	39322.71
566.427	39525.46
566.625	39040.09
566.824	38610.01
567.023	39193.68
567.222	38229.09
567.42	39230.55
567.619	38480.99
567.818	38509.66
568.016	38276.19
568.215	39132.25
568.414	38667.36
568.612	38837.34
568.811	38130.79
569.01	38401.12
569.208	37889.13
569.407	38153.32
569.605	37575.79
569.804	38304.87
570.002	37604.46
570.201	37639.28
570.4	37428.34
570.598	37254.26
570.797	37301.36
570.995	37502.06
571.193	37055.61
571.392	37489.77
571.59	36940.92
571.789	37323.89
571.987	36809.85
572.186	36801.66
572.384	36725.88
572.582	36643.96
572.781	36936.82
572.979	36101.25
573.177	36633.72
573.376	36330.62
573.574	36201.6
573.772	36347.01
573.971	36033.67
574.169	35869.83
574.367	35486.86
574.565	35804.3
574.763	35359.89
574.962	35781.77
575.16	35349.65
575.358	35640.46
575.556	35163.28
575.754	35638.41
575.952	34776.22
576.151	35251.34
576.349	34641.05
576.547	34784.41
576.745	34823.32
576.943	35058.84
577.141	34804.89
577.339	35263.63
577.537	34518.17
577.735	34716.82
577.933	34262.18
578.131	34489.5
578.329	34368.67
578.527	34237.6
578.725	34053.28
578.923	34034.85
579.121	34010.28
579.319	33782.95
579.516	34028.71
579.714	34159.78
579.912	33524.91
580.11	33694.89
580.308	33615.02
580.506	33262.77
580.704	32654.52
580.901	33230
581.099	33309.87
581.297	33033.39
581.495	32752.82
581.692	33199.28
581.89	32767.16
582.088	32761.01
582.285	32951.48
582.483	32771.25
582.681	32541.88
582.878	32431.29
583.076	32224.45
583.274	32697.53
583.471	32101.57
583.669	32191.68
583.866	32167.1
584.064	31974.59
584.262	31945.92
584.459	32064.71
584.657	31757.51
584.854	31773.89
585.052	31405.26
585.249	31624.39
585.447	31700.17
585.644	31362.25
585.841	31575.24
586.039	31630.54
586.236	30794.96
586.434	30989.52
586.631	30547.16
586.828	31190.22
587.026	30784.72
587.223	30977.23
587.42	30733.53
587.618	30600.41
587.815	30399.71
588.012	30258.4
588.21	30332.12
588.407	30289.12
588.604	29846.76
588.801	29891.81
588.999	29940.96
589.196	29863.14
589.393	29852.9
589.59	29644.01
589.787	29365.48
589.984	29338.86
590.182	29447.4
590.379	29603.05
590.576	29265.13
590.773	29127.92
590.97	29265.13
591.167	28962.03
591.364	28841.2
591.561	29258.99
591.758	28876.02
591.955	28830.96
592.152	28839.15
592.349	28593.4
592.546	28843.25
592.743	28732.66
592.94	28091.65
593.137	28495.1
593.334	28378.36
593.531	27995.39
593.727	28300.54
593.924	28005.63
594.121	27964.67
594.318	28202.24
594.515	27571.46
594.712	27798.79
594.908	27606.28
595.105	27536.65
595.302	27264.27
595.499	27381
595.696	27366.67
595.892	26969.36
596.089	27307.27
596.286	27346.19
596.482	27329.8
596.679	26932.5
596.876	27321.61
597.072	26785.04
597.269	27012.37
597.466	26891.54
597.662	26864.91
597.859	26455.32
598.055	26656.02
598.252	26346.78
598.448	26328.34
598.645	26533.14
598.841	25957.66
599.038	26291.48
599.234	26248.47
599.431	25955.61
599.627	25754.91
599.824	26039.58
600.02	25513.25
600.217	26195.23
600.413	25249.07
600.609	25517.35
600.806	25521.45
601.002	25498.92
601.198	25423.14
601.395	25265.45
601.591	24886.57
601.787	25161
601.984	25060.65
602.18	25169.19
602.376	24974.64
602.572	25042.22
602.769	24919.34
602.965	24577.33
603.161	24669.49
603.357	24638.77
603.553	24546.61
603.75	24702.26
603.946	24503.6
604.142	24370.49
604.338	24229.18
604.534	24474.93
604.73	23858.49
604.926	23936.32
605.122	23819.58
605.318	23811.39
605.514	23721.28
605.71	23686.47
605.906	23727.42
606.102	23653.7
606.298	23835.97
606.494	23706.94
606.69	23442.76
606.886	23680.32
607.082	23047.5
607.278	23629.12
607.474	22943.05
607.67	23209.29
607.866	23072.07
608.062	23162.19
608.257	22709.58
608.453	23356.74
608.649	22893.9
608.845	22746.45
609.041	22928.72
609.236	22830.41
609.432	22814.03
609.628	22795.6
609.824	22762.83
610.019	22527.31
610.215	22635.86
610.411	22590.8
610.606	22275.41
610.802	22500.69
610.998	22582.61
611.193	22517.08
611.389	22123.87
611.584	22236.5
611.78	22170.97
611.976	22232.41
612.171	22402.39
612.367	22173.02
612.562	22101.34
612.758	21939.55
612.953	21564.77
613.149	22320.47
613.344	21847.39
613.539	22426.96
613.735	21728.61
613.93	21622.11
614.126	21679.46
614.321	21835.1
614.517	21900.64
614.712	21482.85
614.907	21575.01
615.103	21953.88
615.298	21583.2
615.493	21806.43
615.688	21529.95
615.884	21833.05
616.079	21003.63
616.274	21380.45
616.47	21378.4
616.665	21263.72
616.86	21159.27
617.055	21116.26
617.25	21110.12
617.445	21550.43
617.641	20864.36
617.836	20964.71
618.031	20665.71
618.226	20878.7
618.421	20893.04
618.616	21149.03
618.811	20123
619.006	20702.57
619.201	20419.96
619.396	20766.06
619.591	20321.65
619.786	20471.15
619.981	20077.94
620.176	20364.66
620.371	19916.15
620.566	20217.21
620.761	19875.2
620.956	19932.54
621.151	19674.49
621.346	19799.42
621.541	19449.22
621.735	19959.16
621.93	19281.28
622.125	19277.19
622.32	19166.6
622.515	19269
622.709	19103.11
622.904	19154.31
623.099	18797.96
623.294	18783.63
623.488	18701.71
623.683	18615.69
623.878	18498.96
624.072	18359.7
624.267	18433.43
624.462	18435.47
624.656	18097.56
624.851	18154.9
625.046	18013.59
625.24	17880.47
625.435	17647.01
625.629	17978.78
625.824	17595.81
626.018	17636.77
626.213	17212.84
626.407	17446.3
626.602	17016.23
626.796	17268.13
626.991	16928.17
627.185	17065.38
627.38	16965.03
627.574	16758.19
627.768	16694.7
627.963	16586.16
628.157	16438.7
628.352	16350.64
628.546	16207.28
628.74	16582.06
628.935	16014.77
629.129	16235.95
629.323	16158.13
629.517	16072.12
629.712	15670.72
629.906	15801.79
630.1	15697.34
630.294	15814.07
630.489	15457.73
630.683	15676.86
630.877	15461.82
631.071	15254.98
631.265	15394.24
631.459	15386.05
631.653	15095.24
631.848	14904.78
632.042	14925.25
632.236	14898.63
632.43	14763.47
632.624	14577.1
632.818	14648.78
633.012	14468.56
633.206	14380.5
633.4	14480.85
633.594	14116.31
633.788	14304.72
633.982	14192.08
634.176	13884.89
634.369	14030.29
634.563	13970.9
634.757	13860.31
634.951	13843.93
635.145	13690.33
635.339	13735.39
635.533	13649.37
635.726	13719
635.92	13420
636.114	13555.16
636.308	13317.6
636.501	13442.53
636.695	13256.16
636.889	13106.66
637.083	13014.5
637.276	12887.53
637.47	12989.92
637.664	12824.04
637.857	12844.52
638.051	12774.89
638.244	12711.4
638.438	12633.58
638.632	12592.62
638.825	12400.11
639.019	12516.84
639.212	12357.1
639.406	12133.87
639.599	12328.43
639.793	12072.43
639.986	11843.06
640.18	12187.12
640.373	12168.69
640.567	11755
640.76	11937.27
640.954	11816.44
641.147	11593.21
641.34	11562.49
641.534	11701.75
641.727	11703.8
641.92	11544.06
642.114	11396.6
642.307	11496.96
642.5	11437.56
642.694	11013.63
642.887	11101.7
643.08	11357.69
643.273	11042.31
643.467	11081.22
643.66	10827.27
643.853	10806.79
644.046	10661.38
644.239	10788.36
644.432	10411.53
644.626	10518.03
644.819	10432.01
645.012	10604.04
645.205	10649.1
645.398	10337.8
645.591	10305.04
645.784	10274.32
645.977	10112.53
646.17	10194.45
646.363	10169.87
646.556	9934.36
646.749	9889.3
646.942	10124.82
647.135	9735.7
647.328	9764.37
647.521	9795.09
647.714	9592.34
647.907	9606.68
648.099	9729.56
648.292	9618.97
648.485	9688.6
648.678	9405.98
648.871	9360.92
649.064	9369.12
649.256	9461.27
649.449	9332.25
649.642	9301.53
649.835	9213.47
650.027	9244.19
650.22	9141.79
650.413	9027.1
650.605	9090.59
650.798	8777.25
650.991	8908.32
651.183	8930.85
651.376	8961.57
651.568	8853.03
651.761	8701.48
651.954	8623.66
652.146	8644.13
652.339	8545.83
652.531	8455.72
652.724	8392.23
652.916	8306.22
653.109	8431.15
653.301	8371.75
653.494	8418.86
653.686	8091.18
653.879	8199.73
654.071	8001.07
654.263	7994.93
654.456	8203.82
654.648	8185.39
654.84	7984.69
655.033	7970.35
655.225	7978.54
655.417	7996.98
655.61	7892.53
655.802	7951.92
655.994	7820.85
656.186	7685.69
656.379	7695.93
656.571	7755.32
656.763	7472.7
656.955	7315
657.148	7505.46
657.34	7530.04
657.532	7499.32
657.724	7495.22
657.916	7358.01
658.108	7212.6
658.3	7310.91
658.492	7376.44
658.684	7157.31
658.876	7204.41
659.068	7185.98
659.26	7083.58
659.452	6997.57
659.644	6950.46
659.836	7063.1
660.028	7052.86
660.22	6891.07
660.412	6848.07
660.604	6940.22
660.796	6886.98
660.988	6805.06
661.18	6733.38
661.372	6751.81
661.563	6854.21
661.755	6565.45
661.947	6581.83
662.139	6696.52
662.331	6559.3
662.522	6553.16
662.714	6379.08
662.906	6454.86
663.097	6360.65
663.289	6202.96
663.481	6346.31
663.673	6366.79
663.864	6227.53
664.056	6205
664.247	6000.21
664.439	6166.09
664.631	6301.26
664.822	6164.04
665.014	6078.03
665.205	6024.78
665.397	6032.97
665.588	5996.11
665.78	6014.54
665.971	6002.26
666.163	5764.69
666.354	5992.02
666.546	5856.85
666.737	5811.79
666.929	5832.27
667.12	5752.4
667.311	5758.55
667.503	5740.12
667.694	5686.87
667.885	5367.38
668.077	5727.83
668.268	5670.48
668.459	5541.46
668.651	5502.55
668.842	5604.95
669.033	5578.33
669.224	5408.34
669.416	5570.13
669.607	5557.85
669.798	5404.25
669.989	5340.76
670.18	5449.3
670.371	5246.55
670.563	5414.49
670.754	5295.71
670.945	5154.4
671.136	5191.26
671.327	5183.07
671.518	5135.96
671.709	5078.62
671.9	5310.04
672.091	5074.53
672.282	5158.49
672.473	5095
672.664	5043.81
672.855	5103.2
673.046	4976.22
673.237	5021.28
673.428	5049.95
673.619	5107.29
673.809	4953.7
674	4894.3
674.191	4933.22
674.382	4732.51
674.573	4863.58
674.764	4904.54
674.954	4781.67
675.145	4716.13
675.336	4732.51
675.527	4699.75
675.717	4669.03
675.908	4599.4
676.099	4691.56
676.289	4630.12
676.48	4666.98
676.671	4576.87
676.861	4781.67
677.052	4544.1
677.243	4515.43
677.433	4718.18
677.624	4632.16
677.814	4515.43
678.005	4546.15
678.195	4478.57
678.386	4597.35
678.576	4529.77
678.767	4417.13
678.957	4464.23
679.148	4533.86
679.338	4439.65
679.529	4408.94
679.719	4380.26
679.909	4570.72
680.1	4304.49
680.29	4458.09
680.481	4353.64
680.671	4286.06
680.861	4267.63
681.052	4423.27
681.242	4304.49
681.432	4370.02
681.622	4290.15
681.813	4331.11
682.003	4222.57
682.193	4286.06
682.383	4169.32
682.573	4281.96
682.764	4218.47
682.954	4122.22
683.144	4312.68
683.334	4243.05
683.524	4165.23
683.714	4105.84
683.904	4093.55
684.094	4241
684.284	4068.97
684.474	4177.51
684.664	4152.94
684.854	4136.56
685.044	4032.11
685.234	4025.97
685.424	4148.84
685.614	3991.15
685.804	3982.96
685.994	3903.09
686.184	3948.14
686.374	4062.83
686.564	3952.24
686.753	3919.47
686.943	3847.79
687.133	3786.35
687.323	3931.76
687.513	3896.94
687.702	3954.29
687.892	3823.22
688.082	3855.98
688.272	3788.4
688.461	3829.36
688.651	3905.14
688.841	3700.34
689.03	3894.9
689.22	3753.59
689.41	3784.3
689.599	3688.05
689.789	3743.35
689.979	3769.97
690.168	3778.16
690.358	3718.77
690.547	3413.62
690.737	3675.76
690.926	3681.91
691.116	3630.71
691.305	3593.84
691.495	3597.94
691.684	3511.93
691.874	3444.34
692.063	3460.73
692.252	3516.02
692.442	3640.95
692.631	3651.19
692.82	3487.35
693.01	3434.1
693.199	3374.71
693.388	3597.94
693.578	3442.29
693.767	3358.33
693.956	3421.81
694.146	3319.42
694.335	3296.89
694.524	3217.02
694.713	3343.99
694.902	3315.32
695.092	3397.24
695.281	3358.33
695.47	3335.8
695.659	3382.9
695.848	3456.63
696.037	3350.14
696.226	3278.46
696.415	3225.21
696.604	3343.99
696.793	3190.39
696.982	3331.7
697.171	3262.07
697.36	3243.64
697.549	3253.88
697.738	3196.54
697.927	3186.3
698.116	3290.74
698.305	3237.5
698.494	3247.74
698.683	3321.46
698.872	3251.83
699.061	3212.92
699.25	3303.03
699.438	3397.24
699.627	3061.37
699.816	3233.4
700.005	3098.24
700.193	3270.26
700.382	3194.49
700.571	3098.24
700.76	3266.17
700.948	3239.55
701.137	3167.87
701.326	3102.33
701.514	3071.61
701.703	3149.43
701.892	2977.41
702.08	3208.83
702.269	3071.61
702.457	3131
702.646	3210.87
702.834	2977.41
703.023	3004.03
703.212	3094.14
703.4	3073.66
703.589	3219.07
703.777	3210.87
703.965	3102.33
704.154	3065.47
704.342	3055.23
704.531	3208.83
704.719	2983.55
704.907	3198.59
705.096	3044.99
705.284	3098.24
705.472	3069.56
705.661	2918.01
705.849	3008.12
706.037	3100.28
706.226	2936.45
706.414	3063.42
706.602	3104.38
706.79	2989.69
706.979	3022.46
707.167	3151.48
707.355	3006.08
707.543	3032.7
707.731	3081.85
707.919	2997.88
708.107	3049.08
708.296	3063.42
708.484	2979.45
708.672	3116.67
708.86	3059.32
709.048	3018.36
709.236	3042.94
709.424	3124.86
709.612	3044.99
709.8	2862.72
709.988	2913.92
710.176	2961.02
710.364	3018.36
710.551	2997.88
710.739	2995.84
710.927	2948.73
711.115	2995.84
711.303	2901.63
711.491	2975.36
711.679	2997.88
711.866	2956.93
712.054	2961.02
712.242	2862.72
712.43	2895.49
712.617	2819.71
712.805	2909.82
712.993	2973.31
713.181	2879.1
713.368	3008.12
713.556	2852.48
713.744	2791.04
713.931	3022.46
714.119	2971.26
714.306	2915.97
714.494	2940.54
714.682	2893.44
714.869	2823.81
715.057	2823.81
715.244	2832
715.432	2877.05
715.619	2825.86
715.807	2885.25
715.994	2829.95
716.182	2778.75
716.369	2877.05
716.556	2905.73
716.744	2858.62
716.931	2819.71
717.119	2922.11
717.306	3006.08
717.493	2819.71
717.681	2760.32
717.868	2922.11
718.055	2895.49
718.242	2950.78
718.43	2786.94
718.617	2879.1
718.804	2784.9
718.991	2852.48
719.179	2832
719.366	2791.04
719.553	2770.56
719.74	2856.58
719.927	2723.46
720.114	2762.37
720.301	2854.53
720.488	2659.97
720.676	2741.89
720.863	2899.58
721.05	2864.77
721.237	2733.7
721.424	2731.65
721.611	2815.62
721.798	2707.07
721.985	2772.61
722.172	2774.66
722.358	2862.72
722.545	2844.29
722.732	2780.8
722.919	2692.74
723.106	2797.18
723.293	2780.8
723.48	2719.36
723.667	2668.16
723.853	2696.83
724.04	2856.58
724.227	2778.75
724.414	2662.02
724.6	2727.55
724.787	2729.6
724.974	2776.7
725.161	2735.74
725.347	2592.39
725.534	2686.59
725.72	2764.42
725.907	2676.35
726.094	2655.87
726.28	2639.49
726.467	2498.18
726.653	2598.53
726.84	2725.51
727.027	2840.19
727.213	2631.3
727.4	2799.23
727.586	2754.18
727.773	2631.3
727.959	2567.81
728.145	2633.35
728.332	2682.5
728.518	2625.15
728.705	2578.05
728.891	2700.93
729.077	2686.59
729.264	2723.46
729.45	2659.97
729.636	2788.99
729.823	2549.38
730.009	2688.64
730.195	2659.97
730.382	2696.83
730.568	2573.96
730.754	2778.75
730.94	2707.07
731.126	2639.49
731.313	2705.03
731.499	2637.44
731.685	2690.69
731.871	2690.69
732.057	2731.65
732.243	2592.39
732.429	2590.34
732.615	2688.64
732.801	2778.75
732.987	2621.06
733.173	2596.48
733.359	2555.52
733.545	2649.73
733.731	2418.31
733.917	2606.72
734.103	2467.46
734.289	2623.11
734.475	2578.05
734.661	2684.55
734.847	2621.06
735.033	2571.91
735.219	2569.86
735.404	2500.23
735.59	2621.06
735.776	2446.98
735.962	2614.91
736.148	2533
736.333	2500.23
736.519	2487.94
736.705	2481.8
736.89	2510.47
737.076	2621.06
737.262	2506.37
737.447	2463.37
737.633	2469.51
737.819	2676.35
738.004	2514.56
738.19	2535.04
738.375	2518.66
738.561	2449.03
738.747	2571.91
738.932	2487.94
739.118	2438.79
739.303	2573.96
739.489	2414.21
739.674	2424.45
739.859	2467.46
740.045	2440.84
740.23	2442.89
740.416	2463.37
740.601	2434.69
740.786	2377.35
740.972	2307.72
741.157	2371.21
741.342	2410.12
741.528	2459.27
741.713	2426.5
741.898	2326.15
742.084	2389.64
742.269	2510.47
742.454	2356.87
742.639	2266.76
742.824	2303.62
743.01	2356.87
743.195	2281.1
743.38	2295.43
743.565	2338.44
743.75	2432.65
743.935	2252.42
744.12	2381.45
744.305	2223.75
744.49	2250.38
744.675	2205.32
744.86	2240.14
745.045	2164.36
745.23	2311.82
745.415	2205.32
745.6	2137.74
745.785	2182.79
745.97	2182.79
746.155	2102.92
746.34	2250.38
746.525	2117.26
746.71	2139.79
746.895	2086.54
747.079	2125.45
747.264	2043.53
747.449	2018.96
747.634	2027.15
747.819	1943.18
748.003	2068.11
748.188	1984.14
748.373	2061.96
748.557	2043.53
748.742	1965.71
748.927	1943.18
749.111	1998.48
749.296	1851.02
749.481	2025.1
749.665	1943.18
749.85	1832.59
750.034	1947.28
750.219	1951.37
750.404	1883.79
750.588	1836.69
750.773	1783.44
750.957	1816.21
751.141	1750.67
751.326	1869.45
751.51	1863.31
751.695	1844.88
751.879	1760.91
752.064	1820.3
752.248	1685.14
752.432	1734.29
752.617	1789.58
752.801	1881.74
752.985	1799.82
753.17	1664.66
753.354	1646.23
753.538	1719.95
753.722	1638.03
753.907	1676.95
754.091	1547.92
754.275	1578.64
754.459	1648.27
754.643	1635.99
754.828	1691.28
755.012	1586.83
755.196	1576.59
755.38	1574.55
755.564	1582.74
755.748	1558.16
755.932	1474.2
756.116	1435.28
756.3	1461.91
756.484	1500.82
756.668	1511.06
756.852	1488.53
757.036	1416.85
757.22	1302.17
757.404	1474.2
757.588	1353.37
757.772	1459.86
757.956	1373.85
758.14	1396.37
758.323	1377.94
758.507	1418.9
758.691	1429.14
758.875	1375.89
759.059	1320.6
759.242	1382.04
759.426	1291.93
759.61	1394.33
759.794	1345.17
759.977	1345.17
760.161	1267.35
760.345	1351.32
760.528	1314.45
760.712	1240.73
760.895	1361.56
761.079	1285.78
761.263	1265.3
761.446	1238.68
761.63	1193.62
761.813	1375.89
761.997	1201.82
762.18	1255.06
762.364	1269.4
762.547	1103.51
762.731	1207.96
762.914	1234.58
763.098	1291.93
763.281	1242.78
763.464	1226.39
763.648	1212.06
763.831	1070.75
764.015	1115.8
764.198	1154.71
764.381	1123.99
764.564	1195.67
764.748	1111.71
764.931	1117.85
765.114	1087.13
765.297	1089.18
765.481	1115.8
765.664	1037.98
765.847	1078.94
766.03	1158.81
766.213	1066.65
766.397	1095.32
766.58	1152.67
766.763	1029.79
766.946	1048.22
767.129	1117.85
767.312	1035.93
767.495	1136.28
767.678	1080.99
767.861	1044.12
768.044	1009.31
768.227	1138.33
768.41	1085.08
768.593	1072.79
768.776	1031.83
768.959	1103.51
769.142	1048.22
769.324	958.11
769.507	1029.79
769.69	1042.07
769.873	1054.36
770.056	1064.6
770.239	1001.12
770.421	990.88
770.604	1031.83
770.787	1025.69
770.97	1001.12
771.152	994.97
771.335	911
771.518	951.96
771.7	1011.36
771.883	906.91
772.066	976.54
772.248	994.97
772.431	974.49
772.613	908.96
772.796	884.38
772.978	986.78
773.161	933.53
773.343	972.44
773.526	931.48
773.708	923.29
773.891	863.9
774.073	921.24
774.256	868
774.438	931.48
774.621	931.48
774.803	808.61
774.985	829.09
775.168	835.23
775.35	847.52
775.532	894.62
775.715	802.46
775.897	863.9
776.079	824.99
776.261	808.61
776.444	734.88
776.626	806.56
776.808	810.65
776.99	781.98
777.173	833.18
777.355	812.7
777.537	775.84
777.719	835.23
777.901	683.68
778.083	738.98
778.265	704.16
778.447	759.46
778.629	751.26
778.811	786.08
778.993	702.11
779.175	794.27
779.357	716.45
779.539	675.49
779.721	693.92
779.903	769.69
780.085	677.54
780.267	681.63
780.449	675.49
780.631	605.86
780.812	626.34
780.994	644.77
781.176	628.39
781.358	657.06
781.54	659.1
781.721	618.15
781.903	679.58
782.085	612
782.267	616.1
782.448	607.91
782.63	605.86
782.812	538.27
782.993	538.27
783.175	630.43
783.357	605.86
783.538	560.8
783.72	542.37
783.901	546.47
784.083	632.48
784.264	552.61
784.446	491.17
784.627	519.84
784.809	534.18
784.99	577.19
785.172	517.79
785.353	476.84
785.535	530.08
785.716	540.32
785.897	435.88
786.079	495.27
786.26	501.41
786.441	491.17
786.623	540.32
786.804	468.64
786.985	528.03
787.167	493.22
787.348	491.17
787.529	464.55
787.71	511.65
787.891	521.89
788.073	456.36
788.254	448.16
788.435	405.16
788.616	460.45
788.797	413.35
788.978	482.98
789.159	480.93
789.34	466.6
789.522	450.21
789.703	386.72
789.884	425.64
790.065	532.13
790.246	505.51
790.427	349.86
790.607	450.21
790.788	478.88
790.969	390.82
791.15	415.4
791.331	374.44
791.512	446.12
791.693	394.92
791.874	388.77
792.054	394.92
792.235	425.64
792.416	431.78
792.597	366.25
792.778	442.02
792.958	425.64
793.139	390.82
793.32	315.05
793.5	345.77
793.681	396.96
793.862	390.82
794.042	413.35
794.223	280.23
794.404	444.07
794.584	353.96
794.765	388.77
794.945	360.1
795.126	337.57
795.306	349.86
795.487	382.63
795.667	294.57
795.848	417.44
796.028	351.91
796.209	290.47
796.389	388.77
796.57	380.58
796.75	222.89
796.93	288.42
797.111	304.81
797.291	306.85
797.471	323.24
797.652	294.57
797.832	306.85
798.012	382.63
798.192	288.42
798.373	296.61
798.553	265.89
798.733	323.24
798.913	327.33
799.093	313
799.274	284.33
799.454	319.14
799.634	284.33
799.814	331.43
799.994	251.56
800.174	272.04
800.354	272.04
800.534	194.22
800.714	302.76
800.894	296.61
801.074	280.23
801.254	261.8
801.434	300.71
801.614	257.7
801.794	261.8
801.974	702.11
802.154	284.33
802.334	321.19
802.514	257.7
802.693	214.7
802.873	218.79
803.053	300.71
803.233	263.85
803.413	233.13
803.592	173.74
803.772	257.7
803.952	276.13
804.131	220.84
804.311	317.09
804.491	239.27
804.67	181.93
804.85	153.26
805.03	194.22
805.209	292.52
805.389	196.26
805.568	175.78
805.748	192.17
805.928	194.22
806.107	196.26
806.287	222.89
806.466	241.32
806.646	226.98
806.825	251.56
807.004	186.02
807.184	284.33
807.363	259.75
807.543	194.22
807.722	218.79
807.901	192.17
808.081	192.17
808.26	145.06
808.439	194.22
808.619	190.12
808.798	218.79
808.977	276.13
809.156	171.69
809.336	188.07
809.515	179.88
809.694	245.41
809.873	255.65
810.052	202.41
810.231	216.74
810.411	210.6
810.59	233.13
810.769	204.46
810.948	163.5
811.127	190.12
811.306	165.54
811.485	192.17
811.664	159.4
811.843	114.34
812.022	202.41
812.201	255.65
812.38	155.3
812.559	188.07
812.737	202.41
812.916	155.3
813.095	179.88
813.274	155.3
813.453	212.65
813.632	181.93
813.811	153.26
813.989	124.58
814.168	153.26
814.347	155.3
814.526	194.22
814.704	136.87
814.883	190.12
815.062	198.31
815.24	214.7
815.419	112.3
815.598	188.07
815.776	108.2
815.955	171.69
816.133	140.97
816.312	116.39
816.49	145.06
816.669	198.31
816.847	91.82
817.026	161.45
817.204	159.4
817.383	143.02
817.561	202.41
817.74	177.83
817.918	140.97
818.097	106.15
818.275	112.3
818.453	97.96
818.632	114.34
818.81	198.31
818.988	128.68
819.167	122.54
819.345	145.06
819.523	151.21
819.701	54.95
819.879	143.02
820.058	83.63
820.236	77.48
820.414	124.58
820.592	143.02
820.77	153.26
820.948	183.98
821.127	134.82
821.305	71.34
821.483	145.06
821.661	157.35
821.839	34.47
822.017	175.78
822.195	149.16
822.373	157.35
822.551	171.69
822.729	130.73
822.907	104.11
823.085	136.87
823.262	134.82
823.44	71.34
823.618	171.69
823.796	136.87
823.974	124.58
824.152	124.58
824.329	181.93
824.507	179.88
824.685	155.3
824.863	124.58
825.04	75.43
825.218	153.26
825.396	87.72
825.574	149.16
825.751	116.39
825.929	87.72
826.107	132.78
826.284	108.2
826.462	67.24
826.639	110.25
826.817	102.06
826.994	140.97
827.172	89.77
827.349	143.02
827.527	83.63
827.704	112.3
827.882	87.72
828.059	167.59
828.237	79.53
828.414	147.11
828.591	85.67
828.769	32.43
828.946	100.01
829.124	126.63
829.301	85.67
829.478	151.21
829.655	100.01
829.833	87.72
830.01	104.11
830.187	71.34
830.364	81.58
830.542	122.54
830.719	97.96
830.896	69.29
831.073	59.05
831.25	159.4
831.427	65.19
831.604	143.02
831.782	149.16
831.959	61.1
832.136	95.91
832.313	120.49
832.49	87.72
832.667	71.34
832.844	67.24
833.021	91.82
833.198	83.63
833.374	104.11
833.551	59.05
833.728	48.81
833.905	48.81
834.082	97.96
834.259	114.34
834.436	163.5
834.612	75.43
834.789	124.58
834.966	44.71
835.143	108.2
835.319	-26.96
835.496	54.95
835.673	85.67
835.85	83.63
836.026	112.3
836.203	52.91
836.38	9.9
836.556	38.57
836.733	71.34
836.909	30.38
837.086	63.15
837.262	42.67
837.439	71.34
837.616	106.15
837.792	71.34
837.968	57
838.145	-33.11
838.321	-6.49
838.498	71.34
838.674	57
838.851	83.63
839.027	63.15
839.203	83.63
839.38	79.53
839.556	40.62
839.732	161.45
839.909	28.33
840.085	57
840.261	13.99
840.437	69.29
840.614	50.86
840.79	48.81
840.966	81.58
841.142	-12.63
841.318	112.3
841.494	38.57
841.671	3.75
841.847	3.75
842.023	44.71
842.199	97.96
842.375	118.44
842.551	36.52
842.727	11.95
842.903	128.68
843.079	-14.68
843.255	75.43
843.431	-2.39
843.607	54.95
843.783	-41.3
843.959	97.96
844.134	16.04
844.31	61.1
844.486	-8.53
844.662	106.15
844.838	79.53
845.013	85.67
845.189	93.87
845.365	13.99
845.541	112.3
845.716	26.28
845.892	83.63
846.068	44.71
846.244	67.24
846.419	79.53
846.595	5.8
846.77	81.58
846.946	65.19
847.122	50.86
847.297	-55.64
847.473	87.72
847.648	54.95
847.824	100.01
847.999	83.63
848.175	54.95
848.35	42.67
848.526	85.67
848.701	13.99
848.876	9.9
849.052	73.39
849.227	34.47
849.403	-35.16
849.578	-2.39
849.753	-6.49
849.929	89.77
850.104	-22.87
850.279	73.39
850.454	73.39
850.63	57
850.805	100.01
850.98	38.57
851.155	110.25
851.33	77.48
851.505	26.28
851.681	59.05
851.856	114.34
852.031	73.39
852.206	7.85
852.381	5.8
852.556	-6.49
852.731	34.47
852.906	42.67
853.081	75.43
853.256	11.95
853.431	30.38
853.606	77.48
853.781	7.85
853.956	79.53
854.131	30.38
854.305	116.39
854.48	81.58
854.655	32.43
854.83	26.28
855.005	28.33
855.18	-14.68
855.354	-53.59
855.529	120.49
855.704	124.58
855.879	36.52
856.053	54.95
856.228	97.96
856.403	-8.53
856.577	13.99
856.752	1.71
856.926	112.3
857.101	-8.53
857.276	-14.68
857.45	16.04
857.625	-4.44
857.799	36.52
857.974	38.57
858.148	34.47
858.323	87.72
858.497	-0.34
858.672	59.05
858.846	54.95
859.02	61.1
859.195	-10.58
859.369	89.77
859.543	28.33
859.718	9.9
859.892	36.52
860.066	46.76
860.241	16.04
860.415	20.14
860.589	-16.73
860.763	61.1
860.938	5.8
861.112	26.28
861.286	7.85
861.46	54.95
861.634	65.19
861.808	16.04
861.982	-4.44
862.157	-10.58
862.331	3.75
862.505	-2.39
862.679	18.09
862.853	24.23
863.027	50.86
863.201	34.47
863.375	20.14
863.549	69.29
863.722	34.47
863.896	-10.58
864.07	-14.68
864.244	-37.2
864.418	95.91
864.592	-67.92
864.766	20.14
864.939	18.09
865.113	26.28
865.287	36.52
865.461	-41.3
865.634	26.28
865.808	5.8
865.982	-39.25
866.156	-29.01
866.329	28.33
866.503	-16.73
866.676	61.1
866.85	7.85
867.024	-8.53
867.197	48.81
867.371	-16.73
867.544	20.14
867.718	-20.82
867.891	48.81
868.065	65.19
868.238	26.28
868.412	24.23
868.585	32.43
868.759	1.71
868.932	22.19
869.105	79.53
869.279	28.33
869.452	30.38
869.625	59.05
869.799	-61.78
869.972	-20.82
870.145	-47.44
870.319	36.52
870.492	26.28
870.665	-51.54
870.838	42.67
871.011	63.15
871.185	36.52
871.358	30.38
871.531	-41.3
871.704	-31.06
871.877	-2.39
872.05	-4.44
872.223	75.43
872.396	-31.06
872.569	9.9
872.742	-39.25
872.915	-8.53
873.088	-39.25
873.261	-10.58
873.434	7.85
873.607	-12.63
873.78	-24.92
873.953	5.8
874.126	-6.49
874.299	38.57
874.471	65.19
874.644	-0.34
874.817	-22.87
874.99	42.67
875.163	-0.34
875.335	-12.63
875.508	52.91
875.681	3.75
875.853	22.19
876.026	-35.16
876.199	-45.4
876.371	50.86
876.544	1.71
876.717	-61.78
876.889	-10.58
877.062	65.19
877.234	11.95
877.407	-47.44
877.579	-18.77
877.752	5.8
877.924	-55.64
878.097	13.99
878.269	-53.59
878.442	-43.35
878.614	54.95
878.786	26.28
878.959	26.28
879.131	16.04
879.303	-6.49
879.476	-31.06
879.648	59.05
879.82	26.28
879.993	46.76
880.165	36.52
880.337	-65.88
880.509	-8.53
880.681	-74.07
880.854	65.19
881.026	22.19
881.198	-12.63
881.37	97.96
881.542	32.43
881.714	30.38
881.886	48.81
882.058	38.57
882.23	13.99
882.402	42.67
882.574	-12.63
882.746	32.43
882.918	-0.34
883.09	-20.82
883.262	-74.07
883.434	-47.44
883.606	-18.77
883.778	1.71
883.95	22.19
884.122	-51.54
884.293	3.75
884.465	3.75
884.637	-0.34
884.809	24.23
884.98	11.95
885.152	-16.73
885.324	-29.01
885.496	57
885.667	-76.12
885.839	34.47
886.011	11.95
886.182	-76.12
886.354	24.23
886.525	1.71
886.697	79.53
886.869	42.67
887.04	-35.16
887.212	-10.58
887.383	65.19
887.555	-31.06
887.726	-47.44
887.897	-47.44
888.069	-12.63
888.24	93.87
888.412	57
888.583	-72.02
888.754	69.29
888.926	22.19
889.097	-22.87
889.268	-18.77
889.44	-4.44
889.611	-80.21
889.782	-47.44
889.953	18.09
890.125	22.19
890.296	65.19
890.467	-0.34
890.638	-10.58
890.809	-31.06
890.98	-55.64
891.151	7.85
891.323	65.19
891.494	-22.87
891.665	-39.25
891.836	46.76
892.007	32.43
892.178	-4.44
892.349	-51.54
892.52	9.9
892.691	-43.35
892.862	38.57
893.032	-39.25
893.203	30.38
893.374	57
893.545	34.47
893.716	-59.73
893.887	-59.73
894.057	-31.06
894.228	18.09
894.399	-22.87
894.57	-6.49
894.74	-6.49
894.911	36.52
895.082	71.34
895.253	61.1
895.423	38.57
895.594	85.67
895.764	-31.06
895.935	-63.83
896.106	-22.87
896.276	-16.73
896.447	75.43
896.617	-20.82
896.788	-43.35
896.958	1.71
897.129	59.05
897.299	34.47
897.47	-22.87
897.64	44.71
897.81	30.38
897.981	5.8
898.151	22.19
898.322	-39.25
898.492	-59.73
898.662	24.23
898.832	-4.44
899.003	67.24
899.173	20.14
899.343	-74.07
899.513	-20.82
