Data from USB4F104151__203__11-10-14-678.txt Node

Date: Wed Mar 12 11:10:14 EDT 2025
User: louis
Spectrometer: USB4F10415
Trigger mode: 4
Integration Time (sec): 2.000000E-2
Scans to average: 1
Electric dark correction enabled: true
Nonlinearity correction enabled: false
Boxcar width: 0
XAxis mode: Wavelengths
Number of Pixels in Spectrum: 3648
>>>>>Begin Spectral Data<<<<<
178.204	-84.65
178.424	-84.65
178.644	-84.65
178.864	-90.79
179.084	-21.16
179.304	64.85
179.524	30.04
179.744	54.61
179.964	17.75
180.184	-55.98
180.404	-4.78
180.624	-31.4
180.844	-4.78
181.064	1.37
181.283	-35.5
181.503	-39.59
181.723	3.41
181.943	-25.26
182.163	19.8
182.383	-12.97
182.602	27.99
182.822	25.94
183.042	68.95
183.262	7.51
183.482	-21.16
183.701	-45.74
183.921	85.33
184.141	32.08
184.361	73.04
184.58	93.52
184.8	21.84
185.02	-0.68
185.239	30.04
185.459	23.89
185.679	27.99
185.898	60.76
186.118	71
186.338	36.18
186.557	-2.73
186.777	7.51
186.997	79.19
187.216	9.56
187.436	64.85
187.655	66.9
187.875	48.47
188.095	9.56
188.314	66.9
188.534	93.52
188.753	9.56
188.973	38.23
189.192	-21.16
189.412	11.61
189.631	-39.59
189.851	7.51
190.07	85.33
190.29	9.56
190.509	38.23
190.729	-8.87
190.948	-15.02
191.168	93.52
191.387	97.62
191.607	32.08
191.826	75.09
192.045	5.46
192.265	19.8
192.484	62.8
192.704	71
192.923	50.52
193.142	200.02
193.362	50.52
193.581	13.65
193.8	17.75
194.02	42.32
194.239	52.56
194.458	5.46
194.678	-33.45
194.897	1.37
195.116	30.04
195.335	44.37
195.555	75.09
195.774	50.52
195.993	40.28
196.212	83.28
196.432	-6.83
196.651	27.99
196.87	-8.87
197.089	46.42
197.308	7.51
197.528	-51.88
197.747	48.47
197.966	15.7
198.185	48.47
198.404	-60.07
198.623	9.56
198.842	77.14
199.062	-0.68
199.281	17.75
199.5	85.33
199.719	71
199.938	75.09
200.157	144.72
200.376	3.41
200.595	89.43
200.814	21.84
201.033	3.41
201.252	3.41
201.471	50.52
201.69	3.41
201.909	52.56
202.128	52.56
202.347	46.42
202.566	-17.07
202.785	66.9
203.004	5.46
203.223	15.7
203.442	-4.78
203.661	50.52
203.879	19.8
204.098	13.65
204.317	9.56
204.536	114
204.755	42.32
204.974	60.76
205.193	1.37
205.411	107.86
205.63	11.61
205.849	13.65
206.068	85.33
206.287	11.61
206.505	27.99
206.724	-33.45
206.943	-10.92
207.162	27.99
207.381	21.84
207.599	9.56
207.818	54.61
208.037	11.61
208.255	21.84
208.474	52.56
208.693	-0.68
208.911	-29.35
209.13	36.18
209.349	3.41
209.567	52.56
209.786	89.43
210.005	44.37
210.223	60.76
210.442	11.61
210.661	42.32
210.879	23.89
211.098	44.37
211.316	5.46
211.535	-8.87
211.753	48.47
211.972	50.52
212.191	62.8
212.409	66.9
212.628	17.75
212.846	-8.87
213.065	27.99
213.283	-6.83
213.502	36.18
213.72	-4.78
213.938	19.8
214.157	91.48
214.375	93.52
214.594	1.37
214.812	30.04
215.031	1.37
215.249	54.61
215.467	48.47
215.686	71
215.904	77.14
216.122	27.99
216.341	68.95
216.559	44.37
216.778	36.18
216.996	-23.21
217.214	62.8
217.432	40.28
217.651	25.94
217.869	38.23
218.087	42.32
218.306	-21.16
218.524	25.94
218.742	23.89
218.96	23.89
219.179	75.09
219.397	-19.11
219.615	27.99
219.833	56.66
220.051	-0.68
220.27	52.56
220.488	7.51
220.706	23.89
220.924	-33.45
221.142	68.95
221.36	-8.87
221.578	11.61
221.796	42.32
222.015	-0.68
222.233	62.8
222.451	87.38
222.669	3.41
222.887	58.71
223.105	19.8
223.323	97.62
223.541	44.37
223.759	52.56
223.977	-33.45
224.195	75.09
224.413	27.99
224.631	97.62
224.849	-45.74
225.067	93.52
225.285	-15.02
225.503	34.13
225.721	34.13
225.939	54.61
226.157	83.28
226.375	46.42
226.592	38.23
226.81	48.47
227.028	17.75
227.246	142.68
227.464	62.8
227.682	44.37
227.9	17.75
228.117	109.91
228.335	-19.11
228.553	42.32
228.771	58.71
228.989	-37.55
229.206	46.42
229.424	-21.16
229.642	36.18
229.86	-10.92
230.077	44.37
230.295	27.99
230.513	-4.78
230.731	27.99
230.948	52.56
231.166	15.7
231.384	1.37
231.601	-19.11
231.819	-10.92
232.037	79.19
232.254	-82.6
232.472	114
232.689	105.81
232.907	-17.07
233.125	-70.31
233.342	21.84
233.56	-35.5
233.777	42.32
233.995	1.37
234.213	9.56
234.43	58.71
234.648	-17.07
234.865	27.99
235.083	128.34
235.3	-60.07
235.518	17.75
235.735	71
235.953	89.43
236.17	-17.07
236.388	1.37
236.605	-29.35
236.822	58.71
237.04	-6.83
237.257	11.61
237.475	-29.35
237.692	32.08
237.909	32.08
238.127	60.76
238.344	27.99
238.562	36.18
238.779	30.04
238.996	30.04
239.214	15.7
239.431	-10.92
239.648	13.65
239.865	34.13
240.083	54.61
240.3	64.85
240.517	21.84
240.735	48.47
240.952	3.41
241.169	66.9
241.386	-78.51
241.603	11.61
241.821	-37.55
242.038	32.08
242.255	68.95
242.472	25.94
242.689	44.37
242.907	62.8
243.124	79.19
243.341	40.28
243.558	36.18
243.775	64.85
243.992	-45.74
244.209	19.8
244.426	21.84
244.643	52.56
244.86	-10.92
245.078	-27.31
245.295	17.75
245.512	42.32
245.729	-37.55
245.946	3.41
246.163	81.24
246.38	17.75
246.597	60.76
246.814	75.09
247.031	34.13
247.248	52.56
247.464	-8.87
247.681	73.04
247.898	48.47
248.115	25.94
248.332	3.41
248.549	103.76
248.766	60.76
248.983	130.39
249.2	68.95
249.417	50.52
249.633	36.18
249.85	27.99
250.067	48.47
250.284	15.7
250.501	50.52
250.717	77.14
250.934	23.89
251.151	68.95
251.368	103.76
251.585	15.7
251.801	-78.51
252.018	60.76
252.235	103.76
252.451	7.51
252.668	87.38
252.885	42.32
253.102	19.8
253.318	38.23
253.535	13.65
253.752	75.09
253.968	-35.5
254.185	-88.75
254.401	1.37
254.618	40.28
254.835	-21.16
255.051	138.58
255.268	79.19
255.484	-49.83
255.701	7.51
255.917	56.66
256.134	50.52
256.351	36.18
256.567	-78.51
256.784	-47.79
257	64.85
257.217	-8.87
257.433	66.9
257.65	114
257.866	-70.31
258.082	-2.73
258.299	52.56
258.515	40.28
258.732	23.89
258.948	23.89
259.165	56.66
259.381	81.24
259.597	-8.87
259.814	120.15
260.03	48.47
260.246	46.42
260.463	7.51
260.679	79.19
260.895	60.76
261.112	48.47
261.328	15.7
261.544	-21.16
261.761	54.61
261.977	-4.78
262.193	-35.5
262.409	56.66
262.626	17.75
262.842	73.04
263.058	-10.92
263.274	148.82
263.49	87.38
263.707	38.23
263.923	27.99
264.139	54.61
264.355	23.89
264.571	27.99
264.787	-31.4
265.004	95.57
265.22	15.7
265.436	105.81
265.652	32.08
265.868	17.75
266.084	30.04
266.3	36.18
266.516	3.41
266.732	89.43
266.948	44.37
267.164	58.71
267.38	19.8
267.596	-58.03
267.812	13.65
268.028	-21.16
268.244	7.51
268.46	3.41
268.676	1.37
268.892	-2.73
269.108	60.76
269.324	-49.83
269.54	-33.45
269.756	114
269.972	-35.5
270.188	23.89
270.403	48.47
270.619	83.28
270.835	62.8
271.051	-33.45
271.267	44.37
271.483	3.41
271.698	17.75
271.914	54.61
272.13	44.37
272.346	75.09
272.562	81.24
272.777	15.7
272.993	-37.55
273.209	81.24
273.425	60.76
273.64	7.51
273.856	36.18
274.072	11.61
274.287	85.33
274.503	64.85
274.719	11.61
274.934	-6.83
275.15	89.43
275.366	1.37
275.581	-17.07
275.797	34.13
276.012	42.32
276.228	17.75
276.444	71
276.659	144.72
276.875	11.61
277.09	-41.64
277.306	46.42
277.521	118.1
277.737	13.65
277.952	-2.73
278.168	109.91
278.383	-0.68
278.599	30.04
278.814	36.18
279.03	56.66
279.245	62.8
279.461	-27.31
279.676	83.28
279.892	50.52
280.107	13.65
280.322	-15.02
280.538	48.47
280.753	17.75
280.969	77.14
281.184	7.51
281.399	85.33
281.615	-6.83
281.83	95.57
282.045	66.9
282.26	38.23
282.476	60.76
282.691	77.14
282.906	-19.11
283.122	11.61
283.337	34.13
283.552	34.13
283.767	93.52
283.983	11.61
284.198	-4.78
284.413	118.1
284.628	23.89
284.843	7.51
285.058	-15.02
285.274	-2.73
285.489	23.89
285.704	85.33
285.919	32.08
286.134	21.84
286.349	21.84
286.564	171.35
286.779	56.66
286.995	42.32
287.21	56.66
287.425	13.65
287.64	36.18
287.855	30.04
288.07	36.18
288.285	15.7
288.5	97.62
288.715	48.47
288.93	9.56
289.145	89.43
289.36	19.8
289.575	34.13
289.79	25.94
290.004	52.56
290.219	81.24
290.434	11.61
290.649	50.52
290.864	42.32
291.079	27.99
291.294	111.96
291.509	11.61
291.724	3.41
291.938	87.38
292.153	-29.35
292.368	40.28
292.583	21.84
292.798	-15.02
293.012	11.61
293.227	-29.35
293.442	64.85
293.657	48.47
293.871	9.56
294.086	60.76
294.301	52.56
294.516	11.61
294.73	-0.68
294.945	11.61
295.16	40.28
295.374	-25.26
295.589	19.8
295.804	34.13
296.018	-41.64
296.233	34.13
296.447	71
296.662	-23.21
296.877	21.84
297.091	21.84
297.306	17.75
297.52	40.28
297.735	89.43
297.949	-12.97
298.164	64.85
298.378	1.37
298.593	-37.55
298.807	-33.45
299.022	-0.68
299.236	124.24
299.451	-0.68
299.665	17.75
299.88	38.23
300.094	73.04
300.309	71
300.523	66.9
300.737	30.04
300.952	-33.45
301.166	122.2
301.381	-12.97
301.595	73.04
301.809	40.28
302.024	25.94
302.238	21.84
302.452	15.7
302.667	60.76
302.881	44.37
303.095	48.47
303.309	52.56
303.524	13.65
303.738	32.08
303.952	19.8
304.166	42.32
304.381	38.23
304.595	52.56
304.809	75.09
305.023	71
305.237	81.24
305.452	38.23
305.666	66.9
305.88	60.76
306.094	52.56
306.308	64.85
306.522	9.56
306.736	114
306.95	81.24
307.164	32.08
307.379	30.04
307.593	62.8
307.807	-4.78
308.021	77.14
308.235	27.99
308.449	42.32
308.663	97.62
308.877	99.67
309.091	-4.78
309.305	38.23
309.519	34.13
309.733	71
309.947	27.99
310.161	60.76
310.374	54.61
310.588	17.75
310.802	36.18
311.016	3.41
311.23	40.28
311.444	9.56
311.658	25.94
311.872	75.09
312.085	56.66
312.299	38.23
312.513	95.57
312.727	21.84
312.941	-49.83
313.154	122.2
313.368	32.08
313.582	48.47
313.796	30.04
314.009	48.47
314.223	15.7
314.437	38.23
314.651	64.85
314.864	5.46
315.078	58.71
315.292	-19.11
315.505	21.84
315.719	52.56
315.933	64.85
316.146	-17.07
316.36	75.09
316.573	5.46
316.787	38.23
317.001	11.61
317.214	23.89
317.428	56.66
317.641	9.56
317.855	116.05
318.068	83.28
318.282	91.48
318.495	140.63
318.709	62.8
318.922	-0.68
319.136	71
319.349	66.9
319.563	25.94
319.776	32.08
319.99	17.75
320.203	-35.5
320.417	21.84
320.63	9.56
320.843	40.28
321.057	13.65
321.27	62.8
321.483	-0.68
321.697	95.57
321.91	103.76
322.124	64.85
322.337	34.13
322.55	77.14
322.763	60.76
322.977	32.08
323.19	38.23
323.403	40.28
323.617	3.41
323.83	68.95
324.043	52.56
324.256	54.61
324.469	17.75
324.683	-19.11
324.896	68.95
325.109	58.71
325.322	23.89
325.535	79.19
325.748	79.19
325.962	48.47
326.175	95.57
326.388	-33.45
326.601	83.28
326.814	46.42
327.027	66.9
327.24	97.62
327.453	38.23
327.666	-25.26
327.879	40.28
328.092	130.39
328.305	48.47
328.518	34.13
328.731	52.56
328.944	85.33
329.157	25.94
329.37	46.42
329.583	118.1
329.796	48.47
330.009	13.65
330.222	54.61
330.435	-23.21
330.648	23.89
330.861	46.42
331.073	19.8
331.286	101.72
331.499	75.09
331.712	17.75
331.925	-17.07
332.138	30.04
332.35	85.33
332.563	-8.87
332.776	-6.83
332.989	11.61
333.202	-33.45
333.414	126.29
333.627	83.28
333.84	52.56
334.053	52.56
334.265	19.8
334.478	19.8
334.691	30.04
334.903	48.47
335.116	-4.78
335.329	27.99
335.541	44.37
335.754	81.24
335.966	99.67
336.179	48.47
336.392	3.41
336.604	105.81
336.817	3.41
337.029	-21.16
337.242	54.61
337.454	97.62
337.667	23.89
337.88	62.8
338.092	42.32
338.305	34.13
338.517	36.18
338.729	-10.92
338.942	114
339.154	46.42
339.367	25.94
339.579	87.38
339.792	25.94
340.004	62.8
340.217	32.08
340.429	60.76
340.641	81.24
340.854	60.76
341.066	66.9
341.278	48.47
341.491	83.28
341.703	54.61
341.915	46.42
342.128	-0.68
342.34	97.62
342.552	44.37
342.764	-8.87
342.977	17.75
343.189	68.95
343.401	142.68
343.613	48.47
343.826	89.43
344.038	27.99
344.25	68.95
344.462	50.52
344.674	52.56
344.886	-2.73
345.099	68.95
345.311	48.47
345.523	11.61
345.735	-43.69
345.947	62.8
346.159	85.33
346.371	109.91
346.583	44.37
346.795	32.08
347.007	-6.83
347.219	81.24
347.431	50.52
347.643	71
347.855	15.7
348.067	91.48
348.279	-0.68
348.491	7.51
348.703	40.28
348.915	-27.31
349.127	23.89
349.339	89.43
349.551	23.89
349.763	44.37
349.975	60.76
350.187	7.51
350.399	25.94
350.61	-0.68
350.822	52.56
351.034	30.04
351.246	15.7
351.458	58.71
351.669	87.38
351.881	-25.26
352.093	85.33
352.305	58.71
352.517	91.48
352.728	75.09
352.94	91.48
353.152	36.18
353.363	32.08
353.575	68.95
353.787	79.19
353.999	116.05
354.21	89.43
354.422	7.51
354.633	11.61
354.845	109.91
355.057	54.61
355.268	64.85
355.48	122.2
355.692	-33.45
355.903	7.51
356.115	15.7
356.326	64.85
356.538	132.44
356.749	48.47
356.961	68.95
357.172	5.46
357.384	46.42
357.595	71
357.807	52.56
358.018	62.8
358.23	11.61
358.441	138.58
358.653	7.51
358.864	21.84
359.075	87.38
359.287	66.9
359.498	152.91
359.709	1.37
359.921	36.18
360.132	21.84
360.344	81.24
360.555	9.56
360.766	60.76
360.977	42.32
361.189	109.91
361.4	77.14
361.611	25.94
361.823	56.66
362.034	148.82
362.245	-66.22
362.456	83.28
362.667	-17.07
362.879	83.28
363.09	81.24
363.301	52.56
363.512	91.48
363.723	77.14
363.935	13.65
364.146	75.09
364.357	19.8
364.568	21.84
364.779	60.76
364.99	68.95
365.201	7.51
365.412	105.81
365.623	44.37
365.834	58.71
366.045	71
366.256	36.18
366.467	101.72
366.678	93.52
366.889	77.14
367.1	23.89
367.311	56.66
367.522	9.56
367.733	30.04
367.944	50.52
368.155	89.43
368.366	81.24
368.577	36.18
368.788	126.29
368.999	77.14
369.209	79.19
369.42	122.2
369.631	89.43
369.842	52.56
370.053	64.85
370.264	64.85
370.474	77.14
370.685	103.76
370.896	75.09
371.107	-10.92
371.317	79.19
371.528	-8.87
371.739	107.86
371.95	83.28
372.16	111.96
372.371	19.8
372.582	13.65
372.792	21.84
373.003	11.61
373.214	40.28
373.424	81.24
373.635	58.71
373.846	46.42
374.056	32.08
374.267	48.47
374.477	140.63
374.688	134.48
374.898	-27.31
375.109	19.8
375.319	79.19
375.53	68.95
375.74	75.09
375.951	89.43
376.161	109.91
376.372	75.09
376.582	19.8
376.793	97.62
377.003	60.76
377.214	32.08
377.424	85.33
377.635	73.04
377.845	-27.31
378.055	95.57
378.266	-43.69
378.476	79.19
378.686	32.08
378.897	62.8
379.107	36.18
379.317	85.33
379.528	71
379.738	103.76
379.948	5.46
380.158	101.72
380.369	77.14
380.579	91.48
380.789	30.04
380.999	27.99
381.21	71
381.42	40.28
381.63	81.24
381.84	-0.68
382.05	91.48
382.261	73.04
382.471	89.43
382.681	32.08
382.891	60.76
383.101	23.89
383.311	146.77
383.521	77.14
383.731	95.57
383.941	87.38
384.151	42.32
384.361	42.32
384.571	66.9
384.781	138.58
384.991	89.43
385.201	83.28
385.411	60.76
385.621	73.04
385.831	93.52
386.041	124.24
386.251	103.76
386.461	134.48
386.671	48.47
386.881	89.43
387.091	99.67
387.301	99.67
387.511	68.95
387.72	48.47
387.93	75.09
388.14	46.42
388.35	40.28
388.56	77.14
388.769	93.52
388.979	56.66
389.189	15.7
389.399	97.62
389.609	93.52
389.818	93.52
390.028	-17.07
390.238	114
390.447	17.75
390.657	128.34
390.867	-23.21
391.076	40.28
391.286	99.67
391.496	120.15
391.705	71
391.915	144.72
392.125	107.86
392.334	120.15
392.544	124.24
392.753	95.57
392.963	13.65
393.172	95.57
393.382	87.38
393.591	132.44
393.801	77.14
394.01	132.44
394.22	48.47
394.429	71
394.639	62.8
394.848	71
395.058	68.95
395.267	157.01
395.477	111.96
395.686	116.05
395.895	101.72
396.105	152.91
396.314	73.04
396.524	58.71
396.733	87.38
396.942	87.38
397.152	42.32
397.361	138.58
397.57	87.38
397.78	126.29
397.989	120.15
398.198	124.24
398.407	142.68
398.617	91.48
398.826	130.39
399.035	126.29
399.244	81.24
399.453	40.28
399.663	103.76
399.872	146.77
400.081	101.72
400.29	195.92
400.499	83.28
400.708	124.24
400.917	118.1
401.127	38.23
401.336	114
401.545	99.67
401.754	120.15
401.963	144.72
402.172	114
402.381	99.67
402.59	163.15
402.799	144.72
403.008	146.77
403.217	107.86
403.426	208.21
403.635	146.77
403.844	107.86
404.053	171.35
404.262	130.39
404.471	167.25
404.68	163.15
404.888	228.69
405.097	193.87
405.306	204.11
405.515	208.21
405.724	185.68
405.933	197.97
406.142	163.15
406.35	240.98
406.559	212.31
406.768	279.89
406.977	263.51
407.185	197.97
407.394	202.07
407.603	277.84
407.812	214.35
408.02	304.46
408.229	212.31
408.438	163.15
408.646	234.83
408.855	230.74
409.064	286.03
409.272	318.8
409.481	343.38
409.69	275.79
409.898	245.07
410.107	269.65
410.315	318.8
410.524	247.12
410.733	378.19
410.941	380.24
411.15	429.39
411.358	404.82
411.567	410.96
411.775	398.67
411.984	468.3
412.192	451.92
412.401	423.25
412.609	447.82
412.818	490.83
413.026	656.72
413.234	445.77
413.443	601.42
413.651	535.89
413.86	634.19
414.068	587.08
414.276	740.68
414.485	669
414.693	660.81
414.901	742.73
415.11	693.58
415.318	789.83
415.526	816.46
415.734	841.03
415.943	763.21
416.151	945.48
416.359	994.63
416.567	965.96
416.776	1080.64
416.984	1092.93
417.192	1103.17
417.4	1101.12
417.608	1094.98
417.817	1125.7
418.025	1224
418.233	1301.83
418.441	1246.53
418.649	1334.59
418.857	1367.36
419.065	1363.26
419.273	1398.08
419.481	1475.9
419.689	1600.83
419.897	1590.59
420.105	1688.89
420.313	1647.93
420.521	1715.52
420.729	1807.67
420.937	1750.33
421.145	1830.2
421.353	1965.37
421.561	2202.93
421.769	2155.83
421.977	2161.97
422.185	2121.01
422.393	2430.26
422.601	2532.65
422.809	2485.55
423.017	2487.6
423.224	2600.24
423.432	2805.03
423.64	2665.77
423.848	2932.01
424.056	2823.47
424.263	3130.66
424.471	2979.11
424.679	3075.37
424.887	3360.03
425.094	3466.53
425.302	3538.21
425.51	3456.29
425.718	3869.98
425.925	3876.12
426.133	3919.13
426.341	4001.05
426.548	4283.67
426.756	4324.63
426.964	4306.2
427.171	4474.13
427.379	4660.49
427.586	4494.61
427.794	4840.72
428.001	5043.46
428.209	5360.9
428.417	5324.04
428.624	5657.85
428.832	5639.42
429.039	5483.78
429.247	5676.29
429.454	6055.16
429.662	6477.04
429.869	6110.46
430.076	6687.98
430.284	6438.13
430.491	6919.4
430.699	7128.3
430.906	7126.25
431.114	7073
431.321	7275.75
431.528	7482.6
431.736	8019.16
431.943	8414.42
432.15	7959.77
432.358	8086.75
432.565	8647.89
432.772	8742.1
432.979	8975.56
433.187	9262.28
433.394	9329.86
433.601	9970.88
433.808	9931.97
434.016	10110.14
434.223	10144.95
434.43	10894.51
434.637	10742.96
434.844	11441.32
435.052	11656.36
435.259	11564.2
435.466	11639.97
435.673	11498.66
435.88	12334.23
436.087	12885.14
436.294	12956.82
436.501	12498.07
436.708	12709.01
436.915	13264.01
437.122	14050.43
437.329	13915.26
437.537	14271.61
437.743	14414.97
437.95	14550.14
438.157	15162.48
438.364	15715.43
438.571	15684.71
438.778	15514.73
438.985	17445.96
439.192	16637.02
439.399	16858.2
439.606	16618.58
439.813	17830.98
440.02	18732.09
440.227	18220.1
440.433	17960
440.64	18814.01
440.847	18666.55
441.054	19162.16
441.261	20349.98
441.467	20085.79
441.674	20579.36
441.881	21173.27
442.088	21294.1
442.294	21068.82
442.501	21562.38
442.708	21976.07
442.914	22903.8
443.121	23935.98
443.328	23266.29
443.534	24806.36
443.741	23944.17
443.948	23872.49
444.154	25545.68
444.361	25652.17
444.568	25301.97
444.774	25541.58
444.981	25703.37
445.187	26657.73
445.394	27753.39
445.6	27065.27
445.807	30462.85
446.013	28890.01
446.22	29098.91
446.426	30419.85
446.633	30002.06
446.839	31460.21
447.046	30571.39
447.252	31767.41
447.459	32095.08
447.665	31722.35
447.871	33430.36
448.078	34468.68
448.284	33024.86
448.491	33784.66
448.697	35115.84
448.903	35752.76
449.11	35529.53
449.316	35269.44
449.522	35650.36
449.728	36518.7
449.935	37104.42
450.141	36735.78
450.347	37786.39
450.553	36453.16
450.76	37071.65
450.966	38048.53
451.172	37683.99
451.378	38490.89
451.584	37577.5
451.791	38693.64
451.997	38310.67
452.203	39441.15
452.409	39187.2
452.615	38664.97
452.821	37559.06
453.027	37192.48
453.233	39164.67
453.44	37415.71
453.646	37980.95
453.852	37831.44
454.058	38712.07
454.264	37516.06
454.47	38406.92
454.676	37370.65
454.882	38609.67
455.088	35111.74
455.294	35541.82
455.5	36057.9
455.705	36772.64
455.911	35210.04
456.117	34378.57
456.323	33903.44
456.529	31525.75
456.735	33239.9
456.941	32494.44
457.147	31761.26
457.352	30837.63
457.558	31021.95
457.764	30827.39
457.97	30137.23
458.176	29586.32
458.381	29293.46
458.587	27829.16
458.793	27947.95
458.999	26756.03
459.204	28363.68
459.41	27919.28
459.616	25682.89
459.821	26018.76
460.027	25754.57
460.233	25209.81
460.438	23884.78
460.644	24314.85
460.85	23503.85
461.055	22752.25
461.261	22727.67
461.466	20984.85
461.672	20276.26
461.878	21926.92
462.083	20558.88
462.289	20077.6
462.494	20022.31
462.7	19321.9
462.905	18594.87
463.111	19448.88
463.316	19282.99
463.522	18805.81
463.727	18730.04
463.932	18854.97
464.138	18736.18
464.343	18709.56
464.549	17992.77
464.754	18752.57
464.959	18709.56
465.165	18668.6
465.37	17695.82
465.575	17226.83
465.781	17976.39
465.986	18164.8
466.191	17366.09
466.397	17101.9
466.602	16411.74
466.807	16962.64
467.012	16766.04
467.218	16809.04
467.423	16548.95
467.628	16800.85
467.833	17466.44
468.038	16780.37
468.244	16338.01
468.449	17017.94
468.654	16419.93
468.859	16299.1
469.064	16143.45
469.269	15658.09
469.474	15504.49
469.679	15893.6
469.885	15527.02
470.09	15754.34
470.295	15717.48
470.5	15305.84
470.705	15142
470.91	14730.36
471.115	14859.38
471.32	15123.57
471.525	15029.36
471.73	14591.09
471.935	14627.96
472.139	14005.38
472.344	14197.88
472.549	14068.86
472.754	13943.94
472.959	13810.82
473.164	13337.74
473.369	13296.78
473.574	13505.67
473.778	13491.34
473.983	13376.65
474.188	13438.09
474.393	12889.23
474.598	12725.4
474.802	12569.75
475.007	13022.35
475.212	12760.21
475.417	12121.24
475.621	12164.25
475.826	12213.4
476.031	11719.84
476.235	11797.67
476.44	12018.85
476.645	11435.17
476.849	11861.15
477.054	11603.11
477.259	11371.69
477.463	11386.02
477.668	11111.6
477.872	11220.14
478.077	10937.52
478.282	10882.22
478.486	10781.87
478.691	10841.26
478.895	10681.52
479.1	10646.71
479.304	10712.24
479.509	10480.82
479.713	10587.32
479.918	10396.85
480.122	10124.47
480.326	10286.26
480.531	10271.93
480.735	10097.85
480.94	9966.78
481.144	10323.13
481.348	9911.49
481.553	9981.12
481.757	9718.98
481.961	9858.24
482.166	9954.49
482.37	10104
482.574	9585.86
482.778	9823.42
482.983	10075.32
483.187	9739.46
483.391	10026.17
483.595	9747.65
483.8	9788.61
484.004	9731.26
484.208	9819.33
484.412	9741.5
484.616	9977.02
484.821	9997.5
485.025	9700.55
485.229	9923.77
485.433	9862.33
485.637	9776.32
485.841	9628.87
486.045	9841.86
486.249	9845.95
486.453	9610.43
486.657	9702.59
486.861	9809.09
487.065	9557.19
487.269	9583.81
487.473	9626.82
487.677	9845.95
487.881	9665.73
488.085	9665.73
488.289	9850.05
488.493	9821.38
488.697	9989.31
488.901	9882.81
489.105	9778.37
489.309	9905.34
489.512	10028.22
489.716	9854.14
489.92	9804.99
490.124	9929.92
490.328	10142.91
490.531	10050.75
490.735	9995.45
490.939	10017.98
491.143	10005.69
491.346	10212.54
491.55	10269.88
491.754	10218.68
491.958	10523.83
492.161	10155.19
492.365	10230.97
492.569	10251.45
492.772	10308.79
492.976	10267.83
493.18	10478.77
493.383	10628.28
493.587	10585.27
493.79	10785.97
493.994	10501.3
494.197	10769.58
494.401	10783.92
494.605	10919.09
494.808	11183.27
495.012	11209.9
495.215	11160.75
495.419	11480.23
495.622	11072.68
495.825	11381.93
496.029	11322.54
496.232	11783.33
496.436	11570.34
496.639	11893.92
496.843	11828.38
497.046	11994.27
497.249	12084.38
497.453	12059.81
497.656	12291.23
497.859	12313.75
498.063	12453.02
498.266	12702.87
498.469	12823.7
498.673	12762.26
498.876	12958.86
499.079	13325.45
499.282	13139.08
499.485	13454.47
499.689	13503.62
499.892	13868.16
500.095	13702.28
500.298	14273.66
500.501	14009.47
500.705	14316.67
500.908	14353.53
501.111	14388.35
501.314	14869.62
501.517	14929.01
501.72	15389.8
501.923	15137.9
502.126	15412.33
502.329	15785.06
502.532	15801.44
502.735	15887.46
502.938	16129.12
503.141	16278.62
503.344	16366.68
503.547	16497.75
503.75	16729.17
503.953	17103.95
504.156	17208.4
504.359	17282.13
504.562	17425.48
504.765	17669.19
504.968	17849.41
505.17	18136.13
505.373	18154.56
505.576	18388.03
505.779	18457.66
505.982	18801.72
506.185	18887.73
506.387	19235.89
506.59	19061.81
506.793	19670.06
506.996	19303.47
507.198	20173.86
507.401	19944.49
507.604	20259.87
507.807	20546.59
508.009	20843.54
508.212	20945.94
508.415	21058.58
508.617	21335.06
508.82	21455.89
509.022	21345.3
509.225	22064.13
509.428	22270.98
509.63	22451.2
509.833	22596.6
510.035	22903.8
510.238	22940.66
510.44	23331.83
510.643	23686.12
510.845	23809
511.048	23770.09
511.25	24288.23
511.453	24296.42
511.655	25093.08
511.858	24744.92
512.06	24847.32
512.262	25238.48
512.465	25275.35
512.667	25885.64
512.87	25973.71
513.072	26016.71
513.274	26686.4
513.477	27036.6
513.679	26964.92
513.881	27263.93
514.084	27493.3
514.286	27671.47
514.488	27847.6
514.69	28416.93
514.893	28564.39
515.095	28570.53
515.297	29006.75
515.499	29244.31
515.701	29574.03
515.904	29492.12
516.106	29877.13
516.308	30344.07
516.51	30407.56
516.712	30464.9
516.914	30706.56
517.116	31273.85
517.318	31253.37
517.52	31804.27
517.722	31761.26
517.925	32293.74
518.127	32691.04
518.329	33276.76
518.531	32732
518.733	33456.98
518.935	33522.52
519.136	33444.69
519.338	33981.26
519.54	34421.58
519.742	34405.19
519.944	34622.28
520.146	35173.18
520.348	35394.36
520.55	35507
520.752	35662.65
520.954	36549.42
521.155	36203.31
521.357	36743.97
521.559	37034.78
521.761	37593.88
521.963	37356.32
522.164	37679.89
522.366	37950.23
522.568	38173.45
522.77	38331.15
522.971	38990.59
523.173	38372.11
523.375	38714.12
523.576	39054.08
523.778	39377.66
523.98	39715.58
524.181	39891.7
524.383	39834.36
524.584	40760.04
524.786	40299.25
524.988	40792.81
525.189	40678.12
525.391	40960.74
525.592	41499.36
525.794	41259.74
525.995	41749.21
526.197	41810.65
526.398	41816.79
526.6	42468.05
526.801	42222.29
527.003	42705.61
527.204	42351.31
527.406	42472.14
527.607	42502.86
527.808	43018.95
528.01	42418.89
528.211	43147.97
528.412	43834.04
528.614	43739.83
528.815	43629.24
529.016	43938.49
529.218	43139.78
529.419	43487.93
529.62	43897.53
529.822	43889.34
530.023	43645.63
530.224	44298.93
530.425	43729.59
530.626	43705.02
530.828	44085.94
531.029	44743.34
531.23	44221.11
531.431	44298.93
531.632	44393.14
531.833	44898.98
532.035	44710.57
532.236	44855.98
532.437	44958.38
532.638	44704.43
532.839	44972.71
533.04	45453.98
533.241	44483.25
533.442	45423.26
533.643	45167.27
533.844	44788.39
534.045	45456.03
534.246	44835.5
534.447	45519.52
534.648	44876.46
534.849	45220.52
535.05	44985
535.251	45097.64
535.451	45013.67
535.652	45583.01
535.853	45251.23
536.054	45636.25
536.255	45800.09
536.456	44714.67
536.657	46029.46
536.857	45273.76
537.058	45413.02
537.259	45505.18
537.46	45589.15
537.66	45107.88
537.861	45591.2
538.062	45310.63
538.263	45568.67
538.463	45333.15
538.664	45460.13
538.865	45144.74
539.065	45626.01
539.266	45085.35
539.466	45871.77
539.667	44665.52
539.868	45496.99
540.068	45154.98
540.269	44827.31
540.469	45638.3
540.67	45028.01
540.87	45296.29
541.071	45130.4
541.271	45392.54
541.472	44974.76
541.672	44798.63
541.873	44946.09
542.073	44898.98
542.274	45392.54
542.474	44919.46
542.675	44890.79
542.875	45728.41
543.075	44847.78
543.276	44847.78
543.476	45683.36
543.676	44905.13
543.877	45161.12
544.077	44825.26
544.277	44980.9
544.478	44733.1
544.678	45546.14
544.878	45132.45
545.078	44954.28
545.279	44802.73
545.479	45003.43
545.679	44978.85
545.879	44815.02
546.079	45085.35
546.28	44833.45
546.48	44346.03
546.68	45085.35
546.88	45001.38
547.08	44980.9
547.28	44849.83
547.48	44483.25
547.68	45015.72
547.88	44853.93
548.081	44954.28
548.281	44896.94
548.481	44520.11
548.681	45089.45
548.881	44712.62
549.081	44794.54
549.28	45013.67
549.48	44733.1
549.68	44698.28
549.88	45204.13
550.08	44722.86
550.28	45042.34
550.48	44716.71
550.68	44479.15
550.88	44683.95
551.08	44552.88
551.279	44798.63
551.479	44415.66
551.679	44753.58
551.879	44440.24
552.079	44737.19
552.278	44610.22
552.478	44276.4
552.678	44532.4
552.878	44569.26
553.077	44495.53
553.277	43743.93
553.477	44815.02
553.676	44255.92
553.876	44114.61
554.076	44024.5
554.275	44202.67
554.475	43315.9
554.674	44343.98
554.874	44317.36
555.074	44438.19
555.273	44133.04
555.473	44487.34
555.672	43778.75
555.872	43788.99
556.071	43942.58
556.271	44217.01
556.47	43725.5
556.67	43535.04
556.869	43315.9
557.068	43791.03
557.268	43201.22
557.467	43719.35
557.667	43399.87
557.866	43668.15
558.065	43426.49
558.265	43080.39
558.464	43102.92
558.663	43639.48
558.863	42615.5
559.062	43557.56
559.261	42947.27
559.461	43489.98
559.66	42422.99
559.859	42738.38
560.058	42808.01
560.258	42717.9
560.457	42750.67
560.656	42785.48
560.855	42230.48
561.054	42588.88
561.253	42339.02
561.453	42588.88
561.652	42488.53
561.851	42736.33
562.05	42537.68
562.249	42248.91
562.448	42701.51
562.647	42293.97
562.846	41904.85
563.045	41882.33
563.244	41495.26
563.443	42052.31
563.642	41280.22
563.841	41706.2
564.04	41396.96
564.239	41794.26
564.438	41595.61
564.637	41669.34
564.836	41732.82
565.035	41020.13
565.234	41358.05
565.432	40749.8
565.631	40727.27
565.83	41149.15
566.029	41077.47
566.228	40248.05
566.427	40551.15
566.625	40696.55
566.824	39953.14
567.023	40536.81
567.222	40063.73
567.42	40426.22
567.619	40391.4
567.818	40063.73
568.016	39557.88
568.215	40379.12
568.414	39713.53
568.612	40436.46
568.811	39478.01
569.01	39928.56
569.208	39185.15
569.407	39478.01
569.605	39293.69
569.804	39394.04
570.002	38656.78
570.201	39203.58
570.4	38488.84
570.598	38488.84
570.797	38392.59
570.995	38767.37
571.193	37931.79
571.392	38777.61
571.59	38363.92
571.789	37942.03
571.987	38023.95
572.186	38114.06
572.384	37727
572.582	38146.83
572.781	38376.2
572.979	37698.33
573.177	37344.03
573.376	37677.85
573.574	37483.29
573.772	37462.81
573.971	37288.73
574.169	36967.2
574.367	36686.63
574.565	37229.34
574.763	36795.17
574.962	36842.28
575.16	36789.03
575.358	36766.5
575.556	36139.82
575.754	36993.82
575.952	36168.49
576.151	36559.66
576.349	35937.07
576.547	36274.99
576.745	36479.78
576.943	35801.91
577.141	36168.49
577.339	35865.39
577.537	36000.56
577.735	35894.07
577.933	35101.5
578.131	35736.37
578.329	35269.44
578.527	34659.14
578.725	35005.25
578.923	35103.55
579.121	35031.87
579.319	34542.41
579.516	35044.16
579.714	34579.27
579.912	34759.49
580.11	34605.89
580.308	34609.99
580.506	34597.7
580.704	33692.5
580.901	34317.13
581.099	34634.56
581.297	34069.33
581.495	33885.01
581.692	34034.51
581.89	33391.45
582.088	34145.1
582.285	33387.35
582.483	33772.37
582.681	33543
582.878	33432.41
583.076	33084.25
583.274	33354.58
583.471	32899.94
583.669	32797.54
583.866	33092.44
584.064	33104.73
584.262	32629.6
584.459	32977.76
584.657	32383.85
584.854	32496.49
585.052	32039.79
585.249	32043.88
585.447	32002.93
585.644	32023.4
585.841	31906.67
586.039	32379.75
586.236	31767.41
586.434	31540.08
586.631	31452.02
586.828	31748.98
587.026	31683.44
587.223	31456.12
587.42	31517.56
587.618	31245.18
587.815	30831.49
588.012	30839.68
588.21	30745.47
588.407	31540.08
588.604	30974.84
588.801	30301.06
588.999	30667.65
589.196	30552.96
589.393	30444.42
589.59	30389.13
589.787	30350.21
589.984	30069.64
590.182	29864.85
590.379	30067.59
590.576	29830.03
590.773	29842.32
590.97	29866.89
591.167	30061.45
591.364	29436.82
591.561	29641.62
591.758	29297.56
591.955	29574.03
592.152	29614.99
592.349	29340.57
592.546	29399.96
592.743	29422.48
592.94	28482.47
593.137	28822.43
593.334	28908.44
593.531	28730.27
593.727	28498.85
593.924	28703.65
594.121	28279.72
594.318	28672.93
594.515	27843.5
594.712	28210.09
594.908	28208.04
595.105	28341.16
595.302	27851.69
595.499	28152.74
595.696	27722.67
595.892	27601.84
596.089	27655.09
596.286	27534.26
596.482	27550.64
596.679	27650.99
596.876	27517.87
597.072	27495.35
597.269	27409.33
597.466	27265.97
597.662	26792.89
597.859	26948.54
598.055	27122.62
598.252	26686.4
598.448	26473.41
598.645	26610.62
598.841	26393.54
599.038	26844.09
599.234	26540.99
599.431	26352.58
599.627	26086.34
599.824	26389.44
600.02	25775.05
600.217	25998.28
600.413	25942.99
600.609	25818.06
600.806	25703.37
601.002	25834.44
601.198	25445.33
601.395	25416.66
601.591	25406.42
601.787	25379.79
601.984	25355.22
602.18	25267.16
602.376	25291.73
602.572	24939.48
602.769	24970.2
602.965	24900.57
603.161	24974.3
603.357	24669.15
603.553	24921.05
603.75	24744.92
603.946	24323.04
604.142	24755.16
604.338	24032.23
604.534	24054.76
604.73	24017.89
604.926	24239.08
605.122	24108.01
605.318	23976.94
605.514	23645.16
605.71	23524.33
605.906	23667.69
606.102	23938.02
606.298	24071.14
606.494	23684.08
606.69	23714.8
606.886	23493.61
607.082	23294.96
607.278	23221.24
607.474	22830.07
607.67	23389.17
607.866	23090.17
608.062	23323.63
608.257	22971.38
608.453	23239.67
608.649	23108.6
608.845	22965.24
609.041	22901.75
609.236	23153.65
609.432	22692.86
609.628	22696.96
609.824	22557.69
610.019	22531.07
610.215	22574.08
610.411	22699
610.606	22393.86
610.802	22602.75
610.998	22434.81
611.193	22443.01
611.389	22098.95
611.584	22115.33
611.78	22244.35
611.976	22285.31
612.171	22146.05
612.367	22051.84
612.562	22014.98
612.758	21576.72
612.953	21562.38
613.149	22017.03
613.344	21711.88
613.539	21642.25
613.735	21675.02
613.93	21969.93
614.126	21875.72
614.321	21869.58
614.517	21486.61
614.712	21801.99
614.907	21607.44
615.103	21402.64
615.298	21464.08
615.493	21513.23
615.688	20925.46
615.884	21670.92
616.079	21255.19
616.274	21382.16
616.47	21040.15
616.665	21341.2
616.86	20886.55
617.055	20853.78
617.25	20716.57
617.445	21240.85
617.641	20710.43
617.836	20980.76
618.031	20374.56
618.226	20933.65
618.421	20554.78
618.616	20775.96
618.811	20304.93
619.006	20603.93
619.201	20106.27
619.396	20577.31
619.591	19770.41
619.786	20325.41
619.981	19821.61
620.176	20007.97
620.371	19696.68
620.566	19833.89
620.761	19571.75
620.956	19786.79
621.151	19364.91
621.346	19332.14
621.541	19358.77
621.735	19307.57
621.93	18973.75
622.125	19024.95
622.32	19002.42
622.515	19076.15
622.709	18637.88
622.904	18617.4
623.099	18605.11
623.294	18541.63
623.488	18570.3
623.683	18695.22
623.878	18189.38
624.072	18244.67
624.267	18410.56
624.462	18019.39
624.656	17888.32
624.851	17923.14
625.046	17781.83
625.24	17570.89
625.435	17335.37
625.629	17355.85
625.824	17290.32
626.018	16989.27
626.213	17005.65
626.407	17075.28
626.602	16688.21
626.796	16737.37
626.991	16733.27
627.185	16530.52
627.38	16479.32
627.574	16413.79
627.768	16460.89
627.963	16198.75
628.157	16184.41
628.352	16270.43
628.546	15985.76
628.74	16036.96
628.935	15852.64
629.129	15776.87
629.323	15748.2
629.517	15535.21
629.712	15463.53
629.906	15621.22
630.1	15256.68
630.294	15443.05
630.489	15230.06
630.683	15279.21
630.877	14814.32
631.071	14855.28
631.265	15066.22
631.459	14607.48
631.653	14771.32
631.848	14574.71
632.042	14443.64
632.236	14650.49
632.43	14666.87
632.624	14457.98
632.818	14326.91
633.012	14351.48
633.206	14054.53
633.4	14232.7
633.594	13913.22
633.788	13943.94
633.982	14115.97
634.176	13974.66
634.369	13685.89
634.563	13640.84
634.757	13620.36
634.951	13603.97
635.145	13540.49
635.339	13462.66
635.533	13317.26
635.726	13610.12
635.92	13102.22
636.114	13223.05
636.308	12891.28
636.501	13098.13
636.695	13139.08
636.889	12678.29
637.083	12725.4
637.276	12620.95
637.47	12797.07
637.664	12532.89
637.857	12481.69
638.051	12455.06
638.244	12504.21
638.438	12278.94
638.632	12123.29
638.825	12186.78
639.019	12190.88
639.212	11836.58
639.406	11977.89
639.599	11900.06
639.793	11947.17
639.986	11562.15
640.18	11629.73
640.373	11887.78
640.567	11396.26
640.76	11682.98
640.954	11517.09
641.147	11426.98
641.34	11308.2
641.534	11365.54
641.727	11037.87
641.92	11340.97
642.114	11138.22
642.307	10933.42
642.5	10970.29
642.694	10814.64
642.887	10939.57
643.08	10931.37
643.273	10927.28
643.467	10540.21
643.66	10755.25
643.853	10591.41
644.046	10536.12
644.239	10452.15
644.432	10622.13
644.626	10247.35
644.819	10421.43
645.012	10314.94
645.205	10251.45
645.398	10104
645.591	9862.33
645.784	10071.23
645.977	9974.97
646.17	9972.93
646.363	9995.45
646.556	9639.11
646.749	9661.63
646.942	9802.94
647.135	9749.7
647.328	9598.15
647.521	9573.57
647.714	9602.24
647.907	9594.05
648.099	9598.15
648.292	9505.99
648.485	9456.84
648.678	9348.29
648.871	9110.73
649.064	9180.36
649.256	9186.51
649.449	9026.76
649.642	9325.77
649.835	8932.56
650.027	9034.96
650.22	8950.99
650.413	8867.02
650.605	8891.6
650.798	8776.91
650.991	8684.75
651.183	8725.71
651.376	8649.94
651.568	8457.43
651.761	8479.96
651.954	8502.48
652.146	8582.35
652.339	8500.44
652.531	8350.93
652.724	8398.04
652.916	8191.19
653.109	8219.86
653.301	8287.45
653.494	8215.77
653.686	7955.68
653.879	8283.35
654.071	8142.04
654.263	7920.86
654.456	7771.36
654.648	7963.87
654.84	7771.36
655.033	7687.39
655.225	7734.5
655.417	7671.01
655.61	7740.64
655.802	7648.48
655.994	7683.3
656.186	7671.01
656.379	7570.66
656.571	7466.21
656.763	7261.41
656.955	7345.38
657.148	7458.02
657.34	7384.29
657.532	7226.6
657.724	7212.26
657.916	7183.59
658.108	7181.54
658.3	7134.44
658.492	7220.46
658.684	6943.98
658.876	6964.46
659.068	6892.78
659.26	6976.75
659.452	6876.4
659.644	6929.64
659.836	6860.01
660.028	6814.96
660.22	6616.3
660.412	6720.75
660.604	6657.26
660.796	6737.13
660.988	6462.71
661.18	6692.08
661.372	6575.34
661.563	6622.45
661.755	6520.05
661.947	6446.32
662.139	6530.29
662.331	6442.23
662.522	6339.83
662.714	6270.2
662.906	6352.12
663.097	6442.23
663.289	6315.25
663.481	6077.69
663.673	6061.3
663.864	6110.46
664.056	5987.58
664.247	6012.15
664.439	5971.19
664.631	5950.71
664.822	6034.68
665.014	5893.37
665.205	5950.71
665.397	5940.47
665.588	5997.82
665.78	5747.97
665.971	5799.16
666.163	5743.87
666.354	5741.82
666.546	5790.97
666.737	5561.6
666.929	5684.48
667.12	5637.38
667.311	5651.71
667.503	5592.32
667.694	5569.79
667.885	5426.43
668.077	5471.49
668.268	5532.93
668.459	5299.46
668.651	5491.97
668.842	5242.12
669.033	5305.6
669.224	5328.13
669.416	5461.25
669.607	5321.99
669.798	5268.74
669.989	5174.53
670.18	5352.71
670.371	5424.39
670.563	5006.6
670.754	5123.34
670.945	5008.65
671.136	5156.1
671.327	5000.46
671.518	4969.74
671.709	5008.65
671.9	5106.95
672.091	5123.34
672.282	4853
672.473	4908.3
672.664	4957.45
672.855	4803.85
673.046	4783.37
673.237	4810
673.428	4869.39
673.619	4771.08
673.809	4642.06
674	4832.52
674.191	4539.66
674.382	4666.64
674.573	4701.45
674.764	4726.03
674.954	4601.1
675.145	4527.38
675.336	4670.73
675.527	4560.14
675.717	4510.99
675.908	4435.22
676.099	4545.81
676.289	4517.14
676.48	4457.75
676.671	4379.92
676.861	4367.63
677.052	4424.98
677.243	4359.44
677.433	4367.63
677.624	4304.15
677.814	4484.37
678.005	4443.41
678.195	4201.75
678.386	4211.99
678.576	4283.67
678.767	4222.23
678.957	4306.2
679.148	4128.02
679.338	4265.24
679.529	4257.04
679.719	4121.88
679.909	4252.95
680.1	4142.36
680.29	4132.12
680.481	4207.89
680.671	4062.49
680.861	4187.41
681.052	4017.43
681.242	4023.58
681.432	4185.37
681.622	4074.78
681.813	4033.82
682.003	4013.34
682.193	3986.71
682.383	4105.49
682.573	4138.26
682.764	3894.55
682.954	4015.38
683.144	4058.39
683.334	4003.1
683.524	3892.51
683.714	3935.51
683.904	3808.54
684.094	3898.65
684.284	3835.16
684.474	3994.9
684.664	3894.55
684.854	3837.21
685.044	3790.11
685.234	3718.43
685.424	3849.5
685.614	3759.39
685.804	3769.63
685.994	3751.2
686.184	3681.57
686.374	3685.66
686.564	3790.11
686.753	3636.51
686.943	3546.4
687.133	3521.82
687.323	3607.84
687.513	3734.81
687.702	3673.37
687.892	3511.58
688.082	3482.91
688.272	3499.3
688.461	3542.3
688.651	3499.3
688.841	3611.93
689.03	3425.57
689.22	3425.57
689.41	3382.56
689.599	3462.43
689.789	3398.95
689.979	3394.85
690.168	3444
690.358	3368.23
690.547	3458.34
690.737	3444
690.926	3269.92
691.116	3278.12
691.305	3384.61
691.495	3304.74
691.684	3267.88
691.874	3331.36
692.063	3245.35
692.252	3302.69
692.442	3190.05
692.631	3280.16
692.82	3161.38
693.01	3142.95
693.199	3206.44
693.388	3237.16
693.578	3075.37
693.767	3145
693.956	3015.98
694.146	3085.61
694.335	3134.76
694.524	3075.37
694.713	3093.8
694.902	2948.39
695.092	3030.31
695.281	3069.22
695.47	2970.92
695.659	2981.16
695.848	2934.06
696.037	3112.23
696.226	3147.05
696.415	3048.74
696.604	3038.5
696.793	3007.78
696.982	3026.22
697.171	3030.31
697.36	2968.87
697.549	2925.86
697.738	2927.91
697.927	3034.41
698.116	2917.67
698.305	2942.25
698.494	2936.1
698.683	3005.74
698.872	2956.58
699.061	2966.82
699.25	2981.16
699.438	2911.53
699.627	2968.87
699.816	2958.63
700.005	2870.57
700.193	2909.48
700.382	2977.06
700.571	2882.86
700.76	2776.36
700.948	2975.02
701.137	2880.81
701.326	2850.09
701.514	2860.33
701.703	2954.54
701.892	2811.18
702.08	2987.3
702.269	2895.15
702.457	2790.7
702.646	2903.34
702.834	2831.66
703.023	2932.01
703.212	2823.47
703.4	2850.09
703.589	2815.27
703.777	2886.95
703.965	2811.18
704.154	2794.79
704.342	2821.42
704.531	2764.08
704.719	2671.92
704.907	2751.79
705.096	2850.09
705.284	2821.42
705.472	2864.43
705.661	2780.46
705.849	2860.33
706.037	2852.14
706.226	2841.9
706.414	2731.31
706.602	2788.65
706.79	2782.51
706.979	2807.08
707.167	2710.83
707.355	2790.7
707.543	2710.83
707.731	2743.6
707.919	2719.02
708.107	2684.2
708.296	2698.54
708.484	2852.14
708.672	2837.8
708.86	2862.38
709.048	2641.2
709.236	2663.72
709.424	2676.01
709.612	2596.14
709.8	2698.54
709.988	2700.59
710.176	2741.55
710.364	2743.6
710.551	2706.73
710.739	2673.96
710.927	2743.6
711.115	2723.12
711.303	2598.19
711.491	2661.68
711.679	2559.28
711.866	2749.74
712.054	2618.67
712.242	2647.34
712.43	2716.97
712.617	2587.95
712.805	2604.33
712.993	2757.93
713.181	2590
713.368	2587.95
713.556	2751.79
713.744	2489.65
713.931	2755.88
714.119	2606.38
714.306	2772.27
714.494	2565.42
714.682	2510.13
714.869	2528.56
715.057	2622.77
715.244	2653.48
715.432	2657.58
715.619	2559.28
715.807	2626.86
715.994	2544.94
716.182	2598.19
716.369	2583.85
716.556	2596.14
716.744	2538.8
716.931	2592.05
717.119	2594.09
717.306	2524.46
717.493	2614.57
717.681	2528.56
717.868	2524.46
718.055	2575.66
718.242	2503.98
718.43	2510.13
718.617	2608.43
718.804	2557.23
718.991	2551.09
719.179	2575.66
719.366	2489.65
719.553	2575.66
719.74	2432.3
719.927	2450.74
720.114	2485.55
720.301	2438.45
720.488	2524.46
720.676	2499.89
720.863	2493.74
721.05	2485.55
721.237	2546.99
721.424	2471.22
721.611	2516.27
721.798	2538.8
721.985	2501.94
722.172	2377.01
722.358	2415.92
722.545	2544.94
722.732	2491.7
722.919	2444.59
723.106	2567.47
723.293	2512.17
723.48	2487.6
723.667	2508.08
723.853	2436.4
724.04	2522.41
724.227	2389.3
724.414	2477.36
724.6	2389.3
724.787	2485.55
724.974	2356.53
725.161	2379.06
725.347	2370.87
725.534	2370.87
725.72	2483.5
725.907	2503.98
726.094	2432.3
726.28	2413.87
726.467	2456.88
726.653	2426.16
726.84	2432.3
727.027	2567.47
727.213	2256.18
727.4	2350.39
727.586	2397.49
727.773	2450.74
727.959	2229.56
728.145	2358.58
728.332	2336.05
728.518	2374.96
728.705	2250.03
728.891	2395.44
729.077	2458.93
729.264	2229.56
729.45	2290.99
729.636	2434.35
729.823	2348.34
730.009	2422.06
730.195	2303.28
730.382	2321.71
730.568	2309.43
730.754	2438.45
730.94	2297.14
731.126	2311.47
731.313	2258.23
731.499	2313.52
731.685	2237.75
731.871	2344.24
732.057	2356.53
732.243	2247.99
732.429	2250.03
732.615	2329.91
732.801	2233.65
732.987	2297.14
733.173	2231.6
733.359	2278.71
733.545	2329.91
733.731	2190.64
733.917	2342.19
734.103	2254.13
734.289	2235.7
734.475	2223.41
734.661	2301.23
734.847	2223.41
735.033	2282.8
735.219	2321.71
735.404	2258.23
735.59	2213.17
735.776	2202.93
735.962	2229.56
736.148	2174.26
736.333	2346.29
736.519	2311.47
736.705	2256.18
736.89	2247.99
737.076	2223.41
737.262	2147.64
737.447	2243.89
737.633	2260.27
737.819	2145.59
738.004	2141.49
738.19	2215.22
738.375	2141.49
738.561	2170.16
738.747	2176.31
738.932	2059.57
739.118	2223.41
739.303	2170.16
739.489	2250.03
739.674	2121.01
739.859	2153.78
740.045	2155.83
740.23	2096.44
740.416	2035
740.601	2151.73
740.786	2178.36
740.972	2073.91
741.157	2121.01
741.342	2010.42
741.528	2018.61
741.713	2028.85
741.898	2063.67
742.084	2051.38
742.269	1953.08
742.454	1961.27
742.639	2008.37
742.824	1946.94
743.01	2028.85
743.195	2094.39
743.38	2000.18
743.565	1924.41
743.75	1971.51
743.935	2004.28
744.12	2018.61
744.305	1965.37
744.49	1953.08
744.675	1873.21
744.86	2061.62
745.045	1951.03
745.23	1897.78
745.415	1910.07
745.6	1942.84
745.785	1879.35
745.97	1955.13
746.155	1844.54
746.34	1897.78
746.525	1813.82
746.71	1832.25
746.895	1838.39
747.079	1881.4
747.264	1731.9
747.449	1785.15
747.634	1807.67
747.819	1754.43
748.003	1807.67
748.188	1676.6
748.373	1668.41
748.557	1787.19
748.742	1680.7
748.927	1735.99
749.111	1604.92
749.296	1721.66
749.481	1613.12
749.665	1709.37
749.85	1629.5
750.034	1566.01
750.219	1688.89
750.404	1512.77
750.588	1723.71
750.773	1561.92
750.957	1588.54
751.141	1559.87
751.326	1545.53
751.51	1621.31
751.695	1611.07
751.879	1664.32
752.064	1678.65
752.248	1553.73
752.432	1555.77
752.617	1523.01
752.801	1529.15
752.985	1498.43
753.17	1436.99
753.354	1498.43
753.538	1480
753.722	1461.57
753.907	1312.07
754.091	1398.08
754.275	1447.23
754.459	1375.55
754.643	1383.74
754.828	1400.13
755.012	1377.6
755.196	1314.11
755.38	1416.51
755.564	1277.25
755.748	1334.59
755.932	1256.77
756.116	1336.64
756.3	1262.91
756.484	1301.83
756.668	1348.93
756.852	1248.58
757.036	1279.3
757.22	1301.83
757.404	1201.47
757.588	1260.87
757.772	1269.06
757.956	1158.47
758.14	1244.48
758.323	1148.23
758.507	1330.5
758.691	1217.86
758.875	1181
759.059	1232.19
759.242	1205.57
759.426	1236.29
759.61	1221.95
759.794	1191.24
759.977	1174.85
760.161	1185.09
760.345	1209.67
760.528	1238.34
760.712	1162.56
760.895	1160.52
761.079	1133.89
761.263	1121.6
761.446	1135.94
761.63	1088.84
761.813	1187.14
761.997	1088.84
762.18	1109.32
762.364	1074.5
762.547	1070.4
762.731	1176.9
762.914	963.91
763.098	1029.45
763.281	992.58
763.464	998.73
763.648	1045.83
763.831	1049.93
764.015	984.39
764.198	1068.36
764.381	1039.69
764.564	1086.79
764.748	1006.92
764.931	992.58
765.114	988.49
765.297	1049.93
765.481	1013.06
765.664	1051.97
765.847	955.72
766.03	916.81
766.213	980.29
766.397	861.51
766.58	867.66
766.763	1062.21
766.946	1015.11
767.129	941.38
767.312	894.28
767.495	986.44
767.678	884.04
767.861	943.43
768.044	941.38
768.227	935.24
768.41	892.23
768.593	834.89
768.776	892.23
768.959	949.57
769.142	963.91
769.324	972.1
769.507	992.58
769.69	920.9
769.873	841.03
770.056	906.57
770.239	947.53
770.421	957.77
770.604	978.25
770.787	941.38
770.97	808.26
771.152	904.52
771.335	900.42
771.518	834.89
771.7	841.03
771.883	847.18
772.066	914.76
772.248	906.57
772.431	916.81
772.613	804.17
772.796	869.7
772.978	879.94
773.161	896.33
773.343	802.12
773.526	830.79
773.708	841.03
773.891	814.41
774.073	849.22
774.256	707.91
774.438	828.74
774.621	781.64
774.803	818.5
774.985	802.12
775.168	769.35
775.35	777.55
775.532	804.17
775.715	757.07
775.897	701.77
776.079	716.11
776.261	726.35
776.444	681.29
776.626	716.11
776.808	654.67
776.99	669
777.173	726.35
777.355	695.63
777.537	685.39
777.719	773.45
777.901	746.83
778.083	646.48
778.265	632.14
778.447	654.67
778.629	654.67
778.811	611.66
778.993	644.43
779.175	701.77
779.357	666.96
779.539	615.76
779.721	734.54
779.903	654.67
780.085	623.95
780.267	642.38
780.449	539.98
780.631	646.48
780.812	679.24
780.994	539.98
781.176	587.08
781.358	658.76
781.54	609.61
781.721	548.17
781.903	630.09
782.085	525.65
782.267	574.8
782.448	558.41
782.63	499.02
782.812	611.66
782.993	595.28
783.175	533.84
783.357	527.69
783.538	513.36
783.72	462.16
783.901	537.93
784.083	490.83
784.264	537.93
784.446	453.97
784.627	464.21
784.809	556.36
784.99	421.2
785.172	556.36
785.353	437.58
785.535	501.07
785.716	501.07
785.897	370
786.079	478.54
786.26	445.77
786.441	501.07
786.623	460.11
786.804	466.25
786.985	482.64
787.167	449.87
787.348	427.34
787.529	474.45
787.71	435.53
787.891	449.87
788.073	335.18
788.254	355.66
788.435	382.29
788.616	453.97
788.797	398.67
788.978	398.67
789.159	378.19
789.34	404.82
789.522	398.67
789.703	374.1
789.884	390.48
790.065	408.91
790.246	390.48
790.427	453.97
790.607	386.38
790.788	404.82
790.969	402.77
791.15	423.25
791.331	423.25
791.512	345.42
791.693	326.99
791.874	400.72
792.054	347.47
792.235	380.24
792.416	363.86
792.597	374.1
792.778	343.38
792.958	382.29
793.139	361.81
793.32	302.42
793.5	290.13
793.681	435.53
793.862	355.66
794.042	339.28
794.223	361.81
794.404	363.86
794.584	333.14
794.765	298.32
794.945	238.93
795.126	304.46
795.306	324.94
795.487	310.61
795.667	341.33
795.848	388.43
796.028	353.62
796.209	316.75
796.389	267.6
796.57	380.24
796.75	273.75
796.93	310.61
797.111	343.38
797.291	341.33
797.471	394.58
797.652	316.75
797.832	286.03
798.012	277.84
798.192	169.3
798.373	216.4
798.553	255.31
798.733	253.27
798.913	251.22
799.093	243.03
799.274	228.69
799.454	290.13
799.634	318.8
799.814	245.07
799.994	271.7
800.174	261.46
800.354	271.7
800.534	267.6
800.714	265.55
800.894	312.66
801.074	267.6
801.254	300.37
801.434	281.94
801.614	245.07
801.794	224.59
801.974	664.91
802.154	245.07
802.334	279.89
802.514	249.17
802.693	251.22
802.873	210.26
803.053	277.84
803.233	292.18
803.413	253.27
803.592	230.74
803.772	206.16
803.952	296.27
804.131	281.94
804.311	159.06
804.491	236.88
804.67	257.36
804.85	154.96
805.03	257.36
805.209	183.63
805.389	197.97
805.568	257.36
805.748	161.11
805.928	257.36
806.107	171.35
806.287	195.92
806.466	286.03
806.646	271.7
806.825	138.58
807.004	240.98
807.184	187.73
807.363	212.31
807.543	226.64
807.722	171.35
807.901	197.97
808.081	240.98
808.26	208.21
808.439	171.35
808.619	120.15
808.798	234.83
808.977	222.55
809.156	216.4
809.336	206.16
809.515	245.07
809.694	138.58
809.873	202.07
810.052	238.93
810.231	206.16
810.411	224.59
810.59	195.92
810.769	288.08
810.948	222.55
811.127	183.63
811.306	202.07
811.485	210.26
811.664	152.91
811.843	146.77
812.022	183.63
812.201	159.06
812.38	195.92
812.559	179.54
812.737	154.96
812.916	68.95
813.095	175.44
813.274	228.69
813.453	152.91
813.632	187.73
813.811	185.68
813.989	179.54
814.168	126.29
814.347	150.87
814.526	124.24
814.704	165.2
814.883	191.83
815.062	118.1
815.24	116.05
815.419	124.24
815.598	234.83
815.776	183.63
815.955	185.68
816.133	161.11
816.312	128.34
816.49	165.2
816.669	181.59
816.847	142.68
817.026	177.49
817.204	77.14
817.383	142.68
817.561	103.76
817.74	183.63
817.918	142.68
818.097	195.92
818.275	169.3
818.453	193.87
818.632	150.87
818.81	101.72
818.988	165.2
819.167	177.49
819.345	56.66
819.523	132.44
819.701	116.05
819.879	64.85
820.058	206.16
820.236	204.11
820.414	163.15
820.592	128.34
820.77	114
820.948	58.71
821.127	77.14
821.305	218.45
821.483	138.58
821.661	128.34
821.839	91.48
822.017	163.15
822.195	142.68
822.373	91.48
822.551	144.72
822.729	85.33
822.907	58.71
823.085	97.62
823.262	58.71
823.44	128.34
823.618	95.57
823.796	107.86
823.974	138.58
824.152	77.14
824.329	109.91
824.507	91.48
824.685	130.39
824.863	165.2
825.04	62.8
825.218	54.61
825.396	34.13
825.574	183.63
825.751	109.91
825.929	77.14
826.107	93.52
826.284	124.24
826.462	107.86
826.639	130.39
826.817	56.66
826.994	165.2
827.172	83.28
827.349	111.96
827.527	128.34
827.704	181.59
827.882	44.37
828.059	185.68
828.237	154.96
828.414	79.19
828.591	126.29
828.769	138.58
828.946	85.33
829.124	144.72
829.301	132.44
829.478	83.28
829.655	64.85
829.833	93.52
830.01	40.28
830.187	124.24
830.364	44.37
830.542	62.8
830.719	120.15
830.896	95.57
831.073	163.15
831.25	46.42
831.427	144.72
831.604	9.56
831.782	95.57
831.959	107.86
832.136	38.23
832.313	87.38
832.49	44.37
832.667	109.91
832.844	52.56
833.021	144.72
833.198	77.14
833.374	142.68
833.551	118.1
833.728	97.62
833.905	107.86
834.082	19.8
834.259	105.81
834.436	126.29
834.612	73.04
834.789	81.24
834.966	109.91
835.143	52.56
835.319	89.43
835.496	122.2
835.673	62.8
835.85	77.14
836.026	30.04
836.203	40.28
836.38	107.86
836.556	114
836.733	87.38
836.909	32.08
837.086	109.91
837.262	15.7
837.439	140.63
837.616	58.71
837.792	107.86
837.968	17.75
838.145	-4.78
838.321	36.18
838.498	-19.11
838.674	105.81
838.851	17.75
839.027	124.24
839.203	3.41
839.38	64.85
839.556	-4.78
839.732	64.85
839.909	19.8
840.085	91.48
840.261	19.8
840.437	48.47
840.614	52.56
840.79	128.34
840.966	62.8
841.142	89.43
841.318	46.42
841.494	62.8
841.671	118.1
841.847	44.37
842.023	111.96
842.199	34.13
842.375	40.28
842.551	25.94
842.727	107.86
842.903	66.9
843.079	-37.55
843.255	-4.78
843.431	81.24
843.607	71
843.783	44.37
843.959	81.24
844.134	54.61
844.31	40.28
844.486	48.47
844.662	77.14
844.838	64.85
845.013	38.23
845.189	91.48
845.365	105.81
845.541	50.52
845.716	3.41
845.892	42.32
846.068	87.38
846.244	-33.45
846.419	15.7
846.595	15.7
846.77	58.71
846.946	32.08
847.122	81.24
847.297	68.95
847.473	99.67
847.648	36.18
847.824	23.89
847.999	52.56
848.175	56.66
848.35	58.71
848.526	17.75
848.701	142.68
848.876	56.66
849.052	154.96
849.227	5.46
849.403	-25.26
849.578	91.48
849.753	30.04
849.929	-4.78
850.104	15.7
850.279	9.56
850.454	17.75
850.63	40.28
850.805	13.65
850.98	68.95
851.155	71
851.33	21.84
851.505	62.8
851.681	77.14
851.856	50.52
852.031	21.84
852.206	109.91
852.381	68.95
852.556	15.7
852.731	87.38
852.906	103.76
853.081	30.04
853.256	73.04
853.431	64.85
853.606	66.9
853.781	36.18
853.956	-25.26
854.131	85.33
854.305	-58.03
854.48	52.56
854.655	-39.59
854.83	52.56
855.005	13.65
855.18	9.56
855.354	30.04
855.529	89.43
855.704	32.08
855.879	11.61
856.053	56.66
856.228	-15.02
856.403	71
856.577	107.86
856.752	36.18
856.926	85.33
857.101	52.56
857.276	5.46
857.45	48.47
857.625	87.38
857.799	30.04
857.974	58.71
858.148	5.46
858.323	-12.97
858.497	-74.41
858.672	34.13
858.846	85.33
859.02	44.37
859.195	-31.4
859.369	95.57
859.543	116.05
859.718	30.04
859.892	52.56
860.066	9.56
860.241	13.65
860.415	38.23
860.589	38.23
860.763	27.99
860.938	-8.87
861.112	38.23
861.286	34.13
861.46	103.76
861.634	81.24
861.808	38.23
861.982	46.42
862.157	-55.98
862.331	93.52
862.505	-6.83
862.679	-31.4
862.853	15.7
863.027	-27.31
863.201	-8.87
863.375	-31.4
863.549	52.56
863.722	44.37
863.896	93.52
864.07	-12.97
864.244	71
864.418	44.37
864.592	-47.79
864.766	17.75
864.939	25.94
865.113	13.65
865.287	-4.78
865.461	38.23
865.634	54.61
865.808	19.8
865.982	103.76
866.156	15.7
866.329	-17.07
866.503	11.61
866.676	27.99
866.85	73.04
867.024	23.89
867.197	17.75
867.371	77.14
867.544	46.42
867.718	-37.55
867.891	85.33
868.065	79.19
868.238	11.61
868.412	68.95
868.585	-0.68
868.759	62.8
868.932	42.32
869.105	27.99
869.279	25.94
869.452	-47.79
869.625	36.18
869.799	73.04
869.972	23.89
870.145	21.84
870.319	5.46
870.492	46.42
870.665	-21.16
870.838	64.85
871.011	-4.78
871.185	38.23
871.358	7.51
871.531	54.61
871.704	21.84
871.877	19.8
872.05	-17.07
872.223	32.08
872.396	23.89
872.569	50.52
872.742	71
872.915	54.61
873.088	-21.16
873.261	1.37
873.434	34.13
873.607	79.19
873.78	44.37
873.953	-12.97
874.126	-15.02
874.299	83.28
874.471	44.37
874.644	-121.51
874.817	77.14
874.99	120.15
875.163	79.19
875.335	36.18
875.508	44.37
875.681	15.7
875.853	15.7
876.026	-10.92
876.199	-29.35
876.371	-27.31
876.544	25.94
876.717	-45.74
876.889	-15.02
877.062	21.84
877.234	54.61
877.407	56.66
877.579	-15.02
877.752	81.24
877.924	48.47
878.097	-49.83
878.269	-6.83
878.442	-8.87
878.614	-25.26
878.786	30.04
878.959	83.28
879.131	-4.78
879.303	-15.02
879.476	58.71
879.648	-2.73
879.82	-4.78
879.993	-2.73
880.165	-21.16
880.337	-2.73
880.509	-6.83
880.681	7.51
880.854	30.04
881.026	-47.79
881.198	81.24
881.37	-2.73
881.542	54.61
881.714	-66.22
881.886	3.41
882.058	62.8
882.23	-43.69
882.402	19.8
882.574	54.61
882.746	-2.73
882.918	-15.02
883.09	9.56
883.262	3.41
883.434	32.08
883.606	-29.35
883.778	79.19
883.95	25.94
884.122	-39.59
884.293	-12.97
884.465	-43.69
884.637	54.61
884.809	11.61
884.98	30.04
885.152	27.99
885.324	9.56
885.496	-37.55
885.667	1.37
885.839	-51.88
886.011	50.52
886.182	36.18
886.354	-86.7
886.525	-29.35
886.697	36.18
886.869	-17.07
887.04	17.75
887.212	48.47
887.383	66.9
887.555	48.47
887.726	-23.21
887.897	5.46
888.069	9.56
888.24	27.99
888.412	32.08
888.583	3.41
888.754	44.37
888.926	44.37
889.097	-4.78
889.268	-70.31
889.44	30.04
889.611	-39.59
889.782	17.75
889.953	30.04
890.125	48.47
890.296	42.32
890.467	71
890.638	46.42
890.809	13.65
890.98	73.04
891.151	34.13
891.323	95.57
891.494	34.13
891.665	-17.07
891.836	-70.31
892.007	-12.97
892.178	58.71
892.349	46.42
892.52	-6.83
892.691	81.24
892.862	56.66
893.032	-8.87
893.203	32.08
893.374	89.43
893.545	48.47
893.716	-49.83
893.887	7.51
894.057	-25.26
894.228	25.94
894.399	-29.35
894.57	32.08
894.74	11.61
894.911	32.08
895.082	3.41
895.253	23.89
895.423	5.46
895.594	27.99
895.764	19.8
895.935	-21.16
896.106	-8.87
896.276	1.37
896.447	58.71
896.617	46.42
896.788	-2.73
896.958	-4.78
897.129	-17.07
897.299	-43.69
897.47	44.37
897.64	52.56
897.81	-10.92
897.981	-31.4
898.151	-12.97
898.322	15.7
898.492	54.61
898.662	-51.88
898.832	36.18
899.003	-62.12
899.173	-47.79
899.343	-2.73
899.513	1.37
