Data from USB4F104151__130__11-07-39-196.txt Node

Date: Wed Mar 12 11:07:39 EDT 2025
User: louis
Spectrometer: USB4F10415
Trigger mode: 4
Integration Time (sec): 2.000000E-2
Scans to average: 1
Electric dark correction enabled: true
Nonlinearity correction enabled: false
Boxcar width: 0
XAxis mode: Wavelengths
Number of Pixels in Spectrum: 3648
>>>>>Begin Spectral Data<<<<<
178.204	-54.61
178.424	-54.61
178.644	-54.61
178.864	-109.91
179.084	-64.85
179.304	6.83
179.524	41.64
179.744	19.11
179.964	19.11
180.184	-85.33
180.404	33.45
180.624	43.69
180.844	17.07
181.064	-25.94
181.283	-23.89
181.503	-1.37
181.723	-44.37
181.943	2.73
182.163	12.97
182.383	86.7
182.602	-40.28
182.822	8.87
183.042	39.59
183.262	74.41
183.482	-17.75
183.701	55.98
183.921	-34.13
184.141	47.79
184.361	0.68
184.58	35.5
184.8	0.68
185.02	-5.46
185.239	-19.8
185.459	39.59
185.679	43.69
185.898	-44.37
186.118	39.59
186.338	43.69
186.557	35.5
186.777	80.55
186.997	-1.37
187.216	23.21
187.436	64.17
187.655	123.56
187.875	31.4
188.095	10.92
188.314	49.83
188.534	76.46
188.753	-3.41
188.973	47.79
189.192	25.26
189.412	41.64
189.631	47.79
189.851	-7.51
190.07	12.97
190.29	49.83
190.509	-5.46
190.729	0.68
190.948	4.78
191.168	92.84
191.387	41.64
191.607	62.12
191.826	-13.65
192.045	-13.65
192.265	58.03
192.484	45.74
192.704	-1.37
192.923	-40.28
193.142	49.83
193.362	29.35
193.581	12.97
193.8	64.17
194.02	80.55
194.239	31.4
194.458	66.22
194.678	-7.51
194.897	-19.8
195.116	4.78
195.335	-7.51
195.555	4.78
195.774	70.31
195.993	80.55
196.212	-5.46
196.432	109.22
196.651	53.93
196.87	-42.32
197.089	68.27
197.308	78.51
197.528	51.88
197.747	45.74
197.966	103.08
198.185	96.94
198.404	-5.46
198.623	37.55
198.842	117.42
199.062	43.69
199.281	4.78
199.5	17.07
199.719	55.98
199.938	8.87
200.157	70.31
200.376	70.31
200.595	17.07
200.814	-7.51
201.033	-27.99
201.252	41.64
201.471	12.97
201.69	8.87
201.909	47.79
202.128	23.21
202.347	72.36
202.566	15.02
202.785	58.03
203.004	53.93
203.223	115.37
203.442	-5.46
203.661	66.22
203.879	51.88
204.098	25.26
204.317	23.21
204.536	25.26
204.755	-11.61
204.974	129.7
205.193	31.4
205.411	-5.46
205.63	60.07
205.849	31.4
206.068	66.22
206.287	70.31
206.505	31.4
206.724	17.07
206.943	64.17
207.162	-56.66
207.381	-13.65
207.599	27.31
207.818	-3.41
208.037	53.93
208.255	33.45
208.474	-68.95
208.693	0.68
208.911	21.16
209.13	6.83
209.349	62.12
209.567	53.93
209.786	123.56
210.005	-13.65
210.223	29.35
210.442	-11.61
210.661	72.36
210.879	-30.04
211.098	-7.51
211.316	-27.99
211.535	33.45
211.753	-30.04
211.972	88.75
212.191	35.5
212.409	41.64
212.628	17.07
212.846	4.78
213.065	68.27
213.283	53.93
213.502	31.4
213.72	45.74
213.938	60.07
214.157	0.68
214.375	60.07
214.594	-3.41
214.812	23.21
215.031	4.78
215.249	-21.85
215.467	-38.23
215.686	53.93
215.904	0.68
216.122	66.22
216.341	96.94
216.559	8.87
216.778	35.5
216.996	-19.8
217.214	92.84
217.432	12.97
217.651	35.5
217.869	0.68
218.087	37.55
218.306	45.74
218.524	64.17
218.742	-9.56
218.96	60.07
219.179	-5.46
219.397	29.35
219.615	70.31
219.833	43.69
220.051	62.12
220.27	29.35
220.488	37.55
220.706	-38.23
220.924	6.83
221.142	6.83
221.36	29.35
221.578	49.83
221.796	21.16
222.015	94.89
222.233	15.02
222.451	37.55
222.669	35.5
222.887	45.74
223.105	17.07
223.323	-3.41
223.541	58.03
223.759	21.16
223.977	15.02
224.195	33.45
224.413	45.74
224.631	49.83
224.849	31.4
225.067	51.88
225.285	68.27
225.503	41.64
225.721	0.68
225.939	72.36
226.157	49.83
226.375	58.03
226.592	-25.94
226.81	33.45
227.028	88.75
227.246	41.64
227.464	21.16
227.682	17.07
227.9	51.88
228.117	80.55
228.335	-5.46
228.553	17.07
228.771	0.68
228.989	27.31
229.206	70.31
229.424	-79.19
229.642	8.87
229.86	64.17
230.077	6.83
230.295	-27.99
230.513	12.97
230.731	27.31
230.948	98.99
231.166	43.69
231.384	23.21
231.601	23.21
231.819	-17.75
232.037	-79.19
232.254	29.35
232.472	27.31
232.689	-7.51
232.907	101.03
233.125	62.12
233.342	76.46
233.56	4.78
233.777	25.26
233.995	4.78
234.213	-5.46
234.43	19.11
234.648	-5.46
234.865	-30.04
235.083	17.07
235.3	-7.51
235.518	146.09
235.735	-3.41
235.953	4.78
236.17	29.35
236.388	15.02
236.605	125.61
236.822	86.7
237.04	-23.89
237.257	53.93
237.475	35.5
237.692	4.78
237.909	47.79
238.127	105.13
238.344	66.22
238.562	-46.42
238.779	2.73
238.996	78.51
239.214	17.07
239.431	21.16
239.648	-19.8
239.865	31.4
240.083	96.94
240.3	90.79
240.517	35.5
240.735	37.55
240.952	51.88
241.169	10.92
241.386	-7.51
241.603	47.79
241.821	-56.66
242.038	47.79
242.255	-5.46
242.472	4.78
242.689	-25.94
242.907	53.93
243.124	25.26
243.341	-9.56
243.558	58.03
243.775	12.97
243.992	27.31
244.209	25.26
244.426	86.7
244.643	88.75
244.86	2.73
245.078	109.22
245.295	131.75
245.512	43.69
245.729	-11.61
245.946	25.26
246.163	-13.65
246.38	-7.51
246.597	66.22
246.814	35.5
247.031	19.11
247.248	-17.75
247.464	21.16
247.681	111.27
247.898	6.83
248.115	8.87
248.332	74.41
248.549	76.46
248.766	82.6
248.983	70.31
249.2	23.21
249.417	62.12
249.633	51.88
249.85	82.6
250.067	49.83
250.284	125.61
250.501	70.31
250.717	19.11
250.934	-38.23
251.151	19.11
251.368	-40.28
251.585	-3.41
251.801	-5.46
252.018	19.11
252.235	35.5
252.451	-15.7
252.668	33.45
252.885	2.73
253.102	-3.41
253.318	94.89
253.535	43.69
253.752	-13.65
253.968	25.26
254.185	19.11
254.401	-27.99
254.618	45.74
254.835	-5.46
255.051	98.99
255.268	70.31
255.484	84.65
255.701	0.68
255.917	12.97
256.134	0.68
256.351	88.75
256.567	47.79
256.784	4.78
257	47.79
257.217	-7.51
257.433	29.35
257.65	-54.61
257.866	-21.85
258.082	49.83
258.299	101.03
258.515	25.26
258.732	10.92
258.948	72.36
259.165	23.21
259.381	-7.51
259.597	29.35
259.814	78.51
260.03	-46.42
260.246	0.68
260.463	-11.61
260.679	-5.46
260.895	62.12
261.112	47.79
261.328	-11.61
261.544	-44.37
261.761	33.45
261.977	37.55
262.193	-19.8
262.409	29.35
262.626	-5.46
262.842	19.11
263.058	25.26
263.274	41.64
263.49	10.92
263.707	25.26
263.923	25.26
264.139	-17.75
264.355	29.35
264.571	10.92
264.787	86.7
265.004	86.7
265.22	51.88
265.436	4.78
265.652	-27.99
265.868	27.31
266.084	47.79
266.3	6.83
266.516	-21.85
266.732	41.64
266.948	2.73
267.164	6.83
267.38	-7.51
267.596	74.41
267.812	80.55
268.028	-11.61
268.244	51.88
268.46	-5.46
268.676	27.31
268.892	-13.65
269.108	74.41
269.324	-56.66
269.54	47.79
269.756	27.31
269.972	58.03
270.188	70.31
270.403	4.78
270.619	10.92
270.835	-32.08
271.051	64.17
271.267	76.46
271.483	19.11
271.698	-13.65
271.914	90.79
272.13	6.83
272.346	27.31
272.562	15.02
272.777	4.78
272.993	-13.65
273.209	72.36
273.425	-9.56
273.64	-15.7
273.856	-3.41
274.072	4.78
274.287	55.98
274.503	35.5
274.719	6.83
274.934	43.69
275.15	-40.28
275.366	25.26
275.581	4.78
275.797	29.35
276.012	-32.08
276.228	49.83
276.444	8.87
276.659	25.26
276.875	45.74
277.09	78.51
277.306	10.92
277.521	35.5
277.737	45.74
277.952	86.7
278.168	35.5
278.383	23.21
278.599	8.87
278.814	135.85
279.03	8.87
279.245	58.03
279.461	33.45
279.676	-5.46
279.892	-23.89
280.107	-42.32
280.322	25.26
280.538	-5.46
280.753	43.69
280.969	64.17
281.184	33.45
281.399	25.26
281.615	107.18
281.83	70.31
282.045	-1.37
282.26	47.79
282.476	-25.94
282.691	64.17
282.906	2.73
283.122	27.31
283.337	33.45
283.552	72.36
283.767	49.83
283.983	17.07
284.198	-32.08
284.413	60.07
284.628	-89.43
284.843	37.55
285.058	29.35
285.274	43.69
285.489	-11.61
285.704	29.35
285.919	27.31
286.134	39.59
286.349	27.31
286.564	10.92
286.779	8.87
286.995	19.11
287.21	37.55
287.425	74.41
287.64	35.5
287.855	29.35
288.07	-38.23
288.285	51.88
288.5	33.45
288.715	60.07
288.93	25.26
289.145	25.26
289.36	45.74
289.575	-9.56
289.79	33.45
290.004	-5.46
290.219	-48.47
290.434	37.55
290.649	10.92
290.864	17.07
291.079	8.87
291.294	23.21
291.509	-17.75
291.724	47.79
291.938	-9.56
292.153	96.94
292.368	8.87
292.583	15.02
292.798	45.74
293.012	33.45
293.227	58.03
293.442	37.55
293.657	66.22
293.871	64.17
294.086	8.87
294.301	92.84
294.516	64.17
294.73	80.55
294.945	-11.61
295.16	47.79
295.374	-30.04
295.589	-15.7
295.804	-54.61
296.018	2.73
296.233	60.07
296.447	15.02
296.662	10.92
296.877	27.31
297.091	19.11
297.306	88.75
297.52	-3.41
297.735	-1.37
297.949	-32.08
298.164	96.94
298.378	12.97
298.593	6.83
298.807	43.69
299.022	107.18
299.236	53.93
299.451	49.83
299.665	29.35
299.88	74.41
300.094	64.17
300.309	23.21
300.523	119.46
300.737	31.4
300.952	43.69
301.166	72.36
301.381	23.21
301.595	35.5
301.809	31.4
302.024	64.17
302.238	-3.41
302.452	-34.13
302.667	-5.46
302.881	55.98
303.095	64.17
303.309	82.6
303.524	31.4
303.738	53.93
303.952	53.93
304.166	92.84
304.381	-9.56
304.595	82.6
304.809	41.64
305.023	66.22
305.237	0.68
305.452	47.79
305.666	12.97
305.88	45.74
306.094	78.51
306.308	35.5
306.522	33.45
306.736	53.93
306.95	0.68
307.164	37.55
307.379	19.11
307.593	8.87
307.807	-3.41
308.021	60.07
308.235	62.12
308.449	35.5
308.663	19.11
308.877	78.51
309.091	51.88
309.305	39.59
309.519	-23.89
309.733	45.74
309.947	37.55
310.161	53.93
310.374	117.42
310.588	119.46
310.802	23.21
311.016	53.93
311.23	8.87
311.444	15.02
311.658	15.02
311.872	23.21
312.085	101.03
312.299	82.6
312.513	84.65
312.727	74.41
312.941	29.35
313.154	68.27
313.368	43.69
313.582	41.64
313.796	53.93
314.009	6.83
314.223	37.55
314.437	-17.75
314.651	-15.7
314.864	-38.23
315.078	49.83
315.292	98.99
315.505	29.35
315.719	35.5
315.933	29.35
316.146	47.79
316.36	-25.94
316.573	94.89
316.787	86.7
317.001	94.89
317.214	17.07
317.428	25.26
317.641	39.59
317.855	41.64
318.068	21.16
318.282	-11.61
318.495	98.99
318.709	-1.37
318.922	17.07
319.136	82.6
319.349	78.51
319.563	41.64
319.776	43.69
319.99	64.17
320.203	33.45
320.417	60.07
320.63	131.75
320.843	88.75
321.057	12.97
321.27	-34.13
321.483	53.93
321.697	-66.9
321.91	47.79
322.124	60.07
322.337	47.79
322.55	45.74
322.763	10.92
322.977	-7.51
323.19	101.03
323.403	31.4
323.617	70.31
323.83	43.69
324.043	21.16
324.256	37.55
324.469	17.07
324.683	33.45
324.896	4.78
325.109	0.68
325.322	35.5
325.535	10.92
325.748	78.51
325.962	60.07
326.175	12.97
326.388	-34.13
326.601	51.88
326.814	27.31
327.027	29.35
327.24	154.28
327.453	-19.8
327.666	70.31
327.879	25.26
328.092	35.5
328.305	25.26
328.518	60.07
328.731	25.26
328.944	53.93
329.157	88.75
329.37	49.83
329.583	74.41
329.796	43.69
330.009	19.11
330.222	49.83
330.435	60.07
330.648	66.22
330.861	29.35
331.073	29.35
331.286	72.36
331.499	37.55
331.712	6.83
331.925	37.55
332.138	0.68
332.35	66.22
332.563	12.97
332.776	29.35
332.989	-3.41
333.202	43.69
333.414	33.45
333.627	-38.23
333.84	10.92
334.053	80.55
334.265	35.5
334.478	58.03
334.691	-5.46
334.903	49.83
335.116	23.21
335.329	119.46
335.541	72.36
335.754	62.12
335.966	35.5
336.179	45.74
336.392	51.88
336.604	76.46
336.817	41.64
337.029	39.59
337.242	98.99
337.454	70.31
337.667	33.45
337.88	70.31
338.092	41.64
338.305	78.51
338.517	-11.61
338.729	119.46
338.942	78.51
339.154	0.68
339.367	8.87
339.579	111.27
339.792	-19.8
340.004	47.79
340.217	51.88
340.429	53.93
340.641	51.88
340.854	21.16
341.066	37.55
341.278	43.69
341.491	8.87
341.703	103.08
341.915	27.31
342.128	98.99
342.34	35.5
342.552	94.89
342.764	121.51
342.977	43.69
343.189	62.12
343.401	39.59
343.613	47.79
343.826	8.87
344.038	-5.46
344.25	49.83
344.462	-25.94
344.674	80.55
344.886	31.4
345.099	12.97
345.311	162.47
345.523	23.21
345.735	27.31
345.947	70.31
346.159	55.98
346.371	33.45
346.583	19.11
346.795	76.46
347.007	62.12
347.219	53.93
347.431	12.97
347.643	72.36
347.855	-11.61
348.067	88.75
348.279	-7.51
348.491	45.74
348.703	49.83
348.915	-1.37
349.127	23.21
349.339	21.16
349.551	-15.7
349.763	80.55
349.975	29.35
350.187	29.35
350.399	70.31
350.61	84.65
350.822	-7.51
351.034	19.11
351.246	-27.99
351.458	117.42
351.669	-9.56
351.881	-7.51
352.093	90.79
352.305	105.13
352.517	29.35
352.728	31.4
352.94	35.5
353.152	60.07
353.363	41.64
353.575	35.5
353.787	55.98
353.999	41.64
354.21	-13.65
354.422	-42.32
354.633	10.92
354.845	47.79
355.057	94.89
355.268	111.27
355.48	72.36
355.692	35.5
355.903	43.69
356.115	90.79
356.326	10.92
356.538	74.41
356.749	80.55
356.961	68.27
357.172	35.5
357.384	58.03
357.595	70.31
357.807	68.27
358.018	-27.99
358.23	105.13
358.441	98.99
358.653	23.21
358.864	51.88
359.075	-5.46
359.287	0.68
359.498	74.41
359.709	-11.61
359.921	-3.41
360.132	23.21
360.344	98.99
360.555	64.17
360.766	58.03
360.977	51.88
361.189	10.92
361.4	68.27
361.611	58.03
361.823	15.02
362.034	4.78
362.245	-3.41
362.456	53.93
362.667	37.55
362.879	66.22
363.09	45.74
363.301	33.45
363.512	70.31
363.723	43.69
363.935	2.73
364.146	12.97
364.357	10.92
364.568	51.88
364.779	-19.8
364.99	12.97
365.201	105.13
365.412	98.99
365.623	17.07
365.834	17.07
366.045	0.68
366.256	27.31
366.467	70.31
366.678	2.73
366.889	55.98
367.1	64.17
367.311	129.7
367.522	6.83
367.733	127.66
367.944	84.65
368.155	-56.66
368.366	-32.08
368.577	21.16
368.788	43.69
368.999	-5.46
369.209	4.78
369.42	139.94
369.631	115.37
369.842	90.79
370.053	58.03
370.264	6.83
370.474	62.12
370.685	62.12
370.896	47.79
371.107	68.27
371.317	33.45
371.528	64.17
371.739	74.41
371.95	74.41
372.16	12.97
372.371	10.92
372.582	70.31
372.792	70.31
373.003	21.16
373.214	94.89
373.424	53.93
373.635	41.64
373.846	21.16
374.056	58.03
374.267	27.31
374.477	31.4
374.688	58.03
374.898	98.99
375.109	41.64
375.319	53.93
375.53	23.21
375.74	80.55
375.951	41.64
376.161	82.6
376.372	125.61
376.582	62.12
376.793	123.56
377.003	64.17
377.214	41.64
377.424	4.78
377.635	105.13
377.845	74.41
378.055	-1.37
378.266	-32.08
378.476	74.41
378.686	76.46
378.897	68.27
379.107	66.22
379.317	66.22
379.528	119.46
379.738	62.12
379.948	62.12
380.158	125.61
380.369	51.88
380.579	12.97
380.789	53.93
380.999	53.93
381.21	170.66
381.42	58.03
381.63	15.02
381.84	84.65
382.05	21.16
382.261	35.5
382.471	109.22
382.681	55.98
382.891	84.65
383.101	82.6
383.311	-56.66
383.521	43.69
383.731	31.4
383.941	103.08
384.151	64.17
384.361	121.51
384.571	49.83
384.781	21.16
384.991	82.6
385.201	113.32
385.411	74.41
385.621	43.69
385.831	80.55
386.041	160.42
386.251	-38.23
386.461	74.41
386.671	111.27
386.881	23.21
387.091	41.64
387.301	49.83
387.511	60.07
387.72	53.93
387.93	35.5
388.14	39.59
388.35	-32.08
388.56	78.51
388.769	86.7
388.979	2.73
389.189	37.55
389.399	66.22
389.609	53.93
389.818	37.55
390.028	39.59
390.238	66.22
390.447	49.83
390.657	94.89
390.867	82.6
391.076	37.55
391.286	90.79
391.496	39.59
391.705	33.45
391.915	94.89
392.125	55.98
392.334	148.14
392.544	78.51
392.753	125.61
392.963	41.64
393.172	125.61
393.382	37.55
393.591	111.27
393.801	115.37
394.01	96.94
394.22	98.99
394.429	90.79
394.639	101.03
394.848	49.83
395.058	129.7
395.267	-9.56
395.477	96.94
395.686	98.99
395.895	21.16
396.105	29.35
396.314	94.89
396.524	131.75
396.733	2.73
396.942	72.36
397.152	88.75
397.361	92.84
397.57	98.99
397.78	119.46
397.989	88.75
398.198	135.85
398.407	119.46
398.617	86.7
398.826	78.51
399.035	111.27
399.244	96.94
399.453	121.51
399.663	103.08
399.872	90.79
400.081	109.22
400.29	101.03
400.499	27.31
400.708	109.22
400.917	117.42
401.127	135.85
401.336	62.12
401.545	135.85
401.754	137.9
401.963	160.42
402.172	78.51
402.381	74.41
402.59	135.85
402.799	205.48
403.008	-3.41
403.217	96.94
403.426	103.08
403.635	105.13
403.844	133.8
404.053	127.66
404.262	96.94
404.471	66.22
404.68	172.71
404.888	129.7
405.097	90.79
405.306	127.66
405.515	88.75
405.724	127.66
405.933	154.28
406.142	148.14
406.35	148.14
406.559	154.28
406.768	178.86
406.977	197.29
407.185	152.23
407.394	119.46
407.603	219.82
407.812	141.99
408.02	101.03
408.229	164.52
408.438	141.99
408.646	121.51
408.855	266.92
409.064	250.53
409.272	219.82
409.481	281.25
409.69	281.25
409.898	256.68
410.107	232.1
410.315	236.2
410.524	334.5
410.733	238.25
410.941	225.96
411.15	314.02
411.358	324.26
411.567	348.84
411.775	328.36
411.984	406.18
412.192	377.51
412.401	328.36
412.609	309.93
412.818	424.61
413.026	336.55
413.234	471.72
413.443	434.85
413.651	471.72
413.86	549.54
414.068	500.39
414.276	529.06
414.485	608.93
414.693	512.67
414.901	604.83
415.11	580.26
415.318	623.27
415.526	602.79
415.734	701.09
415.943	731.81
416.151	635.55
416.359	758.43
416.567	754.34
416.776	776.86
416.984	752.29
417.192	907.93
417.4	912.03
417.608	828.06
417.817	879.26
418.025	993.95
418.233	985.76
418.441	944.8
418.649	981.66
418.857	1071.77
419.065	1094.3
419.273	1082.01
419.481	1157.78
419.689	1231.51
419.897	1301.14
420.105	1288.85
420.313	1313.43
420.521	1442.45
420.729	1282.71
420.937	1481.36
421.145	1479.32
421.353	1606.29
421.561	1622.67
421.769	1659.54
421.977	1800.85
422.185	1753.74
422.393	1940.11
422.601	2013.84
422.809	1901.2
423.017	1921.68
423.224	2056.84
423.432	2056.84
423.64	2198.15
423.848	2357.89
424.056	2321.03
424.263	2419.33
424.471	2484.87
424.679	2433.67
424.887	2523.78
425.094	2714.24
425.302	2812.54
425.51	2763.39
425.718	2849.41
425.925	2908.8
426.133	3103.36
426.341	3213.95
426.548	3328.63
426.756	3394.17
426.964	3484.28
427.171	3619.44
427.379	3660.4
427.586	3781.23
427.794	3814
428.001	3895.92
428.209	4153.96
428.417	4262.51
428.624	4491.88
428.832	4502.12
429.039	4289.13
429.247	4426.34
429.454	4807.27
429.662	5007.97
429.869	4760.16
430.076	5196.38
430.284	4872.8
430.491	5442.14
430.699	5544.53
430.906	5448.28
431.114	5599.83
431.321	5769.81
431.528	6099.53
431.736	6365.77
431.943	6560.33
432.15	6457.93
432.358	6478.41
432.565	6769.22
432.772	6947.39
432.979	7230.01
433.187	7520.82
433.394	7328.31
433.601	7727.67
433.808	8067.63
434.016	7914.03
434.223	8090.16
434.43	8573.48
434.637	8335.92
434.844	9036.32
435.052	9175.58
435.259	9036.32
435.466	9208.35
435.673	8981.03
435.88	9900.56
436.087	10263.05
436.294	10430.99
436.501	9636.38
436.708	10316.3
436.915	10521.1
437.122	11002.37
437.329	11178.5
437.537	11420.16
437.743	11471.36
437.95	11407.87
438.157	11854.33
438.364	12397.04
438.571	12603.88
438.778	12444.14
438.985	13502.94
439.192	13210.08
439.399	13642.2
439.606	13195.75
439.813	13793.75
440.02	14680.52
440.227	14641.61
440.433	14383.57
440.64	14889.42
440.847	14543.31
441.054	15223.23
441.261	16329.14
441.467	16042.42
441.674	16544.17
441.881	16961.96
442.088	16677.29
442.294	16632.24
442.501	17129.89
442.708	17432.99
442.914	18049.43
443.121	18784.65
443.328	18377.11
443.534	19833.21
443.741	19464.58
443.948	19014.02
444.154	20316.53
444.361	20025.72
444.568	20552.05
444.774	20300.15
444.981	20724.08
445.187	21213.54
445.394	22100.31
445.6	21848.41
445.807	23730.5
446.013	22632.79
446.22	23290.18
446.426	24101.18
446.633	24414.52
446.839	25131.31
447.046	23923.01
447.252	25469.22
447.459	25194.79
447.665	25422.12
447.871	26429.72
448.078	27431.18
448.284	26259.74
448.491	26929.42
448.697	27988.22
448.903	28575.99
449.11	28668.15
449.316	28039.42
449.522	28637.43
449.728	29335.79
449.935	29651.17
450.141	29335.79
450.347	30279.9
450.553	29358.31
450.76	29667.56
450.966	30501.08
451.172	30646.49
451.378	30812.37
451.584	30359.77
451.791	31221.97
451.997	30802.13
452.203	31451.34
452.409	31217.87
452.615	31215.82
452.821	29987.04
453.027	29886.69
453.233	31283.41
453.44	29944.03
453.646	30824.66
453.852	30644.44
454.058	31072.46
454.264	29788.39
454.47	30847.19
454.676	29776.1
454.882	30634.2
455.088	28047.61
455.294	28670.2
455.5	29317.36
455.705	29337.83
455.911	28254.46
456.117	27492.62
456.323	27341.07
456.529	25655.59
456.735	26960.14
456.941	26194.2
457.147	25792.8
457.352	25006.38
457.558	24641.84
457.764	24660.27
457.97	24105.27
458.176	23705.92
458.381	23388.49
458.587	22524.24
458.793	22481.24
458.999	21461.35
459.204	22995.28
459.41	22032.73
459.616	20697.45
459.821	20367.73
460.027	20855.15
460.233	20207.99
460.438	19259.78
460.644	19263.88
460.85	18524.56
461.055	18588.05
461.261	18289.04
461.466	17078.69
461.672	16431.54
461.878	17990.04
462.083	16535.98
462.289	16265.65
462.494	16034.23
462.7	15329.73
462.905	14979.53
463.111	15440.32
463.316	15552.96
463.522	15270.34
463.727	15219.14
463.932	15108.55
464.138	14959.05
464.343	14979.53
464.549	14631.37
464.754	15071.68
464.959	14950.85
465.165	14780.87
465.37	14348.75
465.575	13670.87
465.781	14399.95
465.986	14358.99
466.191	14039.51
466.397	13930.97
466.602	13236.7
466.807	13521.37
467.012	13545.95
467.218	13375.97
467.423	13410.78
467.628	13492.7
467.833	13887.96
468.038	13453.79
468.244	13103.59
468.449	13619.67
468.654	13138.4
468.859	13314.53
469.064	13177.31
469.269	12489.2
469.474	12517.87
469.679	12825.06
469.885	12431.85
470.09	12802.54
470.295	12540.4
470.5	12253.68
470.705	12159.47
470.91	12122.61
471.115	11948.53
471.32	12288.5
471.525	12124.66
471.73	11993.59
471.935	11694.58
472.139	11381.24
472.344	11639.29
472.549	11532.79
472.754	11364.86
472.959	10981.89
473.164	10816.01
473.369	10703.37
473.574	11108.87
473.778	11051.52
473.983	10893.83
474.188	10652.17
474.393	10385.93
474.598	10467.85
474.802	10394.12
475.007	10402.32
475.212	10203.66
475.417	9906.71
475.621	9798.17
475.826	9765.4
476.031	9681.43
476.235	9605.66
476.44	9685.53
476.645	9237.02
476.849	9546.26
477.054	9404.96
477.259	9101.86
477.463	9151.01
477.668	9157.15
477.872	9187.87
478.077	8817.19
478.282	8741.41
478.486	8798.76
478.691	8698.41
478.895	8665.64
479.1	8657.45
479.304	8536.62
479.509	8278.57
479.713	8561.19
479.918	8481.32
480.122	8018.48
480.326	8311.34
480.531	8313.39
480.735	8360.49
480.94	8159.79
481.144	8245.8
481.348	8129.07
481.553	8184.37
481.757	8051.25
481.961	8190.51
482.166	8237.61
482.37	8077.87
482.574	8090.16
482.778	8221.23
482.983	8104.49
483.187	8079.92
483.391	8217.13
483.595	8098.35
483.8	7887.41
484.004	8133.17
484.208	8022.58
484.412	7942.71
484.616	8014.38
484.821	8034.86
485.025	7901.75
485.229	7916.08
485.433	7858.74
485.637	8176.17
485.841	8028.72
486.045	7916.08
486.249	8057.39
486.453	8045.1
486.657	7893.55
486.861	8241.71
487.065	7858.74
487.269	8055.34
487.473	7787.06
487.677	7948.85
487.881	8133.17
488.085	7791.16
488.289	8133.17
488.493	7975.47
488.697	8041.01
488.901	8335.92
489.105	8108.59
489.309	8182.32
489.512	8135.21
489.716	7961.14
489.92	8114.73
490.124	7979.57
490.328	8348.2
490.531	8389.16
490.735	8094.26
490.939	8159.79
491.143	8221.23
491.346	8274.48
491.55	8434.22
491.754	8354.35
491.958	8528.42
492.161	8481.32
492.365	8495.66
492.569	8479.27
492.772	8434.22
492.976	8774.18
493.18	8854.05
493.383	8585.77
493.587	8839.72
493.79	8886.82
493.994	8686.12
494.197	8907.3
494.401	8888.87
494.605	8966.69
494.808	9069.09
495.012	9040.42
495.215	9085.47
495.419	9198.11
495.622	9425.43
495.825	9337.37
496.029	9308.7
496.232	9425.43
496.436	9513.5
496.639	9949.71
496.843	9908.76
497.046	9972.24
497.249	10154.51
497.453	10080.78
497.656	10267.15
497.859	10220.05
498.063	10359.31
498.266	10664.46
498.469	10582.54
498.673	10562.06
498.876	10844.68
499.079	10998.27
499.282	10811.91
499.485	11223.55
499.689	11309.57
499.892	11516.41
500.095	11434.49
500.298	11858.42
500.501	11624.95
500.705	11880.95
500.908	12001.78
501.111	12251.63
501.314	12198.38
501.517	12329.45
501.72	12409.33
501.923	12571.11
502.126	12726.76
502.329	13101.54
502.532	12820.97
502.735	13138.4
502.938	13533.66
503.141	13502.94
503.344	13709.79
503.547	13806.04
503.75	13785.56
503.953	14205.39
504.156	14123.48
504.359	14592.46
504.562	14432.72
504.765	14657.99
504.968	14737.87
505.17	15165.89
505.373	15018.44
505.576	15415.74
505.779	15724.99
505.982	15657.4
506.185	16081.33
506.387	16056.76
506.59	16210.36
506.793	16368.05
506.996	16374.19
507.198	16890.28
507.401	16789.93
507.604	16943.53
507.807	17361.31
508.009	17512.86
508.212	17490.34
508.415	17631.65
508.617	17959.32
508.82	18018.71
509.022	18149.78
509.225	18416.02
509.428	18567.57
509.63	18854.28
509.833	19016.07
510.035	19427.71
510.238	19310.98
510.44	19554.69
510.643	19927.42
510.845	20191.61
511.048	20126.07
511.25	20193.65
511.453	20478.32
511.655	21080.42
511.858	21031.27
512.06	21139.82
512.262	21418.34
512.465	21283.17
512.667	21616.99
512.87	22241.62
513.072	22131.03
513.274	22360.41
513.477	22575.44
513.679	22892.88
513.881	23021.9
514.084	23146.83
514.286	23587.14
514.488	23570.75
514.69	24144.19
514.893	24521.01
515.095	24176.95
515.297	24750.38
515.499	24820.02
515.701	25176.36
515.904	25350.44
516.106	25598.24
516.308	25514.28
516.51	25975.07
516.712	26181.92
516.914	26269.98
517.116	26863.89
517.318	27115.79
517.52	26943.76
517.722	27261.19
517.925	27728.13
518.127	28041.47
518.329	28152.06
518.531	28117.25
518.733	28795.12
518.935	29118.7
519.136	29042.93
519.338	29241.58
519.54	29604.07
519.742	29520.1
519.944	30077.15
520.146	30243.04
520.348	30599.38
520.55	31066.32
520.752	30898.39
520.954	31453.39
521.155	30935.25
521.357	31949
521.559	31953.09
521.761	32411.84
521.963	32536.76
522.164	32786.61
522.366	32962.74
522.568	32708.79
522.77	33413.29
522.971	33564.84
523.173	33743.02
523.375	33949.86
523.576	33917.09
523.778	34302.11
523.98	34717.85
524.181	34601.11
524.383	34842.78
524.584	35141.78
524.786	35360.91
524.988	35049.62
525.189	35455.12
525.391	35788.94
525.592	35963.01
525.794	35924.1
525.995	36292.74
526.197	36352.13
526.398	36612.22
526.6	36614.27
526.801	36825.21
527.003	37468.27
527.204	37197.94
527.406	37501.04
527.607	37544.05
527.808	37853.29
528.01	36812.92
528.211	37806.19
528.412	38041.7
528.614	38068.33
528.815	37992.55
529.016	38803.55
529.218	38391.9
529.419	38463.58
529.62	38801.5
529.822	38565.98
530.023	38869.08
530.224	38944.86
530.425	38631.52
530.626	38877.27
530.828	38647.9
531.029	39516.24
531.23	39127.13
531.431	39321.68
531.632	39506
531.833	39411.79
532.035	39180.37
532.236	39311.44
532.437	40024.14
532.638	39448.66
532.839	39911.5
533.04	39866.44
533.241	39331.92
533.442	40138.82
533.643	39786.57
533.844	39989.32
534.045	40122.44
534.246	39700.56
534.447	39938.12
534.648	40204.36
534.849	39897.16
535.05	40067.14
535.251	39843.91
535.451	40097.86
535.652	40233.03
535.853	40159.3
536.054	40331.33
536.255	40644.67
536.456	39907.4
536.657	40618.05
536.857	40374.34
537.058	40319.04
537.259	40175.69
537.46	40243.27
537.66	40384.58
537.861	39827.53
538.062	39960.65
538.263	40777.79
538.463	40126.53
538.664	40386.63
538.865	40421.44
539.065	40638.53
539.266	39864.39
539.466	40536.13
539.667	39637.07
539.868	40634.43
540.068	40095.81
540.269	39987.27
540.469	40378.43
540.67	39979.08
540.87	40431.68
541.071	40677.44
541.271	40130.63
541.472	40169.54
541.672	40114.25
541.873	40151.11
542.073	39891.02
542.274	40534.08
542.474	40177.73
542.675	40087.62
542.875	40360
543.075	39970.89
543.276	39622.73
543.476	40173.64
543.676	39860.3
543.877	40122.44
544.077	40654.91
544.277	40046.66
544.478	40028.23
544.678	40509.5
544.878	39870.54
545.078	40364.1
545.279	40114.25
545.479	39848.01
545.679	40192.07
545.879	40034.38
546.079	40065.1
546.28	40022.09
546.48	40015.94
546.68	40245.32
546.88	40329.28
547.08	40149.06
547.28	40026.18
547.48	39622.73
547.68	40267.84
547.88	39886.92
548.081	40353.86
548.281	39888.97
548.481	39481.42
548.681	40263.75
548.881	40310.85
549.081	40001.61
549.28	39968.84
549.48	40241.22
549.68	40237.12
549.88	40501.31
550.08	39620.69
550.28	40177.73
550.48	39929.93
550.68	40439.87
550.88	40171.59
551.08	39868.49
551.279	40011.85
551.479	39589.97
551.679	39923.79
551.879	39745.61
552.079	39972.94
552.278	39792.72
552.478	39848.01
552.678	39837.77
552.878	40155.21
553.077	39878.73
553.277	39469.14
553.477	40216.64
553.676	39757.9
553.876	39628.88
554.076	39598.16
554.275	39751.76
554.475	39209.04
554.674	39774.28
554.874	39432.27
555.074	39346.26
555.273	39632.97
555.473	39653.45
555.672	39358.55
555.872	38975.58
556.071	39460.94
556.271	39405.65
556.47	39065.69
556.67	39213.14
556.869	39088.21
557.068	39362.64
557.268	39073.88
557.467	39094.36
557.667	38996.06
557.866	39030.87
558.065	39190.61
558.265	39016.54
558.464	38764.64
558.663	38770.78
558.863	38361.19
559.062	39051.35
559.261	38531.17
559.461	39143.51
559.66	37974.12
559.859	38525.02
560.058	38266.98
560.258	38608.99
560.457	37910.63
560.656	38492.26
560.855	38008.93
561.054	38099.05
561.253	37582.96
561.453	37890.15
561.652	37857.38
561.851	38303.84
562.05	38051.94
562.249	37693.55
562.448	37939.3
562.647	37671.02
562.846	37757.03
563.045	37542
563.244	37539.95
563.443	37707.88
563.642	37040.25
563.841	37427.31
564.04	37202.03
564.239	37519.47
564.438	37288.05
564.637	37218.42
564.836	37181.56
565.035	36665.47
565.234	36823.16
565.432	36681.85
565.631	36616.32
565.83	37177.46
566.029	36657.28
566.228	36362.37
566.427	36176
566.625	36302.98
566.824	35844.23
567.023	36280.45
567.222	35598.48
567.42	36540.54
567.619	35967.11
567.818	35850.38
568.016	35825.8
568.215	35655.82
568.414	35618.96
568.612	36020.36
568.811	35455.12
569.01	35524.75
569.208	35090.58
569.407	35262.61
569.605	35027.09
569.804	35424.4
570.002	34818.2
570.201	35270.8
570.4	34517.15
570.598	34431.13
570.797	34461.85
570.995	34408.61
571.193	34289.82
571.392	34203.81
571.59	34056.35
571.789	34171.04
571.987	33994.92
572.186	34115.75
572.384	34027.68
572.582	34042.02
572.781	33937.57
572.979	33716.39
573.177	33634.47
573.376	34046.12
573.574	33310.89
573.772	33609.9
573.971	33216.69
574.169	33065.14
574.367	33026.23
574.565	33065.14
574.763	33081.52
574.962	33073.33
575.16	32377.02
575.358	33071.28
575.556	32395.45
575.754	33140.91
575.952	32501.95
576.151	32735.42
576.349	31946.95
576.547	32151.74
576.745	32254.14
576.943	32075.97
577.141	31965.38
577.339	32524.47
577.537	32078.02
577.735	31875.27
577.933	31379.66
578.131	31439.05
578.329	31205.58
578.527	31344.84
578.725	31480.01
578.923	31508.68
579.121	31293.65
579.319	31299.79
579.516	31152.34
579.714	31287.5
579.912	31033.55
580.11	31004.88
580.308	30892.24
580.506	30832.85
580.704	30388.44
580.901	30660.82
581.099	30755.03
581.297	30447.83
581.495	30218.46
581.692	30335.2
581.89	29765.86
582.088	30050.53
582.285	30142.69
582.483	30183.65
582.681	30054.62
582.878	30023.9
583.076	29337.83
583.274	29987.04
583.471	29294.83
583.669	29491.43
583.866	29481.19
584.064	29503.72
584.262	29120.75
584.459	29739.24
584.657	29251.82
584.854	29458.67
585.052	28616.95
585.249	28946.67
585.447	29167.85
585.644	28457.21
585.841	28520.7
586.039	28803.32
586.236	28649.72
586.434	28403.96
586.631	28240.12
586.828	28401.91
587.026	28449.02
587.223	28416.25
587.42	28283.13
587.618	27726.08
587.815	27627.78
588.012	27685.12
588.21	27683.08
588.407	27891.97
588.604	27816.19
588.801	27285.77
588.999	27701.51
589.196	27433.22
589.393	27236.62
589.59	27287.82
589.787	27398.41
589.984	27193.61
590.182	26581.27
590.379	26980.62
590.576	26847.5
590.773	26927.38
590.97	26517.78
591.167	26962.19
591.364	26593.56
591.561	26648.85
591.758	26417.43
591.955	26294.55
592.152	26530.07
592.349	26124.57
592.546	26366.23
592.743	26183.96
592.94	25825.57
593.137	26083.61
593.334	26282.27
593.531	25545
593.727	25835.81
593.924	25762.08
594.121	25540.9
594.318	25454.89
594.515	25137.45
594.712	25768.23
594.908	25133.36
595.105	25286.95
595.302	24922.41
595.499	25301.29
595.696	25229.61
595.892	24619.31
596.089	24906.03
596.286	25200.94
596.482	24760.62
596.679	24660.27
596.876	24951.09
597.072	24494.39
597.269	24783.15
597.466	24463.67
597.662	24324.41
597.859	24353.08
598.055	24645.94
598.252	24039.74
598.448	24138.04
598.645	24000.83
598.841	23834.94
599.038	23812.42
599.234	24052.03
599.431	23736.64
599.627	23869.76
599.824	23820.61
600.02	23378.25
600.217	23564.61
600.413	23515.46
600.609	23341.38
600.806	23333.19
601.002	23564.61
601.198	23390.53
601.395	23316.81
601.591	22950.22
601.787	23247.18
601.984	22993.23
602.18	22882.64
602.376	22792.53
602.572	22882.64
602.769	22917.45
602.965	22432.08
603.161	22464.85
603.357	22573.39
603.553	22323.54
603.75	22425.94
603.946	22292.82
604.142	22198.62
604.338	21905.76
604.534	22061.4
604.73	21795.17
604.926	22159.7
605.122	21862.75
605.318	21920.09
605.514	21756.25
605.71	21567.84
605.906	21498.21
606.102	21838.17
606.298	21516.64
606.494	21518.69
606.69	21703.01
606.886	21408.1
607.082	20998.51
607.278	21510.5
607.474	21018.99
607.67	21225.83
607.866	20865.39
608.062	21156.2
608.257	20736.37
608.453	21037.42
608.649	21068.14
608.845	20920.68
609.041	20883.82
609.236	21033.32
609.432	20738.41
609.628	20865.39
609.824	20447.6
610.019	20558.19
610.215	20568.43
610.411	20654.45
610.606	20486.51
610.802	20584.82
610.998	20353.4
611.193	20494.71
611.389	20261.24
611.584	20220.28
611.78	20599.15
611.976	20248.95
612.171	20236.66
612.367	20167.03
612.562	20300.15
612.758	19925.37
612.953	20009.34
613.149	20253.05
613.344	19798.4
613.539	20058.49
613.735	19956.09
613.93	19728.77
614.126	19757.44
614.321	19917.18
614.517	19804.54
614.712	19593.6
614.907	19519.87
615.103	19765.63
615.298	19706.24
615.493	19726.72
615.688	19493.25
615.884	19822.97
616.079	19308.93
616.274	19577.22
616.47	19507.58
616.665	19298.69
616.86	19337.6
617.055	19390.85
617.25	19134.85
617.445	19188.1
617.641	18858.38
617.836	19184.01
618.031	18858.38
618.226	18964.87
618.421	18815.37
618.616	19005.83
618.811	18512.27
619.006	18839.95
619.201	18514.32
619.396	18694.54
619.591	18379.15
619.786	18514.32
619.981	18178.45
620.176	18319.76
620.371	18248.08
620.566	18237.84
620.761	18092.44
620.956	18092.44
621.151	17805.72
621.346	18022.81
621.541	17703.32
621.735	18098.58
621.93	17709.47
622.125	17820.06
622.32	16972.2
622.515	17426.85
622.709	17473.95
622.904	17250.72
623.099	17230.24
623.294	17131.94
623.488	17007.02
623.683	17138.09
623.878	16773.55
624.072	16861.61
624.267	16877.99
624.462	16447.92
624.656	16474.54
624.851	16482.74
625.046	16527.79
625.24	16441.78
625.435	16030.13
625.629	16056.76
625.824	16044.47
626.018	16054.71
626.213	15735.23
626.407	15866.3
626.602	15700.41
626.796	15675.84
626.991	15538.62
627.185	15370.69
627.38	15239.62
627.574	15071.68
627.768	15323.58
627.963	15212.99
628.157	14975.43
628.352	15071.68
628.546	14803.4
628.74	14895.56
628.935	14848.46
629.129	14844.36
629.323	14551.5
629.517	14307.79
629.712	14494.16
629.906	14348.75
630.1	14367.18
630.294	14141.91
630.489	14111.19
630.683	14205.39
630.877	14170.58
631.071	14016.98
631.265	13810.14
631.459	13838.81
631.653	13732.31
631.848	13779.42
632.042	13748.7
632.236	13623.77
632.43	13472.22
632.624	13494.75
632.818	13343.2
633.012	13267.42
633.206	13337.06
633.4	13048.29
633.594	13165.03
633.788	13140.45
633.982	13119.97
634.176	13109.73
634.369	12751.34
634.563	12814.82
634.757	12749.29
634.951	12853.73
635.145	12489.2
635.339	12413.42
635.533	12386.8
635.726	12511.72
635.92	12231.15
636.114	12392.94
636.308	12171.76
636.501	12141.04
636.695	11930.1
636.889	11811.32
637.083	11844.09
637.276	11926
637.47	11891.19
637.664	11928.05
637.857	11729.4
638.051	11817.46
638.244	11452.92
638.438	11473.4
638.632	11545.08
638.825	11346.43
639.019	11338.24
639.212	11145.73
639.406	11354.62
639.599	11176.45
639.793	11231.74
639.986	11063.81
640.18	10916.36
640.373	10932.74
640.567	10850.82
640.76	10965.51
640.954	10756.61
641.147	10676.74
641.34	10551.82
641.534	10631.69
641.727	10498.57
641.92	10607.11
642.114	10424.84
642.307	10390.03
642.5	10441.23
642.694	10144.27
642.887	10324.49
643.08	10326.54
643.273	10086.93
643.467	10140.18
643.66	9949.71
643.853	9976.34
644.046	9798.17
644.239	9861.65
644.432	9622.04
644.626	9660.95
644.819	9648.66
645.012	9740.82
645.205	9589.27
645.398	9589.27
645.591	9445.91
645.784	9423.39
645.977	9347.61
646.17	9241.12
646.363	9368.09
646.556	9042.46
646.749	9380.38
646.942	9134.62
647.135	9259.55
647.328	9214.49
647.521	9130.53
647.714	8940.07
647.907	8946.21
648.099	8909.35
648.292	8901.15
648.485	8790.56
648.678	8770.08
648.871	8639.01
649.064	8794.66
649.256	8677.93
649.449	8600.1
649.642	8423.98
649.835	8397.35
650.027	8317.48
650.22	8319.53
650.413	8333.87
650.605	8327.72
650.798	8299.05
650.991	8172.08
651.183	8153.65
651.376	8079.92
651.568	8135.21
651.761	8028.72
651.954	8016.43
652.146	8063.54
652.339	7911.99
652.531	7868.98
652.724	7891.51
652.916	7873.07
653.109	7735.86
653.301	7686.71
653.494	7758.39
653.686	7637.56
653.879	7768.63
654.071	7508.54
654.263	7584.31
654.456	7610.93
654.648	7612.98
654.84	7305.79
655.033	7408.19
655.225	7230.01
655.417	7365.18
655.61	7361.08
655.802	7402.04
655.994	7309.88
656.186	7275.07
656.379	7184.96
656.571	7041.6
656.763	7037.5
656.955	7123.52
657.148	7068.22
657.34	7037.5
657.532	6904.39
657.724	6812.23
657.916	6994.5
658.108	6855.23
658.3	6849.09
658.492	6832.71
658.684	6836.8
658.876	6681.16
659.068	6646.34
659.26	6648.39
659.452	6681.16
659.644	6672.96
659.836	6668.87
660.028	6419.02
660.22	6359.63
660.412	6462.02
660.604	6378.06
660.796	6419.02
660.988	6459.98
661.18	6380.11
661.372	6255.18
661.563	6527.56
661.755	6169.16
661.947	6144.59
662.139	6296.14
662.331	6036.05
662.522	6085.2
662.714	6034
662.906	5902.93
663.097	6042.19
663.289	6058.57
663.481	5925.46
663.673	5935.7
663.864	6011.47
664.056	5722.71
664.247	5728.85
664.439	5663.32
664.631	5917.26
664.822	5739.09
665.014	5861.97
665.205	5743.19
665.397	5679.7
665.588	5759.57
665.78	5616.21
665.971	5538.39
666.163	5591.64
666.354	5548.63
666.546	5460.57
666.737	5472.86
666.929	5458.52
667.12	5550.68
667.311	5315.16
667.503	5276.25
667.694	5560.92
667.885	5278.3
668.077	5276.25
668.268	5188.19
668.459	5358.17
668.651	5073.5
668.842	5184.09
669.033	5282.39
669.224	5188.19
669.416	5188.19
669.607	5018.21
669.798	5053.02
669.989	5048.93
670.18	4948.58
670.371	4993.63
670.563	4885.09
670.754	5010.01
670.945	4909.66
671.136	4878.94
671.327	4821.6
671.518	4827.74
671.709	4823.65
671.9	4883.04
672.091	4711.01
672.282	4825.7
672.473	4799.07
672.664	4684.39
672.855	4719.2
673.046	4745.83
673.237	4645.48
673.428	4700.77
673.619	4684.39
673.809	4563.56
674	4727.39
674.191	4534.89
674.382	4561.51
674.573	4782.69
674.764	4690.53
674.954	4618.85
675.145	4524.65
675.336	4657.76
675.527	4608.61
675.717	4469.35
675.908	4373.1
676.099	4504.17
676.289	4450.92
676.48	4479.59
676.671	4444.77
676.861	4383.34
677.052	4250.22
677.243	4340.33
677.433	4381.29
677.624	4332.14
677.814	4424.3
678.005	4379.24
678.195	4317.8
678.386	4315.75
678.576	4315.75
678.767	4188.78
678.957	4182.63
679.148	4170.35
679.338	4121.2
679.529	4199.02
679.719	4180.59
679.909	4113
680.1	4285.03
680.29	4133.48
680.481	4176.49
680.671	4072.04
680.861	4207.21
681.052	4110.96
681.242	4049.52
681.432	4078.19
681.622	4049.52
681.813	3981.93
682.003	3932.78
682.193	3910.25
682.383	4053.61
682.573	4127.34
682.764	4070
682.954	4031.09
683.144	3957.36
683.334	3920.49
683.524	3955.31
683.714	3947.12
683.904	4020.85
684.094	4033.13
684.284	3986.03
684.474	4002.41
684.664	3930.73
684.854	3965.55
685.044	3777.14
685.234	3801.71
685.424	3846.77
685.614	3848.82
685.804	3816.05
685.994	3885.68
686.184	3850.86
686.374	3762.8
686.564	3668.59
686.753	3830.38
686.943	3629.68
687.133	3867.25
687.323	3697.27
687.513	3762.8
687.702	3758.71
687.892	3596.92
688.082	3670.64
688.272	3492.47
688.461	3660.4
688.651	3678.83
688.841	3656.31
689.03	3570.29
689.22	3560.05
689.41	3545.72
689.599	3553.91
689.789	3539.57
689.979	3418.74
690.168	3541.62
690.358	3381.88
690.547	3463.8
690.737	3443.32
690.926	3408.5
691.116	3377.78
691.305	3580.53
691.495	3457.65
691.684	3340.92
691.874	3381.88
692.063	3347.06
692.252	3381.88
692.442	3246.71
692.631	3287.67
692.82	3345.02
693.01	3404.41
693.199	3269.24
693.388	3209.85
693.578	3238.52
693.767	3347.06
693.956	3271.29
694.146	3236.47
694.335	3285.62
694.524	3226.23
694.713	3254.9
694.902	3406.45
695.092	3134.07
695.281	3097.21
695.47	3185.27
695.659	3254.9
695.848	3158.65
696.037	3123.83
696.226	3193.47
696.415	3175.03
696.604	3164.79
696.793	3172.99
696.982	3215.99
697.171	3136.12
697.36	3121.79
697.549	3086.97
697.738	3091.07
697.927	3144.31
698.116	3076.73
698.305	3043.96
698.494	3084.92
698.683	3129.98
698.872	3033.72
699.061	2960
699.25	3177.08
699.438	3068.54
699.627	3154.55
699.816	3082.88
700.005	2982.53
700.193	3117.69
700.382	3015.29
700.571	3009.15
700.76	3082.88
700.948	3023.48
701.137	2962.05
701.326	3050.11
701.514	2949.76
701.703	3043.96
701.892	2945.66
702.08	3134.07
702.269	2896.51
702.457	2980.48
702.646	3052.16
702.834	2921.09
703.023	2937.47
703.212	3013.24
703.4	3027.58
703.589	2947.71
703.777	3064.44
703.965	2996.86
704.154	3052.16
704.342	2972.29
704.531	3017.34
704.719	2914.94
704.907	2992.76
705.096	2947.71
705.284	2861.69
705.472	3113.6
705.661	2894.46
705.849	3048.06
706.037	3007.1
706.226	3031.68
706.414	2945.66
706.602	2892.41
706.79	2992.76
706.979	2896.51
707.167	2986.62
707.355	2972.29
707.543	2884.22
707.731	2988.67
707.919	2990.72
708.107	2900.61
708.296	2906.75
708.484	2916.99
708.672	2886.27
708.86	2861.69
709.048	3003
709.236	2896.51
709.424	2775.68
709.612	2837.12
709.8	2841.22
709.988	2845.31
710.176	2970.24
710.364	2873.98
710.551	2871.93
710.739	2867.84
710.927	2794.11
711.115	2970.24
711.303	2941.57
711.491	2970.24
711.679	3007.1
711.866	2779.78
712.054	2798.21
712.242	2966.14
712.43	2931.33
712.617	2775.68
712.805	2804.35
712.993	2957.95
713.181	2869.89
713.368	2980.48
713.556	2880.13
713.744	2753.15
713.931	2935.42
714.119	2755.2
714.306	2814.59
714.494	2798.21
714.682	2747.01
714.869	2855.55
715.057	2828.93
715.244	2759.3
715.432	2871.93
715.619	2833.02
715.807	2730.62
715.994	2923.13
716.182	2777.73
716.369	2835.07
716.556	2771.58
716.744	2587.27
716.931	2736.77
717.119	2744.96
717.306	2732.67
717.493	2771.58
717.681	2863.74
717.868	2734.72
718.055	2794.11
718.242	2744.96
718.43	2736.77
718.617	2769.54
718.804	2818.69
718.991	2767.49
719.179	2867.84
719.366	2734.72
719.553	2714.24
719.74	2689.67
719.927	2818.69
720.114	2595.46
720.301	2681.47
720.488	2808.45
720.676	2656.9
720.863	2660.99
721.05	2726.53
721.237	2646.66
721.424	2669.19
721.611	2749.06
721.798	2722.43
721.985	2718.34
722.172	2671.23
722.358	2712.19
722.545	2767.49
722.732	2679.43
722.919	2773.63
723.106	2714.24
723.293	2726.53
723.48	2691.71
723.667	2640.51
723.853	2716.29
724.04	2714.24
724.227	2675.33
724.414	2638.47
724.6	2628.23
724.787	2730.62
724.974	2740.86
725.161	2759.3
725.347	2615.94
725.534	2628.23
725.72	2597.51
725.907	2800.26
726.094	2652.8
726.28	2626.18
726.467	2660.99
726.653	2699.91
726.84	2630.27
727.027	2693.76
727.213	2517.64
727.4	2552.45
727.586	2640.51
727.773	2658.95
727.959	2595.46
728.145	2691.71
728.332	2517.64
728.518	2609.79
728.705	2564.74
728.891	2677.38
729.077	2587.27
729.264	2744.96
729.45	2495.11
729.636	2683.52
729.823	2611.84
730.009	2540.16
730.195	2607.75
730.382	2583.17
730.568	2542.21
730.754	2501.25
730.94	2577.03
731.126	2544.26
731.313	2636.42
731.499	2540.16
731.685	2622.08
731.871	2527.88
732.057	2603.65
732.243	2605.7
732.429	2482.82
732.615	2503.3
732.801	2552.45
732.987	2642.56
733.173	2470.53
733.359	2511.49
733.545	2695.81
733.731	2499.2
733.917	2488.96
734.103	2534.02
734.289	2638.47
734.475	2581.12
734.661	2622.08
734.847	2615.94
735.033	2519.68
735.219	2554.5
735.404	2568.84
735.59	2536.07
735.776	2529.92
735.962	2497.16
736.148	2519.68
736.333	2400.9
736.519	2513.54
736.705	2499.2
736.89	2503.3
737.076	2572.93
737.262	2400.9
737.447	2515.59
737.633	2380.42
737.819	2597.51
738.004	2433.67
738.19	2441.86
738.375	2493.06
738.561	2484.87
738.747	2321.03
738.932	2423.43
739.118	2386.57
739.303	2515.59
739.489	2503.3
739.674	2511.49
739.859	2458.25
740.045	2368.13
740.23	2435.72
740.416	2400.9
740.601	2433.67
740.786	2396.81
740.972	2284.17
741.157	2456.2
741.342	2353.8
741.528	2331.27
741.713	2278.02
741.898	2409.09
742.084	2273.93
742.269	2433.67
742.454	2206.34
742.639	2335.37
742.824	2224.78
743.01	2255.5
743.195	2267.78
743.38	2198.15
743.565	2321.03
743.75	2275.98
743.935	2280.07
744.12	2237.06
744.305	2214.54
744.49	2232.97
744.675	2247.3
744.86	2226.82
745.045	2095.75
745.23	2058.89
745.415	2165.39
745.6	2126.47
745.785	2151.05
745.97	2140.81
746.155	2138.76
746.34	2081.42
746.525	2110.09
746.71	2110.09
746.895	2050.7
747.079	2108.04
747.264	2005.64
747.449	2083.47
747.634	1899.15
747.819	1962.64
748.003	2030.22
748.188	2003.6
748.373	1890.96
748.557	1923.73
748.742	1925.77
748.927	1931.92
749.111	1858.19
749.296	1835.66
749.481	1964.68
749.665	1917.58
749.85	1813.13
750.034	1835.66
750.219	1868.43
750.404	1815.18
750.588	1872.53
750.773	1813.13
750.957	1794.7
751.141	1786.51
751.326	1725.07
751.51	1688.21
751.695	1725.07
751.879	1694.35
752.064	1796.75
752.248	1770.13
752.432	1735.31
752.617	1673.87
752.801	1641.11
752.985	1772.18
753.17	1661.59
753.354	1618.58
753.538	1610.39
753.722	1573.52
753.907	1657.49
754.091	1653.39
754.275	1598.1
754.459	1600.15
754.643	1614.48
754.828	1532.56
755.012	1575.57
755.196	1532.56
755.38	1485.46
755.564	1530.52
755.748	1493.65
755.932	1540.76
756.116	1503.89
756.3	1471.12
756.484	1536.66
756.668	1583.76
756.852	1362.58
757.036	1501.84
757.22	1372.82
757.404	1438.36
757.588	1387.16
757.772	1516.18
757.956	1333.91
758.14	1501.84
758.323	1419.92
758.507	1344.15
758.691	1346.2
758.875	1370.77
759.059	1397.4
759.242	1329.81
759.426	1239.7
759.61	1432.21
759.794	1282.71
759.977	1350.29
760.161	1346.2
760.345	1362.58
760.528	1399.45
760.712	1274.52
760.895	1268.38
761.079	1335.96
761.263	1235.61
761.446	1272.47
761.63	1196.7
761.813	1176.22
761.997	1202.84
762.18	1288.85
762.364	1206.94
762.547	1235.61
762.731	1172.12
762.914	1219.22
763.098	1131.16
763.281	1239.7
763.464	1145.5
763.648	1073.82
763.831	1196.7
764.015	1170.07
764.198	1180.31
764.381	1190.55
764.564	1198.74
764.748	1098.39
764.931	1157.78
765.114	1182.36
765.297	1151.64
765.481	1077.91
765.664	1149.59
765.847	1114.78
766.03	1116.83
766.213	1141.4
766.397	1145.5
766.58	1077.91
766.763	1049.24
766.946	1063.58
767.129	1051.29
767.312	1075.87
767.495	1125.02
767.678	1041.05
767.861	1075.87
768.044	1045.15
768.227	1041.05
768.41	1071.77
768.593	991.9
768.776	1084.06
768.959	930.46
769.142	1075.87
769.324	965.28
769.507	1010.33
769.69	1010.33
769.873	1051.29
770.056	1075.87
770.239	1032.86
770.421	981.66
770.604	973.47
770.787	985.76
770.97	979.61
771.152	998.04
771.335	1049.24
771.518	785.05
771.7	973.47
771.883	907.93
772.066	957.08
772.248	1008.28
772.431	873.12
772.613	977.56
772.796	871.07
772.978	971.42
773.161	914.08
773.343	887.45
773.526	856.73
773.708	852.64
773.891	805.53
774.073	854.69
774.256	819.87
774.438	928.41
774.621	873.12
774.803	881.31
774.985	789.15
775.168	774.81
775.35	856.73
775.532	844.45
775.715	815.77
775.897	758.43
776.079	731.81
776.261	834.21
776.444	768.67
776.626	750.24
776.808	799.39
776.99	797.34
777.173	791.2
777.355	740
777.537	752.29
777.719	760.48
777.901	789.15
778.083	684.7
778.265	742.05
778.447	672.42
778.629	727.71
778.811	733.86
778.993	723.62
779.175	717.47
779.357	656.03
779.539	735.9
779.721	735.9
779.903	688.8
780.085	688.8
780.267	744.1
780.449	639.65
780.631	656.03
780.812	670.37
780.994	619.17
781.176	578.21
781.358	672.42
781.54	651.94
781.721	649.89
781.903	717.47
782.085	623.27
782.267	588.45
782.448	527.01
782.63	567.97
782.812	600.74
782.993	510.63
783.175	594.59
783.357	508.58
783.538	619.17
783.72	522.91
783.901	537.25
784.083	631.46
784.264	561.83
784.446	510.63
784.627	578.21
784.809	570.02
784.99	537.25
785.172	494.24
785.353	559.78
785.535	549.54
785.716	590.5
785.897	500.39
786.079	473.76
786.26	455.33
786.441	518.82
786.623	477.86
786.804	520.87
786.985	518.82
787.167	488.1
787.348	516.77
787.529	473.76
787.71	500.39
787.891	467.62
788.073	492.2
788.254	416.42
788.435	557.73
788.616	504.48
788.797	389.8
788.978	492.2
789.159	541.35
789.34	451.24
789.522	451.24
789.703	492.2
789.884	467.62
790.065	393.89
790.246	471.72
790.427	455.33
790.607	369.32
790.788	461.48
790.969	400.04
791.15	359.08
791.331	402.08
791.512	365.22
791.693	430.76
791.874	473.76
792.054	412.32
792.235	402.08
792.416	377.51
792.597	445.09
792.778	410.28
792.958	359.08
793.139	307.88
793.32	322.21
793.5	389.8
793.681	348.84
793.862	391.84
794.042	375.46
794.223	338.6
794.404	420.52
794.584	328.36
794.765	402.08
794.945	363.17
795.126	275.11
795.306	305.83
795.487	320.17
795.667	305.83
795.848	301.73
796.028	387.75
796.209	375.46
796.389	369.32
796.57	246.44
796.75	258.73
796.93	295.59
797.111	248.49
797.291	359.08
797.471	305.83
797.652	238.25
797.832	262.82
798.012	258.73
798.192	287.4
798.373	213.67
798.553	297.64
798.733	424.61
798.913	285.35
799.093	213.67
799.274	281.25
799.454	299.69
799.634	332.45
799.814	328.36
799.994	209.58
800.174	383.65
800.354	357.03
800.534	225.96
800.714	332.45
800.894	373.41
801.074	185
801.254	236.2
801.434	252.58
801.614	307.88
801.794	236.2
801.974	635.55
802.154	213.67
802.334	275.11
802.514	162.47
802.693	205.48
802.873	295.59
803.053	268.97
803.233	291.49
803.413	268.97
803.592	266.92
803.772	240.29
803.952	258.73
804.131	238.25
804.311	223.91
804.491	293.54
804.67	225.96
804.85	211.62
805.03	219.82
805.209	254.63
805.389	268.97
805.568	258.73
805.748	164.52
805.928	242.34
806.107	262.82
806.287	258.73
806.466	311.97
806.646	244.39
806.825	176.81
807.004	242.34
807.184	287.4
807.363	219.82
807.543	197.29
807.722	228.01
807.901	275.11
808.081	242.34
808.26	195.24
808.439	230.06
808.619	199.34
808.798	201.38
808.977	232.1
809.156	185
809.336	230.06
809.515	217.77
809.694	260.77
809.873	168.62
810.052	209.58
810.231	164.52
810.411	219.82
810.59	197.29
810.769	164.52
810.948	180.9
811.127	174.76
811.306	174.76
811.485	254.63
811.664	191.14
811.843	248.49
812.022	283.3
812.201	234.15
812.38	201.38
812.559	271.01
812.737	148.14
812.916	156.33
813.095	178.86
813.274	164.52
813.453	195.24
813.632	195.24
813.811	187.05
813.989	154.28
814.168	207.53
814.347	172.71
814.526	230.06
814.704	146.09
814.883	178.86
815.062	205.48
815.24	127.66
815.419	135.85
815.598	160.42
815.776	144.04
815.955	133.8
816.133	82.6
816.312	144.04
816.49	189.1
816.669	176.81
816.847	90.79
817.026	148.14
817.204	121.51
817.383	256.68
817.561	172.71
817.74	133.8
817.918	80.55
818.097	197.29
818.275	113.32
818.453	160.42
818.632	103.08
818.81	127.66
818.988	105.13
819.167	207.53
819.345	123.56
819.523	174.76
819.701	125.61
819.879	207.53
820.058	156.33
820.236	182.95
820.414	45.74
820.592	185
820.77	205.48
820.948	96.94
821.127	201.38
821.305	189.1
821.483	141.99
821.661	178.86
821.839	70.31
822.017	137.9
822.195	193.19
822.373	109.22
822.551	176.81
822.729	164.52
822.907	96.94
823.085	160.42
823.262	144.04
823.44	105.13
823.618	148.14
823.796	76.46
823.974	119.46
824.152	23.21
824.329	160.42
824.507	86.7
824.685	80.55
824.863	119.46
825.04	176.81
825.218	139.94
825.396	150.18
825.574	164.52
825.751	92.84
825.929	109.22
826.107	94.89
826.284	109.22
826.462	111.27
826.639	107.18
826.817	78.51
826.994	55.98
827.172	185
827.349	137.9
827.527	70.31
827.704	127.66
827.882	121.51
828.059	117.42
828.237	111.27
828.414	107.18
828.591	72.36
828.769	76.46
828.946	76.46
829.124	174.76
829.301	72.36
829.478	111.27
829.655	96.94
829.833	92.84
830.01	119.46
830.187	109.22
830.364	103.08
830.542	123.56
830.719	162.47
830.896	84.65
831.073	168.62
831.25	62.12
831.427	66.22
831.604	113.32
831.782	62.12
831.959	123.56
832.136	82.6
832.313	101.03
832.49	158.38
832.667	123.56
832.844	107.18
833.021	141.99
833.198	55.98
833.374	37.55
833.551	141.99
833.728	41.64
833.905	39.59
834.082	37.55
834.259	152.23
834.436	137.9
834.612	78.51
834.789	123.56
834.966	60.07
835.143	78.51
835.319	88.75
835.496	125.61
835.673	164.52
835.85	105.13
836.026	117.42
836.203	66.22
836.38	29.35
836.556	74.41
836.733	58.03
836.909	90.79
837.086	141.99
837.262	19.11
837.439	70.31
837.616	68.27
837.792	121.51
837.968	90.79
838.145	29.35
838.321	125.61
838.498	125.61
838.674	115.37
838.851	62.12
839.027	84.65
839.203	96.94
839.38	105.13
839.556	12.97
839.732	66.22
839.909	92.84
840.085	55.98
840.261	96.94
840.437	103.08
840.614	111.27
840.79	94.89
840.966	60.07
841.142	60.07
841.318	68.27
841.494	62.12
841.671	156.33
841.847	94.89
842.023	103.08
842.199	53.93
842.375	70.31
842.551	55.98
842.727	2.73
842.903	96.94
843.079	27.31
843.255	141.99
843.431	109.22
843.607	121.51
843.783	37.55
843.959	35.5
844.134	62.12
844.31	125.61
844.486	15.02
844.662	35.5
844.838	60.07
845.013	64.17
845.189	35.5
845.365	49.83
845.541	43.69
845.716	15.02
845.892	92.84
846.068	66.22
846.244	19.11
846.419	12.97
846.595	0.68
846.77	12.97
846.946	41.64
847.122	-21.85
847.297	62.12
847.473	53.93
847.648	-11.61
847.824	29.35
847.999	51.88
848.175	39.59
848.35	17.07
848.526	37.55
848.701	78.51
848.876	23.21
849.052	101.03
849.227	74.41
849.403	66.22
849.578	45.74
849.753	49.83
849.929	25.26
850.104	31.4
850.279	37.55
850.454	86.7
850.63	47.79
850.805	41.64
850.98	2.73
851.155	60.07
851.33	55.98
851.505	6.83
851.681	15.02
851.856	33.45
852.031	27.31
852.206	86.7
852.381	23.21
852.556	-25.94
852.731	88.75
852.906	60.07
853.081	15.02
853.256	94.89
853.431	55.98
853.606	39.59
853.781	4.78
853.956	25.26
854.131	31.4
854.305	62.12
854.48	35.5
854.655	25.26
854.83	35.5
855.005	12.97
855.18	131.75
855.354	-21.85
855.529	31.4
855.704	53.93
855.879	43.69
856.053	82.6
856.228	72.36
856.403	25.26
856.577	55.98
856.752	-15.7
856.926	-3.41
857.101	-1.37
857.276	94.89
857.45	-27.99
857.625	29.35
857.799	21.16
857.974	62.12
858.148	-50.52
858.323	21.16
858.497	51.88
858.672	94.89
858.846	66.22
859.02	17.07
859.195	29.35
859.369	43.69
859.543	76.46
859.718	55.98
859.892	-5.46
860.066	62.12
860.241	133.8
860.415	86.7
860.589	35.5
860.763	39.59
860.938	109.22
861.112	41.64
861.286	-30.04
861.46	15.02
861.634	45.74
861.808	88.75
861.982	-19.8
862.157	37.55
862.331	62.12
862.505	78.51
862.679	-30.04
862.853	-34.13
863.027	19.11
863.201	111.27
863.375	43.69
863.549	29.35
863.722	23.21
863.896	86.7
864.07	41.64
864.244	-15.7
864.418	84.65
864.592	19.11
864.766	47.79
864.939	49.83
865.113	45.74
865.287	51.88
865.461	2.73
865.634	66.22
865.808	90.79
865.982	15.02
866.156	70.31
866.329	25.26
866.503	10.92
866.676	62.12
866.85	51.88
867.024	45.74
867.197	33.45
867.371	-13.65
867.544	19.11
867.718	41.64
867.891	31.4
868.065	80.55
868.238	-38.23
868.412	19.11
868.585	80.55
868.759	29.35
868.932	-19.8
869.105	37.55
869.279	15.02
869.452	17.07
869.625	12.97
869.799	41.64
869.972	15.02
870.145	70.31
870.319	2.73
870.492	41.64
870.665	47.79
870.838	47.79
871.011	2.73
871.185	-34.13
871.358	101.03
871.531	101.03
871.704	43.69
871.877	-11.61
872.05	27.31
872.223	45.74
872.396	33.45
872.569	47.79
872.742	39.59
872.915	31.4
873.088	-60.76
873.261	70.31
873.434	43.69
873.607	51.88
873.78	66.22
873.953	23.21
874.126	80.55
874.299	62.12
874.471	-21.85
874.644	-11.61
874.817	78.51
874.99	53.93
875.163	-21.85
875.335	29.35
875.508	4.78
875.681	39.59
875.853	21.16
876.026	27.31
876.199	-42.32
876.371	66.22
876.544	-3.41
876.717	12.97
876.889	17.07
877.062	31.4
877.234	37.55
877.407	31.4
877.579	27.31
877.752	15.02
877.924	58.03
878.097	43.69
878.269	-34.13
878.442	-13.65
878.614	-34.13
878.786	-11.61
878.959	-44.37
879.131	84.65
879.303	35.5
879.476	17.07
879.648	12.97
879.82	27.31
879.993	29.35
880.165	25.26
880.337	23.21
880.509	64.17
880.681	-7.51
880.854	27.31
881.026	-15.7
881.198	55.98
881.37	45.74
881.542	29.35
881.714	-1.37
881.886	6.83
882.058	37.55
882.23	39.59
882.402	49.83
882.574	8.87
882.746	31.4
882.918	109.22
883.09	31.4
883.262	70.31
883.434	-66.9
883.606	25.26
883.778	-17.75
883.95	123.56
884.122	-32.08
884.293	27.31
884.465	-5.46
884.637	35.5
884.809	43.69
884.98	47.79
885.152	29.35
885.324	45.74
885.496	37.55
885.667	37.55
885.839	62.12
886.011	45.74
886.182	6.83
886.354	8.87
886.525	19.11
886.697	4.78
886.869	-38.23
887.04	96.94
887.212	45.74
887.383	4.78
887.555	25.26
887.726	6.83
887.897	-50.52
888.069	-5.46
888.24	-40.28
888.412	-1.37
888.583	17.07
888.754	-1.37
888.926	-11.61
889.097	29.35
889.268	-13.65
889.44	39.59
889.611	-5.46
889.782	45.74
889.953	31.4
890.125	39.59
890.296	60.07
890.467	78.51
890.638	-19.8
890.809	66.22
890.98	27.31
891.151	53.93
891.323	-15.7
891.494	60.07
891.665	72.36
891.836	10.92
892.007	15.02
892.178	-1.37
892.349	49.83
892.52	-13.65
892.691	21.16
892.862	-17.75
893.032	-32.08
893.203	70.31
893.374	17.07
893.545	41.64
893.716	-38.23
893.887	37.55
894.057	43.69
894.228	70.31
894.399	8.87
894.57	-11.61
894.74	68.27
894.911	4.78
895.082	-19.8
895.253	27.31
895.423	2.73
895.594	-1.37
895.764	27.31
895.935	-42.32
896.106	12.97
896.276	21.16
896.447	8.87
896.617	45.74
896.788	12.97
896.958	31.4
897.129	17.07
897.299	43.69
897.47	90.79
897.64	-15.7
897.81	15.02
897.981	2.73
898.151	-58.71
898.322	51.88
898.492	17.07
898.662	-79.19
898.832	58.03
899.003	-3.41
899.173	39.59
899.343	45.74
899.513	-48.47
