Data from USB4F104151__153__11-08-27-570.txt Node

Date: Wed Mar 12 11:08:27 EDT 2025
User: louis
Spectrometer: USB4F10415
Trigger mode: 4
Integration Time (sec): 2.000000E-2
Scans to average: 1
Electric dark correction enabled: true
Nonlinearity correction enabled: false
Boxcar width: 0
XAxis mode: Wavelengths
Number of Pixels in Spectrum: 3648
>>>>>Begin Spectral Data<<<<<
178.204	-52.39
178.424	-52.39
178.644	-52.39
178.864	-93.35
179.084	-70.83
179.304	-44.2
179.524	25.43
179.744	-54.44
179.964	25.43
180.184	9.05
180.404	-58.54
180.624	78.68
180.844	7
181.064	25.43
181.283	0.85
181.503	33.62
181.723	-48.3
181.943	-70.83
182.163	54.1
182.383	7
182.602	99.16
182.822	31.57
183.042	9.05
183.262	-15.53
183.482	33.62
183.701	-27.82
183.921	82.77
184.141	-13.48
184.361	17.24
184.58	86.87
184.8	4.95
185.02	29.52
185.239	78.68
185.459	41.81
185.679	39.76
185.898	13.14
186.118	103.25
186.338	60.24
186.557	35.67
186.777	-9.39
186.997	84.82
187.216	15.19
187.436	47.96
187.655	86.87
187.875	39.76
188.095	-46.25
188.314	-15.53
188.534	45.91
188.753	17.24
188.973	-23.72
189.192	90.96
189.412	-25.77
189.631	2.9
189.851	11.09
190.07	11.09
190.29	25.43
190.509	-42.15
190.729	-19.63
190.948	-36.01
191.168	60.24
191.387	2.9
191.607	62.29
191.826	9.05
192.045	-52.39
192.265	52.05
192.484	-11.43
192.704	31.57
192.923	-19.63
193.142	93.01
193.362	-19.63
193.581	15.19
193.8	33.62
194.02	9.05
194.239	-9.39
194.458	60.24
194.678	45.91
194.897	82.77
195.116	76.63
195.335	23.38
195.555	13.14
195.774	74.58
195.993	74.58
196.212	37.72
196.432	19.29
196.651	-3.24
196.87	29.52
197.089	64.34
197.308	23.38
197.528	52.05
197.747	2.9
197.966	-42.15
198.185	23.38
198.404	-17.58
198.623	52.05
198.842	23.38
199.062	-5.29
199.281	45.91
199.5	-29.87
199.719	62.29
199.938	41.81
200.157	43.86
200.376	15.19
200.595	13.14
200.814	31.57
201.033	78.68
201.252	25.43
201.471	47.96
201.69	115.54
201.909	76.63
202.128	25.43
202.347	90.96
202.566	-52.39
202.785	66.39
203.004	17.24
203.223	146.26
203.442	19.29
203.661	62.29
203.879	41.81
204.098	47.96
204.317	9.05
204.536	90.96
204.755	39.76
204.974	-9.39
205.193	35.67
205.411	11.09
205.63	64.34
205.849	70.48
206.068	45.91
206.287	29.52
206.505	78.68
206.724	-3.24
206.943	31.57
207.162	-13.48
207.381	17.24
207.599	-9.39
207.818	35.67
208.037	45.91
208.255	-31.91
208.474	97.11
208.693	-7.34
208.911	-15.53
209.13	39.76
209.349	90.96
209.567	29.52
209.786	52.05
210.005	-11.43
210.223	15.19
210.442	-66.73
210.661	29.52
210.879	0.85
211.098	45.91
211.316	17.24
211.535	41.81
211.753	33.62
211.972	43.86
212.191	27.48
212.409	70.48
212.628	29.52
212.846	-15.53
213.065	35.67
213.283	84.82
213.502	27.48
213.72	-17.58
213.938	21.33
214.157	17.24
214.375	62.29
214.594	31.57
214.812	-17.58
215.031	54.1
215.249	29.52
215.467	64.34
215.686	-7.34
215.904	82.77
216.122	84.82
216.341	78.68
216.559	-3.24
216.778	43.86
216.996	23.38
217.214	15.19
217.432	-17.58
217.651	21.33
217.869	7
218.087	-52.39
218.306	45.91
218.524	-40.11
218.742	21.33
218.96	7
219.179	-27.82
219.397	21.33
219.615	25.43
219.833	-17.58
220.051	11.09
220.27	4.95
220.488	72.53
220.706	7
220.924	-29.87
221.142	31.57
221.36	-27.82
221.578	-23.72
221.796	-1.19
222.015	58.2
222.233	-36.01
222.451	56.15
222.669	29.52
222.887	37.72
223.105	-13.48
223.323	-33.96
223.541	56.15
223.759	47.96
223.977	25.43
224.195	56.15
224.413	-9.39
224.631	47.96
224.849	-5.29
225.067	33.62
225.285	17.24
225.503	13.14
225.721	-46.25
225.939	11.09
226.157	56.15
226.375	70.48
226.592	11.09
226.81	-11.43
227.028	-62.63
227.246	39.76
227.464	31.57
227.682	66.39
227.9	-33.96
228.117	-13.48
228.335	33.62
228.553	37.72
228.771	19.29
228.989	37.72
229.206	-50.35
229.424	56.15
229.642	4.95
229.86	88.92
230.077	111.44
230.295	-89.26
230.513	82.77
230.731	60.24
230.948	72.53
231.166	66.39
231.384	29.52
231.601	13.14
231.819	93.01
232.037	56.15
232.254	0.85
232.472	58.2
232.689	-1.19
232.907	33.62
233.125	68.44
233.342	45.91
233.56	-87.21
233.777	41.81
233.995	25.43
234.213	41.81
234.43	72.53
234.648	9.05
234.865	17.24
235.083	52.05
235.3	68.44
235.518	103.25
235.735	37.72
235.953	35.67
236.17	84.82
236.388	37.72
236.605	47.96
236.822	4.95
237.04	-17.58
237.257	33.62
237.475	41.81
237.692	0.85
237.909	68.44
238.127	33.62
238.344	99.16
238.562	133.97
238.779	19.29
238.996	68.44
239.214	21.33
239.431	50
239.648	21.33
239.865	45.91
240.083	27.48
240.3	86.87
240.517	13.14
240.735	-13.48
240.952	25.43
241.169	41.81
241.386	-46.25
241.603	31.57
241.821	72.53
242.038	35.67
242.255	19.29
242.472	-27.82
242.689	4.95
242.907	17.24
243.124	50
243.341	35.67
243.558	33.62
243.775	4.95
243.992	52.05
244.209	52.05
244.426	70.48
244.643	74.58
244.86	50
245.078	109.4
245.295	33.62
245.512	19.29
245.729	19.29
245.946	21.33
246.163	41.81
246.38	43.86
246.597	19.29
246.814	17.24
247.031	78.68
247.248	50
247.464	84.82
247.681	82.77
247.898	-27.82
248.115	95.06
248.332	9.05
248.549	0.85
248.766	82.77
248.983	35.67
249.2	-1.19
249.417	68.44
249.633	-1.19
249.85	2.9
250.067	45.91
250.284	-15.53
250.501	70.48
250.717	54.1
250.934	58.2
251.151	23.38
251.368	9.05
251.585	125.78
251.801	25.43
252.018	9.05
252.235	68.44
252.451	0.85
252.668	17.24
252.885	-3.24
253.102	19.29
253.318	19.29
253.535	-7.34
253.752	74.58
253.968	2.9
254.185	41.81
254.401	58.2
254.618	50
254.835	60.24
255.051	82.77
255.268	74.58
255.484	52.05
255.701	52.05
255.917	7
256.134	31.57
256.351	90.96
256.567	27.48
256.784	58.2
257	29.52
257.217	41.81
257.433	56.15
257.65	107.35
257.866	50
258.082	23.38
258.299	-15.53
258.515	50
258.732	-19.63
258.948	50
259.165	50
259.381	2.9
259.597	-23.72
259.814	66.39
260.03	82.77
260.246	29.52
260.463	-3.24
260.679	72.53
260.895	29.52
261.112	103.25
261.328	-11.43
261.544	-1.19
261.761	33.62
261.977	21.33
262.193	-36.01
262.409	23.38
262.626	97.11
262.842	-13.48
263.058	-23.72
263.274	146.26
263.49	25.43
263.707	105.3
263.923	50
264.139	-9.39
264.355	45.91
264.571	80.72
264.787	86.87
265.004	7
265.22	13.14
265.436	-17.58
265.652	95.06
265.868	45.91
266.084	-3.24
266.3	-42.15
266.516	47.96
266.732	-7.34
266.948	35.67
267.164	13.14
267.38	33.62
267.596	17.24
267.812	105.3
268.028	33.62
268.244	41.81
268.46	-5.29
268.676	39.76
268.892	-25.77
269.108	0.85
269.324	15.19
269.54	9.05
269.756	68.44
269.972	54.1
270.188	39.76
270.403	23.38
270.619	50
270.835	-5.29
271.051	35.67
271.267	2.9
271.483	35.67
271.698	185.17
271.914	31.57
272.13	70.48
272.346	60.24
272.562	2.9
272.777	-7.34
272.993	35.67
273.209	-7.34
273.425	90.96
273.64	21.33
273.856	7
274.072	33.62
274.287	-7.34
274.503	78.68
274.719	45.91
274.934	4.95
275.15	31.57
275.366	-17.58
275.581	99.16
275.797	-15.53
276.012	2.9
276.228	52.05
276.444	52.05
276.659	-7.34
276.875	29.52
277.09	33.62
277.306	13.14
277.521	21.33
277.737	-27.82
277.952	72.53
278.168	-5.29
278.383	95.06
278.599	-46.25
278.814	86.87
279.03	15.19
279.245	64.34
279.461	60.24
279.676	78.68
279.892	-48.3
280.107	54.1
280.322	52.05
280.538	31.57
280.753	4.95
280.969	-36.01
281.184	62.29
281.399	47.96
281.615	35.67
281.83	109.4
282.045	-7.34
282.26	11.09
282.476	13.14
282.691	58.2
282.906	7
283.122	-1.19
283.337	45.91
283.552	101.2
283.767	-15.53
283.983	99.16
284.198	47.96
284.413	4.95
284.628	60.24
284.843	45.91
285.058	74.58
285.274	43.86
285.489	-23.72
285.704	27.48
285.919	76.63
286.134	33.62
286.349	99.16
286.564	-40.11
286.779	-3.24
286.995	-56.49
287.21	50
287.425	56.15
287.64	33.62
287.855	19.29
288.07	4.95
288.285	62.29
288.5	142.16
288.715	41.81
288.93	-9.39
289.145	56.15
289.36	58.2
289.575	19.29
289.79	54.1
290.004	37.72
290.219	45.91
290.434	-27.82
290.649	13.14
290.864	17.24
291.079	43.86
291.294	35.67
291.509	101.2
291.724	33.62
291.938	-15.53
292.153	56.15
292.368	103.25
292.583	21.33
292.798	70.48
293.012	15.19
293.227	-3.24
293.442	-33.96
293.657	72.53
293.871	54.1
294.086	82.77
294.301	50
294.516	58.2
294.73	66.39
294.945	52.05
295.16	19.29
295.374	97.11
295.589	-19.63
295.804	41.81
296.018	37.72
296.233	68.44
296.447	86.87
296.662	13.14
296.877	74.58
297.091	9.05
297.306	62.29
297.52	76.63
297.735	58.2
297.949	70.48
298.164	-27.82
298.378	23.38
298.593	33.62
298.807	31.57
299.022	45.91
299.236	-9.39
299.451	39.76
299.665	0.85
299.88	76.63
300.094	15.19
300.309	62.29
300.523	4.95
300.737	62.29
300.952	21.33
301.166	54.1
301.381	19.29
301.595	33.62
301.809	29.52
302.024	15.19
302.238	2.9
302.452	76.63
302.667	23.38
302.881	29.52
303.095	62.29
303.309	2.9
303.524	23.38
303.738	-48.3
303.952	-7.34
304.166	21.33
304.381	9.05
304.595	29.52
304.809	19.29
305.023	50
305.237	60.24
305.452	62.29
305.666	4.95
305.88	54.1
306.094	52.05
306.308	64.34
306.522	23.38
306.736	27.48
306.95	29.52
307.164	11.09
307.379	21.33
307.593	88.92
307.807	9.05
308.021	25.43
308.235	4.95
308.449	52.05
308.663	-19.63
308.877	56.15
309.091	58.2
309.305	41.81
309.519	50
309.733	-5.29
309.947	25.43
310.161	31.57
310.374	60.24
310.588	78.68
310.802	54.1
311.016	29.52
311.23	54.1
311.444	66.39
311.658	-42.15
311.872	64.34
312.085	90.96
312.299	19.29
312.513	45.91
312.727	17.24
312.941	74.58
313.154	74.58
313.368	-40.11
313.582	107.35
313.796	19.29
314.009	-23.72
314.223	17.24
314.437	-5.29
314.651	7
314.864	54.1
315.078	70.48
315.292	-11.43
315.505	21.33
315.719	88.92
315.933	82.77
316.146	-25.77
316.36	2.9
316.573	74.58
316.787	43.86
317.001	52.05
317.214	62.29
317.428	41.81
317.641	13.14
317.855	64.34
318.068	27.48
318.282	15.19
318.495	66.39
318.709	60.24
318.922	107.35
319.136	82.77
319.349	66.39
319.563	19.29
319.776	45.91
319.99	2.9
320.203	23.38
320.417	17.24
320.63	54.1
320.843	125.78
321.057	84.82
321.27	-13.48
321.483	56.15
321.697	45.91
321.91	43.86
322.124	62.29
322.337	74.58
322.55	-40.11
322.763	50
322.977	17.24
323.19	2.9
323.403	-19.63
323.617	78.68
323.83	7
324.043	37.72
324.256	54.1
324.469	17.24
324.683	17.24
324.896	43.86
325.109	107.35
325.322	-19.63
325.535	52.05
325.748	15.19
325.962	64.34
326.175	23.38
326.388	50
326.601	-52.39
326.814	27.48
327.027	58.2
327.24	15.19
327.453	-60.59
327.666	56.15
327.879	33.62
328.092	88.92
328.305	70.48
328.518	21.33
328.731	-23.72
328.944	66.39
329.157	37.72
329.37	33.62
329.583	80.72
329.796	97.11
330.009	19.29
330.222	19.29
330.435	35.67
330.648	60.24
330.861	41.81
331.073	39.76
331.286	95.06
331.499	-31.91
331.712	37.72
331.925	29.52
332.138	115.54
332.35	70.48
332.563	25.43
332.776	66.39
332.989	78.68
333.202	31.57
333.414	70.48
333.627	47.96
333.84	45.91
334.053	4.95
334.265	107.35
334.478	88.92
334.691	80.72
334.903	103.25
335.116	86.87
335.329	52.05
335.541	-23.72
335.754	43.86
335.966	52.05
336.179	50
336.392	-11.43
336.604	-68.78
336.817	78.68
337.029	29.52
337.242	54.1
337.454	45.91
337.667	19.29
337.88	95.06
338.092	-5.29
338.305	183.12
338.517	17.24
338.729	23.38
338.942	84.82
339.154	-25.77
339.367	54.1
339.579	107.35
339.792	-42.15
340.004	70.48
340.217	37.72
340.429	66.39
340.641	-19.63
340.854	0.85
341.066	47.96
341.278	33.62
341.491	43.86
341.703	84.82
341.915	-13.48
342.128	52.05
342.34	43.86
342.552	140.12
342.764	11.09
342.977	78.68
343.189	58.2
343.401	50
343.613	-1.19
343.826	54.1
344.038	54.1
344.25	52.05
344.462	-17.58
344.674	64.34
344.886	4.95
345.099	64.34
345.311	78.68
345.523	-1.19
345.735	-25.77
345.947	33.62
346.159	9.05
346.371	-17.58
346.583	-9.39
346.795	66.39
347.007	-15.53
347.219	41.81
347.431	54.1
347.643	72.53
347.855	4.95
348.067	33.62
348.279	-36.01
348.491	76.63
348.703	64.34
348.915	76.63
349.127	-11.43
349.339	131.92
349.551	11.09
349.763	-21.67
349.975	-3.24
350.187	95.06
350.399	35.67
350.61	54.1
350.822	-9.39
351.034	84.82
351.246	27.48
351.458	90.96
351.669	43.86
351.881	7
352.093	127.83
352.305	66.39
352.517	-3.24
352.728	68.44
352.94	60.24
353.152	25.43
353.363	45.91
353.575	43.86
353.787	86.87
353.999	27.48
354.21	123.73
354.422	47.96
354.633	-5.29
354.845	37.72
355.057	37.72
355.268	72.53
355.48	88.92
355.692	-27.82
355.903	35.67
356.115	23.38
356.326	19.29
356.538	90.96
356.749	31.57
356.961	99.16
357.172	21.33
357.384	15.19
357.595	84.82
357.807	80.72
358.018	7
358.23	54.1
358.441	113.49
358.653	-5.29
358.864	43.86
359.075	-15.53
359.287	43.86
359.498	37.72
359.709	23.38
359.921	58.2
360.132	52.05
360.344	54.1
360.555	11.09
360.766	64.34
360.977	60.24
361.189	39.76
361.4	31.57
361.611	109.4
361.823	68.44
362.034	70.48
362.245	29.52
362.456	35.67
362.667	90.96
362.879	33.62
363.09	86.87
363.301	80.72
363.512	45.91
363.723	56.15
363.935	17.24
364.146	54.1
364.357	74.58
364.568	93.01
364.779	-21.67
364.99	45.91
365.201	23.38
365.412	88.92
365.623	29.52
365.834	31.57
366.045	88.92
366.256	19.29
366.467	86.87
366.678	47.96
366.889	39.76
367.1	39.76
367.311	-58.54
367.522	-1.19
367.733	113.49
367.944	23.38
368.155	52.05
368.366	54.1
368.577	45.91
368.788	25.43
368.999	41.81
369.209	23.38
369.42	101.2
369.631	78.68
369.842	0.85
370.053	33.62
370.264	76.63
370.474	-50.35
370.685	27.48
370.896	-3.24
371.107	82.77
371.317	-9.39
371.528	64.34
371.739	107.35
371.95	-1.19
372.16	70.48
372.371	54.1
372.582	76.63
372.792	54.1
373.003	15.19
373.214	23.38
373.424	62.29
373.635	25.43
373.846	66.39
374.056	58.2
374.267	35.67
374.477	66.39
374.688	97.11
374.898	23.38
375.109	27.48
375.319	111.44
375.53	64.34
375.74	86.87
375.951	90.96
376.161	62.29
376.372	127.83
376.582	4.95
376.793	107.35
377.003	60.24
377.214	29.52
377.424	39.76
377.635	80.72
377.845	70.48
378.055	54.1
378.266	119.64
378.476	78.68
378.686	103.25
378.897	88.92
379.107	88.92
379.317	64.34
379.528	-13.48
379.738	86.87
379.948	-38.06
380.158	90.96
380.369	37.72
380.579	74.58
380.789	11.09
380.999	33.62
381.21	60.24
381.42	103.25
381.63	23.38
381.84	31.57
382.05	95.06
382.261	60.24
382.471	21.33
382.681	29.52
382.891	97.11
383.101	84.82
383.311	-3.24
383.521	80.72
383.731	95.06
383.941	107.35
384.151	56.15
384.361	37.72
384.571	37.72
384.781	138.07
384.991	72.53
385.201	101.2
385.411	52.05
385.621	90.96
385.831	52.05
386.041	115.54
386.251	33.62
386.461	88.92
386.671	-31.91
386.881	17.24
387.091	66.39
387.301	60.24
387.511	-3.24
387.72	41.81
387.93	103.25
388.14	107.35
388.35	13.14
388.56	-9.39
388.769	86.87
388.979	107.35
389.189	15.19
389.399	27.48
389.609	95.06
389.818	86.87
390.028	95.06
390.238	101.2
390.447	41.81
390.657	107.35
390.867	-3.24
391.076	-27.82
391.286	123.73
391.496	117.59
391.705	68.44
391.915	95.06
392.125	78.68
392.334	68.44
392.544	80.72
392.753	21.33
392.963	150.36
393.172	80.72
393.382	27.48
393.591	105.3
393.801	11.09
394.01	60.24
394.22	47.96
394.429	60.24
394.639	41.81
394.848	99.16
395.058	88.92
395.267	70.48
395.477	84.82
395.686	133.97
395.895	58.2
396.105	115.54
396.314	29.52
396.524	52.05
396.733	52.05
396.942	45.91
397.152	64.34
397.361	142.16
397.57	15.19
397.78	154.45
397.989	80.72
398.198	58.2
398.407	35.67
398.617	17.24
398.826	58.2
399.035	-25.77
399.244	45.91
399.453	35.67
399.663	45.91
399.872	93.01
400.081	115.54
400.29	117.59
400.499	70.48
400.708	54.1
400.917	129.88
401.127	39.76
401.336	150.36
401.545	121.68
401.754	111.44
401.963	50
402.172	93.01
402.381	31.57
402.59	78.68
402.799	70.48
403.008	199.51
403.217	52.05
403.426	119.64
403.635	56.15
403.844	115.54
404.053	140.12
404.262	23.38
404.471	217.94
404.68	76.63
404.888	160.59
405.097	152.4
405.306	82.77
405.515	95.06
405.724	136.02
405.933	97.11
406.142	125.78
406.35	78.68
406.559	111.44
406.768	45.91
406.977	172.88
407.185	166.74
407.394	115.54
407.603	131.92
407.812	201.55
408.02	217.94
408.229	260.95
408.438	187.22
408.646	215.89
408.855	181.07
409.064	185.17
409.272	193.36
409.481	213.84
409.69	256.85
409.898	129.88
410.107	297.81
410.315	281.43
410.524	211.79
410.733	240.47
410.941	205.65
411.15	291.66
411.358	260.95
411.567	246.61
411.775	361.3
411.984	328.53
412.192	211.79
412.401	308.05
412.609	273.23
412.818	379.73
413.026	312.14
413.234	387.92
413.443	299.86
413.651	355.15
413.86	383.82
414.068	387.92
414.276	400.21
414.485	402.26
414.693	367.44
414.901	486.22
415.11	580.43
415.318	492.37
415.526	484.17
415.734	576.33
415.943	531.28
416.151	590.67
416.359	609.1
416.567	637.77
416.776	727.88
416.984	711.5
417.192	691.02
417.4	703.31
417.608	648.01
417.817	709.45
418.025	754.51
418.233	844.62
418.441	805.71
418.649	850.76
418.857	961.35
419.065	867.14
419.273	904.01
419.481	879.43
419.689	1006.41
419.897	963.4
420.105	1028.93
420.313	1047.37
420.521	1117
420.729	1030.98
420.937	1108.8
421.145	1104.71
421.353	1145.67
421.561	1274.69
421.769	1372.99
421.977	1362.75
422.185	1418.05
422.393	1442.62
422.601	1575.74
422.809	1620.8
423.017	1524.54
423.224	1588.03
423.432	1622.84
423.64	1694.52
423.848	1805.11
424.056	1782.59
424.263	1909.56
424.471	1987.38
424.679	1942.33
424.887	2075.45
425.094	2130.74
425.302	2179.89
425.51	2288.43
425.718	2382.64
425.925	2204.47
426.133	2429.74
426.341	2581.29
426.548	2566.96
426.756	2720.56
426.964	2685.74
427.171	2798.38
427.379	2855.72
427.586	3050.28
427.794	3081
428.001	3195.68
428.209	3181.35
428.417	3304.23
428.624	3463.97
428.832	3506.98
429.039	3492.64
429.247	3527.46
429.454	3726.11
429.662	4141.85
429.869	3760.92
430.076	3992.34
430.284	3885.85
430.491	4086.55
430.699	4375.31
430.906	4416.27
431.114	4664.08
431.321	4598.54
431.528	4848.4
431.736	4866.83
431.943	5133.06
432.15	5008.14
432.358	5163.78
432.565	5372.68
432.772	5376.77
432.979	5784.32
433.187	5769.98
433.394	5819.13
433.601	6198.01
433.808	6009.59
434.016	6060.79
434.223	6402.8
434.43	6806.25
434.637	6572.79
434.844	7111.4
435.052	7101.16
435.259	6974.19
435.466	7207.66
435.673	7135.98
435.88	7570.15
436.087	8075.99
436.294	7926.49
436.501	7834.33
436.708	7944.92
436.915	8188.63
437.122	8549.07
437.329	8565.46
437.537	8862.41
437.743	8966.86
437.95	8864.46
438.157	9380.55
438.364	9587.4
438.571	9708.23
438.778	9509.57
438.985	10320.57
439.192	10142.39
439.399	10420.92
439.606	10173.11
439.813	10595
440.02	11481.77
440.227	11281.07
440.433	11096.75
440.64	11389.61
440.847	11219.63
441.054	11635.36
441.261	12395.16
441.467	12372.63
441.674	12386.97
441.881	12997.26
442.088	12878.48
442.294	12919.44
442.501	13257.36
442.708	13621.89
442.914	13818.5
443.121	14471.8
443.328	14172.8
443.534	15239.79
443.741	14668.41
443.948	14492.28
444.154	15538.79
444.361	15346.28
444.568	15874.66
444.774	15450.73
444.981	15637.09
445.187	16310.88
445.394	16855.64
445.6	16611.93
445.807	18123.33
446.013	17521.23
446.22	17898.05
446.426	18524.73
446.633	18623.03
446.839	19245.62
447.046	18487.87
447.252	19309.1
447.459	19673.64
447.665	19366.45
447.871	20488.73
448.078	21086.74
448.284	20142.63
448.491	20527.64
448.697	21461.52
448.903	21897.74
449.11	21998.09
449.316	21570.06
449.522	21821.96
449.728	22567.42
449.935	22718.97
450.141	22467.07
450.347	23099.89
450.553	22424.06
450.76	22690.3
450.966	23269.87
451.172	23261.68
451.378	23173.62
451.584	23091.7
451.791	23767.53
451.997	23888.36
452.203	23888.36
452.409	23949.8
452.615	23859.69
452.821	22962.68
453.027	22522.37
453.233	23845.35
453.44	22692.35
453.646	22854.14
453.852	22759.93
454.058	23722.48
454.264	22923.77
454.47	23370.22
454.676	22755.83
454.882	23546.35
455.088	21688.84
455.294	21748.23
455.5	22127.11
455.705	22114.82
455.911	21455.37
456.117	20922.9
456.323	20666.91
456.529	19384.88
456.735	20193.83
456.941	19866.15
457.147	19585.58
457.352	18590.27
457.558	18803.25
457.764	18651.7
457.97	18235.97
458.176	17920.58
458.381	17660.49
458.587	16835.16
458.793	16908.88
458.999	16147.04
459.204	17306.19
459.41	16687.7
459.616	15596.14
459.821	15424.11
460.027	15377
460.233	15346.28
460.438	14557.82
460.644	14809.72
460.85	14049.92
461.055	13894.27
461.261	13736.58
461.466	12714.64
461.672	12245.66
461.878	13486.73
462.083	12536.47
462.289	12311.19
462.494	11889.31
462.7	11500.2
462.905	11416.23
463.111	11655.84
463.316	11694.75
463.522	11365.03
463.727	11397.8
463.932	11530.92
464.138	11088.56
464.343	11279.02
464.549	11190.95
464.754	11401.9
464.959	11371.18
465.165	11270.83
465.37	10769.07
465.575	10687.15
465.781	10932.91
465.986	10775.22
466.191	10459.83
466.397	10439.35
466.602	9784
466.807	10160.83
467.012	10408.63
467.218	9986.75
467.423	9900.73
467.628	10334.9
467.833	10441.4
468.038	10132.15
468.244	9900.73
468.449	10087.1
468.654	9894.59
468.859	9827.01
469.064	9759.42
469.269	9577.16
469.474	9353.93
469.679	9624.26
469.885	9274.06
470.09	9317.06
470.295	9278.15
470.5	8897.23
470.705	9196.23
470.91	9116.36
471.115	8913.61
471.32	9040.59
471.525	8825.55
471.73	8741.58
471.935	8856.27
472.139	8395.48
472.344	8514.26
472.549	8522.45
472.754	8377.05
472.959	8209.11
473.164	7957.21
473.369	7840.48
473.574	8166.1
473.778	8260.31
473.983	8047.32
474.188	8045.27
474.393	7699.17
474.598	7731.94
474.802	7627.49
475.007	7371.49
475.212	7547.62
475.417	7267.05
475.621	7310.05
475.826	7504.61
476.031	7148.26
476.235	7054.06
476.44	7146.22
476.645	6980.33
476.849	7060.2
477.054	6877.93
477.259	6939.37
477.463	6947.56
477.668	6562.55
477.872	6798.06
478.077	6599.41
478.282	6484.72
478.486	6169.34
478.691	6345.46
478.895	6351.6
479.1	6361.84
479.304	6365.94
479.509	6148.86
479.713	6333.17
479.918	6038.27
480.122	6071.03
480.326	5989.11
480.531	6056.7
480.735	6132.47
480.94	5991.16
481.144	6101.75
481.348	5970.68
481.553	5982.97
481.757	5899
481.961	5933.82
482.166	6128.38
482.37	6023.93
482.574	5796.6
482.778	5835.52
482.983	5958.39
483.187	5892.86
483.391	5911.29
483.595	6058.74
483.8	5686.01
484.004	5841.66
484.208	6001.4
484.412	6013.69
484.616	5870.33
484.821	5921.53
485.025	5823.23
485.229	5923.58
485.433	5714.69
485.637	5956.35
485.841	5772.03
486.045	5974.78
486.249	5950.2
486.453	5733.12
486.657	5993.21
486.861	5894.91
487.065	5876.48
487.269	5810.94
487.473	5780.22
487.677	5714.69
487.881	5946.11
488.085	5845.76
488.289	5901.05
488.493	5731.07
488.697	6071.03
488.901	5927.67
489.105	5733.12
489.309	5802.75
489.512	5950.2
489.716	5798.65
489.92	6003.45
490.124	6068.98
490.328	6001.4
490.531	6109.94
490.735	5954.3
490.939	6107.9
491.143	6019.83
491.346	6017.79
491.55	6241.01
491.754	6089.46
491.958	6230.77
492.161	6159.1
492.365	6214.39
492.569	6212.34
492.772	6087.42
492.976	6052.6
493.18	6247.16
493.383	6220.53
493.587	6378.23
493.79	6472.43
493.994	6429.43
494.197	6435.57
494.401	6529.78
494.605	6537.97
494.808	6693.62
495.012	6804.21
495.215	6638.32
495.419	6769.39
495.622	6904.56
495.825	6802.16
496.029	6800.11
496.232	6988.52
496.436	6968.04
496.639	7252.71
496.843	6922.99
497.046	7312.1
497.249	7459.56
497.453	7318.25
497.656	7467.75
497.859	7439.08
498.063	7463.65
498.266	7637.73
498.469	7715.55
498.673	7832.29
498.876	7783.13
499.079	7869.15
499.282	7848.67
499.485	8356.57
499.689	8123.1
499.892	8215.26
500.095	8202.97
500.298	8514.26
500.501	8280.79
500.705	8694.48
500.908	8696.53
501.111	8751.82
501.314	8884.94
501.517	9032.4
501.72	9075.4
501.923	9276.1
502.126	9224.9
502.329	9429.7
502.532	9650.88
502.735	9425.61
502.938	9648.83
503.141	9675.46
503.344	9888.45
503.547	9812.67
503.75	10134.2
503.953	10085.05
504.156	10222.27
504.359	10363.58
504.562	10648.24
504.765	10715.83
504.968	10855.09
505.17	10894
505.373	11000.49
505.576	11066.03
505.779	11231.91
505.982	11309.74
506.185	11526.82
506.387	11522.73
506.59	11588.26
506.793	11872.93
506.996	11834.02
507.198	12505.75
507.401	12272.28
507.604	12255.9
507.807	12618.39
508.009	12460.7
508.212	12655.25
508.415	12882.58
508.617	13034.13
508.82	13197.96
509.022	13183.63
509.225	13363.85
509.428	13646.47
509.63	13730.44
509.833	13875.84
510.035	14058.11
510.238	14244.48
510.44	14086.78
510.643	14508.66
510.845	14735.99
511.048	14678.65
511.25	14606.97
511.453	14889.59
511.655	15420.01
511.858	15168.11
512.06	15245.93
512.262	15413.87
512.465	15542.89
512.667	15800.93
512.87	15997.54
513.072	16026.21
513.274	16349.79
513.477	16441.95
513.679	16626.26
513.881	17019.47
514.084	17295.95
514.286	17230.41
514.488	17300.05
514.69	17642.06
514.893	17668.68
515.095	17543.75
515.297	17930.82
515.499	17896
515.701	18313.79
515.904	18881.08
516.106	18741.82
516.308	18733.62
516.51	19071.54
516.712	19022.39
516.914	19366.45
517.116	19690.02
517.318	19581.48
517.52	20077.09
517.722	20167.2
517.925	20206.11
518.127	20513.31
518.329	20546.08
518.531	20357.66
518.733	20988.44
518.935	21234.19
519.136	21223.95
519.338	21617.16
519.54	21592.59
519.742	21901.83
519.944	22270.47
520.146	22581.76
520.348	22651.39
520.55	22469.12
520.752	22788.6
520.954	23337.46
521.155	23126.52
521.357	23640.56
521.559	23722.48
521.761	23820.78
521.963	24257
522.164	24011.24
522.366	24103.4
522.568	24623.58
522.77	24764.89
522.971	24930.78
523.173	24803.8
523.375	25082.33
523.576	25276.88
523.778	25508.3
523.98	25577.94
524.181	26063.3
524.383	25491.92
524.584	26139.08
524.786	26046.92
524.988	26171.85
525.189	26833.34
525.391	26945.98
525.592	27007.42
525.794	27068.86
525.995	27130.3
526.197	27449.78
526.398	26980.79
526.6	27503.03
526.801	27812.27
527.003	28002.73
527.204	27871.66
527.406	28137.9
527.607	28066.22
527.808	28115.37
528.01	27797.93
528.211	28418.47
528.412	29127.06
528.614	28473.76
528.815	28160.42
529.016	29153.69
529.218	28774.81
529.419	28647.84
529.62	28713.38
529.822	28950.94
530.023	28924.32
530.224	29108.63
530.425	29034.91
530.626	29270.42
530.828	28926.36
531.029	29921.68
531.23	29145.5
531.431	29376.92
531.632	29512.08
531.833	29909.39
532.035	29610.39
532.236	30044.55
532.437	29696.4
532.638	29637.01
532.839	30026.12
533.04	30118.28
533.241	29766.03
533.442	30366.09
533.643	30036.36
533.844	30011.79
534.045	30151.05
534.246	30034.32
534.447	30069.13
534.648	30081.42
534.849	30261.64
535.05	29864.33
535.251	30329.22
535.451	29903.25
535.652	30425.48
535.853	30288.26
536.054	30267.78
536.255	30529.92
536.456	30009.74
536.657	30835.07
536.857	30183.82
537.058	30273.93
537.259	30570.88
537.46	30503.3
537.66	30251.4
537.861	30749.06
538.062	30663.04
538.263	30564.74
538.463	30493.06
538.664	30302.6
538.865	30654.85
539.065	31078.78
539.266	29708.69
539.466	30806.4
539.667	30140.81
539.868	30587.27
540.068	30380.42
540.269	30259.59
540.469	30552.45
540.67	30499.2
540.87	30325.13
541.071	30325.13
541.271	30753.15
541.472	30515.59
541.672	30232.97
541.873	30300.55
542.073	29860.24
542.274	30462.34
542.474	30077.32
542.675	30251.4
542.875	30566.79
543.075	30521.73
543.276	30200.2
543.476	30701.95
543.676	30153.1
543.877	30194.06
544.077	30349.7
544.277	30425.48
544.478	30456.2
544.678	30261.64
544.878	30165.39
545.078	30372.23
545.279	30361.99
545.479	30265.74
545.679	30097.8
545.879	30198.15
546.079	30218.63
546.28	30284.17
546.48	30232.97
546.68	30413.19
546.88	30445.96
547.08	30019.98
547.28	30523.78
547.48	30065.03
547.68	30163.34
547.88	30040.46
548.081	30288.26
548.281	30189.96
548.481	29854.09
548.681	30405
548.881	30314.89
549.081	30171.53
549.28	30327.17
549.48	30286.22
549.68	30253.45
549.88	30269.83
550.08	30052.75
550.28	30267.78
550.48	30079.37
550.68	30294.41
550.88	30073.23
551.08	29790.61
551.279	30300.55
551.479	29923.72
551.679	30019.98
551.879	30204.3
552.079	30357.89
552.278	29833.61
552.478	30079.37
552.678	29948.3
552.878	30239.11
553.077	30034.32
553.277	29995.4
553.477	30013.84
553.676	29929.87
553.876	29731.22
554.076	29850
554.275	29751.7
554.475	29391.25
554.674	29852.05
554.874	29809.04
555.074	29870.48
555.273	29772.18
555.473	29917.58
555.672	29960.59
555.872	29546.9
556.071	30042.51
556.271	29637.01
556.47	29546.9
556.67	29440.4
556.869	29407.64
557.068	29702.54
557.268	29401.49
557.467	29311.38
557.667	29407.64
557.866	29260.18
558.065	29135.26
558.265	29235.61
558.464	29122.97
558.663	29301.14
558.863	28959.13
559.062	29145.5
559.261	28918.17
559.461	29381.01
559.66	28592.55
559.859	28727.71
560.058	28477.86
560.258	28715.42
560.457	28567.97
560.656	28676.51
560.855	28473.76
561.054	28729.76
561.253	28498.34
561.453	28449.19
561.652	28447.14
561.851	28598.69
562.05	28330.41
562.249	28303.78
562.448	28383.65
562.647	28012.97
562.846	27947.43
563.045	28178.86
563.244	27836.84
563.443	28189.1
563.642	27752.88
563.841	27810.22
564.04	27615.66
564.239	28072.36
564.438	27699.63
564.637	27597.23
564.836	27591.09
565.035	27251.13
565.234	27320.76
565.432	27150.78
565.631	27165.11
565.83	26993.08
566.029	27015.61
566.228	27040.18
566.427	26778.04
566.625	26843.58
566.824	26632.64
567.023	26784.19
567.222	26620.35
567.42	26630.59
567.619	26489.28
567.818	26821.05
568.016	26300.87
568.215	26425.79
568.414	26251.72
568.612	26511.81
568.811	25901.51
569.01	26005.96
569.208	26048.97
569.407	25805.26
569.605	25723.34
569.804	25958.86
570.002	25729.48
570.201	25713.1
570.4	25643.47
570.598	25721.29
570.797	25379.28
570.995	25340.37
571.193	24959.45
571.392	25600.46
571.59	24992.22
571.789	25149.91
571.987	24857.05
572.186	25194.96
572.384	24906.2
572.582	24941.02
572.781	24844.76
572.979	24570.33
573.177	24467.94
573.376	24463.84
573.574	24535.52
573.772	24390.11
573.971	24078.82
574.169	24357.35
574.367	24365.54
574.565	24080.87
574.763	24021.48
574.962	24162.79
575.16	23517.68
575.358	23849.45
575.556	23599.6
575.754	23675.37
575.952	23544.3
576.151	23491.05
576.349	23273.97
576.547	23204.34
576.745	23206.39
576.943	23339.51
577.141	22983.16
577.339	23327.22
577.537	23060.98
577.735	23005.69
577.933	22817.27
578.131	23069.17
578.329	22786.55
578.527	22667.77
578.725	22491.65
578.923	22788.6
579.121	22612.48
579.319	22678.01
579.516	22723.07
579.714	22647.29
579.912	22295.04
580.11	22493.69
580.308	22336
580.506	22049.28
580.704	21506.57
580.901	22006.28
581.099	22157.83
581.297	21887.5
581.495	21737.99
581.692	21737.99
581.89	21701.13
582.088	21557.77
582.285	21281.3
582.483	21830.15
582.681	21391.89
582.878	21402.13
583.076	21035.54
583.274	21318.16
583.471	20951.57
583.669	21215.76
583.866	21326.35
584.064	20996.63
584.262	20992.53
584.459	20566.56
584.657	20818.46
584.854	20929.05
585.052	20425.25
585.249	20644.38
585.447	20488.73
585.644	20150.82
585.841	20505.12
586.039	20697.63
586.236	20050.47
586.434	20333.09
586.631	20199.97
586.828	20073
587.026	20005.41
587.223	20136.48
587.42	19982.88
587.618	19997.22
587.815	19722.79
588.012	19825.19
588.21	20046.37
588.407	19903.01
588.604	19714.6
588.801	19589.67
588.999	19579.43
589.196	19397.17
589.393	19651.11
589.59	19345.97
589.787	19229.23
589.984	19313.2
590.182	19083.83
590.379	19016.24
590.576	18997.81
590.773	19018.29
590.97	19012.15
591.167	18848.31
591.364	18885.17
591.561	18575.93
591.758	18473.53
591.955	18483.77
592.152	18643.51
592.349	18424.38
592.546	18663.99
592.743	18668.09
592.94	18258.49
593.137	18408
593.334	18455.1
593.531	18141.76
593.727	18238.02
593.924	18059.84
594.121	17996.35
594.318	18004.55
594.515	17805.89
594.712	17920.58
594.908	17705.54
595.105	17779.27
595.302	17525.32
595.499	17660.49
595.696	17865.28
595.892	17244.75
596.089	17422.92
596.286	17467.98
596.482	17549.9
596.679	17420.88
596.876	17445.45
597.072	17230.41
597.269	17179.22
597.466	17238.61
597.662	16814.68
597.859	17097.3
598.055	16917.08
598.252	17115.73
598.448	17078.86
598.645	16872.02
598.841	16955.99
599.038	16937.55
599.234	17048.15
599.431	16556.63
599.627	16468.57
599.824	16634.46
600.02	16347.74
600.217	16405.08
600.413	16433.75
600.609	16425.56
600.806	16114.27
601.002	16347.74
601.198	16069.22
601.395	16138.85
601.591	16167.52
601.787	15829.6
601.984	15784.55
602.18	15954.53
602.376	15954.53
602.572	15747.69
602.769	15692.39
602.965	15598.18
603.161	15637.09
603.357	15655.53
603.553	15489.64
603.75	15934.05
603.946	15182.45
604.142	15315.56
604.338	15131.25
604.534	15399.53
604.73	15088.24
604.926	15252.08
605.122	15217.26
605.318	14944.88
605.514	14940.79
605.71	14983.79
605.906	15094.38
606.102	14953.07
606.298	14674.55
606.494	14905.97
606.69	15123.05
606.886	15180.4
607.082	14494.33
607.278	14905.97
607.474	14369.4
607.67	14805.62
607.866	14568.06
608.062	14645.88
608.257	14377.59
608.453	14396.03
608.649	14606.97
608.845	14391.93
609.041	14301.82
609.236	14293.63
609.432	14086.78
609.628	14142.08
609.824	14412.41
610.019	14127.74
610.215	14344.83
610.411	14211.71
610.606	14097.02
610.802	13957.76
610.998	14056.06
611.193	14230.14
611.389	13972.1
611.584	13802.11
611.78	13617.8
611.976	13757.06
612.171	13714.05
612.367	13638.28
612.562	13699.72
612.758	13515.4
612.953	13552.26
613.149	13814.4
613.344	13453.96
613.539	13630.09
613.735	13656.71
613.93	13640.33
614.126	13656.71
614.321	13619.85
614.517	13353.61
614.712	13447.82
614.907	13271.69
615.103	13556.36
615.298	13279.88
615.493	13357.71
615.688	13308.55
615.884	13562.5
616.079	13257.36
616.274	13101.71
616.47	13089.42
616.665	13109.9
616.86	13107.85
617.055	13062.8
617.25	13165.2
617.445	12976.78
617.641	12946.06
617.836	13070.99
618.031	12806.8
618.226	12835.47
618.421	12651.16
618.616	12966.54
618.811	12505.75
619.006	12745.36
619.201	12243.61
619.396	12499.61
619.591	12423.83
619.786	12536.47
619.981	12208.8
620.176	12509.85
620.371	12255.9
620.566	12491.41
620.761	12329.63
620.956	12309.15
621.151	12038.81
621.346	12122.78
621.541	11958.94
621.735	12049.05
621.93	11791.01
622.125	11842.21
622.32	11803.3
622.515	11676.32
622.709	11623.08
622.904	11653.8
623.099	11502.25
623.294	11545.25
623.488	11315.88
623.683	11512.49
623.878	11377.32
624.072	11397.8
624.267	11125.42
624.462	11119.28
624.656	11121.32
624.851	11080.36
625.046	10977.97
625.24	11047.6
625.435	10894
625.629	10619.57
625.824	10554.04
626.018	10764.98
626.213	10379.96
626.407	10574.52
626.602	10429.11
626.796	10447.54
626.991	10353.34
627.185	10371.77
627.38	10402.49
627.574	10226.36
627.768	10357.43
627.963	10123.96
628.157	10076.86
628.352	10115.77
628.546	9777.86
628.74	9953.98
628.935	9822.91
629.129	9824.96
629.323	9898.69
629.517	9704.13
629.712	9595.59
629.906	9786.05
630.1	9435.85
630.294	9495.24
630.489	9407.17
630.683	9437.89
630.877	9448.13
631.071	9290.44
631.265	9245.38
631.459	9196.23
631.653	8950.48
631.848	8942.28
632.042	9065.16
632.236	8960.72
632.43	8934.09
632.624	8932.05
632.818	8934.09
633.012	8553.17
633.206	8719.06
633.4	8833.74
633.594	8630.99
633.788	8532.69
633.982	8790.74
634.176	8610.51
634.369	8389.33
634.563	8454.87
634.757	8362.71
634.951	8393.43
635.145	8538.84
635.339	8182.49
635.533	8170.2
635.726	8262.36
635.92	8016.6
636.114	8014.56
636.308	8047.32
636.501	8184.54
636.695	7985.88
636.889	7733.98
637.083	7918.3
637.276	7750.37
637.47	7785.18
637.664	7662.3
637.857	7703.26
638.051	7744.22
638.244	7469.8
638.438	7674.59
638.632	7717.6
638.825	7480.04
639.019	7461.6
639.212	7529.19
639.406	7377.64
639.599	7416.55
639.793	7410.4
639.986	7090.92
640.18	7217.9
640.373	7254.76
640.567	7178.98
640.76	7097.07
640.954	7095.02
641.147	7004.91
641.34	6869.74
641.534	6974.19
641.727	6941.42
641.92	6691.57
642.114	6767.34
642.307	6781.68
642.5	6732.53
642.694	6589.17
642.887	6523.63
643.08	6560.5
643.273	6714.09
643.467	6587.12
643.66	6374.13
643.853	6456.05
644.046	6359.8
644.239	6269.69
644.432	6378.23
644.626	6304.5
644.819	6140.66
645.012	6324.98
645.205	6279.93
645.398	6050.55
645.591	6163.19
645.784	6185.72
645.977	6152.95
646.17	6071.03
646.363	6013.69
646.556	5815.04
646.749	5960.44
646.942	5911.29
647.135	5825.28
647.328	5640.96
647.521	5812.99
647.714	5798.65
647.907	5657.34
648.099	5767.93
648.292	5827.32
648.485	5903.1
648.678	5683.97
648.871	5690.11
649.064	5485.31
649.256	5595.9
649.449	5587.71
649.642	5473.03
649.835	5325.57
650.027	5378.82
650.22	5456.64
650.413	5432.07
650.605	5372.68
650.798	5323.52
650.991	5290.76
651.183	5282.56
651.376	5274.37
651.568	5262.09
651.761	5124.87
651.954	5208.84
652.146	5188.36
652.339	5141.25
652.531	5157.64
652.724	5133.06
652.916	4971.27
653.109	4954.89
653.301	4913.93
653.494	4932.36
653.686	4881.16
653.879	5028.62
654.071	4819.72
654.263	4805.39
654.456	4854.54
654.648	4813.58
654.84	4799.24
655.033	4739.85
655.225	4772.62
655.417	4840.2
655.61	4760.33
655.802	4606.74
655.994	4676.37
656.186	4606.74
656.379	4408.08
656.571	4524.82
656.763	4436.75
656.955	4285.2
657.148	4561.68
657.34	4436.75
657.532	4438.8
657.724	4420.37
657.916	4387.6
658.108	4408.08
658.3	4375.31
658.492	4311.83
658.684	4156.18
658.876	4215.57
659.068	4168.47
659.26	4088.6
659.452	4166.42
659.644	4076.31
659.836	4080.41
660.028	4191
660.22	4043.54
660.412	4082.46
660.604	3820.32
660.796	4094.74
660.988	3949.34
661.18	3730.2
661.372	3853.08
661.563	3939.1
661.755	3988.25
661.947	3998.49
662.139	3842.84
662.331	3793.69
662.522	3857.18
662.714	3801.88
662.906	3732.25
663.097	3781.4
663.289	3859.23
663.481	3818.27
663.673	3719.96
663.864	3785.5
664.056	3697.44
664.247	3689.25
664.439	3668.77
664.631	3658.53
664.822	3683.1
665.014	3607.33
665.205	3562.27
665.397	3521.31
665.588	3552.03
665.78	3511.07
665.971	3566.37
666.163	3613.47
666.354	3394.34
666.546	3478.3
666.737	3400.48
666.929	3420.96
667.12	3582.75
667.311	3416.87
667.503	3480.35
667.694	3441.44
667.885	3361.57
668.077	3373.86
668.268	3306.27
668.459	3408.67
668.651	3345.19
668.842	3298.08
669.033	3353.38
669.224	3124.01
669.416	3150.63
669.607	3218.21
669.798	3197.73
669.989	3293.99
670.18	3132.2
670.371	3281.7
670.563	3189.54
670.754	3214.12
670.945	3193.64
671.136	3115.81
671.327	3074.85
671.518	3058.47
671.709	3113.77
671.9	3042.09
672.091	3025.7
672.282	3087.14
672.473	3103.53
672.664	3089.19
672.855	3003.18
673.046	3222.31
673.237	2929.45
673.428	3023.66
673.619	2833.19
673.809	2941.74
674	2931.5
674.191	2925.35
674.382	2990.89
674.573	2859.82
674.764	2939.69
674.954	2876.2
675.145	2859.82
675.336	2802.47
675.527	2951.98
675.717	2939.69
675.908	2900.78
676.099	2917.16
676.289	2900.78
676.48	2847.53
676.671	2843.43
676.861	2982.7
677.052	2839.34
677.243	2708.27
677.433	2796.33
677.624	2806.57
677.814	2781.99
678.005	2716.46
678.195	2779.95
678.386	2792.23
678.576	2695.98
678.767	2628.4
678.957	2638.64
679.148	2648.88
679.338	2853.67
679.529	2779.95
679.719	2661.16
679.909	2779.95
680.1	2784.04
680.29	2779.95
680.481	2671.4
680.671	2671.4
680.861	2753.32
681.052	2796.33
681.242	2648.88
681.432	2628.4
681.622	2632.49
681.813	2761.52
682.003	2779.95
682.193	2665.26
682.383	2718.51
682.573	2741.04
682.764	2691.88
682.954	2644.78
683.144	2609.97
683.334	2558.77
683.524	2618.16
683.714	2569.01
683.904	2609.97
684.094	2677.55
684.284	2566.96
684.474	2609.97
684.664	2753.32
684.854	2515.76
685.044	2566.96
685.234	2589.49
685.424	2460.46
685.614	2482.99
685.804	2528.05
685.994	2444.08
686.184	2640.69
686.374	2505.52
686.564	2544.43
686.753	2499.38
686.943	2450.22
687.133	2540.33
687.323	2536.24
687.513	2630.45
687.702	2468.66
687.892	2431.79
688.082	2456.37
688.272	2337.59
688.461	2419.5
688.651	2446.13
688.841	2454.32
689.03	2405.17
689.22	2372.4
689.41	2450.22
689.599	2388.78
689.789	2454.32
689.979	2401.07
690.168	2431.79
690.358	2306.87
690.547	2310.96
690.737	2235.19
690.926	2370.35
691.116	2265.91
691.305	2319.15
691.495	2151.22
691.684	2276.15
691.874	2206.52
692.063	2265.91
692.252	2251.57
692.442	2278.19
692.631	2120.5
692.82	2245.43
693.01	2165.56
693.199	2206.52
693.388	2251.57
693.578	2237.24
693.767	2159.41
693.956	2167.6
694.146	2161.46
694.335	2272.05
694.524	2241.33
694.713	2159.41
694.902	2087.73
695.092	2132.79
695.281	2229.04
695.47	2175.8
695.659	2186.04
695.848	2089.78
696.037	2075.45
696.226	2157.36
696.415	2227
696.604	2155.32
696.793	2181.94
696.982	2157.36
697.171	2177.84
697.36	2038.58
697.549	2138.93
697.738	1975.1
697.927	1966.9
698.116	2159.41
698.305	2102.07
698.494	2198.32
698.683	2138.93
698.872	2130.74
699.061	2149.17
699.25	2071.35
699.438	2155.32
699.627	2163.51
699.816	2124.6
700.005	2054.97
700.193	2165.56
700.382	2186.04
700.571	2128.69
700.76	2063.16
700.948	2118.45
701.137	2140.98
701.326	2108.21
701.514	2102.07
701.703	2071.35
701.892	2151.22
702.08	2122.55
702.269	2093.88
702.457	2083.64
702.646	2224.95
702.834	2007.86
703.023	2095.93
703.212	2134.84
703.4	2091.83
703.589	2079.54
703.777	2071.35
703.965	2143.03
704.154	2042.68
704.342	2104.12
704.531	2077.49
704.719	2208.56
704.907	2149.17
705.096	2044.73
705.284	2120.5
705.472	2173.75
705.661	2198.32
705.849	2128.69
706.037	2067.25
706.226	2114.36
706.414	2175.8
706.602	2038.58
706.79	2114.36
706.979	2079.54
707.167	2130.74
707.355	2202.42
707.543	2140.98
707.731	2085.69
707.919	2239.28
708.107	2052.92
708.296	2179.89
708.484	2065.21
708.672	2202.42
708.86	2085.69
709.048	2118.45
709.236	2089.78
709.424	2102.07
709.612	2202.42
709.8	2085.69
709.988	2114.36
710.176	2147.12
710.364	2167.6
710.551	2106.17
710.739	2161.46
710.927	2073.4
711.115	2042.68
711.303	2165.56
711.491	2145.08
711.679	2063.16
711.866	2110.26
712.054	2069.3
712.242	2155.32
712.43	2253.62
712.617	2108.21
712.805	2079.54
712.993	2102.07
713.181	2067.25
713.368	2042.68
713.556	1950.52
713.744	2136.88
713.931	2181.94
714.119	2083.64
714.306	2067.25
714.494	2059.06
714.682	2065.21
714.869	2007.86
715.057	2079.54
715.244	2212.66
715.432	2167.6
715.619	2011.96
715.807	2175.8
715.994	2073.4
716.182	2097.97
716.369	2050.87
716.556	2071.35
716.744	2050.87
716.931	2204.47
717.119	2104.12
717.306	2112.31
717.493	2128.69
717.681	2140.98
717.868	1925.94
718.055	2040.63
718.242	2046.77
718.43	2110.26
718.617	2091.83
718.804	2050.87
718.991	2108.21
719.179	2112.31
719.366	2032.44
719.553	2022.2
719.74	2110.26
719.927	2159.41
720.114	1954.62
720.301	2046.77
720.488	2097.97
720.676	1966.9
720.863	2024.25
721.05	2075.45
721.237	2151.22
721.424	2159.41
721.611	2034.49
721.798	2089.78
721.985	2046.77
722.172	2116.41
722.358	2128.69
722.545	2124.6
722.732	2138.93
722.919	2059.06
723.106	2005.81
723.293	1981.24
723.48	2130.74
723.667	2014.01
723.853	2140.98
724.04	2083.64
724.227	2046.77
724.414	2083.64
724.6	2024.25
724.787	1999.67
724.974	2050.87
725.161	2089.78
725.347	2022.2
725.534	2120.5
725.72	2016.05
725.907	2104.12
726.094	2052.92
726.28	2030.39
726.467	1911.61
726.653	2022.2
726.84	2018.1
727.027	2130.74
727.213	1956.66
727.4	2065.21
727.586	1964.86
727.773	2077.49
727.959	2016.05
728.145	2016.05
728.332	1997.62
728.518	2024.25
728.705	2210.61
728.891	2093.88
729.077	1909.56
729.264	2100.02
729.45	2020.15
729.636	2075.45
729.823	1938.23
730.009	2061.11
730.195	1962.81
730.382	2220.85
730.568	1946.42
730.754	2077.49
730.94	2063.16
731.126	2020.15
731.313	2016.05
731.499	2036.53
731.685	2075.45
731.871	2003.77
732.057	2108.21
732.243	1938.23
732.429	2077.49
732.615	2069.3
732.801	2036.53
732.987	2122.55
733.173	1981.24
733.359	1983.29
733.545	2052.92
733.731	2050.87
733.917	2108.21
734.103	2085.69
734.289	1991.48
734.475	1944.38
734.661	2014.01
734.847	2110.26
735.033	1979.19
735.219	2044.73
735.404	1923.9
735.59	1979.19
735.776	1991.48
735.962	2018.1
736.148	1954.62
736.333	1934.14
736.519	1913.66
736.705	2059.06
736.89	1925.94
737.076	1925.94
737.262	1917.75
737.447	2046.77
737.633	1950.52
737.819	1966.9
738.004	1956.66
738.19	1938.23
738.375	1917.75
738.561	1925.94
738.747	1950.52
738.932	1868.6
739.118	1919.8
739.303	1897.27
739.489	1966.9
739.674	1823.55
739.859	1925.94
740.045	1823.55
740.23	1977.14
740.416	1829.69
740.601	1794.87
740.786	1948.47
740.972	1864.5
741.157	1864.5
741.342	1788.73
741.528	1827.64
741.713	1774.39
741.898	1850.17
742.084	1889.08
742.269	1731.39
742.454	1880.89
742.639	1844.03
742.824	1811.26
743.01	1811.26
743.195	1823.55
743.38	1841.98
743.565	1796.92
743.75	1772.35
743.935	1749.82
744.12	1887.03
744.305	1770.3
744.49	1854.27
744.675	1731.39
744.86	1723.2
745.045	1768.25
745.23	1755.96
745.415	1659.71
745.6	1751.87
745.785	1594.17
745.97	1747.77
746.155	1692.48
746.34	1782.59
746.525	1686.33
746.71	1610.56
746.895	1723.2
747.079	1569.6
747.264	1684.28
747.449	1690.43
747.634	1684.28
747.819	1729.34
748.003	1561.41
748.188	1700.67
748.373	1596.22
748.557	1620.8
748.742	1504.06
748.927	1502.01
749.111	1635.13
749.296	1456.96
749.481	1520.45
749.665	1571.65
749.85	1442.62
750.034	1555.26
750.219	1446.72
750.404	1454.91
750.588	1522.49
750.773	1491.77
750.957	1465.15
751.141	1463.1
751.326	1467.2
751.51	1502.01
751.695	1438.53
751.879	1430.34
752.064	1469.25
752.248	1393.47
752.432	1385.28
752.617	1477.44
752.801	1397.57
752.985	1405.76
753.17	1430.34
753.354	1291.07
753.538	1391.42
753.722	1301.31
753.907	1291.07
754.091	1217.35
754.275	1370.94
754.459	1250.11
754.643	1305.41
754.828	1293.12
755.012	1174.34
755.196	1252.16
755.38	1297.22
755.564	1198.92
755.748	1155.91
755.932	1205.06
756.116	1264.45
756.3	1305.41
756.484	1254.21
756.668	1205.06
756.852	1229.63
757.036	1162.05
757.22	1082.18
757.404	1071.94
757.588	1137.48
757.772	1182.53
757.956	1147.72
758.14	1170.24
758.323	1155.91
758.507	1078.08
758.691	1055.56
758.875	1145.67
759.059	1000.26
759.242	1008.45
759.426	1098.56
759.61	1078.08
759.794	942.92
759.977	1018.69
760.161	949.06
760.345	1106.76
760.528	1133.38
760.712	1063.75
760.895	1010.5
761.079	1147.72
761.263	1010.5
761.446	1010.5
761.63	1000.26
761.813	1090.37
761.997	953.16
762.18	1018.69
762.364	1018.69
762.547	953.16
762.731	1028.93
762.914	977.73
763.098	1014.6
763.281	947.01
763.464	914.25
763.648	904.01
763.831	867.14
764.015	936.78
764.198	918.34
764.381	936.78
764.564	918.34
764.748	934.73
764.931	828.23
765.114	852.81
765.297	854.86
765.481	897.86
765.664	858.95
765.847	846.66
766.03	887.62
766.213	822.09
766.397	955.21
766.58	893.77
766.763	856.9
766.946	922.44
767.129	848.71
767.312	912.2
767.495	828.23
767.678	879.43
767.861	844.62
768.044	793.42
768.227	826.18
768.41	826.18
768.593	783.18
768.776	842.57
768.959	891.72
769.142	824.14
769.324	822.09
769.507	904.01
769.69	770.89
769.873	772.94
770.056	777.03
770.239	783.18
770.421	789.32
770.604	807.75
770.787	785.23
770.97	799.56
771.152	834.38
771.335	729.93
771.518	785.23
771.7	809.8
771.883	824.14
772.066	754.51
772.248	760.65
772.431	805.71
772.613	785.23
772.796	783.18
772.978	848.71
773.161	838.47
773.343	791.37
773.526	723.79
773.708	629.58
773.891	643.92
774.073	762.7
774.256	648.01
774.438	746.31
774.621	707.4
774.803	756.55
774.985	707.4
775.168	635.72
775.35	676.68
775.532	715.59
775.715	734.03
775.897	758.6
776.079	637.77
776.261	668.49
776.444	615.24
776.626	615.24
776.808	674.64
776.99	600.91
777.173	658.25
777.355	613.2
777.537	611.15
777.719	605
777.901	643.92
778.083	631.63
778.265	658.25
778.447	639.82
778.629	518.99
778.811	617.29
778.993	633.68
779.175	545.61
779.357	607.05
779.539	637.77
779.721	492.37
779.903	582.48
780.085	617.29
780.267	514.89
780.449	590.67
780.631	578.38
780.812	582.48
780.994	578.38
781.176	486.22
781.358	508.75
781.54	465.74
781.721	471.89
781.903	590.67
782.085	510.8
782.267	537.42
782.448	506.7
782.63	496.46
782.812	439.12
782.993	492.37
783.175	564.04
783.357	480.08
783.538	445.26
783.72	449.36
783.901	500.56
784.083	504.65
784.264	406.35
784.446	420.69
784.627	473.93
784.809	478.03
784.99	410.45
785.172	506.7
785.353	480.08
785.535	420.69
785.716	371.54
785.897	357.2
786.079	488.27
786.26	406.35
786.441	410.45
786.623	351.06
786.804	435.02
786.985	389.97
787.167	430.93
787.348	480.08
787.529	369.49
787.71	365.39
787.891	406.35
788.073	398.16
788.254	303.95
788.435	381.78
788.616	394.06
788.797	392.02
788.978	369.49
789.159	351.06
789.34	318.29
789.522	301.9
789.703	398.16
789.884	381.78
790.065	289.62
790.246	449.36
790.427	312.14
790.607	363.34
790.788	373.58
790.969	299.86
791.15	344.91
791.331	410.45
791.512	392.02
791.693	256.85
791.874	330.58
792.054	326.48
792.235	328.53
792.416	203.6
792.597	344.91
792.778	353.1
792.958	308.05
793.139	285.52
793.32	234.32
793.5	289.62
793.681	404.3
793.862	217.94
794.042	254.8
794.223	312.14
794.404	242.51
794.584	207.7
794.765	244.56
794.945	240.47
795.126	383.82
795.306	277.33
795.487	279.38
795.667	215.89
795.848	279.38
796.028	265.04
796.209	379.73
796.389	289.62
796.57	250.71
796.75	191.31
796.93	242.51
797.111	265.04
797.291	254.8
797.471	338.77
797.652	222.03
797.832	291.66
798.012	316.24
798.192	258.9
798.373	207.7
798.553	308.05
798.733	248.66
798.913	281.43
799.093	271.19
799.274	215.89
799.454	326.48
799.634	271.19
799.814	256.85
799.994	256.85
800.174	254.8
800.354	291.66
800.534	201.55
800.714	277.33
800.894	258.9
801.074	291.66
801.254	230.23
801.434	209.75
801.614	242.51
801.794	242.51
801.974	559.95
802.154	183.12
802.334	199.51
802.514	199.51
802.693	209.75
802.873	228.18
803.053	232.27
803.233	250.71
803.413	222.03
803.592	213.84
803.772	201.55
803.952	201.55
804.131	197.46
804.311	242.51
804.491	238.42
804.67	183.12
804.85	246.61
805.03	172.88
805.209	224.08
805.389	213.84
805.568	176.98
805.748	170.83
805.928	158.55
806.107	162.64
806.287	162.64
806.466	248.66
806.646	197.46
806.825	209.75
807.004	195.41
807.184	136.02
807.363	238.42
807.543	252.75
807.722	222.03
807.901	160.59
808.081	187.22
808.26	179.03
808.439	138.07
808.619	127.83
808.798	215.89
808.977	183.12
809.156	205.65
809.336	76.63
809.515	140.12
809.694	99.16
809.873	154.45
810.052	160.59
810.231	267.09
810.411	201.55
810.59	150.36
810.769	230.23
810.948	146.26
811.127	123.73
811.306	148.31
811.485	111.44
811.664	144.21
811.843	117.59
812.022	103.25
812.201	125.78
812.38	136.02
812.559	183.12
812.737	232.27
812.916	78.68
813.095	217.94
813.274	199.51
813.453	138.07
813.632	78.68
813.811	138.07
813.989	131.92
814.168	103.25
814.347	125.78
814.526	176.98
814.704	234.32
814.883	95.06
815.062	113.49
815.24	148.31
815.419	76.63
815.598	164.69
815.776	54.1
815.955	133.97
816.133	146.26
816.312	103.25
816.49	185.17
816.669	82.77
816.847	97.11
817.026	127.83
817.204	86.87
817.383	142.16
817.561	27.48
817.74	156.5
817.918	131.92
818.097	187.22
818.275	80.72
818.453	154.45
818.632	158.55
818.81	125.78
818.988	119.64
819.167	103.25
819.345	121.68
819.523	97.11
819.701	95.06
819.879	125.78
820.058	119.64
820.236	95.06
820.414	142.16
820.592	62.29
820.77	160.59
820.948	90.96
821.127	150.36
821.305	111.44
821.483	95.06
821.661	119.64
821.839	84.82
822.017	119.64
822.195	72.53
822.373	127.83
822.551	127.83
822.729	103.25
822.907	86.87
823.085	78.68
823.262	125.78
823.44	113.49
823.618	193.36
823.796	158.55
823.974	97.11
824.152	72.53
824.329	148.31
824.507	148.31
824.685	90.96
824.863	123.73
825.04	72.53
825.218	72.53
825.396	62.29
825.574	152.4
825.751	95.06
825.929	107.35
826.107	82.77
826.284	101.2
826.462	70.48
826.639	97.11
826.817	90.96
826.994	136.02
827.172	129.88
827.349	197.46
827.527	197.46
827.704	50
827.882	72.53
828.059	82.77
828.237	93.01
828.414	78.68
828.591	37.72
828.769	142.16
828.946	103.25
829.124	131.92
829.301	25.43
829.478	117.59
829.655	70.48
829.833	27.48
830.01	54.1
830.187	107.35
830.364	103.25
830.542	140.12
830.719	142.16
830.896	131.92
831.073	60.24
831.25	119.64
831.427	166.74
831.604	82.77
831.782	86.87
831.959	103.25
832.136	58.2
832.313	86.87
832.49	84.82
832.667	93.01
832.844	47.96
833.021	72.53
833.198	60.24
833.374	72.53
833.551	82.77
833.728	95.06
833.905	66.39
834.082	105.3
834.259	56.15
834.436	129.88
834.612	60.24
834.789	45.91
834.966	97.11
835.143	90.96
835.319	47.96
835.496	119.64
835.673	88.92
835.85	129.88
836.026	68.44
836.203	88.92
836.38	88.92
836.556	97.11
836.733	90.96
836.909	93.01
837.086	21.33
837.262	154.45
837.439	93.01
837.616	74.58
837.792	111.44
837.968	52.05
838.145	95.06
838.321	121.68
838.498	15.19
838.674	0.85
838.851	47.96
839.027	62.29
839.203	84.82
839.38	72.53
839.556	37.72
839.732	90.96
839.909	76.63
840.085	13.14
840.261	47.96
840.437	23.38
840.614	13.14
840.79	86.87
840.966	60.24
841.142	54.1
841.318	45.91
841.494	109.4
841.671	86.87
841.847	41.81
842.023	27.48
842.199	181.07
842.375	50
842.551	-1.19
842.727	60.24
842.903	115.54
843.079	39.76
843.255	123.73
843.431	45.91
843.607	93.01
843.783	70.48
843.959	47.96
844.134	45.91
844.31	125.78
844.486	-3.24
844.662	35.67
844.838	99.16
845.013	93.01
845.189	99.16
845.365	29.52
845.541	72.53
845.716	54.1
845.892	103.25
846.068	17.24
846.244	93.01
846.419	113.49
846.595	-7.34
846.77	99.16
846.946	86.87
847.122	43.86
847.297	70.48
847.473	168.79
847.648	62.29
847.824	27.48
847.999	-1.19
848.175	47.96
848.35	64.34
848.526	123.73
848.701	105.3
848.876	127.83
849.052	54.1
849.227	37.72
849.403	82.77
849.578	41.81
849.753	29.52
849.929	37.72
850.104	-7.34
850.279	70.48
850.454	76.63
850.63	45.91
850.805	-1.19
850.98	66.39
851.155	23.38
851.33	103.25
851.505	62.29
851.681	66.39
851.856	74.58
852.031	58.2
852.206	33.62
852.381	37.72
852.556	-11.43
852.731	62.29
852.906	35.67
853.081	15.19
853.256	21.33
853.431	-7.34
853.606	-11.43
853.781	13.14
853.956	9.05
854.131	43.86
854.305	54.1
854.48	21.33
854.655	103.25
854.83	-9.39
855.005	37.72
855.18	4.95
855.354	50
855.529	23.38
855.704	37.72
855.879	23.38
856.053	-15.53
856.228	60.24
856.403	37.72
856.577	54.1
856.752	113.49
856.926	9.05
857.101	11.09
857.276	15.19
857.45	-13.48
857.625	70.48
857.799	19.29
857.974	25.43
858.148	4.95
858.323	58.2
858.497	64.34
858.672	-7.34
858.846	0.85
859.02	109.4
859.195	-33.96
859.369	58.2
859.543	27.48
859.718	33.62
859.892	33.62
860.066	56.15
860.241	11.09
860.415	60.24
860.589	31.57
860.763	17.24
860.938	47.96
861.112	74.58
861.286	-3.24
861.46	19.29
861.634	13.14
861.808	82.77
861.982	-42.15
862.157	-40.11
862.331	64.34
862.505	82.77
862.679	82.77
862.853	23.38
863.027	31.57
863.201	66.39
863.375	90.96
863.549	84.82
863.722	50
863.896	150.36
864.07	-56.49
864.244	80.72
864.418	-9.39
864.592	33.62
864.766	21.33
864.939	35.67
865.113	2.9
865.287	39.76
865.461	-27.82
865.634	-3.24
865.808	43.86
865.982	-15.53
866.156	54.1
866.329	54.1
866.503	27.48
866.676	-38.06
866.85	4.95
867.024	-42.15
867.197	23.38
867.371	93.01
867.544	52.05
867.718	68.44
867.891	115.54
868.065	115.54
868.238	19.29
868.412	45.91
868.585	15.19
868.759	-29.87
868.932	15.19
869.105	-11.43
869.279	11.09
869.452	58.2
869.625	39.76
869.799	25.43
869.972	78.68
870.145	58.2
870.319	88.92
870.492	50
870.665	-11.43
870.838	52.05
871.011	13.14
871.185	95.06
871.358	52.05
871.531	23.38
871.704	45.91
871.877	58.2
872.05	33.62
872.223	39.76
872.396	-17.58
872.569	-52.39
872.742	19.29
872.915	9.05
873.088	62.29
873.261	2.9
873.434	29.52
873.607	9.05
873.78	58.2
873.953	-31.91
874.126	52.05
874.299	13.14
874.471	-3.24
874.644	80.72
874.817	25.43
874.99	58.2
875.163	-1.19
875.335	29.52
875.508	35.67
875.681	9.05
875.853	23.38
876.026	27.48
876.199	19.29
876.371	101.2
876.544	-5.29
876.717	78.68
876.889	39.76
877.062	17.24
877.234	52.05
877.407	70.48
877.579	2.9
877.752	-27.82
877.924	25.43
878.097	56.15
878.269	17.24
878.442	54.1
878.614	101.2
878.786	27.48
878.959	37.72
879.131	19.29
879.303	13.14
879.476	23.38
879.648	21.33
879.82	47.96
879.993	70.48
880.165	-9.39
880.337	-58.54
880.509	62.29
880.681	-7.34
880.854	-13.48
881.026	-19.63
881.198	-58.54
881.37	35.67
881.542	68.44
881.714	60.24
881.886	19.29
882.058	-7.34
882.23	31.57
882.402	-11.43
882.574	-15.53
882.746	86.87
882.918	99.16
883.09	-62.63
883.262	15.19
883.434	-62.63
883.606	37.72
883.778	-31.91
883.95	-1.19
884.122	-27.82
884.293	35.67
884.465	19.29
884.637	90.96
884.809	-56.49
884.98	80.72
885.152	78.68
885.324	68.44
885.496	33.62
885.667	54.1
885.839	-27.82
886.011	19.29
886.182	45.91
886.354	97.11
886.525	-36.01
886.697	-15.53
886.869	33.62
887.04	0.85
887.212	4.95
887.383	66.39
887.555	23.38
887.726	29.52
887.897	-17.58
888.069	-58.54
888.24	11.09
888.412	29.52
888.583	37.72
888.754	-11.43
888.926	21.33
889.097	37.72
889.268	-85.16
889.44	56.15
889.611	19.29
889.782	-42.15
889.953	23.38
890.125	4.95
890.296	45.91
890.467	-3.24
890.638	-21.67
890.809	66.39
890.98	-36.01
891.151	-5.29
891.323	25.43
891.494	19.29
891.665	4.95
891.836	58.2
892.007	31.57
892.178	33.62
892.349	66.39
892.52	41.81
892.691	-48.3
892.862	21.33
893.032	4.95
893.203	101.2
893.374	23.38
893.545	103.25
893.716	15.19
893.887	62.29
894.057	-29.87
894.228	17.24
894.399	-25.77
894.57	50
894.74	35.67
894.911	88.92
895.082	-7.34
895.253	-40.11
895.423	101.2
895.594	60.24
895.764	103.25
895.935	17.24
896.106	64.34
896.276	-33.96
896.447	90.96
896.617	-11.43
896.788	21.33
896.958	25.43
897.129	-64.68
897.299	23.38
897.47	25.43
897.64	72.53
897.81	17.24
897.981	-25.77
898.151	-25.77
898.322	86.87
898.492	78.68
898.662	-83.11
898.832	-21.67
899.003	-15.53
899.173	2.9
899.343	-1.19
899.513	-33.96
