Data from USB4F104151__162__11-08-46-968.txt Node

Date: Wed Mar 12 11:08:46 EDT 2025
User: louis
Spectrometer: USB4F10415
Trigger mode: 4
Integration Time (sec): 2.000000E-2
Scans to average: 1
Electric dark correction enabled: true
Nonlinearity correction enabled: false
Boxcar width: 0
XAxis mode: Wavelengths
Number of Pixels in Spectrum: 3648
>>>>>Begin Spectral Data<<<<<
178.204	-91.82
178.424	-91.82
178.644	-91.82
178.864	-106.15
179.084	-134.82
179.304	16.73
179.524	0.34
179.744	-36.52
179.964	-11.95
180.184	35.16
180.404	57.68
180.624	-46.76
180.844	-30.38
181.064	-26.28
181.283	10.58
181.503	-16.04
181.723	47.44
181.943	-95.91
182.163	37.2
182.383	-11.95
182.602	-1.71
182.822	18.77
183.042	6.49
183.262	-54.95
183.482	-5.8
183.701	-11.95
183.921	-95.91
184.141	53.59
184.361	12.63
184.58	8.53
184.8	53.59
185.02	-63.15
185.239	0.34
185.459	-7.85
185.679	82.26
185.898	-26.28
186.118	4.44
186.338	22.87
186.557	18.77
186.777	-24.23
186.997	-16.04
187.216	-32.43
187.436	127.32
187.655	4.44
187.875	43.35
188.095	-7.85
188.314	-28.33
188.534	18.77
188.753	4.44
188.973	74.07
189.192	49.49
189.412	43.35
189.631	-7.85
189.851	55.64
190.07	-1.71
190.29	-24.23
190.509	-7.85
190.729	-44.71
190.948	-79.53
191.168	76.12
191.387	22.87
191.607	57.68
191.826	-63.15
192.045	-18.09
192.265	33.11
192.484	-44.71
192.704	2.39
192.923	-22.19
193.142	78.16
193.362	0.34
193.581	20.82
193.8	8.53
194.02	22.87
194.239	-18.09
194.458	-26.28
194.678	16.73
194.897	8.53
195.116	45.4
195.335	-7.85
195.555	-18.09
195.774	-24.23
195.993	31.06
196.212	78.16
196.432	8.53
196.651	-11.95
196.87	2.39
197.089	49.49
197.308	-44.71
197.528	37.2
197.747	-7.85
197.966	-32.43
198.185	4.44
198.404	63.83
198.623	20.82
198.842	-20.14
199.062	-89.77
199.281	12.63
199.5	-3.75
199.719	-5.8
199.938	47.44
200.157	65.88
200.376	-11.95
200.595	8.53
200.814	29.01
201.033	33.11
201.252	31.06
201.471	-7.85
201.69	6.49
201.909	55.64
202.128	45.4
202.347	-28.33
202.566	-28.33
202.785	-83.63
203.004	-36.52
203.223	22.87
203.442	-7.85
203.661	-32.43
203.879	26.96
204.098	8.53
204.317	41.3
204.536	12.63
204.755	-9.9
204.974	-5.8
205.193	57.68
205.411	59.73
205.63	-5.8
205.849	4.44
206.068	-22.19
206.287	22.87
206.505	43.35
206.724	-128.68
206.943	-36.52
207.162	26.96
207.381	-13.99
207.599	-7.85
207.818	14.68
208.037	-18.09
208.255	-52.91
208.474	0.34
208.693	45.4
208.911	-63.15
209.13	26.96
209.349	2.39
209.567	-18.09
209.786	-40.62
210.005	37.2
210.223	-34.47
210.442	-18.09
210.661	39.25
210.879	26.96
211.098	-18.09
211.316	-5.8
211.535	-9.9
211.753	-52.91
211.972	88.4
212.191	41.3
212.409	33.11
212.628	-3.75
212.846	45.4
213.065	6.49
213.283	96.6
213.502	-59.05
213.72	12.63
213.938	14.68
214.157	39.25
214.375	-48.81
214.594	4.44
214.812	-13.99
215.031	31.06
215.249	-44.71
215.467	-9.9
215.686	12.63
215.904	57.68
216.122	-40.62
216.341	41.3
216.559	39.25
216.778	20.82
216.996	-30.38
217.214	0.34
217.432	0.34
217.651	2.39
217.869	0.34
218.087	-1.71
218.306	37.2
218.524	69.97
218.742	31.06
218.96	-40.62
219.179	-106.15
219.397	35.16
219.615	47.44
219.833	35.16
220.051	76.12
220.27	-81.58
220.488	37.2
220.706	22.87
220.924	-44.71
221.142	2.39
221.36	-30.38
221.578	12.63
221.796	18.77
222.015	35.16
222.233	-7.85
222.451	88.4
222.669	22.87
222.887	-13.99
223.105	-57
223.323	-13.99
223.541	-11.95
223.759	-3.75
223.977	-24.23
224.195	-26.28
224.413	51.54
224.631	39.25
224.849	39.25
225.067	20.82
225.285	86.36
225.503	12.63
225.721	-20.14
225.939	-18.09
226.157	51.54
226.375	67.92
226.592	-97.96
226.81	-9.9
227.028	-20.14
227.246	51.54
227.464	45.4
227.682	55.64
227.9	-3.75
228.117	-77.48
228.335	0.34
228.553	18.77
228.771	10.58
228.989	59.73
229.206	29.01
229.424	-7.85
229.642	-26.28
229.86	41.3
230.077	18.77
230.295	53.59
230.513	26.96
230.731	-24.23
230.948	26.96
231.166	41.3
231.384	22.87
231.601	-36.52
231.819	-11.95
232.037	8.53
232.254	-16.04
232.472	47.44
232.689	-91.82
232.907	16.73
233.125	-1.71
233.342	-22.19
233.56	86.36
233.777	0.34
233.995	22.87
234.213	2.39
234.43	8.53
234.648	-18.09
234.865	67.92
235.083	16.73
235.3	-44.71
235.518	53.59
235.735	59.73
235.953	6.49
236.17	22.87
236.388	82.26
236.605	88.4
236.822	61.78
237.04	57.68
237.257	8.53
237.475	-83.63
237.692	61.78
237.909	18.77
238.127	55.64
238.344	67.92
238.562	31.06
238.779	-34.47
238.996	121.17
239.214	51.54
239.431	-5.8
239.648	12.63
239.865	72.02
240.083	-57
240.3	2.39
240.517	-57
240.735	-13.99
240.952	53.59
241.169	67.92
241.386	-26.28
241.603	20.82
241.821	-54.95
242.038	37.2
242.255	16.73
242.472	-20.14
242.689	-18.09
242.907	45.4
243.124	12.63
243.341	26.96
243.558	-30.38
243.775	-1.71
243.992	-28.33
244.209	57.68
244.426	47.44
244.643	31.06
244.86	-3.75
245.078	-44.71
245.295	22.87
245.512	-20.14
245.729	-59.05
245.946	8.53
246.163	10.58
246.38	16.73
246.597	0.34
246.814	-28.33
247.031	-7.85
247.248	0.34
247.464	39.25
247.681	22.87
247.898	8.53
248.115	-26.28
248.332	29.01
248.549	-16.04
248.766	59.73
248.983	-22.19
249.2	4.44
249.417	-28.33
249.633	-69.29
249.85	0.34
250.067	12.63
250.284	45.4
250.501	-38.57
250.717	-5.8
250.934	-61.1
251.151	35.16
251.368	41.3
251.585	20.82
251.801	43.35
252.018	12.63
252.235	35.16
252.451	-9.9
252.668	59.73
252.885	10.58
253.102	6.49
253.318	-11.95
253.535	-16.04
253.752	-67.24
253.968	55.64
254.185	29.01
254.401	-7.85
254.618	-7.85
254.835	-59.05
255.051	-20.14
255.268	16.73
255.484	49.49
255.701	10.58
255.917	31.06
256.134	-18.09
256.351	0.34
256.567	-34.47
256.784	22.87
257	-48.81
257.217	8.53
257.433	47.44
257.65	-9.9
257.866	47.44
258.082	100.69
258.299	-9.9
258.515	43.35
258.732	8.53
258.948	49.49
259.165	2.39
259.381	43.35
259.597	10.58
259.814	22.87
260.03	-26.28
260.246	33.11
260.463	-118.44
260.679	53.59
260.895	61.78
261.112	-32.43
261.328	-11.95
261.544	-32.43
261.761	33.11
261.977	10.58
262.193	12.63
262.409	-1.71
262.626	-46.76
262.842	37.2
263.058	-7.85
263.274	53.59
263.49	-52.91
263.707	-1.71
263.923	4.44
264.139	-46.76
264.355	-13.99
264.571	-32.43
264.787	-16.04
265.004	-1.71
265.22	-36.52
265.436	24.92
265.652	-1.71
265.868	24.92
266.084	26.96
266.3	8.53
266.516	-46.76
266.732	26.96
266.948	33.11
267.164	-28.33
267.38	43.35
267.596	74.07
267.812	20.82
268.028	-22.19
268.244	4.44
268.46	8.53
268.676	-16.04
268.892	104.79
269.108	29.01
269.324	4.44
269.54	10.58
269.756	41.3
269.972	6.49
270.188	35.16
270.403	-20.14
270.619	-1.71
270.835	-52.91
271.051	22.87
271.267	18.77
271.483	16.73
271.698	37.2
271.914	37.2
272.13	43.35
272.346	-42.67
272.562	18.77
272.777	45.4
272.993	59.73
273.209	49.49
273.425	8.53
273.64	-34.47
273.856	45.4
274.072	33.11
274.287	-32.43
274.503	-13.99
274.719	-13.99
274.934	-40.62
275.15	-42.67
275.366	49.49
275.581	33.11
275.797	29.01
276.012	45.4
276.228	8.53
276.444	16.73
276.659	94.55
276.875	-11.95
277.09	-24.23
277.306	-48.81
277.521	0.34
277.737	33.11
277.952	0.34
278.168	10.58
278.383	8.53
278.599	2.39
278.814	-59.05
279.03	4.44
279.245	65.88
279.461	2.39
279.676	35.16
279.892	29.01
280.107	72.02
280.322	43.35
280.538	16.73
280.753	-42.67
280.969	14.68
281.184	112.98
281.399	16.73
281.615	84.31
281.83	-26.28
282.045	-24.23
282.26	51.54
282.476	-1.71
282.691	51.54
282.906	80.21
283.122	-26.28
283.337	37.2
283.552	-13.99
283.767	49.49
283.983	0.34
284.198	14.68
284.413	16.73
284.628	26.96
284.843	74.07
285.058	2.39
285.274	-16.04
285.489	-11.95
285.704	41.3
285.919	49.49
286.134	-24.23
286.349	-85.67
286.564	4.44
286.779	6.49
286.995	-36.52
287.21	-67.24
287.425	16.73
287.64	16.73
287.855	16.73
288.07	-20.14
288.285	78.16
288.5	22.87
288.715	139.6
288.93	-77.48
289.145	-9.9
289.36	-30.38
289.575	-22.19
289.79	72.02
290.004	-75.43
290.219	37.2
290.434	-89.77
290.649	4.44
290.864	-1.71
291.079	-9.9
291.294	106.84
291.509	-46.76
291.724	16.73
291.938	-61.1
292.153	12.63
292.368	-7.85
292.583	49.49
292.798	67.92
293.012	51.54
293.227	39.25
293.442	-18.09
293.657	74.07
293.871	39.25
294.086	12.63
294.301	43.35
294.516	-24.23
294.73	18.77
294.945	20.82
295.16	33.11
295.374	6.49
295.589	6.49
295.804	14.68
296.018	47.44
296.233	-24.23
296.447	137.56
296.662	78.16
296.877	37.2
297.091	20.82
297.306	49.49
297.52	45.4
297.735	43.35
297.949	41.3
298.164	-30.38
298.378	-59.05
298.593	26.96
298.807	-44.71
299.022	-38.57
299.236	61.78
299.451	33.11
299.665	20.82
299.88	-28.33
300.094	108.88
300.309	-7.85
300.523	49.49
300.737	41.3
300.952	53.59
301.166	10.58
301.381	-79.53
301.595	-57
301.809	65.88
302.024	90.45
302.238	0.34
302.452	20.82
302.667	22.87
302.881	65.88
303.095	-5.8
303.309	74.07
303.524	20.82
303.738	-16.04
303.952	-69.29
304.166	6.49
304.381	-32.43
304.595	55.64
304.809	29.01
305.023	65.88
305.237	2.39
305.452	-13.99
305.666	31.06
305.88	-7.85
306.094	2.39
306.308	33.11
306.522	-42.67
306.736	31.06
306.95	20.82
307.164	-7.85
307.379	-48.81
307.593	31.06
307.807	-1.71
308.021	0.34
308.235	-24.23
308.449	-48.81
308.663	-18.09
308.877	82.26
309.091	51.54
309.305	33.11
309.519	14.68
309.733	41.3
309.947	2.39
310.161	37.2
310.374	61.78
310.588	47.44
310.802	-18.09
311.016	-13.99
311.23	4.44
311.444	-24.23
311.658	0.34
311.872	65.88
312.085	78.16
312.299	2.39
312.513	-54.95
312.727	-20.14
312.941	-24.23
313.154	41.3
313.368	-18.09
313.582	39.25
313.796	39.25
314.009	31.06
314.223	-1.71
314.437	29.01
314.651	-77.48
314.864	-11.95
315.078	67.92
315.292	-54.95
315.505	-22.19
315.719	86.36
315.933	14.68
316.146	26.96
316.36	-28.33
316.573	12.63
316.787	-28.33
317.001	104.79
317.214	47.44
317.428	-7.85
317.641	16.73
317.855	-22.19
318.068	0.34
318.282	-32.43
318.495	14.68
318.709	12.63
318.922	12.63
319.136	29.01
319.349	57.68
319.563	-44.71
319.776	20.82
319.99	31.06
320.203	35.16
320.417	59.73
320.63	37.2
320.843	61.78
321.057	78.16
321.27	-22.19
321.483	18.77
321.697	98.64
321.91	12.63
322.124	65.88
322.337	8.53
322.55	-7.85
322.763	16.73
322.977	-7.85
323.19	-34.47
323.403	-13.99
323.617	0.34
323.83	43.35
324.043	-30.38
324.256	18.77
324.469	-52.91
324.683	61.78
324.896	-9.9
325.109	43.35
325.322	-24.23
325.535	-30.38
325.748	53.59
325.962	24.92
326.175	0.34
326.388	45.4
326.601	-32.43
326.814	-9.9
327.027	-13.99
327.24	0.34
327.453	37.2
327.666	24.92
327.879	47.44
328.092	74.07
328.305	-3.75
328.518	20.82
328.731	-13.99
328.944	-30.38
329.157	-13.99
329.37	-16.04
329.583	-1.71
329.796	24.92
330.009	-22.19
330.222	33.11
330.435	-11.95
330.648	69.97
330.861	61.78
331.073	39.25
331.286	22.87
331.499	43.35
331.712	-36.52
331.925	61.78
332.138	43.35
332.35	53.59
332.563	-32.43
332.776	37.2
332.989	16.73
333.202	-13.99
333.414	41.3
333.627	12.63
333.84	51.54
334.053	33.11
334.265	4.44
334.478	72.02
334.691	45.4
334.903	18.77
335.116	35.16
335.329	49.49
335.541	4.44
335.754	-28.33
335.966	-34.47
336.179	37.2
336.392	22.87
336.604	-34.47
336.817	8.53
337.029	-24.23
337.242	31.06
337.454	22.87
337.667	10.58
337.88	16.73
338.092	76.12
338.305	29.01
338.517	20.82
338.729	39.25
338.942	16.73
339.154	12.63
339.367	-50.86
339.579	-11.95
339.792	-24.23
340.004	0.34
340.217	-22.19
340.429	55.64
340.641	37.2
340.854	29.01
341.066	22.87
341.278	49.49
341.491	45.4
341.703	43.35
341.915	-20.14
342.128	33.11
342.34	74.07
342.552	-42.67
342.764	-85.67
342.977	-7.85
343.189	37.2
343.401	29.01
343.613	-3.75
343.826	43.35
344.038	18.77
344.25	53.59
344.462	59.73
344.674	29.01
344.886	20.82
345.099	43.35
345.311	-11.95
345.523	61.78
345.735	8.53
345.947	12.63
346.159	-3.75
346.371	35.16
346.583	20.82
346.795	20.82
347.007	14.68
347.219	57.68
347.431	41.3
347.643	18.77
347.855	-16.04
348.067	47.44
348.279	-13.99
348.491	4.44
348.703	6.49
348.915	20.82
349.127	20.82
349.339	55.64
349.551	33.11
349.763	53.59
349.975	-9.9
350.187	78.16
350.399	61.78
350.61	108.88
350.822	-18.09
351.034	33.11
351.246	-91.82
351.458	22.87
351.669	12.63
351.881	59.73
352.093	22.87
352.305	10.58
352.517	29.01
352.728	16.73
352.94	-1.71
353.152	2.39
353.363	-20.14
353.575	45.4
353.787	26.96
353.999	49.49
354.21	86.36
354.422	-73.39
354.633	2.39
354.845	-28.33
355.057	-18.09
355.268	63.83
355.48	29.01
355.692	-28.33
355.903	72.02
356.115	65.88
356.326	0.34
356.538	-61.1
356.749	49.49
356.961	57.68
357.172	94.55
357.384	16.73
357.595	29.01
357.807	-38.57
358.018	29.01
358.23	61.78
358.441	59.73
358.653	-38.57
358.864	-52.91
359.075	-22.19
359.287	45.4
359.498	57.68
359.709	74.07
359.921	18.77
360.132	24.92
360.344	14.68
360.555	-46.76
360.766	76.12
360.977	49.49
361.189	-3.75
361.4	12.63
361.611	14.68
361.823	-30.38
362.034	39.25
362.245	0.34
362.456	6.49
362.667	53.59
362.879	24.92
363.09	16.73
363.301	22.87
363.512	-52.91
363.723	6.49
363.935	18.77
364.146	131.41
364.357	-40.62
364.568	45.4
364.779	-20.14
364.99	59.73
365.201	45.4
365.412	-11.95
365.623	61.78
365.834	45.4
366.045	0.34
366.256	22.87
366.467	-11.95
366.678	65.88
366.889	39.25
367.1	29.01
367.311	92.5
367.522	-24.23
367.733	-26.28
367.944	16.73
368.155	-50.86
368.366	49.49
368.577	22.87
368.788	72.02
368.999	-34.47
369.209	-5.8
369.42	45.4
369.631	51.54
369.842	-36.52
370.053	-36.52
370.264	29.01
370.474	-11.95
370.685	-1.71
370.896	-11.95
371.107	31.06
371.317	-48.81
371.528	29.01
371.739	37.2
371.95	4.44
372.16	24.92
372.371	2.39
372.582	92.5
372.792	69.97
373.003	37.2
373.214	10.58
373.424	24.92
373.635	39.25
373.846	65.88
374.056	0.34
374.267	29.01
374.477	45.4
374.688	72.02
374.898	43.35
375.109	-11.95
375.319	16.73
375.53	-1.71
375.74	22.87
375.951	-7.85
376.161	26.96
376.372	4.44
376.582	117.08
376.793	-11.95
377.003	-3.75
377.214	18.77
377.424	45.4
377.635	45.4
377.845	53.59
378.055	14.68
378.266	6.49
378.476	51.54
378.686	-22.19
378.897	14.68
379.107	20.82
379.317	10.58
379.528	29.01
379.738	45.4
379.948	-65.19
380.158	-18.09
380.369	88.4
380.579	45.4
380.789	37.2
380.999	31.06
381.21	4.44
381.42	102.74
381.63	67.92
381.84	-38.57
382.05	33.11
382.261	45.4
382.471	82.26
382.681	57.68
382.891	12.63
383.101	33.11
383.311	8.53
383.521	51.54
383.731	63.83
383.941	72.02
384.151	39.25
384.361	24.92
384.571	-3.75
384.781	47.44
384.991	-9.9
385.201	51.54
385.411	12.63
385.621	53.59
385.831	12.63
386.041	102.74
386.251	35.16
386.461	16.73
386.671	53.59
386.881	2.39
387.091	125.27
387.301	-7.85
387.511	53.59
387.72	47.44
387.93	55.64
388.14	-22.19
388.35	49.49
388.56	98.64
388.769	47.44
388.979	-5.8
389.189	-3.75
389.399	43.35
389.609	-7.85
389.818	-9.9
390.028	108.88
390.238	57.68
390.447	-34.47
390.657	-32.43
390.867	-16.04
391.076	-61.1
391.286	76.12
391.496	6.49
391.705	53.59
391.915	55.64
392.125	49.49
392.334	59.73
392.544	37.2
392.753	80.21
392.963	-1.71
393.172	102.74
393.382	65.88
393.591	33.11
393.801	22.87
394.01	0.34
394.22	-46.76
394.429	53.59
394.639	12.63
394.848	135.51
395.058	78.16
395.267	129.36
395.477	53.59
395.686	69.97
395.895	102.74
396.105	76.12
396.314	-46.76
396.524	88.4
396.733	39.25
396.942	37.2
397.152	78.16
397.361	31.06
397.57	-5.8
397.78	90.45
397.989	82.26
398.198	127.32
398.407	20.82
398.617	67.92
398.826	76.12
399.035	18.77
399.244	76.12
399.453	92.5
399.663	76.12
399.872	69.97
400.081	61.78
400.29	123.22
400.499	160.08
400.708	57.68
400.917	65.88
401.127	90.45
401.336	96.6
401.545	143.7
401.754	61.78
401.963	80.21
402.172	88.4
402.381	98.64
402.59	98.64
402.799	94.55
403.008	29.01
403.217	35.16
403.426	67.92
403.635	158.03
403.844	80.21
404.053	94.55
404.262	115.03
404.471	100.69
404.68	188.75
404.888	98.64
405.097	102.74
405.306	108.88
405.515	131.41
405.724	117.08
405.933	112.98
406.142	135.51
406.35	106.84
406.559	100.69
406.768	106.84
406.977	143.7
407.185	147.8
407.394	203.09
407.603	53.59
407.812	176.47
408.02	184.66
408.229	74.07
408.438	125.27
408.646	217.43
408.855	121.17
409.064	166.23
409.272	188.75
409.481	248.15
409.69	209.23
409.898	180.56
410.107	244.05
410.315	373.07
410.524	256.34
410.733	309.58
410.941	182.61
411.15	278.87
411.358	285.01
411.567	311.63
411.775	297.3
411.984	354.64
412.192	272.72
412.401	299.34
412.609	346.45
412.818	356.69
413.026	422.22
413.234	469.33
413.443	323.92
413.651	414.03
413.86	414.03
414.068	416.08
414.276	420.17
414.485	526.67
414.693	498
414.901	444.75
415.11	565.58
415.318	508.24
415.526	495.95
415.734	502.09
415.943	631.12
416.151	659.79
416.359	698.7
416.567	684.36
416.776	694.6
416.984	780.62
417.192	727.37
417.4	723.27
417.608	764.23
417.817	737.61
418.025	772.43
418.233	864.58
418.441	868.68
418.649	944.45
418.857	954.69
419.065	1053
419.273	1005.89
419.481	1061.19
419.689	1141.06
419.897	1139.01
420.105	1126.72
420.313	1290.56
420.521	1282.37
420.729	1239.36
420.937	1315.14
421.145	1376.58
421.353	1464.64
421.561	1464.64
421.769	1573.18
421.977	1683.77
422.185	1542.46
422.393	1728.83
422.601	1755.45
422.809	1771.83
423.017	1806.65
423.224	1818.94
423.432	1898.81
423.64	2019.64
423.848	2210.1
424.056	2089.27
424.263	2302.26
424.471	2177.33
424.679	2306.35
424.887	2459.95
425.094	2515.25
425.302	2552.11
425.51	2515.25
425.718	2674.99
425.925	2748.72
426.133	2726.19
426.341	2951.46
426.548	2935.08
426.756	3014.95
426.964	2996.52
427.171	3424.55
427.379	3389.73
427.586	3447.07
427.794	3698.97
428.001	3653.92
428.209	3909.91
428.417	3950.87
428.624	4069.66
428.832	4065.56
429.039	4124.95
429.247	4155.67
429.454	4423.95
429.662	4727.05
429.869	4368.66
430.076	4643.09
430.284	4348.18
430.491	4770.06
430.699	5085.45
430.906	4999.43
431.114	5095.69
431.321	5343.49
431.528	5435.65
431.736	5798.14
431.943	6043.9
432.15	6037.75
432.358	5918.97
432.565	6271.22
432.772	6398.2
432.979	6586.61
433.187	6598.9
433.394	6770.93
433.601	7244.01
433.808	7043.31
434.016	7121.13
434.223	7188.71
434.43	7971.04
434.637	7729.38
434.844	8325.33
435.052	8368.34
435.259	8341.72
435.466	8356.05
435.673	8190.17
435.88	8878.29
436.087	9472.2
436.294	9285.83
436.501	9160.91
436.708	9222.34
436.915	9519.3
437.122	9892.03
437.329	10109.12
437.537	10215.61
437.743	10758.32
437.95	10381.49
438.157	10924.21
438.364	11421.86
438.571	11018.41
438.778	11235.5
438.985	12658.84
439.192	12091.55
439.399	12404.89
439.606	12136.6
439.813	12558.49
440.02	13822.08
440.227	13252.75
440.433	12982.42
440.64	13498.5
440.847	13430.92
441.054	13901.95
441.261	14741.62
441.467	14633.08
441.674	14884.98
441.881	15296.62
442.088	15290.48
442.294	15108.21
442.501	15542.38
442.708	15870.05
442.914	16515.16
443.121	17258.57
443.328	16695.38
443.534	18094.15
443.741	17180.75
443.948	17055.83
444.154	18466.88
444.361	18298.94
444.568	18231.36
444.774	18548.79
444.981	18520.12
445.187	19224.62
445.394	19830.82
445.6	19720.23
445.807	21966.85
446.013	20977.69
446.22	21069.84
446.426	21755.91
446.633	22233.09
446.839	22734.84
447.046	21848.07
447.252	22892.54
447.459	23271.41
447.665	22935.54
447.871	23834.6
448.078	24872.92
448.284	23795.69
448.491	24522.72
448.697	25458.64
448.903	25987.02
449.11	25917.39
449.316	25415.63
449.522	25608.14
449.728	26572.74
449.935	26599.36
450.141	26542.02
450.347	27113.4
450.553	26601.41
450.76	26732.48
450.966	27418.55
451.172	26996.67
451.378	27643.82
451.584	27340.72
451.791	28073.9
451.997	28069.8
452.203	28207.01
452.409	28200.87
452.615	28137.38
452.821	26955.71
453.027	26920.89
453.233	28729.25
453.44	26714.05
453.646	27400.12
453.852	27465.65
454.058	27934.64
454.264	26771.39
454.47	27738.03
454.676	26941.37
454.882	27807.66
455.088	25257.94
455.294	25741.26
455.5	25919.43
455.705	26316.74
455.911	25464.78
456.117	24561.63
456.323	24506.34
456.529	22781.95
456.735	23939.05
456.941	23447.54
457.147	23154.68
457.352	22091.78
457.558	22128.64
457.764	22032.39
457.97	21547.02
458.176	21116.95
458.381	21401.61
458.587	19990.56
458.793	20260.9
458.999	19064.88
459.204	20545.56
459.41	20095.01
459.616	18511.93
459.821	18608.19
460.027	18493.5
460.233	18227.26
460.438	17252.43
460.644	17248.33
460.85	16619.61
461.055	16486.49
461.261	16537.69
461.466	15046.77
461.672	14604.41
461.878	15663.21
462.083	14747.76
462.289	14436.47
462.494	14149.76
462.7	13693.06
462.905	13185.16
463.111	13940.86
463.316	13856.9
463.522	13398.15
463.727	13445.26
463.932	13586.57
464.138	13488.26
464.343	13471.88
464.549	12798.1
464.754	13379.72
464.959	13422.73
465.165	13127.82
465.37	12566.68
465.575	12468.38
465.781	12867.73
465.986	12826.77
466.191	12433.56
466.397	12386.46
466.602	11415.72
466.807	12185.76
467.012	12236.95
467.218	12034.21
467.423	12019.87
467.628	12095.64
467.833	12660.88
468.038	12214.43
468.244	11727.01
468.449	12234.91
468.654	11690.15
468.859	11792.55
469.064	11618.47
469.269	11354.28
469.474	11339.94
469.679	11538.6
469.885	11034.8
470.09	11344.04
470.295	11133.1
470.5	11034.8
470.705	11122.86
470.91	10743.99
471.115	10723.51
471.32	10838.19
471.525	10655.92
471.73	10344.63
471.935	10375.35
472.139	10131.64
472.344	10361.02
472.549	10174.65
472.754	10107.07
472.959	9744.58
473.164	9531.59
473.369	9492.68
473.574	9873.6
473.778	9515.2
473.983	9629.89
474.188	9625.79
474.393	9140.43
474.598	9203.91
474.802	8995.02
475.007	8980.68
475.212	9085.13
475.417	8818.89
475.621	8581.33
475.826	8892.62
476.031	8542.42
476.235	8370.39
476.44	8638.67
476.645	8562.9
476.849	8378.58
477.054	8292.57
477.259	8147.16
477.463	8237.27
477.668	7848.16
477.872	7882.97
478.077	7989.47
478.282	7555.3
478.486	7532.77
478.691	7665.89
478.895	7631.07
479.1	7366.88
479.304	7622.88
479.509	7502.05
479.713	7448.8
479.918	7266.53
480.122	7117.03
480.326	7436.52
480.531	7373.03
480.735	7123.18
480.94	7188.71
481.144	7495.91
481.348	7160.04
481.553	7090.41
481.757	7010.54
481.961	7168.23
482.166	7366.88
482.37	7268.58
482.574	6924.52
482.778	7092.46
482.983	7104.74
483.187	7123.18
483.391	7031.02
483.595	6963.44
483.8	6932.72
484.004	7074.03
484.208	7145.7
484.412	7084.27
484.616	7063.79
484.821	7104.74
485.025	6910.19
485.229	7082.22
485.433	7010.54
485.637	6957.29
485.841	7043.31
486.045	7074.03
486.249	7096.55
486.453	6891.76
486.657	7053.55
486.861	7184.62
487.065	6779.12
487.269	6928.62
487.473	6912.24
487.677	7170.28
487.881	7133.42
488.085	7074.03
488.289	6988.01
488.493	6920.43
488.697	7182.57
488.901	6981.87
489.105	6996.2
489.309	7063.79
489.512	7182.57
489.716	7223.53
489.92	7139.56
490.124	6951.15
490.328	7293.16
490.531	7092.46
490.735	7244.01
490.939	7305.45
491.143	7069.93
491.346	7174.38
491.55	7473.38
491.754	7280.87
491.958	7313.64
492.161	7397.6
492.365	7543.01
492.569	7379.17
492.772	7356.65
492.976	7442.66
493.18	7536.87
493.383	7680.22
493.587	7665.89
493.79	7774.43
493.994	7690.46
494.197	7661.79
494.401	7901.4
494.605	7792.86
494.808	7981.28
495.012	7778.53
495.215	7909.6
495.419	8204.5
495.622	7817.44
495.825	8278.23
496.029	8155.35
496.232	8431.83
496.436	8397.01
496.639	8630.48
496.843	8669.39
497.046	8691.92
497.249	8894.67
497.453	8775.89
497.656	8857.81
497.859	8556.75
498.063	8882.38
498.266	9253.06
498.469	9263.3
498.673	9138.38
498.876	9246.92
499.079	9441.48
499.282	9392.33
499.485	9588.93
499.689	9791.68
499.892	9957.57
500.095	9781.44
500.298	10254.52
500.501	10043.58
500.705	10193.08
500.908	10260.66
501.111	10518.71
501.314	10463.41
501.517	10643.63
501.72	10877.1
501.923	10809.52
502.126	10959.02
502.329	11348.14
502.532	11251.88
502.735	11382.95
502.938	11585.7
503.141	11583.65
503.344	11817.12
503.547	11616.42
503.75	12054.69
503.953	12144.8
504.156	12222.62
504.359	12122.27
504.562	12200.09
504.765	12691.6
504.968	12796.05
505.17	12912.78
505.373	12984.46
505.576	13070.48
505.779	13219.98
505.982	13369.48
506.185	13547.65
506.387	13951.1
506.59	13746.31
506.793	14217.34
506.996	13998.21
507.198	14223.48
507.401	14213.24
507.604	14764.15
507.807	14633.08
508.009	14612.6
508.212	14968.94
508.415	14899.31
508.617	15329.39
508.82	15429.74
509.022	15335.53
509.225	15714.41
509.428	15786.08
509.63	16050.27
509.833	15757.41
510.035	16423
510.238	16158.81
510.44	16949.33
510.643	17086.54
510.845	16865.36
511.048	16955.47
511.25	17156.18
511.453	17121.36
511.655	17842.25
511.858	17573.96
512.06	18057.28
512.262	17950.79
512.465	18104.39
512.667	18614.33
512.87	18470.97
513.072	18581.56
513.274	18718.78
513.477	18901.04
513.679	19324.97
513.881	19458.09
514.084	19673.13
514.286	19519.53
514.488	19830.82
514.69	20162.59
514.893	20201.51
515.095	20572.19
515.297	20570.14
515.499	20658.2
515.701	21129.23
515.904	21248.02
516.106	21334.03
516.308	21536.78
516.51	21600.27
516.712	21946.37
516.914	22220.8
517.116	22441.98
517.318	22437.89
517.52	22550.53
517.722	22573.05
517.925	23068.66
518.127	23060.47
518.329	23334.9
518.531	23416.82
518.733	23775.21
518.935	23932.9
519.136	24098.79
519.338	24264.68
519.54	24434.66
519.742	24797.15
519.944	24418.27
520.146	25018.33
520.348	25382.87
520.55	25065.43
520.752	25171.93
520.954	26091.46
521.155	25769.93
521.357	25677.77
521.559	26193.86
521.761	26834.88
521.963	26232.77
522.164	26515.39
522.366	26943.42
522.568	26865.6
522.77	27115.45
522.971	27594.67
523.173	27527.09
523.375	27871.15
523.576	27959.21
523.778	27633.58
523.98	28272.55
524.181	28565.41
524.383	28725.15
524.584	28702.62
524.786	28782.49
524.988	28897.18
525.189	28929.95
525.391	28848.03
525.592	29169.56
525.794	29353.88
525.995	29374.36
526.197	29765.52
526.398	29779.85
526.6	29804.43
526.801	30029.71
527.003	30142.35
527.204	30422.92
527.406	30287.75
527.607	30384.01
527.808	30556.04
528.01	30171.02
528.211	30295.94
528.412	30949.25
528.614	30852.99
528.815	30504.84
529.016	31485.81
529.218	30889.85
529.419	31428.47
529.62	31098.75
529.822	30967.68
530.023	30936.96
530.224	31346.55
530.425	31246.2
530.626	30928.77
530.828	31006.59
531.029	31948.65
531.23	31407.99
531.431	31541.11
531.632	31414.13
531.833	31944.56
532.035	31838.06
532.236	31528.82
532.437	31893.36
532.638	31414.13
532.839	31821.68
533.04	31942.51
533.241	31485.81
533.442	32106.35
533.643	32040.81
533.844	31741.81
534.045	31838.06
534.246	31747.95
534.447	31917.93
534.648	31750
534.849	31993.71
535.05	31821.68
535.251	32102.25
535.451	31915.89
535.652	32186.22
535.853	32167.79
536.054	31735.67
536.255	32300.9
536.456	31883.12
536.657	31889.26
536.857	32073.58
537.058	31901.55
537.259	32087.92
537.46	31881.07
537.66	31924.08
537.861	32159.59
538.062	32044.91
538.263	32192.36
538.463	31899.5
538.664	32362.34
538.865	32098.16
539.065	32456.55
539.266	31610.74
539.466	32102.25
539.667	31821.68
539.868	32257.9
540.068	32278.38
540.269	31856.5
540.469	32237.42
540.67	32159.59
540.87	31897.45
541.071	32046.96
541.271	32307.05
541.472	31940.46
541.672	31827.82
541.873	31446.9
542.073	31475.57
542.274	32012.14
542.474	31510.39
542.675	31840.11
542.875	32374.63
543.075	31762.29
543.276	31416.18
543.476	32157.55
543.676	32108.4
543.877	31786.86
544.077	31799.15
544.277	31692.66
544.478	31524.72
544.678	31868.78
544.878	31836.02
545.078	31817.58
545.279	31471.48
545.479	31524.72
545.679	31782.77
545.879	31870.83
546.079	31809.39
546.28	32098.16
546.48	31412.09
546.68	31629.17
546.88	31750
547.08	31580.02
547.28	31604.6
547.48	31342.46
547.68	31663.99
547.88	31448.95
548.081	31553.4
548.281	31416.18
548.481	31520.63
548.681	31723.38
548.881	31352.69
549.081	31866.74
549.28	31537.01
549.48	31604.6
549.68	31537.01
549.88	31958.89
550.08	30916.48
550.28	31326.07
550.48	31307.64
550.68	31453.05
550.88	31242.1
551.08	31438.71
551.279	31651.7
551.479	31182.71
551.679	31088.51
551.879	31172.47
552.079	31547.25
552.278	31358.84
552.478	31608.69
552.678	31299.45
552.878	31451
553.077	31405.94
553.277	31037.31
553.477	31592.31
553.676	31061.88
553.876	31262.58
554.076	31135.61
554.275	31086.46
554.475	30746.5
554.674	31115.13
554.874	30789.5
555.074	30668.67
555.273	31027.07
555.473	30932.86
555.672	30949.25
555.872	31227.77
556.071	30789.5
556.271	31088.51
556.47	30590.85
556.67	30185.35
556.869	30654.34
557.068	30775.17
557.268	30494.6
557.467	30631.81
557.667	30556.04
557.866	30680.96
558.065	30402.44
558.265	30394.25
558.464	30381.96
558.663	30748.54
558.863	30300.04
559.062	30637.95
559.261	30359.43
559.461	30449.54
559.66	29497.24
559.859	29810.57
560.058	29661.07
560.258	30355.33
560.457	29646.74
560.656	30250.89
560.855	30062.47
561.054	29943.69
561.253	29847.44
561.453	29788.05
561.652	29714.32
561.851	29904.78
562.05	29714.32
562.249	29659.02
562.448	29661.07
562.647	29720.46
562.846	29587.35
563.045	29503.38
563.244	29112.22
563.443	29710.22
563.642	28913.56
563.841	29458.32
564.04	29187.99
564.239	29702.03
564.438	28841.89
564.637	29177.75
564.836	29304.73
565.035	28862.36
565.234	29067.16
565.432	28907.42
565.631	28317.61
565.83	28835.74
566.029	28835.74
566.228	28569.51
566.427	28712.86
566.625	28381.09
566.824	28008.36
567.023	28770.21
567.222	27914.16
567.42	28510.11
567.619	28215.21
567.818	28012.46
568.016	27711.41
568.215	28239.78
568.414	28071.85
568.612	28295.08
568.811	27922.35
569.01	27781.04
569.208	27613.1
569.407	27895.72
569.605	27555.76
569.804	27934.64
570.002	27428.79
570.201	27492.27
570.4	27172.79
570.598	27330.48
570.797	27023.29
570.995	27338.68
571.193	26367.94
571.392	27164.6
571.59	26998.71
571.789	26888.12
571.987	26662.85
572.186	26388.42
572.384	26998.71
572.582	26976.19
572.781	26560.45
572.979	26107.85
573.177	27025.34
573.376	26634.17
573.574	26273.73
573.772	26599.36
573.971	25923.53
574.169	26073.03
574.367	25960.39
574.565	25876.43
574.763	25917.39
574.962	25798.6
575.16	25444.31
575.358	25798.6
575.556	25462.74
575.754	25579.47
575.952	25663.44
576.151	25810.89
576.349	24950.74
576.547	25329.62
576.745	25296.85
576.943	25137.11
577.141	25096.15
577.339	25090.01
577.537	24952.79
577.735	24944.6
577.933	24770.52
578.131	24803.29
578.329	24829.91
578.527	24592.35
578.725	24592.35
578.923	24811.48
579.121	24596.45
579.319	24698.84
579.516	24502.24
579.714	24412.13
579.912	24121.32
580.11	24393.7
580.308	24154.08
580.506	24332.26
580.704	23678.96
580.901	23996.39
581.099	24162.28
581.297	23795.69
581.495	23748.59
581.692	23810.03
581.89	23625.71
582.088	23932.9
582.285	23267.31
582.483	23990.25
582.681	23799.79
582.878	23574.51
583.076	23334.9
583.274	23468.02
583.471	23283.7
583.669	23255.03
583.866	23093.24
584.064	23209.97
584.262	22851.58
584.459	23611.37
584.657	22501.37
584.854	23173.11
585.052	22468.61
585.249	22874.1
585.447	22759.42
585.644	22548.48
585.841	22788.09
586.039	22689.79
586.236	22038.53
586.434	22233.09
586.631	22151.17
586.828	22255.62
587.026	22020.1
587.223	22067.2
587.42	22112.26
587.618	22122.5
587.815	21897.22
588.012	21774.35
588.21	21850.12
588.407	21608.46
588.604	21704.71
588.801	21495.82
588.999	21436.43
589.196	21268.5
589.393	21501.97
589.59	21616.65
589.787	21395.47
589.984	21123.09
590.182	21000.21
590.379	21426.19
590.576	20951.06
590.773	21176.34
590.97	21026.84
591.167	20971.54
591.364	20910.1
591.561	21043.22
591.758	20639.77
591.955	20785.18
592.152	20674.59
592.349	20688.92
592.546	20504.6
592.743	20545.56
592.94	20004.9
593.137	20629.53
593.334	20525.08
593.531	19945.51
593.727	20490.27
593.924	20217.89
594.121	19890.21
594.318	19904.55
594.515	19849.25
594.712	20099.11
594.908	19781.67
595.105	19949.6
595.302	19814.44
595.499	19910.69
595.696	19689.51
595.892	19339.31
596.089	19404.85
596.286	19566.63
596.482	19359.79
596.679	19386.41
596.876	19296.3
597.072	19048.5
597.269	19157.04
597.466	19077.17
597.662	19025.97
597.859	18956.34
598.055	18870.33
598.252	18933.81
598.448	18718.78
598.645	18690.1
598.841	18575.42
599.038	18655.29
599.234	18618.43
599.431	18417.72
599.627	18415.68
599.824	18440.25
600.02	18389.05
600.217	18262.08
600.413	18174.02
600.609	18212.93
600.806	18047.04
601.002	18092.1
601.198	17995.84
601.395	18110.53
601.591	17997.89
601.787	17952.84
601.984	17868.87
602.18	17791.05
602.376	17748.04
602.572	17612.87
602.769	17635.4
602.965	17674.31
603.161	17717.32
603.357	17342.54
603.553	17543.24
603.75	17410.12
603.946	17236.05
604.142	17303.63
604.338	17014.87
604.534	17121.36
604.73	16840.79
604.926	17090.64
605.122	16867.41
605.318	16844.88
605.514	16824.4
605.71	16918.61
605.906	16625.75
606.102	16896.08
606.298	16709.72
606.494	16871.51
606.69	16679
606.886	16693.33
607.082	16586.84
607.278	16511.07
607.474	16220.25
607.67	16445.53
607.866	16289.88
608.062	16506.97
608.257	16177.25
608.453	16392.28
608.649	16349.28
608.845	16142.43
609.041	16324.7
609.236	16463.96
609.432	16124
609.628	16136.29
609.824	16064.61
610.019	15929.44
610.215	15829.09
610.411	16267.36
610.606	15753.32
610.802	15804.52
610.998	15812.71
611.193	15736.93
611.389	15640.68
611.584	15667.3
611.78	15525.99
611.976	15614.06
612.171	15425.64
612.367	15624.29
612.562	15265.9
612.758	15186.03
612.953	15399.02
613.149	15663.21
613.344	15388.78
613.539	15802.47
613.735	15472.75
613.93	15421.55
614.126	15224.94
614.321	15439.98
614.517	15464.55
614.712	15204.46
614.907	15259.76
615.103	15171.69
615.298	15177.84
615.493	15296.62
615.688	15061.1
615.884	15241.32
616.079	14975.09
616.274	15143.02
616.47	14940.27
616.665	15054.96
616.86	14549.11
617.055	14878.83
617.25	14815.35
617.445	14717.04
617.641	14667.89
617.836	14731.38
618.031	14358.65
618.226	14848.11
618.421	14659.7
618.616	14981.23
618.811	14368.89
619.006	14647.41
619.201	14276.73
619.396	14796.92
619.591	14194.81
619.786	14221.44
619.981	13762.69
620.176	14174.33
620.371	13877.38
620.566	13914.24
620.761	14106.75
620.956	14366.84
621.151	13865.09
621.346	13930.62
621.541	13529.22
621.735	13848.71
621.93	13703.3
622.125	13385.87
622.32	13246.6
622.515	13703.3
622.709	13367.43
622.904	13412.49
623.099	13064.33
623.294	13142.16
623.488	12972.18
623.683	12937.36
623.878	12992.66
624.072	12726.42
624.267	12845.2
624.462	12597.4
624.656	12578.97
624.851	12687.51
625.046	12558.49
625.24	12568.73
625.435	12382.36
625.629	12368.02
625.824	12202.14
626.018	11989.15
626.213	12071.07
626.407	12298.39
626.602	11966.62
626.796	12134.56
626.991	12093.6
627.185	11876.51
627.38	11622.56
627.574	11743.39
627.768	11612.32
627.963	11491.49
628.157	11460.77
628.352	11647.14
628.546	11301.03
628.74	11339.94
628.935	11204.78
629.129	11477.16
629.323	11186.35
629.517	10971.31
629.712	11022.51
629.906	10975.41
630.1	10885.3
630.294	10954.93
630.489	10762.42
630.683	10868.91
630.877	10625.2
631.071	10565.81
631.265	10623.16
631.459	10569.91
631.653	10430.65
631.848	10492.09
632.042	10164.41
632.236	10328.25
632.43	10184.89
632.624	10070.2
632.818	10156.22
633.012	10027.2
633.206	10129.59
633.4	10191.03
633.594	9846.98
633.788	9922.75
633.982	9808.06
634.176	9767.1
634.369	9640.13
634.563	9590.98
634.757	9601.22
634.951	9724.1
635.145	9474.24
635.339	9519.3
635.533	9429.19
635.726	9461.96
635.92	9273.54
636.114	9423.05
636.308	9185.48
636.501	9208.01
636.695	9138.38
636.889	9044.17
637.083	9074.89
637.276	9031.88
637.47	8919.25
637.664	8909.01
637.857	9081.03
638.051	8968.4
638.244	8552.66
638.438	8691.92
638.632	8827.09
638.825	8597.71
639.019	8634.58
639.212	8452.31
639.406	8499.41
639.599	8511.7
639.793	8511.7
639.986	8339.67
640.18	8216.79
640.373	8298.71
640.567	8130.78
640.76	8392.92
640.954	8102.11
641.147	8116.44
641.34	7987.42
641.534	8048.86
641.727	8067.29
641.92	7960.8
642.114	7878.88
642.307	7921.88
642.5	7846.11
642.694	7737.57
642.887	7612.64
643.08	7925.98
643.273	7604.45
643.467	7530.72
643.66	7495.91
643.853	7688.42
644.046	7284.97
644.239	7678.18
644.432	7561.44
644.626	7350.5
644.819	7201
645.012	7375.08
645.205	7268.58
645.398	7295.21
645.591	7139.56
645.784	7157.99
645.977	6973.67
646.17	7215.34
646.363	6932.72
646.556	6883.56
646.749	6832.37
646.942	6985.96
647.135	6883.56
647.328	6658.29
647.521	6867.18
647.714	6856.94
647.907	6740.21
648.099	6609.14
648.292	6936.81
648.485	6576.37
648.678	6584.56
648.871	6473.97
649.064	6414.58
649.256	6562.03
649.449	6689.01
649.642	6330.61
649.835	6267.13
650.027	6326.52
650.22	6355.19
650.413	6234.36
650.605	6127.86
650.798	6047.99
650.991	6136.06
651.183	6097.14
651.376	6004.99
651.568	6033.66
651.761	6109.43
651.954	5964.03
652.146	5904.64
652.339	5863.68
652.531	6009.08
652.724	5980.41
652.916	5789.95
653.109	5792
653.301	5900.54
653.494	5757.18
653.686	5826.81
653.879	5734.65
654.071	5677.31
654.263	5701.89
654.456	5554.43
654.648	5640.45
654.84	5468.42
655.033	5587.2
655.225	5546.24
655.417	5249.29
655.61	5462.27
655.802	5501.19
655.994	5273.86
656.186	5290.24
656.379	5282.05
656.571	5419.27
656.763	5202.18
656.955	5257.48
657.148	5114.12
657.34	5126.41
657.532	5204.23
657.724	5159.17
657.916	5071.11
658.108	5118.22
658.3	5144.84
658.492	5071.11
658.684	5062.92
658.876	4933.9
659.068	4937.99
659.26	5081.35
659.452	4966.67
659.644	4972.81
659.836	4671.76
660.028	4942.09
660.22	4688.14
660.412	4735.25
660.604	4563.22
660.796	4851.98
660.988	4786.44
661.18	4675.85
661.372	4548.88
661.563	4780.3
661.755	4399.38
661.947	4512.02
662.139	4522.26
662.331	4661.52
662.522	4444.43
662.714	4559.12
662.906	4337.94
663.097	4360.47
663.289	4401.43
663.481	4364.56
663.673	4354.32
663.864	4284.69
664.056	4354.32
664.247	4307.22
664.439	4206.87
664.631	4225.3
664.822	4395.28
665.014	4204.82
665.205	4200.73
665.397	4215.06
665.588	4210.97
665.78	4167.96
665.971	4129.05
666.163	4006.17
666.354	4139.29
666.546	4108.57
666.737	3954.97
666.929	4034.84
667.12	4057.37
667.311	4075.8
667.503	3852.57
667.694	3977.5
667.885	3934.49
668.077	3873.05
668.268	3797.28
668.459	3864.86
668.651	3836.19
668.842	3852.57
669.033	3762.46
669.224	3735.84
669.416	3698.97
669.607	3807.52
669.798	3784.99
669.989	3746.08
670.18	3782.94
670.371	3686.69
670.563	3705.12
670.754	3502.37
670.945	3690.78
671.136	3619.1
671.327	3512.61
671.518	3727.64
671.709	3631.39
671.9	3578.14
672.091	3539.23
672.282	3637.53
672.473	3553.57
672.664	3541.28
672.855	3485.98
673.046	3498.27
673.237	3440.93
673.428	3438.88
673.619	3352.87
673.809	3240.23
674	3453.22
674.191	3410.21
674.382	3418.4
674.573	3404.07
674.764	3316
674.954	3373.35
675.145	3258.66
675.336	3375.39
675.527	3270.95
675.717	3305.76
675.908	3313.95
676.099	3166.5
676.289	3074.34
676.48	3264.8
676.671	3127.59
676.861	3250.47
677.052	3098.92
677.243	3164.45
677.433	3178.79
677.624	3191.08
677.814	3162.41
678.005	3252.52
678.195	3242.28
678.386	3148.07
678.576	3199.27
678.767	3107.11
678.957	3010.86
679.148	3084.58
679.338	3092.77
679.529	3049.77
679.719	3090.73
679.909	3084.58
680.1	2930.98
680.29	3074.34
680.481	3133.73
680.671	3041.57
680.861	2926.89
681.052	3090.73
681.242	2883.88
681.432	3060.01
681.622	2887.98
681.813	2933.03
682.003	2920.74
682.193	2851.11
682.383	2863.4
682.573	2937.13
682.764	2910.5
682.954	2937.13
683.144	2926.89
683.334	2922.79
683.524	2933.03
683.714	2859.31
683.904	2892.07
684.094	2820.39
684.284	2810.15
684.474	2908.46
684.664	2836.78
684.854	2812.2
685.044	2801.96
685.234	2859.31
685.424	2625.84
685.614	2738.48
685.804	2703.66
685.994	2783.53
686.184	2785.58
686.374	2777.39
686.564	2783.53
686.753	2564.4
686.943	2724.14
687.133	2672.94
687.323	2711.85
687.513	2683.18
687.702	2576.69
687.892	2711.85
688.082	2683.18
688.272	2621.74
688.461	2613.55
688.651	2648.36
688.841	2607.41
689.03	2640.17
689.22	2507.06
689.41	2545.97
689.599	2388.27
689.789	2488.62
689.979	2441.52
690.168	2548.01
690.358	2332.98
690.547	2459.95
690.737	2511.15
690.926	2449.71
691.116	2443.57
691.305	2427.18
691.495	2539.82
691.684	2394.42
691.874	2431.28
692.063	2398.51
692.252	2355.51
692.442	2398.51
692.631	2386.22
692.82	2369.84
693.01	2439.47
693.199	2355.51
693.388	2285.87
693.578	2425.14
693.767	2281.78
693.956	2330.93
694.146	2308.4
694.335	2163
694.524	2296.11
694.713	2298.16
694.902	2154.8
695.092	2210.1
695.281	2138.42
695.47	2236.72
695.659	2253.11
695.848	2218.29
696.037	2228.53
696.226	2138.42
696.415	2294.07
696.604	2165.04
696.793	2187.57
696.982	2117.94
697.171	2117.94
697.36	2126.13
697.549	2101.56
697.738	2150.71
697.927	2177.33
698.116	2154.8
698.305	2122.04
698.494	2040.12
698.683	2115.89
698.872	2148.66
699.061	2056.5
699.25	2103.61
699.438	2177.33
699.627	2171.19
699.816	2027.83
700.005	2050.36
700.193	2048.31
700.382	2281.78
700.571	2076.98
700.76	2142.52
700.948	2105.65
701.137	2097.46
701.326	2050.36
701.514	2025.78
701.703	2089.27
701.892	2009.4
702.08	2093.37
702.269	2081.08
702.457	1968.44
702.646	2009.4
702.834	2103.61
703.023	2142.52
703.212	2070.84
703.4	2062.65
703.589	1958.2
703.777	2109.75
703.965	1921.34
704.154	2017.59
704.342	2146.61
704.531	2097.46
704.719	1993.01
704.907	2001.21
705.096	1954.1
705.284	2050.36
705.472	2076.98
705.661	2001.21
705.849	2033.97
706.037	1970.49
706.226	1958.2
706.414	1982.78
706.602	2040.12
706.79	2058.55
706.979	1995.06
707.167	1900.86
707.355	2056.5
707.543	2029.88
707.731	2044.21
707.919	1999.16
708.107	1941.82
708.296	1970.49
708.484	2044.21
708.672	2017.59
708.86	1937.72
709.048	1970.49
709.236	1823.03
709.424	1945.91
709.612	2029.88
709.8	1874.23
709.988	1945.91
710.176	1900.86
710.364	1890.62
710.551	1882.42
710.739	1861.94
710.927	2056.5
711.115	1964.34
711.303	1913.14
711.491	1933.62
711.679	1767.74
711.866	1941.82
712.054	1886.52
712.242	1866.04
712.43	1937.72
712.617	1970.49
712.805	1868.09
712.993	1960.25
713.181	1863.99
713.368	1888.57
713.556	1921.34
713.744	1851.71
713.931	2001.21
714.119	1919.29
714.306	1980.73
714.494	2050.36
714.682	1929.53
714.869	1880.38
715.057	1964.34
715.244	1888.57
715.432	1851.71
715.619	1900.86
715.807	1837.37
715.994	1888.57
716.182	1913.14
716.369	1929.53
716.556	1956.15
716.744	1900.86
716.931	1845.56
717.119	1919.29
717.306	1868.09
717.493	1909.05
717.681	1798.46
717.868	1810.75
718.055	1904.95
718.242	1839.42
718.43	1950.01
718.617	1827.13
718.804	2017.59
718.991	1902.9
719.179	1892.66
719.366	1769.79
719.553	1947.96
719.74	1886.52
719.927	1964.34
720.114	1911.1
720.301	1868.09
720.488	1788.22
720.676	1796.41
720.863	1911.1
721.05	1769.79
721.237	1911.1
721.424	1868.09
721.611	1896.76
721.798	1777.98
721.985	1823.03
722.172	1812.79
722.358	1904.95
722.545	1913.14
722.732	1833.27
722.919	1796.41
723.106	1896.76
723.293	1900.86
723.48	1917.24
723.667	1845.56
723.853	1722.68
724.04	1884.47
724.227	1810.75
724.414	1837.37
724.6	1794.36
724.787	1827.13
724.974	1823.03
725.161	1818.94
725.347	1909.05
725.534	1798.46
725.72	1777.98
725.907	1796.41
726.094	1843.51
726.28	1880.38
726.467	1880.38
726.653	1829.18
726.84	1792.31
727.027	1775.93
727.213	1878.33
727.4	1880.38
727.586	1771.83
727.773	1747.26
727.959	1714.49
728.145	1861.94
728.332	1788.22
728.518	1775.93
728.705	1904.95
728.891	1800.51
729.077	1788.22
729.264	1755.45
729.45	1804.6
729.636	1722.68
729.823	1841.47
730.009	1904.95
730.195	1769.79
730.382	1868.09
730.568	1786.17
730.754	1763.64
730.94	1710.4
731.126	1812.79
731.313	1737.02
731.499	1671.48
731.685	1618.24
731.871	1730.87
732.057	1708.35
732.243	1798.46
732.429	1788.22
732.615	1812.79
732.801	1833.27
732.987	1833.27
733.173	1663.29
733.359	1710.4
733.545	1837.37
733.731	1759.55
733.917	1851.71
734.103	1825.08
734.289	1831.23
734.475	1691.96
734.661	1851.71
734.847	1827.13
735.033	1820.99
735.219	1835.32
735.404	1714.49
735.59	1642.81
735.776	1691.96
735.962	1651
736.148	1829.18
736.333	1696.06
736.519	1655.1
736.705	1786.17
736.89	1747.26
737.076	1734.97
737.262	1747.26
737.447	1771.83
737.633	1712.44
737.819	1665.34
738.004	1622.33
738.19	1708.35
738.375	1749.31
738.561	1712.44
738.747	1712.44
738.932	1661.24
739.118	1734.97
739.303	1583.42
739.489	1724.73
739.674	1681.72
739.859	1648.96
740.045	1732.92
740.23	1704.25
740.416	1632.57
740.601	1663.29
740.786	1618.24
740.972	1622.33
741.157	1626.43
741.342	1587.52
741.528	1734.97
741.713	1562.94
741.898	1634.62
742.084	1655.1
742.269	1519.93
742.454	1548.61
742.639	1562.94
742.824	1620.28
743.01	1536.32
743.195	1636.67
743.38	1560.89
743.565	1683.77
743.75	1642.81
743.935	1513.79
744.12	1644.86
744.305	1466.69
744.49	1612.09
744.675	1466.69
744.86	1466.69
745.045	1636.67
745.23	1544.51
745.415	1509.69
745.6	1478.97
745.785	1433.92
745.97	1435.97
746.155	1446.21
746.34	1495.36
746.525	1524.03
746.71	1462.59
746.895	1395.01
747.079	1413.44
747.264	1466.69
747.449	1405.25
747.634	1417.54
747.819	1399.1
748.003	1409.34
748.188	1352
748.373	1347.9
748.557	1278.27
748.742	1339.71
748.927	1315.14
749.111	1331.52
749.296	1249.6
749.481	1327.43
749.665	1237.31
749.85	1261.89
750.034	1388.86
750.219	1372.48
750.404	1251.65
750.588	1212.74
750.773	1274.18
750.957	1194.31
751.141	1300.8
751.326	1292.61
751.51	1296.71
751.695	1200.45
751.879	1274.18
752.064	1237.31
752.248	1151.3
752.432	1165.64
752.617	1239.36
752.801	1153.35
752.985	1059.14
753.17	1139.01
753.354	1251.65
753.538	1151.3
753.722	1190.21
753.907	1212.74
754.091	1141.06
754.275	1055.05
754.459	1165.64
754.643	1096
754.828	1089.86
755.012	1132.87
755.196	1143.11
755.38	1134.92
755.564	1048.9
755.748	1089.86
755.932	1018.18
756.116	1055.05
756.3	1044.81
756.484	1020.23
756.668	1005.89
756.852	938.31
757.036	1044.81
757.22	1030.47
757.404	960.84
757.588	999.75
757.772	942.41
757.956	1067.33
758.14	983.37
758.323	942.41
758.507	887.11
758.691	956.74
758.875	1003.85
759.059	936.26
759.242	903.5
759.426	936.26
759.61	901.45
759.794	905.54
759.977	954.69
760.161	995.65
760.345	1040.71
760.528	969.03
760.712	842.06
760.895	909.64
761.079	852.3
761.263	858.44
761.446	909.64
761.63	928.07
761.813	850.25
761.997	840.01
762.18	903.5
762.364	805.19
762.547	860.49
762.731	831.82
762.914	899.4
763.098	817.48
763.281	790.86
763.464	842.06
763.648	799.05
763.831	844.1
764.015	801.1
764.198	819.53
764.381	803.15
764.564	819.53
764.748	774.47
764.931	807.24
765.114	768.33
765.297	776.52
765.481	749.9
765.664	758.09
765.847	778.57
766.03	764.23
766.213	760.14
766.397	676.17
766.58	735.56
766.763	756.04
766.946	780.62
767.129	803.15
767.312	778.57
767.495	772.43
767.678	715.08
767.861	829.77
768.044	686.41
768.227	696.65
768.41	747.85
768.593	786.76
768.776	737.61
768.959	827.72
769.142	696.65
769.324	690.51
769.507	741.71
769.69	809.29
769.873	788.81
770.056	702.79
770.239	659.79
770.421	682.31
770.604	704.84
770.787	753.99
770.97	645.45
771.152	682.31
771.335	676.17
771.518	670.03
771.7	708.94
771.883	690.51
772.066	600.4
772.248	688.46
772.431	641.36
772.613	647.5
772.796	551.24
772.978	674.12
773.161	635.21
773.343	616.78
773.526	641.36
773.708	676.17
773.891	586.06
774.073	598.35
774.256	674.12
774.438	639.31
774.621	608.59
774.803	633.16
774.985	538.96
775.168	643.4
775.35	639.31
775.532	581.96
775.715	514.38
775.897	553.29
776.079	551.24
776.261	581.96
776.444	586.06
776.626	520.53
776.808	590.16
776.99	561.48
777.173	508.24
777.355	569.68
777.537	498
777.719	627.02
777.901	522.57
778.083	487.76
778.265	551.24
778.447	502.09
778.629	467.28
778.811	432.46
778.993	440.65
779.175	481.61
779.357	424.27
779.539	483.66
779.721	512.33
779.903	510.29
780.085	473.42
780.267	473.42
780.449	473.42
780.631	522.57
780.812	495.95
780.994	452.94
781.176	448.85
781.358	465.23
781.54	463.18
781.721	459.09
781.903	393.55
782.085	426.32
782.267	409.94
782.448	459.09
782.63	434.51
782.812	450.89
782.993	399.7
783.175	461.13
783.357	434.51
783.538	371.02
783.72	338.26
783.901	389.46
784.083	328.02
784.264	424.27
784.446	442.7
784.627	311.63
784.809	399.7
784.99	350.54
785.172	428.37
785.353	428.37
785.535	371.02
785.716	409.94
785.897	311.63
786.079	362.83
786.26	348.5
786.441	303.44
786.623	338.26
786.804	303.44
786.985	342.35
787.167	307.54
787.348	307.54
787.529	303.44
787.71	381.26
787.891	303.44
788.073	340.3
788.254	371.02
788.435	352.59
788.616	274.77
788.797	184.66
788.978	348.5
789.159	242
789.34	266.58
789.522	242
789.703	248.15
789.884	348.5
790.065	328.02
790.246	313.68
790.427	280.91
790.607	348.5
790.788	254.29
790.969	291.15
791.15	325.97
791.331	172.37
791.512	293.2
791.693	254.29
791.874	325.97
792.054	317.78
792.235	321.87
792.416	209.23
792.597	303.44
792.778	256.34
792.958	274.77
793.139	205.14
793.32	297.3
793.5	209.23
793.681	250.19
793.862	227.67
794.042	291.15
794.223	155.99
794.404	186.71
794.584	182.61
794.765	285.01
794.945	192.85
795.126	266.58
795.306	223.57
795.487	262.48
795.667	194.9
795.848	244.05
796.028	250.19
796.209	186.71
796.389	262.48
796.57	153.94
796.75	213.33
796.93	213.33
797.111	145.75
797.291	250.19
797.471	248.15
797.652	145.75
797.832	219.47
798.012	274.77
798.192	184.66
798.373	147.8
798.553	168.27
798.733	227.67
798.913	250.19
799.093	235.86
799.274	217.43
799.454	225.62
799.634	186.71
799.814	223.57
799.994	221.52
800.174	194.9
800.354	194.9
800.534	153.94
800.714	190.8
800.894	98.64
801.074	139.6
801.254	80.21
801.434	225.62
801.614	213.33
801.794	196.95
801.974	522.57
802.154	141.65
802.334	176.47
802.514	166.23
802.693	151.89
802.873	61.78
803.053	108.88
803.233	153.94
803.413	123.22
803.592	127.32
803.772	170.32
803.952	205.14
804.131	170.32
804.311	180.56
804.491	192.85
804.67	158.03
804.85	164.18
805.03	158.03
805.209	180.56
805.389	188.75
805.568	149.84
805.748	143.7
805.928	135.51
806.107	201.04
806.287	149.84
806.466	186.71
806.646	151.89
806.825	143.7
807.004	129.36
807.184	153.94
807.363	121.17
807.543	143.7
807.722	123.22
807.901	164.18
808.081	164.18
808.26	37.2
808.439	137.56
808.619	141.65
808.798	121.17
808.977	182.61
809.156	178.51
809.336	133.46
809.515	123.22
809.694	41.3
809.873	88.4
810.052	160.08
810.231	158.03
810.411	166.23
810.59	117.08
810.769	139.6
810.948	96.6
811.127	59.73
811.306	82.26
811.485	131.41
811.664	121.17
811.843	180.56
812.022	84.31
812.201	139.6
812.38	78.16
812.559	100.69
812.737	94.55
812.916	125.27
813.095	117.08
813.274	155.99
813.453	155.99
813.632	100.69
813.811	178.51
813.989	57.68
814.168	100.69
814.347	76.12
814.526	121.17
814.704	160.08
814.883	151.89
815.062	127.32
815.24	115.03
815.419	141.65
815.598	123.22
815.776	74.07
815.955	94.55
816.133	18.77
816.312	100.69
816.49	135.51
816.669	102.74
816.847	143.7
817.026	133.46
817.204	139.6
817.383	78.16
817.561	78.16
817.74	92.5
817.918	61.78
818.097	29.01
818.275	51.54
818.453	92.5
818.632	86.36
818.81	106.84
818.988	102.74
819.167	102.74
819.345	108.88
819.523	100.69
819.701	72.02
819.879	61.78
820.058	100.69
820.236	39.25
820.414	33.11
820.592	131.41
820.77	106.84
820.948	53.59
821.127	106.84
821.305	106.84
821.483	61.78
821.661	94.55
821.839	69.97
822.017	182.61
822.195	86.36
822.373	69.97
822.551	100.69
822.729	88.4
822.907	26.96
823.085	63.83
823.262	49.49
823.44	149.84
823.618	55.64
823.796	31.06
823.974	-7.85
824.152	90.45
824.329	4.44
824.507	53.59
824.685	192.85
824.863	119.12
825.04	41.3
825.218	-9.9
825.396	12.63
825.574	96.6
825.751	49.49
825.929	84.31
826.107	43.35
826.284	31.06
826.462	106.84
826.639	72.02
826.817	67.92
826.994	16.73
827.172	43.35
827.349	86.36
827.527	88.4
827.704	102.74
827.882	-1.71
828.059	37.2
828.237	76.12
828.414	98.64
828.591	47.44
828.769	69.97
828.946	67.92
829.124	67.92
829.301	74.07
829.478	-5.8
829.655	51.54
829.833	119.12
830.01	16.73
830.187	51.54
830.364	45.4
830.542	37.2
830.719	151.89
830.896	37.2
831.073	45.4
831.25	0.34
831.427	129.36
831.604	127.32
831.782	53.59
831.959	72.02
832.136	31.06
832.313	-34.47
832.49	-3.75
832.667	104.79
832.844	78.16
833.021	86.36
833.198	31.06
833.374	119.12
833.551	26.96
833.728	76.12
833.905	174.42
834.082	65.88
834.259	59.73
834.436	88.4
834.612	55.64
834.789	90.45
834.966	86.36
835.143	90.45
835.319	39.25
835.496	112.98
835.673	108.88
835.85	106.84
836.026	53.59
836.203	43.35
836.38	33.11
836.556	29.01
836.733	59.73
836.909	53.59
837.086	74.07
837.262	65.88
837.439	61.78
837.616	-11.95
837.792	86.36
837.968	90.45
838.145	29.01
838.321	121.17
838.498	57.68
838.674	33.11
838.851	65.88
839.027	59.73
839.203	-1.71
839.38	39.25
839.556	8.53
839.732	59.73
839.909	39.25
840.085	43.35
840.261	29.01
840.437	49.49
840.614	57.68
840.79	90.45
840.966	49.49
841.142	69.97
841.318	6.49
841.494	59.73
841.671	72.02
841.847	78.16
842.023	12.63
842.199	98.64
842.375	102.74
842.551	26.96
842.727	-7.85
842.903	92.5
843.079	12.63
843.255	45.4
843.431	-3.75
843.607	22.87
843.783	16.73
843.959	82.26
844.134	-5.8
844.31	22.87
844.486	-22.19
844.662	-11.95
844.838	-16.04
845.013	43.35
845.189	61.78
845.365	43.35
845.541	-18.09
845.716	-11.95
845.892	39.25
846.068	6.49
846.244	-16.04
846.419	69.97
846.595	-22.19
846.77	76.12
846.946	-48.81
847.122	24.92
847.297	-16.04
847.473	45.4
847.648	-46.76
847.824	-3.75
847.999	-7.85
848.175	41.3
848.35	14.68
848.526	-18.09
848.701	39.25
848.876	-20.14
849.052	-22.19
849.227	6.49
849.403	86.36
849.578	26.96
849.753	37.2
849.929	47.44
850.104	43.35
850.279	-36.52
850.454	37.2
850.63	-30.38
850.805	57.68
850.98	29.01
851.155	-48.81
851.33	-85.67
851.505	4.44
851.681	67.92
851.856	55.64
852.031	-22.19
852.206	45.4
852.381	-48.81
852.556	26.96
852.731	78.16
852.906	45.4
853.081	26.96
853.256	22.87
853.431	10.58
853.606	2.39
853.781	-38.57
853.956	33.11
854.131	88.4
854.305	20.82
854.48	57.68
854.655	-11.95
854.83	47.44
855.005	-42.67
855.18	-52.91
855.354	55.64
855.529	63.83
855.704	24.92
855.879	37.2
856.053	22.87
856.228	-36.52
856.403	-28.33
856.577	-18.09
856.752	-50.86
856.926	47.44
857.101	98.64
857.276	59.73
857.45	-1.71
857.625	29.01
857.799	84.31
857.974	12.63
858.148	-57
858.323	22.87
858.497	37.2
858.672	26.96
858.846	-16.04
859.02	127.32
859.195	10.58
859.369	-34.47
859.543	-28.33
859.718	-57
859.892	55.64
860.066	16.73
860.241	10.58
860.415	12.63
860.589	-26.28
860.763	6.49
860.938	57.68
861.112	29.01
861.286	4.44
861.46	16.73
861.634	-18.09
861.808	-28.33
861.982	-5.8
862.157	-18.09
862.331	-1.71
862.505	22.87
862.679	-77.48
862.853	-26.28
863.027	20.82
863.201	47.44
863.375	-57
863.549	35.16
863.722	-7.85
863.896	72.02
864.07	4.44
864.244	69.97
864.418	-26.28
864.592	-26.28
864.766	-24.23
864.939	22.87
865.113	-26.28
865.287	-24.23
865.461	-100.01
865.634	16.73
865.808	-73.39
865.982	49.49
866.156	-34.47
866.329	-54.95
866.503	0.34
866.676	29.01
866.85	2.39
867.024	-13.99
867.197	41.3
867.371	-1.71
867.544	4.44
867.718	-59.05
867.891	12.63
868.065	6.49
868.238	-32.43
868.412	88.4
868.585	33.11
868.759	-42.67
868.932	55.64
869.105	-38.57
869.279	-22.19
869.452	84.31
869.625	-57
869.799	61.78
869.972	-11.95
870.145	-48.81
870.319	78.16
870.492	-34.47
870.665	-24.23
870.838	-20.14
871.011	-42.67
871.185	-48.81
871.358	-67.24
871.531	-5.8
871.704	-54.95
871.877	-13.99
872.05	0.34
872.223	-38.57
872.396	-5.8
872.569	0.34
872.742	-9.9
872.915	49.49
873.088	-46.76
873.261	45.4
873.434	6.49
873.607	-36.52
873.78	55.64
873.953	-5.8
874.126	16.73
874.299	26.96
874.471	-50.86
874.644	-40.62
874.817	106.84
874.99	-20.14
875.163	-50.86
875.335	-40.62
875.508	-24.23
875.681	76.12
875.853	6.49
876.026	98.64
876.199	78.16
876.371	43.35
876.544	-63.15
876.717	-13.99
876.889	10.58
877.062	-28.33
877.234	49.49
877.407	39.25
877.579	53.59
877.752	22.87
877.924	-71.34
878.097	8.53
878.269	26.96
878.442	2.39
878.614	-32.43
878.786	24.92
878.959	41.3
879.131	24.92
879.303	4.44
879.476	-16.04
879.648	-20.14
879.82	45.4
879.993	-3.75
880.165	12.63
880.337	14.68
880.509	37.2
880.681	10.58
880.854	-67.24
881.026	16.73
881.198	55.64
881.37	-20.14
881.542	39.25
881.714	-13.99
881.886	-13.99
882.058	-46.76
882.23	-52.91
882.402	47.44
882.574	14.68
882.746	47.44
882.918	0.34
883.09	-9.9
883.262	45.4
883.434	-26.28
883.606	-40.62
883.778	37.2
883.95	49.49
884.122	-81.58
884.293	84.31
884.465	-18.09
884.637	-7.85
884.809	-20.14
884.98	-38.57
885.152	-16.04
885.324	22.87
885.496	-22.19
885.667	-83.63
885.839	-46.76
886.011	14.68
886.182	-50.86
886.354	6.49
886.525	-9.9
886.697	-7.85
886.869	-77.48
887.04	-40.62
887.212	8.53
887.383	39.25
887.555	0.34
887.726	-42.67
887.897	-28.33
888.069	37.2
888.24	-7.85
888.412	33.11
888.583	-44.71
888.754	-9.9
888.926	-30.38
889.097	-26.28
889.268	-48.81
889.44	57.68
889.611	-104.11
889.782	4.44
889.953	16.73
890.125	45.4
890.296	-9.9
890.467	-3.75
890.638	-18.09
890.809	57.68
890.98	20.82
891.151	14.68
891.323	63.83
891.494	16.73
891.665	-5.8
891.836	41.3
892.007	-28.33
892.178	51.54
892.349	4.44
892.52	-3.75
892.691	-18.09
892.862	10.58
893.032	-104.11
893.203	49.49
893.374	-3.75
893.545	31.06
893.716	-59.05
893.887	-26.28
894.057	-50.86
894.228	0.34
894.399	-24.23
894.57	-28.33
894.74	-38.57
894.911	61.78
895.082	-34.47
895.253	-28.33
895.423	-67.24
895.594	-1.71
895.764	22.87
895.935	-28.33
896.106	18.77
896.276	33.11
896.447	26.96
896.617	4.44
896.788	-65.19
896.958	-7.85
897.129	-24.23
897.299	-22.19
897.47	-20.14
897.64	-5.8
897.81	-44.71
897.981	37.2
898.151	-40.62
898.322	-18.09
898.492	-1.71
898.662	-54.95
898.832	-1.71
899.003	10.58
899.173	-79.53
899.343	29.01
899.513	20.82
