Data from USB4F104151__76__11-06-21-104.txt Node

Date: Wed Mar 12 11:06:21 EDT 2025
User: louis
Spectrometer: USB4F10415
Trigger mode: 4
Integration Time (sec): 2.000000E-2
Scans to average: 1
Electric dark correction enabled: true
Nonlinearity correction enabled: false
Boxcar width: 0
XAxis mode: Wavelengths
Number of Pixels in Spectrum: 3648
>>>>>Begin Spectral Data<<<<<
178.204	-72.87
178.424	-72.87
178.644	-72.87
178.864	-103.59
179.084	-89.26
179.304	4.95
179.524	-68.78
179.744	0.85
179.964	4.95
180.184	45.91
180.404	-23.72
180.624	-15.53
180.844	58.2
181.064	-23.72
181.283	17.24
181.503	-11.43
181.723	11.09
181.943	29.52
182.163	117.59
182.383	-15.53
182.602	15.19
182.822	52.05
183.042	105.3
183.262	111.44
183.482	33.62
183.701	78.68
183.921	74.58
184.141	93.01
184.361	62.29
184.58	25.43
184.8	62.29
185.02	119.64
185.239	78.68
185.459	119.64
185.679	86.87
185.898	117.59
186.118	70.48
186.338	119.64
186.557	115.54
186.777	35.67
186.997	50
187.216	35.67
187.436	7
187.655	37.72
187.875	101.2
188.095	78.68
188.314	78.68
188.534	99.16
188.753	11.09
188.973	78.68
189.192	93.01
189.412	25.43
189.631	66.39
189.851	58.2
190.07	56.15
190.29	-17.58
190.509	43.86
190.729	13.14
190.948	80.72
191.168	117.59
191.387	82.77
191.607	64.34
191.826	86.87
192.045	-33.96
192.265	13.14
192.484	21.33
192.704	21.33
192.923	13.14
193.142	131.92
193.362	-23.72
193.581	60.24
193.8	66.39
194.02	-9.39
194.239	35.67
194.458	47.96
194.678	127.83
194.897	62.29
195.116	93.01
195.335	95.06
195.555	76.63
195.774	64.34
195.993	58.2
196.212	88.92
196.432	70.48
196.651	50
196.87	21.33
197.089	82.77
197.308	70.48
197.528	56.15
197.747	33.62
197.966	19.29
198.185	47.96
198.404	68.44
198.623	84.82
198.842	58.2
199.062	82.77
199.281	152.4
199.5	27.48
199.719	21.33
199.938	109.4
200.157	80.72
200.376	66.39
200.595	127.83
200.814	41.81
201.033	13.14
201.252	82.77
201.471	41.81
201.69	-3.24
201.909	35.67
202.128	37.72
202.347	50
202.566	27.48
202.785	19.29
203.004	58.2
203.223	136.02
203.442	64.34
203.661	101.2
203.879	19.29
204.098	62.29
204.317	17.24
204.536	101.2
204.755	121.68
204.974	62.29
205.193	23.38
205.411	39.76
205.63	86.87
205.849	56.15
206.068	103.25
206.287	109.4
206.505	29.52
206.724	88.92
206.943	7
207.162	50
207.381	-21.67
207.599	60.24
207.818	19.29
208.037	60.24
208.255	99.16
208.474	43.86
208.693	35.67
208.911	78.68
209.13	70.48
209.349	0.85
209.567	93.01
209.786	56.15
210.005	15.19
210.223	-1.19
210.442	52.05
210.661	66.39
210.879	23.38
211.098	23.38
211.316	62.29
211.535	64.34
211.753	-15.53
211.972	35.67
212.191	-13.48
212.409	35.67
212.628	50
212.846	90.96
213.065	52.05
213.283	80.72
213.502	117.59
213.72	47.96
213.938	60.24
214.157	76.63
214.375	35.67
214.594	31.57
214.812	111.44
215.031	111.44
215.249	86.87
215.467	58.2
215.686	35.67
215.904	88.92
216.122	97.11
216.341	103.25
216.559	41.81
216.778	113.49
216.996	140.12
217.214	45.91
217.432	2.9
217.651	21.33
217.869	117.59
218.087	86.87
218.306	-36.01
218.524	56.15
218.742	2.9
218.96	95.06
219.179	-5.29
219.397	43.86
219.615	68.44
219.833	70.48
220.051	54.1
220.27	25.43
220.488	97.11
220.706	47.96
220.924	90.96
221.142	47.96
221.36	-7.34
221.578	43.86
221.796	66.39
222.015	9.05
222.233	54.1
222.451	78.68
222.669	-23.72
222.887	95.06
223.105	52.05
223.323	97.11
223.541	50
223.759	136.02
223.977	58.2
224.195	84.82
224.413	54.1
224.631	90.96
224.849	62.29
225.067	90.96
225.285	90.96
225.503	45.91
225.721	95.06
225.939	70.48
226.157	52.05
226.375	121.68
226.592	17.24
226.81	93.01
227.028	31.57
227.246	113.49
227.464	66.39
227.682	90.96
227.9	82.77
228.117	50
228.335	72.53
228.553	103.25
228.771	19.29
228.989	37.72
229.206	29.52
229.424	80.72
229.642	25.43
229.86	-3.24
230.077	136.02
230.295	101.2
230.513	-5.29
230.731	70.48
230.948	15.19
231.166	90.96
231.384	41.81
231.601	15.19
231.819	107.35
232.037	37.72
232.254	33.62
232.472	131.92
232.689	52.05
232.907	138.07
233.125	82.77
233.342	17.24
233.56	50
233.777	50
233.995	78.68
234.213	29.52
234.43	95.06
234.648	56.15
234.865	111.44
235.083	82.77
235.3	90.96
235.518	82.77
235.735	105.3
235.953	0.85
236.17	72.53
236.388	109.4
236.605	115.54
236.822	64.34
237.04	74.58
237.257	45.91
237.475	54.1
237.692	31.57
237.909	125.78
238.127	93.01
238.344	66.39
238.562	-3.24
238.779	39.76
238.996	64.34
239.214	31.57
239.431	54.1
239.648	58.2
239.865	37.72
240.083	27.48
240.3	54.1
240.517	50
240.735	27.48
240.952	72.53
241.169	97.11
241.386	97.11
241.603	82.77
241.821	76.63
242.038	27.48
242.255	39.76
242.472	25.43
242.689	31.57
242.907	113.49
243.124	31.57
243.341	66.39
243.558	103.25
243.775	37.72
243.992	68.44
244.209	90.96
244.426	66.39
244.643	131.92
244.86	45.91
245.078	125.78
245.295	56.15
245.512	52.05
245.729	50
245.946	95.06
246.163	15.19
246.38	58.2
246.597	93.01
246.814	62.29
247.031	43.86
247.248	113.49
247.464	119.64
247.681	103.25
247.898	80.72
248.115	101.2
248.332	99.16
248.549	70.48
248.766	150.36
248.983	93.01
249.2	43.86
249.417	144.21
249.633	9.05
249.85	101.2
250.067	52.05
250.284	58.2
250.501	31.57
250.717	58.2
250.934	90.96
251.151	39.76
251.368	68.44
251.585	25.43
251.801	109.4
252.018	103.25
252.235	21.33
252.451	15.19
252.668	56.15
252.885	9.05
253.102	119.64
253.318	78.68
253.535	105.3
253.752	54.1
253.968	80.72
254.185	21.33
254.401	4.95
254.618	119.64
254.835	43.86
255.051	107.35
255.268	58.2
255.484	131.92
255.701	78.68
255.917	4.95
256.134	-15.53
256.351	74.58
256.567	-21.67
256.784	80.72
257	33.62
257.217	78.68
257.433	109.4
257.65	45.91
257.866	29.52
258.082	66.39
258.299	72.53
258.515	154.45
258.732	-1.19
258.948	-1.19
259.165	-15.53
259.381	7
259.597	154.45
259.814	72.53
260.03	72.53
260.246	60.24
260.463	35.67
260.679	70.48
260.895	-15.53
261.112	29.52
261.328	105.3
261.544	68.44
261.761	144.21
261.977	88.92
262.193	21.33
262.409	33.62
262.626	41.81
262.842	82.77
263.058	41.81
263.274	0.85
263.49	78.68
263.707	52.05
263.923	58.2
264.139	68.44
264.355	107.35
264.571	103.25
264.787	64.34
265.004	127.83
265.22	29.52
265.436	33.62
265.652	39.76
265.868	95.06
266.084	52.05
266.3	107.35
266.516	-9.39
266.732	78.68
266.948	93.01
267.164	19.29
267.38	19.29
267.596	133.97
267.812	90.96
268.028	74.58
268.244	39.76
268.46	138.07
268.676	58.2
268.892	15.19
269.108	119.64
269.324	74.58
269.54	113.49
269.756	90.96
269.972	25.43
270.188	2.9
270.403	19.29
270.619	54.1
270.835	113.49
271.051	19.29
271.267	66.39
271.483	62.29
271.698	50
271.914	52.05
272.13	15.19
272.346	115.54
272.562	105.3
272.777	-17.58
272.993	90.96
273.209	47.96
273.425	123.73
273.64	37.72
273.856	7
274.072	111.44
274.287	37.72
274.503	33.62
274.719	50
274.934	54.1
275.15	-23.72
275.366	105.3
275.581	27.48
275.797	45.91
276.012	31.57
276.228	99.16
276.444	68.44
276.659	31.57
276.875	60.24
277.09	86.87
277.306	27.48
277.521	54.1
277.737	33.62
277.952	133.97
278.168	54.1
278.383	43.86
278.599	90.96
278.814	29.52
279.03	-3.24
279.245	93.01
279.461	84.82
279.676	80.72
279.892	35.67
280.107	56.15
280.322	86.87
280.538	37.72
280.753	88.92
280.969	47.96
281.184	0.85
281.399	86.87
281.615	52.05
281.83	70.48
282.045	109.4
282.26	68.44
282.476	76.63
282.691	78.68
282.906	109.4
283.122	37.72
283.337	23.38
283.552	93.01
283.767	60.24
283.983	99.16
284.198	52.05
284.413	76.63
284.628	99.16
284.843	41.81
285.058	76.63
285.274	72.53
285.489	78.68
285.704	68.44
285.919	23.38
286.134	101.2
286.349	43.86
286.564	101.2
286.779	4.95
286.995	76.63
287.21	99.16
287.425	119.64
287.64	129.88
287.855	-11.43
288.07	21.33
288.285	113.49
288.5	39.76
288.715	105.3
288.93	119.64
289.145	76.63
289.36	70.48
289.575	101.2
289.79	88.92
290.004	78.68
290.219	111.44
290.434	84.82
290.649	47.96
290.864	13.14
291.079	60.24
291.294	76.63
291.509	72.53
291.724	58.2
291.938	33.62
292.153	74.58
292.368	41.81
292.583	123.73
292.798	62.29
293.012	86.87
293.227	72.53
293.442	43.86
293.657	35.67
293.871	78.68
294.086	0.85
294.301	78.68
294.516	84.82
294.73	43.86
294.945	-15.53
295.16	41.81
295.374	84.82
295.589	152.4
295.804	97.11
296.018	62.29
296.233	58.2
296.447	168.79
296.662	33.62
296.877	52.05
297.091	93.01
297.306	125.78
297.52	82.77
297.735	23.38
297.949	58.2
298.164	162.64
298.378	64.34
298.593	50
298.807	78.68
299.022	25.43
299.236	-7.34
299.451	164.69
299.665	62.29
299.88	17.24
300.094	121.68
300.309	95.06
300.523	109.4
300.737	7
300.952	25.43
301.166	68.44
301.381	101.2
301.595	119.64
301.809	84.82
302.024	140.12
302.238	4.95
302.452	82.77
302.667	62.29
302.881	99.16
303.095	160.59
303.309	121.68
303.524	93.01
303.738	72.53
303.952	62.29
304.166	136.02
304.381	9.05
304.595	88.92
304.809	103.25
305.023	97.11
305.237	111.44
305.452	-7.34
305.666	95.06
305.88	68.44
306.094	58.2
306.308	27.48
306.522	66.39
306.736	95.06
306.95	37.72
307.164	78.68
307.379	58.2
307.593	148.31
307.807	78.68
308.021	131.92
308.235	45.91
308.449	43.86
308.663	107.35
308.877	156.5
309.091	148.31
309.305	93.01
309.519	62.29
309.733	121.68
309.947	-3.24
310.161	129.88
310.374	70.48
310.588	84.82
310.802	62.29
311.016	136.02
311.23	107.35
311.444	19.29
311.658	45.91
311.872	105.3
312.085	45.91
312.299	111.44
312.513	93.01
312.727	74.58
312.941	31.57
313.154	90.96
313.368	111.44
313.582	74.58
313.796	47.96
314.009	25.43
314.223	101.2
314.437	78.68
314.651	72.53
314.864	76.63
315.078	21.33
315.292	93.01
315.505	58.2
315.719	72.53
315.933	150.36
316.146	82.77
316.36	62.29
316.573	176.98
316.787	111.44
317.001	76.63
317.214	39.76
317.428	68.44
317.641	80.72
317.855	80.72
318.068	54.1
318.282	70.48
318.495	-3.24
318.709	25.43
318.922	58.2
319.136	117.59
319.349	86.87
319.563	68.44
319.776	62.29
319.99	72.53
320.203	123.73
320.417	21.33
320.63	103.25
320.843	90.96
321.057	90.96
321.27	97.11
321.483	45.91
321.697	115.54
321.91	70.48
322.124	15.19
322.337	58.2
322.55	43.86
322.763	74.58
322.977	105.3
323.19	88.92
323.403	58.2
323.617	76.63
323.83	90.96
324.043	41.81
324.256	93.01
324.469	90.96
324.683	146.26
324.896	62.29
325.109	39.76
325.322	47.96
325.535	121.68
325.748	78.68
325.962	43.86
326.175	109.4
326.388	66.39
326.601	133.97
326.814	78.68
327.027	56.15
327.24	84.82
327.453	109.4
327.666	138.07
327.879	39.76
328.092	99.16
328.305	86.87
328.518	-11.43
328.731	72.53
328.944	66.39
329.157	97.11
329.37	84.82
329.583	80.72
329.796	52.05
330.009	123.73
330.222	160.59
330.435	66.39
330.648	9.05
330.861	54.1
331.073	54.1
331.286	72.53
331.499	80.72
331.712	62.29
331.925	0.85
332.138	70.48
332.35	62.29
332.563	52.05
332.776	58.2
332.989	35.67
333.202	95.06
333.414	148.31
333.627	82.77
333.84	54.1
334.053	93.01
334.265	129.88
334.478	115.54
334.691	66.39
334.903	93.01
335.116	58.2
335.329	76.63
335.541	62.29
335.754	76.63
335.966	62.29
336.179	80.72
336.392	111.44
336.604	72.53
336.817	64.34
337.029	129.88
337.242	103.25
337.454	84.82
337.667	144.21
337.88	115.54
338.092	21.33
338.305	138.07
338.517	86.87
338.729	119.64
338.942	117.59
339.154	62.29
339.367	138.07
339.579	72.53
339.792	136.02
340.004	66.39
340.217	95.06
340.429	103.25
340.641	80.72
340.854	45.91
341.066	21.33
341.278	109.4
341.491	80.72
341.703	90.96
341.915	105.3
342.128	88.92
342.34	86.87
342.552	54.1
342.764	11.09
342.977	76.63
343.189	56.15
343.401	166.74
343.613	103.25
343.826	66.39
344.038	127.83
344.25	-5.29
344.462	56.15
344.674	99.16
344.886	68.44
345.099	95.06
345.311	76.63
345.523	117.59
345.735	117.59
345.947	84.82
346.159	93.01
346.371	52.05
346.583	109.4
346.795	66.39
347.007	9.05
347.219	78.68
347.431	93.01
347.643	76.63
347.855	70.48
348.067	115.54
348.279	78.68
348.491	39.76
348.703	70.48
348.915	58.2
349.127	105.3
349.339	56.15
349.551	115.54
349.763	72.53
349.975	23.38
350.187	129.88
350.399	127.83
350.61	54.1
350.822	17.24
351.034	37.72
351.246	66.39
351.458	35.67
351.669	68.44
351.881	62.29
352.093	78.68
352.305	84.82
352.517	115.54
352.728	129.88
352.94	109.4
353.152	117.59
353.363	111.44
353.575	50
353.787	27.48
353.999	140.12
354.21	107.35
354.422	70.48
354.633	154.45
354.845	45.91
355.057	76.63
355.268	127.83
355.48	78.68
355.692	74.58
355.903	78.68
356.115	62.29
356.326	86.87
356.538	105.3
356.749	129.88
356.961	45.91
357.172	62.29
357.384	86.87
357.595	68.44
357.807	66.39
358.018	27.48
358.23	58.2
358.441	131.92
358.653	144.21
358.864	35.67
359.075	74.58
359.287	68.44
359.498	166.74
359.709	11.09
359.921	99.16
360.132	50
360.344	117.59
360.555	76.63
360.766	107.35
360.977	39.76
361.189	99.16
361.4	88.92
361.611	127.83
361.823	131.92
362.034	140.12
362.245	146.26
362.456	70.48
362.667	-23.72
362.879	84.82
363.09	109.4
363.301	74.58
363.512	121.68
363.723	131.92
363.935	123.73
364.146	66.39
364.357	90.96
364.568	109.4
364.779	64.34
364.99	70.48
365.201	72.53
365.412	123.73
365.623	11.09
365.834	99.16
366.045	37.72
366.256	93.01
366.467	107.35
366.678	74.58
366.889	58.2
367.1	21.33
367.311	146.26
367.522	84.82
367.733	103.25
367.944	99.16
368.155	88.92
368.366	119.64
368.577	64.34
368.788	105.3
368.999	-3.24
369.209	41.81
369.42	164.69
369.631	174.93
369.842	95.06
370.053	138.07
370.264	164.69
370.474	68.44
370.685	62.29
370.896	68.44
371.107	119.64
371.317	88.92
371.528	162.64
371.739	35.67
371.95	66.39
372.16	88.92
372.371	119.64
372.582	9.05
372.792	27.48
373.003	115.54
373.214	80.72
373.424	142.16
373.635	107.35
373.846	84.82
374.056	117.59
374.267	80.72
374.477	70.48
374.688	78.68
374.898	-7.34
375.109	115.54
375.319	127.83
375.53	125.78
375.74	66.39
375.951	103.25
376.161	138.07
376.372	123.73
376.582	99.16
376.793	86.87
377.003	58.2
377.214	58.2
377.424	82.77
377.635	84.82
377.845	88.92
378.055	99.16
378.266	37.72
378.476	50
378.686	15.19
378.897	60.24
379.107	121.68
379.317	78.68
379.528	129.88
379.738	140.12
379.948	41.81
380.158	125.78
380.369	101.2
380.579	144.21
380.789	29.52
380.999	115.54
381.21	109.4
381.42	189.27
381.63	78.68
381.84	15.19
382.05	144.21
382.261	138.07
382.471	115.54
382.681	7
382.891	93.01
383.101	93.01
383.311	127.83
383.521	121.68
383.731	158.55
383.941	84.82
384.151	109.4
384.361	50
384.571	88.92
384.781	138.07
384.991	43.86
385.201	103.25
385.411	80.72
385.621	60.24
385.831	99.16
386.041	129.88
386.251	19.29
386.461	111.44
386.671	70.48
386.881	86.87
387.091	113.49
387.301	148.31
387.511	58.2
387.72	72.53
387.93	103.25
388.14	99.16
388.35	142.16
388.56	142.16
388.769	123.73
388.979	140.12
389.189	84.82
389.399	142.16
389.609	133.97
389.818	113.49
390.028	60.24
390.238	138.07
390.447	95.06
390.657	97.11
390.867	103.25
391.076	101.2
391.286	117.59
391.496	162.64
391.705	168.79
391.915	160.59
392.125	95.06
392.334	154.45
392.544	172.88
392.753	109.4
392.963	33.62
393.172	158.55
393.382	47.96
393.591	166.74
393.801	113.49
394.01	131.92
394.22	80.72
394.429	125.78
394.639	105.3
394.848	119.64
395.058	117.59
395.267	146.26
395.477	133.97
395.686	109.4
395.895	152.4
396.105	154.45
396.314	176.98
396.524	222.03
396.733	140.12
396.942	168.79
397.152	119.64
397.361	154.45
397.57	133.97
397.78	23.38
397.989	189.27
398.198	209.75
398.407	162.64
398.617	164.69
398.826	176.98
399.035	174.93
399.244	181.07
399.453	68.44
399.663	162.64
399.872	232.27
400.081	146.26
400.29	217.94
400.499	201.55
400.708	224.08
400.917	260.95
401.127	152.4
401.336	174.93
401.545	209.75
401.754	191.31
401.963	213.84
402.172	152.4
402.381	144.21
402.59	258.9
402.799	246.61
403.008	250.71
403.217	201.55
403.426	205.65
403.635	162.64
403.844	185.17
404.053	209.75
404.262	260.95
404.471	179.03
404.68	150.36
404.888	236.37
405.097	254.8
405.306	191.31
405.515	287.57
405.724	244.56
405.933	353.1
406.142	344.91
406.35	260.95
406.559	195.41
406.768	240.47
406.977	312.14
407.185	285.52
407.394	320.34
407.603	279.38
407.812	316.24
408.02	312.14
408.229	338.77
408.438	381.78
408.646	285.52
408.855	344.91
409.064	359.25
409.272	355.15
409.481	463.69
409.69	308.05
409.898	371.54
410.107	369.49
410.315	557.9
410.524	506.7
410.733	432.97
410.941	488.27
411.15	578.38
411.358	549.71
411.567	557.9
411.775	521.04
411.984	611.15
412.192	564.04
412.401	566.09
412.609	586.57
412.818	658.25
413.026	695.11
413.234	783.18
413.443	729.93
413.651	787.27
413.86	783.18
414.068	850.76
414.276	869.19
414.485	850.76
414.693	856.9
414.901	920.39
415.11	920.39
415.318	861
415.526	951.11
415.734	1067.85
415.943	1137.48
416.151	1172.29
416.359	1094.47
416.567	1102.66
416.776	1200.96
416.984	1207.11
417.192	1401.66
417.4	1348.42
417.608	1387.33
417.817	1356.61
418.025	1524.54
418.233	1616.7
418.441	1598.27
418.649	1706.81
418.857	1792.83
419.065	1829.69
419.273	1790.78
419.481	1860.41
419.689	2100.02
419.897	1971
420.105	2104.12
420.313	2155.32
420.521	2059.06
420.729	2337.59
420.937	2343.73
421.145	2450.22
421.353	2515.76
421.561	2706.22
421.769	2659.12
421.977	2700.08
422.185	2730.8
422.393	2876.2
422.601	3240.74
422.809	3117.86
423.017	3113.77
423.224	3207.97
423.432	3314.47
423.64	3478.3
423.848	3679.01
424.056	3693.34
424.263	3834.65
424.471	3857.18
424.679	4084.5
424.887	4295.44
425.094	4389.65
425.302	4297.49
425.51	4565.78
425.718	4778.76
425.925	4731.66
426.133	4924.17
426.341	5153.54
426.548	5417.73
426.756	5432.07
426.964	5421.83
427.171	5679.87
427.379	6025.98
427.586	6218.49
427.794	6279.93
428.001	6451.95
428.209	6703.86
428.417	6595.31
428.624	7254.76
428.832	7262.95
429.039	7037.67
429.247	7189.22
429.454	7633.63
429.662	8272.6
429.869	7719.65
430.076	8291.03
430.284	8075.99
430.491	8420.05
430.699	8839.89
430.906	9016.01
431.114	8891.09
431.321	9265.86
431.528	9573.06
431.736	9999.04
431.943	10582.71
432.15	10306.23
432.358	10539.7
432.565	11080.36
432.772	10848.94
432.979	11616.93
433.187	11625.12
433.394	11811.49
433.601	12780.18
433.808	12585.62
434.016	12395.16
434.223	13128.33
434.43	13834.88
434.637	13800.07
434.844	14307.96
435.052	14629.49
435.259	14572.15
435.466	14760.56
435.673	14621.3
435.88	15448.68
436.087	16296.54
436.294	16376.41
436.501	16001.63
436.708	16302.68
436.915	16814.68
437.122	17510.99
437.329	17392.2
437.537	18113.09
437.743	18643.51
437.95	18401.85
438.157	19483.18
438.364	20259.36
438.571	19919.4
438.778	19827.24
438.985	21924.36
439.192	21131.79
439.399	21959.17
439.606	21162.51
439.813	22575.61
440.02	23693.8
440.227	23114.23
440.433	23003.64
440.64	23964.14
440.847	23626.22
441.054	24381.92
441.261	25772.49
441.467	25590.22
441.674	26268.1
441.881	27175.35
442.088	26720.7
442.294	26644.93
442.501	27556.27
442.708	27931.05
442.914	29233.56
443.121	30093.71
443.328	29585.81
443.534	31779.18
443.741	30675.33
443.948	30122.38
444.154	32506.21
444.361	32196.97
444.568	32334.18
444.774	32850.27
444.981	33065.31
445.187	33714.51
445.394	35293.5
445.6	35246.4
445.807	37884.18
446.013	36581.67
446.22	37288.22
446.426	38437.13
446.633	39049.47
446.839	39907.57
447.046	38394.12
447.252	40671.46
447.459	40921.32
447.665	40286.45
447.871	42094.8
448.078	44071.09
448.284	42205.39
448.491	42604.75
448.697	44497.07
448.903	45547.68
449.11	45357.22
449.316	44775.59
449.522	45557.92
449.728	46456.98
449.935	46995.59
450.141	46737.55
450.347	47890.55
450.553	46520.46
450.76	46712.97
450.966	47700.09
451.172	47995
451.378	48881.77
451.584	47700.09
451.791	49053.8
451.997	49485.92
452.203	49567.84
452.409	49420.39
452.615	49008.75
452.821	47446.15
453.027	47024.26
453.233	49498.21
453.44	47089.8
453.646	47739
453.852	48380.02
454.058	48826.48
454.264	46891.15
454.47	48060.54
454.676	47097.99
454.882	48572.53
455.088	44581.04
455.294	45043.88
455.5	45402.27
455.705	45996.18
455.911	44439.73
456.117	43409.6
456.323	42602.7
456.529	40282.35
456.735	42113.23
456.941	40999.14
457.147	40077.55
457.352	39428.35
457.558	38850.82
457.764	38936.84
457.97	38394.12
458.176	37126.43
458.381	37257.5
458.587	35074.37
458.793	35301.69
458.999	33515.86
459.204	36063.54
459.41	34761.03
459.616	32635.24
459.821	32616.8
460.027	32850.27
460.233	31592.82
460.438	30409.09
460.644	31033.72
460.85	29499.8
461.055	29372.82
461.261	28711.33
461.466	26771.9
461.672	25930.19
461.878	27728.3
462.083	25934.28
462.289	25545.17
462.494	25211.35
462.7	24345.06
462.905	23331.31
463.111	24236.52
463.316	24248.8
463.522	24148.45
463.727	23941.61
463.932	23970.28
464.138	23833.07
464.343	23734.76
464.549	23069.17
464.754	23898.6
464.959	23914.98
465.165	23319.03
465.37	22632.96
465.575	22229.51
465.781	22989.3
465.986	23230.96
466.191	22198.79
466.397	21740.04
466.602	20802.07
466.807	21273.1
467.012	21799.43
467.218	21447.18
467.423	21172.75
467.628	21434.89
467.833	22321.66
468.038	21471.76
468.244	20478.49
468.449	21973.51
468.654	20888.09
468.859	20666.91
469.064	20824.6
469.269	19935.78
469.474	19827.24
469.679	20099.62
469.885	19802.66
470.09	20189.73
470.295	19851.81
470.5	19495.47
470.705	19419.69
470.91	19096.11
471.115	18948.66
471.32	19485.23
471.525	18805.3
471.73	18637.37
471.935	18491.96
472.139	17785.41
472.344	18176.58
472.549	18192.96
472.754	18043.46
472.959	17244.75
473.164	17115.73
473.369	17009.23
473.574	17484.36
473.778	17205.84
473.983	17130.06
474.188	17001.04
474.393	16437.85
474.598	16456.28
474.802	16202.33
475.007	16171.61
475.212	16269.92
475.417	15336.04
475.621	15581.8
475.826	15667.81
476.031	15569.51
476.235	15092.34
476.44	15188.59
476.645	15020.66
476.849	15125.1
477.054	14723.7
477.259	14776.95
477.463	14813.81
477.668	14262.91
477.872	14461.56
478.077	14193.28
478.282	13820.55
478.486	14074.49
478.691	13918.85
478.895	13474.44
479.1	13662.85
479.304	13488.78
479.509	13116.05
479.713	13599.37
479.918	12966.54
480.122	12950.16
480.326	13326.99
480.531	13077.13
480.735	13105.81
480.94	12829.33
481.144	13251.21
481.348	12700.31
481.553	12925.58
481.757	12714.64
481.961	12540.57
482.166	13058.7
482.37	12751.51
482.574	12624.53
482.778	12671.64
482.983	13107.85
483.187	12626.58
483.391	12673.68
483.595	12536.47
483.8	12487.32
484.004	12448.41
484.208	12747.41
484.412	12710.55
484.616	12671.64
484.821	12655.25
485.025	12456.6
485.229	12665.49
485.433	12505.75
485.637	12780.18
485.841	12552.85
486.045	12632.72
486.249	12675.73
486.453	12655.25
486.657	12657.3
486.861	12661.4
487.065	12190.36
487.269	12702.36
487.473	12364.44
487.677	12575.38
487.881	12685.97
488.085	12710.55
488.289	12647.06
488.493	12794.51
488.697	12872.34
488.901	12647.06
489.105	12677.78
489.309	12956.3
489.512	12853.91
489.716	12776.08
489.92	12858
490.124	12499.61
490.328	13181.58
490.531	12747.41
490.735	13220.49
490.939	13062.8
491.143	13038.22
491.346	13054.61
491.55	13247.12
491.754	13050.51
491.958	13392.52
492.161	13009.55
492.365	13384.33
492.569	13177.48
492.772	13339.27
492.976	13808.26
493.18	13410.95
493.383	13712
493.587	13746.82
493.79	14084.73
493.994	13888.13
494.197	13867.65
494.401	14314.11
494.605	14062.21
494.808	14277.24
495.012	14301.82
495.215	14576.25
495.419	14656.12
495.622	14559.86
495.825	14951.03
496.029	14611.06
496.232	15172.21
496.436	14910.07
496.639	15626.85
496.843	15258.22
497.046	15766.12
497.249	15835.75
497.453	15833.7
497.656	16138.85
497.859	16185.95
498.063	16247.39
498.266	16548.44
498.469	16616.02
498.673	16673.37
498.876	16994.9
499.079	17291.85
499.282	17218.13
499.485	17623.62
499.689	17588.81
499.892	17816.13
500.095	18274.88
500.298	18424.38
500.501	18205.25
500.705	18741.82
500.908	18981.43
501.111	19212.85
501.314	19026.48
501.517	19661.35
501.72	19628.59
501.923	19743.27
502.126	20089.38
502.329	20263.46
502.532	20251.17
502.735	20617.75
502.938	20941.33
503.141	21060.12
503.344	21445.13
503.547	21381.65
503.75	21811.72
503.953	21959.17
504.156	22413.82
504.359	22309.38
504.562	22678.01
504.765	22993.4
504.968	23230.96
505.17	23663.08
505.373	23572.97
505.576	24179.17
505.779	24314.34
505.982	24355.3
506.185	24816.09
506.387	24850.91
506.59	25266.64
506.793	25749.96
506.996	25686.48
507.198	26327.49
507.401	26274.24
507.604	26227.14
507.807	27003.32
508.009	27206.07
508.212	27267.51
508.415	27615.66
508.617	28080.55
508.82	28174.76
509.022	28002.73
509.225	28799.39
509.428	28826.01
509.63	29239.7
509.833	29684.11
510.035	29981.07
510.238	30151.05
510.44	30292.36
510.643	30753.15
510.845	30798.21
511.048	30753.15
511.25	31447.41
511.453	31717.75
511.655	32848.22
511.858	32272.74
512.06	32422.25
512.262	32852.32
512.465	32903.52
512.667	33642.84
512.87	34056.53
513.072	33653.08
513.274	35064.13
513.477	35035.45
513.679	34738.5
513.881	35383.61
514.084	35758.39
514.286	35899.7
514.488	36251.95
514.69	37361.95
514.893	37302.56
515.095	37183.77
515.297	37964.05
515.499	37857.56
515.701	38254.86
515.904	38703.37
516.106	39115.01
516.308	39647.48
516.51	39973.11
516.712	39414.01
516.914	40356.08
517.116	40949.99
517.318	40968.42
517.52	40880.36
517.722	41500.89
517.925	41765.08
518.127	42174.67
518.329	42584.27
518.531	42565.84
518.733	43079.88
518.935	43755.71
519.136	43700.41
519.338	44265.65
519.54	44220.59
519.742	44894.38
519.944	45416.61
520.146	45660.32
520.348	45736.09
520.55	45998.23
520.752	46487.7
520.954	47331.46
521.155	47032.46
521.357	47937.66
521.559	47839.36
521.761	48400.5
521.963	48005.24
522.164	48162.93
522.366	48711.79
522.568	48871.53
522.77	48996.46
522.971	49592.42
523.173	49696.86
523.375	49993.82
523.576	50235.48
523.778	50264.15
523.98	51325
524.181	51193.93
524.383	51443.78
524.584	51707.97
524.786	51961.92
524.988	51626.05
525.189	52469.81
525.391	52584.5
525.592	52951.09
525.794	53596.2
525.995	53237.8
526.197	53512.23
526.398	53559.33
526.6	54155.29
526.801	54302.74
527.003	54591.51
527.204	54460.44
527.406	55025.68
527.607	54700.05
527.808	55011.34
528.01	54376.47
528.211	55033.87
528.412	55922.69
528.614	55533.57
528.815	55519.24
529.016	55775.23
529.218	55347.21
529.419	56041.47
529.62	56207.36
529.822	56129.53
530.023	56057.85
530.224	56096.77
530.425	56270.84
530.626	56100.86
530.828	55943.17
531.029	57294.83
531.23	56274.94
531.431	56260.6
531.632	56526.84
531.833	57012.21
532.035	56602.61
532.236	56924.14
532.437	57087.98
532.638	56631.29
532.839	56995.82
533.04	57157.61
533.241	56375.29
533.442	57571.3
533.643	57532.39
533.844	57057.26
534.045	57454.57
534.246	56932.34
534.447	57427.95
534.648	57591.78
534.849	57028.59
535.05	57174
535.251	57184.24
535.451	57735.14
535.652	57868.26
535.853	57358.31
536.054	57358.31
536.255	57374.7
536.456	57399.27
536.657	57606.12
536.857	57853.92
537.058	57171.95
537.259	57853.92
537.46	57546.73
537.66	57098.22
537.861	57692.13
538.062	57444.33
538.263	57487.34
538.463	57075.69
538.664	57010.16
538.865	57638.89
539.065	57583.59
539.266	57083.89
539.466	57518.06
539.667	56866.8
539.868	57718.76
540.068	57264.11
540.269	57210.86
540.469	57677.8
540.67	57038.83
540.87	57333.74
541.071	57694.18
541.271	57391.08
541.472	57489.38
541.672	57133.04
541.873	57374.7
542.073	56936.43
542.274	58087.39
542.474	57047.02
542.675	56809.46
542.875	57548.78
543.075	57317.35
543.276	56672.24
543.476	57634.79
543.676	57024.5
543.877	57255.92
544.077	57305.07
544.277	57063.41
544.478	57102.32
544.678	57303.02
544.878	57208.81
545.078	57186.28
545.279	57010.16
545.479	56500.22
545.679	57174
545.879	57077.74
546.079	56965.1
546.28	57208.81
546.48	56682.48
546.68	56866.8
546.88	57243.63
547.08	57266.16
547.28	56854.51
547.48	56248.32
547.68	57122.8
547.88	56694.77
548.081	57001.97
548.281	56610.81
548.481	56924.14
548.681	56893.43
548.881	56619
549.081	56817.65
549.28	56795.12
549.48	56924.14
549.68	56547.32
549.88	57331.69
550.08	56330.23
550.28	57116.65
550.48	56575.99
550.68	56791.03
550.88	56909.81
551.08	56270.84
551.279	56690.68
551.479	56078.33
551.679	56989.68
551.879	56395.77
552.079	56868.85
552.278	56383.48
552.478	56446.97
552.678	56465.4
552.878	56737.78
553.077	56471.54
553.277	55840.77
553.477	56848.37
553.676	55963.65
553.876	56358.91
554.076	56186.88
554.275	56285.18
554.475	55586.82
554.674	56563.7
554.874	56387.58
555.074	56336.38
555.273	56319.99
555.473	56473.59
555.672	55977.98
555.872	55883.78
556.071	56317.95
556.271	56727.54
556.47	55588.87
556.67	55326.73
556.869	55883.78
557.068	56242.17
557.268	55509
557.467	55486.47
557.667	55619.59
557.866	55785.47
558.065	55205.9
558.265	55228.43
558.464	55156.75
558.663	55797.76
558.863	55281.67
559.062	55719.94
559.261	54798.35
559.461	55435.27
559.66	54466.58
559.859	54822.93
560.058	54523.93
560.258	54859.79
560.457	53985.31
560.656	55058.45
560.855	54368.28
561.054	55169.04
561.253	54556.69
561.453	54640.66
561.652	54824.98
561.851	55121.93
562.05	54183.96
562.249	53960.73
562.448	54642.71
562.647	54128.67
562.846	54013.98
563.045	54167.58
563.244	53934.11
563.443	53880.86
563.642	53602.34
563.841	53549.09
564.04	53942.3
564.239	53852.19
564.438	53250.09
564.637	53446.69
564.836	53745.7
565.035	52983.85
565.234	53327.91
565.432	52574.26
565.631	53461.03
565.83	53008.43
566.029	52594.74
566.228	52609.07
566.427	52582.45
566.625	52578.36
566.824	51705.92
567.023	52561.97
567.222	51591.23
567.42	52189.24
567.619	51957.82
567.818	52095.03
568.016	52250.68
568.215	52219.96
568.414	51681.34
568.612	51812.41
568.811	51439.68
569.01	51890.24
569.208	51132.49
569.407	51783.74
569.605	50929.74
569.804	51884.09
570.002	50509.91
570.201	51175.5
570.4	50579.54
570.598	50683.98
570.797	50575.44
570.995	50853.97
571.193	50171.99
571.392	50751.57
571.59	49809.5
571.789	49938.52
571.987	49836.12
572.186	49840.22
572.384	49606.75
572.582	49727.58
572.781	50002.01
572.979	49178.73
573.177	49698.91
573.376	49453.15
573.574	49209.45
573.772	49473.63
573.971	48775.28
574.169	48978.03
574.367	48711.79
574.565	49244.26
574.763	49037.42
574.962	48601.2
575.16	48613.49
575.358	48461.94
575.556	47589.5
575.754	48623.73
575.952	47843.45
576.151	48539.76
576.349	47429.76
576.547	48121.98
576.745	47982.71
576.943	47671.42
577.141	47642.75
577.339	47820.92
577.537	47282.31
577.735	47370.37
577.933	47267.97
578.131	47007.88
578.329	46782.6
578.527	46829.71
578.725	47044.74
578.923	46987.4
579.121	46262.42
579.319	46375.06
579.516	46559.37
579.714	46176.4
579.912	45873.31
580.11	45926.55
580.308	46194.84
580.506	45832.35
580.704	45559.97
580.901	45867.16
581.099	45947.03
581.297	45672.6
581.495	45291.68
581.692	45344.93
581.89	44779.69
582.088	45136.04
582.285	44855.46
582.483	44816.55
582.681	45115.56
582.878	44935.34
583.076	44005.56
583.274	45045.93
583.471	44480.69
583.669	44589.23
583.866	44161.2
584.064	44277.94
584.262	43735.23
584.459	44632.24
584.657	43399.36
584.854	44144.82
585.052	43370.69
585.249	43407.55
585.447	43264.19
585.644	43315.39
585.841	43153.6
586.039	43163.84
586.236	42801.35
586.434	42563.79
586.631	42555.6
586.828	42805.45
587.026	42563.79
587.223	42653.9
587.42	42567.88
587.618	42184.91
587.815	42000.6
588.012	42305.74
588.21	41928.92
588.407	42326.22
588.604	41699.55
588.801	41564.38
588.999	41445.6
589.196	41146.59
589.393	41292
589.59	41208.03
589.787	41025.76
589.984	41470.17
590.182	40655.08
590.379	41408.73
590.576	40808.68
590.773	40673.51
590.97	40206.58
591.167	40397.04
591.364	39839.99
591.561	40403.18
591.758	39731.45
591.955	39756.02
592.152	40159.47
592.349	39790.84
592.546	40069.36
592.743	40126.71
592.94	39260.41
593.137	39317.76
593.334	39446.78
593.531	38689.03
593.727	39289.09
593.924	39219.45
594.121	39069.95
594.318	39061.76
594.515	38762.76
594.712	39162.11
594.908	38054.16
595.105	38514.95
595.302	38174.99
595.499	38854.92
595.696	37898.52
595.892	37794.07
596.089	37978.39
596.286	38088.98
596.482	37574.94
596.679	37921.04
596.876	37914.9
597.072	37572.89
597.269	37587.22
597.466	36862.24
597.662	37136.67
597.859	37327.13
598.055	37116.19
598.252	36852
598.448	36892.96
598.645	36915.49
598.841	36186.41
599.038	36743.46
599.234	37017.89
599.431	35973.42
599.627	36444.46
599.824	36034.86
600.02	35565.88
600.217	35914.03
600.413	35713.33
600.609	35707.19
600.806	35201.34
601.002	35565.88
601.198	35273.02
601.395	35590.45
601.591	35164.48
601.787	35133.76
601.984	35096.89
602.18	35610.93
602.376	35076.41
602.572	34443.59
602.769	35043.65
602.965	34443.59
603.161	34861.38
603.357	34697.54
603.553	34304.33
603.75	34650.44
603.946	33976.65
604.142	34709.83
604.338	33450.33
604.534	34289.99
604.73	33818.96
604.926	33896.78
605.122	33648.98
605.318	33282.39
605.514	33382.74
605.71	33257.82
605.906	33354.07
606.102	33257.82
606.298	33579.35
606.494	33223
606.69	32776.55
606.886	33032.54
607.082	32510.31
607.278	33239.39
607.474	32233.83
607.67	33173.85
607.866	32135.53
608.062	32672.1
608.257	32289.13
608.453	32287.08
608.649	32629.09
608.845	32078.19
609.041	32039.28
609.236	32160.11
609.432	32133.48
609.628	31906.16
609.824	31977.84
610.019	31555.96
610.215	31568.24
610.411	32065.9
610.606	31648.11
610.802	31932.78
610.998	31553.91
611.193	31932.78
611.389	31355.25
611.584	31345.02
611.78	31287.67
611.976	31390.07
612.171	31023.48
612.367	31361.4
612.562	31117.69
612.758	30665.09
612.953	30882.17
613.149	31410.55
613.344	30769.54
613.539	31267.19
613.735	30882.17
613.93	31074.68
614.126	31000.96
614.321	31277.43
614.517	31017.34
614.712	30636.42
614.907	30323.08
615.103	30912.89
615.298	30290.31
615.493	30947.71
615.688	29993.36
615.884	30689.67
616.079	30488.96
616.274	30224.78
616.47	30396.81
616.665	30398.85
616.86	30153.1
617.055	30400.9
617.25	29845.9
617.445	30142.86
617.641	29141.4
617.836	29790.61
618.031	29381.01
618.226	29766.03
618.421	29403.54
618.616	29798.8
618.811	28950.94
619.006	29471.12
619.201	28838.3
619.396	29251.99
619.591	28826.01
619.786	29057.43
619.981	28133.8
620.176	28805.53
620.371	28385.7
620.566	28500.39
620.761	28271.01
620.956	28533.15
621.151	27775.41
621.346	28109.22
621.541	27683.25
621.735	28166.57
621.93	27404.72
622.125	27711.92
622.32	27156.92
622.515	27492.79
622.709	27167.16
622.904	27152.82
623.099	26821.05
623.294	26894.78
623.488	26546.62
623.683	26468.8
623.878	26380.74
624.072	26155.46
624.267	26098.12
624.462	26010.06
624.656	26081.74
624.851	25969.1
625.046	25547.22
625.24	25725.39
625.435	25205.2
625.629	25235.92
625.824	24947.16
626.018	25229.78
626.213	24418.78
626.407	24830.43
626.602	24512.99
626.796	24424.93
626.991	24685.02
627.185	24521.18
627.38	23976.42
627.574	23876.07
627.768	23996.9
627.963	23810.54
628.157	23239.15
628.352	23448.05
628.546	23007.73
628.74	23337.46
628.935	22835.7
629.129	23312.88
629.323	23218.68
629.517	22847.99
629.712	22780.41
629.906	22417.92
630.1	22123.01
630.294	22376.96
630.489	22096.39
630.683	22286.85
630.877	21684.75
631.071	21920.26
631.265	22080
631.459	21422.61
631.653	21432.85
631.848	21346.83
632.042	21256.72
632.236	21391.89
632.43	20927
632.624	21176.85
632.818	21008.92
633.012	20535.84
633.206	20748.82
633.4	20705.82
633.594	20367.9
633.788	20632.09
633.982	20271.65
634.176	20208.16
634.369	20077.09
634.563	20146.72
634.757	20263.46
634.951	19866.15
635.145	19681.83
635.339	20036.13
635.533	19360.3
635.726	19401.26
635.92	19188.27
636.114	19411.5
636.308	19143.22
636.501	19139.12
636.695	19335.73
636.889	18721.34
637.083	18911.8
637.276	18549.31
637.47	18448.96
637.664	18526.78
637.857	18483.77
638.051	18383.42
638.244	18186.82
638.438	18012.74
638.632	17947.2
638.825	17680.97
639.019	18043.46
639.212	17658.44
639.406	17850.95
639.599	17613.38
639.793	17459.79
639.986	17175.12
640.18	17298
640.373	17287.76
640.567	17113.68
640.76	17103.44
640.954	16917.08
641.147	16839.25
641.34	16734.81
641.534	16749.14
641.727	16681.56
641.92	16472.67
642.114	16765.53
642.307	16618.07
642.5	16200.29
642.694	15852.13
642.887	16030.3
643.08	16036.45
643.273	16087.65
643.467	15925.86
643.66	15639.14
643.853	15573.61
644.046	15401.58
644.239	15532.65
644.432	15358.57
644.626	15223.41
644.819	15432.3
645.012	15403.63
645.205	15186.54
645.398	15180.4
645.591	14920.31
645.784	14991.98
645.977	14840.43
646.17	14756.47
646.363	14471.8
646.556	14527.1
646.749	14752.37
646.942	14477.94
647.135	14144.13
647.328	14246.52
647.521	14193.28
647.714	13879.94
647.907	14033.54
648.099	14023.3
648.292	14060.16
648.485	13771.4
648.678	13734.53
648.871	13564.55
649.064	13539.97
649.256	13957.76
649.449	13574.79
649.642	13470.34
649.835	13490.82
650.027	13249.16
650.22	13236.88
650.413	13306.51
650.605	13097.61
650.798	12937.87
650.991	12901.01
651.183	13036.17
651.376	12995.22
651.568	12796.56
651.761	12726.93
651.954	12659.35
652.146	12776.08
652.339	12481.17
652.531	12456.6
652.724	12509.85
652.916	11977.37
653.109	12247.71
653.301	12012.19
653.494	12247.71
653.686	11842.21
653.879	12257.95
654.071	11850.4
654.263	11836.06
654.456	12139.16
654.648	11891.36
654.84	11674.28
655.033	11551.4
655.225	11590.31
655.417	11553.45
655.61	11436.71
655.802	11451.05
655.994	11231.91
656.186	11455.14
656.379	11178.67
656.571	11283.11
656.763	10973.87
656.955	11027.12
657.148	11121.32
657.34	10916.53
657.532	10812.08
657.724	11014.83
657.916	10937.01
658.108	10615.48
658.3	10783.41
658.492	10631.86
658.684	10455.73
658.876	10433.21
659.068	10566.32
659.26	10416.82
659.452	10463.93
659.644	10470.07
659.836	10097.34
660.028	10310.33
660.22	10048.19
660.412	10109.63
660.604	10076.86
660.796	10183.35
660.988	9775.81
661.18	9827.01
661.372	9917.12
661.563	9794.24
661.755	9657.03
661.947	9564.87
662.139	9540.29
662.331	9671.36
662.522	9571.01
662.714	9548.48
662.906	9550.53
663.097	9388.74
663.289	9204.42
663.481	9292.49
663.673	9202.38
663.864	8993.48
664.056	8954.57
664.247	9056.97
664.439	8886.99
664.631	8893.13
664.822	8987.34
665.014	9009.87
665.205	8819.41
665.397	8786.64
665.588	8987.34
665.78	8813.26
665.971	8645.33
666.163	8717.01
666.354	8547.03
666.546	8635.09
666.737	8415.96
666.929	8575.7
667.12	8512.21
667.311	8555.22
667.503	8155.86
667.694	8364.76
667.885	8305.37
668.077	8147.67
668.268	8039.13
668.459	8254.17
668.651	8049.37
668.842	8172.25
669.033	7983.84
669.224	8174.3
669.416	8002.27
669.607	7875.29
669.798	7660.26
669.989	7981.79
670.18	7885.53
670.371	7733.98
670.563	7932.64
670.754	7615.2
670.945	7443.17
671.136	7768.8
671.327	7590.63
671.518	7545.57
671.709	7551.71
671.9	7381.73
672.091	7432.93
672.282	7459.56
672.473	7260.9
672.664	7486.18
672.855	7367.4
673.046	7299.81
673.237	7301.86
673.428	7152.36
673.619	7230.18
673.809	7195.37
674	7078.63
674.191	7009
674.382	7056.11
674.573	7045.87
674.764	6839.02
674.954	7049.96
675.145	6927.08
675.336	6882.03
675.527	7103.21
675.717	7049.96
675.908	6748.91
676.099	6871.79
676.289	6656.75
676.48	6744.81
676.671	6636.27
676.861	6619.89
677.052	6509.3
677.243	6464.24
677.433	6568.69
677.624	6812.4
677.814	6712.05
678.005	6619.89
678.195	6402.8
678.386	6439.67
678.576	6351.6
678.767	6486.77
678.957	6292.21
679.148	6533.87
679.338	6458.1
679.529	6292.21
679.719	6306.55
679.909	6367.99
680.1	6179.58
680.29	6275.83
680.481	6152.95
680.671	6130.42
680.861	6251.25
681.052	6073.08
681.242	6038.27
681.432	6304.5
681.622	6028.03
681.813	6083.32
682.003	5993.21
682.193	5868.28
682.383	6099.7
682.573	5923.58
682.764	5944.06
682.954	5878.52
683.144	5909.24
683.334	5823.23
683.524	5794.56
683.714	5954.3
683.904	5944.06
684.094	5802.75
684.284	5776.13
684.474	5776.13
684.664	5683.97
684.854	5849.85
685.044	5702.4
685.234	5550.85
685.424	5733.12
685.614	5649.15
685.804	5614.34
685.994	5620.48
686.184	5663.49
686.374	5522.18
686.564	5612.29
686.753	5374.72
686.943	5337.86
687.133	5462.79
687.323	5417.73
687.513	5325.57
687.702	5403.39
687.892	5430.02
688.082	5198.6
688.272	5458.69
688.461	5294.85
688.651	5350.15
688.841	5272.32
689.03	5268.23
689.22	5085.96
689.41	5040.9
689.599	5180.17
689.789	5167.88
689.979	5096.2
690.168	5126.92
690.358	5108.49
690.547	5094.15
690.737	5122.82
690.926	4889.35
691.116	5014.28
691.305	5067.53
691.495	4721.42
691.684	4803.34
691.874	4938.51
692.063	4938.51
692.252	4848.4
692.442	4825.87
692.631	4832.01
692.82	4862.73
693.01	4778.76
693.199	4698.89
693.388	4633.36
693.578	4594.45
693.767	4801.29
693.956	4731.66
694.146	4737.81
694.335	4621.07
694.524	4639.5
694.713	4741.9
694.902	4741.9
695.092	4567.82
695.281	4549.39
695.47	4633.36
695.659	4571.92
695.848	4582.16
696.037	4612.88
696.226	4551.44
696.415	4397.84
696.604	4457.23
696.793	4594.45
696.982	4555.54
697.171	4436.75
697.36	4403.99
697.549	4424.47
697.738	4576.02
697.927	4322.07
698.116	4322.07
698.305	4297.49
698.494	4317.97
698.683	4336.4
698.872	4401.94
699.061	4475.67
699.25	4363.03
699.438	4352.79
699.627	4301.59
699.816	4410.13
700.005	4248.34
700.193	4338.45
700.382	4399.89
700.571	4207.38
700.76	4264.72
700.948	4182.81
701.137	4166.42
701.326	4377.36
701.514	4133.65
701.703	4217.62
701.892	4166.42
702.08	4197.14
702.269	4147.99
702.457	4152.09
702.646	4143.89
702.834	4186.9
703.023	4231.96
703.212	4080.41
703.4	4084.5
703.589	4074.26
703.777	4088.6
703.965	4211.48
704.154	4082.46
704.342	4059.93
704.531	4152.09
704.719	3984.15
704.907	4098.84
705.096	4086.55
705.284	3959.58
705.472	4027.16
705.661	4059.93
705.849	4115.22
706.037	3945.24
706.226	4000.54
706.414	3986.2
706.602	3928.86
706.79	4064.02
706.979	4045.59
707.167	3965.72
707.355	4035.35
707.543	4006.68
707.731	4074.26
707.919	3937.05
708.107	3787.55
708.296	3801.88
708.484	4055.83
708.672	3891.99
708.86	3781.4
709.048	3896.09
709.236	3945.24
709.424	3869.47
709.612	3906.33
709.8	3805.98
709.988	3734.3
710.176	3834.65
710.364	3783.45
710.551	3879.71
710.739	3836.7
710.927	3730.2
711.115	3795.74
711.303	3775.26
711.491	3742.49
711.679	3808.03
711.866	3760.92
712.054	3773.21
712.242	3728.16
712.43	3707.68
712.617	3644.19
712.805	3707.68
712.993	3619.61
713.181	3617.57
713.368	3633.95
713.556	3629.85
713.744	3617.57
713.931	3775.26
714.119	3642.14
714.306	3662.62
714.494	3709.72
714.682	3621.66
714.869	3656.48
715.057	3586.85
715.244	3607.33
715.432	3681.05
715.619	3662.62
715.807	3576.61
715.994	3547.94
716.182	3466.02
716.369	3623.71
716.556	3613.47
716.744	3609.37
716.931	3529.5
717.119	3558.18
717.306	3509.02
717.493	3580.7
717.681	3490.59
717.868	3478.3
718.055	3445.54
718.242	3468.06
718.43	3560.22
718.617	3404.58
718.804	3601.18
718.991	3486.5
719.179	3558.18
719.366	3334.95
719.553	3328.8
719.74	3293.99
719.927	3457.82
720.114	3431.2
720.301	3361.57
720.488	3433.25
720.676	3283.75
720.863	3461.92
721.05	3371.81
721.237	3472.16
721.424	3341.09
721.611	3418.91
721.798	3332.9
721.985	3205.92
722.172	3351.33
722.358	3289.89
722.545	3255.08
722.732	3306.27
722.919	3410.72
723.106	3232.55
723.293	3347.23
723.48	3234.6
723.667	3308.32
723.853	3236.64
724.04	3271.46
724.227	3277.6
724.414	3236.64
724.6	3291.94
724.787	3304.23
724.974	3267.36
725.161	3232.55
725.347	3240.74
725.534	3263.27
725.72	3310.37
725.907	3181.35
726.094	3187.49
726.28	3191.59
726.467	3212.07
726.653	3091.24
726.84	3238.69
727.027	3199.78
727.213	3062.57
727.4	3228.45
727.586	3167.01
727.773	2976.55
727.959	3203.88
728.145	3214.12
728.332	3193.64
728.518	3070.76
728.705	3232.55
728.891	3044.13
729.077	3052.33
729.264	3083.05
729.45	3203.88
729.636	3158.82
729.823	2970.41
730.009	3009.32
730.195	3119.91
730.382	3023.66
730.568	3056.42
730.754	3011.37
730.94	3070.76
731.126	3015.46
731.313	3181.35
731.499	2994.98
731.685	3072.81
731.871	3019.56
732.057	3056.42
732.243	3027.75
732.429	3113.77
732.615	3099.43
732.801	3062.57
732.987	3099.43
733.173	2990.89
733.359	2947.88
733.545	3048.23
733.731	3005.22
733.917	3078.95
734.103	2947.88
734.289	2939.69
734.475	2835.24
734.661	3095.33
734.847	2900.78
735.033	2927.4
735.219	2947.88
735.404	3001.13
735.59	2904.87
735.776	2839.34
735.962	3064.61
736.148	2990.89
736.333	2943.78
736.519	2902.83
736.705	2921.26
736.89	2892.59
737.076	2923.3
737.262	2781.99
737.447	2964.26
737.633	2847.53
737.819	2841.39
738.004	2902.83
738.19	2808.62
738.375	2800.43
738.561	2853.67
738.747	2673.45
738.932	2800.43
739.118	2839.34
739.303	2665.26
739.489	2714.41
739.674	2827.05
739.859	2763.56
740.045	2634.54
740.23	2753.32
740.416	2661.16
740.601	2710.32
740.786	2700.08
740.972	2659.12
741.157	2798.38
741.342	2704.17
741.528	2628.4
741.713	2736.94
741.898	2648.88
742.084	2736.94
742.269	2614.06
742.454	2669.36
742.639	2603.82
742.824	2534.19
743.01	2624.3
743.195	2648.88
743.38	2634.54
743.565	2634.54
743.75	2609.97
743.935	2556.72
744.12	2540.33
744.305	2476.85
744.49	2333.49
744.675	2468.66
744.86	2624.3
745.045	2507.57
745.23	2530.09
745.415	2392.88
745.6	2446.13
745.785	2429.74
745.97	2444.08
746.155	2411.31
746.34	2351.92
746.525	2284.34
746.71	2487.09
746.895	2290.48
747.079	2310.96
747.264	2251.57
747.449	2439.98
747.634	2237.24
747.819	2317.11
748.003	2278.19
748.188	2169.65
748.373	2288.43
748.557	2245.43
748.742	2177.84
748.927	2212.66
749.111	2181.94
749.296	2190.13
749.481	2237.24
749.665	2143.03
749.85	2169.65
750.034	2112.31
750.219	2011.96
750.404	2011.96
750.588	2024.25
750.773	2016.05
750.957	2028.34
751.141	2018.1
751.326	2085.69
751.51	1995.57
751.695	1977.14
751.879	1952.57
752.064	1934.14
752.248	1923.9
752.432	2050.87
752.617	1870.65
752.801	1954.62
752.985	1903.42
753.17	1936.18
753.354	1989.43
753.538	1897.27
753.722	1901.37
753.907	1925.94
754.091	1903.42
754.275	1794.87
754.459	1827.64
754.643	1864.5
754.828	1790.78
755.012	1790.78
755.196	1712.96
755.38	1676.09
755.564	1700.67
755.748	1680.19
755.932	1758.01
756.116	1700.67
756.3	1717.05
756.484	1692.48
756.668	1637.18
756.852	1684.28
757.036	1553.21
757.22	1512.25
757.404	1686.33
757.588	1624.89
757.772	1643.32
757.956	1563.45
758.14	1690.43
758.323	1600.32
758.507	1538.88
758.691	1600.32
758.875	1596.22
759.059	1661.76
759.242	1538.88
759.426	1569.6
759.61	1491.77
759.794	1465.15
759.977	1479.49
760.161	1399.62
760.345	1387.33
760.528	1450.82
760.712	1391.42
760.895	1454.91
761.079	1524.54
761.263	1471.29
761.446	1491.77
761.63	1532.73
761.813	1336.13
761.997	1444.67
762.18	1420.1
762.364	1401.66
762.547	1362.75
762.731	1389.38
762.914	1381.18
763.098	1348.42
763.281	1346.37
763.464	1364.8
763.648	1289.03
763.831	1313.6
764.015	1418.05
764.198	1364.8
764.381	1346.37
764.564	1231.68
764.748	1225.54
764.931	1272.64
765.114	1301.31
765.297	1276.74
765.481	1217.35
765.664	1243.97
765.847	1303.36
766.03	1313.6
766.213	1252.16
766.397	1370.94
766.58	1233.73
766.763	1252.16
766.946	1254.21
767.129	1276.74
767.312	1131.33
767.495	1282.88
767.678	1172.29
767.861	1162.05
768.044	1225.54
768.227	1209.15
768.41	1334.08
768.593	1219.39
768.776	1215.3
768.959	1219.39
769.142	1327.94
769.324	1157.96
769.507	1157.96
769.69	1196.87
769.873	1182.53
770.056	1160
770.239	1135.43
770.421	1147.72
770.604	1110.85
770.787	1221.44
770.97	1090.37
771.152	1096.52
771.335	1184.58
771.518	1012.55
771.7	1172.29
771.883	1071.94
772.066	1090.37
772.248	1135.43
772.431	1131.33
772.613	1114.95
772.796	1063.75
772.978	1168.2
773.161	1157.96
773.343	1047.37
773.526	971.59
773.708	1030.98
773.891	985.93
774.073	1024.84
774.256	1045.32
774.438	1051.46
774.621	1004.36
774.803	965.45
774.985	975.69
775.168	969.54
775.35	947.01
775.532	1051.46
775.715	1008.45
775.897	1047.37
776.079	983.88
776.261	1016.65
776.444	889.67
776.626	938.82
776.808	959.3
776.99	922.44
777.173	906.06
777.355	879.43
777.537	852.81
777.719	983.88
777.901	856.9
778.083	895.82
778.265	897.86
778.447	879.43
778.629	783.18
778.811	918.34
778.993	762.7
779.175	838.47
779.357	858.95
779.539	901.96
779.721	828.23
779.903	846.66
780.085	785.23
780.267	797.51
780.449	758.6
780.631	820.04
780.812	863.05
780.994	797.51
781.176	840.52
781.358	779.08
781.54	756.55
781.721	799.56
781.903	795.47
782.085	688.97
782.267	717.64
782.448	676.68
782.63	826.18
782.812	744.27
782.993	738.12
783.175	709.45
783.357	658.25
783.538	699.21
783.72	633.68
783.901	643.92
784.083	619.34
784.264	650.06
784.446	645.96
784.627	672.59
784.809	658.25
784.99	652.11
785.172	654.16
785.353	686.92
785.535	701.26
785.716	625.48
785.897	693.07
786.079	641.87
786.26	686.92
786.441	635.72
786.623	564.04
786.804	523.09
786.985	652.11
787.167	676.68
787.348	574.28
787.529	547.66
787.71	584.52
787.891	568.14
788.073	543.57
788.254	531.28
788.435	551.76
788.616	578.38
788.797	525.13
788.978	555.85
789.159	547.66
789.34	629.58
789.522	529.23
789.703	553.8
789.884	564.04
790.065	545.61
790.246	584.52
790.427	498.51
790.607	574.28
790.788	568.14
790.969	557.9
791.15	523.09
791.331	523.09
791.512	516.94
791.693	494.41
791.874	506.7
792.054	572.24
792.235	574.28
792.416	514.89
792.597	482.13
792.778	430.93
792.958	500.56
793.139	424.78
793.32	529.23
793.5	441.17
793.681	465.74
793.862	496.46
794.042	469.84
794.223	396.11
794.404	498.51
794.584	402.26
794.765	392.02
794.945	426.83
795.126	455.5
795.306	424.78
795.487	447.31
795.667	381.78
795.848	443.21
796.028	406.35
796.209	445.26
796.389	414.54
796.57	414.54
796.75	441.17
796.93	414.54
797.111	316.24
797.291	383.82
797.471	480.08
797.652	377.68
797.832	394.06
798.012	375.63
798.192	334.67
798.373	435.02
798.553	340.82
798.733	371.54
798.913	361.3
799.093	365.39
799.274	422.73
799.454	336.72
799.634	383.82
799.814	408.4
799.994	338.77
800.174	291.66
800.354	373.58
800.534	310.1
800.714	338.77
800.894	365.39
801.074	346.96
801.254	396.11
801.434	326.48
801.614	322.38
801.794	338.77
801.974	686.92
802.154	320.34
802.334	416.59
802.514	322.38
802.693	353.1
802.873	363.34
803.053	375.63
803.233	334.67
803.413	314.19
803.592	324.43
803.772	346.96
803.952	281.43
804.131	346.96
804.311	357.2
804.491	349.01
804.67	344.91
804.85	281.43
805.03	377.68
805.209	301.9
805.389	340.82
805.568	238.42
805.748	275.28
805.928	310.1
806.107	314.19
806.287	279.38
806.466	310.1
806.646	267.09
806.825	336.72
807.004	285.52
807.184	303.95
807.363	365.39
807.543	303.95
807.722	301.9
807.901	260.95
808.081	299.86
808.26	355.15
808.439	306
808.619	242.51
808.798	254.8
808.977	275.28
809.156	332.62
809.336	244.56
809.515	250.71
809.694	275.28
809.873	271.19
810.052	195.41
810.231	285.52
810.411	281.43
810.59	289.62
810.769	211.79
810.948	318.29
811.127	262.99
811.306	297.81
811.485	279.38
811.664	199.51
811.843	189.27
812.022	244.56
812.201	142.16
812.38	252.75
812.559	287.57
812.737	219.99
812.916	267.09
813.095	199.51
813.274	281.43
813.453	236.37
813.632	168.79
813.811	265.04
813.989	254.8
814.168	199.51
814.347	215.89
814.526	234.32
814.704	275.28
814.883	185.17
815.062	234.32
815.24	256.85
815.419	191.31
815.598	283.47
815.776	293.71
815.955	260.95
816.133	246.61
816.312	226.13
816.49	234.32
816.669	172.88
816.847	217.94
817.026	262.99
817.204	197.46
817.383	103.25
817.561	209.75
817.74	242.51
817.918	197.46
818.097	258.9
818.275	199.51
818.453	144.21
818.632	250.71
818.81	189.27
818.988	217.94
819.167	162.64
819.345	205.65
819.523	189.27
819.701	215.89
819.879	228.18
820.058	160.59
820.236	189.27
820.414	199.51
820.592	230.23
820.77	158.55
820.948	133.97
821.127	152.4
821.305	215.89
821.483	174.93
821.661	142.16
821.839	195.41
822.017	144.21
822.195	185.17
822.373	179.03
822.551	166.74
822.729	127.83
822.907	170.83
823.085	150.36
823.262	162.64
823.44	142.16
823.618	205.65
823.796	174.93
823.974	172.88
824.152	158.55
824.329	211.79
824.507	162.64
824.685	125.78
824.863	197.46
825.04	119.64
825.218	158.55
825.396	131.92
825.574	174.93
825.751	215.89
825.929	160.59
826.107	103.25
826.284	215.89
826.462	242.51
826.639	174.93
826.817	166.74
826.994	117.59
827.172	185.17
827.349	162.64
827.527	107.35
827.704	250.71
827.882	181.07
828.059	189.27
828.237	148.31
828.414	111.44
828.591	193.36
828.769	150.36
828.946	109.4
829.124	148.31
829.301	213.84
829.478	119.64
829.655	168.79
829.833	115.54
830.01	103.25
830.187	93.01
830.364	136.02
830.542	158.55
830.719	62.29
830.896	105.3
831.073	123.73
831.25	136.02
831.427	179.03
831.604	136.02
831.782	109.4
831.959	99.16
832.136	174.93
832.313	152.4
832.49	172.88
832.667	140.12
832.844	136.02
833.021	142.16
833.198	164.69
833.374	172.88
833.551	76.63
833.728	166.74
833.905	121.68
834.082	187.22
834.259	113.49
834.436	74.58
834.612	127.83
834.789	125.78
834.966	140.12
835.143	125.78
835.319	170.83
835.496	146.26
835.673	125.78
835.85	138.07
836.026	121.68
836.203	176.98
836.38	66.39
836.556	160.59
836.733	84.82
836.909	168.79
837.086	123.73
837.262	74.58
837.439	86.87
837.616	68.44
837.792	152.4
837.968	125.78
838.145	58.2
838.321	90.96
838.498	39.76
838.674	205.65
838.851	99.16
839.027	21.33
839.203	62.29
839.38	99.16
839.556	144.21
839.732	111.44
839.909	80.72
840.085	101.2
840.261	62.29
840.437	80.72
840.614	140.12
840.79	111.44
840.966	97.11
841.142	29.52
841.318	70.48
841.494	66.39
841.671	172.88
841.847	84.82
842.023	52.05
842.199	117.59
842.375	166.74
842.551	131.92
842.727	93.01
842.903	117.59
843.079	70.48
843.255	115.54
843.431	60.24
843.607	140.12
843.783	76.63
843.959	164.69
844.134	95.06
844.31	88.92
844.486	148.31
844.662	160.59
844.838	93.01
845.013	76.63
845.189	166.74
845.365	136.02
845.541	107.35
845.716	99.16
845.892	84.82
846.068	109.4
846.244	107.35
846.419	113.49
846.595	15.19
846.77	142.16
846.946	86.87
847.122	152.4
847.297	41.81
847.473	123.73
847.648	93.01
847.824	60.24
847.999	82.77
848.175	125.78
848.35	17.24
848.526	58.2
848.701	117.59
848.876	168.79
849.052	117.59
849.227	64.34
849.403	123.73
849.578	17.24
849.753	88.92
849.929	90.96
850.104	82.77
850.279	43.86
850.454	97.11
850.63	68.44
850.805	70.48
850.98	78.68
851.155	99.16
851.33	140.12
851.505	68.44
851.681	105.3
851.856	27.48
852.031	37.72
852.206	41.81
852.381	58.2
852.556	60.24
852.731	99.16
852.906	224.08
853.081	113.49
853.256	170.83
853.431	129.88
853.606	58.2
853.781	103.25
853.956	68.44
854.131	80.72
854.305	19.29
854.48	37.72
854.655	45.91
854.83	80.72
855.005	142.16
855.18	88.92
855.354	84.82
855.529	68.44
855.704	43.86
855.879	148.31
856.053	68.44
856.228	133.97
856.403	70.48
856.577	103.25
856.752	72.53
856.926	111.44
857.101	66.39
857.276	35.67
857.45	21.33
857.625	90.96
857.799	21.33
857.974	62.29
858.148	-38.06
858.323	117.59
858.497	60.24
858.672	-7.34
858.846	54.1
859.02	50
859.195	66.39
859.369	37.72
859.543	119.64
859.718	64.34
859.892	82.77
860.066	39.76
860.241	70.48
860.415	66.39
860.589	52.05
860.763	84.82
860.938	50
861.112	17.24
861.286	17.24
861.46	70.48
861.634	52.05
861.808	62.29
861.982	33.62
862.157	62.29
862.331	25.43
862.505	111.44
862.679	72.53
862.853	52.05
863.027	50
863.201	99.16
863.375	27.48
863.549	35.67
863.722	4.95
863.896	52.05
864.07	29.52
864.244	86.87
864.418	27.48
864.592	133.97
864.766	115.54
864.939	142.16
865.113	43.86
865.287	90.96
865.461	13.14
865.634	88.92
865.808	-3.24
865.982	45.91
866.156	105.3
866.329	78.68
866.503	60.24
866.676	43.86
866.85	121.68
867.024	70.48
867.197	78.68
867.371	93.01
867.544	39.76
867.718	47.96
867.891	21.33
868.065	62.29
868.238	54.1
868.412	86.87
868.585	95.06
868.759	7
868.932	68.44
869.105	-9.39
869.279	17.24
869.452	45.91
869.625	66.39
869.799	50
869.972	23.38
870.145	66.39
870.319	123.73
870.492	64.34
870.665	21.33
870.838	-1.19
871.011	60.24
871.185	58.2
871.358	21.33
871.531	35.67
871.704	37.72
871.877	105.3
872.05	41.81
872.223	-15.53
872.396	56.15
872.569	74.58
872.742	2.9
872.915	80.72
873.088	-25.77
873.261	54.1
873.434	25.43
873.607	11.09
873.78	66.39
873.953	29.52
874.126	86.87
874.299	19.29
874.471	50
874.644	-36.01
874.817	86.87
874.99	101.2
875.163	60.24
875.335	131.92
875.508	113.49
875.681	45.91
875.853	33.62
876.026	19.29
876.199	17.24
876.371	19.29
876.544	27.48
876.717	121.68
876.889	7
877.062	93.01
877.234	-13.48
877.407	35.67
877.579	-5.29
877.752	70.48
877.924	45.91
878.097	129.88
878.269	35.67
878.442	47.96
878.614	52.05
878.786	25.43
878.959	54.1
879.131	99.16
879.303	37.72
879.476	19.29
879.648	25.43
879.82	41.81
879.993	50
880.165	72.53
880.337	-27.82
880.509	76.63
880.681	74.58
880.854	17.24
881.026	13.14
881.198	54.1
881.37	70.48
881.542	80.72
881.714	-13.48
881.886	68.44
882.058	86.87
882.23	17.24
882.402	103.25
882.574	64.34
882.746	72.53
882.918	105.3
883.09	13.14
883.262	23.38
883.434	64.34
883.606	-5.29
883.778	43.86
883.95	113.49
884.122	33.62
884.293	56.15
884.465	37.72
884.637	101.2
884.809	50
884.98	37.72
885.152	58.2
885.324	45.91
885.496	21.33
885.667	119.64
885.839	41.81
886.011	54.1
886.182	-15.53
886.354	113.49
886.525	33.62
886.697	29.52
886.869	58.2
887.04	25.43
887.212	82.77
887.383	54.1
887.555	60.24
887.726	111.44
887.897	-11.43
888.069	45.91
888.24	25.43
888.412	-33.96
888.583	62.29
888.754	70.48
888.926	-13.48
889.097	11.09
889.268	-27.82
889.44	101.2
889.611	29.52
889.782	76.63
889.953	50
890.125	70.48
890.296	37.72
890.467	52.05
890.638	86.87
890.809	68.44
890.98	9.05
891.151	-29.87
891.323	41.81
891.494	-15.53
891.665	50
891.836	31.57
892.007	-21.67
892.178	50
892.349	37.72
892.52	60.24
892.691	13.14
892.862	33.62
893.032	19.29
893.203	45.91
893.374	60.24
893.545	97.11
893.716	33.62
893.887	23.38
894.057	-11.43
894.228	41.81
894.399	-19.63
894.57	86.87
894.74	72.53
894.911	50
895.082	11.09
895.253	-23.72
895.423	58.2
895.594	86.87
895.764	86.87
895.935	31.57
896.106	27.48
896.276	35.67
896.447	27.48
896.617	45.91
896.788	25.43
896.958	25.43
897.129	-5.29
897.299	23.38
897.47	62.29
897.64	45.91
897.81	54.1
897.981	37.72
898.151	17.24
898.322	25.43
898.492	4.95
898.662	80.72
898.832	54.1
899.003	13.14
899.173	56.15
899.343	64.34
899.513	15.19
