Data from USB4F104151__24__11-05-05-032.txt Node

Date: Wed Mar 12 11:05:05 EDT 2025
User: louis
Spectrometer: USB4F10415
Trigger mode: 4
Integration Time (sec): 2.000000E-2
Scans to average: 1
Electric dark correction enabled: true
Nonlinearity correction enabled: false
Boxcar width: 0
XAxis mode: Wavelengths
Number of Pixels in Spectrum: 3648
>>>>>Begin Spectral Data<<<<<
178.204	-54.78
178.424	-54.78
178.644	-54.78
178.864	-85.5
179.084	-48.64
179.304	94.72
179.524	27.14
179.744	0.51
179.964	8.7
180.184	23.04
180.404	-13.82
180.624	-52.74
180.844	-93.69
181.064	18.94
181.283	35.33
181.503	-38.4
181.723	-9.73
181.943	-15.87
182.163	51.71
182.383	37.38
182.602	-3.58
182.822	25.09
183.042	-17.92
183.262	64
183.482	10.75
183.701	-22.02
183.921	-54.78
184.141	-19.97
184.361	29.18
184.58	41.47
184.8	39.42
185.02	8.7
185.239	37.38
185.459	61.95
185.679	55.81
185.898	66.05
186.118	18.94
186.338	37.38
186.557	37.38
186.777	-11.78
186.997	-5.63
187.216	20.99
187.436	94.72
187.655	-9.73
187.875	35.33
188.095	90.62
188.314	43.52
188.534	84.48
188.753	-7.68
188.973	18.94
189.192	-11.78
189.412	39.42
189.631	27.14
189.851	6.66
190.07	109.05
190.29	-15.87
190.509	27.14
190.729	86.53
190.948	31.23
191.168	66.05
191.387	137.73
191.607	29.18
191.826	72.19
192.045	41.47
192.265	-3.58
192.484	16.9
192.704	-19.97
192.923	-17.92
193.142	51.71
193.362	129.53
193.581	66.05
193.8	6.66
194.02	31.23
194.239	20.99
194.458	29.18
194.678	-22.02
194.897	20.99
195.116	51.71
195.335	41.47
195.555	20.99
195.774	76.29
195.993	14.85
196.212	-81.41
196.432	4.61
196.651	51.71
196.87	-11.78
197.089	68.09
197.308	66.05
197.528	-19.97
197.747	57.86
197.966	53.76
198.185	53.76
198.404	-13.82
198.623	33.28
198.842	45.57
199.062	76.29
199.281	2.56
199.5	4.61
199.719	14.85
199.938	70.14
200.157	-24.06
200.376	78.33
200.595	66.05
200.814	-50.69
201.033	27.14
201.252	25.09
201.471	0.51
201.69	84.48
201.909	51.71
202.128	25.09
202.347	37.38
202.566	-7.68
202.785	45.57
203.004	88.57
203.223	107.01
203.442	88.57
203.661	-13.82
203.879	29.18
204.098	-28.16
204.317	16.9
204.536	98.81
204.755	-52.74
204.974	90.62
205.193	49.66
205.411	10.75
205.63	72.19
205.849	-1.54
206.068	68.09
206.287	39.42
206.505	90.62
206.724	20.99
206.943	0.51
207.162	18.94
207.381	-7.68
207.599	2.56
207.818	27.14
208.037	37.38
208.255	33.28
208.474	47.62
208.693	70.14
208.911	4.61
209.13	-38.4
209.349	107.01
209.567	57.86
209.786	66.05
210.005	-7.68
210.223	-3.58
210.442	-11.78
210.661	-32.26
210.879	10.75
211.098	-30.21
211.316	76.29
211.535	-7.68
211.753	12.8
211.972	20.99
212.191	12.8
212.409	-11.78
212.628	-3.58
212.846	90.62
213.065	111.1
213.283	10.75
213.502	-44.54
213.72	14.85
213.938	43.52
214.157	10.75
214.375	29.18
214.594	-13.82
214.812	57.86
215.031	14.85
215.249	94.72
215.467	-24.06
215.686	74.24
215.904	18.94
216.122	-22.02
216.341	53.76
216.559	-32.26
216.778	107.01
216.996	53.76
217.214	72.19
217.432	70.14
217.651	29.18
217.869	53.76
218.087	14.85
218.306	20.99
218.524	-42.5
218.742	8.7
218.96	39.42
219.179	16.9
219.397	6.66
219.615	68.09
219.833	27.14
220.051	20.99
220.27	41.47
220.488	61.95
220.706	78.33
220.924	64
221.142	57.86
221.36	23.04
221.578	12.8
221.796	27.14
222.015	45.57
222.233	31.23
222.451	59.9
222.669	29.18
222.887	78.33
223.105	-7.68
223.323	96.77
223.541	29.18
223.759	33.28
223.977	23.04
224.195	-30.21
224.413	72.19
224.631	76.29
224.849	23.04
225.067	14.85
225.285	-15.87
225.503	-3.58
225.721	43.52
225.939	41.47
226.157	57.86
226.375	102.91
226.592	41.47
226.81	0.51
227.028	-3.58
227.246	-28.16
227.464	72.19
227.682	-17.92
227.9	33.28
228.117	35.33
228.335	41.47
228.553	68.09
228.771	12.8
228.989	-19.97
229.206	31.23
229.424	29.18
229.642	61.95
229.86	51.71
230.077	12.8
230.295	139.77
230.513	57.86
230.731	23.04
230.948	53.76
231.166	72.19
231.384	27.14
231.601	-17.92
231.819	55.81
232.037	20.99
232.254	72.19
232.472	53.76
232.689	37.38
232.907	-17.92
233.125	66.05
233.342	6.66
233.56	-24.06
233.777	47.62
233.995	39.42
234.213	33.28
234.43	29.18
234.648	78.33
234.865	-5.63
235.083	107.01
235.3	57.86
235.518	45.57
235.735	47.62
235.953	35.33
236.17	-1.54
236.388	10.75
236.605	37.38
236.822	70.14
237.04	78.33
237.257	25.09
237.475	-11.78
237.692	4.61
237.909	-9.73
238.127	96.77
238.344	2.56
238.562	74.24
238.779	10.75
238.996	23.04
239.214	0.51
239.431	41.47
239.648	20.99
239.865	43.52
240.083	-40.45
240.3	76.29
240.517	-36.35
240.735	10.75
240.952	86.53
241.169	78.33
241.386	70.14
241.603	92.67
241.821	51.71
242.038	-42.5
242.255	-32.26
242.472	27.14
242.689	66.05
242.907	27.14
243.124	-19.97
243.341	23.04
243.558	12.8
243.775	-17.92
243.992	-24.06
244.209	27.14
244.426	72.19
244.643	27.14
244.86	4.61
245.078	55.81
245.295	47.62
245.512	-5.63
245.729	72.19
245.946	37.38
246.163	-9.73
246.38	59.9
246.597	-36.35
246.814	-83.45
247.031	64
247.248	33.28
247.464	47.62
247.681	47.62
247.898	57.86
248.115	39.42
248.332	-11.78
248.549	-11.78
248.766	29.18
248.983	29.18
249.2	29.18
249.417	98.81
249.633	29.18
249.85	64
250.067	96.77
250.284	78.33
250.501	94.72
250.717	10.75
250.934	-52.74
251.151	2.56
251.368	33.28
251.585	78.33
251.801	43.52
252.018	12.8
252.235	64
252.451	0.51
252.668	39.42
252.885	43.52
253.102	68.09
253.318	8.7
253.535	-48.64
253.752	72.19
253.968	-28.16
254.185	12.8
254.401	80.38
254.618	16.9
254.835	6.66
255.051	45.57
255.268	35.33
255.484	-11.78
255.701	-24.06
255.917	-3.58
256.134	23.04
256.351	94.72
256.567	0.51
256.784	2.56
257	31.23
257.217	31.23
257.433	43.52
257.65	61.95
257.866	-5.63
258.082	0.51
258.299	16.9
258.515	37.38
258.732	4.61
258.948	14.85
259.165	27.14
259.381	-28.16
259.597	61.95
259.814	-24.06
260.03	-50.69
260.246	137.73
260.463	-40.45
260.679	-1.54
260.895	82.43
261.112	53.76
261.328	25.09
261.544	35.33
261.761	102.91
261.977	27.14
262.193	4.61
262.409	64
262.626	49.66
262.842	98.81
263.058	6.66
263.274	-26.11
263.49	88.57
263.707	-19.97
263.923	31.23
264.139	37.38
264.355	72.19
264.571	51.71
264.787	10.75
265.004	49.66
265.22	18.94
265.436	-38.4
265.652	20.99
265.868	47.62
266.084	8.7
266.3	37.38
266.516	80.38
266.732	18.94
266.948	88.57
267.164	0.51
267.38	16.9
267.596	-17.92
267.812	49.66
268.028	39.42
268.244	68.09
268.46	68.09
268.676	80.38
268.892	12.8
269.108	18.94
269.324	61.95
269.54	-3.58
269.756	20.99
269.972	14.85
270.188	57.86
270.403	20.99
270.619	8.7
270.835	-36.35
271.051	68.09
271.267	33.28
271.483	135.68
271.698	-17.92
271.914	35.33
272.13	18.94
272.346	133.63
272.562	49.66
272.777	51.71
272.993	53.76
273.209	94.72
273.425	16.9
273.64	55.81
273.856	4.61
274.072	82.43
274.287	41.47
274.503	78.33
274.719	27.14
274.934	0.51
275.15	0.51
275.366	-19.97
275.581	-50.69
275.797	57.86
276.012	35.33
276.228	55.81
276.444	49.66
276.659	84.48
276.875	-3.58
277.09	94.72
277.306	-36.35
277.521	51.71
277.737	47.62
277.952	72.19
278.168	12.8
278.383	20.99
278.599	-17.92
278.814	74.24
279.03	84.48
279.245	59.9
279.461	59.9
279.676	18.94
279.892	33.28
280.107	-11.78
280.322	33.28
280.538	35.33
280.753	107.01
280.969	59.9
281.184	37.38
281.399	61.95
281.615	66.05
281.83	121.34
282.045	41.47
282.26	6.66
282.476	14.85
282.691	25.09
282.906	70.14
283.122	45.57
283.337	53.76
283.552	59.9
283.767	-1.54
283.983	41.47
284.198	29.18
284.413	10.75
284.628	14.85
284.843	-30.21
285.058	41.47
285.274	55.81
285.489	-13.82
285.704	55.81
285.919	59.9
286.134	-60.93
286.349	33.28
286.564	14.85
286.779	49.66
286.995	31.23
287.21	10.75
287.425	-5.63
287.64	53.76
287.855	55.81
288.07	25.09
288.285	51.71
288.5	68.09
288.715	61.95
288.93	12.8
289.145	-13.82
289.36	59.9
289.575	23.04
289.79	37.38
290.004	-26.11
290.219	-19.97
290.434	16.9
290.649	53.76
290.864	51.71
291.079	88.57
291.294	61.95
291.509	-11.78
291.724	41.47
291.938	6.66
292.153	27.14
292.368	-19.97
292.583	-73.21
292.798	49.66
293.012	68.09
293.227	16.9
293.442	20.99
293.657	6.66
293.871	61.95
294.086	14.85
294.301	57.86
294.516	16.9
294.73	74.24
294.945	4.61
295.16	111.1
295.374	0.51
295.589	145.92
295.804	4.61
296.018	25.09
296.233	123.39
296.447	76.29
296.662	41.47
296.877	-19.97
297.091	92.67
297.306	33.28
297.52	31.23
297.735	0.51
297.949	-1.54
298.164	6.66
298.378	-40.45
298.593	39.42
298.807	53.76
299.022	66.05
299.236	86.53
299.451	76.29
299.665	-7.68
299.88	78.33
300.094	68.09
300.309	115.2
300.523	88.57
300.737	35.33
300.952	61.95
301.166	-5.63
301.381	27.14
301.595	45.57
301.809	-17.92
302.024	31.23
302.238	41.47
302.452	29.18
302.667	-11.78
302.881	43.52
303.095	25.09
303.309	-5.63
303.524	14.85
303.738	68.09
303.952	25.09
304.166	70.14
304.381	4.61
304.595	100.86
304.809	4.61
305.023	51.71
305.237	27.14
305.452	33.28
305.666	18.94
305.88	68.09
306.094	20.99
306.308	104.96
306.522	-3.58
306.736	49.66
306.95	127.49
307.164	102.91
307.379	35.33
307.593	57.86
307.807	76.29
308.021	84.48
308.235	-1.54
308.449	23.04
308.663	53.76
308.877	78.33
309.091	-30.21
309.305	64
309.519	49.66
309.733	51.71
309.947	66.05
310.161	-11.78
310.374	39.42
310.588	96.77
310.802	33.28
311.016	12.8
311.23	-73.21
311.444	-30.21
311.658	57.86
311.872	150.01
312.085	31.23
312.299	102.91
312.513	102.91
312.727	37.38
312.941	39.42
313.154	41.47
313.368	35.33
313.582	61.95
313.796	4.61
314.009	12.8
314.223	14.85
314.437	27.14
314.651	64
314.864	53.76
315.078	74.24
315.292	29.18
315.505	8.7
315.719	29.18
315.933	14.85
316.146	-1.54
316.36	-3.58
316.573	135.68
316.787	76.29
317.001	115.2
317.214	45.57
317.428	92.67
317.641	-56.83
317.855	129.53
318.068	-9.73
318.282	-22.02
318.495	14.85
318.709	94.72
318.922	92.67
319.136	113.15
319.349	8.7
319.563	-11.78
319.776	115.2
319.99	-30.21
320.203	-17.92
320.417	45.57
320.63	-28.16
320.843	119.29
321.057	33.28
321.27	41.47
321.483	41.47
321.697	109.05
321.91	-5.63
322.124	27.14
322.337	43.52
322.55	-30.21
322.763	43.52
322.977	68.09
323.19	66.05
323.403	16.9
323.617	20.99
323.83	109.05
324.043	33.28
324.256	-11.78
324.469	-7.68
324.683	64
324.896	76.29
325.109	109.05
325.322	27.14
325.535	53.76
325.748	6.66
325.962	-40.45
326.175	49.66
326.388	86.53
326.601	78.33
326.814	33.28
327.027	61.95
327.24	74.24
327.453	66.05
327.666	90.62
327.879	-3.58
328.092	59.9
328.305	29.18
328.518	35.33
328.731	68.09
328.944	25.09
329.157	47.62
329.37	31.23
329.583	86.53
329.796	98.81
330.009	12.8
330.222	20.99
330.435	-24.06
330.648	121.34
330.861	43.52
331.073	20.99
331.286	86.53
331.499	47.62
331.712	66.05
331.925	29.18
332.138	45.57
332.35	86.53
332.563	-15.87
332.776	-13.82
332.989	68.09
333.202	14.85
333.414	37.38
333.627	39.42
333.84	18.94
334.053	49.66
334.265	2.56
334.478	8.7
334.691	6.66
334.903	18.94
335.116	23.04
335.329	0.51
335.541	74.24
335.754	68.09
335.966	10.75
336.179	111.1
336.392	-22.02
336.604	8.7
336.817	45.57
337.029	37.38
337.242	2.56
337.454	0.51
337.667	111.1
337.88	57.86
338.092	-32.26
338.305	70.14
338.517	33.28
338.729	61.95
338.942	10.75
339.154	29.18
339.367	39.42
339.579	78.33
339.792	-56.83
340.004	88.57
340.217	16.9
340.429	4.61
340.641	70.14
340.854	35.33
341.066	43.52
341.278	55.81
341.491	117.25
341.703	18.94
341.915	51.71
342.128	123.39
342.34	72.19
342.552	12.8
342.764	-3.58
342.977	-3.58
343.189	70.14
343.401	86.53
343.613	33.28
343.826	0.51
344.038	70.14
344.25	102.91
344.462	86.53
344.674	41.47
344.886	18.94
345.099	64
345.311	41.47
345.523	20.99
345.735	20.99
345.947	20.99
346.159	16.9
346.371	16.9
346.583	-38.4
346.795	57.86
347.007	74.24
347.219	37.38
347.431	4.61
347.643	98.81
347.855	-5.63
348.067	59.9
348.279	29.18
348.491	45.57
348.703	57.86
348.915	29.18
349.127	96.77
349.339	98.81
349.551	-5.63
349.763	84.48
349.975	8.7
350.187	98.81
350.399	47.62
350.61	47.62
350.822	6.66
351.034	12.8
351.246	49.66
351.458	45.57
351.669	109.05
351.881	43.52
352.093	84.48
352.305	-13.82
352.517	100.86
352.728	51.71
352.94	78.33
353.152	8.7
353.363	12.8
353.575	-24.06
353.787	23.04
353.999	29.18
354.21	70.14
354.422	-9.73
354.633	61.95
354.845	-26.11
355.057	41.47
355.268	61.95
355.48	-3.58
355.692	23.04
355.903	12.8
356.115	14.85
356.326	18.94
356.538	47.62
356.749	92.67
356.961	66.05
357.172	18.94
357.384	59.9
357.595	66.05
357.807	37.38
358.018	-24.06
358.23	47.62
358.441	-1.54
358.653	53.76
358.864	68.09
359.075	68.09
359.287	-11.78
359.498	61.95
359.709	82.43
359.921	66.05
360.132	-28.16
360.344	113.15
360.555	31.23
360.766	61.95
360.977	23.04
361.189	45.57
361.4	-5.63
361.611	80.38
361.823	84.48
362.034	31.23
362.245	41.47
362.456	29.18
362.667	123.39
362.879	31.23
363.09	33.28
363.301	2.56
363.512	41.47
363.723	31.23
363.935	37.38
364.146	90.62
364.357	39.42
364.568	16.9
364.779	74.24
364.99	47.62
365.201	49.66
365.412	78.33
365.623	-15.87
365.834	47.62
366.045	-7.68
366.256	-9.73
366.467	35.33
366.678	107.01
366.889	66.05
367.1	43.52
367.311	78.33
367.522	31.23
367.733	0.51
367.944	59.9
368.155	-56.83
368.366	59.9
368.577	49.66
368.788	72.19
368.999	35.33
369.209	-5.63
369.42	68.09
369.631	201.21
369.842	23.04
370.053	14.85
370.264	-13.82
370.474	45.57
370.685	86.53
370.896	12.8
371.107	72.19
371.317	41.47
371.528	84.48
371.739	8.7
371.95	98.81
372.16	78.33
372.371	10.75
372.582	100.86
372.792	78.33
373.003	57.86
373.214	-11.78
373.424	61.95
373.635	23.04
373.846	117.25
374.056	41.47
374.267	84.48
374.477	12.8
374.688	80.38
374.898	37.38
375.109	49.66
375.319	25.09
375.53	20.99
375.74	25.09
375.951	37.38
376.161	86.53
376.372	74.24
376.582	12.8
376.793	47.62
377.003	49.66
377.214	0.51
377.424	29.18
377.635	-40.45
377.845	4.61
378.055	109.05
378.266	37.38
378.476	29.18
378.686	53.76
378.897	-5.63
379.107	53.76
379.317	-28.16
379.528	-1.54
379.738	121.34
379.948	61.95
380.158	-22.02
380.369	123.39
380.579	49.66
380.789	57.86
380.999	76.29
381.21	49.66
381.42	41.47
381.63	43.52
381.84	84.48
382.05	16.9
382.261	61.95
382.471	98.81
382.681	51.71
382.891	72.19
383.101	47.62
383.311	78.33
383.521	-19.97
383.731	-22.02
383.941	119.29
384.151	82.43
384.361	107.01
384.571	88.57
384.781	61.95
384.991	152.06
385.201	115.2
385.411	61.95
385.621	53.76
385.831	18.94
386.041	94.72
386.251	27.14
386.461	61.95
386.671	70.14
386.881	84.48
387.091	-11.78
387.301	59.9
387.511	74.24
387.72	125.44
387.93	59.9
388.14	61.95
388.35	31.23
388.56	119.29
388.769	139.77
388.979	123.39
389.189	20.99
389.399	-11.78
389.609	92.67
389.818	59.9
390.028	23.04
390.238	78.33
390.447	53.76
390.657	88.57
390.867	117.25
391.076	64
391.286	49.66
391.496	82.43
391.705	84.48
391.915	39.42
392.125	164.35
392.334	10.75
392.544	49.66
392.753	137.73
392.963	4.61
393.172	82.43
393.382	66.05
393.591	41.47
393.801	92.67
394.01	98.81
394.22	92.67
394.429	84.48
394.639	61.95
394.848	53.76
395.058	57.86
395.267	8.7
395.477	45.57
395.686	90.62
395.895	176.64
396.105	164.35
396.314	166.4
396.524	111.1
396.733	88.57
396.942	166.4
397.152	41.47
397.361	145.92
397.57	102.91
397.78	162.3
397.989	125.44
398.198	29.18
398.407	82.43
398.617	76.29
398.826	45.57
399.035	72.19
399.244	84.48
399.453	133.63
399.663	27.14
399.872	115.2
400.081	88.57
400.29	152.06
400.499	117.25
400.708	129.53
400.917	43.52
401.127	96.77
401.336	33.28
401.545	154.11
401.754	152.06
401.963	102.91
402.172	61.95
402.381	86.53
402.59	72.19
402.799	78.33
403.008	137.73
403.217	180.73
403.426	180.73
403.635	111.1
403.844	113.15
404.053	184.83
404.262	190.97
404.471	156.16
404.68	94.72
404.888	225.79
405.097	156.16
405.306	129.53
405.515	100.86
405.724	94.72
405.933	158.21
406.142	127.49
406.35	233.98
406.559	203.26
406.768	184.83
406.977	236.03
407.185	168.45
407.394	203.26
407.603	158.21
407.812	242.17
408.02	248.32
408.229	227.84
408.438	276.99
408.646	223.74
408.855	242.17
409.064	231.93
409.272	246.27
409.481	170.49
409.69	250.36
409.898	225.79
410.107	248.32
410.315	313.85
410.524	274.94
410.733	293.37
410.941	313.85
411.15	436.73
411.358	340.47
411.567	350.71
411.775	313.85
411.984	410.11
412.192	408.06
412.401	524.79
412.609	401.91
412.818	420.35
413.026	426.49
413.234	418.3
413.443	457.21
413.651	483.83
413.86	502.26
414.068	510.46
414.276	545.27
414.485	487.93
414.693	526.84
414.901	600.57
415.11	606.71
415.318	594.42
415.526	643.57
415.734	643.57
415.943	659.96
416.151	713.21
416.359	713.21
416.567	664.05
416.776	741.88
416.984	825.84
417.192	872.95
417.4	954.87
417.608	772.6
417.817	870.9
418.025	1001.97
418.233	975.35
418.441	952.82
418.649	1034.74
418.857	1067.5
419.065	1180.14
419.273	1090.03
419.481	1106.42
419.689	1229.29
419.897	1331.69
420.105	1356.27
420.313	1481.19
420.521	1444.33
420.729	1231.34
420.937	1483.24
421.145	1548.78
421.353	1657.32
421.561	1692.13
421.769	1712.61
421.977	1737.19
422.185	1708.52
422.393	1896.93
422.601	1968.61
422.809	1966.56
423.017	1929.7
423.224	2105.82
423.432	2134.5
423.64	2247.13
423.848	2386.4
424.056	2308.57
424.263	2408.92
424.471	2550.23
424.679	2539.99
424.887	2683.35
425.094	2748.89
425.302	2789.85
425.51	2871.76
425.718	2992.59
425.925	3045.84
426.133	3121.62
426.341	3199.44
426.548	3285.45
426.756	3592.65
426.964	3375.56
427.171	3434.96
427.379	3682.76
427.586	3832.26
427.794	3844.55
428.001	4168.13
428.209	4161.98
428.417	4239.81
428.624	4614.59
428.832	4514.24
429.039	4405.69
429.247	4413.88
429.454	4907.45
429.662	5278.13
429.869	4860.34
430.076	5343.66
430.284	5157.3
430.491	5274.03
430.699	5484.97
430.906	5570.99
431.114	5722.54
431.321	5872.04
431.528	6130.08
431.736	6406.56
431.943	6486.43
432.15	6500.76
432.358	6498.72
432.565	6848.92
432.772	6936.98
432.979	7401.87
433.187	7385.49
433.394	7399.82
433.601	7856.52
433.808	7946.63
434.016	7760.27
434.223	8296.83
434.43	8825.21
434.637	8601.98
434.844	9214.32
435.052	9318.77
435.259	9136.5
435.466	9286
435.673	9138.55
435.88	10027.37
436.087	10248.55
436.294	10473.82
436.501	10090.85
436.708	10297.7
436.915	10852.7
437.122	11260.24
437.329	11118.93
437.537	11534.67
437.743	11614.54
437.95	11495.76
438.157	12228.93
438.364	12677.44
438.571	12511.55
438.778	12613.95
438.985	13891.88
439.192	13107.51
439.399	13783.34
439.606	13308.21
439.813	14227.75
440.02	14930.2
440.227	14743.84
440.433	14657.82
440.64	15411.48
440.847	15302.93
441.054	15653.14
441.261	16474.37
441.467	16210.18
441.674	16617.73
441.881	17338.62
442.088	17144.06
442.294	16933.12
442.501	17647.86
442.708	17658.1
442.914	18612.45
443.121	19273.95
443.328	18632.93
443.534	20043.98
443.741	19697.88
443.948	19347.67
444.154	20650.18
444.361	20527.3
444.568	20510.92
444.774	20654.28
444.981	20879.55
445.187	21446.84
445.394	22765.73
445.6	22466.73
445.807	24385.68
446.013	23310.49
446.22	23640.22
446.426	24262.8
446.633	24412.3
446.839	25489.53
447.046	24486.03
447.252	25690.23
447.459	25841.78
447.665	25798.77
447.871	26996.84
448.078	28141.65
448.284	26349.68
448.491	27557.98
448.697	28473.42
448.903	28891.21
449.11	28604.49
449.316	28416.08
449.522	28596.3
449.728	29716.54
449.935	29571.13
450.141	29728.83
450.347	30193.72
450.553	29892.66
450.76	30031.93
450.966	30677.04
451.172	30230.58
451.378	30994.47
451.584	30400.56
451.791	31305.76
451.997	31105.06
452.203	31610.91
452.409	31393.82
452.615	31313.95
452.821	30244.91
453.027	29671.48
453.233	31332.39
453.44	30025.78
453.646	30359.6
453.852	30384.18
454.058	31004.71
454.264	29358.14
454.47	30562.35
454.676	29573.18
454.882	30840.87
455.088	27861.08
455.294	28440.65
455.5	28424.27
455.705	28911.69
455.911	27959.38
456.117	27134.05
456.323	26976.36
456.529	25464.96
456.735	26466.41
456.941	25421.95
457.147	25374.84
457.352	24529.03
457.558	24344.72
457.764	24314
457.97	23879.83
458.176	23124.13
458.381	23320.73
458.587	22040.75
458.793	21711.03
458.999	20793.54
459.204	22540.46
459.41	21815.48
459.616	20412.62
459.821	20529.35
460.027	19908.82
460.233	19636.44
460.438	18989.28
460.644	18987.23
460.85	18309.35
461.055	17852.66
461.261	18188.52
461.466	16322.82
461.672	15968.52
461.878	17180.92
462.083	15958.28
462.289	15761.68
462.494	15710.48
462.7	14784.8
462.905	14782.75
463.111	15042.84
463.316	14954.78
463.522	14616.86
463.727	14618.91
463.932	14498.08
464.138	14541.09
464.343	14577.95
464.549	14289.19
464.754	14899.48
464.959	14696.74
465.165	14371.11
465.37	13973.8
465.575	13562.16
465.781	14276.9
465.986	14209.32
466.191	13791.53
466.397	13570.35
466.602	12669.25
466.807	13338.93
467.012	13203.77
467.218	13127.99
467.423	13162.81
467.628	13140.28
467.833	13650.22
468.038	13019.45
468.244	12716.35
468.449	13041.98
468.654	12777.79
468.859	12736.83
469.064	12581.18
469.269	12095.82
469.474	12208.45
469.679	12288.32
469.885	12198.21
470.09	12296.52
470.295	12261.7
470.5	11807.05
470.705	11864.39
470.91	11641.17
471.115	11512.14
471.32	11911.5
471.525	11635.02
471.73	11469.14
471.935	11407.7
472.139	10965.34
472.344	11194.71
472.549	11094.36
472.754	10901.85
472.959	10621.28
473.164	10377.57
473.369	10361.19
473.574	10643.81
473.778	10514.78
473.983	10365.28
474.188	10273.12
474.393	9931.11
474.598	10064.23
474.802	9775.47
475.007	9800.04
475.212	9773.42
475.417	9621.87
475.621	9492.85
475.826	9630.06
476.031	9425.26
476.235	9245.04
476.44	9187.7
476.645	9326.96
476.849	9087.35
477.054	9011.57
477.259	8927.61
477.463	8907.13
477.668	8683.9
477.872	8712.57
478.077	8552.83
478.282	8462.72
478.486	8282.5
478.691	8407.42
478.895	8071.56
479.1	8266.11
479.304	8356.22
479.509	7868.81
479.713	8249.73
479.918	8057.22
480.122	7786.89
480.326	7928.2
480.531	8200.58
480.735	7987.59
480.94	7872.9
481.144	7983.49
481.348	7690.63
481.553	7772.55
481.757	7633.29
481.961	7733.64
482.166	7807.37
482.37	7846.28
482.574	7647.63
482.778	7614.86
482.983	7825.8
483.187	7717.26
483.391	7737.74
483.595	7623.05
483.8	7768.46
484.004	7655.82
484.208	7571.85
484.412	7571.85
484.616	7788.94
484.821	7670.15
485.025	7602.57
485.229	7897.48
485.433	7686.54
485.637	7737.74
485.841	7709.07
486.045	7696.78
486.249	7606.67
486.453	7408.01
486.657	7680.39
486.861	7739.79
487.065	7551.37
487.269	7553.42
487.473	7500.17
487.677	7678.35
487.881	7930.25
488.085	7659.92
488.289	7702.92
488.493	7883.14
488.697	7774.6
488.901	7754.12
489.105	7772.55
489.309	7852.42
489.512	7737.74
489.716	7952.77
489.92	7682.44
490.124	7817.61
490.328	7981.45
490.531	7758.22
490.735	7926.15
490.939	7936.39
491.143	7954.82
491.346	7963.01
491.55	8046.98
491.754	7993.73
491.958	8141.19
492.161	8018.31
492.365	8276.35
492.569	8040.84
492.772	8024.45
492.976	8206.72
493.18	8167.81
493.383	8343.94
493.587	8212.87
493.79	8464.77
493.994	8274.31
494.197	8579.45
494.401	8515.97
494.605	8677.76
494.808	8597.88
495.012	8757.63
495.215	8702.33
495.419	8702.33
495.622	8829.31
495.825	9093.49
496.029	9001.33
496.232	9052.53
496.436	9083.25
496.639	9062.77
496.843	9240.95
497.046	9478.51
497.249	9431.41
497.453	9531.76
497.656	9775.47
497.859	9777.51
498.063	9726.32
498.266	10160.48
498.469	10045.8
498.673	10254.69
498.876	10359.14
499.079	10617.18
499.282	10402.15
499.485	10549.6
499.689	10729.82
499.892	10854.75
500.095	10856.79
500.298	11094.36
500.501	11182.42
500.705	11331.92
500.908	11632.97
501.111	11510.1
501.314	11702.61
501.517	11856.2
501.72	11952.46
501.923	11934.03
502.126	12423.49
502.329	12460.35
502.532	12486.98
502.735	12536.13
502.938	12949.82
503.141	12761.41
503.344	13173.05
503.547	12912.95
503.75	13115.7
503.953	13390.13
504.156	13678.9
504.359	13824.3
504.562	13687.09
504.765	14111.02
504.968	14207.27
505.17	14113.06
505.373	14252.33
505.576	14772.51
505.779	14762.27
505.982	14862.62
506.185	15098.14
506.387	15456.53
506.59	15300.89
506.793	15853.84
506.996	15534.35
507.198	16228.62
507.401	15941.9
507.604	16021.77
507.807	16472.32
508.009	16625.92
508.212	16627.97
508.415	16824.58
508.617	17170.68
508.82	17307.9
509.022	17039.61
509.225	17748.21
509.428	17692.91
509.63	18041.07
509.833	17989.87
510.035	18540.77
510.238	18424.04
510.44	18696.42
510.643	18755.81
510.845	19181.79
511.048	18890.98
511.25	19300.57
511.453	19210.46
511.655	20119.76
511.858	19824.85
512.06	20007.12
512.262	20201.68
512.465	20363.47
512.667	20502.73
512.87	21037.25
513.072	21035.2
513.274	21268.67
513.477	21266.62
513.679	21831.86
513.881	21770.42
514.084	22137.01
514.286	22190.25
514.488	22341.8
514.69	22874.27
514.893	22808.74
515.095	22921.38
515.297	23339.16
515.499	23447.71
515.701	23513.24
515.904	24037.52
516.106	23853.2
516.308	24410.25
516.51	24965.25
516.712	24727.69
516.914	24955.01
517.116	25354.37
517.318	25491.58
517.52	25362.56
517.722	25872.5
517.925	26110.07
518.127	26237.04
518.329	26845.29
518.531	26687.59
518.733	26949.73
518.935	27045.99
519.136	27256.93
519.338	27990.1
519.54	27801.69
519.742	28076.12
519.944	28219.47
520.146	28604.49
520.348	28911.69
520.55	28790.86
520.752	29050.95
520.954	29677.63
521.155	29497.41
521.357	29943.86
521.559	29939.77
521.761	30627.88
521.963	30763.05
522.164	30744.62
522.366	30664.75
522.568	31068.2
522.77	31131.68
522.971	31821.85
523.173	31268.9
523.375	31907.87
523.576	31942.68
523.778	32116.76
523.98	32434.19
524.181	32497.68
524.383	32725
524.584	32901.13
524.786	33003.53
524.988	32827.4
525.189	33251.33
525.391	33767.42
525.592	33554.43
525.794	33910.78
525.995	33871.87
526.197	33802.24
526.398	34527.22
526.6	34908.14
526.801	34555.89
527.003	34680.81
527.204	35004.39
527.406	35092.46
527.607	34891.76
527.808	35207.14
528.01	34830.32
528.211	35108.84
528.412	36227.03
528.614	35657.7
528.815	35987.42
529.016	36491.22
529.218	35962.84
529.419	35956.7
529.62	36224.98
529.822	36126.68
530.023	36405.2
530.224	36425.68
530.425	36267.99
530.626	36102.11
530.828	35968.99
531.029	36896.72
531.23	36569.04
531.431	36499.41
531.632	36745.17
531.833	36970.44
532.035	36726.74
532.236	36618.19
532.437	37328.84
532.638	36583.38
532.839	36927.44
533.04	37064.65
533.241	36505.55
533.442	37132.23
533.643	37054.41
533.844	37003.21
534.045	37371.85
534.246	36935.63
534.447	37337.03
534.648	37070.79
534.849	37171.14
535.05	37119.95
535.251	37234.63
535.451	36937.68
535.652	37478.34
535.853	37105.61
536.054	37660.61
536.255	37492.68
536.456	37033.93
536.657	37967.8
536.857	37461.96
537.058	36921.29
537.259	37130.19
537.46	37558.21
537.66	37130.19
537.861	37552.07
538.062	37191.62
538.263	37648.32
538.463	37244.87
538.664	37656.51
538.865	37400.52
539.065	37578.69
539.266	37302.21
539.466	37842.88
539.667	37271.5
539.868	37660.61
540.068	37517.25
540.269	37066.7
540.469	37377.99
540.67	37242.82
540.87	37177.29
541.071	37052.36
541.271	36978.64
541.472	36935.63
541.672	37226.44
541.873	37130.19
542.073	37179.34
542.274	37277.64
542.474	36945.87
542.675	36810.7
542.875	37621.7
543.075	37380.04
543.276	36700.11
543.476	37197.77
543.676	37025.74
543.877	37269.45
544.077	37263.3
544.277	36939.72
544.478	36913.1
544.678	37091.27
544.878	37183.43
545.078	36904.91
545.279	36982.73
545.479	36800.46
545.679	37007.31
545.879	36833.23
546.079	37234.63
546.28	37050.31
546.48	36595.67
546.68	36714.45
546.88	37011.4
547.08	36956.11
547.28	36845.52
547.48	36681.68
547.68	37099.47
547.88	36689.87
548.081	36945.87
548.281	36718.54
548.481	36591.57
548.681	37169.1
548.881	36718.54
549.081	36933.58
549.28	36689.87
549.48	37064.65
549.68	36880.33
549.88	37193.67
550.08	36419.54
550.28	37109.71
550.48	36689.87
550.68	37320.65
550.88	36612.05
551.08	36378.58
551.279	36861.9
551.479	36251.61
551.679	36685.78
551.879	36095.96
552.079	36759.5
552.278	36435.92
552.478	36777.93
552.678	36868.05
552.878	36544.47
553.077	36804.56
553.277	36333.53
553.477	36784.08
553.676	36489.17
553.876	36470.74
554.076	36343.77
554.275	36446.16
554.475	35964.89
554.674	36456.4
554.874	36134.87
555.074	36079.58
555.273	36153.3
555.473	36450.26
555.672	36145.11
555.872	35909.6
556.071	36007.9
556.271	36132.82
556.47	36038.62
556.67	35753.95
556.869	35780.57
557.068	35526.63
557.268	35659.74
557.467	35792.86
557.667	35811.29
557.866	35299.3
558.065	35373.03
558.265	35117.03
558.464	35411.94
558.663	35934.17
558.863	35182.57
559.062	35739.61
559.261	34736.11
559.461	35631.07
559.66	35010.54
559.859	35143.66
560.058	34895.85
560.258	35061.74
560.457	34572.27
560.656	34762.73
560.855	34922.48
561.054	34732.01
561.253	34545.65
561.453	34930.67
561.652	34588.66
561.851	34975.72
562.05	34256.89
562.249	34220.02
562.448	34822.12
562.647	34371.57
562.846	34000.89
563.045	34170.87
563.244	34060.28
563.443	34093.05
563.642	33892.35
563.841	34076.66
564.04	33507.33
564.239	34191.35
564.438	33630.21
564.637	33845.24
564.836	33863.68
565.035	33380.35
565.234	33339.4
565.432	33290.24
565.631	32833.55
565.83	33296.39
566.029	33159.17
566.228	32710.67
566.427	32851.98
566.625	32870.41
566.824	32505.87
567.023	33110.02
567.222	32141.33
567.42	32622.61
567.619	32604.17
567.818	32397.33
568.016	31899.67
568.215	32638.99
568.414	32135.19
568.612	32692.24
568.811	32464.91
569.01	32210.96
569.208	31457.31
569.407	31725.6
569.605	31733.79
569.804	31899.67
570.002	31586.33
570.201	31610.91
570.4	31352.87
570.598	31352.87
570.797	31053.86
570.995	31180.84
571.193	30941.22
571.392	31291.43
571.59	30801.96
571.789	30881.83
571.987	30586.93
572.186	30720.04
572.384	30554.16
572.582	30890.02
572.781	31029.29
572.979	30066.74
573.177	30406.7
573.376	30224.43
573.574	30312.5
573.772	30371.89
573.971	30130.23
574.169	29714.49
574.367	29829.18
574.565	29952.05
574.763	29749.31
574.962	29319.23
575.16	29427.77
575.358	29386.82
575.556	28827.72
575.754	29395.01
575.952	28993.61
576.151	29276.23
576.349	28991.56
576.547	28909.64
576.745	28936.26
576.943	28864.58
577.141	28686.41
577.339	28704.84
577.537	28637.26
577.735	28555.34
577.933	28506.19
578.131	28323.92
578.329	28399.69
578.527	28264.53
578.725	28155.99
578.923	27848.79
579.121	27742.3
579.319	27973.72
579.516	27953.24
579.714	27918.42
579.912	27668.57
580.11	27271.26
580.308	27621.47
580.506	27406.43
580.704	27115.62
580.901	27281.5
581.099	27658.33
581.297	27013.22
581.495	27301.98
581.692	26904.68
581.89	26898.53
582.088	26888.29
582.285	26839.14
582.483	26605.67
582.681	26902.63
582.878	26447.98
583.076	26124.4
583.274	26693.74
583.471	25970.8
583.669	26286.19
583.866	25870.45
584.064	26251.38
584.262	25954.42
584.459	26048.63
584.657	25700.47
584.854	25966.71
585.052	25213.06
585.249	25823.35
585.447	25919.6
585.644	25450.62
585.841	25323.65
586.039	25378.94
586.236	25303.17
586.434	25274.49
586.631	25096.32
586.828	24825.99
587.026	25055.36
587.223	25122.94
587.42	24819.85
587.618	25065.6
587.815	24520.84
588.012	24645.77
588.21	24553.61
588.407	24991.87
588.604	24586.38
588.801	24150.16
588.999	24160.4
589.196	24326.28
589.393	23914.64
589.59	24148.11
589.787	23976.08
589.984	24004.75
590.182	23472.28
590.379	23875.73
590.576	24072.34
590.773	23683.22
590.97	23685.27
591.167	23689.37
591.364	23285.92
591.561	23505.05
591.758	23167.13
591.955	23320.73
592.152	23273.63
592.349	23140.51
592.546	23046.3
592.743	23281.82
592.94	22859.94
593.137	22876.32
593.334	22587.56
593.531	22692.01
593.727	22702.25
593.924	22374.57
594.121	22282.41
594.318	22530.22
594.515	22243.5
594.712	22427.82
594.908	21856.43
595.105	22569.13
595.302	21915.83
595.499	22124.72
595.696	21989.55
595.892	21688.5
596.089	21983.41
596.286	22030.51
596.482	21768.37
596.679	21725.36
596.876	21663.93
597.072	21702.84
597.269	21508.28
597.466	21457.08
597.662	21063.87
597.859	21338.3
598.055	21172.41
598.252	20973.76
598.448	20959.42
598.645	21098.69
598.841	20625.61
599.038	20945.09
599.234	20897.99
599.431	20611.27
599.627	20783.3
599.824	20791.49
600.02	20512.97
600.217	20523.21
600.413	20230.35
600.609	20377.8
600.806	20179.15
601.002	20527.3
601.198	20162.76
601.395	19894.48
601.591	20148.43
601.787	20287.69
601.984	19851.47
602.18	20050.13
602.376	19513.56
602.572	19652.82
602.769	19794.13
602.965	19427.54
603.161	19575
603.357	19585.24
603.553	19570.9
603.75	19542.23
603.946	19208.41
604.142	19603.67
604.338	18997.47
604.534	19222.75
604.73	18831.58
604.926	18944.22
605.122	18981.09
605.318	19022.05
605.514	18864.35
605.71	18557.16
605.906	18677.99
606.102	18759.91
606.298	18608.36
606.494	18458.85
606.69	18383.08
606.886	18772.19
607.082	18165.99
607.278	18436.33
607.474	18067.69
607.67	18389.22
607.866	17996.01
608.062	18473.19
608.257	18090.22
608.453	18026.73
608.649	17930.48
608.845	17957.1
609.041	17862.9
609.236	18016.49
609.432	17961.2
609.628	17885.42
609.824	17680.63
610.019	17522.93
610.215	17688.82
610.411	17828.08
610.606	17688.82
610.802	17770.74
610.998	17461.49
611.193	17336.57
611.389	17535.22
611.584	17434.87
611.78	17242.36
611.976	17125.63
612.171	17381.62
612.367	17223.93
612.562	17271.03
612.758	17056
612.953	17060.09
613.149	16998.65
613.344	16730.37
613.539	17219.83
613.735	17002.75
613.93	16996.6
614.126	16959.74
614.321	17268.98
614.517	16918.78
614.712	16691.46
614.907	16697.6
615.103	16847.1
615.298	16621.83
615.493	16988.41
615.688	16554.24
615.884	16687.36
616.079	16177.42
616.274	16607.49
616.47	16437.51
616.665	16640.26
616.86	16593.15
617.055	16285.96
617.25	16457.99
617.445	16468.23
617.641	15989
617.836	16449.8
618.031	16038.16
618.226	16265.48
618.421	16103.69
618.616	16025.87
618.811	15718.67
619.006	16068.87
619.201	15694.1
619.396	16115.98
619.591	15456.53
619.786	15937.8
619.981	15616.27
620.176	15495.44
620.371	15374.61
620.566	15339.8
620.761	15464.72
620.956	15491.35
621.151	15333.65
621.346	15245.59
621.541	14993.69
621.735	15155.48
621.93	14969.12
622.125	14776.61
622.32	14645.54
622.515	14960.92
622.709	14506.27
622.904	14557.47
623.099	14407.97
623.294	14700.83
623.488	14281
623.683	14498.08
623.878	13949.23
624.072	14285.09
624.267	13938.99
624.462	14281
624.656	13961.51
624.851	13959.47
625.046	13691.18
625.24	13611.31
625.435	13625.65
625.629	13691.18
625.824	13392.18
626.018	13427
626.213	13214.01
626.407	13236.53
626.602	13111.61
626.796	13033.79
626.991	13052.22
627.185	13107.51
627.38	12978.49
627.574	12765.5
627.768	12693.82
627.963	12634.43
628.157	12669.25
628.352	12544.32
628.546	12433.73
628.74	12722.49
628.935	12192.07
629.129	12239.17
629.323	12280.13
629.517	12038.47
629.712	12212.55
629.906	12128.58
630.1	11848.01
630.294	11823.44
630.489	11727.18
630.683	11800.91
630.877	11419.99
631.071	11735.37
631.265	11592.02
631.459	11575.63
631.653	11475.28
631.848	11594.06
632.042	11149.65
632.236	11534.67
632.43	11417.94
632.624	11153.75
632.818	11256.15
633.012	11323.73
633.206	11030.87
633.4	10807.64
633.594	11018.58
633.788	10957.14
633.982	10971.48
634.176	10799.45
634.369	10621.28
634.563	10584.41
634.757	10690.91
634.951	10735.96
635.145	10453.34
635.339	10154.34
635.533	10174.82
635.726	10494.3
635.92	10254.69
636.114	10264.93
636.308	10166.63
636.501	10271.08
636.695	10103.14
636.889	9863.53
637.083	9775.47
637.276	9804.14
637.47	9757.04
637.664	9695.6
637.857	9701.74
638.051	9877.87
638.244	9597.29
638.438	9605.49
638.632	9433.46
638.825	9265.52
639.019	9378.16
639.212	9286
639.406	9386.35
639.599	9335.15
639.793	9318.77
639.986	9073.01
640.18	9126.26
640.373	9183.6
640.567	8905.08
640.76	8989.05
640.954	8884.6
641.147	8833.4
641.34	8743.29
641.534	8892.79
641.727	8884.6
641.92	8688
642.114	8690.04
642.307	8468.86
642.5	8610.17
642.694	8325.5
642.887	8343.94
643.08	8360.32
643.273	8460.67
643.467	8202.63
643.66	8274.31
643.853	8128.9
644.046	8253.83
644.239	8212.87
644.432	7995.78
644.626	7963.01
644.819	8225.15
645.012	8151.43
645.205	7776.65
645.398	7881.1
645.591	7655.82
645.784	7866.76
645.977	7780.75
646.17	7926.15
646.363	7668.11
646.556	7496.08
646.749	7555.47
646.942	7367.06
647.135	7442.83
647.328	7270.8
647.521	7471.5
647.714	7291.28
647.907	7268.75
648.099	7432.59
648.292	7264.66
648.485	7258.51
648.678	7025.04
648.871	7029.14
649.064	7082.39
649.256	7242.13
649.449	6994.33
649.642	6957.46
649.835	6926.74
650.027	6953.37
650.22	7002.52
650.413	6678.94
650.605	6898.07
650.798	6816.15
650.991	6691.23
651.183	6779.29
651.376	6617.5
651.568	6662.55
651.761	6719.9
651.954	6562.2
652.146	6537.63
652.339	6396.32
652.531	6361.5
652.724	6486.43
652.916	6328.74
653.109	6554.01
653.301	6398.37
653.494	6365.6
653.686	6117.79
653.879	6392.22
654.071	6115.75
654.263	6232.48
654.456	6025.64
654.648	6175.14
654.84	6042.02
655.033	5970.34
655.225	6050.21
655.417	5982.63
655.61	5771.69
655.802	5921.19
655.994	5896.61
656.186	5964.2
656.379	5790.12
656.571	5761.45
656.763	5716.39
656.955	5712.3
657.148	5796.26
657.34	5724.58
657.532	5663.15
657.724	5636.52
657.916	5661.1
658.108	5607.85
658.3	5413.29
658.492	5585.32
658.684	5411.25
658.876	5380.53
659.068	5321.13
659.26	5333.42
659.452	5343.66
659.644	5343.66
659.836	5306.8
660.028	5427.63
660.22	5188.02
660.412	5192.11
660.604	5274.03
660.796	5161.39
660.988	5128.63
661.18	5259.7
661.372	5034.42
661.563	5032.37
661.755	4936.12
661.947	4907.45
662.139	5026.23
662.331	4860.34
662.522	4862.39
662.714	4979.12
662.906	4897.21
663.097	4932.02
663.289	4942.26
663.481	4823.48
663.673	4796.85
663.864	4739.51
664.056	4655.54
664.247	4692.41
664.439	4606.39
664.631	4596.15
664.822	4465.08
665.014	4637.11
665.205	4495.8
665.397	4504
665.588	4626.87
665.78	4436.41
665.971	4415.93
666.163	4444.6
666.354	4559.29
666.546	4432.32
666.737	4293.05
666.929	4444.6
667.12	4463.04
667.311	4391.36
667.503	4340.16
667.694	4381.12
667.885	4364.73
668.077	4293.05
668.268	4295.1
668.459	4374.97
668.651	4139.46
668.842	4176.32
669.033	4147.65
669.224	4069.83
669.416	4168.13
669.607	4067.78
669.798	4014.53
669.989	4139.46
670.18	4104.64
670.371	4141.5
670.563	4002.24
670.754	3975.62
670.945	4020.67
671.136	3928.52
671.327	3987.91
671.518	4092.35
671.709	3985.86
671.9	3932.61
672.091	3998.15
672.282	3852.74
672.473	3742.15
672.664	3959.24
672.855	3805.64
673.046	3721.67
673.237	3879.36
673.428	3811.78
673.619	3795.4
673.809	3695.05
674	3666.38
674.191	3672.52
674.382	3754.44
674.573	3658.18
674.764	3512.78
674.954	3725.77
675.145	3627.46
675.336	3731.91
675.527	3561.93
675.717	3594.7
675.908	3465.68
676.099	3543.5
676.289	3473.87
676.48	3664.33
676.671	3533.26
676.861	3387.85
677.052	3520.97
677.243	3473.87
677.433	3428.81
677.624	3492.3
677.814	3547.59
678.005	3486.15
678.195	3449.29
678.386	3514.83
678.576	3422.67
678.767	3346.89
678.957	3379.66
679.148	3408.33
679.338	3449.29
679.529	3330.51
679.719	3314.13
679.909	3262.93
680.1	3176.91
680.29	3367.37
680.481	3498.44
680.671	3367.37
680.861	3402.19
681.052	3207.63
681.242	3273.17
681.432	3455.44
681.622	3359.18
681.813	3228.11
682.003	3273.17
682.193	3363.28
682.383	3398.09
682.573	3129.81
682.764	3236.3
682.954	3260.88
683.144	3287.5
683.334	3232.21
683.524	3262.93
683.714	3178.96
683.904	3281.36
684.094	3232.21
684.284	3236.3
684.474	3195.34
684.664	3217.87
684.854	3238.35
685.044	3133.9
685.234	3144.14
685.424	3101.14
685.614	3078.61
685.804	3174.86
685.994	3166.67
686.184	3131.86
686.374	2984.4
686.564	3049.94
686.753	3160.53
686.943	3043.79
687.133	3029.46
687.323	3082.7
687.513	3008.98
687.702	2988.5
687.892	2982.35
688.082	2869.72
688.272	3031.51
688.461	2922.96
688.651	2953.68
688.841	2793.94
689.03	2884.05
689.22	2931.16
689.41	2847.19
689.599	2812.37
689.789	2929.11
689.979	2941.4
690.168	2841.04
690.358	2812.37
690.547	2773.46
690.737	2834.9
690.926	2724.31
691.116	2726.36
691.305	2800.09
691.495	2705.88
691.684	2736.6
691.874	2787.8
692.063	2650.58
692.252	2767.32
692.442	2707.93
692.631	2664.92
692.82	2679.26
693.01	2703.83
693.199	2650.58
693.388	2617.82
693.578	2750.93
693.767	2740.69
693.956	2681.3
694.146	2652.63
694.335	2480.6
694.524	2539.99
694.713	2609.62
694.902	2580.95
695.092	2681.3
695.281	2470.36
695.47	2615.77
695.659	2441.69
695.848	2628.06
696.037	2496.99
696.226	2472.41
696.415	2558.42
696.604	2574.81
696.793	2470.36
696.982	2511.32
697.171	2636.25
697.36	2499.03
697.549	2449.88
697.738	2566.62
697.927	2460.12
698.116	2531.8
698.305	2556.38
698.494	2595.29
698.683	2386.4
698.872	2566.62
699.061	2398.68
699.25	2386.4
699.438	2554.33
699.627	2509.27
699.816	2365.92
700.005	2404.83
700.193	2453.98
700.382	2531.8
700.571	2566.62
700.76	2341.34
700.948	2552.28
701.137	2527.71
701.326	2376.16
701.514	2460.12
701.703	2449.88
701.892	2517.47
702.08	2535.9
702.269	2433.5
702.457	2433.5
702.646	2453.98
702.834	2382.3
703.023	2394.59
703.212	2505.18
703.4	2486.75
703.589	2472.41
703.777	2488.79
703.965	2400.73
704.154	2312.67
704.342	2378.2
704.531	2453.98
704.719	2419.16
704.907	2367.96
705.096	2345.44
705.284	2355.68
705.472	2308.57
705.661	2441.69
705.849	2466.27
706.037	2488.79
706.226	2482.65
706.414	2380.25
706.602	2435.55
706.79	2298.33
706.979	2372.06
707.167	2509.27
707.355	2306.52
707.543	2484.7
707.731	2419.16
707.919	2492.89
708.107	2347.48
708.296	2376.16
708.484	2324.96
708.672	2427.35
708.86	2433.5
709.048	2310.62
709.236	2363.87
709.424	2335.2
709.612	2431.45
709.8	2474.46
709.988	2329.05
710.176	2488.79
710.364	2408.92
710.551	2343.39
710.739	2304.48
710.927	2372.06
711.115	2490.84
711.303	2392.54
711.491	2374.11
711.679	2304.48
711.866	2300.38
712.054	2359.77
712.242	2292.19
712.43	2378.2
712.617	2351.58
712.805	2423.26
712.993	2357.72
713.181	2306.52
713.368	2363.87
713.556	2308.57
713.744	2251.23
713.931	2456.03
714.119	2327
714.306	2400.73
714.494	2394.59
714.682	2333.15
714.869	2318.81
715.057	2388.44
715.244	2316.76
715.432	2351.58
715.619	2394.59
715.807	2310.62
715.994	2310.62
716.182	2402.78
716.369	2261.47
716.556	2398.68
716.744	2284
716.931	2312.67
717.119	2335.2
717.306	2349.53
717.493	2298.33
717.681	2277.85
717.868	2427.35
718.055	2277.85
718.242	2245.09
718.43	2314.72
718.617	2304.48
718.804	2181.6
718.991	2273.76
719.179	2314.72
719.366	2150.88
719.553	2251.23
719.74	2351.58
719.927	2214.37
720.114	2281.95
720.301	2257.37
720.488	2175.45
720.676	2322.91
720.863	2279.9
721.05	2306.52
721.237	2306.52
721.424	2273.76
721.611	2142.69
721.798	2159.07
721.985	2189.79
722.172	2263.52
722.358	2103.78
722.545	2298.33
722.732	2230.75
722.919	2191.84
723.106	2300.38
723.293	2300.38
723.48	2183.65
723.667	2216.41
723.853	2314.72
724.04	2222.56
724.227	2230.75
724.414	2183.65
724.6	2308.57
724.787	2230.75
724.974	2214.37
725.161	2142.69
725.347	2294.24
725.534	2247.13
725.72	2159.07
725.907	2210.27
726.094	2183.65
726.28	2208.22
726.467	2236.89
726.653	2169.31
726.84	2228.7
727.027	2193.89
727.213	2271.71
727.4	2208.22
727.586	2234.85
727.773	2136.54
727.959	2068.96
728.145	2099.68
728.332	2202.08
728.518	2210.27
728.705	2130.4
728.891	2144.74
729.077	2208.22
729.264	2228.7
729.45	2146.78
729.636	2152.93
729.823	2011.62
730.009	2185.69
730.195	2281.95
730.382	2251.23
730.568	2318.81
730.754	2148.83
730.94	2167.26
731.126	2118.11
731.313	2128.35
731.499	2197.98
731.685	2154.98
731.871	2185.69
732.057	2251.23
732.243	2015.71
732.429	2077.15
732.615	2079.2
732.801	2122.21
732.987	2204.13
733.173	2134.5
733.359	2154.98
733.545	2073.06
733.731	2114.02
733.917	2173.41
734.103	2163.17
734.289	2056.67
734.475	2142.69
734.661	2128.35
734.847	2271.71
735.033	2105.82
735.219	2195.93
735.404	2091.49
735.59	2175.45
735.776	2064.86
735.962	2136.54
736.148	2159.07
736.333	2179.55
736.519	2028
736.705	2130.4
736.89	2025.95
737.076	2036.19
737.262	2064.86
737.447	1946.08
737.633	2103.78
737.819	2101.73
738.004	2001.38
738.19	2183.65
738.375	2034.14
738.561	2046.43
738.747	1962.47
738.932	2068.96
739.118	2030.05
739.303	2017.76
739.489	2101.73
739.674	1991.14
739.859	1997.28
740.045	2077.15
740.23	1972.71
740.416	1919.46
740.601	2085.34
740.786	1978.85
740.972	1972.71
741.157	2025.95
741.342	1878.5
741.528	1993.19
741.713	1935.84
741.898	1935.84
742.084	1911.27
742.269	1978.85
742.454	1868.26
742.639	1892.84
742.824	1841.64
743.01	1911.27
743.195	1958.37
743.38	1917.41
743.565	1896.93
743.75	1905.12
743.935	1796.58
744.12	1831.4
744.305	1763.81
744.49	1868.26
744.675	1870.31
744.86	1774.05
745.045	1696.23
745.23	1849.83
745.415	1796.58
745.6	1810.92
745.785	1741.29
745.97	1784.29
746.155	1743.33
746.34	1739.24
746.525	1804.77
746.71	1794.53
746.895	1665.51
747.079	1767.91
747.264	1685.99
747.449	1679.85
747.634	1751.53
747.819	1636.84
748.003	1692.13
748.188	1749.48
748.373	1608.17
748.557	1661.41
748.742	1556.97
748.927	1698.28
749.111	1612.26
749.296	1634.79
749.481	1583.59
749.665	1581.54
749.85	1556.97
750.034	1550.82
750.219	1569.26
750.404	1442.28
750.588	1423.85
750.773	1434.09
750.957	1548.78
751.141	1489.39
751.326	1499.63
751.51	1460.71
751.695	1466.86
751.879	1475.05
752.064	1511.91
752.248	1401.32
752.432	1432.04
752.617	1368.56
752.801	1450.47
752.985	1403.37
753.17	1440.23
753.354	1372.65
753.538	1477.1
753.722	1327.6
753.907	1323.5
754.091	1266.16
754.275	1372.65
754.459	1362.41
754.643	1311.21
754.828	1311.21
755.012	1442.28
755.196	1272.3
755.38	1253.87
755.564	1305.07
755.748	1198.57
755.932	1266.16
756.116	1169.9
756.3	1231.34
756.484	1274.35
756.668	1300.97
756.852	1169.9
757.036	1229.29
757.22	1210.86
757.404	1149.42
757.588	1163.76
757.772	1143.28
757.956	1182.19
758.14	1157.61
758.323	1081.84
758.507	1217.01
758.691	1077.74
758.875	1139.18
759.059	1065.46
759.242	1190.38
759.426	1073.65
759.61	1190.38
759.794	1075.7
759.977	1030.64
760.161	1114.61
760.345	1081.84
760.528	1024.5
760.712	1010.16
760.895	1055.22
761.079	1141.23
761.263	1067.5
761.446	1042.93
761.63	995.82
761.813	1087.98
761.997	1057.26
762.18	995.82
762.364	1008.11
762.547	1020.4
762.731	977.39
762.914	1036.78
763.098	1057.26
763.281	924.15
763.464	881.14
763.648	979.44
763.831	934.39
764.015	858.61
764.198	938.48
764.381	995.82
764.564	909.81
764.748	958.96
764.931	1016.3
765.114	932.34
765.297	1014.26
765.481	881.14
765.664	905.71
765.847	856.56
766.03	913.91
766.213	821.75
766.397	909.81
766.58	881.14
766.763	932.34
766.946	903.67
767.129	965.11
767.312	942.58
767.495	905.71
767.678	938.48
767.861	842.23
768.044	979.44
768.227	860.66
768.41	885.23
768.593	844.28
768.776	780.79
768.959	881.14
769.142	901.62
769.324	813.56
769.507	858.61
769.69	877.04
769.873	799.22
770.056	977.39
770.239	795.12
770.421	879.09
770.604	860.66
770.787	813.56
770.97	737.78
771.152	801.27
771.335	784.88
771.518	725.49
771.7	844.28
771.883	754.16
772.066	821.75
772.248	860.66
772.431	809.46
772.613	786.93
772.796	829.94
772.978	782.84
773.161	840.18
773.343	750.07
773.526	705.01
773.708	770.55
773.891	686.58
774.073	809.46
774.256	735.73
774.438	762.36
774.621	674.29
774.803	719.35
774.985	694.77
775.168	780.79
775.35	721.4
775.532	662.01
775.715	705.01
775.897	647.67
776.079	692.73
776.261	657.91
776.444	727.54
776.626	641.53
776.808	694.77
776.99	715.25
777.173	668.15
777.355	608.76
777.537	666.1
777.719	735.73
777.901	619
778.083	637.43
778.265	532.98
778.447	662.01
778.629	610.81
778.811	627.19
778.993	528.89
779.175	608.76
779.357	655.86
779.539	590.33
779.721	553.46
779.903	612.85
780.085	653.81
780.267	465.4
780.449	594.42
780.631	600.57
780.812	516.6
780.994	614.9
781.176	590.33
781.358	590.33
781.54	602.61
781.721	580.09
781.903	547.32
782.085	471.54
782.267	512.5
782.448	571.9
782.63	477.69
782.812	453.11
782.993	502.26
783.175	520.7
783.357	451.07
783.538	537.08
783.72	422.39
783.901	477.69
784.083	457.21
784.264	483.83
784.446	518.65
784.627	487.93
784.809	496.12
784.99	426.49
785.172	449.02
785.353	514.55
785.535	438.78
785.716	410.11
785.897	356.86
786.079	446.97
786.26	455.16
786.441	420.35
786.623	418.3
786.804	373.24
786.985	426.49
787.167	481.78
787.348	340.47
787.529	422.39
787.71	440.83
787.891	377.34
788.073	444.92
788.254	397.82
788.435	463.35
788.616	397.82
788.797	350.71
788.978	432.63
789.159	377.34
789.34	403.96
789.522	391.67
789.703	387.58
789.884	379.39
790.065	426.49
790.246	383.48
790.427	389.63
790.607	389.63
790.788	352.76
790.969	354.81
791.15	393.72
791.331	293.37
791.512	369.15
791.693	315.9
791.874	363
792.054	416.25
792.235	358.91
792.416	242.17
792.597	299.52
792.778	297.47
792.958	322.04
793.139	303.61
793.32	299.52
793.5	254.46
793.681	375.29
793.862	260.6
794.042	352.76
794.223	303.61
794.404	279.04
794.584	276.99
794.765	272.89
794.945	311.8
795.126	283.13
795.306	262.65
795.487	287.23
795.667	227.84
795.848	276.99
796.028	297.47
796.209	332.28
796.389	223.74
796.57	244.22
796.75	199.16
796.93	291.32
797.111	330.23
797.291	276.99
797.471	274.94
797.652	274.94
797.832	320
798.012	264.7
798.192	250.36
798.373	262.65
798.553	240.12
798.733	256.51
798.913	227.84
799.093	320
799.274	229.88
799.454	250.36
799.634	250.36
799.814	262.65
799.994	328.19
800.174	223.74
800.354	295.42
800.534	186.88
800.714	201.21
800.894	231.93
801.074	221.69
801.254	246.27
801.434	272.89
801.614	207.36
801.794	215.55
801.974	582.14
802.154	172.54
802.334	227.84
802.514	158.21
802.693	190.97
802.873	215.55
803.053	221.69
803.233	225.79
803.413	186.88
803.592	182.78
803.772	168.45
803.952	217.6
804.131	221.69
804.311	250.36
804.491	299.52
804.67	182.78
804.85	107.01
805.03	252.41
805.209	358.91
805.389	209.4
805.568	164.35
805.748	201.21
805.928	236.03
806.107	135.68
806.287	227.84
806.466	119.29
806.646	248.32
806.825	207.36
807.004	219.64
807.184	240.12
807.363	227.84
807.543	162.3
807.722	168.45
807.901	160.25
808.081	291.32
808.26	201.21
808.439	182.78
808.619	201.21
808.798	143.87
808.977	186.88
809.156	150.01
809.336	178.69
809.515	264.7
809.694	111.1
809.873	227.84
810.052	164.35
810.231	199.16
810.411	197.12
810.59	186.88
810.769	150.01
810.948	211.45
811.127	172.54
811.306	197.12
811.485	113.15
811.664	238.08
811.843	233.98
812.022	90.62
812.201	164.35
812.38	111.1
812.559	164.35
812.737	207.36
812.916	190.97
813.095	135.68
813.274	170.49
813.453	225.79
813.632	190.97
813.811	125.44
813.989	57.86
814.168	127.49
814.347	184.83
814.526	158.21
814.704	133.63
814.883	168.45
815.062	107.01
815.24	152.06
815.419	139.77
815.598	184.83
815.776	160.25
815.955	176.64
816.133	88.57
816.312	125.44
816.49	84.48
816.669	121.34
816.847	119.29
817.026	180.73
817.204	111.1
817.383	127.49
817.561	141.82
817.74	193.02
817.918	94.72
818.097	119.29
818.275	43.52
818.453	123.39
818.632	156.16
818.81	195.07
818.988	164.35
819.167	113.15
819.345	193.02
819.523	147.97
819.701	203.26
819.879	115.2
820.058	107.01
820.236	107.01
820.414	190.97
820.592	139.77
820.77	111.1
820.948	133.63
821.127	135.68
821.305	178.69
821.483	176.64
821.661	47.62
821.839	84.48
822.017	141.82
822.195	102.91
822.373	139.77
822.551	174.59
822.729	127.49
822.907	96.77
823.085	92.67
823.262	94.72
823.44	68.09
823.618	84.48
823.796	74.24
823.974	92.67
824.152	92.67
824.329	182.78
824.507	147.97
824.685	127.49
824.863	115.2
825.04	68.09
825.218	139.77
825.396	90.62
825.574	117.25
825.751	188.93
825.929	180.73
826.107	133.63
826.284	109.05
826.462	129.53
826.639	143.87
826.817	74.24
826.994	156.16
827.172	137.73
827.349	68.09
827.527	139.77
827.704	61.95
827.882	102.91
828.059	2.56
828.237	82.43
828.414	127.49
828.591	70.14
828.769	94.72
828.946	55.81
829.124	123.39
829.301	100.86
829.478	55.81
829.655	98.81
829.833	123.39
830.01	80.38
830.187	117.25
830.364	45.57
830.542	131.58
830.719	111.1
830.896	131.58
831.073	84.48
831.25	78.33
831.427	66.05
831.604	47.62
831.782	119.29
831.959	61.95
832.136	92.67
832.313	90.62
832.49	39.42
832.667	70.14
832.844	74.24
833.021	100.86
833.198	78.33
833.374	64
833.551	86.53
833.728	49.66
833.905	147.97
834.082	37.38
834.259	164.35
834.436	45.57
834.612	61.95
834.789	164.35
834.966	131.58
835.143	113.15
835.319	76.29
835.496	100.86
835.673	102.91
835.85	131.58
836.026	66.05
836.203	104.96
836.38	68.09
836.556	57.86
836.733	74.24
836.909	160.25
837.086	37.38
837.262	35.33
837.439	41.47
837.616	135.68
837.792	66.05
837.968	158.21
838.145	14.85
838.321	37.38
838.498	94.72
838.674	59.9
838.851	41.47
839.027	47.62
839.203	0.51
839.38	49.66
839.556	-22.02
839.732	72.19
839.909	35.33
840.085	72.19
840.261	78.33
840.437	37.38
840.614	45.57
840.79	70.14
840.966	78.33
841.142	96.77
841.318	12.8
841.494	70.14
841.671	84.48
841.847	16.9
842.023	61.95
842.199	41.47
842.375	33.28
842.551	123.39
842.727	94.72
842.903	92.67
843.079	35.33
843.255	96.77
843.431	51.71
843.607	41.47
843.783	-7.68
843.959	94.72
844.134	12.8
844.31	72.19
844.486	111.1
844.662	102.91
844.838	-34.3
845.013	68.09
845.189	70.14
845.365	14.85
845.541	27.14
845.716	90.62
845.892	43.52
846.068	29.18
846.244	-62.98
846.419	-28.16
846.595	20.99
846.77	90.62
846.946	53.76
847.122	-7.68
847.297	27.14
847.473	84.48
847.648	31.23
847.824	139.77
847.999	76.29
848.175	107.01
848.35	57.86
848.526	74.24
848.701	94.72
848.876	49.66
849.052	119.29
849.227	10.75
849.403	35.33
849.578	41.47
849.753	74.24
849.929	100.86
850.104	39.42
850.279	47.62
850.454	-11.78
850.63	18.94
850.805	47.62
850.98	53.76
851.155	37.38
851.33	-7.68
851.505	29.18
851.681	12.8
851.856	47.62
852.031	47.62
852.206	55.81
852.381	35.33
852.556	12.8
852.731	33.28
852.906	78.33
853.081	47.62
853.256	39.42
853.431	90.62
853.606	-28.16
853.781	45.57
853.956	59.9
854.131	64
854.305	45.57
854.48	-30.21
854.655	41.47
854.83	45.57
855.005	14.85
855.18	43.52
855.354	-36.35
855.529	92.67
855.704	43.52
855.879	68.09
856.053	8.7
856.228	41.47
856.403	51.71
856.577	25.09
856.752	-7.68
856.926	84.48
857.101	-11.78
857.276	8.7
857.45	104.96
857.625	47.62
857.799	-44.54
857.974	16.9
858.148	47.62
858.323	47.62
858.497	102.91
858.672	-7.68
858.846	31.23
859.02	27.14
859.195	-38.4
859.369	0.51
859.543	-9.73
859.718	55.81
859.892	43.52
860.066	-36.35
860.241	84.48
860.415	-19.97
860.589	-15.87
860.763	90.62
860.938	53.76
861.112	12.8
861.286	-5.63
861.46	53.76
861.634	94.72
861.808	-5.63
861.982	10.75
862.157	57.86
862.331	18.94
862.505	-67.07
862.679	-50.69
862.853	-7.68
863.027	25.09
863.201	49.66
863.375	94.72
863.549	84.48
863.722	41.47
863.896	57.86
864.07	-13.82
864.244	47.62
864.418	-24.06
864.592	23.04
864.766	72.19
864.939	-40.45
865.113	18.94
865.287	39.42
865.461	45.57
865.634	53.76
865.808	10.75
865.982	25.09
866.156	10.75
866.329	31.23
866.503	92.67
866.676	49.66
866.85	18.94
867.024	41.47
867.197	8.7
867.371	-3.58
867.544	41.47
867.718	39.42
867.891	57.86
868.065	-36.35
868.238	-44.54
868.412	47.62
868.585	82.43
868.759	82.43
868.932	14.85
869.105	74.24
869.279	102.91
869.452	-7.68
869.625	33.28
869.799	31.23
869.972	33.28
870.145	29.18
870.319	20.99
870.492	41.47
870.665	12.8
870.838	23.04
871.011	-1.54
871.185	76.29
871.358	57.86
871.531	-7.68
871.704	-5.63
871.877	59.9
872.05	51.71
872.223	86.53
872.396	-3.58
872.569	-28.16
872.742	16.9
872.915	37.38
873.088	31.23
873.261	-34.3
873.434	72.19
873.607	31.23
873.78	31.23
873.953	-15.87
874.126	49.66
874.299	4.61
874.471	57.86
874.644	-17.92
874.817	94.72
874.99	29.18
875.163	45.57
875.335	23.04
875.508	4.61
875.681	68.09
875.853	41.47
876.026	-7.68
876.199	0.51
876.371	43.52
876.544	49.66
876.717	-34.3
876.889	18.94
877.062	64
877.234	27.14
877.407	51.71
877.579	18.94
877.752	102.91
877.924	59.9
878.097	94.72
878.269	18.94
878.442	-11.78
878.614	8.7
878.786	33.28
878.959	-3.58
879.131	35.33
879.303	53.76
879.476	39.42
879.648	111.1
879.82	4.61
879.993	14.85
880.165	-48.64
880.337	18.94
880.509	55.81
880.681	66.05
880.854	-7.68
881.026	29.18
881.198	59.9
881.37	45.57
881.542	-3.58
881.714	39.42
881.886	-36.35
882.058	12.8
882.23	59.9
882.402	37.38
882.574	64
882.746	25.09
882.918	74.24
883.09	10.75
883.262	72.19
883.434	35.33
883.606	41.47
883.778	23.04
883.95	55.81
884.122	20.99
884.293	78.33
884.465	68.09
884.637	55.81
884.809	0.51
884.98	45.57
885.152	-7.68
885.324	111.1
885.496	90.62
885.667	-24.06
885.839	-48.64
886.011	14.85
886.182	-58.88
886.354	23.04
886.525	-32.26
886.697	31.23
886.869	-19.97
887.04	-28.16
887.212	20.99
887.383	90.62
887.555	16.9
887.726	10.75
887.897	37.38
888.069	82.43
888.24	8.7
888.412	12.8
888.583	10.75
888.754	-11.78
888.926	23.04
889.097	18.94
889.268	-11.78
889.44	-22.02
889.611	-40.45
889.782	76.29
889.953	-44.54
890.125	107.01
890.296	-1.54
890.467	-44.54
890.638	23.04
890.809	45.57
890.98	4.61
891.151	-11.78
891.323	92.67
891.494	12.8
891.665	57.86
891.836	-44.54
892.007	-5.63
892.178	51.71
892.349	-17.92
892.52	55.81
892.691	-73.21
892.862	-15.87
893.032	53.76
893.203	6.66
893.374	-46.59
893.545	29.18
893.716	-44.54
893.887	20.99
894.057	-38.4
894.228	70.14
894.399	12.8
894.57	12.8
894.74	0.51
894.911	-26.11
895.082	29.18
895.253	27.14
895.423	14.85
895.594	12.8
895.764	70.14
895.935	25.09
896.106	61.95
896.276	25.09
896.447	45.57
896.617	2.56
896.788	12.8
896.958	49.66
897.129	25.09
897.299	41.47
897.47	61.95
897.64	-22.02
897.81	72.19
897.981	49.66
898.151	-15.87
898.322	2.56
898.492	-42.5
898.662	23.04
898.832	45.57
899.003	57.86
899.173	-34.3
899.343	4.61
899.513	-28.16
