Data from USB4F104151__37__11-05-22-091.txt Node

Date: Wed Mar 12 11:05:22 EDT 2025
User: louis
Spectrometer: USB4F10415
Trigger mode: 4
Integration Time (sec): 2.000000E-2
Scans to average: 1
Electric dark correction enabled: true
Nonlinearity correction enabled: false
Boxcar width: 0
XAxis mode: Wavelengths
Number of Pixels in Spectrum: 3648
>>>>>Begin Spectral Data<<<<<
178.204	-72.87
178.424	-72.87
178.644	-72.87
178.864	-36.01
179.084	-76.97
179.304	19.29
179.524	-19.63
179.744	15.19
179.964	52.05
180.184	-15.53
180.404	35.67
180.624	-62.63
180.844	19.29
181.064	-40.11
181.283	68.44
181.503	-42.15
181.723	-29.87
181.943	41.81
182.163	31.57
182.383	29.52
182.602	54.1
182.822	66.39
183.042	37.72
183.262	4.95
183.482	-9.39
183.701	-1.19
183.921	29.52
184.141	88.92
184.361	50
184.58	86.87
184.8	9.05
185.02	27.48
185.239	25.43
185.459	19.29
185.679	47.96
185.898	-31.91
186.118	66.39
186.338	99.16
186.557	66.39
186.777	52.05
186.997	41.81
187.216	9.05
187.436	90.96
187.655	45.91
187.875	47.96
188.095	45.91
188.314	50
188.534	54.1
188.753	2.9
188.973	60.24
189.192	72.53
189.412	37.72
189.631	37.72
189.851	27.48
190.07	60.24
190.29	-23.72
190.509	13.14
190.729	121.68
190.948	86.87
191.168	148.31
191.387	41.81
191.607	50
191.826	11.09
192.045	37.72
192.265	56.15
192.484	31.57
192.704	-5.29
192.923	17.24
193.142	78.68
193.362	82.77
193.581	43.86
193.8	64.34
194.02	95.06
194.239	35.67
194.458	47.96
194.678	17.24
194.897	45.91
195.116	33.62
195.335	15.19
195.555	43.86
195.774	-46.25
195.993	47.96
196.212	-42.15
196.432	25.43
196.651	-48.3
196.87	-23.72
197.089	54.1
197.308	23.38
197.528	82.77
197.747	4.95
197.966	37.72
198.185	-13.48
198.404	58.2
198.623	13.14
198.842	66.39
199.062	17.24
199.281	-9.39
199.5	-31.91
199.719	109.4
199.938	2.9
200.157	25.43
200.376	76.63
200.595	19.29
200.814	15.19
201.033	52.05
201.252	47.96
201.471	33.62
201.69	82.77
201.909	-13.48
202.128	13.14
202.347	39.76
202.566	68.44
202.785	27.48
203.004	45.91
203.223	47.96
203.442	11.09
203.661	35.67
203.879	31.57
204.098	31.57
204.317	0.85
204.536	45.91
204.755	21.33
204.974	9.05
205.193	23.38
205.411	-15.53
205.63	11.09
205.849	52.05
206.068	-3.24
206.287	-21.67
206.505	-7.34
206.724	97.11
206.943	7
207.162	0.85
207.381	35.67
207.599	113.49
207.818	37.72
208.037	50
208.255	19.29
208.474	31.57
208.693	56.15
208.911	95.06
209.13	-7.34
209.349	107.35
209.567	-54.44
209.786	58.2
210.005	-21.67
210.223	29.52
210.442	54.1
210.661	27.48
210.879	58.2
211.098	37.72
211.316	64.34
211.535	7
211.753	27.48
211.972	43.86
212.191	-48.3
212.409	33.62
212.628	31.57
212.846	19.29
213.065	50
213.283	72.53
213.502	0.85
213.72	54.1
213.938	50
214.157	27.48
214.375	21.33
214.594	52.05
214.812	58.2
215.031	4.95
215.249	-27.82
215.467	127.83
215.686	35.67
215.904	41.81
216.122	7
216.341	35.67
216.559	9.05
216.778	60.24
216.996	33.62
217.214	41.81
217.432	52.05
217.651	-31.91
217.869	-11.43
218.087	76.63
218.306	101.2
218.524	66.39
218.742	-31.91
218.96	-13.48
219.179	23.38
219.397	117.59
219.615	82.77
219.833	58.2
220.051	21.33
220.27	33.62
220.488	47.96
220.706	2.9
220.924	-23.72
221.142	58.2
221.36	33.62
221.578	76.63
221.796	54.1
222.015	-13.48
222.233	33.62
222.451	84.82
222.669	-29.87
222.887	97.11
223.105	62.29
223.323	43.86
223.541	68.44
223.759	47.96
223.977	-52.39
224.195	37.72
224.413	9.05
224.631	54.1
224.849	78.68
225.067	62.29
225.285	76.63
225.503	0.85
225.721	-17.58
225.939	-1.19
226.157	27.48
226.375	90.96
226.592	105.3
226.81	25.43
227.028	21.33
227.246	39.76
227.464	47.96
227.682	62.29
227.9	15.19
228.117	17.24
228.335	41.81
228.553	0.85
228.771	58.2
228.989	33.62
229.206	2.9
229.424	62.29
229.642	41.81
229.86	-68.78
230.077	54.1
230.295	41.81
230.513	2.9
230.731	45.91
230.948	45.91
231.166	35.67
231.384	37.72
231.601	66.39
231.819	-7.34
232.037	0.85
232.254	-81.07
232.472	-25.77
232.689	23.38
232.907	17.24
233.125	-25.77
233.342	2.9
233.56	88.92
233.777	66.39
233.995	97.11
234.213	78.68
234.43	-33.96
234.648	15.19
234.865	13.14
235.083	43.86
235.3	-17.58
235.518	50
235.735	13.14
235.953	37.72
236.17	19.29
236.388	37.72
236.605	27.48
236.822	15.19
237.04	2.9
237.257	29.52
237.475	29.52
237.692	21.33
237.909	54.1
238.127	31.57
238.344	-17.58
238.562	74.58
238.779	-46.25
238.996	-38.06
239.214	25.43
239.431	117.59
239.648	2.9
239.865	68.44
240.083	45.91
240.3	7
240.517	-19.63
240.735	33.62
240.952	109.4
241.169	99.16
241.386	29.52
241.603	13.14
241.821	0.85
242.038	80.72
242.255	25.43
242.472	-38.06
242.689	82.77
242.907	99.16
243.124	-44.2
243.341	25.43
243.558	-64.68
243.775	43.86
243.992	33.62
244.209	41.81
244.426	66.39
244.643	39.76
244.86	27.48
245.078	17.24
245.295	-7.34
245.512	43.86
245.729	66.39
245.946	-17.58
246.163	-50.35
246.38	56.15
246.597	58.2
246.814	29.52
247.031	-38.06
247.248	72.53
247.464	74.58
247.681	29.52
247.898	23.38
248.115	-5.29
248.332	25.43
248.549	68.44
248.766	21.33
248.983	9.05
249.2	60.24
249.417	119.64
249.633	-5.29
249.85	23.38
250.067	37.72
250.284	70.48
250.501	41.81
250.717	101.2
250.934	58.2
251.151	19.29
251.368	-3.24
251.585	31.57
251.801	4.95
252.018	47.96
252.235	54.1
252.451	21.33
252.668	-48.3
252.885	17.24
253.102	-13.48
253.318	45.91
253.535	15.19
253.752	41.81
253.968	64.34
254.185	68.44
254.401	72.53
254.618	23.38
254.835	64.34
255.051	76.63
255.268	0.85
255.484	31.57
255.701	35.67
255.917	17.24
256.134	-13.48
256.351	27.48
256.567	80.72
256.784	60.24
257	37.72
257.217	-13.48
257.433	41.81
257.65	-31.91
257.866	23.38
258.082	35.67
258.299	60.24
258.515	84.82
258.732	0.85
258.948	29.52
259.165	7
259.381	-21.67
259.597	66.39
259.814	78.68
260.03	58.2
260.246	121.68
260.463	-19.63
260.679	86.87
260.895	-23.72
261.112	13.14
261.328	-36.01
261.544	11.09
261.761	58.2
261.977	-7.34
262.193	4.95
262.409	19.29
262.626	29.52
262.842	54.1
263.058	60.24
263.274	90.96
263.49	27.48
263.707	66.39
263.923	-19.63
264.139	70.48
264.355	45.91
264.571	-3.24
264.787	29.52
265.004	11.09
265.22	45.91
265.436	-7.34
265.652	88.92
265.868	-3.24
266.084	15.19
266.3	90.96
266.516	-29.87
266.732	41.81
266.948	58.2
267.164	13.14
267.38	60.24
267.596	-3.24
267.812	66.39
268.028	2.9
268.244	11.09
268.46	35.67
268.676	4.95
268.892	17.24
269.108	72.53
269.324	56.15
269.54	-25.77
269.756	39.76
269.972	54.1
270.188	23.38
270.403	17.24
270.619	4.95
270.835	33.62
271.051	56.15
271.267	27.48
271.483	37.72
271.698	45.91
271.914	70.48
272.13	-44.2
272.346	45.91
272.562	86.87
272.777	80.72
272.993	-9.39
273.209	62.29
273.425	15.19
273.64	-50.35
273.856	19.29
274.072	15.19
274.287	-15.53
274.503	72.53
274.719	119.64
274.934	37.72
275.15	35.67
275.366	-23.72
275.581	39.76
275.797	76.63
276.012	50
276.228	52.05
276.444	-33.96
276.659	54.1
276.875	-1.19
277.09	80.72
277.306	0.85
277.521	45.91
277.737	7
277.952	72.53
278.168	-29.87
278.383	52.05
278.599	7
278.814	86.87
279.03	35.67
279.245	25.43
279.461	-15.53
279.676	58.2
279.892	115.54
280.107	72.53
280.322	-17.58
280.538	17.24
280.753	58.2
280.969	25.43
281.184	66.39
281.399	58.2
281.615	35.67
281.83	54.1
282.045	13.14
282.26	0.85
282.476	-31.91
282.691	74.58
282.906	29.52
283.122	29.52
283.337	-15.53
283.552	70.48
283.767	47.96
283.983	11.09
284.198	52.05
284.413	136.02
284.628	-21.67
284.843	37.72
285.058	43.86
285.274	29.52
285.489	29.52
285.704	70.48
285.919	-62.63
286.134	101.2
286.349	117.59
286.564	78.68
286.779	2.9
286.995	39.76
287.21	33.62
287.425	62.29
287.64	54.1
287.855	58.2
288.07	13.14
288.285	80.72
288.5	115.54
288.715	84.82
288.93	127.83
289.145	93.01
289.36	45.91
289.575	29.52
289.79	107.35
290.004	-13.48
290.219	47.96
290.434	78.68
290.649	15.19
290.864	-7.34
291.079	25.43
291.294	84.82
291.509	56.15
291.724	15.19
291.938	-21.67
292.153	29.52
292.368	11.09
292.583	103.25
292.798	70.48
293.012	-9.39
293.227	58.2
293.442	54.1
293.657	-23.72
293.871	52.05
294.086	37.72
294.301	43.86
294.516	107.35
294.73	80.72
294.945	21.33
295.16	52.05
295.374	58.2
295.589	11.09
295.804	9.05
296.018	103.25
296.233	39.76
296.447	101.2
296.662	17.24
296.877	97.11
297.091	86.87
297.306	27.48
297.52	113.49
297.735	47.96
297.949	41.81
298.164	-46.25
298.378	74.58
298.593	-33.96
298.807	17.24
299.022	60.24
299.236	125.78
299.451	64.34
299.665	52.05
299.88	25.43
300.094	103.25
300.309	58.2
300.523	13.14
300.737	43.86
300.952	86.87
301.166	103.25
301.381	-40.11
301.595	17.24
301.809	33.62
302.024	13.14
302.238	9.05
302.452	0.85
302.667	-13.48
302.881	21.33
303.095	80.72
303.309	70.48
303.524	21.33
303.738	74.58
303.952	17.24
304.166	52.05
304.381	80.72
304.595	31.57
304.809	17.24
305.023	41.81
305.237	-31.91
305.452	47.96
305.666	43.86
305.88	105.3
306.094	-5.29
306.308	95.06
306.522	11.09
306.736	52.05
306.95	66.39
307.164	93.01
307.379	-19.63
307.593	21.33
307.807	84.82
308.021	99.16
308.235	68.44
308.449	23.38
308.663	-9.39
308.877	88.92
309.091	33.62
309.305	37.72
309.519	-5.29
309.733	50
309.947	-42.15
310.161	72.53
310.374	15.19
310.588	50
310.802	25.43
311.016	109.4
311.23	66.39
311.444	41.81
311.658	2.9
311.872	-19.63
312.085	82.77
312.299	60.24
312.513	70.48
312.727	58.2
312.941	-9.39
313.154	7
313.368	90.96
313.582	21.33
313.796	45.91
314.009	64.34
314.223	4.95
314.437	152.4
314.651	99.16
314.864	29.52
315.078	2.9
315.292	45.91
315.505	29.52
315.719	17.24
315.933	7
316.146	-15.53
316.36	-3.24
316.573	64.34
316.787	-9.39
317.001	37.72
317.214	70.48
317.428	68.44
317.641	52.05
317.855	27.48
318.068	13.14
318.282	68.44
318.495	121.68
318.709	52.05
318.922	60.24
319.136	64.34
319.349	66.39
319.563	39.76
319.776	80.72
319.99	21.33
320.203	152.4
320.417	45.91
320.63	9.05
320.843	70.48
321.057	45.91
321.27	15.19
321.483	41.81
321.697	29.52
321.91	64.34
322.124	33.62
322.337	90.96
322.55	66.39
322.763	21.33
322.977	41.81
323.19	74.58
323.403	33.62
323.617	82.77
323.83	41.81
324.043	9.05
324.256	62.29
324.469	17.24
324.683	54.1
324.896	64.34
325.109	86.87
325.322	45.91
325.535	95.06
325.748	17.24
325.962	39.76
326.175	-11.43
326.388	103.25
326.601	99.16
326.814	56.15
327.027	17.24
327.24	33.62
327.453	45.91
327.666	11.09
327.879	50
328.092	76.63
328.305	45.91
328.518	2.9
328.731	113.49
328.944	90.96
329.157	11.09
329.37	13.14
329.583	103.25
329.796	133.97
330.009	62.29
330.222	19.29
330.435	17.24
330.648	80.72
330.861	58.2
331.073	25.43
331.286	25.43
331.499	60.24
331.712	7
331.925	-25.77
332.138	13.14
332.35	90.96
332.563	82.77
332.776	74.58
332.989	56.15
333.202	56.15
333.414	105.3
333.627	-23.72
333.84	-11.43
334.053	29.52
334.265	90.96
334.478	-17.58
334.691	58.2
334.903	99.16
335.116	-21.67
335.329	43.86
335.541	25.43
335.754	88.92
335.966	84.82
336.179	62.29
336.392	76.63
336.604	54.1
336.817	80.72
337.029	15.19
337.242	58.2
337.454	33.62
337.667	86.87
337.88	93.01
338.092	93.01
338.305	86.87
338.517	-3.24
338.729	58.2
338.942	76.63
339.154	29.52
339.367	-52.39
339.579	70.48
339.792	74.58
340.004	86.87
340.217	66.39
340.429	113.49
340.641	33.62
340.854	138.07
341.066	-19.63
341.278	95.06
341.491	93.01
341.703	-7.34
341.915	7
342.128	121.68
342.34	56.15
342.552	54.1
342.764	43.86
342.977	-9.39
343.189	54.1
343.401	35.67
343.613	-15.53
343.826	84.82
344.038	31.57
344.25	52.05
344.462	54.1
344.674	138.07
344.886	76.63
345.099	54.1
345.311	17.24
345.523	50
345.735	-74.92
345.947	76.63
346.159	25.43
346.371	21.33
346.583	125.78
346.795	144.21
347.007	15.19
347.219	80.72
347.431	41.81
347.643	78.68
347.855	-9.39
348.067	93.01
348.279	13.14
348.491	11.09
348.703	111.44
348.915	35.67
349.127	-7.34
349.339	50
349.551	21.33
349.763	7
349.975	29.52
350.187	58.2
350.399	68.44
350.61	17.24
350.822	58.2
351.034	23.38
351.246	50
351.458	80.72
351.669	70.48
351.881	84.82
352.093	-7.34
352.305	66.39
352.517	99.16
352.728	33.62
352.94	64.34
353.152	45.91
353.363	-52.39
353.575	70.48
353.787	115.54
353.999	64.34
354.21	23.38
354.422	19.29
354.633	45.91
354.845	43.86
355.057	0.85
355.268	4.95
355.48	82.77
355.692	21.33
355.903	60.24
356.115	107.35
356.326	-7.34
356.538	47.96
356.749	-15.53
356.961	25.43
357.172	23.38
357.384	103.25
357.595	111.44
357.807	-1.19
358.018	54.1
358.23	43.86
358.441	113.49
358.653	41.81
358.864	13.14
359.075	66.39
359.287	60.24
359.498	103.25
359.709	-11.43
359.921	78.68
360.132	109.4
360.344	45.91
360.555	50
360.766	7
360.977	74.58
361.189	-13.48
361.4	41.81
361.611	54.1
361.823	93.01
362.034	58.2
362.245	37.72
362.456	0.85
362.667	93.01
362.879	37.72
363.09	4.95
363.301	45.91
363.512	-19.63
363.723	64.34
363.935	113.49
364.146	160.59
364.357	78.68
364.568	-3.24
364.779	76.63
364.99	7
365.201	101.2
365.412	93.01
365.623	2.9
365.834	119.64
366.045	27.48
366.256	113.49
366.467	58.2
366.678	95.06
366.889	39.76
367.1	50
367.311	41.81
367.522	21.33
367.733	62.29
367.944	29.52
368.155	62.29
368.366	101.2
368.577	88.92
368.788	41.81
368.999	27.48
369.209	93.01
369.42	103.25
369.631	113.49
369.842	62.29
370.053	80.72
370.264	45.91
370.474	-11.43
370.685	23.38
370.896	70.48
371.107	78.68
371.317	119.64
371.528	0.85
371.739	58.2
371.95	70.48
372.16	95.06
372.371	7
372.582	39.76
372.792	78.68
373.003	99.16
373.214	33.62
373.424	82.77
373.635	93.01
373.846	47.96
374.056	72.53
374.267	17.24
374.477	62.29
374.688	125.78
374.898	95.06
375.109	13.14
375.319	39.76
375.53	74.58
375.74	-27.82
375.951	72.53
376.161	50
376.372	111.44
376.582	29.52
376.793	66.39
377.003	-5.29
377.214	93.01
377.424	72.53
377.635	43.86
377.845	56.15
378.055	15.19
378.266	52.05
378.476	25.43
378.686	66.39
378.897	111.44
379.107	35.67
379.317	7
379.528	23.38
379.738	13.14
379.948	19.29
380.158	121.68
380.369	60.24
380.579	74.58
380.789	82.77
380.999	-1.19
381.21	86.87
381.42	95.06
381.63	113.49
381.84	117.59
382.05	2.9
382.261	90.96
382.471	64.34
382.681	60.24
382.891	142.16
383.101	90.96
383.311	64.34
383.521	43.86
383.731	17.24
383.941	29.52
384.151	58.2
384.361	0.85
384.571	107.35
384.781	99.16
384.991	58.2
385.201	50
385.411	23.38
385.621	50
385.831	127.83
386.041	88.92
386.251	84.82
386.461	80.72
386.671	107.35
386.881	88.92
387.091	90.96
387.301	78.68
387.511	58.2
387.72	9.05
387.93	99.16
388.14	70.48
388.35	64.34
388.56	115.54
388.769	-15.53
388.979	82.77
389.189	52.05
389.399	80.72
389.609	107.35
389.818	52.05
390.028	86.87
390.238	-15.53
390.447	11.09
390.657	70.48
390.867	-5.29
391.076	88.92
391.286	41.81
391.496	35.67
391.705	27.48
391.915	56.15
392.125	76.63
392.334	13.14
392.544	138.07
392.753	97.11
392.963	45.91
393.172	54.1
393.382	58.2
393.591	162.64
393.801	74.58
394.01	95.06
394.22	82.77
394.429	62.29
394.639	103.25
394.848	148.31
395.058	107.35
395.267	125.78
395.477	23.38
395.686	99.16
395.895	131.92
396.105	105.3
396.314	111.44
396.524	109.4
396.733	72.53
396.942	113.49
397.152	54.1
397.361	84.82
397.57	17.24
397.78	127.83
397.989	37.72
398.198	154.45
398.407	82.77
398.617	72.53
398.826	105.3
399.035	113.49
399.244	140.12
399.453	127.83
399.663	95.06
399.872	84.82
400.081	66.39
400.29	111.44
400.499	15.19
400.708	93.01
400.917	119.64
401.127	90.96
401.336	93.01
401.545	121.68
401.754	164.69
401.963	152.4
402.172	107.35
402.381	103.25
402.59	66.39
402.799	95.06
403.008	136.02
403.217	54.1
403.426	97.11
403.635	86.87
403.844	72.53
404.053	138.07
404.262	99.16
404.471	205.65
404.68	131.92
404.888	162.64
405.097	70.48
405.306	197.46
405.515	154.45
405.724	127.83
405.933	197.46
406.142	146.26
406.35	211.79
406.559	140.12
406.768	170.83
406.977	222.03
407.185	193.36
407.394	205.65
407.603	133.97
407.812	228.18
408.02	222.03
408.229	191.31
408.438	154.45
408.646	232.27
408.855	146.26
409.064	203.6
409.272	234.32
409.481	273.23
409.69	217.94
409.898	166.74
410.107	248.66
410.315	269.14
410.524	285.52
410.733	306
410.941	236.37
411.15	314.19
411.358	408.4
411.567	340.82
411.775	314.19
411.984	342.86
412.192	394.06
412.401	373.58
412.609	480.08
412.818	422.73
413.026	453.45
413.234	523.09
413.443	473.93
413.651	412.5
413.86	490.32
414.068	568.14
414.276	598.86
414.485	621.39
414.693	545.61
414.901	680.78
415.11	566.09
415.318	584.52
415.526	662.35
415.734	664.4
415.943	656.2
416.151	777.03
416.359	715.59
416.567	660.3
416.776	787.27
416.984	844.62
417.192	809.8
417.4	914.25
417.608	789.32
417.817	897.86
418.025	994.12
418.233	1045.32
418.441	990.02
418.649	973.64
418.857	1131.33
419.065	1094.47
419.273	1184.58
419.481	1198.92
419.689	1266.5
419.897	1299.27
420.105	1282.88
420.313	1327.94
420.521	1379.14
420.729	1481.53
420.937	1473.34
421.145	1520.45
421.353	1592.13
421.561	1590.08
421.769	1715
421.977	1770.3
422.185	1803.07
422.393	1874.74
422.601	1942.33
422.809	1971
423.017	1884.98
423.224	2087.73
423.432	2151.22
423.64	2173.75
423.848	2298.67
424.056	2204.47
424.263	2532.14
424.471	2595.63
424.679	2491.18
424.887	2667.31
425.094	2841.39
425.302	2732.84
425.51	2865.96
425.718	2988.84
425.925	3115.81
426.133	3162.92
426.341	3324.71
426.548	3431.2
426.756	3398.43
426.964	3545.89
427.171	3726.11
427.379	3826.46
427.586	3912.47
427.794	4059.93
428.001	4234
428.209	4186.9
428.417	4203.29
428.624	4631.31
428.832	4526.86
429.039	4490
429.247	4457.23
429.454	5006.09
429.662	5413.63
429.869	4887.31
430.076	5368.58
430.284	5206.79
430.491	5358.34
430.699	5561.09
430.906	5653.25
431.114	5690.11
431.321	5827.32
431.528	5968.63
431.736	6673.14
431.943	6828.78
432.15	6458.1
432.358	6654.7
432.565	6828.78
432.772	7009
432.979	7490.28
433.187	7240.42
433.394	7420.64
433.601	8004.32
433.808	8030.94
434.016	8133.34
434.223	8303.32
434.43	8846.03
434.637	8567.51
434.844	9149.13
435.052	9394.89
435.259	9315.02
435.466	9390.79
435.673	9284.3
435.88	9835.2
436.087	10418.87
436.294	10508.98
436.501	10085.05
436.708	10345.14
436.915	10795.7
437.122	11186.86
437.329	11104.94
437.537	11739.81
437.743	11752.1
437.95	11520.68
438.157	12389.02
438.364	12696.21
438.571	12493.46
438.778	12616.34
438.985	13648.52
439.192	13474.44
439.399	13888.13
439.606	13478.54
439.813	14158.46
440.02	15096.43
440.227	14744.18
440.433	14989.94
440.64	15092.34
440.847	15278.7
441.054	15422.06
441.261	16515.67
441.467	16282.2
441.674	16521.82
441.881	17097.3
442.088	17087.06
442.294	16859.73
442.501	17470.03
442.708	17683.02
442.914	18598.46
443.121	19345.97
443.328	18821.69
443.534	19997.22
443.741	19403.31
443.948	19290.67
444.154	20724.25
444.361	20515.36
444.568	20566.56
444.774	20648.47
444.981	20851.22
445.187	21459.47
445.394	22278.66
445.6	21944.84
445.807	24396.26
446.013	23273.97
446.22	23888.36
446.426	24652.25
446.633	24754.65
446.839	25496.02
447.046	24764.89
447.252	25522.64
447.459	26110.41
447.665	25790.92
447.871	26894.78
448.078	28025.26
448.284	26855.87
448.491	27478.45
448.697	28330.41
448.903	28969.37
449.11	28774.81
449.316	28576.16
449.522	29063.58
449.728	29991.31
449.935	30187.91
450.141	30083.47
450.347	30435.72
450.553	29489.56
450.76	29444.5
450.966	30740.86
451.172	30222.73
451.378	31213.95
451.584	30577.03
451.791	31121.79
451.997	31099.26
452.203	31791.47
452.409	31611.25
452.615	31240.57
452.821	30169.48
453.027	30036.36
453.233	31613.3
453.44	30405
453.646	30554.5
453.852	30910.85
454.058	31205.75
454.264	29739.41
454.47	31035.77
454.676	30165.39
454.882	30955.9
455.088	28301.73
455.294	28162.47
455.5	28920.22
455.705	29211.03
455.911	28185
456.117	27523.51
456.323	27232.69
456.529	25573.84
456.735	26333.64
456.941	25811.4
457.147	25334.23
457.352	24535.52
457.558	24408.54
457.764	24648.16
457.97	24011.24
458.176	23347.7
458.381	23466.48
458.587	22274.56
458.793	22442.49
458.999	20939.29
459.204	22589.95
459.41	22028.81
459.616	20582.94
459.821	20443.68
460.027	20349.47
460.233	19915.3
460.438	18987.57
460.644	19249.71
460.85	18336.32
461.055	18092.61
461.261	18201.15
461.466	16736.85
461.672	16157.28
461.878	17119.82
462.083	16071.26
462.289	16003.68
462.494	15727.21
462.7	15034.99
462.905	14717.56
463.111	15293.04
463.316	15284.84
463.522	14922.35
463.727	14893.68
463.932	15256.17
464.138	14783.09
464.343	14768.76
464.549	14252.67
464.754	15129.2
464.959	14660.21
465.165	14717.56
465.37	14301.82
465.575	13689.48
465.781	14215.8
465.986	14350.97
466.191	13894.27
466.397	13587.08
466.602	12905.1
466.807	13617.8
467.012	13439.62
467.218	13384.33
467.423	13079.18
467.628	13400.71
467.833	13818.5
468.038	13365.9
468.244	12976.78
468.449	13271.69
468.654	13034.13
468.859	12984.98
469.064	12978.83
469.269	12327.58
469.474	12432.02
469.679	12780.18
469.885	12100.25
470.09	12487.32
470.295	12341.91
470.5	12038.81
470.705	12018.33
470.91	11719.33
471.115	11635.36
471.32	11936.42
471.525	11844.26
471.73	11475.62
471.935	11311.78
472.139	11066.03
472.344	11166.38
472.549	11215.53
472.754	10953.39
472.959	10666.67
473.164	10613.43
473.369	10476.21
473.574	10769.07
473.778	10433.21
473.983	10697.39
474.188	10533.56
474.393	10085.05
474.598	10146.49
474.802	9865.92
475.007	9872.06
475.212	9974.46
475.417	9659.07
475.621	9482.95
475.826	9509.57
476.031	9468.61
476.235	9302.73
476.44	9255.62
476.645	9302.73
476.849	9124.55
477.054	8993.48
477.259	9050.83
477.463	8979.15
477.668	8762.06
477.872	8684.24
478.077	8710.86
478.282	8571.6
478.486	8422.1
478.691	8487.64
478.895	8266.46
479.1	8248.02
479.304	8395.48
479.509	8004.32
479.713	8274.65
479.918	7852.77
480.122	7877.34
480.326	7996.12
480.531	8098.52
480.735	7932.64
480.94	7858.91
481.144	8090.33
481.348	7600.87
481.553	7951.07
481.757	7664.35
481.961	7903.96
482.166	8180.44
482.37	7963.36
482.574	7576.29
482.778	7633.63
482.983	7977.69
483.187	7910.11
483.391	7754.46
483.595	7783.13
483.8	7791.33
484.004	8010.46
484.208	7750.37
484.412	7844.57
484.616	7733.98
484.821	7668.45
485.025	7670.5
485.229	7848.67
485.433	7774.94
485.637	7656.16
485.841	7529.19
486.045	7742.18
486.249	7674.59
486.453	7613.15
486.657	7580.39
486.861	7725.79
487.065	7672.54
487.269	7873.25
487.473	7602.91
487.677	7795.42
487.881	7828.19
488.085	7756.51
488.289	7815.9
488.493	7817.95
488.697	7906.01
488.901	7801.57
489.105	7776.99
489.309	7729.89
489.512	7770.85
489.716	7793.37
489.92	7897.82
490.124	7594.72
490.328	8100.57
490.531	7740.13
490.735	7924.44
490.939	8049.37
491.143	8039.13
491.346	7879.39
491.55	8194.78
491.754	7989.98
491.958	8192.73
492.161	8174.3
492.365	8102.62
492.569	8352.47
492.772	8180.44
492.976	8342.23
493.18	8245.98
493.383	8299.22
493.587	8532.69
493.79	8463.06
493.994	8542.93
494.197	8667.86
494.401	8682.19
494.605	8848.08
494.808	8768.21
495.012	8717.01
495.215	8725.2
495.419	9028.3
495.622	8846.03
495.825	9233.1
496.029	8942.28
496.232	9249.48
496.436	9204.42
496.639	9562.82
496.843	9462.47
497.046	9482.95
497.249	9691.84
497.453	9714.37
497.656	9910.97
497.859	9931.45
498.063	9974.46
498.266	10377.91
498.469	10148.54
498.673	10263.22
498.876	10379.96
499.079	10531.51
499.282	10486.45
499.485	10549.94
499.689	10789.55
499.892	10971.82
500.095	10904.24
500.298	11334.31
500.501	11084.46
500.705	11524.77
500.908	11608.74
501.111	11778.72
501.314	11743.91
501.517	12167.84
501.72	12239.51
501.923	12006.05
502.126	12464.79
502.329	12481.17
502.532	12532.37
502.735	12802.71
502.938	12837.52
503.141	12974.74
503.344	13214.35
503.547	13220.49
503.75	13333.13
503.953	13716.1
504.156	13705.86
504.359	13970.05
504.562	13845.12
504.765	14246.52
504.968	14307.96
505.17	14412.41
505.373	14672.5
505.576	14932.59
505.779	15133.29
505.982	15127.15
506.185	15391.34
506.387	15471.21
506.59	15465.07
506.793	16116.32
506.996	15657.57
507.198	16370.27
507.401	16339.55
507.604	16487
507.807	16663.13
508.009	16669.27
508.212	16988.75
508.415	16853.59
508.617	17312.33
508.82	17572.43
509.022	17394.25
509.225	17846.85
509.428	17719.88
509.63	18076.23
509.833	18086.47
510.035	18502.2
510.238	18541.11
510.44	18733.62
510.643	19087.92
510.845	19368.49
511.048	19253.81
511.25	19335.73
511.453	19554.86
511.655	20169.25
511.858	20181.54
512.06	20091.43
512.262	20408.86
512.465	20279.84
512.667	20716.06
512.87	21047.83
513.072	21066.26
513.274	21586.44
513.477	21965.32
513.679	21893.64
513.881	22284.8
514.084	22452.73
514.286	22319.62
514.488	22753.79
514.69	23439.86
514.893	23319.03
515.095	23224.82
515.297	23597.55
515.499	23908.84
515.701	24130.02
515.904	24375.78
516.106	24484.32
516.308	24969.69
516.51	24834.52
516.712	24783.32
516.914	25147.86
517.116	25709.01
517.318	25510.35
517.52	26364.36
517.722	26173.89
517.925	26620.35
518.127	26663.36
518.329	27232.69
518.531	26612.16
518.733	27324.85
518.935	28060.07
519.136	27754.93
519.338	28230.05
519.54	28160.42
519.742	28541.35
519.944	28795.29
520.146	28881.31
520.348	29444.5
520.55	29567.38
520.752	29790.61
520.954	29989.26
521.155	29757.84
521.357	30402.95
521.559	30675.33
521.761	31033.72
521.963	31029.63
522.164	31150.46
522.366	31293.82
522.568	32055.66
522.77	31770.99
522.971	32635.24
523.173	32127.34
523.375	32330.09
523.576	32600.42
523.778	32641.38
523.98	33270.11
524.181	33163.61
524.383	33163.61
524.584	33812.82
524.786	33941.84
524.988	33728.85
525.189	33913.17
525.391	34289.99
525.592	34728.26
525.794	34545.99
525.995	34662.72
526.197	34859.33
526.398	34793.79
526.6	35322.17
526.801	35662.13
527.003	35653.94
527.204	35490.1
527.406	35742
527.607	35735.86
527.808	36636.97
528.01	35733.81
528.211	36075.82
528.412	36772.13
528.614	36280.62
528.815	36270.38
529.016	36952.35
529.218	36507.94
529.419	37005.6
529.62	36661.54
529.822	37042.46
530.023	37087.52
530.224	37423.39
530.425	37253.4
530.626	37151.01
530.828	37112.1
531.029	37734.68
531.23	36774.18
531.431	37703.96
531.632	37740.82
531.833	37806.36
532.035	37873.94
532.236	37771.54
532.437	38164.75
532.638	37634.33
532.839	37996.82
533.04	38174.99
533.241	37695.77
533.442	38809.86
533.643	37759.25
533.844	38363.4
534.045	38306.06
534.246	37923.09
534.447	38234.38
534.648	37902.61
534.849	38078.74
535.05	38344.97
535.251	38445.32
535.451	37994.77
535.652	38435.08
535.853	38461.71
536.054	38275.34
536.255	38492.43
536.456	38172.94
536.657	38895.88
536.857	38125.84
537.058	38344.97
537.259	38721.8
537.46	38621.45
537.66	38519.05
537.861	38414.6
538.062	38297.87
538.263	38328.59
538.463	38390.03
538.664	38201.61
538.865	38773
539.065	38603.02
539.266	38283.53
539.466	38990.08
539.667	38193.42
539.868	39039.23
540.068	38467.85
540.269	38697.22
540.469	38555.91
540.67	38564.1
540.87	38555.91
541.071	38367.5
541.271	38631.69
541.472	38627.59
541.672	38158.61
541.873	38408.46
542.073	38107.41
542.274	38508.81
542.474	38400.27
542.675	38070.54
542.875	38809.86
543.075	38324.49
543.276	38035.73
543.476	38871.3
543.676	38437.13
543.877	38729.99
544.077	38535.43
544.277	38404.36
544.478	38203.66
544.678	38777.09
544.878	38273.29
545.078	38465.8
545.279	38017.3
545.479	38162.7
545.679	38455.56
545.879	38187.28
546.079	38482.19
546.28	37906.71
546.48	38115.6
546.68	38469.9
546.88	38152.46
547.08	38246.67
547.28	38179.09
547.48	37959.95
547.68	38084.88
547.88	37800.21
548.081	38234.38
548.281	38105.36
548.481	37964.05
548.681	38224.14
548.881	38058.26
549.081	37824.79
549.28	38107.41
549.48	38291.73
549.68	38113.55
549.88	38230.29
550.08	38017.3
550.28	38263.05
550.48	38015.25
550.68	38603.02
550.88	37816.6
551.08	38025.49
551.279	37773.59
551.479	37517.59
551.679	37929.23
551.879	37749.01
552.079	38236.43
552.278	37607.7
552.478	37691.67
552.678	37880.08
552.878	38056.21
553.077	37925.14
553.277	37228.83
553.477	38254.86
553.676	37939.47
553.876	38045.97
554.076	37751.06
554.275	37181.73
554.475	37488.92
554.674	38152.46
554.874	37746.97
555.074	37312.8
555.273	37411.1
555.473	37681.43
555.672	37269.79
555.872	37316.89
556.071	37654.81
556.271	37736.73
556.47	37089.57
556.67	37157.15
556.869	36753.7
557.068	37263.64
557.268	36569.38
557.467	36882.72
557.667	37124.38
557.866	37325.08
558.065	36712.74
558.265	36954.4
558.464	36772.13
558.663	37320.99
558.863	36419.88
559.062	37069.09
559.261	36389.16
559.461	36825.38
559.66	35950.9
559.859	36694.31
560.058	36010.29
560.258	36661.54
560.457	35760.44
560.656	36213.04
560.855	36124.97
561.054	36210.99
561.253	35770.68
561.453	36286.76
561.652	36116.78
561.851	36159.79
562.05	35875.12
562.249	35965.23
562.448	36014.38
562.647	35649.85
562.846	35662.13
563.045	35696.95
563.244	35098.94
563.443	35807.54
563.642	34545.99
563.841	35553.59
564.04	34969.92
564.239	35606.84
564.438	35131.71
564.637	35201.34
564.836	34703.68
565.035	34322.76
565.234	34957.63
565.432	34736.45
565.631	34531.65
565.83	34521.41
566.029	34412.87
566.228	34167.12
566.427	34404.68
566.625	34298.19
566.824	33700.18
567.023	33917.26
567.222	33538.39
567.42	34259.27
567.619	33765.71
567.818	33626.45
568.016	33648.98
568.215	33931.6
568.414	33296.73
568.612	33675.6
568.811	33321.3
569.01	33149.28
569.208	32688.48
569.407	33304.92
569.605	32788.83
569.804	32979.29
570.002	32737.63
570.201	33024.35
570.4	32735.59
570.598	32543.08
570.797	32317.8
570.995	32426.34
571.193	32020.84
571.392	32371.05
571.59	31961.45
571.789	31682.93
571.987	31627.63
572.186	31949.17
572.384	31558
572.582	31742.32
572.781	31807.86
572.979	31746.42
573.177	31160.7
573.376	31553.91
573.574	31428.98
573.772	31572.34
573.971	31076.73
574.169	31009.15
574.367	30630.27
574.565	31152.51
574.763	30646.66
574.962	30620.03
575.16	30464.39
575.358	30579.07
575.556	30222.73
575.754	30968.19
575.952	30017.93
576.151	30169.48
576.349	29663.63
576.547	29780.37
576.745	30333.32
576.943	29819.28
577.141	29856.14
577.339	30093.71
577.537	29720.98
577.735	29677.97
577.933	29763.98
578.131	29301.14
578.329	29403.54
578.527	29237.66
578.725	29192.6
578.923	29106.59
579.121	28801.44
579.319	28942.75
579.516	28717.47
579.714	28754.33
579.912	28817.82
580.11	28858.78
580.308	28639.65
580.506	28369.32
580.704	28125.61
580.901	28502.43
581.099	28547.49
581.297	28264.87
581.495	28060.07
581.692	28045.74
581.89	27804.08
582.088	28031.4
582.285	27480.5
582.483	27920.81
582.681	27531.7
582.878	27103.67
583.076	27343.28
583.274	27615.66
583.471	26984.89
583.669	27439.54
583.866	27060.66
584.064	27226.55
584.262	26739.13
584.459	27238.84
584.657	27015.61
584.854	27369.91
585.052	26606.02
585.249	26882.49
585.447	26868.16
585.644	26429.89
585.841	26507.71
586.039	26941.88
586.236	26335.68
586.434	26360.26
586.631	25930.19
586.828	26380.74
587.026	26100.17
587.223	26048.97
587.42	25948.62
587.618	25719.24
587.815	25878.99
588.012	25430.48
588.21	25375.19
588.407	25766.35
588.604	25549.26
588.801	25530.83
588.999	25285.08
589.196	25227.73
589.393	25020.89
589.59	25184.73
589.787	25012.7
589.984	24904.15
590.182	24695.26
590.379	25029.08
590.576	24603.1
590.773	24650.21
590.97	24566.24
591.167	24564.19
591.364	24379.87
591.561	24545.76
591.758	24166.88
591.955	24461.79
592.152	24218.08
592.349	24013.29
592.546	24076.77
592.743	24269.28
592.94	23671.28
593.137	24015.33
593.334	24052.2
593.531	23611.89
593.727	23474.67
593.924	23988.71
594.121	23443.95
594.318	23486.96
594.515	23278.07
594.712	23267.83
594.908	23446
595.105	23323.12
595.302	22557.18
595.499	22989.3
595.696	22942.2
595.892	22569.47
596.089	22809.08
596.286	22852.09
596.482	22393.34
596.679	22442.49
596.876	22626.81
597.072	22364.67
597.269	22585.85
597.466	22235.65
597.662	22174.21
597.859	22092.29
598.055	22098.44
598.252	21971.46
598.448	22024.71
598.645	21848.58
598.841	21600.78
599.038	22262.27
599.234	21807.62
599.431	21621.26
599.627	21537.29
599.824	21596.68
600.02	21441.04
600.217	21563.92
600.413	21428.75
600.609	21139.99
600.806	21205.52
601.002	21262.86
601.198	21295.63
601.395	20892.18
601.591	20931.09
601.787	21068.31
601.984	20771.35
602.18	21109.27
602.376	20963.86
602.572	20703.77
602.769	20556.32
602.965	20259.36
603.161	20462.11
603.357	20386.33
603.553	20408.86
603.75	20443.68
603.946	20306.46
604.142	20161.06
604.338	19984.93
604.534	20322.85
604.73	20116
604.926	20025.89
605.122	19872.29
605.318	19786.28
605.514	19716.65
605.71	19515.95
605.906	19724.84
606.102	19638.83
606.298	19649.07
606.494	19231.28
606.69	19401.26
606.886	19505.71
607.082	19206.7
607.278	19315.25
607.474	18911.8
607.67	19126.83
607.866	18938.42
608.062	19235.38
608.257	18860.6
608.453	18917.94
608.649	19102.26
608.845	18674.23
609.041	18584.12
609.236	18969.14
609.432	18610.75
609.628	18891.32
609.824	18324.03
610.019	18567.74
610.215	18577.98
610.411	18528.83
610.606	18500.16
610.802	18549.31
610.998	18477.63
611.193	18584.12
611.389	18285.12
611.584	18199.1
611.78	18176.58
611.976	18100.8
612.171	18278.97
612.367	18178.62
612.562	18082.37
612.758	17650.25
612.953	17556.04
613.149	18074.18
613.344	17986.11
613.539	18086.47
613.735	17922.63
613.93	17820.23
614.126	17635.91
614.321	17914.44
614.517	17732.17
614.712	18104.9
614.907	17650.25
615.103	17568.33
615.298	17416.78
615.493	17803.85
615.688	17076.82
615.884	17613.38
616.079	17105.49
616.274	17478.22
616.47	17363.53
616.665	17257.04
616.86	17508.94
617.055	17048.15
617.25	17064.53
617.445	17152.59
617.641	17052.24
617.836	17087.06
618.031	16882.26
618.226	16982.61
618.421	16869.97
618.616	17037.91
618.811	16638.55
619.006	16562.78
619.201	16400.99
619.396	16487
619.591	16380.51
619.786	16626.26
619.981	16400.99
620.176	16523.87
620.371	16118.37
620.566	16284.25
620.761	16239.2
620.956	16077.41
621.151	15923.81
621.346	15841.89
621.541	15762.02
621.735	15848.04
621.93	15696.49
622.125	15739.49
622.32	15430.25
622.515	15503.98
622.709	15286.89
622.904	15542.89
623.099	15161.97
623.294	15293.04
623.488	14983.79
623.683	15084.14
623.878	14824.05
624.072	14965.36
624.267	14652.02
624.462	14850.67
624.656	14553.72
624.851	14754.42
625.046	14418.55
625.24	14426.75
625.435	14242.43
625.629	14189.18
625.824	14105.21
626.018	14318.2
626.213	13875.84
626.407	13873.79
626.602	13902.47
626.796	13804.16
626.991	13943.42
627.185	13329.03
627.38	13560.45
627.574	13613.7
627.768	13496.97
627.963	13437.58
628.157	13316.75
628.352	13413
628.546	13245.07
628.74	13183.63
628.935	12929.68
629.129	13034.13
629.323	12630.68
629.517	12843.67
629.712	12794.51
629.906	12685.97
630.1	12487.32
630.294	12896.91
630.489	12468.89
630.683	12761.75
630.877	12386.97
631.071	12231.32
631.265	12300.95
631.459	12022.43
631.653	12087.96
631.848	12276.38
632.042	12065.44
632.236	12030.62
632.43	12014.24
632.624	11729.57
632.818	11625.12
633.012	11647.65
633.206	11526.82
633.4	11760.29
633.594	11422.38
633.788	11573.92
633.982	11449
634.176	11469.48
634.369	11322.02
634.563	11274.92
634.757	11182.76
634.951	11082.41
635.145	11111.08
635.339	11106.99
635.533	11150
635.726	11061.93
635.92	10586.8
636.114	10664.63
636.308	10713.78
636.501	10697.39
636.695	10646.19
636.889	10597.04
637.083	10584.76
637.276	10306.23
637.47	10287.8
637.664	10189.5
637.857	10068.67
638.051	10355.38
638.244	10123.96
638.438	10179.26
638.632	10121.91
638.825	9857.73
639.019	9962.17
639.212	9990.84
639.406	9917.12
639.599	9784
639.793	9751.23
639.986	9624.26
640.18	9697.99
640.373	9665.22
640.567	9693.89
640.76	9540.29
640.954	9304.78
641.147	9183.95
641.34	9233.1
641.534	9161.42
641.727	9149.13
641.92	9171.66
642.114	9292.49
642.307	8923.85
642.5	8927.95
642.694	9040.59
642.887	8977.1
643.08	9001.68
643.273	8764.11
643.467	8907.47
643.66	8708.82
643.853	8610.51
644.046	8667.86
644.239	8557.27
644.432	8547.03
644.626	8567.51
644.819	8389.33
645.012	8434.39
645.205	8463.06
645.398	8321.75
645.591	8338.13
645.784	8299.22
645.977	8168.15
646.17	8106.71
646.363	8202.97
646.556	7975.64
646.749	8166.1
646.942	7863.01
647.135	7938.78
647.328	7840.48
647.521	7844.57
647.714	7738.08
647.907	7725.79
648.099	7723.74
648.292	7940.83
648.485	7736.03
648.678	7471.84
648.871	7609.06
649.064	7461.6
649.256	7582.43
649.449	7490.28
649.642	7576.29
649.835	7518.95
650.027	7318.25
650.22	7385.83
650.413	7269.09
650.605	7197.42
650.798	7113.45
650.991	7092.97
651.183	7164.65
651.376	6935.28
651.568	7154.41
651.761	7062.25
651.954	7187.18
652.146	6857.45
652.339	6927.08
652.531	6849.26
652.724	6886.12
652.916	6458.1
653.109	6939.37
653.301	6785.77
653.494	6550.26
653.686	6529.78
653.879	6675.18
654.071	6486.77
654.263	6419.19
654.456	6435.57
654.648	6535.92
654.84	6384.37
655.033	6361.84
655.225	6415.09
655.417	6286.07
655.61	6198.01
655.802	6339.32
655.994	6204.15
656.186	6365.94
656.379	6021.88
656.571	6204.15
656.763	6111.99
656.955	6087.42
657.148	6050.55
657.34	6034.17
657.532	6116.09
657.724	5851.9
657.916	5944.06
658.108	6097.66
658.3	5890.81
658.492	5755.65
658.684	5772.03
658.876	5780.22
659.068	5774.08
659.26	5661.44
659.452	5704.45
659.644	5618.43
659.836	5577.47
660.028	5618.43
660.22	5483.27
660.412	5448.45
660.604	5421.83
660.796	5587.71
660.988	5491.46
661.18	5528.32
661.372	5374.72
661.563	5464.83
661.755	5329.67
661.947	5270.28
662.139	5339.91
662.331	5208.84
662.522	5237.51
662.714	5186.31
662.906	5131.02
663.097	5001.99
663.289	5262.09
663.481	5071.62
663.673	5102.34
663.864	5059.34
664.056	5100.3
664.247	5018.38
664.439	4987.66
664.631	5036.81
664.822	4930.31
665.014	5059.34
665.205	4909.83
665.397	4846.35
665.588	4901.64
665.78	4774.67
665.971	4774.67
666.163	4766.48
666.354	4727.57
666.546	4733.71
666.737	4795.15
666.929	4678.41
667.12	4764.43
667.311	4506.38
667.503	4694.8
667.694	4522.77
667.885	4573.97
668.077	4498.19
668.268	4621.07
668.459	4639.5
668.651	4614.93
668.842	4469.52
669.033	4569.87
669.224	4307.73
669.416	4377.36
669.607	4506.38
669.798	4340.5
669.989	4416.27
670.18	4299.54
670.371	4307.73
670.563	4289.3
670.754	4440.85
670.945	4242.2
671.136	4137.75
671.327	4279.06
671.518	4219.67
671.709	4209.43
671.9	4152.09
672.091	4231.96
672.282	4035.35
672.473	4010.78
672.664	4221.72
672.855	4086.55
673.046	4064.02
673.237	4125.46
673.428	4045.59
673.619	3939.1
673.809	4055.83
674	3947.29
674.191	4186.9
674.382	3918.62
674.573	3883.8
674.764	3889.95
674.954	4021.02
675.145	3840.79
675.336	3846.94
675.527	3978.01
675.717	3894.04
675.908	3732.25
676.099	3773.21
676.289	3691.29
676.48	3752.73
676.671	3851.03
676.861	3891.99
677.052	3846.94
677.243	3822.36
677.433	3799.84
677.624	3746.59
677.814	3871.51
678.005	3679.01
678.195	3715.87
678.386	3670.81
678.576	3627.81
678.767	3771.16
678.957	3685.15
679.148	3676.96
679.338	3590.94
679.529	3711.77
679.719	3691.29
679.909	3793.69
680.1	3679.01
680.29	3691.29
680.481	3545.89
680.671	3664.67
680.861	3496.74
681.052	3595.04
681.242	3511.07
681.432	3621.66
681.622	3588.89
681.813	3670.81
682.003	3552.03
682.193	3582.75
682.383	3537.7
682.573	3531.55
682.764	3398.43
682.954	3693.34
683.144	3611.42
683.334	3562.27
683.524	3447.58
683.714	3486.5
683.904	3359.52
684.094	3537.7
684.284	3506.98
684.474	3408.67
684.664	3443.49
684.854	3343.14
685.044	3498.78
685.234	3316.51
685.424	3320.61
685.614	3431.2
685.804	3416.87
685.994	3255.08
686.184	3375.91
686.374	3263.27
686.564	3339.04
686.753	3296.04
686.943	3334.95
687.133	3420.96
687.323	3300.13
687.513	3283.75
687.702	3257.12
687.892	3197.73
688.082	3138.34
688.272	3156.77
688.461	3191.59
688.651	3232.55
688.841	3179.3
689.03	3130.15
689.22	3248.93
689.41	3117.86
689.599	3132.2
689.789	3193.64
689.979	3070.76
690.168	3142.44
690.358	3144.49
690.547	3085.09
690.737	3136.29
690.926	3019.56
691.116	3011.37
691.305	2964.26
691.495	2894.63
691.684	3040.04
691.874	2890.54
692.063	2990.89
692.252	2982.7
692.442	3050.28
692.631	3040.04
692.82	2984.74
693.01	2849.58
693.199	2812.71
693.388	2962.22
693.578	2755.37
693.767	2855.72
693.956	2816.81
694.146	2874.15
694.335	2835.24
694.524	2810.67
694.713	2906.92
694.902	2810.67
695.092	2825
695.281	2786.09
695.47	2812.71
695.659	2822.95
695.848	2732.84
696.037	2843.43
696.226	2695.98
696.415	2749.23
696.604	2769.71
696.793	2630.45
696.982	2777.9
697.171	2720.56
697.36	2800.43
697.549	2693.93
697.738	2612.01
697.927	2616.11
698.116	2786.09
698.305	2673.45
698.494	2669.36
698.683	2616.11
698.872	2698.03
699.061	2620.21
699.25	2687.79
699.438	2810.67
699.627	2714.41
699.816	2673.45
700.005	2659.12
700.193	2724.65
700.382	2743.08
700.571	2706.22
700.76	2638.64
700.948	2634.54
701.137	2702.12
701.326	2741.04
701.514	2634.54
701.703	2626.35
701.892	2732.84
702.08	2667.31
702.269	2786.09
702.457	2759.47
702.646	2626.35
702.834	2609.97
703.023	2693.93
703.212	2745.13
703.4	2726.7
703.589	2575.15
703.777	2732.84
703.965	2644.78
704.154	2665.26
704.342	2605.87
704.531	2659.12
704.719	2566.96
704.907	2706.22
705.096	2521.9
705.284	2599.73
705.472	2665.26
705.661	2581.29
705.849	2747.18
706.037	2687.79
706.226	2655.02
706.414	2657.07
706.602	2542.38
706.79	2655.02
706.979	2681.64
707.167	2757.42
707.355	2673.45
707.543	2523.95
707.731	2704.17
707.919	2622.25
708.107	2612.01
708.296	2599.73
708.484	2575.15
708.672	2655.02
708.86	2566.96
709.048	2655.02
709.236	2558.77
709.424	2798.38
709.612	2659.12
709.8	2614.06
709.988	2593.58
710.176	2636.59
710.364	2632.49
710.551	2585.39
710.739	2634.54
710.927	2609.97
711.115	2597.68
711.303	2597.68
711.491	2675.5
711.679	2575.15
711.866	2589.49
712.054	2677.55
712.242	2583.34
712.43	2655.02
712.617	2749.23
712.805	2554.67
712.993	2564.91
713.181	2550.57
713.368	2751.28
713.556	2640.69
713.744	2558.77
713.931	2642.73
714.119	2734.89
714.306	2552.62
714.494	2636.59
714.682	2634.54
714.869	2544.43
715.057	2530.09
715.244	2566.96
715.432	2726.7
715.619	2616.11
715.807	2552.62
715.994	2616.11
716.182	2501.42
716.369	2655.02
716.556	2591.53
716.744	2501.42
716.931	2589.49
717.119	2618.16
717.306	2573.1
717.493	2618.16
717.681	2552.62
717.868	2501.42
718.055	2513.71
718.242	2583.34
718.43	2675.5
718.617	2577.2
718.804	2532.14
718.991	2698.03
719.179	2534.19
719.366	2616.11
719.553	2526
719.74	2599.73
719.927	2642.73
720.114	2691.88
720.301	2513.71
720.488	2564.91
720.676	2585.39
720.863	2571.05
721.05	2601.77
721.237	2659.12
721.424	2550.57
721.611	2566.96
721.798	2558.77
721.985	2554.67
722.172	2558.77
722.358	2519.85
722.545	2628.4
722.732	2487.09
722.919	2517.81
723.106	2577.2
723.293	2607.92
723.48	2427.7
723.667	2634.54
723.853	2575.15
724.04	2513.71
724.227	2562.86
724.414	2538.29
724.6	2548.53
724.787	2534.19
724.974	2544.43
725.161	2587.44
725.347	2478.9
725.534	2634.54
725.72	2591.53
725.907	2421.55
726.094	2528.05
726.28	2642.73
726.467	2538.29
726.653	2532.14
726.84	2542.38
727.027	2587.44
727.213	2454.32
727.4	2482.99
727.586	2374.45
727.773	2448.18
727.959	2470.7
728.145	2550.57
728.332	2511.66
728.518	2513.71
728.705	2556.72
728.891	2515.76
729.077	2558.77
729.264	2509.62
729.45	2583.34
729.636	2605.87
729.823	2499.38
730.009	2558.77
730.195	2515.76
730.382	2515.76
730.568	2429.74
730.754	2495.28
730.94	2380.59
731.126	2513.71
731.313	2501.42
731.499	2517.81
731.685	2513.71
731.871	2542.38
732.057	2523.95
732.243	2523.95
732.429	2487.09
732.615	2474.8
732.801	2491.18
732.987	2583.34
733.173	2519.85
733.359	2523.95
733.545	2573.1
733.731	2388.78
733.917	2554.67
734.103	2540.33
734.289	2437.94
734.475	2505.52
734.661	2482.99
734.847	2351.92
735.033	2511.66
735.219	2386.74
735.404	2556.72
735.59	2528.05
735.776	2476.85
735.962	2421.55
736.148	2523.95
736.333	2468.66
736.519	2364.21
736.705	2464.56
736.89	2415.41
737.076	2450.22
737.262	2437.94
737.447	2487.09
737.633	2382.64
737.819	2464.56
738.004	2384.69
738.19	2376.5
738.375	2298.67
738.561	2288.43
738.747	2302.77
738.932	2327.35
739.118	2380.59
739.303	2294.58
739.489	2394.93
739.674	2251.57
739.859	2351.92
740.045	2214.71
740.23	2417.46
740.416	2407.22
740.601	2384.69
740.786	2321.2
740.972	2282.29
741.157	2308.91
741.342	2380.59
741.528	2263.86
741.713	2251.57
741.898	2224.95
742.084	2313.01
742.269	2356.02
742.454	2306.87
742.639	2286.39
742.824	2300.72
743.01	2306.87
743.195	2310.96
743.38	2138.93
743.565	2349.87
743.75	2270
743.935	2190.13
744.12	2208.56
744.305	2290.48
744.49	2130.74
744.675	2214.71
744.86	2124.6
745.045	2206.52
745.23	2190.13
745.415	2026.29
745.6	2194.23
745.785	2114.36
745.97	2061.11
746.155	2132.79
746.34	2110.26
746.525	2048.82
746.71	2153.27
746.895	2067.25
747.079	2136.88
747.264	2081.59
747.449	2022.2
747.634	1971
747.819	1905.46
748.003	2028.34
748.188	1975.1
748.373	1925.94
748.557	2024.25
748.742	1936.18
748.927	2065.21
749.111	2014.01
749.296	1917.75
749.481	1768.25
749.665	1848.12
749.85	1917.75
750.034	1829.69
750.219	1858.36
750.404	1837.88
750.588	1889.08
750.773	1794.87
750.957	1815.35
751.141	1854.27
751.326	1764.15
751.51	1876.79
751.695	1766.2
751.879	1725.24
752.064	1897.27
752.248	1796.92
752.432	1710.91
752.617	1725.24
752.801	1596.22
752.985	1569.6
753.17	1639.23
753.354	1667.9
753.538	1801.02
753.722	1516.35
753.907	1571.65
754.091	1631.04
754.275	1596.22
754.459	1645.37
754.643	1504.06
754.828	1610.56
755.012	1602.36
755.196	1491.77
755.38	1381.18
755.564	1528.64
755.748	1364.8
755.932	1551.17
756.116	1530.69
756.3	1452.86
756.484	1430.34
756.668	1420.1
756.852	1403.71
757.036	1340.22
757.22	1436.48
757.404	1428.29
757.588	1422.14
757.772	1368.9
757.956	1332.03
758.14	1256.26
758.323	1344.32
758.507	1413.95
758.691	1352.51
758.875	1340.22
759.059	1397.57
759.242	1338.18
759.426	1233.73
759.61	1379.14
759.794	1336.13
759.977	1407.81
760.161	1268.55
760.345	1291.07
760.528	1311.55
760.712	1243.97
760.895	1358.66
761.079	1329.99
761.263	1147.72
761.446	1274.69
761.63	1168.2
761.813	1188.68
761.997	1200.96
762.18	1325.89
762.364	1229.63
762.547	1190.72
762.731	1209.15
762.914	1153.86
763.098	1157.96
763.281	1117
763.464	1147.72
763.648	1186.63
763.831	1155.91
764.015	1176.39
764.198	1151.81
764.381	1059.65
764.564	1110.85
764.748	1213.25
764.931	1123.14
765.114	1174.34
765.297	1182.53
765.481	1162.05
765.664	1090.37
765.847	1147.72
766.03	1160
766.213	996.17
766.397	1067.85
766.58	1063.75
766.763	1045.32
766.946	987.97
767.129	1119.04
767.312	1133.38
767.495	1000.26
767.678	1051.46
767.861	1063.75
768.044	983.88
768.227	1000.26
768.41	1026.89
768.593	1094.47
768.776	1106.76
768.959	979.78
769.142	1016.65
769.324	1041.22
769.507	1110.85
769.69	1020.74
769.873	1002.31
770.056	1061.7
770.239	987.97
770.421	975.69
770.604	922.44
770.787	953.16
770.97	967.49
771.152	965.45
771.335	955.21
771.518	944.97
771.7	979.78
771.883	936.78
772.066	873.29
772.248	979.78
772.431	916.3
772.613	938.82
772.796	922.44
772.978	910.15
773.161	910.15
773.343	865.1
773.526	848.71
773.708	877.38
773.891	834.38
774.073	844.62
774.256	826.18
774.438	881.48
774.621	830.28
774.803	844.62
774.985	867.14
775.168	904.01
775.35	842.57
775.532	877.38
775.715	777.03
775.897	764.75
776.079	717.64
776.261	795.47
776.444	805.71
776.626	783.18
776.808	822.09
776.99	807.75
777.173	711.5
777.355	787.27
777.537	717.64
777.719	785.23
777.901	760.65
778.083	807.75
778.265	709.45
778.447	699.21
778.629	668.49
778.811	725.83
778.993	715.59
779.175	764.75
779.357	697.16
779.539	617.29
779.721	697.16
779.903	701.26
780.085	715.59
780.267	648.01
780.449	680.78
780.631	713.55
780.812	656.2
780.994	701.26
781.176	703.31
781.358	615.24
781.54	609.1
781.721	656.2
781.903	627.53
782.085	670.54
782.267	633.68
782.448	574.28
782.63	600.91
782.812	605
782.993	635.72
783.175	641.87
783.357	648.01
783.538	652.11
783.72	643.92
783.901	527.18
784.083	549.71
784.264	504.65
784.446	605
784.627	537.42
784.809	570.19
784.99	537.42
785.172	549.71
785.353	574.28
785.535	615.24
785.716	527.18
785.897	559.95
786.079	535.37
786.26	469.84
786.441	475.98
786.623	424.78
786.804	469.84
786.985	475.98
787.167	428.88
787.348	455.5
787.529	498.51
787.71	430.93
787.891	420.69
788.073	492.37
788.254	492.37
788.435	437.07
788.616	514.89
788.797	498.51
788.978	465.74
789.159	494.41
789.34	482.13
789.522	435.02
789.703	459.6
789.884	373.58
790.065	480.08
790.246	430.93
790.427	455.5
790.607	471.89
790.788	494.41
790.969	357.2
791.15	512.85
791.331	428.88
791.512	475.98
791.693	377.68
791.874	383.82
792.054	379.73
792.235	445.26
792.416	365.39
792.597	365.39
792.778	375.63
792.958	377.68
793.139	414.54
793.32	426.83
793.5	303.95
793.681	377.68
793.862	383.82
794.042	449.36
794.223	301.9
794.404	336.72
794.584	340.82
794.765	330.58
794.945	349.01
795.126	424.78
795.306	324.43
795.487	385.87
795.667	377.68
795.848	326.48
796.028	334.67
796.209	381.78
796.389	346.96
796.57	316.24
796.75	361.3
796.93	357.2
797.111	256.85
797.291	285.52
797.471	299.86
797.652	349.01
797.832	293.71
798.012	283.47
798.192	308.05
798.373	328.53
798.553	310.1
798.733	359.25
798.913	222.03
799.093	262.99
799.274	279.38
799.454	297.81
799.634	260.95
799.814	344.91
799.994	334.67
800.174	412.5
800.354	316.24
800.534	357.2
800.714	226.13
800.894	291.66
801.074	260.95
801.254	258.9
801.434	277.33
801.614	301.9
801.794	258.9
801.974	598.86
802.154	224.08
802.334	318.29
802.514	179.03
802.693	326.48
802.873	260.95
803.053	250.71
803.233	314.19
803.413	195.41
803.592	146.26
803.772	222.03
803.952	205.65
804.131	252.75
804.311	265.04
804.491	283.47
804.67	179.03
804.85	242.51
805.03	262.99
805.209	308.05
805.389	226.13
805.568	238.42
805.748	166.74
805.928	238.42
806.107	195.41
806.287	191.31
806.466	244.56
806.646	269.14
806.825	119.64
807.004	269.14
807.184	244.56
807.363	254.8
807.543	185.17
807.722	199.51
807.901	228.18
808.081	246.61
808.26	140.12
808.439	193.36
808.619	217.94
808.798	136.02
808.977	236.37
809.156	211.79
809.336	160.59
809.515	252.75
809.694	133.97
809.873	213.84
810.052	201.55
810.231	273.23
810.411	211.79
810.59	285.52
810.769	185.17
810.948	262.99
811.127	193.36
811.306	232.27
811.485	199.51
811.664	281.43
811.843	144.21
812.022	158.55
812.201	162.64
812.38	160.59
812.559	183.12
812.737	162.64
812.916	160.59
813.095	193.36
813.274	123.73
813.453	187.22
813.632	258.9
813.811	224.08
813.989	119.64
814.168	172.88
814.347	189.27
814.526	189.27
814.704	127.83
814.883	213.84
815.062	187.22
815.24	201.55
815.419	123.73
815.598	172.88
815.776	9.05
815.955	95.06
816.133	97.11
816.312	172.88
816.49	162.64
816.669	201.55
816.847	267.09
817.026	148.31
817.204	111.44
817.383	158.55
817.561	201.55
817.74	170.83
817.918	131.92
818.097	191.31
818.275	148.31
818.453	97.11
818.632	121.68
818.81	136.02
818.988	131.92
819.167	123.73
819.345	146.26
819.523	136.02
819.701	105.3
819.879	152.4
820.058	105.3
820.236	125.78
820.414	140.12
820.592	138.07
820.77	123.73
820.948	172.88
821.127	117.59
821.305	133.97
821.483	-42.15
821.661	142.16
821.839	138.07
822.017	164.69
822.195	181.07
822.373	156.5
822.551	76.63
822.729	133.97
822.907	183.12
823.085	168.79
823.262	78.68
823.44	170.83
823.618	140.12
823.796	123.73
823.974	133.97
824.152	117.59
824.329	82.77
824.507	66.39
824.685	176.98
824.863	107.35
825.04	162.64
825.218	162.64
825.396	172.88
825.574	86.87
825.751	105.3
825.929	154.45
826.107	136.02
826.284	119.64
826.462	256.85
826.639	156.5
826.817	62.29
826.994	148.31
827.172	115.54
827.349	117.59
827.527	56.15
827.704	97.11
827.882	191.31
828.059	80.72
828.237	103.25
828.414	115.54
828.591	31.57
828.769	74.58
828.946	133.97
829.124	109.4
829.301	185.17
829.478	99.16
829.655	127.83
829.833	191.31
830.01	99.16
830.187	136.02
830.364	121.68
830.542	119.64
830.719	164.69
830.896	140.12
831.073	107.35
831.25	125.78
831.427	148.31
831.604	39.76
831.782	99.16
831.959	84.82
832.136	138.07
832.313	52.05
832.49	107.35
832.667	52.05
832.844	172.88
833.021	127.83
833.198	105.3
833.374	64.34
833.551	66.39
833.728	93.01
833.905	82.77
834.082	97.11
834.259	29.52
834.436	95.06
834.612	99.16
834.789	52.05
834.966	78.68
835.143	133.97
835.319	47.96
835.496	129.88
835.673	66.39
835.85	86.87
836.026	58.2
836.203	45.91
836.38	62.29
836.556	66.39
836.733	117.59
836.909	170.83
837.086	72.53
837.262	52.05
837.439	62.29
837.616	115.54
837.792	-15.53
837.968	60.24
838.145	21.33
838.321	62.29
838.498	131.92
838.674	52.05
838.851	41.81
839.027	54.1
839.203	164.69
839.38	72.53
839.556	125.78
839.732	78.68
839.909	74.58
840.085	86.87
840.261	62.29
840.437	117.59
840.614	4.95
840.79	144.21
840.966	58.2
841.142	88.92
841.318	119.64
841.494	82.77
841.671	21.33
841.847	148.31
842.023	33.62
842.199	72.53
842.375	119.64
842.551	68.44
842.727	23.38
842.903	-7.34
843.079	35.67
843.255	27.48
843.431	109.4
843.607	103.25
843.783	0.85
843.959	72.53
844.134	95.06
844.31	117.59
844.486	138.07
844.662	66.39
844.838	131.92
845.013	88.92
845.189	72.53
845.365	17.24
845.541	45.91
845.716	50
845.892	64.34
846.068	39.76
846.244	95.06
846.419	23.38
846.595	99.16
846.77	52.05
846.946	138.07
847.122	50
847.297	7
847.473	136.02
847.648	60.24
847.824	2.9
847.999	33.62
848.175	86.87
848.35	74.58
848.526	84.82
848.701	58.2
848.876	93.01
849.052	97.11
849.227	39.76
849.403	19.29
849.578	74.58
849.753	60.24
849.929	146.26
850.104	47.96
850.279	146.26
850.454	52.05
850.63	107.35
850.805	39.76
850.98	86.87
851.155	29.52
851.33	121.68
851.505	17.24
851.681	74.58
851.856	50
852.031	70.48
852.206	50
852.381	78.68
852.556	31.57
852.731	47.96
852.906	54.1
853.081	86.87
853.256	72.53
853.431	11.09
853.606	56.15
853.781	-1.19
853.956	9.05
854.131	66.39
854.305	23.38
854.48	136.02
854.655	66.39
854.83	58.2
855.005	23.38
855.18	123.73
855.354	-40.11
855.529	86.87
855.704	9.05
855.879	64.34
856.053	47.96
856.228	21.33
856.403	23.38
856.577	156.5
856.752	43.86
856.926	82.77
857.101	84.82
857.276	50
857.45	78.68
857.625	31.57
857.799	23.38
857.974	123.73
858.148	-31.91
858.323	45.91
858.497	60.24
858.672	58.2
858.846	15.19
859.02	88.92
859.195	25.43
859.369	66.39
859.543	54.1
859.718	7
859.892	107.35
860.066	23.38
860.241	2.9
860.415	21.33
860.589	82.77
860.763	90.96
860.938	-44.2
861.112	70.48
861.286	0.85
861.46	76.63
861.634	78.68
861.808	70.48
861.982	31.57
862.157	39.76
862.331	72.53
862.505	-15.53
862.679	-11.43
862.853	58.2
863.027	66.39
863.201	74.58
863.375	45.91
863.549	52.05
863.722	19.29
863.896	23.38
864.07	25.43
864.244	97.11
864.418	97.11
864.592	37.72
864.766	68.44
864.939	54.1
865.113	7
865.287	58.2
865.461	-3.24
865.634	-7.34
865.808	29.52
865.982	19.29
866.156	39.76
866.329	-33.96
866.503	76.63
866.676	27.48
866.85	60.24
867.024	50
867.197	0.85
867.371	82.77
867.544	25.43
867.718	29.52
867.891	19.29
868.065	-44.2
868.238	-19.63
868.412	41.81
868.585	27.48
868.759	21.33
868.932	19.29
869.105	84.82
869.279	-38.06
869.452	45.91
869.625	74.58
869.799	80.72
869.972	7
870.145	56.15
870.319	60.24
870.492	31.57
870.665	64.34
870.838	62.29
871.011	-109.74
871.185	74.58
871.358	13.14
871.531	11.09
871.704	45.91
871.877	70.48
872.05	35.67
872.223	31.57
872.396	2.9
872.569	33.62
872.742	17.24
872.915	35.67
873.088	13.14
873.261	58.2
873.434	41.81
873.607	52.05
873.78	54.1
873.953	17.24
874.126	19.29
874.299	-46.25
874.471	68.44
874.644	37.72
874.817	-42.15
874.99	78.68
875.163	56.15
875.335	41.81
875.508	-11.43
875.681	9.05
875.853	23.38
876.026	31.57
876.199	41.81
876.371	17.24
876.544	56.15
876.717	23.38
876.889	66.39
877.062	142.16
877.234	0.85
877.407	62.29
877.579	72.53
877.752	80.72
877.924	13.14
878.097	2.9
878.269	21.33
878.442	52.05
878.614	-31.91
878.786	7
878.959	-38.06
879.131	15.19
879.303	-3.24
879.476	74.58
879.648	-7.34
879.82	21.33
879.993	15.19
880.165	70.48
880.337	78.68
880.509	101.2
880.681	-74.92
880.854	50
881.026	60.24
881.198	31.57
881.37	58.2
881.542	70.48
881.714	33.62
881.886	19.29
882.058	-3.24
882.23	-11.43
882.402	50
882.574	-17.58
882.746	37.72
882.918	90.96
883.09	82.77
883.262	60.24
883.434	64.34
883.606	56.15
883.778	9.05
883.95	19.29
884.122	-40.11
884.293	72.53
884.465	25.43
884.637	50
884.809	-11.43
884.98	68.44
885.152	37.72
885.324	86.87
885.496	7
885.667	19.29
885.839	97.11
886.011	23.38
886.182	99.16
886.354	54.1
886.525	-33.96
886.697	7
886.869	-19.63
887.04	35.67
887.212	-19.63
887.383	142.16
887.555	39.76
887.726	-1.19
887.897	78.68
888.069	0.85
888.24	31.57
888.412	127.83
888.583	70.48
888.754	15.19
888.926	2.9
889.097	-36.01
889.268	37.72
889.44	4.95
889.611	-42.15
889.782	43.86
889.953	-21.67
890.125	76.63
890.296	-38.06
890.467	-19.63
890.638	9.05
890.809	62.29
890.98	70.48
891.151	9.05
891.323	-11.43
891.494	-38.06
891.665	-97.45
891.836	45.91
892.007	-31.91
892.178	-31.91
892.349	4.95
892.52	35.67
892.691	45.91
892.862	72.53
893.032	17.24
893.203	33.62
893.374	76.63
893.545	82.77
893.716	47.96
893.887	60.24
894.057	35.67
894.228	74.58
894.399	-31.91
894.57	9.05
894.74	-17.58
894.911	9.05
895.082	11.09
895.253	33.62
895.423	17.24
895.594	29.52
895.764	43.86
895.935	0.85
896.106	23.38
896.276	66.39
896.447	17.24
896.617	68.44
896.788	29.52
896.958	9.05
897.129	0.85
897.299	-19.63
897.47	64.34
897.64	-1.19
897.81	37.72
897.981	43.86
898.151	72.53
898.322	-23.72
898.492	-7.34
898.662	9.05
898.832	31.57
899.003	-3.24
899.173	17.24
899.343	-46.25
899.513	-3.24
