Data from USB4F104151__8__11-04-35-816.txt Node

Date: Wed Mar 12 11:04:35 EDT 2025
User: louis
Spectrometer: USB4F10415
Trigger mode: 4
Integration Time (sec): 2.000000E-2
Scans to average: 1
Electric dark correction enabled: true
Nonlinearity correction enabled: false
Boxcar width: 0
XAxis mode: Wavelengths
Number of Pixels in Spectrum: 3648
>>>>>Begin Spectral Data<<<<<
178.204	-76.63
178.424	-76.63
178.644	-76.63
178.864	-107.35
179.084	-66.39
179.304	-45.91
179.524	19.63
179.744	-4.95
179.964	21.67
180.184	-11.09
180.404	56.49
180.624	-31.57
180.844	-2.9
181.064	-33.62
181.283	40.11
181.503	-25.43
181.723	17.58
181.943	-37.72
182.163	23.72
182.383	1.19
182.602	-52.05
182.822	83.11
183.042	17.58
183.262	40.11
183.482	42.15
183.701	-17.24
183.921	-0.85
184.141	-29.52
184.361	54.44
184.58	19.63
184.8	3.24
185.02	7.34
185.239	58.54
185.459	21.67
185.679	29.87
185.898	-35.67
186.118	36.01
186.338	3.24
186.557	58.54
186.777	-21.33
186.997	3.24
187.216	-19.29
187.436	64.68
187.655	44.2
187.875	19.63
188.095	-27.48
188.314	68.78
188.534	-4.95
188.753	29.87
188.973	68.78
189.192	-27.48
189.412	62.63
189.631	85.16
189.851	13.48
190.07	72.87
190.29	-70.48
190.509	-0.85
190.729	-43.86
190.948	-7
191.168	117.93
191.387	60.59
191.607	-27.48
191.826	-15.19
192.045	-39.76
192.265	58.54
192.484	-7
192.704	17.58
192.923	3.24
193.142	54.44
193.362	13.48
193.581	62.63
193.8	33.96
194.02	23.72
194.239	-21.33
194.458	42.15
194.678	-11.09
194.897	54.44
195.116	-7
195.335	3.24
195.555	23.72
195.774	19.63
195.993	5.29
196.212	38.06
196.432	-23.38
196.651	-33.62
196.87	25.77
197.089	79.02
197.308	103.59
197.528	-25.43
197.747	-37.72
197.966	-0.85
198.185	31.91
198.404	48.3
198.623	29.87
198.842	-4.95
199.062	23.72
199.281	91.31
199.5	27.82
199.719	17.58
199.938	21.67
200.157	40.11
200.376	19.63
200.595	54.44
200.814	21.67
201.033	-35.67
201.252	-37.72
201.471	29.87
201.69	5.29
201.909	56.49
202.128	7.34
202.347	33.96
202.566	-43.86
202.785	-37.72
203.004	-31.57
203.223	132.26
203.442	-33.62
203.661	23.72
203.879	-23.38
204.098	97.45
204.317	25.77
204.536	23.72
204.755	-13.14
204.974	13.48
205.193	31.91
205.411	87.21
205.63	-0.85
205.849	-43.86
206.068	23.72
206.287	13.48
206.505	56.49
206.724	-35.67
206.943	-41.81
207.162	33.96
207.381	44.2
207.599	27.82
207.818	48.3
208.037	79.02
208.255	-33.62
208.474	-9.05
208.693	99.5
208.911	3.24
209.13	33.96
209.349	5.29
209.567	-7
209.786	46.25
210.005	3.24
210.223	56.49
210.442	-7
210.661	40.11
210.879	19.63
211.098	62.63
211.316	76.97
211.535	-11.09
211.753	-7
211.972	58.54
212.191	56.49
212.409	107.69
212.628	15.53
212.846	-52.05
213.065	-39.76
213.283	99.5
213.502	3.24
213.72	-9.05
213.938	13.48
214.157	1.19
214.375	5.29
214.594	-11.09
214.812	36.01
215.031	7.34
215.249	76.97
215.467	40.11
215.686	38.06
215.904	-9.05
216.122	-58.2
216.341	81.07
216.559	-60.24
216.778	81.07
216.996	46.25
217.214	19.63
217.432	-2.9
217.651	-58.2
217.869	9.39
218.087	54.44
218.306	-47.96
218.524	-15.19
218.742	-47.96
218.96	38.06
219.179	-25.43
219.397	27.82
219.615	27.82
219.833	87.21
220.051	-47.96
220.27	54.44
220.488	3.24
220.706	52.39
220.924	-15.19
221.142	25.77
221.36	-4.95
221.578	-2.9
221.796	40.11
222.015	58.54
222.233	23.72
222.451	76.97
222.669	23.72
222.887	-23.38
223.105	21.67
223.323	107.69
223.541	13.48
223.759	5.29
223.977	19.63
224.195	9.39
224.413	31.91
224.631	21.67
224.849	13.48
225.067	38.06
225.285	-27.48
225.503	23.72
225.721	-4.95
225.939	70.83
226.157	46.25
226.375	-13.14
226.592	-25.43
226.81	31.91
227.028	23.72
227.246	91.31
227.464	36.01
227.682	-7
227.9	9.39
228.117	36.01
228.335	36.01
228.553	48.3
228.771	11.43
228.989	36.01
229.206	105.64
229.424	-37.72
229.642	1.19
229.86	17.58
230.077	17.58
230.295	46.25
230.513	-70.48
230.731	11.43
230.948	3.24
231.166	3.24
231.384	1.19
231.601	54.44
231.819	85.16
232.037	-95.06
232.254	40.11
232.472	42.15
232.689	-35.67
232.907	101.55
233.125	-50
233.342	-23.38
233.56	40.11
233.777	70.83
233.995	-17.24
234.213	-29.52
234.43	40.11
234.648	11.43
234.865	-0.85
235.083	-0.85
235.3	-35.67
235.518	36.01
235.735	87.21
235.953	23.72
236.17	-4.95
236.388	5.29
236.605	46.25
236.822	-11.09
237.04	-0.85
237.257	33.96
237.475	-25.43
237.692	-111.44
237.909	3.24
238.127	17.58
238.344	42.15
238.562	99.5
238.779	7.34
238.996	44.2
239.214	74.92
239.431	56.49
239.648	-9.05
239.865	46.25
240.083	76.97
240.3	101.55
240.517	74.92
240.735	19.63
240.952	83.11
241.169	9.39
241.386	54.44
241.603	-37.72
241.821	-29.52
242.038	27.82
242.255	-39.76
242.472	11.43
242.689	7.34
242.907	17.58
243.124	5.29
243.341	15.53
243.558	52.39
243.775	54.44
243.992	15.53
244.209	15.53
244.426	38.06
244.643	-23.38
244.86	9.39
245.078	5.29
245.295	27.82
245.512	33.96
245.729	-25.43
245.946	54.44
246.163	-66.39
246.38	-9.05
246.597	-9.05
246.814	-2.9
247.031	11.43
247.248	-29.52
247.464	-21.33
247.681	21.67
247.898	-31.57
248.115	33.96
248.332	-15.19
248.549	19.63
248.766	113.83
248.983	74.92
249.2	-25.43
249.417	-0.85
249.633	13.48
249.85	11.43
250.067	17.58
250.284	31.91
250.501	-19.29
250.717	46.25
250.934	17.58
251.151	-27.48
251.368	-7
251.585	42.15
251.801	40.11
252.018	58.54
252.235	-60.24
252.451	-47.96
252.668	89.26
252.885	42.15
253.102	-9.05
253.318	62.63
253.535	3.24
253.752	64.68
253.968	40.11
254.185	5.29
254.401	15.53
254.618	74.92
254.835	11.43
255.051	93.35
255.268	-37.72
255.484	-13.14
255.701	21.67
255.917	25.77
256.134	-47.96
256.351	68.78
256.567	27.82
256.784	15.53
257	-78.68
257.217	44.2
257.433	68.78
257.65	81.07
257.866	-0.85
258.082	13.48
258.299	40.11
258.515	52.39
258.732	74.92
258.948	1.19
259.165	-9.05
259.381	-7
259.597	46.25
259.814	-37.72
260.03	27.82
260.246	15.53
260.463	72.87
260.679	126.12
260.895	-35.67
261.112	17.58
261.328	-7
261.544	-7
261.761	21.67
261.977	-31.57
262.193	11.43
262.409	-2.9
262.626	66.73
262.842	-15.19
263.058	5.29
263.274	3.24
263.49	-17.24
263.707	48.3
263.923	-31.57
264.139	-54.1
264.355	36.01
264.571	111.78
264.787	62.63
265.004	76.97
265.22	58.54
265.436	1.19
265.652	95.4
265.868	-25.43
266.084	3.24
266.3	31.91
266.516	-74.58
266.732	31.91
266.948	46.25
267.164	36.01
267.38	3.24
267.596	52.39
267.812	70.83
268.028	91.31
268.244	52.39
268.46	-17.24
268.676	-43.86
268.892	31.91
269.108	21.67
269.324	72.87
269.54	72.87
269.756	46.25
269.972	-45.91
270.188	44.2
270.403	-19.29
270.619	-2.9
270.835	46.25
271.051	79.02
271.267	-41.81
271.483	19.63
271.698	17.58
271.914	-21.33
272.13	21.67
272.346	15.53
272.562	11.43
272.777	-9.05
272.993	-11.09
273.209	-15.19
273.425	21.67
273.64	-54.1
273.856	-43.86
274.072	3.24
274.287	60.59
274.503	23.72
274.719	9.39
274.934	-15.19
275.15	11.43
275.366	-25.43
275.581	33.96
275.797	103.59
276.012	13.48
276.228	27.82
276.444	83.11
276.659	33.96
276.875	-56.15
277.09	5.29
277.306	-2.9
277.521	58.54
277.737	66.73
277.952	64.68
278.168	9.39
278.383	5.29
278.599	-17.24
278.814	105.64
279.03	36.01
279.245	21.67
279.461	-2.9
279.676	52.39
279.892	36.01
280.107	1.19
280.322	-31.57
280.538	95.4
280.753	-0.85
280.969	70.83
281.184	-7
281.399	93.35
281.615	76.97
281.83	60.59
282.045	-7
282.26	58.54
282.476	58.54
282.691	-0.85
282.906	3.24
283.122	-50
283.337	25.77
283.552	29.87
283.767	-35.67
283.983	-11.09
284.198	38.06
284.413	89.26
284.628	33.96
284.843	50.35
285.058	36.01
285.274	56.49
285.489	-0.85
285.704	17.58
285.919	25.77
286.134	1.19
286.349	70.83
286.564	-11.09
286.779	122.02
286.995	7.34
287.21	-7
287.425	38.06
287.64	-39.76
287.855	46.25
288.07	7.34
288.285	60.59
288.5	25.77
288.715	60.59
288.93	19.63
289.145	31.91
289.36	62.63
289.575	36.01
289.79	-35.67
290.004	17.58
290.219	29.87
290.434	25.77
290.649	-7
290.864	40.11
291.079	-9.05
291.294	38.06
291.509	9.39
291.724	36.01
291.938	70.83
292.153	38.06
292.368	1.19
292.583	42.15
292.798	93.35
293.012	15.53
293.227	21.67
293.442	-4.95
293.657	66.73
293.871	70.83
294.086	40.11
294.301	56.49
294.516	-4.95
294.73	52.39
294.945	-4.95
295.16	-25.43
295.374	33.96
295.589	19.63
295.804	-62.29
296.018	40.11
296.233	9.39
296.447	44.2
296.662	27.82
296.877	-13.14
297.091	126.12
297.306	52.39
297.52	-2.9
297.735	-17.24
297.949	81.07
298.164	15.53
298.378	3.24
298.593	-25.43
298.807	25.77
299.022	5.29
299.236	23.72
299.451	36.01
299.665	-62.29
299.88	42.15
300.094	-29.52
300.309	-31.57
300.523	58.54
300.737	-15.19
300.952	87.21
301.166	21.67
301.381	-15.19
301.595	19.63
301.809	-7
302.024	9.39
302.238	42.15
302.452	50.35
302.667	33.96
302.881	48.3
303.095	27.82
303.309	58.54
303.524	-54.1
303.738	11.43
303.952	40.11
304.166	68.78
304.381	42.15
304.595	68.78
304.809	-2.9
305.023	128.17
305.237	-78.68
305.452	60.59
305.666	-47.96
305.88	25.77
306.094	13.48
306.308	54.44
306.522	9.39
306.736	-47.96
306.95	103.59
307.164	19.63
307.379	-0.85
307.593	74.92
307.807	31.91
308.021	74.92
308.235	52.39
308.449	40.11
308.663	54.44
308.877	62.63
309.091	23.72
309.305	44.2
309.519	31.91
309.733	27.82
309.947	7.34
310.161	36.01
310.374	64.68
310.588	83.11
310.802	46.25
311.016	70.83
311.23	68.78
311.444	60.59
311.658	29.87
311.872	117.93
312.085	19.63
312.299	21.67
312.513	50.35
312.727	74.92
312.941	62.63
313.154	5.29
313.368	87.21
313.582	36.01
313.796	-7
314.009	15.53
314.223	29.87
314.437	5.29
314.651	13.48
314.864	66.73
315.078	19.63
315.292	74.92
315.505	52.39
315.719	-9.05
315.933	15.53
316.146	48.3
316.36	-56.15
316.573	-31.57
316.787	46.25
317.001	5.29
317.214	52.39
317.428	58.54
317.641	9.39
317.855	83.11
318.068	40.11
318.282	140.46
318.495	130.22
318.709	5.29
318.922	27.82
319.136	111.78
319.349	54.44
319.563	-37.72
319.776	17.58
319.99	-43.86
320.203	33.96
320.417	-7
320.63	79.02
320.843	64.68
321.057	56.49
321.27	62.63
321.483	38.06
321.697	25.77
321.91	60.59
322.124	13.48
322.337	60.59
322.55	31.91
322.763	9.39
322.977	40.11
323.19	21.67
323.403	38.06
323.617	38.06
323.83	27.82
324.043	17.58
324.256	29.87
324.469	15.53
324.683	83.11
324.896	66.73
325.109	5.29
325.322	105.64
325.535	42.15
325.748	17.58
325.962	66.73
326.175	5.29
326.388	11.43
326.601	103.59
326.814	72.87
327.027	99.5
327.24	58.54
327.453	-15.19
327.666	56.49
327.879	48.3
328.092	-13.14
328.305	19.63
328.518	27.82
328.731	42.15
328.944	60.59
329.157	48.3
329.37	52.39
329.583	119.98
329.796	1.19
330.009	25.77
330.222	48.3
330.435	44.2
330.648	15.53
330.861	38.06
331.073	3.24
331.286	-35.67
331.499	76.97
331.712	44.2
331.925	21.67
332.138	-25.43
332.35	-15.19
332.563	-11.09
332.776	74.92
332.989	40.11
333.202	46.25
333.414	68.78
333.627	81.07
333.84	38.06
334.053	42.15
334.265	23.72
334.478	1.19
334.691	-19.29
334.903	33.96
335.116	42.15
335.329	54.44
335.541	50.35
335.754	54.44
335.966	66.73
336.179	25.77
336.392	33.96
336.604	-11.09
336.817	97.45
337.029	91.31
337.242	27.82
337.454	56.49
337.667	79.02
337.88	36.01
338.092	9.39
338.305	54.44
338.517	40.11
338.729	64.68
338.942	13.48
339.154	66.73
339.367	-4.95
339.579	48.3
339.792	48.3
340.004	113.83
340.217	64.68
340.429	70.83
340.641	38.06
340.854	48.3
341.066	29.87
341.278	83.11
341.491	54.44
341.703	29.87
341.915	21.67
342.128	62.63
342.34	11.43
342.552	19.63
342.764	56.49
342.977	58.54
343.189	-35.67
343.401	52.39
343.613	29.87
343.826	5.29
344.038	9.39
344.25	27.82
344.462	-37.72
344.674	27.82
344.886	21.67
345.099	42.15
345.311	48.3
345.523	81.07
345.735	42.15
345.947	83.11
346.159	-11.09
346.371	42.15
346.583	160.94
346.795	70.83
347.007	-43.86
347.219	31.91
347.431	1.19
347.643	-0.85
347.855	70.83
348.067	-7
348.279	91.31
348.491	29.87
348.703	46.25
348.915	85.16
349.127	-4.95
349.339	70.83
349.551	17.58
349.763	27.82
349.975	70.83
350.187	27.82
350.399	-7
350.61	85.16
350.822	-7
351.034	29.87
351.246	58.54
351.458	87.21
351.669	42.15
351.881	31.91
352.093	-4.95
352.305	40.11
352.517	25.77
352.728	74.92
352.94	-17.24
353.152	56.49
353.363	46.25
353.575	101.55
353.787	46.25
353.999	7.34
354.21	29.87
354.422	-11.09
354.633	107.69
354.845	48.3
355.057	64.68
355.268	27.82
355.48	99.5
355.692	79.02
355.903	128.17
356.115	21.67
356.326	44.2
356.538	119.98
356.749	62.63
356.961	81.07
357.172	21.67
357.384	-15.19
357.595	56.49
357.807	-17.24
358.018	62.63
358.23	83.11
358.441	44.2
358.653	68.78
358.864	91.31
359.075	46.25
359.287	38.06
359.498	83.11
359.709	-4.95
359.921	25.77
360.132	52.39
360.344	21.67
360.555	87.21
360.766	115.88
360.977	36.01
361.189	74.92
361.4	54.44
361.611	31.91
361.823	81.07
362.034	56.49
362.245	-4.95
362.456	89.26
362.667	140.46
362.879	66.73
363.09	109.74
363.301	36.01
363.512	68.78
363.723	11.43
363.935	9.39
364.146	-7
364.357	5.29
364.568	56.49
364.779	9.39
364.99	9.39
365.201	-47.96
365.412	165.03
365.623	21.67
365.834	15.53
366.045	50.35
366.256	62.63
366.467	-4.95
366.678	76.97
366.889	-2.9
367.1	66.73
367.311	-4.95
367.522	9.39
367.733	54.44
367.944	101.55
368.155	5.29
368.366	-17.24
368.577	58.54
368.788	83.11
368.999	-43.86
369.209	19.63
369.42	79.02
369.631	85.16
369.842	62.63
370.053	95.4
370.264	89.26
370.474	15.53
370.685	50.35
370.896	46.25
371.107	38.06
371.317	48.3
371.528	68.78
371.739	109.74
371.95	-33.62
372.16	60.59
372.371	40.11
372.582	64.68
372.792	31.91
373.003	15.53
373.214	-7
373.424	48.3
373.635	103.59
373.846	48.3
374.056	74.92
374.267	42.15
374.477	74.92
374.688	11.43
374.898	40.11
375.109	52.39
375.319	66.73
375.53	72.87
375.74	-11.09
375.951	58.54
376.161	31.91
376.372	-0.85
376.582	38.06
376.793	38.06
377.003	52.39
377.214	1.19
377.424	56.49
377.635	56.49
377.845	11.43
378.055	83.11
378.266	56.49
378.476	5.29
378.686	29.87
378.897	40.11
379.107	52.39
379.317	58.54
379.528	83.11
379.738	46.25
379.948	19.63
380.158	74.92
380.369	-0.85
380.579	81.07
380.789	1.19
380.999	89.26
381.21	74.92
381.42	93.35
381.63	-19.29
381.84	109.74
382.05	15.53
382.261	64.68
382.471	25.77
382.681	11.43
382.891	81.07
383.101	46.25
383.311	-4.95
383.521	31.91
383.731	95.4
383.941	38.06
384.151	17.58
384.361	38.06
384.571	56.49
384.781	40.11
384.991	62.63
385.201	91.31
385.411	124.07
385.621	117.93
385.831	52.39
386.041	89.26
386.251	64.68
386.461	103.59
386.671	27.82
386.881	66.73
387.091	40.11
387.301	74.92
387.511	72.87
387.72	103.59
387.93	64.68
388.14	62.63
388.35	33.96
388.56	48.3
388.769	52.39
388.979	52.39
389.189	89.26
389.399	-45.91
389.609	27.82
389.818	70.83
390.028	62.63
390.238	-7
390.447	79.02
390.657	76.97
390.867	113.83
391.076	23.72
391.286	-23.38
391.496	85.16
391.705	103.59
391.915	-31.57
392.125	54.44
392.334	56.49
392.544	64.68
392.753	132.26
392.963	101.55
393.172	101.55
393.382	83.11
393.591	115.88
393.801	93.35
394.01	58.54
394.22	91.31
394.429	62.63
394.639	-0.85
394.848	68.78
395.058	99.5
395.267	87.21
395.477	13.48
395.686	95.4
395.895	70.83
396.105	113.83
396.314	103.59
396.524	91.31
396.733	109.74
396.942	119.98
397.152	93.35
397.361	99.5
397.57	74.92
397.78	128.17
397.989	117.93
398.198	119.98
398.407	52.39
398.617	58.54
398.826	162.98
399.035	107.69
399.244	99.5
399.453	60.59
399.663	156.84
399.872	113.83
400.081	144.55
400.29	124.07
400.499	48.3
400.708	152.74
400.917	185.51
401.127	95.4
401.336	122.02
401.545	214.18
401.754	136.36
401.963	173.22
402.172	156.84
402.381	93.35
402.59	38.06
402.799	132.26
403.008	140.46
403.217	185.51
403.426	144.55
403.635	201.9
403.844	111.78
404.053	146.6
404.262	203.94
404.471	185.51
404.68	169.13
404.888	160.94
405.097	158.89
405.306	130.22
405.515	158.89
405.724	228.52
405.933	230.57
406.142	165.03
406.35	240.81
406.559	171.18
406.768	171.18
406.977	144.55
407.185	183.46
407.394	191.66
407.603	162.98
407.812	234.66
408.02	226.47
408.229	275.62
408.438	249
408.646	259.24
408.855	298.15
409.064	285.86
409.272	277.67
409.481	343.21
409.69	335.01
409.898	273.57
410.107	373.92
410.315	335.01
410.524	298.15
410.733	392.36
410.941	392.36
411.15	490.66
411.358	437.41
411.567	500.9
411.775	449.7
411.984	441.51
412.192	527.52
412.401	554.15
412.609	527.52
412.818	531.62
413.026	437.41
413.234	474.28
413.443	554.15
413.651	601.25
413.86	627.87
414.068	674.98
414.276	695.46
414.485	717.98
414.693	726.18
414.901	715.94
415.11	787.61
415.318	760.99
415.526	789.66
415.734	867.49
415.943	853.15
416.151	965.79
416.359	1008.8
416.567	965.79
416.776	1035.42
416.984	1029.27
417.192	1160.34
417.4	1090.71
417.608	1113.24
417.817	1238.17
418.025	1229.98
418.233	1361.05
418.441	1250.46
418.649	1299.61
418.857	1408.15
419.065	1569.94
419.273	1469.59
419.481	1531.03
419.689	1561.75
419.897	1621.14
420.105	1688.72
420.313	1782.93
420.521	1813.65
420.729	1737.87
420.937	1905.81
421.145	1987.72
421.353	2090.12
421.561	2292.87
421.769	2231.43
421.977	2477.19
422.185	2296.97
422.393	2532.48
422.601	2534.53
422.809	2606.21
423.017	2612.35
423.224	2792.58
423.432	2837.63
423.64	2794.62
423.848	3112.06
424.056	2980.99
424.263	3314.81
424.471	3343.48
424.679	3441.78
424.887	3560.56
425.094	3607.67
425.302	3587.19
425.51	3714.16
425.718	3837.04
425.925	4052.08
426.133	4088.94
426.341	4195.43
426.548	4574.31
426.756	4445.29
426.964	4600.93
427.171	4867.17
427.379	4947.04
427.586	5186.65
427.794	5196.89
428.001	5493.85
428.209	5645.4
428.417	5567.57
428.624	5952.59
428.832	6222.92
429.039	6036.56
429.247	6054.99
429.454	6638.66
429.662	6990.91
429.869	6501.45
430.076	7275.58
430.284	6929.47
430.491	7130.17
430.699	7601.21
430.906	7478.33
431.114	7603.25
431.321	7932.98
431.528	8135.73
431.736	8631.33
431.943	8938.53
432.15	8617
432.358	8829.99
432.565	9528.35
432.772	9167.9
432.979	9735.19
433.187	9899.03
433.394	9958.42
433.601	10710.02
433.808	10671.11
434.016	10435.6
434.223	11371.52
434.43	11903.99
434.637	11533.31
434.844	12184.56
435.052	12405.74
435.259	12495.85
435.466	12686.31
435.673	12479.47
435.88	13159.39
436.087	14005.2
436.294	13841.37
436.501	13444.06
436.708	14062.55
436.915	14468.05
437.122	15156.16
437.329	15033.29
437.537	15631.29
437.743	15694.78
437.95	15690.68
438.157	16292.79
438.364	16976.81
438.571	16892.84
438.778	16948.14
438.985	18760.59
439.192	17847.19
439.399	18420.63
439.606	17806.23
439.813	19305.35
440.02	20253.56
440.227	19782.52
440.433	19628.93
440.64	20464.5
440.847	20247.41
441.054	20722.54
441.261	21773.15
441.467	21711.71
441.674	22496.08
441.881	22940.49
442.088	23137.1
442.294	22600.53
442.501	23563.08
442.708	24091.45
442.914	25017.13
443.121	26053.41
443.328	25363.24
443.534	26870.54
443.741	26305.31
443.948	26133.28
444.154	28117.76
444.361	27728.64
444.568	27982.59
444.774	27943.68
444.981	28513.02
445.187	29059.82
445.394	30272.22
445.6	29954.79
445.807	32834.23
446.013	31175.37
446.22	31802.05
446.426	32961.2
446.633	33489.58
446.839	34288.29
447.046	33372.85
447.252	34925.21
447.459	34900.63
447.665	34603.67
447.871	36383.36
448.078	37632.62
448.284	35791.5
448.491	36760.19
448.697	38277.73
448.903	38890.07
449.11	38845.02
449.316	38455.9
449.522	38761.05
449.728	40213.06
449.935	40075.85
450.141	40139.33
450.347	40884.79
450.553	39887.43
450.76	40391.23
450.966	41523.76
451.172	40858.17
451.378	41957.93
451.584	41456.18
451.791	42156.58
451.997	41988.65
452.203	42588.7
452.409	42482.21
452.615	42056.23
452.821	40737.34
453.027	40077.9
453.233	42050.09
453.44	40489.54
453.646	40991.29
453.852	40725.05
454.058	41574.96
454.264	40024.65
454.47	40827.45
454.676	40043.08
454.882	41204.28
455.088	37710.44
455.294	38541.92
455.5	38523.49
455.705	38740.57
455.911	37624.43
456.117	36881.02
456.323	35904.13
456.529	34198.18
456.735	35228.31
456.941	34306.72
457.147	34003.62
457.352	33086.13
457.558	32570.04
457.764	32422.59
457.97	31879.88
458.176	31140.56
458.381	31242.96
458.587	29676.26
458.793	29543.14
458.999	28250.88
459.204	29842.15
459.41	29264.62
459.616	27134.73
459.821	27214.6
460.027	27061.01
460.233	26559.25
460.438	25006.89
460.644	25674.53
460.85	24337.21
461.055	23898.94
461.261	23692.1
461.466	22190.94
461.672	21693.28
461.878	23190.34
462.083	21635.94
462.289	21212.01
462.494	20882.28
462.7	19942.27
462.905	19385.22
463.111	19981.18
463.316	20259.7
463.522	20056.95
463.727	20001.66
463.932	19972.99
464.138	19653.5
464.343	19907.45
464.549	18957.19
464.754	19643.26
464.959	19393.41
465.165	19727.23
465.37	18813.84
465.575	18318.23
465.781	18852.75
465.986	19010.44
466.191	18197.4
466.397	18051.99
466.602	16956.33
466.807	17796
467.012	17695.64
467.218	17609.63
467.423	17339.3
467.628	17558.43
467.833	18135.96
468.038	17595.29
468.244	17269.67
468.449	17990.55
468.654	16825.26
468.859	16952.23
469.064	16933.8
469.269	16528.3
469.474	16505.77
469.679	16792.49
469.885	16163.76
470.09	16372.66
470.295	16341.94
470.5	15705.02
470.705	15926.2
470.91	15559.61
471.115	15709.11
471.32	15721.4
471.525	15596.48
471.73	15227.84
471.935	15033.29
472.139	14566.35
472.344	14943.17
472.549	14664.65
472.754	14595.02
472.959	14126.04
473.164	13904.85
473.369	13923.29
473.574	14336.98
473.778	14013.4
473.983	13994.97
474.188	13845.46
474.393	13423.58
474.598	13292.51
474.802	13376.48
475.007	13104.1
475.212	13087.71
475.417	12559.34
475.621	12469.23
475.826	12782.57
476.031	12428.27
476.235	12157.94
476.44	12485.61
476.645	12268.53
476.849	12139.51
477.054	11883.51
477.259	11992.05
477.463	11996.15
477.668	11457.53
477.872	11742.2
478.077	11676.66
478.282	11033.6
478.486	11150.34
478.691	11031.55
478.895	11297.79
479.1	10871.81
479.304	10773.51
479.509	10634.25
479.713	10785.8
479.918	10763.27
480.122	10458.12
480.326	10744.84
480.531	10626.06
480.735	10613.77
480.94	10400.78
481.144	10775.56
481.348	10357.77
481.553	10529.8
481.757	10210.32
481.961	10355.72
482.166	10392.59
482.37	10095.63
482.574	10322.96
482.778	10200.08
482.983	10492.94
483.187	10167.31
483.391	10617.86
483.595	10304.53
483.8	10013.71
484.004	10294.29
484.208	10322.96
484.412	10173.46
484.616	10212.37
484.821	10312.72
485.025	9884.69
485.229	10357.77
485.433	10206.22
485.637	10349.58
485.841	10171.41
486.045	10114.06
486.249	10128.4
486.453	10200.08
486.657	10073.1
486.861	10093.58
487.065	10034.19
487.269	10234.89
487.473	10073.1
487.677	10169.36
487.881	10298.38
488.085	10259.47
488.289	10474.51
488.493	10310.67
488.697	10394.64
488.901	10425.36
489.105	10273.81
489.309	10142.74
489.512	10144.78
489.716	10322.96
489.92	10388.49
490.124	10210.32
490.328	10597.38
490.531	10429.45
490.735	10378.25
490.939	10619.91
491.143	10437.64
491.346	10451.98
491.55	10472.46
491.754	10636.3
491.958	10589.19
492.161	10765.32
492.365	10873.86
492.569	10722.31
492.772	11002.88
492.976	10832.9
493.18	11009.03
493.383	10957.83
493.587	11146.24
493.79	11238.4
493.994	11172.86
494.197	11248.64
494.401	11508.73
494.605	11396.09
494.808	11641.85
495.012	11432.96
495.215	11600.89
495.419	11557.88
495.622	11688.95
495.825	11811.83
496.029	11779.06
496.232	12071.92
496.436	12151.79
496.639	12491.76
496.843	12389.36
497.046	12598.25
497.249	12811.24
497.453	12643.31
497.656	13003.75
497.859	13003.75
498.063	13274.08
498.266	13507.55
498.469	13452.25
498.673	13503.45
498.876	13646.81
499.079	13947.86
499.282	13845.46
499.485	14017.49
499.689	14216.15
499.892	14427.09
500.095	14412.75
500.298	14840.78
500.501	14781.39
500.705	14975.94
500.908	15375.3
501.111	15147.97
501.314	15330.24
501.517	15487.93
501.72	15692.73
501.923	15705.02
502.126	16450.48
502.329	16589.74
502.532	16573.36
502.735	16532.4
502.938	16935.85
503.141	16956.33
503.344	17572.77
503.547	17394.59
503.75	17734.56
503.953	17957.78
504.156	17976.22
504.359	18256.79
504.562	17951.64
504.765	18666.38
504.968	18879.37
505.17	19026.82
505.373	19075.98
505.576	19577.73
505.779	19727.23
505.982	19567.49
506.185	20251.51
506.387	20028.28
506.59	20329.33
506.793	20777.84
506.996	20609.9
507.198	21291.88
507.401	21508.96
507.604	21496.67
507.807	22078.3
508.009	21617.5
508.212	22035.29
508.415	22477.65
508.617	23006.03
508.82	22821.71
509.022	22911.82
509.225	23337.8
509.428	23540.55
509.63	23808.83
509.833	23849.79
510.035	24533.81
510.238	24353.59
510.44	24314.68
510.643	25010.99
510.845	25111.34
511.048	25049.9
511.25	25559.84
511.453	25869.09
511.655	26737.43
511.858	26370.84
512.06	26854.16
512.262	26938.13
512.465	26929.94
512.667	27534.09
512.87	27693.83
513.072	27460.36
513.274	28246.78
513.477	28484.34
513.679	28975.86
513.881	29018.86
514.084	29506.28
514.286	29319.92
514.488	29178.61
514.69	30468.83
514.893	30534.36
515.095	30718.68
515.297	30978.77
515.499	31003.35
515.701	31183.57
515.904	31879.88
516.106	31992.51
516.308	32211.65
516.51	32916.15
516.712	32613.05
516.914	33315.5
517.116	33708.71
517.318	33788.58
517.52	33940.13
517.722	34241.18
517.925	34951.83
518.127	34790.04
518.329	35607.18
518.531	34849.43
518.733	35713.67
518.935	36092.55
519.136	36391.55
519.338	36960.89
519.54	36659.84
519.742	37231.22
519.944	37386.86
520.146	38173.28
520.348	37841.51
520.55	38441.57
520.752	38359.65
520.954	39012.95
521.155	39395.92
521.357	39535.18
521.559	39660.11
521.761	40550.98
521.963	40125
522.164	40452.67
522.366	40827.45
522.568	40976.95
522.77	41480.75
522.971	42060.33
523.173	41966.12
523.375	42119.72
523.576	42469.92
523.778	42594.85
523.98	43020.83
524.181	42826.27
524.383	43481.62
524.584	43663.89
524.786	43592.21
524.988	43538.96
525.189	43835.92
525.391	44415.49
525.592	44665.35
525.794	44562.95
525.995	45167.1
526.197	45195.77
526.398	45224.44
526.6	45828.59
526.801	45478.39
527.003	45984.24
527.204	46012.91
527.406	46191.08
527.607	46414.31
527.808	46545.38
528.01	46098.92
528.211	46520.8
528.412	47088.09
528.614	47299.03
528.815	47057.37
529.016	47856.08
529.218	46819.81
529.419	47360.47
529.62	47696.34
529.822	47636.95
530.023	47917.52
530.224	48105.93
530.425	48077.26
530.626	47673.81
530.828	47086.04
531.029	48474.57
531.23	47950.29
531.431	48404.94
531.632	48427.46
531.833	48445.9
532.035	48716.23
532.236	48595.4
532.437	48609.73
532.638	48280.01
532.839	48531.91
533.04	49162.68
533.241	48454.09
533.442	49195.45
533.643	48964.03
533.844	48794.05
534.045	49242.56
534.246	48374.22
534.447	49463.74
534.648	48910.78
534.849	49158.59
535.05	48900.54
535.251	49031.61
535.451	49144.25
535.652	49240.51
535.853	48949.7
536.054	49281.47
536.255	49187.26
536.456	48865.73
536.657	49496.5
536.857	49000.89
537.058	48992.7
537.259	49160.64
537.46	49471.93
537.66	49129.92
537.861	49172.92
538.062	48978.37
538.263	49494.46
538.463	49166.78
538.664	49166.78
538.865	49488.31
539.065	49211.84
539.266	49191.36
539.466	49443.26
539.667	48341.45
539.868	49414.58
540.068	49086.91
540.269	49033.66
540.469	49267.13
540.67	49002.94
540.87	49140.16
541.071	48986.56
541.271	48855.49
541.472	48662.98
541.672	48998.85
541.873	49191.36
542.073	48546.25
542.274	49260.99
542.474	48665.03
542.675	48427.46
542.875	49154.49
543.075	48898.5
543.276	48576.97
543.476	49516.98
543.676	48484.81
543.877	48802.24
544.077	49215.93
544.277	48753.09
544.478	48677.32
544.678	48779.71
544.878	48683.46
545.078	48953.79
545.279	48255.43
545.479	48685.51
545.679	49082.81
545.879	48634.31
546.079	48576.97
546.28	48329.16
546.48	48605.64
546.68	48892.35
546.88	48867.78
547.08	48935.36
547.28	48622.02
547.48	47925.71
547.68	48384.46
547.88	48435.66
548.081	48413.13
548.281	48658.88
548.481	48378.31
548.681	48839.11
548.881	48275.91
549.081	48658.88
549.28	48288.2
549.48	48486.85
549.68	48216.52
549.88	49093.05
550.08	48275.91
550.28	48445.9
550.48	48437.7
550.68	48722.37
550.88	48153.04
551.08	48542.15
551.279	48216.52
551.479	47833.55
551.679	48077.26
551.879	47942.1
552.079	48222.67
552.278	47684.05
552.478	48261.58
552.678	48398.79
552.878	47929.81
553.077	47698.39
553.277	47595.99
553.477	48376.26
553.676	47530.45
553.876	48095.69
554.076	47823.31
554.275	47550.93
554.475	47061.47
554.674	47786.45
554.874	47618.52
555.074	47595.99
555.273	47679.96
555.473	48220.62
555.672	47288.79
555.872	47360.47
556.071	47364.57
556.271	47401.43
556.47	46866.91
556.67	46438.89
556.869	46973.41
557.068	47684.05
557.268	46709.22
557.467	46907.87
557.667	46707.17
557.866	46948.83
558.065	47012.32
558.265	46359.02
558.464	46402.02
558.663	47036.89
558.863	46498.28
559.062	46973.41
559.261	46019.05
559.461	46975.45
559.66	45969.9
559.859	46186.99
560.058	46086.64
560.258	46105.07
560.457	45597.17
560.656	46041.58
560.855	45781.49
561.054	45685.23
561.253	45742.58
561.453	45484.53
561.652	45709.81
561.851	46219.75
562.05	45343.22
562.249	45283.83
562.448	45595.12
562.647	45459.96
562.846	45181.43
563.045	45038.08
563.244	44638.72
563.443	45447.67
563.642	43948.56
563.841	44673.54
564.04	44356.1
564.239	44958.2
564.438	44325.38
564.637	44276.23
564.836	44614.15
565.035	44362.25
565.234	44083.72
565.432	43846.16
565.631	43446.8
565.83	43506.19
566.029	43524.63
566.228	43344.41
566.427	43614.74
566.625	43168.28
566.824	43029.02
567.023	43659.79
567.222	42506.79
567.42	43467.28
567.619	43590.16
567.818	43043.35
568.016	42707.49
568.215	42781.21
568.414	42435.11
568.612	42902.04
568.811	41947.69
569.01	42414.63
569.208	41603.63
569.407	42109.48
569.605	41515.57
569.804	42297.89
570.002	41417.27
570.201	41787.95
570.4	41714.22
570.598	41065.02
570.797	40927.8
570.995	41421.36
571.193	40720.96
571.392	41402.93
571.59	40688.19
571.789	41263.67
571.987	40481.34
572.186	40753.72
572.384	40536.64
572.582	40596.03
572.781	40696.38
572.979	39490.13
573.177	39942.73
573.376	40020.55
573.574	39772.75
573.772	40120.9
573.971	39166.55
574.169	39467.6
574.367	39072.34
574.565	39582.29
574.763	39320.15
574.962	39340.63
575.16	38795.87
575.358	38998.62
575.556	38634.08
575.754	38539.87
575.952	38337.12
576.151	38474.34
576.349	37804.65
576.547	38255.2
576.745	37915.24
576.943	38304.35
577.141	37624.43
577.339	37784.17
577.537	38074.98
577.735	37616.24
577.933	37151.35
578.131	37677.68
578.329	37231.22
578.527	36964.98
578.725	37274.23
578.923	37094
579.121	36696.7
579.319	36960.89
579.516	36729.47
579.714	36612.73
579.912	36608.64
580.11	36731.51
580.308	36553.34
580.506	36184.71
580.704	35764.87
580.901	36403.84
581.099	36166.27
581.297	35656.33
581.495	35560.08
581.692	35764.87
581.89	35347.09
582.088	35902.09
582.285	35386
582.483	35543.69
582.681	35371.66
582.878	34511.52
583.076	34923.16
583.274	35404.43
583.471	34368.16
583.669	34648.73
583.866	34720.41
584.064	34597.53
584.262	34273.95
584.459	34304.67
584.657	34341.53
584.854	34532
585.052	33684.14
585.249	34349.73
585.447	34028.2
585.644	33688.23
585.841	33723.05
586.039	33997.48
586.236	33196.72
586.434	33352.37
586.631	33497.77
586.828	33059.51
587.026	33602.22
587.223	33131.19
587.42	32844.47
587.618	32991.92
587.815	32426.68
588.012	32451.26
588.21	32385.72
588.407	32799.41
588.604	32455.36
588.801	32189.12
588.999	32289.47
589.196	31912.64
589.393	32191.17
589.59	31660.74
589.787	31597.26
589.984	31926.98
590.182	31218.38
590.379	31615.69
590.576	31210.19
590.773	32000.71
590.97	31103.7
591.167	31232.72
591.364	30847.7
591.561	31326.92
591.758	30724.82
591.955	30884.56
592.152	30814.93
592.349	30462.68
592.546	30733.01
592.743	30532.31
592.94	30120.67
593.137	30370.52
593.334	30436.06
593.531	29907.68
593.727	30192.35
593.924	30202.59
594.121	29850.34
594.318	29833.96
594.515	29557.48
594.712	29586.15
594.908	29407.98
595.105	29426.41
595.302	29184.75
595.499	29403.88
595.696	29139.69
595.892	28711.67
596.089	29139.69
596.286	29043.44
596.482	28596.98
596.679	28840.69
596.876	28668.66
597.072	28336.89
597.269	28742.39
597.466	28185.34
597.662	28015.36
597.859	28375.8
598.055	28304.12
598.252	27847.43
598.448	28046.08
598.645	27732.74
598.841	27736.84
599.038	27605.77
599.234	27626.25
599.431	27472.65
599.627	27169.55
599.824	27360.01
600.02	27411.21
600.217	27196.17
600.413	27104.01
600.609	26968.85
600.806	27081.49
601.002	26884.88
601.198	26600.21
601.395	26575.64
601.591	26458.9
601.787	26473.24
601.984	26170.14
602.18	26606.36
602.376	25914.14
602.572	26098.46
602.769	26250.01
602.965	25860.9
603.161	25910.05
603.357	25805.6
603.553	25946.91
603.75	25791.27
603.946	25379.62
604.142	25606.95
604.338	25008.94
604.534	25563.94
604.73	25314.09
604.926	25213.74
605.122	25258.79
605.318	25154.35
605.514	24904.49
605.71	24859.44
605.906	24914.73
606.102	24886.06
606.298	24711.99
606.494	24795.95
606.69	24738.61
606.886	24433.46
607.082	24044.35
607.278	24560.44
607.474	24034.11
607.67	24587.06
607.866	24216.38
608.062	24240.95
608.257	24052.54
608.453	24044.35
608.649	24171.32
608.845	24015.68
609.041	23927.61
609.236	23876.41
609.432	23620.42
609.628	23790.4
609.824	23663.43
610.019	23542.6
610.215	23427.91
610.411	23620.42
610.606	23495.49
610.802	23284.55
610.998	23354.18
611.193	23245.64
611.389	22999.88
611.584	23157.58
611.78	22969.16
611.976	22934.35
612.171	22965.07
612.367	22881.1
612.562	22913.87
612.758	22352.73
612.953	22631.25
613.149	22981.45
613.344	22442.84
613.539	22684.5
613.735	22563.67
613.93	22729.55
614.126	22502.23
614.321	23020.36
614.517	22387.54
614.712	22131.54
614.907	22242.14
615.103	22565.71
615.298	22135.64
615.493	22307.67
615.688	21961.56
615.884	22272.85
616.079	21728.1
616.274	22174.55
616.47	22098.78
616.665	22149.98
616.86	21953.37
617.055	21805.92
617.25	21787.49
617.445	21898.08
617.641	21347.17
617.836	21629.79
618.031	21412.71
618.226	21676.9
618.421	21310.31
618.616	21498.72
618.811	21238.63
619.006	21351.27
619.201	20710.25
619.396	21228.39
619.591	20444.02
619.786	20843.37
619.981	20712.3
620.176	20826.99
620.371	20745.07
620.566	20398.96
620.761	20425.59
620.956	20413.3
621.151	20159.35
621.346	20310.9
621.541	19966.84
621.735	20222.84
621.93	19833.72
622.125	19884.92
622.32	19698.56
622.515	19782.52
622.709	19432.32
622.904	19641.21
623.099	19401.6
623.294	19270.53
623.488	18807.69
623.683	19061.64
623.878	18713.49
624.072	18885.51
624.267	18457.49
624.462	18647.95
624.656	18355.09
624.851	18277.27
625.046	18219.92
625.24	18174.87
625.435	17843.1
625.629	18039.7
625.824	17877.91
626.018	17800.09
626.213	17542.05
626.407	17636.25
626.602	17587.1
626.796	17503.14
626.991	17365.92
627.185	17263.52
627.38	17241
627.574	17001.38
627.768	16876.46
627.963	16921.51
628.157	16817.07
628.352	16612.27
628.546	16436.14
628.74	16817.07
628.935	16323.51
629.129	16503.73
629.323	15975.35
629.517	16260.02
629.712	15993.78
629.906	16235.44
630.1	15893.43
630.294	15881.14
630.489	15825.85
630.683	16026.55
630.877	15639.48
631.071	15530.94
631.265	15504.32
631.459	15365.06
631.653	15334.34
631.848	15094.72
632.042	15156.16
632.236	14947.27
632.43	14955.46
632.624	14945.22
632.818	14529.48
633.012	14914.5
633.206	14646.22
633.4	14787.53
633.594	14515.15
633.788	14648.27
633.982	14388.18
634.176	14590.92
634.369	14144.47
634.563	14054.36
634.757	14029.78
634.951	14089.17
635.145	14187.47
635.339	14023.64
635.533	13763.54
635.726	13927.38
635.92	13333.47
636.114	13763.54
636.308	13360.09
636.501	13517.79
636.695	13464.54
636.889	13067.24
637.083	13175.78
637.276	13229.02
637.47	12932.07
637.664	12966.88
637.857	13026.28
638.051	12977.12
638.244	12768.23
638.438	12825.57
638.632	12657.64
638.825	12452.84
639.019	12733.42
639.212	12387.31
639.406	12282.86
639.599	12200.94
639.793	12237.81
639.986	12119.03
640.18	12383.21
640.373	11799.54
640.567	11981.81
640.76	11740.15
640.954	11877.37
641.147	11789.3
641.34	11760.63
641.534	11641.85
641.727	11586.55
641.92	11600.89
642.114	11215.87
642.307	11387.9
642.5	11256.83
642.694	11226.11
642.887	11099.14
643.08	11189.25
643.273	10884.1
643.467	11002.88
643.66	10916.87
643.853	10818.57
644.046	10861.57
644.239	10906.63
644.432	10605.58
644.626	10761.22
644.819	10652.68
645.012	10546.19
645.205	10365.96
645.398	10589.19
645.591	10226.7
645.784	10423.31
645.977	10073.1
646.17	10327.05
646.363	10300.43
646.556	10202.13
646.749	9753.62
646.942	10036.24
647.135	9835.54
647.328	9776.15
647.521	9856.02
647.714	9589.78
647.907	9720.85
648.099	9753.62
648.292	9632.79
648.485	9718.81
648.678	9354.27
648.871	9452.57
649.064	9423.9
649.256	9438.23
649.449	9557.02
649.642	9350.17
649.835	9126.94
650.027	9321.5
650.22	9229.34
650.413	9124.9
650.605	9118.75
650.798	8993.83
650.991	8891.43
651.183	8858.66
651.376	8754.21
651.568	8768.55
651.761	8817.7
651.954	8707.11
652.146	8576.04
652.339	8737.83
652.531	8549.42
652.724	8432.68
652.916	8315.95
653.109	8424.49
653.301	8365.1
653.494	8334.38
653.686	8258.6
653.879	8197.17
654.071	8178.73
654.263	8135.73
654.456	8244.27
654.648	8203.31
654.84	7941.17
655.033	8035.38
655.225	7984.18
655.417	7838.77
655.61	7883.83
655.802	7941.17
655.994	7834.68
656.186	7814.2
656.379	7793.72
656.571	7640.12
656.763	7478.33
656.955	7459.9
657.148	7504.95
657.34	7707.7
657.532	7349.31
657.724	7396.41
657.916	7431.23
658.108	7298.11
658.3	7150.65
658.492	7076.93
658.684	7263.29
658.876	7255.1
659.068	7117.89
659.26	7185.47
659.452	7064.64
659.644	7115.84
659.836	6997.06
660.028	7025.73
660.22	6929.47
660.412	6968.38
660.604	6999.1
660.796	6794.31
660.988	6847.55
661.18	6755.4
661.372	6833.22
661.563	6622.28
661.755	6743.11
661.947	6716.48
662.139	6540.36
662.331	6693.96
662.522	6405.19
662.714	6409.29
662.906	6472.78
663.097	6700.1
663.289	6335.56
663.481	6411.34
663.673	6337.61
663.864	6181.96
664.056	6259.79
664.247	6229.07
664.439	6149.2
664.631	6198.35
664.822	6237.26
665.014	6106.19
665.205	6112.33
665.397	6057.04
665.588	6020.17
665.78	6022.22
665.971	5874.77
666.163	5866.58
666.354	5876.82
666.546	5940.3
666.737	5938.26
666.929	5852.24
667.12	5618.77
667.311	5704.79
667.503	5659.73
667.694	5639.25
667.885	5753.94
668.077	5641.3
668.268	5665.88
668.459	5661.78
668.651	5624.92
668.842	5721.17
669.033	5303.39
669.224	5420.12
669.416	5545.05
669.607	5397.59
669.798	5346.39
669.989	5512.28
670.18	5338.2
670.371	5332.06
670.563	5223.51
670.754	5389.4
670.945	5209.18
671.136	5293.15
671.327	5325.91
671.518	5332.06
671.709	5213.28
671.9	5303.39
672.091	5143.64
672.282	5141.6
672.473	5121.12
672.664	5184.6
672.855	5131.36
673.046	5186.65
673.237	5049.44
673.428	5102.68
673.619	4992.09
673.809	5014.62
674	5061.73
674.191	5004.38
674.382	4942.94
674.573	4891.74
674.764	4901.98
674.954	4959.33
675.145	4985.95
675.336	4795.49
675.527	4834.4
675.717	4834.4
675.908	4842.59
676.099	4809.83
676.289	4742.24
676.48	4777.06
676.671	4682.85
676.861	4639.84
677.052	4582.5
677.243	4654.18
677.433	4689
677.624	4664.42
677.814	4590.69
678.005	4680.8
678.195	4605.03
678.386	4551.78
678.576	4551.78
678.767	4660.32
678.957	4568.16
679.148	4574.31
679.338	4576.36
679.529	4422.76
679.719	4424.81
679.909	4514.92
680.1	4361.32
680.29	4445.29
680.481	4449.38
680.671	4404.33
680.861	4420.71
681.052	4523.11
681.242	4324.46
681.432	4482.15
681.622	4476.01
681.813	4400.23
682.003	4443.24
682.193	4228.2
682.383	4406.38
682.573	4476.01
682.764	4265.07
682.954	4254.83
683.144	4244.59
683.334	4265.07
683.524	4324.46
683.714	4293.74
683.904	4164.72
684.094	4226.15
684.284	4168.81
684.474	4324.46
684.664	4125.8
684.854	4086.89
685.044	4142.19
685.234	4179.05
685.424	4109.42
685.614	4168.81
685.804	4113.52
685.994	4156.52
686.184	4070.51
686.374	4119.66
686.564	3998.83
686.753	4074.6
686.943	4148.33
687.133	4144.24
687.323	4000.88
687.513	3961.97
687.702	3916.91
687.892	3832.94
688.082	3914.86
688.272	3964.01
688.461	4088.94
688.651	3783.79
688.841	3865.71
689.03	3777.65
689.22	3878
689.41	3742.83
689.599	3863.66
689.789	3822.7
689.979	3765.36
690.168	3738.74
690.358	3806.32
690.547	3767.41
690.737	3777.65
690.926	3697.78
691.116	3673.2
691.305	3779.7
691.495	3701.87
691.684	3540.08
691.874	3648.63
692.063	3601.52
692.252	3763.31
692.442	3665.01
692.631	3507.32
692.82	3593.33
693.01	3564.66
693.199	3619.96
693.388	3419.25
693.578	3544.18
693.767	3560.56
693.956	3462.26
694.146	3466.36
694.335	3527.8
694.524	3480.69
694.713	3447.93
694.902	3525.75
695.092	3452.02
695.281	3406.97
695.47	3372.15
695.659	3474.55
695.848	3501.17
696.037	3378.3
696.226	3378.3
696.415	3361.91
696.604	3378.3
696.793	3343.48
696.982	3492.98
697.171	3452.02
697.36	3294.33
697.549	3257.46
697.738	3308.66
697.927	3406.97
698.116	3282.04
698.305	3333.24
698.494	3193.98
698.683	3339.38
698.872	3263.61
699.061	3198.07
699.25	3243.13
699.438	3241.08
699.627	3216.51
699.816	3363.96
700.005	3261.56
700.193	3312.76
700.382	3230.84
700.571	3251.32
700.76	3253.37
700.948	3366.01
701.137	3200.12
701.326	3241.08
701.514	3409.01
701.703	3155.07
701.892	3353.72
702.08	3400.82
702.269	3173.5
702.457	3265.66
702.646	3267.7
702.834	3216.51
703.023	3251.32
703.212	3331.19
703.4	3347.58
703.589	3144.83
703.777	3196.03
703.965	3271.8
704.154	3155.07
704.342	3144.83
704.531	3241.08
704.719	3232.89
704.907	3249.27
705.096	3234.94
705.284	3232.89
705.472	3265.66
705.661	3132.54
705.849	3150.97
706.037	3259.51
706.226	3120.25
706.414	3261.56
706.602	3161.21
706.79	3345.53
706.979	3095.68
707.167	3175.55
707.355	3169.4
707.543	3202.17
707.731	3230.84
707.919	3222.65
708.107	3193.98
708.296	3167.35
708.484	3085.44
708.672	3150.97
708.86	3179.64
709.048	3249.27
709.236	3097.72
709.424	3253.37
709.612	3179.64
709.8	3134.59
709.988	3136.63
710.176	3126.39
710.364	3153.02
710.551	3198.07
710.739	3103.87
710.927	3112.06
711.115	3142.78
711.303	3218.55
711.491	3071.1
711.679	3007.61
711.866	3085.44
712.054	3085.44
712.242	3163.26
712.43	3101.82
712.617	3073.15
712.805	3099.77
712.993	3091.58
713.181	2972.8
713.368	3153.02
713.556	3062.91
713.744	3017.85
713.931	3116.16
714.119	3032.19
714.306	3138.68
714.494	3050.62
714.682	3097.72
714.869	3015.8
715.057	3122.3
715.244	3021.95
715.432	3110.01
715.619	3093.63
715.807	3077.24
715.994	3003.52
716.182	3011.71
716.369	2978.94
716.556	3079.29
716.744	2976.89
716.931	2997.37
717.119	3052.67
717.306	3083.39
717.493	3069.05
717.681	3099.77
717.868	3030.14
718.055	2993.28
718.242	3019.9
718.43	3038.33
718.617	3036.28
718.804	2931.84
718.991	3009.66
719.179	2929.79
719.366	3054.72
719.553	2980.99
719.74	2942.08
719.927	2919.55
720.114	2985.09
720.301	2929.79
720.488	2888.83
720.676	2897.02
720.863	2976.89
721.05	2917.5
721.237	2964.61
721.424	2833.54
721.611	2888.83
721.798	2841.73
721.985	2880.64
722.172	3001.47
722.358	2921.6
722.545	2829.44
722.732	2813.06
722.919	2917.5
723.106	3036.28
723.293	2823.3
723.48	3026.04
723.667	2753.66
723.853	2792.58
724.04	2915.45
724.227	2839.68
724.414	2813.06
724.6	2911.36
724.787	2952.32
724.974	2890.88
725.161	2792.58
725.347	2655.36
725.534	2755.71
725.72	2847.87
725.907	2786.43
726.094	2819.2
726.28	2831.49
726.467	2788.48
726.653	2819.2
726.84	2862.21
727.027	2831.49
727.213	2806.91
727.4	2849.92
727.586	2770.05
727.773	2770.05
727.959	2761.86
728.145	2839.68
728.332	2704.51
728.518	2819.2
728.705	2890.88
728.891	2720.9
729.077	2813.06
729.264	2714.75
729.45	2856.06
729.636	2980.99
729.823	2745.47
730.009	2765.95
730.195	2778.24
730.382	2884.73
730.568	2716.8
730.754	2673.79
730.94	2862.21
731.126	2743.42
731.313	2827.39
731.499	2819.2
731.685	2718.85
731.871	2780.29
732.057	2800.77
732.243	2694.27
732.429	2798.72
732.615	2753.66
732.801	2761.86
732.987	2876.54
733.173	2731.14
733.359	2831.49
733.545	2653.31
733.731	2641.03
733.917	2598.02
734.103	2618.5
734.289	2688.13
734.475	2587.78
734.661	2839.68
734.847	2630.79
735.033	2673.79
735.219	2694.27
735.404	2757.76
735.59	2778.24
735.776	2589.83
735.962	2684.03
736.148	2690.18
736.333	2657.41
736.519	2741.38
736.705	2657.41
736.89	2698.37
737.076	2628.74
737.262	2536.58
737.447	2659.46
737.633	2593.92
737.819	2555.01
738.004	2514.05
738.19	2716.8
738.375	2512
738.561	2628.74
738.747	2548.87
738.932	2677.89
739.118	2641.03
739.303	2745.47
739.489	2438.28
739.674	2577.54
739.859	2548.87
740.045	2573.44
740.23	2548.87
740.416	2567.3
740.601	2485.38
740.786	2442.37
740.972	2434.18
741.157	2618.5
741.342	2567.3
741.528	2403.46
741.713	2522.24
741.898	2466.95
742.084	2509.96
742.269	2452.61
742.454	2536.58
742.639	2446.47
742.824	2303.11
743.01	2430.09
743.195	2391.17
743.38	2286.73
743.565	2548.87
743.75	2370.69
743.935	2301.06
744.12	2423.94
744.305	2331.78
744.49	2378.89
744.675	2368.65
744.86	2245.77
745.045	2399.37
745.23	2401.41
745.415	2247.82
745.6	2280.58
745.785	2204.81
745.97	2237.58
746.155	2159.75
746.34	2229.38
746.525	2137.23
746.71	2192.52
746.895	2157.71
747.079	2221.19
747.264	2149.51
747.449	2278.54
747.634	2169.99
747.819	2081.93
748.003	2231.43
748.188	2065.55
748.373	2104.46
748.557	2040.97
748.742	2079.88
748.927	2102.41
749.111	2233.48
749.296	2073.74
749.481	2051.21
749.665	2020.49
749.85	1957
750.034	2055.31
750.219	1942.67
750.404	1957
750.588	1950.86
750.773	1967.24
750.957	2022.54
751.141	2047.12
751.326	1864.85
751.51	1930.38
751.695	1797.26
751.879	1873.04
752.064	1887.37
752.248	1858.7
752.432	1848.46
752.617	1866.89
752.801	1733.78
752.985	1666.19
753.17	1815.69
753.354	1727.63
753.538	1813.65
753.722	1680.53
753.907	1709.2
754.091	1721.49
754.275	1684.62
754.459	1713.3
754.643	1696.91
754.828	1571.99
755.012	1545.36
755.196	1664.15
755.38	1471.64
755.564	1592.47
755.748	1592.47
755.932	1535.12
756.116	1629.33
756.3	1586.32
756.484	1631.38
756.668	1557.65
756.852	1580.18
757.036	1559.7
757.22	1533.08
757.404	1453.2
757.588	1545.36
757.772	1438.87
757.956	1516.69
758.14	1578.13
758.323	1508.5
758.507	1533.08
758.691	1438.87
758.875	1410.2
759.059	1408.15
759.242	1453.2
759.426	1385.62
759.61	1301.65
759.794	1389.72
759.977	1424.53
760.161	1395.86
760.345	1336.47
760.528	1379.48
760.712	1330.33
760.895	1313.94
761.079	1346.71
761.263	1275.03
761.446	1338.52
761.63	1254.55
761.813	1289.37
761.997	1279.13
762.18	1272.98
762.364	1225.88
762.547	1254.55
762.731	1250.46
762.914	1311.89
763.098	1236.12
763.281	1283.22
763.464	1254.55
763.648	1283.22
763.831	1170.58
764.015	1229.98
764.198	1197.21
764.381	1178.78
764.564	1160.34
764.748	1236.12
764.931	1191.06
765.114	1199.26
765.297	1189.02
765.481	1107.1
765.664	1285.27
765.847	1131.67
766.03	1199.26
766.213	1129.63
766.397	1191.06
766.58	1148.06
766.763	1174.68
766.946	1021.08
767.129	1143.96
767.312	1146.01
767.495	1160.34
767.678	1090.71
767.861	1117.34
768.044	1164.44
768.227	1107.1
768.41	1064.09
768.593	1029.27
768.776	1129.63
768.959	1035.42
769.142	1111.19
769.324	1031.32
769.507	1141.91
769.69	1047.71
769.873	1035.42
770.056	1037.47
770.239	873.63
770.421	959.64
770.604	1021.08
770.787	1041.56
770.97	1064.09
771.152	1062.04
771.335	1051.8
771.518	996.51
771.7	998.56
771.883	953.5
772.066	986.27
772.248	947.36
772.431	1041.56
772.613	941.21
772.796	976.03
772.978	900.25
773.161	1004.7
773.343	951.45
773.526	922.78
773.708	847.01
773.891	869.53
774.073	883.87
774.256	865.44
774.438	994.46
774.621	949.4
774.803	914.59
774.985	824.48
775.168	873.63
775.35	832.67
775.532	855.2
775.715	865.44
775.897	904.35
776.079	816.29
776.261	853.15
776.444	887.97
776.626	808.09
776.808	865.44
776.99	795.81
777.173	842.91
777.355	801.95
777.537	863.39
777.719	787.61
777.901	738.46
778.083	771.23
778.265	720.03
778.447	711.84
778.629	750.75
778.811	818.33
778.993	681.12
779.175	791.71
779.357	720.03
779.539	717.98
779.721	711.84
779.903	726.18
780.085	638.11
780.267	689.31
780.449	668.83
780.631	760.99
780.812	660.64
780.994	670.88
781.176	666.78
781.358	752.8
781.54	728.22
781.721	646.3
781.903	650.4
782.085	611.49
782.267	642.21
782.448	691.36
782.63	584.87
782.812	556.19
782.993	615.59
783.175	687.26
783.357	642.21
783.538	550.05
783.72	615.59
783.901	617.63
784.083	576.67
784.264	535.71
784.446	533.67
784.627	578.72
784.809	541.86
784.99	582.82
785.172	558.24
785.353	554.15
785.535	574.63
785.716	511.14
785.897	513.19
786.079	601.25
786.26	519.33
786.441	533.67
786.623	537.76
786.804	488.61
786.985	445.6
787.167	560.29
787.348	451.75
787.529	478.37
787.71	595.11
787.891	447.65
788.073	468.13
788.254	482.47
788.435	533.67
788.616	421.03
788.797	449.7
788.978	404.64
789.159	441.51
789.34	453.8
789.522	461.99
789.703	394.4
789.884	431.27
790.065	394.4
790.246	509.09
790.427	408.74
790.607	509.09
790.788	412.84
790.969	423.08
791.15	464.04
791.331	396.45
791.512	369.83
791.693	418.98
791.874	451.75
792.054	414.88
792.235	386.21
792.416	388.26
792.597	373.92
792.778	406.69
792.958	396.45
793.139	410.79
793.32	394.4
793.5	382.12
793.681	398.5
793.862	371.88
794.042	380.07
794.223	345.25
794.404	320.68
794.584	316.58
794.765	359.59
794.945	343.21
795.126	369.83
795.306	365.73
795.487	355.49
795.667	322.73
795.848	308.39
796.028	265.38
796.209	296.1
796.389	320.68
796.57	429.22
796.75	287.91
796.93	277.67
797.111	330.92
797.291	300.2
797.471	363.69
797.652	322.73
797.832	310.44
798.012	328.87
798.192	251.05
798.373	216.23
798.553	355.49
798.733	273.57
798.913	347.3
799.093	292.01
799.274	398.5
799.454	378.02
799.634	244.9
799.814	314.53
799.994	322.73
800.174	214.18
800.354	308.39
800.534	210.09
800.714	302.25
800.894	242.85
801.074	287.91
801.254	283.81
801.434	273.57
801.614	234.66
801.794	365.73
801.974	681.12
802.154	320.68
802.334	347.3
802.514	251.05
802.693	304.29
802.873	353.45
803.053	283.81
803.233	259.24
803.413	240.81
803.592	304.29
803.772	179.37
803.952	220.33
804.131	218.28
804.311	339.11
804.491	269.48
804.67	296.1
804.85	265.38
805.03	226.47
805.209	226.47
805.389	296.1
805.568	199.85
805.748	216.23
805.928	148.65
806.107	269.48
806.287	201.9
806.466	251.05
806.646	230.57
806.825	226.47
807.004	242.85
807.184	255.14
807.363	242.85
807.543	205.99
807.722	74.92
807.901	197.8
808.081	212.14
808.26	193.7
808.439	232.62
808.619	173.22
808.798	265.38
808.977	208.04
809.156	224.42
809.336	187.56
809.515	283.81
809.694	140.46
809.873	193.7
810.052	214.18
810.231	236.71
810.411	210.09
810.59	156.84
810.769	214.18
810.948	251.05
811.127	230.57
811.306	199.85
811.485	167.08
811.664	189.61
811.843	226.47
812.022	165.03
812.201	138.41
812.38	226.47
812.559	177.32
812.737	224.42
812.916	142.5
813.095	148.65
813.274	171.18
813.453	156.84
813.632	253.09
813.811	259.24
813.989	150.7
814.168	185.51
814.347	156.84
814.526	95.4
814.704	183.46
814.883	302.25
815.062	93.35
815.24	275.62
815.419	150.7
815.598	195.75
815.776	128.17
815.955	169.13
816.133	160.94
816.312	124.07
816.49	169.13
816.669	165.03
816.847	158.89
817.026	224.42
817.204	167.08
817.383	203.94
817.561	142.5
817.74	126.12
817.918	146.6
818.097	124.07
818.275	165.03
818.453	212.14
818.632	158.89
818.81	158.89
818.988	171.18
819.167	173.22
819.345	160.94
819.523	201.9
819.701	156.84
819.879	177.32
820.058	138.41
820.236	173.22
820.414	152.74
820.592	117.93
820.77	152.74
820.948	91.31
821.127	68.78
821.305	107.69
821.483	181.42
821.661	115.88
821.839	107.69
822.017	76.97
822.195	126.12
822.373	101.55
822.551	152.74
822.729	222.38
822.907	132.26
823.085	113.83
823.262	136.36
823.44	160.94
823.618	183.46
823.796	58.54
823.974	87.21
824.152	193.7
824.329	140.46
824.507	156.84
824.685	93.35
824.863	136.36
825.04	89.26
825.218	158.89
825.396	152.74
825.574	79.02
825.751	109.74
825.929	54.44
826.107	117.93
826.284	115.88
826.462	144.55
826.639	197.8
826.817	66.73
826.994	109.74
827.172	140.46
827.349	150.7
827.527	167.08
827.704	105.64
827.882	136.36
828.059	115.88
828.237	89.26
828.414	111.78
828.591	107.69
828.769	115.88
828.946	89.26
829.124	42.15
829.301	156.84
829.478	140.46
829.655	91.31
829.833	150.7
830.01	148.65
830.187	103.59
830.364	97.45
830.542	103.59
830.719	134.31
830.896	111.78
831.073	144.55
831.25	64.68
831.427	93.35
831.604	74.92
831.782	93.35
831.959	87.21
832.136	42.15
832.313	91.31
832.49	40.11
832.667	144.55
832.844	111.78
833.021	130.22
833.198	103.59
833.374	52.39
833.551	15.53
833.728	85.16
833.905	72.87
834.082	83.11
834.259	107.69
834.436	128.17
834.612	15.53
834.789	87.21
834.966	58.54
835.143	33.96
835.319	58.54
835.496	99.5
835.673	83.11
835.85	33.96
836.026	101.55
836.203	74.92
836.38	76.97
836.556	142.5
836.733	66.73
836.909	101.55
837.086	52.39
837.262	36.01
837.439	27.82
837.616	83.11
837.792	42.15
837.968	50.35
838.145	13.48
838.321	87.21
838.498	42.15
838.674	72.87
838.851	76.97
839.027	31.91
839.203	48.3
839.38	15.53
839.556	3.24
839.732	76.97
839.909	72.87
840.085	152.74
840.261	134.31
840.437	13.48
840.614	29.87
840.79	25.77
840.966	11.43
841.142	122.02
841.318	38.06
841.494	122.02
841.671	27.82
841.847	40.11
842.023	-15.19
842.199	76.97
842.375	48.3
842.551	79.02
842.727	122.02
842.903	113.83
843.079	3.24
843.255	25.77
843.431	58.54
843.607	115.88
843.783	50.35
843.959	62.63
844.134	33.96
844.31	60.59
844.486	-15.19
844.662	58.54
844.838	58.54
845.013	42.15
845.189	27.82
845.365	40.11
845.541	19.63
845.716	79.02
845.892	54.44
846.068	68.78
846.244	21.67
846.419	72.87
846.595	3.24
846.77	-50
846.946	48.3
847.122	21.67
847.297	60.59
847.473	99.5
847.648	1.19
847.824	44.2
847.999	-9.05
848.175	60.59
848.35	87.21
848.526	66.73
848.701	38.06
848.876	52.39
849.052	-11.09
849.227	128.17
849.403	38.06
849.578	-9.05
849.753	29.87
849.929	-7
850.104	-4.95
850.279	-11.09
850.454	79.02
850.63	-52.05
850.805	44.2
850.98	54.44
851.155	58.54
851.33	-4.95
851.505	62.63
851.681	68.78
851.856	36.01
852.031	-4.95
852.206	25.77
852.381	13.48
852.556	29.87
852.731	58.54
852.906	87.21
853.081	64.68
853.256	99.5
853.431	72.87
853.606	17.58
853.781	40.11
853.956	44.2
854.131	5.29
854.305	52.39
854.48	29.87
854.655	50.35
854.83	89.26
855.005	23.72
855.18	-2.9
855.354	62.63
855.529	58.54
855.704	54.44
855.879	-41.81
856.053	-84.82
856.228	36.01
856.403	-52.05
856.577	-35.67
856.752	23.72
856.926	68.78
857.101	36.01
857.276	3.24
857.45	21.67
857.625	44.2
857.799	70.83
857.974	29.87
858.148	38.06
858.323	107.69
858.497	58.54
858.672	-58.2
858.846	-35.67
859.02	64.68
859.195	17.58
859.369	-21.33
859.543	29.87
859.718	70.83
859.892	1.19
860.066	38.06
860.241	1.19
860.415	33.96
860.589	60.59
860.763	74.92
860.938	27.82
861.112	-9.05
861.286	-23.38
861.46	-13.14
861.634	38.06
861.808	-13.14
861.982	56.49
862.157	23.72
862.331	15.53
862.505	17.58
862.679	-41.81
862.853	13.48
863.027	3.24
863.201	5.29
863.375	-43.86
863.549	74.92
863.722	29.87
863.896	11.43
864.07	-39.76
864.244	19.63
864.418	29.87
864.592	29.87
864.766	-21.33
864.939	36.01
865.113	7.34
865.287	44.2
865.461	-13.14
865.634	15.53
865.808	-68.44
865.982	-2.9
866.156	-21.33
866.329	-56.15
866.503	25.77
866.676	87.21
866.85	-43.86
867.024	97.45
867.197	25.77
867.371	-43.86
867.544	29.87
867.718	70.83
867.891	-2.9
868.065	54.44
868.238	50.35
868.412	5.29
868.585	-23.38
868.759	25.77
868.932	-84.82
869.105	27.82
869.279	21.67
869.452	-9.05
869.625	5.29
869.799	21.67
869.972	42.15
870.145	21.67
870.319	-33.62
870.492	-25.43
870.665	38.06
870.838	38.06
871.011	-27.48
871.185	-54.1
871.358	-19.29
871.531	50.35
871.704	40.11
871.877	-15.19
872.05	13.48
872.223	-31.57
872.396	48.3
872.569	11.43
872.742	-19.29
872.915	-29.52
873.088	31.91
873.261	-11.09
873.434	-19.29
873.607	19.63
873.78	13.48
873.953	-37.72
874.126	40.11
874.299	-2.9
874.471	15.53
874.644	7.34
874.817	122.02
874.99	87.21
875.163	36.01
875.335	-21.33
875.508	25.77
875.681	9.39
875.853	25.77
876.026	91.31
876.199	46.25
876.371	79.02
876.544	-2.9
876.717	72.87
876.889	38.06
877.062	-23.38
877.234	-13.14
877.407	-17.24
877.579	-2.9
877.752	33.96
877.924	-2.9
878.097	21.67
878.269	-47.96
878.442	-13.14
878.614	-0.85
878.786	46.25
878.959	-35.67
879.131	13.48
879.303	58.54
879.476	1.19
879.648	79.02
879.82	50.35
879.993	-11.09
880.165	-35.67
880.337	-9.05
880.509	38.06
880.681	-2.9
880.854	5.29
881.026	-4.95
881.198	87.21
881.37	17.58
881.542	27.82
881.714	81.07
881.886	-27.48
882.058	17.58
882.23	31.91
882.402	25.77
882.574	70.83
882.746	-2.9
882.918	21.67
883.09	66.73
883.262	-2.9
883.434	68.78
883.606	-15.19
883.778	11.43
883.95	-21.33
884.122	21.67
884.293	13.48
884.465	-31.57
884.637	13.48
884.809	-17.24
884.98	54.44
885.152	33.96
885.324	38.06
885.496	17.58
885.667	40.11
885.839	23.72
886.011	21.67
886.182	-43.86
886.354	-19.29
886.525	62.63
886.697	25.77
886.869	27.82
887.04	5.29
887.212	44.2
887.383	9.39
887.555	9.39
887.726	-45.91
887.897	-2.9
888.069	74.92
888.24	52.39
888.412	-13.14
888.583	29.87
888.754	-90.96
888.926	-0.85
889.097	-2.9
889.268	11.43
889.44	-7
889.611	-13.14
889.782	-35.67
889.953	-7
890.125	19.63
890.296	-66.39
890.467	25.77
890.638	-0.85
890.809	-4.95
890.98	36.01
891.151	66.73
891.323	44.2
891.494	54.44
891.665	-111.44
891.836	-0.85
892.007	-27.48
892.178	11.43
892.349	50.35
892.52	11.43
892.691	13.48
892.862	-29.52
893.032	-33.62
893.203	-37.72
893.374	42.15
893.545	33.96
893.716	-7
893.887	-7
894.057	56.49
894.228	-2.9
894.399	-64.34
894.57	42.15
894.74	-4.95
894.911	-39.76
895.082	-21.33
895.253	46.25
895.423	36.01
895.594	68.78
895.764	-15.19
895.935	58.54
896.106	3.24
896.276	29.87
896.447	-2.9
896.617	97.45
896.788	-43.86
896.958	-37.72
897.129	-9.05
897.299	7.34
897.47	5.29
897.64	-23.38
897.81	-45.91
897.981	-11.09
898.151	-109.4
898.322	79.02
898.492	-52.05
898.662	66.73
898.832	-43.86
899.003	36.01
899.173	-60.24
899.343	25.77
899.513	42.15
