Data from USB4F104151__229__11-10-59-673.txt Node

Date: Wed Mar 12 11:10:59 EDT 2025
User: louis
Spectrometer: USB4F10415
Trigger mode: 4
Integration Time (sec): 2.000000E-2
Scans to average: 1
Electric dark correction enabled: true
Nonlinearity correction enabled: false
Boxcar width: 0
XAxis mode: Wavelengths
Number of Pixels in Spectrum: 3648
>>>>>Begin Spectral Data<<<<<
178.204	27.48
178.424	27.48
178.644	27.48
178.864	-38.06
179.084	-74.92
179.304	31.57
179.524	-46.25
179.744	2.9
179.964	7
180.184	23.38
180.404	-52.39
180.624	-13.48
180.844	-3.24
181.064	9.05
181.283	-40.11
181.503	45.91
181.723	35.67
181.943	-33.96
182.163	52.05
182.383	19.29
182.602	133.97
182.822	15.19
183.042	-76.97
183.262	37.72
183.482	9.05
183.701	-3.24
183.921	35.67
184.141	2.9
184.361	62.29
184.58	21.33
184.8	-27.82
185.02	-13.48
185.239	33.62
185.459	4.95
185.679	82.77
185.898	25.43
186.118	56.15
186.338	15.19
186.557	68.44
186.777	-27.82
186.997	11.09
187.216	-5.29
187.436	33.62
187.655	15.19
187.875	7
188.095	-15.53
188.314	117.59
188.534	74.58
188.753	74.58
188.973	-48.3
189.192	-62.63
189.412	27.48
189.631	50
189.851	76.63
190.07	-9.39
190.29	-58.54
190.509	39.76
190.729	-50.35
190.948	148.31
191.168	80.72
191.387	60.24
191.607	2.9
191.826	-17.58
192.045	-13.48
192.265	64.34
192.484	19.29
192.704	80.72
192.923	-33.96
193.142	39.76
193.362	72.53
193.581	-29.87
193.8	17.24
194.02	76.63
194.239	84.82
194.458	13.14
194.678	-13.48
194.897	-17.58
195.116	2.9
195.335	80.72
195.555	29.52
195.774	9.05
195.993	-1.19
196.212	52.05
196.432	-3.24
196.651	-11.43
196.87	41.81
197.089	62.29
197.308	47.96
197.528	27.48
197.747	25.43
197.966	107.35
198.185	84.82
198.404	60.24
198.623	107.35
198.842	78.68
199.062	9.05
199.281	-5.29
199.5	56.15
199.719	0.85
199.938	50
200.157	15.19
200.376	-23.72
200.595	68.44
200.814	-21.67
201.033	11.09
201.252	97.11
201.471	39.76
201.69	72.53
201.909	37.72
202.128	-21.67
202.347	138.07
202.566	60.24
202.785	35.67
203.004	19.29
203.223	54.1
203.442	-36.01
203.661	74.58
203.879	21.33
204.098	56.15
204.317	-50.35
204.536	13.14
204.755	80.72
204.974	84.82
205.193	19.29
205.411	64.34
205.63	27.48
205.849	-46.25
206.068	56.15
206.287	41.81
206.505	35.67
206.724	50
206.943	-21.67
207.162	72.53
207.381	-13.48
207.599	-9.39
207.818	25.43
208.037	39.76
208.255	45.91
208.474	39.76
208.693	117.59
208.911	17.24
209.13	72.53
209.349	15.19
209.567	-42.15
209.786	105.3
210.005	70.48
210.223	97.11
210.442	68.44
210.661	39.76
210.879	35.67
211.098	15.19
211.316	72.53
211.535	-7.34
211.753	58.2
211.972	11.09
212.191	-5.29
212.409	15.19
212.628	47.96
212.846	47.96
213.065	52.05
213.283	-56.49
213.502	-21.67
213.72	19.29
213.938	62.29
214.157	0.85
214.375	115.54
214.594	17.24
214.812	15.19
215.031	52.05
215.249	11.09
215.467	9.05
215.686	29.52
215.904	-25.77
216.122	2.9
216.341	43.86
216.559	19.29
216.778	37.72
216.996	-5.29
217.214	37.72
217.432	43.86
217.651	-15.53
217.869	103.25
218.087	11.09
218.306	-7.34
218.524	-27.82
218.742	11.09
218.96	68.44
219.179	-27.82
219.397	-3.24
219.615	35.67
219.833	-13.48
220.051	-44.2
220.27	41.81
220.488	39.76
220.706	-3.24
220.924	2.9
221.142	0.85
221.36	23.38
221.578	-46.25
221.796	39.76
222.015	-25.77
222.233	50
222.451	27.48
222.669	33.62
222.887	105.3
223.105	13.14
223.323	19.29
223.541	-5.29
223.759	50
223.977	58.2
224.195	-25.77
224.413	50
224.631	54.1
224.849	2.9
225.067	80.72
225.285	39.76
225.503	41.81
225.721	27.48
225.939	39.76
226.157	68.44
226.375	84.82
226.592	35.67
226.81	50
227.028	35.67
227.246	99.16
227.464	25.43
227.682	45.91
227.9	54.1
228.117	62.29
228.335	7
228.553	52.05
228.771	39.76
228.989	23.38
229.206	7
229.424	33.62
229.642	25.43
229.86	4.95
230.077	90.96
230.295	15.19
230.513	47.96
230.731	39.76
230.948	25.43
231.166	29.52
231.384	74.58
231.601	-64.68
231.819	74.58
232.037	27.48
232.254	25.43
232.472	-3.24
232.689	-11.43
232.907	68.44
233.125	23.38
233.342	-1.19
233.56	-29.87
233.777	23.38
233.995	62.29
234.213	103.25
234.43	90.96
234.648	37.72
234.865	47.96
235.083	43.86
235.3	35.67
235.518	27.48
235.735	76.63
235.953	17.24
236.17	13.14
236.388	-1.19
236.605	56.15
236.822	-7.34
237.04	7
237.257	76.63
237.475	-23.72
237.692	78.68
237.909	72.53
238.127	-60.59
238.344	86.87
238.562	66.39
238.779	-25.77
238.996	23.38
239.214	43.86
239.431	27.48
239.648	45.91
239.865	80.72
240.083	95.06
240.3	45.91
240.517	23.38
240.735	-13.48
240.952	23.38
241.169	7
241.386	82.77
241.603	2.9
241.821	47.96
242.038	11.09
242.255	80.72
242.472	35.67
242.689	107.35
242.907	13.14
243.124	70.48
243.341	29.52
243.558	-21.67
243.775	23.38
243.992	-9.39
244.209	4.95
244.426	47.96
244.643	-3.24
244.86	37.72
245.078	52.05
245.295	117.59
245.512	60.24
245.729	27.48
245.946	23.38
246.163	37.72
246.38	50
246.597	95.06
246.814	107.35
247.031	58.2
247.248	33.62
247.464	13.14
247.681	25.43
247.898	23.38
248.115	43.86
248.332	7
248.549	58.2
248.766	76.63
248.983	31.57
249.2	111.44
249.417	2.9
249.633	13.14
249.85	54.1
250.067	78.68
250.284	23.38
250.501	39.76
250.717	60.24
250.934	90.96
251.151	27.48
251.368	13.14
251.585	68.44
251.801	74.58
252.018	17.24
252.235	17.24
252.451	74.58
252.668	-87.21
252.885	25.43
253.102	17.24
253.318	45.91
253.535	-38.06
253.752	-23.72
253.968	-25.77
254.185	27.48
254.401	58.2
254.618	11.09
254.835	50
255.051	105.3
255.268	-38.06
255.484	-36.01
255.701	11.09
255.917	37.72
256.134	7
256.351	-23.72
256.567	84.82
256.784	23.38
257	58.2
257.217	58.2
257.433	37.72
257.65	50
257.866	23.38
258.082	31.57
258.299	90.96
258.515	56.15
258.732	27.48
258.948	64.34
259.165	56.15
259.381	47.96
259.597	2.9
259.814	29.52
260.03	19.29
260.246	37.72
260.463	25.43
260.679	90.96
260.895	23.38
261.112	111.44
261.328	27.48
261.544	31.57
261.761	74.58
261.977	7
262.193	27.48
262.409	62.29
262.626	35.67
262.842	15.19
263.058	41.81
263.274	23.38
263.49	19.29
263.707	7
263.923	62.29
264.139	35.67
264.355	60.24
264.571	27.48
264.787	76.63
265.004	54.1
265.22	15.19
265.436	-17.58
265.652	-19.63
265.868	37.72
266.084	-7.34
266.3	84.82
266.516	45.91
266.732	58.2
266.948	47.96
267.164	37.72
267.38	31.57
267.596	95.06
267.812	101.2
268.028	37.72
268.244	-9.39
268.46	35.67
268.676	15.19
268.892	115.54
269.108	4.95
269.324	7
269.54	29.52
269.756	88.92
269.972	-5.29
270.188	68.44
270.403	-33.96
270.619	19.29
270.835	-38.06
271.051	60.24
271.267	0.85
271.483	41.81
271.698	47.96
271.914	39.76
272.13	-9.39
272.346	19.29
272.562	-17.58
272.777	60.24
272.993	27.48
273.209	21.33
273.425	70.48
273.64	25.43
273.856	58.2
274.072	68.44
274.287	-11.43
274.503	31.57
274.719	138.07
274.934	31.57
275.15	-13.48
275.366	23.38
275.581	-9.39
275.797	-17.58
276.012	-15.53
276.228	-1.19
276.444	-33.96
276.659	62.29
276.875	-15.53
277.09	25.43
277.306	21.33
277.521	4.95
277.737	21.33
277.952	97.11
278.168	78.68
278.383	21.33
278.599	47.96
278.814	84.82
279.03	7
279.245	-68.78
279.461	90.96
279.676	41.81
279.892	13.14
280.107	13.14
280.322	43.86
280.538	29.52
280.753	13.14
280.969	74.58
281.184	13.14
281.399	11.09
281.615	72.53
281.83	52.05
282.045	-11.43
282.26	-23.72
282.476	62.29
282.691	31.57
282.906	37.72
283.122	9.05
283.337	11.09
283.552	41.81
283.767	15.19
283.983	72.53
284.198	11.09
284.413	88.92
284.628	-50.35
284.843	-17.58
285.058	-3.24
285.274	33.62
285.489	27.48
285.704	45.91
285.919	-83.11
286.134	17.24
286.349	111.44
286.564	7
286.779	25.43
286.995	39.76
287.21	70.48
287.425	140.12
287.64	-29.87
287.855	23.38
288.07	33.62
288.285	-9.39
288.5	33.62
288.715	11.09
288.93	29.52
289.145	-21.67
289.36	33.62
289.575	70.48
289.79	-5.29
290.004	-3.24
290.219	15.19
290.434	-3.24
290.649	27.48
290.864	56.15
291.079	7
291.294	68.44
291.509	39.76
291.724	62.29
291.938	7
292.153	76.63
292.368	45.91
292.583	-21.67
292.798	68.44
293.012	97.11
293.227	84.82
293.442	21.33
293.657	9.05
293.871	76.63
294.086	19.29
294.301	-21.67
294.516	125.78
294.73	52.05
294.945	45.91
295.16	78.68
295.374	88.92
295.589	39.76
295.804	43.86
296.018	23.38
296.233	25.43
296.447	39.76
296.662	-54.44
296.877	2.9
297.091	95.06
297.306	-3.24
297.52	-27.82
297.735	56.15
297.949	33.62
298.164	58.2
298.378	7
298.593	47.96
298.807	72.53
299.022	-5.29
299.236	13.14
299.451	33.62
299.665	68.44
299.88	80.72
300.094	62.29
300.309	7
300.523	50
300.737	82.77
300.952	39.76
301.166	-44.2
301.381	43.86
301.595	39.76
301.809	99.16
302.024	43.86
302.238	9.05
302.452	60.24
302.667	72.53
302.881	78.68
303.095	52.05
303.309	70.48
303.524	45.91
303.738	39.76
303.952	39.76
304.166	-5.29
304.381	33.62
304.595	88.92
304.809	31.57
305.023	17.24
305.237	58.2
305.452	47.96
305.666	29.52
305.88	66.39
306.094	103.25
306.308	78.68
306.522	101.2
306.736	52.05
306.95	21.33
307.164	-1.19
307.379	-5.29
307.593	66.39
307.807	88.92
308.021	39.76
308.235	31.57
308.449	35.67
308.663	29.52
308.877	95.06
309.091	7
309.305	-5.29
309.519	54.1
309.733	54.1
309.947	0.85
310.161	52.05
310.374	27.48
310.588	35.67
310.802	64.34
311.016	52.05
311.23	103.25
311.444	23.38
311.658	7
311.872	54.1
312.085	33.62
312.299	52.05
312.513	80.72
312.727	45.91
312.941	15.19
313.154	148.31
313.368	19.29
313.582	-17.58
313.796	-5.29
314.009	9.05
314.223	84.82
314.437	54.1
314.651	35.67
314.864	23.38
315.078	78.68
315.292	27.48
315.505	-25.77
315.719	27.48
315.933	-5.29
316.146	-27.82
316.36	11.09
316.573	31.57
316.787	84.82
317.001	54.1
317.214	78.68
317.428	60.24
317.641	-7.34
317.855	27.48
318.068	-11.43
318.282	-1.19
318.495	68.44
318.709	47.96
318.922	19.29
319.136	93.01
319.349	80.72
319.563	66.39
319.776	0.85
319.99	11.09
320.203	15.19
320.417	50
320.63	13.14
320.843	39.76
321.057	25.43
321.27	23.38
321.483	72.53
321.697	39.76
321.91	39.76
322.124	39.76
322.337	-31.91
322.55	-31.91
322.763	9.05
322.977	35.67
323.19	78.68
323.403	39.76
323.617	-19.63
323.83	45.91
324.043	0.85
324.256	9.05
324.469	19.29
324.683	37.72
324.896	39.76
325.109	43.86
325.322	33.62
325.535	13.14
325.748	17.24
325.962	148.31
326.175	35.67
326.388	-1.19
326.601	54.1
326.814	13.14
327.027	25.43
327.24	41.81
327.453	11.09
327.666	-11.43
327.879	33.62
328.092	52.05
328.305	13.14
328.518	-7.34
328.731	64.34
328.944	17.24
329.157	41.81
329.37	97.11
329.583	25.43
329.796	115.54
330.009	7
330.222	0.85
330.435	31.57
330.648	11.09
330.861	88.92
331.073	11.09
331.286	21.33
331.499	62.29
331.712	78.68
331.925	39.76
332.138	66.39
332.35	52.05
332.563	105.3
332.776	35.67
332.989	27.48
333.202	78.68
333.414	9.05
333.627	95.06
333.84	15.19
334.053	66.39
334.265	-7.34
334.478	-21.67
334.691	13.14
334.903	29.52
335.116	-89.26
335.329	-27.82
335.541	15.19
335.754	90.96
335.966	4.95
336.179	90.96
336.392	4.95
336.604	84.82
336.817	121.68
337.029	62.29
337.242	50
337.454	33.62
337.667	35.67
337.88	31.57
338.092	43.86
338.305	72.53
338.517	-25.77
338.729	23.38
338.942	7
339.154	58.2
339.367	-7.34
339.579	41.81
339.792	-7.34
340.004	86.87
340.217	31.57
340.429	39.76
340.641	15.19
340.854	82.77
341.066	35.67
341.278	84.82
341.491	74.58
341.703	31.57
341.915	97.11
342.128	47.96
342.34	90.96
342.552	45.91
342.764	84.82
342.977	80.72
343.189	-9.39
343.401	45.91
343.613	-11.43
343.826	21.33
344.038	-29.87
344.25	84.82
344.462	29.52
344.674	74.58
344.886	35.67
345.099	-23.72
345.311	-50.35
345.523	9.05
345.735	17.24
345.947	11.09
346.159	4.95
346.371	64.34
346.583	37.72
346.795	111.44
347.007	82.77
347.219	52.05
347.431	58.2
347.643	80.72
347.855	39.76
348.067	154.45
348.279	21.33
348.491	90.96
348.703	25.43
348.915	52.05
349.127	4.95
349.339	119.64
349.551	-25.77
349.763	111.44
349.975	47.96
350.187	88.92
350.399	62.29
350.61	43.86
350.822	29.52
351.034	0.85
351.246	56.15
351.458	60.24
351.669	41.81
351.881	74.58
352.093	107.35
352.305	97.11
352.517	27.48
352.728	119.64
352.94	25.43
353.152	52.05
353.363	35.67
353.575	113.49
353.787	35.67
353.999	76.63
354.21	31.57
354.422	31.57
354.633	54.1
354.845	31.57
355.057	39.76
355.268	86.87
355.48	90.96
355.692	-5.29
355.903	35.67
356.115	21.33
356.326	-19.63
356.538	99.16
356.749	74.58
356.961	43.86
357.172	15.19
357.384	52.05
357.595	86.87
357.807	125.78
358.018	52.05
358.23	27.48
358.441	93.01
358.653	117.59
358.864	31.57
359.075	58.2
359.287	29.52
359.498	19.29
359.709	29.52
359.921	113.49
360.132	47.96
360.344	21.33
360.555	37.72
360.766	115.54
360.977	7
361.189	25.43
361.4	15.19
361.611	72.53
361.823	43.86
362.034	60.24
362.245	-3.24
362.456	-5.29
362.667	97.11
362.879	97.11
363.09	133.97
363.301	21.33
363.512	97.11
363.723	101.2
363.935	56.15
364.146	35.67
364.357	103.25
364.568	-23.72
364.779	-66.73
364.99	13.14
365.201	-21.67
365.412	136.02
365.623	-3.24
365.834	66.39
366.045	11.09
366.256	101.2
366.467	9.05
366.678	15.19
366.889	21.33
367.1	52.05
367.311	82.77
367.522	52.05
367.733	39.76
367.944	88.92
368.155	-13.48
368.366	68.44
368.577	133.97
368.788	58.2
368.999	101.2
369.209	68.44
369.42	121.68
369.631	64.34
369.842	9.05
370.053	-40.11
370.264	136.02
370.474	56.15
370.685	33.62
370.896	43.86
371.107	17.24
371.317	64.34
371.528	82.77
371.739	45.91
371.95	19.29
372.16	27.48
372.371	29.52
372.582	-13.48
372.792	93.01
373.003	43.86
373.214	80.72
373.424	72.53
373.635	19.29
373.846	66.39
374.056	11.09
374.267	101.2
374.477	29.52
374.688	-17.58
374.898	52.05
375.109	23.38
375.319	68.44
375.53	58.2
375.74	101.2
375.951	-66.73
376.161	68.44
376.372	37.72
376.582	21.33
376.793	58.2
377.003	31.57
377.214	-1.19
377.424	-1.19
377.635	84.82
377.845	68.44
378.055	64.34
378.266	-97.45
378.476	68.44
378.686	35.67
378.897	82.77
379.107	62.29
379.317	72.53
379.528	35.67
379.738	80.72
379.948	-17.58
380.158	29.52
380.369	15.19
380.579	11.09
380.789	78.68
380.999	52.05
381.21	66.39
381.42	58.2
381.63	50
381.84	41.81
382.05	2.9
382.261	68.44
382.471	56.15
382.681	90.96
382.891	60.24
383.101	-27.82
383.311	121.68
383.521	11.09
383.731	37.72
383.941	205.65
384.151	66.39
384.361	58.2
384.571	88.92
384.781	68.44
384.991	84.82
385.201	56.15
385.411	23.38
385.621	90.96
385.831	50
386.041	47.96
386.251	66.39
386.461	115.54
386.671	54.1
386.881	35.67
387.091	97.11
387.301	35.67
387.511	35.67
387.72	35.67
387.93	64.34
388.14	56.15
388.35	107.35
388.56	41.81
388.769	62.29
388.979	56.15
389.189	-27.82
389.399	-5.29
389.609	35.67
389.818	95.06
390.028	97.11
390.238	136.02
390.447	70.48
390.657	101.2
390.867	50
391.076	64.34
391.286	2.9
391.496	76.63
391.705	37.72
391.915	93.01
392.125	95.06
392.334	50
392.544	119.64
392.753	105.3
392.963	99.16
393.172	68.44
393.382	76.63
393.591	82.77
393.801	93.01
394.01	11.09
394.22	54.1
394.429	25.43
394.639	101.2
394.848	56.15
395.058	56.15
395.267	99.16
395.477	74.58
395.686	2.9
395.895	195.41
396.105	111.44
396.314	93.01
396.524	95.06
396.733	105.3
396.942	88.92
397.152	84.82
397.361	72.53
397.57	50
397.78	105.3
397.989	97.11
398.198	117.59
398.407	119.64
398.617	58.2
398.826	111.44
399.035	138.07
399.244	84.82
399.453	99.16
399.663	58.2
399.872	103.25
400.081	54.1
400.29	197.46
400.499	121.68
400.708	109.4
400.917	68.44
401.127	93.01
401.336	86.87
401.545	125.78
401.754	88.92
401.963	58.2
402.172	70.48
402.381	103.25
402.59	131.92
402.799	97.11
403.008	150.36
403.217	95.06
403.426	158.55
403.635	93.01
403.844	162.64
404.053	148.31
404.262	136.02
404.471	111.44
404.68	115.54
404.888	133.97
405.097	179.03
405.306	82.77
405.515	121.68
405.724	170.83
405.933	150.36
406.142	125.78
406.35	209.75
406.559	103.25
406.768	158.55
406.977	217.94
407.185	209.75
407.394	193.36
407.603	205.65
407.812	199.51
408.02	248.66
408.229	240.47
408.438	185.17
408.646	232.27
408.855	236.37
409.064	232.27
409.272	297.81
409.481	213.84
409.69	310.1
409.898	230.23
410.107	203.6
410.315	314.19
410.524	420.69
410.733	336.72
410.941	416.59
411.15	260.95
411.358	414.54
411.567	330.58
411.775	357.2
411.984	408.4
412.192	349.01
412.401	441.17
412.609	486.22
412.818	432.97
413.026	465.74
413.234	453.45
413.443	547.66
413.651	500.56
413.86	535.37
414.068	600.91
414.276	566.09
414.485	502.61
414.693	654.16
414.901	588.62
415.11	652.11
415.318	691.02
415.526	643.92
415.734	834.38
415.943	715.59
416.151	766.79
416.359	703.31
416.567	719.69
416.776	744.27
416.984	930.63
417.192	920.39
417.4	940.87
417.608	1000.26
417.817	961.35
418.025	1018.69
418.233	1104.71
418.441	1067.85
418.649	1078.08
418.857	1190.72
419.065	1196.87
419.273	1186.63
419.481	1248.07
419.689	1356.61
419.897	1375.04
420.105	1432.38
420.313	1379.14
420.521	1493.82
420.729	1411.9
420.937	1555.26
421.145	1696.57
421.353	1645.37
421.561	1831.74
421.769	1891.13
421.977	1983.29
422.185	1868.6
422.393	2032.44
422.601	2087.73
422.809	2138.93
423.017	2145.08
423.224	2132.79
423.432	2177.84
423.64	2210.61
423.848	2429.74
424.056	2460.46
424.263	2638.64
424.471	2636.59
424.679	2636.59
424.887	2812.71
425.094	2937.64
425.302	3015.46
425.51	2988.84
425.718	2992.94
425.925	3189.54
426.133	3279.65
426.341	3482.4
426.548	3642.14
426.756	3638.05
426.964	3738.4
427.171	3853.08
427.379	3928.86
427.586	4059.93
427.794	4193.05
428.001	4381.46
428.209	4514.58
428.417	4348.69
428.624	4809.48
428.832	4840.2
429.039	4672.27
429.247	4772.62
429.454	5171.97
429.662	5565.18
429.869	5004.04
430.076	5608.19
430.284	5425.92
430.491	5479.17
430.699	5858.04
430.906	5997.31
431.114	6052.6
431.321	6232.82
431.528	6300.41
431.736	6740.72
431.943	7074.54
432.15	6773.49
432.358	6898.41
432.565	7318.25
432.772	7215.85
432.979	7768.8
433.187	7885.53
433.394	7852.77
433.601	8549.07
433.808	8485.59
434.016	8370.9
434.223	8649.43
434.43	9263.82
434.637	8917.71
434.844	9536.2
435.052	9702.08
435.259	9630.4
435.466	9798.34
435.673	9675.46
435.88	10265.27
436.087	10910.38
436.294	10715.83
436.501	10431.16
436.708	10889.9
436.915	11221.67
437.122	11768.48
437.329	11309.74
437.537	11932.32
437.743	12098.2
437.95	12112.54
438.157	12642.96
438.364	13015.69
438.571	13128.33
438.778	13042.32
438.985	14195.32
439.192	13638.28
439.399	14183.04
439.606	13906.56
439.813	14666.36
440.02	15667.81
440.227	15186.54
440.433	15331.95
440.64	15669.86
440.847	15473.26
441.054	16122.46
441.261	16734.81
441.467	16806.48
441.674	17224.27
441.881	17631.82
442.088	17697.35
442.294	17533.51
442.501	18039.36
442.708	18252.35
442.914	19110.45
443.121	19980.84
443.328	19397.17
443.534	20783.64
443.741	20189.73
443.948	20021.8
444.154	21488.14
444.361	21219.86
444.568	21264.91
444.774	21389.84
444.981	21613.07
445.187	22061.57
445.394	22981.11
445.6	23149.04
445.807	25033.18
446.013	23900.65
446.22	24422.88
446.426	25346.51
446.633	25254.36
446.839	26259.91
447.046	25006.55
447.252	26628.54
447.459	26452.42
447.665	26599.87
447.871	27636.14
448.078	28682.66
448.284	27582.9
448.491	28287.4
448.697	29245.85
448.903	29839.76
449.11	29897.1
449.316	29116.83
449.522	29729.17
449.728	30630.27
449.935	30773.63
450.141	30747.01
450.347	31363.45
450.553	30540.16
450.76	31013.24
450.966	31578.48
451.172	31476.09
451.378	31889.77
451.584	31619.44
451.791	32178.54
451.997	32227.69
452.203	32776.55
452.409	32493.93
452.615	32797.02
452.821	30916.99
453.027	30929.28
453.233	32627.04
453.44	31459.7
453.646	32014.7
453.852	31613.3
454.058	32010.6
454.264	30716.29
454.47	31654.26
454.676	30871.93
454.882	32029.04
455.088	29045.15
455.294	29858.19
455.5	30275.98
455.705	30476.68
455.911	29034.91
456.117	28242.34
456.323	28352.93
456.529	26294.72
456.735	27513.27
456.941	27109.82
457.147	26753.47
457.352	25584.08
457.558	25465.3
457.764	25602.51
457.97	24781.28
458.176	24623.58
458.381	24244.71
458.587	23136.76
458.793	23181.81
458.999	22299.14
459.204	23609.84
459.41	23056.89
459.616	21578.25
459.821	21266.96
460.027	21512.72
460.233	20818.46
460.438	20021.8
460.644	20169.25
460.85	19264.05
461.055	19106.35
461.261	18719.29
461.466	17285.71
461.672	16955.99
461.878	18133.57
462.083	17113.68
462.289	16466.52
462.494	16360.03
462.7	15759.97
462.905	15366.76
463.111	15858.28
463.316	15878.76
463.522	15727.21
463.727	15567.46
463.932	15784.55
464.138	15489.64
464.343	15356.52
464.549	14998.13
464.754	15471.21
464.959	15596.14
465.165	15360.62
465.37	14817.91
465.575	14142.08
465.781	15094.38
465.986	15012.46
466.191	14484.09
466.397	14350.97
466.602	13365.9
466.807	13955.71
467.012	14080.64
467.218	13617.8
467.423	13628.04
467.628	13888.13
467.833	14412.41
468.038	14002.82
468.244	13353.61
468.449	14246.52
468.654	13478.54
468.859	13290.12
469.064	13359.75
469.269	12827.28
469.474	12814.99
469.679	13259.4
469.885	12706.45
470.09	13036.17
470.295	13042.32
470.5	12606.1
470.705	12587.67
470.91	12198.56
471.115	12221.08
471.32	12604.05
471.525	12360.34
471.73	12190.36
471.935	12012.19
472.139	11592.36
472.344	11629.22
472.549	11600.55
472.754	11412.14
472.959	11188.91
473.164	11020.97
473.369	10703.54
473.574	11213.48
473.778	10912.43
473.983	11205.29
474.188	11027.12
474.393	10584.76
474.598	10425.01
474.802	10455.73
475.007	10336.95
475.212	10308.28
475.417	9974.46
475.621	9892.54
475.826	9939.65
476.031	9624.26
476.235	9677.51
476.44	9884.35
476.645	9456.33
476.849	9607.87
477.054	9491.14
477.259	9353.93
477.463	9468.61
477.668	9190.09
477.872	9308.87
478.077	9009.87
478.282	8782.54
478.486	8876.75
478.691	8710.86
478.895	8708.82
479.1	8659.67
479.304	8772.3
479.509	8493.78
479.713	8600.27
479.918	8297.17
480.122	8293.08
480.326	8483.54
480.531	8491.73
480.735	8223.45
480.94	8127.19
481.144	8436.44
481.348	7985.88
481.553	7975.64
481.757	8002.27
481.961	8225.5
482.166	8280.79
482.37	8088.28
482.574	7867.1
482.778	7883.49
482.983	8305.37
483.187	8139.48
483.391	8190.68
483.595	7928.54
483.8	7889.63
484.004	8004.32
484.208	8010.46
484.412	7987.93
484.616	7910.11
484.821	8084.19
485.025	7940.83
485.229	8133.34
485.433	8067.8
485.637	8037.08
485.841	7785.18
486.045	7877.34
486.249	8194.78
486.453	7989.98
486.657	7938.78
486.861	8202.97
487.065	7580.39
487.269	8067.8
487.473	7850.72
487.677	7918.3
487.881	8063.71
488.085	8035.03
488.289	7920.35
488.493	7971.55
488.697	8088.28
488.901	8129.24
489.105	8098.52
489.309	8020.7
489.512	8102.62
489.716	7973.6
489.92	8147.67
490.124	8119
490.328	8162.01
490.531	8153.82
490.735	8245.98
490.939	8159.96
491.143	8231.64
491.346	8119
491.55	8121.05
491.754	8311.51
491.958	8504.02
492.161	8323.8
492.365	8436.44
492.569	8514.26
492.772	8383.19
492.976	8563.41
493.18	8753.87
493.383	8587.99
493.587	8839.89
493.79	8678.1
493.994	8585.94
494.197	8870.61
494.401	8921.81
494.605	8729.3
494.808	8966.86
495.012	8913.61
495.215	8956.62
495.419	9288.39
495.622	9296.58
495.825	9208.52
496.029	9235.14
496.232	9534.15
496.436	9327.3
496.639	9601.73
496.843	9409.22
497.046	9884.35
497.249	9927.36
497.453	9841.34
497.656	10115.77
497.859	9878.21
498.063	10058.43
498.266	10582.71
498.469	10261.18
498.673	10220.22
498.876	10549.94
499.079	10918.57
499.282	10691.25
499.485	10875.57
499.689	10898.1
499.892	11203.24
500.095	10967.73
500.298	11565.73
500.501	11342.5
500.705	11653.8
500.908	11819.68
501.111	11704.99
501.314	12016.29
501.517	12020.38
501.72	12374.68
501.923	12042.91
502.126	12491.41
502.329	12722.84
502.532	12917.39
502.735	12745.36
502.938	12823.19
503.141	13271.69
503.344	13279.88
503.547	13413
503.75	13558.41
503.953	13615.75
504.156	14008.96
504.359	13922.94
504.562	13949.57
504.765	14549.62
504.968	14201.47
505.17	14609.01
505.373	14500.47
505.576	15067.76
505.779	15039.09
505.982	15110.77
506.185	15233.64
506.387	15272.56
506.59	15465.07
506.793	16038.5
506.996	15841.89
507.198	16210.53
507.401	16487
507.604	16464.47
507.807	16714.33
508.009	16958.03
508.212	16781.91
508.415	17031.76
508.617	17371.72
508.82	17441.36
509.022	17277.52
509.225	18088.51
509.428	17957.44
509.63	18000.45
509.833	18233.92
510.035	18651.7
510.238	18481.72
510.44	18872.89
510.643	18969.14
510.845	19036.72
511.048	19292.72
511.25	19315.25
511.453	19507.76
511.655	20388.38
511.858	20001.32
512.06	20316.7
512.262	20269.6
512.465	20320.8
512.667	20898.33
512.87	20806.17
513.072	20816.41
513.274	21322.26
513.477	21719.56
513.679	21883.4
513.881	22186.5
514.084	22075.91
514.286	22295.04
514.488	22467.07
514.69	23085.56
514.893	23187.96
515.095	23310.83
515.297	23470.58
515.499	23353.84
515.701	23806.44
515.904	24103.4
516.106	24205.8
516.308	24252.9
516.51	24963.54
516.712	24766.94
516.914	25088.47
517.116	25285.08
517.318	25496.02
517.52	25819.6
517.722	25661.9
517.925	26153.41
518.127	26595.78
518.329	26472.9
518.531	26427.84
518.733	26812.86
518.935	27029.94
519.136	27031.99
519.338	27695.53
519.54	27875.76
519.742	28029.35
519.944	28135.85
520.146	28561.83
520.348	28926.36
520.55	28793.25
520.752	28860.83
520.954	29634.96
521.155	29239.7
521.357	29907.34
521.559	30034.32
521.761	30400.9
521.963	30278.02
522.164	30474.63
522.366	30462.34
522.568	30763.39
522.77	31175.03
522.971	31646.07
523.173	31502.71
523.375	31517.04
523.576	31740.27
523.778	31740.27
523.98	32428.39
524.181	32817.5
524.383	32581.99
524.584	32817.5
524.786	32866.66
524.988	33089.88
525.189	33245.53
525.391	33640.79
525.592	33632.6
525.794	33669.46
525.995	33761.62
526.197	33814.87
526.398	33747.28
526.6	34040.14
526.801	34283.85
527.003	34658.63
527.204	34634.05
527.406	34703.68
527.607	34748.74
527.808	35211.58
528.01	34771.27
528.211	35133.76
528.412	35774.77
528.614	35361.08
528.815	35557.69
529.016	35567.93
529.218	35475.77
529.419	35840.31
529.62	35789.11
529.822	35516.73
530.023	35881.27
530.224	36016.43
530.425	35791.16
530.626	35918.13
530.828	35891.51
531.029	36585.77
531.23	36323.63
531.431	36104.49
531.632	36196.65
531.833	36526.38
532.035	36624.68
532.236	36573.48
532.437	36774.18
532.638	36890.91
532.839	36438.31
533.04	36743.46
533.241	36493.61
533.442	37138.72
533.643	36972.83
533.844	36737.32
534.045	37103.9
534.246	36487.46
534.447	36978.98
534.648	36981.03
534.849	36772.13
535.05	36489.51
535.251	36811.04
535.451	36718.89
535.652	36921.63
535.853	36700.45
536.054	36751.65
536.255	37036.32
536.456	36225.32
536.657	37548.31
536.857	37333.28
537.058	36561.19
537.259	37318.94
537.46	36905.25
537.66	36999.46
537.861	37148.96
538.062	36921.63
538.263	36770.08
538.463	37050.66
538.664	36978.98
538.865	37056.8
539.065	37071.14
539.266	36335.91
539.466	37396.76
539.667	36546.86
539.868	37312.8
540.068	36923.68
540.269	36782.37
540.469	36819.24
540.67	36919.59
540.87	36503.85
541.071	36731.17
541.271	36978.98
541.472	36825.38
541.672	36636.97
541.873	36696.36
542.073	36356.39
542.274	36350.25
542.474	36870.43
542.675	36331.82
542.875	36970.79
543.075	36839.72
543.276	36516.14
543.476	37140.77
543.676	36526.38
543.877	37151.01
544.077	36483.37
544.277	36628.77
544.478	36438.31
544.678	36673.83
544.878	36466.98
545.078	36686.12
545.279	36495.66
545.479	36651.3
545.679	36774.18
545.879	36815.14
546.079	36438.31
546.28	36708.65
546.48	36243.76
546.68	36591.91
546.88	36479.27
547.08	36278.57
547.28	36782.37
547.48	36544.81
547.68	36309.29
547.88	36016.43
548.081	36505.9
548.281	36651.3
548.481	36389.16
548.681	36663.59
548.881	36587.82
549.081	36561.19
549.28	36256.04
549.48	36378.92
549.68	36096.3
549.88	36815.14
550.08	35635.51
550.28	36462.89
550.48	36051.25
550.68	36489.51
550.88	35938.61
551.08	36282.67
551.279	36409.64
551.479	36184.37
551.679	36243.76
551.879	36151.6
552.079	36221.23
552.278	35979.57
552.478	36196.65
552.678	36231.47
552.878	36421.93
553.077	35883.31
553.277	35584.31
553.477	36366.63
553.676	35930.42
553.876	35772.72
554.076	35907.89
554.275	35807.54
554.475	35600.69
554.674	35891.51
554.874	36006.19
555.074	35668.28
555.273	35344.7
555.473	36004.14
555.672	35524.92
555.872	35957.04
556.071	35647.8
556.271	35950.9
556.47	35645.75
556.67	35236.16
556.869	35490.1
557.068	35309.88
557.268	34933.06
557.467	35234.11
557.667	35127.61
557.866	35424.57
558.065	35017.02
558.265	34787.65
558.464	34672.96
558.663	35217.72
558.863	34699.59
559.062	35113.28
559.261	34916.67
559.461	34799.94
559.66	34580.81
559.859	34486.6
560.058	34775.36
560.258	34777.41
560.457	34312.52
560.656	34320.71
560.855	34154.83
561.054	34406.73
561.253	34072.91
561.453	34275.66
561.652	34179.4
561.851	34335.05
562.05	33909.07
562.249	33892.69
562.448	34179.4
562.647	34214.22
562.846	34062.67
563.045	33888.59
563.244	33333.59
563.443	33993.04
563.642	33575.25
563.841	33315.16
564.04	32866.66
564.239	33542.49
564.438	32983.39
564.637	33319.26
564.836	33188.19
565.035	32967.01
565.234	33003.87
565.432	32827.74
565.631	32610.66
565.83	33214.81
566.029	32459.11
566.228	32534.88
566.427	32530.79
566.625	32690.53
566.824	32104.81
567.023	32655.72
567.222	31844.72
567.42	32229.74
567.619	32176.49
567.818	32182.63
568.016	31684.98
568.215	32563.56
568.414	31748.46
568.612	32137.58
568.811	31768.94
569.01	31773.04
569.208	31314.3
569.407	31568.24
569.605	31078.78
569.804	31117.69
570.002	31144.31
570.201	31011.2
570.4	30972.28
570.598	30783.87
570.797	30671.23
570.995	30769.54
571.193	30460.29
571.392	30949.76
571.59	30916.99
571.789	30409.09
571.987	30368.13
572.186	30239.11
572.384	30286.22
572.582	30153.1
572.781	30523.78
572.979	29882.77
573.177	29690.26
573.376	30173.58
573.574	29716.88
573.772	29727.12
573.971	29301.14
574.169	29462.93
574.367	29182.36
574.565	29397.4
574.763	29131.16
574.962	29149.59
575.16	28791.2
575.358	29188.5
575.556	29096.35
575.754	29491.6
575.952	28633.5
576.151	28664.22
576.349	28510.63
576.547	28293.54
576.745	28230.05
576.943	28189.1
577.141	28324.26
577.339	28662.18
577.537	28158.38
577.735	28021.16
577.933	27869.61
578.131	28041.64
578.329	27779.5
578.527	27586.99
578.725	28041.64
578.923	28033.45
579.121	27535.79
579.319	27769.26
579.516	27539.89
579.714	27445.68
579.912	27263.41
580.11	27040.18
580.308	27296.18
580.506	26790.33
580.704	26640.83
580.901	26794.43
581.099	27335.09
581.297	26732.99
581.495	26708.41
581.692	26583.49
581.89	26522.05
582.088	26483.14
582.285	26509.76
582.483	26309.06
582.681	26311.11
582.878	26327.49
583.076	26298.82
583.274	26151.37
583.471	26042.82
583.669	25825.74
583.866	25842.12
584.064	25823.69
584.262	25395.67
584.459	25741.77
584.657	25641.42
584.854	25620.94
585.052	24947.16
585.249	25428.43
585.447	25424.34
585.644	24996.31
585.841	25004.5
586.039	25330.13
586.236	25014.74
586.434	24668.64
586.631	24783.32
586.828	25098.71
587.026	25102.81
587.223	24848.86
587.42	24541.66
587.618	24682.97
587.815	24484.32
588.012	24078.82
588.21	24166.88
588.407	24302.05
588.604	24205.8
588.801	23808.49
588.999	23826.92
589.196	23751.15
589.393	23820.78
589.59	23618.03
589.787	23443.95
589.984	23798.25
590.182	23509.49
590.379	23407.09
590.576	23327.22
590.773	23693.8
590.97	23427.57
591.167	23359.98
591.364	22815.23
591.561	23276.02
591.758	22929.91
591.955	22888.95
592.152	22899.19
592.349	22761.98
592.546	22974.97
592.743	22745.59
592.94	22557.18
593.137	22907.38
593.334	22602.24
593.531	22321.66
593.727	22438.4
593.924	22462.97
594.121	22413.82
594.318	22026.76
594.515	22006.28
594.712	22415.87
594.908	21873.16
595.105	21887.5
595.302	22002.18
595.499	22039.05
595.696	21916.17
595.892	21793.29
596.089	21584.4
596.286	21776.91
596.482	21174.8
596.679	21529.1
596.876	21613.07
597.072	21445.13
597.269	21549.58
597.466	20922.9
597.662	21047.83
597.859	21142.03
598.055	21207.57
598.252	20853.27
598.448	20660.76
598.645	20965.91
598.841	20372
599.038	20404.77
599.234	20630.04
599.431	20492.83
599.627	20410.91
599.824	20496.92
600.02	20714.01
600.217	20253.22
600.413	20109.86
600.609	20324.9
600.806	20161.06
601.002	20107.81
601.198	19927.59
601.395	19622.44
601.591	19790.38
601.787	20052.52
601.984	19573.29
602.18	20095.52
602.376	19505.71
602.572	19771.94
602.769	19632.68
602.965	19092.02
603.161	19540.52
603.357	19171.89
603.553	19069.49
603.75	19137.07
603.946	19143.22
604.142	19014.2
604.338	18870.84
604.534	19042.87
604.73	18702.9
604.926	18684.47
605.122	18551.35
605.318	18571.83
605.514	18418.24
605.71	18651.7
605.906	18500.16
606.102	18598.46
606.298	18559.55
606.494	18596.41
606.69	18352.7
606.886	18258.49
607.082	18016.83
607.278	18180.67
607.474	17787.46
607.67	18088.51
607.866	17918.53
608.062	18172.48
608.257	18027.07
608.453	17867.33
608.649	17973.83
608.845	17689.16
609.041	17951.3
609.236	17918.53
609.432	17762.89
609.628	17766.98
609.824	17427.02
610.019	17386.06
610.215	17578.57
610.411	17713.74
610.606	17424.97
610.802	17414.73
610.998	17535.56
611.193	17508.94
611.389	17310.29
611.584	17238.61
611.78	17089.1
611.976	17283.66
612.171	17105.49
612.367	17267.28
612.562	17113.68
612.758	16564.82
612.953	16829.01
613.149	17289.81
613.344	16695.89
613.539	16888.4
613.735	16620.12
613.93	16734.81
614.126	16493.15
614.321	17064.53
614.517	16888.4
614.712	16872.02
614.907	16564.82
615.103	16775.77
615.298	16450.14
615.493	16773.72
615.688	16439.9
615.884	16636.5
616.079	16321.12
616.274	16431.71
616.47	16351.84
616.665	16339.55
616.86	16210.53
617.055	16091.74
617.25	16153.18
617.445	16112.22
617.641	15888.99
617.836	15899.23
618.031	15882.85
618.226	16081.5
618.421	15669.86
618.616	16071.26
618.811	15778.4
619.006	15880.8
619.201	15438.44
619.396	15514.22
619.591	15176.3
619.786	15528.55
619.981	15311.47
620.176	15682.15
620.371	15340.14
620.566	15383.15
620.761	15127.15
620.956	15348.33
621.151	15012.46
621.346	15139.44
621.541	14803.57
621.735	14887.54
621.93	14606.97
622.125	14850.67
622.32	14572.15
622.515	14479.99
622.709	14504.57
622.904	14555.77
623.099	14463.61
623.294	14275.2
623.488	14285.44
623.683	14359.16
623.878	14129.79
624.072	14060.16
624.267	13894.27
624.462	13935.23
624.656	13605.51
624.851	13722.24
625.046	13470.34
625.24	13740.68
625.435	13351.56
625.629	13570.69
625.824	13312.65
626.018	13333.13
626.213	13103.76
626.407	13390.47
626.602	12978.83
626.796	13087.37
626.991	13060.75
627.185	12860.05
627.38	12702.36
627.574	12997.26
627.768	12585.62
627.963	12513.94
628.157	12612.24
628.352	12393.11
628.546	12223.13
628.74	12550.81
628.935	12120.73
629.129	12407.45
629.323	12018.33
629.517	12036.77
629.712	11870.88
629.906	11684.52
630.1	11868.83
630.294	11621.03
630.489	11709.09
630.683	11696.8
630.877	11438.76
631.071	11633.32
631.265	11711.14
631.459	11549.35
631.653	11319.98
631.848	11289.26
632.042	11303.59
632.236	11123.37
632.43	11176.62
632.624	11049.64
632.818	11053.74
633.012	11023.02
633.206	10937.01
633.4	10832.56
633.594	10582.71
633.788	10767.03
633.982	10519.22
634.176	10674.87
634.369	10668.72
634.563	10590.9
634.757	10566.32
634.951	10347.19
635.145	10369.72
635.339	10326.71
635.533	10349.24
635.726	10224.31
635.92	10128.06
636.114	10097.34
636.308	10017.47
636.501	10183.35
636.695	10150.59
636.889	9673.41
637.083	9816.77
637.276	9939.65
637.47	9724.61
637.664	9853.63
637.857	9597.63
638.051	9611.97
638.244	9446.09
638.438	9558.72
638.632	9308.87
638.825	9327.3
639.019	9431.75
639.212	9161.42
639.406	9429.7
639.599	9276.1
639.793	9095.88
639.986	8970.96
640.18	8913.61
640.373	9079.5
640.567	8915.66
640.76	8846.03
640.954	8858.32
641.147	8944.33
641.34	8858.32
641.534	8833.74
641.727	8542.93
641.92	8696.53
642.114	8534.74
642.307	8434.39
642.5	8557.27
642.694	8180.44
642.887	8325.85
643.08	8561.36
643.273	8231.64
643.467	8266.46
643.66	8182.49
643.853	8209.11
644.046	8024.79
644.239	8069.85
644.432	7920.35
644.626	7889.63
644.819	7891.68
645.012	8145.63
645.205	8094.43
645.398	7733.98
645.591	7936.73
645.784	7817.95
645.977	7535.33
646.17	7680.74
646.363	7715.55
646.556	7320.29
646.749	7465.7
646.942	7588.58
647.135	7498.47
647.328	7391.97
647.521	7434.98
647.714	7271.14
647.907	7299.81
648.099	7248.61
648.292	7361.25
648.485	7178.98
648.678	7242.47
648.871	7004.91
649.064	7054.06
649.256	7011.05
649.449	6839.02
649.642	6974.19
649.835	6853.36
650.027	6689.52
650.22	6808.3
650.413	6796.01
650.605	6888.17
650.798	6673.14
650.991	6576.88
651.183	6701.81
651.376	6648.56
651.568	6574.83
651.761	6570.74
651.954	6392.56
652.146	6494.96
652.339	6329.08
652.531	6275.83
652.724	6339.32
652.916	6331.12
653.109	6273.78
653.301	6189.81
653.494	6400.76
653.686	6214.39
653.879	6109.94
654.071	6222.58
654.263	6120.18
654.456	6101.75
654.648	6206.2
654.84	5831.42
655.033	6126.33
655.225	5939.96
655.417	5886.72
655.61	6011.64
655.802	5964.54
655.994	5864.19
656.186	5786.37
656.379	5790.46
656.571	5886.72
656.763	5630.72
656.955	5718.78
657.148	5825.28
657.34	5538.56
657.532	5536.51
657.724	5477.12
657.916	5524.23
658.108	5528.32
658.3	5487.36
658.492	5450.5
658.684	5370.63
658.876	5454.59
659.068	5212.93
659.26	5372.68
659.452	5176.07
659.644	5100.3
659.836	5255.94
660.028	5225.22
660.22	5131.02
660.412	5149.45
660.604	5059.34
660.796	5102.34
660.988	5001.99
661.18	4936.46
661.372	4961.03
661.563	5028.62
661.755	5049.1
661.947	4995.85
662.139	5018.38
662.331	4909.83
662.522	4815.63
662.714	4895.5
662.906	4948.75
663.097	4827.92
663.289	4731.66
663.481	4651.79
663.673	4645.65
663.864	4674.32
664.056	4627.21
664.247	4653.84
664.439	4700.94
664.631	4584.21
664.822	4567.82
665.014	4772.62
665.205	4469.52
665.397	4561.68
665.588	4582.16
665.78	4496.14
665.971	4537.1
666.163	4576.02
666.354	4354.83
666.546	4324.12
666.737	4387.6
666.929	4326.16
667.12	4293.4
667.311	4326.16
667.503	4234
667.694	4266.77
667.885	4227.86
668.077	4127.51
668.268	4135.7
668.459	4240.15
668.651	4121.37
668.842	4113.17
669.033	4201.24
669.224	3982.1
669.416	4107.03
669.607	3953.43
669.798	4086.55
669.989	3986.2
670.18	4039.45
670.371	4057.88
670.563	3908.38
670.754	4008.73
670.945	4035.35
671.136	3984.15
671.327	3848.99
671.518	3889.95
671.709	4057.88
671.9	3871.51
672.091	3871.51
672.282	3822.36
672.473	3853.08
672.664	3793.69
672.855	3842.84
673.046	3881.75
673.237	3881.75
673.428	3709.72
673.619	3832.6
673.809	3597.09
674	3719.96
674.191	3828.51
674.382	3654.43
674.573	3603.23
674.764	3711.77
674.954	3478.3
675.145	3711.77
675.336	3722.01
675.527	3670.81
675.717	3656.48
675.908	3607.33
676.099	3590.94
676.289	3582.75
676.48	3539.74
676.671	3453.73
676.861	3443.49
677.052	3457.82
677.243	3504.93
677.433	3500.83
677.624	3570.46
677.814	3451.68
678.005	3463.97
678.195	3455.78
678.386	3513.12
678.576	3384.1
678.767	3494.69
678.957	3470.11
679.148	3457.82
679.338	3369.76
679.529	3357.47
679.719	3306.27
679.909	3386.15
680.1	3349.28
680.29	3511.07
680.481	3449.63
680.671	3324.71
680.861	3310.37
681.052	3298.08
681.242	3283.75
681.432	3363.62
681.622	3271.46
681.813	3302.18
682.003	3394.34
682.193	3265.32
682.383	3304.23
682.573	3238.69
682.764	3167.01
682.954	3285.8
683.144	3238.69
683.334	3336.99
683.524	3287.84
683.714	3189.54
683.904	3162.92
684.094	3142.44
684.284	3117.86
684.474	3281.7
684.664	3214.12
684.854	3132.2
685.044	3121.96
685.234	3089.19
685.424	3136.29
685.614	3162.92
685.804	3081
685.994	3091.24
686.184	3121.96
686.374	3081
686.564	3050.28
686.753	3007.27
686.943	3162.92
687.133	3136.29
687.323	2962.22
687.513	2972.46
687.702	3046.18
687.892	2894.63
688.082	3001.13
688.272	2954.02
688.461	3046.18
688.651	3011.37
688.841	2933.54
689.03	2954.02
689.22	2874.15
689.41	2941.74
689.599	2974.5
689.789	2925.35
689.979	2917.16
690.168	2773.8
690.358	2874.15
690.547	2726.7
690.737	2849.58
690.926	2837.29
691.116	2612.01
691.305	2771.76
691.495	2683.69
691.684	2691.88
691.874	2743.08
692.063	2708.27
692.252	2816.81
692.442	2693.93
692.631	2548.53
692.82	2687.79
693.01	2675.5
693.199	2663.21
693.388	2595.63
693.578	2741.04
693.767	2689.84
693.956	2593.58
694.146	2681.64
694.335	2482.99
694.524	2573.1
694.713	2501.42
694.902	2460.46
695.092	2601.77
695.281	2515.76
695.47	2564.91
695.659	2630.45
695.848	2542.38
696.037	2497.33
696.226	2470.7
696.415	2450.22
696.604	2503.47
696.793	2435.89
696.982	2452.27
697.171	2495.28
697.36	2538.29
697.549	2413.36
697.738	2530.09
697.927	2532.14
698.116	2468.66
698.305	2380.59
698.494	2485.04
698.683	2372.4
698.872	2480.94
699.061	2331.44
699.25	2462.51
699.438	2491.18
699.627	2427.7
699.816	2376.5
700.005	2450.22
700.193	2364.21
700.382	2413.36
700.571	2349.87
700.76	2460.46
700.948	2458.42
701.137	2452.27
701.326	2521.9
701.514	2394.93
701.703	2429.74
701.892	2296.63
702.08	2454.32
702.269	2417.46
702.457	2382.64
702.646	2345.78
702.834	2313.01
703.023	2427.7
703.212	2382.64
703.4	2392.88
703.589	2470.7
703.777	2519.85
703.965	2405.17
704.154	2407.22
704.342	2243.38
704.531	2341.68
704.719	2292.53
704.907	2403.12
705.096	2396.98
705.284	2458.42
705.472	2358.07
705.661	2439.98
705.849	2386.74
706.037	2329.39
706.226	2302.77
706.414	2368.31
706.602	2339.63
706.79	2509.62
706.979	2339.63
707.167	2423.6
707.355	2315.06
707.543	2396.98
707.731	2421.55
707.919	2353.97
708.107	2325.3
708.296	2401.07
708.484	2321.2
708.672	2259.76
708.86	2353.97
709.048	2247.48
709.236	2302.77
709.424	2337.59
709.612	2319.15
709.8	2276.15
709.988	2251.57
710.176	2310.96
710.364	2374.45
710.551	2259.76
710.739	2396.98
710.927	2353.97
711.115	2243.38
711.303	2370.35
711.491	2384.69
711.679	2333.49
711.866	2247.48
712.054	2405.17
712.242	2390.83
712.43	2224.95
712.617	2319.15
712.805	2341.68
712.993	2247.48
713.181	2282.29
713.368	2345.78
713.556	2220.85
713.744	2177.84
713.931	2392.88
714.119	2489.14
714.306	2290.48
714.494	2317.11
714.682	2294.58
714.869	2255.67
715.057	2335.54
715.244	2290.48
715.432	2405.17
715.619	2126.64
715.807	2390.83
715.994	2392.88
716.182	2298.67
716.369	2229.04
716.556	2388.78
716.744	2132.79
716.931	2216.76
717.119	2331.44
717.306	2384.69
717.493	2161.46
717.681	2288.43
717.868	2224.95
718.055	2411.31
718.242	2300.72
718.43	2304.82
718.617	2437.94
718.804	2503.47
718.991	2351.92
719.179	2198.32
719.366	2220.85
719.553	2310.96
719.74	2351.92
719.927	2294.58
720.114	2370.35
720.301	2313.01
720.488	2227
720.676	2280.24
720.863	2300.72
721.05	2241.33
721.237	2257.71
721.424	2331.44
721.611	2315.06
721.798	2241.33
721.985	2284.34
722.172	2233.14
722.358	2247.48
722.545	2243.38
722.732	2327.35
722.919	2335.54
723.106	2218.8
723.293	2278.19
723.48	2274.1
723.667	2360.11
723.853	2341.68
724.04	2310.96
724.227	2304.82
724.414	2265.91
724.6	2274.1
724.787	2196.28
724.974	2319.15
725.161	2292.53
725.347	2214.71
725.534	2401.07
725.72	2280.24
725.907	2241.33
726.094	2255.67
726.28	2231.09
726.467	2179.89
726.653	2194.23
726.84	2274.1
727.027	2339.63
727.213	2267.95
727.4	2274.1
727.586	2313.01
727.773	2313.01
727.959	2276.15
728.145	2249.52
728.332	2327.35
728.518	2341.68
728.705	2294.58
728.891	2296.63
729.077	2274.1
729.264	2233.14
729.45	2214.71
729.636	2417.46
729.823	2313.01
730.009	2337.59
730.195	2407.22
730.382	2317.11
730.568	2235.19
730.754	2198.32
730.94	2315.06
731.126	2315.06
731.313	2267.95
731.499	2372.4
731.685	2241.33
731.871	2132.79
732.057	2351.92
732.243	2306.87
732.429	2239.28
732.615	2349.87
732.801	2200.37
732.987	2339.63
733.173	2302.77
733.359	2280.24
733.545	2179.89
733.731	2186.04
733.917	2222.9
734.103	2134.84
734.289	2165.56
734.475	2181.94
734.661	2356.02
734.847	2214.71
735.033	2243.38
735.219	2177.84
735.404	2202.42
735.59	2132.79
735.776	2153.27
735.962	2255.67
736.148	2161.46
736.333	2247.48
736.519	2198.32
736.705	2257.71
736.89	2304.82
737.076	2188.08
737.262	2083.64
737.447	2183.99
737.633	2224.95
737.819	2138.93
738.004	2229.04
738.19	2175.8
738.375	2104.12
738.561	2202.42
738.747	2169.65
738.932	2177.84
739.118	2116.41
739.303	2280.24
739.489	2126.64
739.674	2147.12
739.859	2186.04
740.045	2153.27
740.23	2167.6
740.416	2071.35
740.601	2134.84
740.786	2057.01
740.972	2044.73
741.157	2046.77
741.342	2052.92
741.528	2126.64
741.713	2177.84
741.898	2112.31
742.084	2038.58
742.269	1973.05
742.454	1977.14
742.639	1958.71
742.824	2038.58
743.01	2032.44
743.195	2126.64
743.38	2079.54
743.565	1966.9
743.75	1858.36
743.935	1968.95
744.12	2003.77
744.305	1977.14
744.49	1973.05
744.675	1962.81
744.86	1946.42
745.045	2050.87
745.23	1968.95
745.415	1975.1
745.6	1876.79
745.785	1909.56
745.97	1932.09
746.155	1891.13
746.34	1747.77
746.525	1893.18
746.71	1973.05
746.895	1893.18
747.079	1833.79
747.264	1841.98
747.449	1932.09
747.634	1762.11
747.819	1827.64
748.003	1809.21
748.188	1778.49
748.373	1899.32
748.557	1717.05
748.742	1749.82
748.927	1803.07
749.111	1739.58
749.296	1700.67
749.481	1772.35
749.665	1741.63
749.85	1622.84
750.034	1653.56
750.219	1665.85
750.404	1616.7
750.588	1635.13
750.773	1596.22
750.957	1600.32
751.141	1631.04
751.326	1727.29
751.51	1553.21
751.695	1549.12
751.879	1624.89
752.064	1499.97
752.248	1520.45
752.432	1489.73
752.617	1557.31
752.801	1536.83
752.985	1450.82
753.17	1463.1
753.354	1540.93
753.538	1592.13
753.722	1526.59
753.907	1514.3
754.091	1393.47
754.275	1444.67
754.459	1356.61
754.643	1446.72
754.828	1426.24
755.012	1420.1
755.196	1284.93
755.38	1434.43
755.564	1338.18
755.748	1442.62
755.932	1416
756.116	1383.23
756.3	1289.03
756.484	1309.51
756.668	1372.99
756.852	1237.83
757.036	1356.61
757.22	1295.17
757.404	1231.68
757.588	1409.86
757.772	1205.06
757.956	1233.73
758.14	1250.11
758.323	1162.05
758.507	1262.4
758.691	1157.96
758.875	1301.31
759.059	1291.07
759.242	1266.5
759.426	1297.22
759.61	1133.38
759.794	1231.68
759.977	1194.82
760.161	1192.77
760.345	1235.78
760.528	1141.57
760.712	1076.04
760.895	1182.53
761.079	1219.39
761.263	1170.24
761.446	1088.32
761.63	1110.85
761.813	1188.68
761.997	1186.63
762.18	1135.43
762.364	1178.44
762.547	1014.6
762.731	1080.13
762.914	1133.38
763.098	1084.23
763.281	1063.75
763.464	1094.47
763.648	1014.6
763.831	1121.09
764.015	1000.26
764.198	951.11
764.381	1053.51
764.564	975.69
764.748	1028.93
764.931	1018.69
765.114	1039.17
765.297	1047.37
765.481	973.64
765.664	1039.17
765.847	1026.89
766.03	1020.74
766.213	899.91
766.397	1114.95
766.58	965.45
766.763	967.49
766.946	996.17
767.129	949.06
767.312	928.58
767.495	891.72
767.678	910.15
767.861	987.97
768.044	1018.69
768.227	1033.03
768.41	873.29
768.593	1028.93
768.776	920.39
768.959	947.01
769.142	949.06
769.324	963.4
769.507	846.66
769.69	877.38
769.873	807.75
770.056	848.71
770.239	850.76
770.421	938.82
770.604	957.25
770.787	906.06
770.97	865.1
771.152	938.82
771.335	801.61
771.518	918.34
771.7	832.33
771.883	895.82
772.066	885.58
772.248	772.94
772.431	797.51
772.613	852.81
772.796	873.29
772.978	787.27
773.161	795.47
773.343	809.8
773.526	727.88
773.708	838.47
773.891	830.28
774.073	820.04
774.256	762.7
774.438	807.75
774.621	824.14
774.803	822.09
774.985	774.99
775.168	711.5
775.35	727.88
775.532	729.93
775.715	717.64
775.897	719.69
776.079	750.41
776.261	738.12
776.444	684.87
776.626	799.56
776.808	772.94
776.99	719.69
777.173	711.5
777.355	672.59
777.537	654.16
777.719	768.84
777.901	686.92
778.083	666.44
778.265	615.24
778.447	686.92
778.629	605
778.811	592.72
778.993	607.05
779.175	666.44
779.357	664.4
779.539	615.24
779.721	635.72
779.903	678.73
780.085	650.06
780.267	650.06
780.449	627.53
780.631	590.67
780.812	641.87
780.994	588.62
781.176	570.19
781.358	615.24
781.54	555.85
781.721	635.72
781.903	637.77
782.085	562
782.267	613.2
782.448	469.84
782.63	478.03
782.812	588.62
782.993	582.48
783.175	559.95
783.357	502.61
783.538	617.29
783.72	527.18
783.901	510.8
784.083	559.95
784.264	453.45
784.446	518.99
784.627	545.61
784.809	392.02
784.99	465.74
785.172	531.28
785.353	445.26
785.535	494.41
785.716	473.93
785.897	422.73
786.079	443.21
786.26	461.65
786.441	416.59
786.623	432.97
786.804	439.12
786.985	465.74
787.167	383.82
787.348	422.73
787.529	396.11
787.71	465.74
787.891	445.26
788.073	424.78
788.254	469.84
788.435	469.84
788.616	424.78
788.797	344.91
788.978	414.54
789.159	430.93
789.34	359.25
789.522	351.06
789.703	402.26
789.884	406.35
790.065	420.69
790.246	330.58
790.427	389.97
790.607	328.53
790.788	363.34
790.969	308.05
791.15	490.32
791.331	326.48
791.512	332.62
791.693	457.55
791.874	306
792.054	435.02
792.235	394.06
792.416	338.77
792.597	351.06
792.778	324.43
792.958	400.21
793.139	371.54
793.32	381.78
793.5	353.1
793.681	314.19
793.862	361.3
794.042	375.63
794.223	277.33
794.404	281.43
794.584	328.53
794.765	279.38
794.945	412.5
795.126	303.95
795.306	275.28
795.487	250.71
795.667	308.05
795.848	234.32
796.028	262.99
796.209	318.29
796.389	293.71
796.57	328.53
796.75	181.07
796.93	273.23
797.111	246.61
797.291	271.19
797.471	301.9
797.652	244.56
797.832	289.62
798.012	246.61
798.192	201.55
798.373	213.84
798.553	293.71
798.733	324.43
798.913	230.23
799.093	209.75
799.274	312.14
799.454	285.52
799.634	326.48
799.814	258.9
799.994	203.6
800.174	310.1
800.354	224.08
800.534	217.94
800.714	248.66
800.894	211.79
801.074	283.47
801.254	230.23
801.434	271.19
801.614	244.56
801.794	254.8
801.974	562
802.154	351.06
802.334	252.75
802.514	256.85
802.693	262.99
802.873	213.84
803.053	244.56
803.233	228.18
803.413	244.56
803.592	250.71
803.772	215.89
803.952	154.45
804.131	213.84
804.311	250.71
804.491	256.85
804.67	195.41
804.85	199.51
805.03	207.7
805.209	281.43
805.389	215.89
805.568	193.36
805.748	240.47
805.928	254.8
806.107	207.7
806.287	195.41
806.466	199.51
806.646	238.42
806.825	234.32
807.004	197.46
807.184	238.42
807.363	256.85
807.543	211.79
807.722	168.79
807.901	146.26
808.081	248.66
808.26	127.83
808.439	197.46
808.619	174.93
808.798	193.36
808.977	146.26
809.156	189.27
809.336	226.13
809.515	234.32
809.694	211.79
809.873	217.94
810.052	226.13
810.231	215.89
810.411	222.03
810.59	191.31
810.769	193.36
810.948	189.27
811.127	172.88
811.306	181.07
811.485	230.23
811.664	195.41
811.843	217.94
812.022	207.7
812.201	181.07
812.38	170.83
812.559	209.75
812.737	125.78
812.916	154.45
813.095	236.37
813.274	230.23
813.453	187.22
813.632	95.06
813.811	138.07
813.989	170.83
814.168	172.88
814.347	140.12
814.526	160.59
814.704	211.79
814.883	170.83
815.062	158.55
815.24	148.31
815.419	174.93
815.598	164.69
815.776	80.72
815.955	140.12
816.133	123.73
816.312	133.97
816.49	117.59
816.669	228.18
816.847	158.55
817.026	117.59
817.204	138.07
817.383	142.16
817.561	136.02
817.74	138.07
817.918	174.93
818.097	162.64
818.275	105.3
818.453	156.5
818.632	68.44
818.81	121.68
818.988	127.83
819.167	140.12
819.345	152.4
819.523	127.83
819.701	88.92
819.879	107.35
820.058	66.39
820.236	113.49
820.414	95.06
820.592	183.12
820.77	168.79
820.948	187.22
821.127	144.21
821.305	101.2
821.483	23.38
821.661	189.27
821.839	129.88
822.017	78.68
822.195	164.69
822.373	222.03
822.551	99.16
822.729	168.79
822.907	99.16
823.085	127.83
823.262	119.64
823.44	86.87
823.618	129.88
823.796	160.59
823.974	97.11
824.152	58.2
824.329	113.49
824.507	88.92
824.685	113.49
824.863	154.45
825.04	125.78
825.218	115.54
825.396	117.59
825.574	168.79
825.751	129.88
825.929	156.5
826.107	125.78
826.284	150.36
826.462	125.78
826.639	144.21
826.817	95.06
826.994	13.14
827.172	115.54
827.349	131.92
827.527	142.16
827.704	101.2
827.882	99.16
828.059	123.73
828.237	70.48
828.414	150.36
828.591	101.2
828.769	107.35
828.946	43.86
829.124	64.34
829.301	111.44
829.478	138.07
829.655	52.05
829.833	70.48
830.01	45.91
830.187	78.68
830.364	121.68
830.542	129.88
830.719	162.64
830.896	78.68
831.073	101.2
831.25	82.77
831.427	103.25
831.604	93.01
831.782	17.24
831.959	148.31
832.136	52.05
832.313	54.1
832.49	52.05
832.667	127.83
832.844	39.76
833.021	78.68
833.198	-9.39
833.374	52.05
833.551	68.44
833.728	119.64
833.905	66.39
834.082	129.88
834.259	105.3
834.436	56.15
834.612	62.29
834.789	109.4
834.966	140.12
835.143	80.72
835.319	45.91
835.496	68.44
835.673	101.2
835.85	76.63
836.026	52.05
836.203	113.49
836.38	2.9
836.556	64.34
836.733	117.59
836.909	78.68
837.086	101.2
837.262	76.63
837.439	43.86
837.616	58.2
837.792	78.68
837.968	41.81
838.145	45.91
838.321	-1.19
838.498	43.86
838.674	156.5
838.851	64.34
839.027	62.29
839.203	86.87
839.38	4.95
839.556	47.96
839.732	113.49
839.909	86.87
840.085	37.72
840.261	50
840.437	129.88
840.614	54.1
840.79	127.83
840.966	107.35
841.142	76.63
841.318	43.86
841.494	72.53
841.671	68.44
841.847	72.53
842.023	45.91
842.199	107.35
842.375	41.81
842.551	82.77
842.727	76.63
842.903	58.2
843.079	95.06
843.255	43.86
843.431	68.44
843.607	78.68
843.783	88.92
843.959	15.19
844.134	15.19
844.31	146.26
844.486	41.81
844.662	2.9
844.838	76.63
845.013	-17.58
845.189	50
845.365	95.06
845.541	123.73
845.716	103.25
845.892	62.29
846.068	72.53
846.244	35.67
846.419	23.38
846.595	-27.82
846.77	52.05
846.946	43.86
847.122	62.29
847.297	50
847.473	70.48
847.648	33.62
847.824	45.91
847.999	23.38
848.175	25.43
848.35	64.34
848.526	82.77
848.701	113.49
848.876	19.29
849.052	97.11
849.227	52.05
849.403	45.91
849.578	58.2
849.753	37.72
849.929	119.64
850.104	60.24
850.279	31.57
850.454	50
850.63	78.68
850.805	43.86
850.98	66.39
851.155	47.96
851.33	62.29
851.505	23.38
851.681	80.72
851.856	9.05
852.031	117.59
852.206	2.9
852.381	31.57
852.556	68.44
852.731	127.83
852.906	9.05
853.081	107.35
853.256	95.06
853.431	109.4
853.606	-52.39
853.781	39.76
853.956	2.9
854.131	62.29
854.305	37.72
854.48	-23.72
854.655	52.05
854.83	52.05
855.005	50
855.18	95.06
855.354	64.34
855.529	41.81
855.704	-3.24
855.879	97.11
856.053	58.2
856.228	115.54
856.403	-13.48
856.577	66.39
856.752	37.72
856.926	39.76
857.101	-1.19
857.276	11.09
857.45	131.92
857.625	9.05
857.799	-13.48
857.974	56.15
858.148	23.38
858.323	33.62
858.497	66.39
858.672	-15.53
858.846	15.19
859.02	78.68
859.195	15.19
859.369	-9.39
859.543	52.05
859.718	23.38
859.892	80.72
860.066	58.2
860.241	-23.72
860.415	-33.96
860.589	-40.11
860.763	31.57
860.938	21.33
861.112	37.72
861.286	7
861.46	39.76
861.634	-25.77
861.808	13.14
861.982	-27.82
862.157	43.86
862.331	4.95
862.505	52.05
862.679	7
862.853	111.44
863.027	60.24
863.201	103.25
863.375	19.29
863.549	39.76
863.722	50
863.896	68.44
864.07	13.14
864.244	58.2
864.418	88.92
864.592	-5.29
864.766	72.53
864.939	82.77
865.113	-15.53
865.287	58.2
865.461	52.05
865.634	23.38
865.808	101.2
865.982	52.05
866.156	-21.67
866.329	39.76
866.503	70.48
866.676	39.76
866.85	58.2
867.024	11.09
867.197	52.05
867.371	4.95
867.544	62.29
867.718	13.14
867.891	-21.67
868.065	-17.58
868.238	66.39
868.412	88.92
868.585	90.96
868.759	37.72
868.932	27.48
869.105	72.53
869.279	41.81
869.452	41.81
869.625	15.19
869.799	0.85
869.972	56.15
870.145	31.57
870.319	64.34
870.492	19.29
870.665	-1.19
870.838	27.48
871.011	-23.72
871.185	50
871.358	-52.39
871.531	31.57
871.704	2.9
871.877	13.14
872.05	2.9
872.223	11.09
872.396	27.48
872.569	97.11
872.742	2.9
872.915	7
873.088	45.91
873.261	72.53
873.434	-40.11
873.607	-11.43
873.78	-5.29
873.953	-11.43
874.126	56.15
874.299	7
874.471	-36.01
874.644	50
874.817	-11.43
874.99	56.15
875.163	0.85
875.335	-29.87
875.508	41.81
875.681	-1.19
875.853	23.38
876.026	-25.77
876.199	109.4
876.371	56.15
876.544	23.38
876.717	19.29
876.889	-44.2
877.062	25.43
877.234	13.14
877.407	-33.96
877.579	-27.82
877.752	0.85
877.924	7
878.097	60.24
878.269	-11.43
878.442	68.44
878.614	-3.24
878.786	33.62
878.959	25.43
879.131	4.95
879.303	4.95
879.476	41.81
879.648	-3.24
879.82	111.44
879.993	58.2
880.165	72.53
880.337	90.96
880.509	17.24
880.681	-62.63
880.854	7
881.026	60.24
881.198	45.91
881.37	2.9
881.542	17.24
881.714	-33.96
881.886	-29.87
882.058	47.96
882.23	21.33
882.402	-91.31
882.574	2.9
882.746	50
882.918	66.39
883.09	-13.48
883.262	41.81
883.434	23.38
883.606	-17.58
883.778	52.05
883.95	31.57
884.122	-9.39
884.293	27.48
884.465	31.57
884.637	21.33
884.809	-21.67
884.98	-9.39
885.152	-5.29
885.324	66.39
885.496	-60.59
885.667	56.15
885.839	27.48
886.011	39.76
886.182	-50.35
886.354	45.91
886.525	-29.87
886.697	-50.35
886.869	62.29
887.04	-17.58
887.212	-25.77
887.383	21.33
887.555	19.29
887.726	37.72
887.897	-3.24
888.069	9.05
888.24	-7.34
888.412	70.48
888.583	-21.67
888.754	47.96
888.926	25.43
889.097	21.33
889.268	-21.67
889.44	17.24
889.611	-38.06
889.782	0.85
889.953	62.29
890.125	80.72
890.296	-38.06
890.467	21.33
890.638	-13.48
890.809	19.29
890.98	-44.2
891.151	9.05
891.323	72.53
891.494	-7.34
891.665	-7.34
891.836	107.35
892.007	45.91
892.178	27.48
892.349	31.57
892.52	-11.43
892.691	-1.19
892.862	23.38
893.032	7
893.203	-9.39
893.374	17.24
893.545	29.52
893.716	29.52
893.887	72.53
894.057	54.1
894.228	-54.44
894.399	-40.11
894.57	-48.3
894.74	9.05
894.911	-36.01
895.082	29.52
895.253	0.85
895.423	15.19
895.594	45.91
895.764	-52.39
895.935	54.1
896.106	35.67
896.276	-25.77
896.447	-23.72
896.617	50
896.788	68.44
896.958	-3.24
897.129	-7.34
897.299	-1.19
897.47	50
897.64	54.1
897.81	-23.72
897.981	62.29
898.151	17.24
898.322	33.62
898.492	-27.82
898.662	-9.39
898.832	-5.29
899.003	31.57
899.173	7
899.343	-23.72
899.513	-1.19
