Data from USB4F104151__292__11-13-03-300.txt Node

Date: Wed Mar 12 11:13:03 EDT 2025
User: louis
Spectrometer: USB4F10415
Trigger mode: 4
Integration Time (sec): 2.000000E-2
Scans to average: 1
Electric dark correction enabled: true
Nonlinearity correction enabled: false
Boxcar width: 0
XAxis mode: Wavelengths
Number of Pixels in Spectrum: 3648
>>>>>Begin Spectral Data<<<<<
178.204	-82.43
178.424	-82.43
178.644	-82.43
178.864	-133.63
179.084	-47.62
179.304	-31.23
179.524	13.82
179.744	3.58
179.964	9.73
180.184	-18.94
180.404	-8.7
180.624	9.73
180.844	-23.04
181.064	-51.71
181.283	73.21
181.503	-8.7
181.723	32.26
181.943	7.68
182.163	40.45
182.383	26.11
182.602	9.73
182.822	69.12
183.042	-20.99
183.262	7.68
183.482	-14.85
183.701	105.98
183.921	36.35
184.141	19.97
184.361	67.07
184.58	-23.04
184.8	22.02
185.02	-10.75
185.239	-23.04
185.459	62.98
185.679	38.4
185.898	19.97
186.118	19.97
186.338	69.12
186.557	-18.94
186.777	22.02
186.997	-59.9
187.216	13.82
187.436	62.98
187.655	71.17
187.875	38.4
188.095	-16.9
188.314	24.06
188.534	15.87
188.753	-14.85
188.973	28.16
189.192	134.65
189.412	-35.33
189.631	-74.24
189.851	38.4
190.07	58.88
190.29	5.63
190.509	79.36
190.729	79.36
190.948	28.16
191.168	62.98
191.387	42.5
191.607	-31.23
191.826	-12.8
192.045	-18.94
192.265	-14.85
192.484	40.45
192.704	7.68
192.923	24.06
193.142	85.5
193.362	40.45
193.581	54.78
193.8	1.54
194.02	62.98
194.239	52.74
194.458	-59.9
194.678	-35.33
194.897	-18.94
195.116	-8.7
195.335	26.11
195.555	-14.85
195.774	93.69
195.993	26.11
196.212	60.93
196.432	30.21
196.651	32.26
196.87	40.45
197.089	101.89
197.308	13.82
197.528	40.45
197.747	7.68
197.966	5.63
198.185	83.45
198.404	44.54
198.623	-68.09
198.842	15.87
199.062	1.54
199.281	34.3
199.5	13.82
199.719	44.54
199.938	-51.71
200.157	54.78
200.376	65.02
200.595	-4.61
200.814	95.74
201.033	3.58
201.252	67.07
201.471	5.63
201.69	26.11
201.909	50.69
202.128	5.63
202.347	62.98
202.566	-12.8
202.785	-20.99
203.004	-29.18
203.223	87.55
203.442	15.87
203.661	83.45
203.879	89.6
204.098	-8.7
204.317	-2.56
204.536	54.78
204.755	46.59
204.974	42.5
205.193	54.78
205.411	110.08
205.63	26.11
205.849	-25.09
206.068	-29.18
206.287	58.88
206.505	36.35
206.724	81.41
206.943	-51.71
207.162	71.17
207.381	50.69
207.599	75.26
207.818	38.4
208.037	11.78
208.255	26.11
208.474	7.68
208.693	67.07
208.911	-14.85
209.13	17.92
209.349	50.69
209.567	54.78
209.786	108.03
210.005	28.16
210.223	81.41
210.442	-0.51
210.661	93.69
210.879	-29.18
211.098	44.54
211.316	30.21
211.535	-0.51
211.753	-27.14
211.972	48.64
212.191	-2.56
212.409	54.78
212.628	46.59
212.846	1.54
213.065	48.64
213.283	75.26
213.502	30.21
213.72	-64
213.938	15.87
214.157	-51.71
214.375	-0.51
214.594	-6.66
214.812	32.26
215.031	-27.14
215.249	-0.51
215.467	32.26
215.686	32.26
215.904	93.69
216.122	97.79
216.341	30.21
216.559	50.69
216.778	77.31
216.996	112.13
217.214	38.4
217.432	13.82
217.651	38.4
217.869	38.4
218.087	28.16
218.306	26.11
218.524	44.54
218.742	-31.23
218.96	85.5
219.179	5.63
219.397	60.93
219.615	24.06
219.833	89.6
220.051	17.92
220.27	71.17
220.488	46.59
220.706	91.65
220.924	79.36
221.142	9.73
221.36	7.68
221.578	17.92
221.796	3.58
222.015	28.16
222.233	-12.8
222.451	89.6
222.669	19.97
222.887	54.78
223.105	-31.23
223.323	7.68
223.541	-4.61
223.759	69.12
223.977	5.63
224.195	65.02
224.413	-0.51
224.631	95.74
224.849	71.17
225.067	148.99
225.285	5.63
225.503	7.68
225.721	13.82
225.939	-0.51
226.157	48.64
226.375	54.78
226.592	-8.7
226.81	105.98
227.028	44.54
227.246	48.64
227.464	-4.61
227.682	75.26
227.9	48.64
228.117	9.73
228.335	44.54
228.553	105.98
228.771	26.11
228.989	40.45
229.206	69.12
229.424	34.3
229.642	50.69
229.86	50.69
230.077	50.69
230.295	-10.75
230.513	-0.51
230.731	65.02
230.948	60.93
231.166	13.82
231.384	32.26
231.601	-29.18
231.819	38.4
232.037	42.5
232.254	-14.85
232.472	9.73
232.689	-8.7
232.907	56.83
233.125	34.3
233.342	3.58
233.56	67.07
233.777	83.45
233.995	34.3
234.213	58.88
234.43	71.17
234.648	-6.66
234.865	11.78
235.083	-0.51
235.3	38.4
235.518	95.74
235.735	13.82
235.953	62.98
236.17	52.74
236.388	22.02
236.605	19.97
236.822	62.98
237.04	103.93
237.257	-33.28
237.475	-25.09
237.692	15.87
237.909	-53.76
238.127	-2.56
238.344	-33.28
238.562	24.06
238.779	-31.23
238.996	40.45
239.214	19.97
239.431	11.78
239.648	32.26
239.865	24.06
240.083	81.41
240.3	79.36
240.517	11.78
240.735	69.12
240.952	97.79
241.169	50.69
241.386	44.54
241.603	30.21
241.821	15.87
242.038	62.98
242.255	50.69
242.472	-0.51
242.689	67.07
242.907	17.92
243.124	69.12
243.341	28.16
243.558	17.92
243.775	5.63
243.992	-64
244.209	5.63
244.426	126.46
244.643	54.78
244.86	65.02
245.078	1.54
245.295	-0.51
245.512	-23.04
245.729	50.69
245.946	52.74
246.163	30.21
246.38	71.17
246.597	46.59
246.814	-0.51
247.031	3.58
247.248	44.54
247.464	50.69
247.681	13.82
247.898	26.11
248.115	73.21
248.332	-16.9
248.549	124.41
248.766	73.21
248.983	103.93
249.2	42.5
249.417	28.16
249.633	83.45
249.85	44.54
250.067	36.35
250.284	24.06
250.501	3.58
250.717	114.17
250.934	-0.51
251.151	32.26
251.368	38.4
251.585	24.06
251.801	56.83
252.018	30.21
252.235	75.26
252.451	-33.28
252.668	3.58
252.885	120.32
253.102	30.21
253.318	40.45
253.535	1.54
253.752	69.12
253.968	50.69
254.185	-14.85
254.401	-16.9
254.618	65.02
254.835	13.82
255.051	136.7
255.268	1.54
255.484	38.4
255.701	50.69
255.917	15.87
256.134	40.45
256.351	24.06
256.567	54.78
256.784	87.55
257	54.78
257.217	75.26
257.433	77.31
257.65	38.4
257.866	58.88
258.082	-6.66
258.299	42.5
258.515	79.36
258.732	60.93
258.948	42.5
259.165	28.16
259.381	15.87
259.597	-20.99
259.814	85.5
260.03	44.54
260.246	-10.75
260.463	91.65
260.679	65.02
260.895	65.02
261.112	34.3
261.328	32.26
261.544	30.21
261.761	5.63
261.977	44.54
262.193	-43.52
262.409	60.93
262.626	79.36
262.842	17.92
263.058	56.83
263.274	73.21
263.49	-12.8
263.707	54.78
263.923	26.11
264.139	11.78
264.355	15.87
264.571	126.46
264.787	3.58
265.004	99.84
265.22	65.02
265.436	17.92
265.652	44.54
265.868	89.6
266.084	56.83
266.3	-35.33
266.516	19.97
266.732	52.74
266.948	-37.38
267.164	-10.75
267.38	58.88
267.596	93.69
267.812	79.36
268.028	83.45
268.244	38.4
268.46	60.93
268.676	17.92
268.892	58.88
269.108	-29.18
269.324	11.78
269.54	-20.99
269.756	24.06
269.972	28.16
270.188	114.17
270.403	19.97
270.619	19.97
270.835	3.58
271.051	26.11
271.267	-23.04
271.483	9.73
271.698	13.82
271.914	77.31
272.13	42.5
272.346	62.98
272.562	58.88
272.777	-0.51
272.993	19.97
273.209	-41.47
273.425	1.54
273.64	95.74
273.856	75.26
274.072	28.16
274.287	24.06
274.503	67.07
274.719	36.35
274.934	32.26
275.15	-27.14
275.366	-16.9
275.581	-6.66
275.797	24.06
276.012	-23.04
276.228	40.45
276.444	89.6
276.659	81.41
276.875	42.5
277.09	54.78
277.306	130.56
277.521	97.79
277.737	93.69
277.952	28.16
278.168	-4.61
278.383	77.31
278.599	60.93
278.814	97.79
279.03	19.97
279.245	67.07
279.461	89.6
279.676	-27.14
279.892	81.41
280.107	52.74
280.322	50.69
280.538	73.21
280.753	62.98
280.969	93.69
281.184	65.02
281.399	99.84
281.615	69.12
281.83	105.98
282.045	34.3
282.26	-4.61
282.476	-12.8
282.691	71.17
282.906	56.83
283.122	24.06
283.337	-14.85
283.552	73.21
283.767	-8.7
283.983	71.17
284.198	40.45
284.413	48.64
284.628	13.82
284.843	1.54
285.058	75.26
285.274	22.02
285.489	3.58
285.704	87.55
285.919	28.16
286.134	17.92
286.349	3.58
286.564	161.28
286.779	13.82
286.995	46.59
287.21	36.35
287.425	3.58
287.64	22.02
287.855	40.45
288.07	-8.7
288.285	34.3
288.5	22.02
288.715	44.54
288.93	26.11
289.145	-2.56
289.36	112.13
289.575	-4.61
289.79	-16.9
290.004	46.59
290.219	19.97
290.434	-18.94
290.649	19.97
290.864	77.31
291.079	-29.18
291.294	112.13
291.509	77.31
291.724	34.3
291.938	85.5
292.153	52.74
292.368	28.16
292.583	-53.76
292.798	77.31
293.012	52.74
293.227	-18.94
293.442	28.16
293.657	7.68
293.871	69.12
294.086	22.02
294.301	-6.66
294.516	11.78
294.73	46.59
294.945	-51.71
295.16	62.98
295.374	103.93
295.589	58.88
295.804	34.3
296.018	91.65
296.233	60.93
296.447	40.45
296.662	26.11
296.877	58.88
297.091	81.41
297.306	11.78
297.52	-27.14
297.735	56.83
297.949	7.68
298.164	81.41
298.378	24.06
298.593	-2.56
298.807	19.97
299.022	79.36
299.236	44.54
299.451	79.36
299.665	79.36
299.88	40.45
300.094	38.4
300.309	34.3
300.523	11.78
300.737	60.93
300.952	54.78
301.166	42.5
301.381	28.16
301.595	-47.62
301.809	-45.57
302.024	52.74
302.238	13.82
302.452	-4.61
302.667	60.93
302.881	67.07
303.095	46.59
303.309	48.64
303.524	30.21
303.738	69.12
303.952	36.35
304.166	69.12
304.381	15.87
304.595	46.59
304.809	11.78
305.023	42.5
305.237	56.83
305.452	105.98
305.666	56.83
305.88	83.45
306.094	71.17
306.308	19.97
306.522	13.82
306.736	71.17
306.95	110.08
307.164	1.54
307.379	52.74
307.593	17.92
307.807	85.5
308.021	50.69
308.235	54.78
308.449	44.54
308.663	40.45
308.877	44.54
309.091	36.35
309.305	140.8
309.519	-6.66
309.733	50.69
309.947	-18.94
310.161	87.55
310.374	-10.75
310.588	50.69
310.802	24.06
311.016	5.63
311.23	50.69
311.444	38.4
311.658	34.3
311.872	99.84
312.085	65.02
312.299	40.45
312.513	48.64
312.727	42.5
312.941	-0.51
313.154	126.46
313.368	22.02
313.582	126.46
313.796	11.78
314.009	95.74
314.223	22.02
314.437	56.83
314.651	30.21
314.864	54.78
315.078	58.88
315.292	50.69
315.505	30.21
315.719	17.92
315.933	-78.33
316.146	50.69
316.36	36.35
316.573	118.27
316.787	36.35
317.001	54.78
317.214	-14.85
317.428	26.11
317.641	-35.33
317.855	11.78
318.068	38.4
318.282	42.5
318.495	54.78
318.709	75.26
318.922	54.78
319.136	24.06
319.349	26.11
319.563	7.68
319.776	1.54
319.99	62.98
320.203	50.69
320.417	89.6
320.63	52.74
320.843	124.41
321.057	75.26
321.27	140.8
321.483	54.78
321.697	81.41
321.91	62.98
322.124	50.69
322.337	11.78
322.55	103.93
322.763	85.5
322.977	73.21
323.19	75.26
323.403	46.59
323.617	75.26
323.83	83.45
324.043	28.16
324.256	13.82
324.469	52.74
324.683	48.64
324.896	-33.28
325.109	-6.66
325.322	22.02
325.535	30.21
325.748	-14.85
325.962	50.69
326.175	54.78
326.388	116.22
326.601	95.74
326.814	22.02
327.027	19.97
327.24	62.98
327.453	32.26
327.666	1.54
327.879	126.46
328.092	85.5
328.305	69.12
328.518	95.74
328.731	62.98
328.944	5.63
329.157	3.58
329.37	26.11
329.583	15.87
329.796	101.89
330.009	60.93
330.222	87.55
330.435	91.65
330.648	40.45
330.861	3.58
331.073	60.93
331.286	40.45
331.499	44.54
331.712	46.59
331.925	93.69
332.138	-2.56
332.35	32.26
332.563	38.4
332.776	24.06
332.989	-4.61
333.202	5.63
333.414	1.54
333.627	58.88
333.84	34.3
334.053	75.26
334.265	32.26
334.478	75.26
334.691	54.78
334.903	52.74
335.116	28.16
335.329	75.26
335.541	48.64
335.754	17.92
335.966	34.3
336.179	54.78
336.392	-59.9
336.604	67.07
336.817	87.55
337.029	146.94
337.242	-6.66
337.454	40.45
337.667	79.36
337.88	103.93
338.092	-4.61
338.305	17.92
338.517	87.55
338.729	42.5
338.942	36.35
339.154	46.59
339.367	54.78
339.579	105.98
339.792	7.68
340.004	26.11
340.217	5.63
340.429	-12.8
340.641	89.6
340.854	-43.52
341.066	-76.29
341.278	103.93
341.491	-14.85
341.703	38.4
341.915	-27.14
342.128	71.17
342.34	101.89
342.552	-27.14
342.764	151.04
342.977	140.8
343.189	19.97
343.401	5.63
343.613	-23.04
343.826	46.59
344.038	69.12
344.25	60.93
344.462	19.97
344.674	32.26
344.886	56.83
345.099	30.21
345.311	73.21
345.523	38.4
345.735	132.61
345.947	-10.75
346.159	85.5
346.371	3.58
346.583	50.69
346.795	50.69
347.007	50.69
347.219	95.74
347.431	17.92
347.643	-4.61
347.855	73.21
348.067	15.87
348.279	73.21
348.491	-6.66
348.703	54.78
348.915	44.54
349.127	46.59
349.339	46.59
349.551	46.59
349.763	71.17
349.975	11.78
350.187	85.5
350.399	75.26
350.61	58.88
350.822	-27.14
351.034	22.02
351.246	17.92
351.458	48.64
351.669	28.16
351.881	24.06
352.093	42.5
352.305	85.5
352.517	116.22
352.728	69.12
352.94	71.17
353.152	56.83
353.363	77.31
353.575	67.07
353.787	79.36
353.999	93.69
354.21	62.98
354.422	62.98
354.633	67.07
354.845	44.54
355.057	50.69
355.268	89.6
355.48	5.63
355.692	62.98
355.903	97.79
356.115	114.17
356.326	62.98
356.538	105.98
356.749	73.21
356.961	11.78
357.172	36.35
357.384	-57.86
357.595	128.51
357.807	34.3
358.018	52.74
358.23	71.17
358.441	103.93
358.653	30.21
358.864	79.36
359.075	101.89
359.287	-12.8
359.498	79.36
359.709	136.7
359.921	75.26
360.132	1.54
360.344	42.5
360.555	22.02
360.766	77.31
360.977	22.02
361.189	34.3
361.4	69.12
361.611	67.07
361.823	46.59
362.034	5.63
362.245	-25.09
362.456	50.69
362.667	56.83
362.879	81.41
363.09	116.22
363.301	71.17
363.512	26.11
363.723	105.98
363.935	34.3
364.146	44.54
364.357	87.55
364.568	89.6
364.779	67.07
364.99	62.98
365.201	54.78
365.412	93.69
365.623	-10.75
365.834	122.37
366.045	11.78
366.256	36.35
366.467	44.54
366.678	67.07
366.889	26.11
367.1	34.3
367.311	48.64
367.522	62.98
367.733	42.5
367.944	112.13
368.155	73.21
368.366	79.36
368.577	42.5
368.788	87.55
368.999	34.3
369.209	7.68
369.42	75.26
369.631	42.5
369.842	81.41
370.053	105.98
370.264	85.5
370.474	9.73
370.685	44.54
370.896	46.59
371.107	112.13
371.317	3.58
371.528	19.97
371.739	62.98
371.95	77.31
372.16	56.83
372.371	32.26
372.582	69.12
372.792	17.92
373.003	87.55
373.214	73.21
373.424	116.22
373.635	60.93
373.846	52.74
374.056	34.3
374.267	62.98
374.477	36.35
374.688	71.17
374.898	46.59
375.109	15.87
375.319	91.65
375.53	81.41
375.74	91.65
375.951	134.65
376.161	77.31
376.372	97.79
376.582	69.12
376.793	46.59
377.003	30.21
377.214	44.54
377.424	36.35
377.635	34.3
377.845	26.11
378.055	40.45
378.266	75.26
378.476	56.83
378.686	52.74
378.897	-18.94
379.107	81.41
379.317	56.83
379.528	95.74
379.738	38.4
379.948	40.45
380.158	50.69
380.369	15.87
380.579	40.45
380.789	30.21
380.999	42.5
381.21	87.55
381.42	146.94
381.63	11.78
381.84	50.69
382.05	75.26
382.261	40.45
382.471	36.35
382.681	91.65
382.891	136.7
383.101	26.11
383.311	-6.66
383.521	65.02
383.731	42.5
383.941	105.98
384.151	-25.09
384.361	89.6
384.571	-27.14
384.781	81.41
384.991	69.12
385.201	69.12
385.411	17.92
385.621	26.11
385.831	103.93
386.041	52.74
386.251	50.69
386.461	67.07
386.671	71.17
386.881	56.83
387.091	5.63
387.301	126.46
387.511	81.41
387.72	50.69
387.93	91.65
388.14	75.26
388.35	48.64
388.56	62.98
388.769	42.5
388.979	34.3
389.189	-14.85
389.399	75.26
389.609	136.7
389.818	81.41
390.028	112.13
390.238	105.98
390.447	54.78
390.657	99.84
390.867	9.73
391.076	-6.66
391.286	-8.7
391.496	67.07
391.705	91.65
391.915	108.03
392.125	99.84
392.334	62.98
392.544	30.21
392.753	30.21
392.963	26.11
393.172	30.21
393.382	110.08
393.591	93.69
393.801	103.93
394.01	99.84
394.22	114.17
394.429	58.88
394.639	124.41
394.848	89.6
395.058	46.59
395.267	105.98
395.477	99.84
395.686	79.36
395.895	87.55
396.105	138.75
396.314	44.54
396.524	99.84
396.733	105.98
396.942	97.79
397.152	99.84
397.361	38.4
397.57	71.17
397.78	126.46
397.989	116.22
398.198	218.62
398.407	116.22
398.617	167.42
398.826	93.69
399.035	108.03
399.244	169.47
399.453	171.52
399.663	112.13
399.872	124.41
400.081	130.56
400.29	77.31
400.499	181.76
400.708	138.75
400.917	71.17
401.127	179.71
401.336	136.7
401.545	116.22
401.754	124.41
401.963	140.8
402.172	136.7
402.381	132.61
402.59	103.93
402.799	69.12
403.008	187.9
403.217	50.69
403.426	128.51
403.635	91.65
403.844	132.61
404.053	110.08
404.262	171.52
404.471	218.62
404.68	196.09
404.888	181.76
405.097	181.76
405.306	153.09
405.515	187.9
405.724	237.05
405.933	136.7
406.142	226.81
406.35	216.57
406.559	171.52
406.768	230.91
406.977	224.76
407.185	235
407.394	249.34
407.603	185.85
407.812	206.33
408.02	235
408.229	251.39
408.438	239.1
408.646	235
408.855	294.4
409.064	271.87
409.272	298.49
409.481	296.44
409.69	267.77
409.898	347.64
410.107	402.94
410.315	314.88
410.524	407.03
410.733	349.69
410.941	351.74
411.15	355.83
411.358	353.79
411.567	407.03
411.775	396.79
411.984	398.84
412.192	421.37
412.401	511.48
412.609	447.99
412.818	548.34
413.026	482.81
413.234	519.67
413.443	628.21
413.651	607.73
413.86	523.77
414.068	656.89
414.276	601.59
414.485	681.46
414.693	736.76
414.901	732.66
415.11	734.71
415.318	736.76
415.526	833.01
415.734	808.44
415.943	724.47
416.151	861.68
416.359	822.77
416.567	818.68
416.776	873.97
416.984	871.92
417.192	988.66
417.4	1041.9
417.608	966.13
417.817	1052.14
418.025	1080.82
418.233	1172.97
418.441	1218.03
418.649	1261.04
418.857	1279.47
419.065	1353.2
419.273	1287.66
419.481	1418.73
419.689	1494.51
419.897	1605.1
420.105	1668.58
420.313	1711.59
420.521	1684.97
420.729	1709.54
420.937	1775.08
421.145	1877.48
421.353	2037.22
421.561	2029.03
421.769	1871.33
421.977	2117.09
422.185	2217.44
422.393	2164.19
422.601	2295.26
422.809	2405.85
423.017	2407.9
423.224	2508.25
423.432	2627.03
423.64	2706.9
423.848	2876.88
424.056	2809.3
424.263	3003.86
424.471	3077.59
424.679	3055.06
424.887	3175.89
425.094	3192.27
425.302	3278.29
425.51	3380.68
425.718	3550.67
425.925	3481.03
426.133	3651.02
426.341	4003.27
426.548	4056.51
426.756	4042.18
426.964	4152.77
427.171	4384.19
427.379	4470.2
427.586	4560.31
427.794	4736.44
428.001	4806.07
428.209	5168.56
428.417	4961.72
428.624	5547.44
428.832	5510.57
429.039	5275.06
429.247	5305.78
429.454	5832.1
429.662	6319.52
429.869	5789.1
430.076	6204.83
430.284	6170.02
430.491	6442.4
430.699	6655.39
430.906	6778.26
431.114	6847.9
431.321	7255.44
431.528	7253.39
431.736	7679.37
431.943	7871.88
432.15	7712.14
432.358	7849.35
432.565	8435.07
432.772	8406.4
432.979	8856.95
433.187	8809.85
433.394	8795.51
433.601	9706.86
433.808	9477.49
434.016	9543.02
434.223	9772.39
434.43	10583.39
434.637	10251.62
434.844	10943.83
435.052	11122.01
435.259	10941.79
435.466	11339.09
435.673	11009.37
435.88	11775.31
436.087	12281.16
436.294	12295.49
436.501	12158.28
436.708	12340.55
436.915	12725.57
437.122	13395.25
437.329	13671.73
437.537	13466.93
437.743	14003.5
437.95	13958.44
438.157	14429.48
438.364	14912.8
438.571	15242.52
438.778	15033.63
438.985	16522.5
439.192	15715.6
439.399	16225.54
439.606	15590.67
439.813	16659.71
440.02	17927.41
440.227	17743.09
440.433	17546.48
440.64	17984.75
440.847	17710.32
441.054	18257.13
441.261	19576.02
441.467	19160.28
441.674	19651.8
441.881	20571.33
442.088	20192.46
442.294	20006.09
442.501	20675.78
442.708	21157.05
442.914	21707.96
443.121	22850.72
443.328	22207.66
443.534	23614.62
443.741	23002.27
443.948	22967.46
444.154	24394.89
444.361	24319.12
444.568	24634.5
444.774	24325.26
444.981	24947.84
445.187	25621.63
445.394	26260.59
445.6	26084.47
445.807	28515.4
446.013	27669.59
446.22	27886.68
446.426	29086.79
446.633	29588.54
446.839	30241.84
447.046	29332.54
447.252	30379.06
447.459	30139.44
447.665	30321.71
447.871	31962.14
448.078	33039.37
448.284	31099.94
448.491	32562.19
448.697	33977.34
448.903	34499.57
449.11	34251.77
449.316	33684.48
449.522	34505.71
449.728	35017.71
449.935	35482.59
450.141	35222.5
450.347	36117.46
450.553	34841.58
450.76	35372
450.966	36615.12
451.172	36152.28
451.378	36785.1
451.584	36244.44
451.791	37358.53
451.997	37161.93
452.203	37559.23
452.409	37268.42
452.615	37505.99
452.821	35941.34
453.027	35773.41
453.233	37342.15
453.44	35808.22
453.646	36393.94
453.852	36658.13
454.058	37051.34
454.264	35886.04
454.47	36778.96
454.676	35812.32
454.882	37065.67
455.088	33815.55
455.294	34003.96
455.5	34843.63
455.705	35216.36
455.911	33788.92
456.117	33100.81
456.323	32373.78
456.529	30686.25
456.735	32093.21
456.941	31267.87
457.147	30684.2
457.352	29924.41
457.558	29754.43
457.764	29598.78
457.97	28824.65
458.176	28453.97
458.381	28527.69
458.587	27100.26
458.793	27034.72
458.999	25533.56
459.204	27628.63
459.41	26899.56
459.616	25347.2
459.821	25320.57
460.027	24892.55
460.233	24329.36
460.438	23006.37
460.644	23426.2
460.85	22373.55
461.055	22072.5
461.261	21972.14
461.466	20647.11
461.672	19991.76
461.878	21105.85
462.083	19985.62
462.289	19461.34
462.494	19168.48
462.7	18142.44
462.905	18091.24
463.111	18619.62
463.316	18617.57
463.522	18259.18
463.727	18210.03
463.932	18093.29
464.138	18103.53
464.343	18076.91
464.549	17540.34
464.754	18277.61
464.959	17779.95
465.165	17546.48
465.37	17247.48
465.575	16663.81
465.781	17196.28
465.986	17724.66
466.191	16747.78
466.397	16403.72
466.602	15768.85
466.807	16176.39
467.012	16258.31
467.218	16043.28
467.423	15766.8
467.628	16141.58
467.833	16971.01
468.038	16149.77
468.244	15605.01
468.449	16438.53
468.654	15756.56
468.859	15633.68
469.064	15412.5
469.269	15084.83
469.474	15121.69
469.679	15387.93
469.885	15088.92
470.09	15164.7
470.295	14826.78
470.5	14703.9
470.705	14787.87
470.91	14308.65
471.115	14468.39
471.32	14298.41
471.525	14419.24
471.73	13843.76
471.935	13866.28
472.139	13385.01
472.344	13335.86
472.549	13657.39
472.754	13292.85
472.959	13088.06
473.164	13090.1
473.369	12950.84
473.574	13182.26
473.778	12870.97
473.983	12901.69
474.188	12997.95
474.393	12232.01
474.598	12334.4
474.802	12248.39
475.007	12016.97
475.212	12168.52
475.417	11820.36
475.621	11629.9
475.826	11769.16
476.031	11349.33
476.235	11253.08
476.44	11197.78
476.645	11236.69
476.849	11472.21
477.054	11181.4
477.259	10888.54
477.463	10792.28
477.668	10630.49
477.872	10876.25
478.077	10638.69
478.282	10401.12
478.486	10452.32
478.691	10241.38
478.895	10114.41
479.1	10145.13
479.304	10179.94
479.509	9874.79
479.713	9987.43
479.918	9907.56
480.122	9547.12
480.326	9899.37
480.531	9848.17
480.735	9835.88
480.94	9514.35
481.144	9848.17
481.348	9518.45
481.553	9629.04
481.757	9297.27
481.961	9649.52
482.166	9647.47
482.37	9524.59
482.574	9383.28
482.778	9366.9
482.983	9704.81
483.187	9500.02
483.391	9477.49
483.595	9381.23
483.8	9299.31
484.004	9432.43
484.208	9338.23
484.412	9508.21
484.616	9436.53
484.821	9399.66
485.025	9254.26
485.229	9622.89
485.433	9370.99
485.637	9430.38
485.841	9467.25
486.045	9432.43
486.249	9299.31
486.453	9303.41
486.657	9325.94
486.861	9536.88
487.065	9203.06
487.269	9291.12
487.473	9260.4
487.677	9426.29
487.881	9391.47
488.085	9305.46
488.289	9383.28
488.493	9422.19
488.697	9602.41
488.901	9487.73
489.105	9299.31
489.309	9729.39
489.512	9534.83
489.716	9518.45
489.92	9428.34
490.124	9223.54
490.328	9567.6
490.531	9618.8
490.735	9543.02
490.939	9743.72
491.143	9389.42
491.346	9696.62
491.55	9696.62
491.754	9848.17
491.958	9710.96
492.161	9702.76
492.365	9907.56
492.569	9962.86
492.772	9799.02
492.976	10055.01
493.18	10145.13
493.383	9766.25
493.587	10251.62
493.79	10239.33
493.994	10184.04
494.197	10347.87
494.401	10253.67
494.605	10339.68
494.808	10702.17
495.012	10605.92
495.215	10466.66
495.419	10616.16
495.622	10653.02
495.825	10919.26
496.029	10898.78
496.232	10999.13
496.436	11097.43
496.639	11318.61
496.843	11228.5
497.046	11539.79
497.249	11453.78
497.453	11787.6
497.656	11711.82
497.859	11717.97
498.063	11818.32
498.266	12223.81
498.469	12137.8
498.673	12211.53
498.876	12315.97
499.079	12758.33
499.282	12545.34
499.485	12901.69
499.689	12954.94
499.892	13221.17
500.095	13061.43
500.298	13481.27
500.501	13247.8
500.705	13759.79
500.908	13942.06
501.111	14241.06
501.314	14112.04
501.517	14015.79
501.72	14396.71
501.923	14363.94
502.126	14570.79
502.329	14826.78
502.532	14865.69
502.735	15131.93
502.938	15613.2
503.141	15166.74
503.344	15543.57
503.547	15664.4
503.75	15981.84
503.953	16129.29
504.156	16352.52
504.359	16166.15
504.562	16459.01
504.765	16770.3
504.968	16874.75
505.17	17114.36
505.373	17405.17
505.576	17782
505.779	17702.13
505.982	17968.37
506.185	18380.01
506.387	18035.95
506.59	18339.05
506.793	18312.42
506.996	18648.29
507.198	19270.87
507.401	19037.41
507.604	19217.63
507.807	19664.08
508.009	19692.76
508.212	19801.3
508.415	20231.37
508.617	20360.39
508.82	20354.25
509.022	20325.58
509.225	20980.93
509.428	21130.43
509.63	21331.13
509.833	21241.02
510.035	21910.71
510.238	21957.81
510.44	22123.69
510.643	22365.35
510.845	22422.7
511.048	22594.73
511.25	22684.84
511.453	22973.6
511.655	23813.27
511.858	23766.17
512.06	23807.12
512.262	23696.53
512.465	24075.41
512.667	24353.93
512.87	24644.74
513.072	24673.42
513.274	24956.04
513.477	25199.74
513.679	25498.75
513.881	25832.57
514.084	25984.12
514.286	25842.81
514.488	26498.16
514.69	26848.36
514.893	26702.95
515.095	27087.97
515.297	27221.09
515.499	27376.73
515.701	27530.33
515.904	28392.53
516.106	28126.29
516.308	28474.45
516.51	28644.43
516.712	28853.32
516.914	29135.94
517.116	29701.18
517.318	29979.7
517.52	30026.81
517.722	30014.52
517.925	30366.77
518.127	30886.95
518.329	30592.05
518.531	30657.58
518.733	31351.84
518.935	31484.96
519.136	31372.32
519.338	32066.58
519.54	32191.51
519.742	32824.33
519.944	32838.67
520.146	32830.48
520.348	33121.29
520.55	33291.27
520.752	33725.44
520.954	33862.65
521.155	33635.33
521.357	33934.33
521.559	34677.74
521.761	34966.51
521.963	35027.95
522.164	35021.8
522.366	34939.88
522.568	35818.46
522.77	35775.45
522.971	36072.41
523.173	35927
523.375	36447.19
523.576	36377.56
523.778	36506.58
523.98	37141.45
524.181	37155.79
524.383	37311.43
524.584	37897.15
524.786	37624.77
524.988	37585.86
525.189	37989.31
525.391	38151.1
525.592	38501.3
525.794	38687.67
525.995	38359.99
526.197	39209.9
526.398	39160.75
526.6	39127.98
526.801	39328.68
527.003	39574.44
527.204	39394.21
527.406	39576.48
527.607	39496.61
527.808	39924.64
528.01	39373.74
528.211	39781.28
528.412	40319.9
528.614	39988.13
528.815	40311.7
529.016	40561.56
529.218	40307.61
529.419	40379.29
529.62	40614.8
529.822	40485.78
530.023	40721.3
530.224	40770.45
530.425	40752.02
530.626	40668.05
530.828	40061.85
531.029	41333.64
531.23	40704.91
531.431	40610.71
531.632	41313.16
531.833	41028.49
532.035	41321.35
532.236	41233.29
532.437	41261.96
532.638	41003.92
532.839	41589.64
533.04	41431.94
533.241	40844.18
533.442	41712.52
533.643	41540.49
533.844	41290.63
534.045	41788.29
534.246	41307.02
534.447	41806.72
534.648	41409.42
534.849	41528.2
535.05	41151.37
535.251	41679.75
535.451	41470.86
535.652	41495.43
535.853	41298.83
536.054	41417.61
536.255	41380.74
536.456	41118.6
536.657	41868.16
536.857	41517.96
537.058	41341.83
537.259	41745.28
537.46	41737.09
537.66	41491.33
537.861	42044.29
538.062	41730.95
538.263	41700.23
538.463	41333.64
538.664	41386.89
538.865	41806.72
539.065	41884.54
539.266	41442.18
539.466	41585.54
539.667	41218.96
539.868	41864.07
540.068	41536.39
540.269	41612.17
540.469	41622.4
540.67	41696.13
540.87	41456.52
541.071	41053.07
541.271	41765.76
541.472	41061.26
541.672	41337.74
541.873	41409.42
542.073	40995.73
542.274	41882.5
542.474	41550.73
542.675	41100.17
542.875	41448.33
543.075	41485.19
543.276	41137.04
543.476	41466.76
543.676	40835.98
543.877	41665.41
544.077	40995.73
544.277	40995.73
544.478	41053.07
544.678	41696.13
544.878	40932.24
545.078	41139.08
545.279	41022.35
545.479	41325.45
545.679	41378.7
545.879	40932.24
546.079	40958.86
546.28	41098.12
546.48	41141.13
546.68	41032.59
546.88	41134.99
547.08	41167.76
547.28	40803.22
547.48	40852.37
547.68	41139.08
547.88	40934.29
548.081	40917.9
548.281	40977.29
548.481	41003.92
548.681	41587.59
548.881	40934.29
549.081	40825.75
549.28	40573.84
549.48	41159.56
549.68	40905.62
549.88	41243.53
550.08	40835.98
550.28	40831.89
550.48	40416.15
550.68	41227.15
550.88	40749.97
551.08	41118.6
551.279	40827.79
551.479	40668.05
551.679	40618.9
551.879	40483.73
552.079	40893.33
552.278	40280.99
552.478	40919.95
552.678	40926.1
552.878	40795.03
553.077	40463.25
553.277	40770.45
553.477	41112.46
553.676	40674.2
553.876	40639.38
554.076	40436.63
554.275	40221.59
554.475	40070.04
554.674	40428.44
554.874	40620.95
555.074	40709.01
555.273	40682.39
555.473	40235.93
555.672	40326.04
555.872	40260.51
556.071	40369.05
556.271	40502.17
556.47	40147.87
556.67	39734.18
556.869	39990.17
557.068	40262.55
557.268	40080.28
557.467	39852.96
557.667	40471.45
557.866	39889.82
558.065	39547.81
558.265	39738.27
558.464	39408.55
558.663	40108.96
558.863	39426.98
559.062	40360.86
559.261	39195.56
559.461	39682.98
559.66	39064.49
559.859	39650.21
560.058	39185.32
560.258	39383.98
560.457	39472.04
560.656	39619.49
560.855	39310.25
561.054	39441.32
561.253	38798.26
561.453	39267.24
561.652	38767.54
561.851	39048.11
562.05	38998.96
562.249	38853.55
562.448	38912.94
562.647	38843.31
562.846	38679.47
563.045	38544.31
563.244	38226.87
563.443	38939.57
563.642	38337.46
563.841	38912.94
564.04	38306.74
564.239	38857.65
564.438	38263.74
564.637	38587.32
564.836	38210.49
565.035	37694.4
565.234	38286.26
565.432	37850.05
565.631	37843.9
565.83	37645.25
566.029	37704.64
566.228	37534.66
566.427	37440.45
566.625	37342.15
566.824	37243.85
567.023	37522.37
567.222	36873.17
567.42	37606.34
567.619	37153.74
567.818	37276.62
568.016	37118.92
568.215	37387.21
568.414	36748.24
568.612	37428.16
568.811	37088.2
569.01	37092.3
569.208	36293.59
569.407	36756.43
569.605	36090.84
569.804	36946.89
570.002	36127.7
570.201	36436.95
570.4	36299.73
570.598	36111.32
570.797	35720.16
570.995	36105.18
571.193	35980.25
571.392	35922.91
571.59	35736.54
571.789	35820.51
571.987	35675.1
572.186	35671.01
572.384	35093.48
572.582	35484.64
572.781	35845.09
572.979	34991.08
573.177	35316.71
573.376	35257.32
573.574	34690.03
573.772	35191.78
573.971	34778.09
574.169	34714.61
574.367	34458.61
574.565	34946.03
574.763	34380.79
574.962	34106.36
575.16	34542.58
575.358	34509.81
575.556	34139.13
575.754	34538.48
575.952	33850.36
576.151	34669.55
576.349	33842.17
576.547	33803.26
576.745	33965.05
576.943	33899.51
577.141	33672.19
577.339	33543.17
577.537	33659.9
577.735	33666.05
577.933	33215.49
578.131	33399.81
578.329	32982.02
578.527	33203.21
578.725	32590.86
578.923	33278.98
579.121	32810
579.319	33109
579.516	33180.68
579.714	33041.42
579.912	32457.74
580.11	32816.14
580.308	32513.04
580.506	32547.86
580.704	32160.79
580.901	32654.35
581.099	32441.36
581.297	31955.99
581.495	31843.35
581.692	32033.82
581.89	31579.17
582.088	32457.74
582.285	31595.55
582.483	31792.15
582.681	31622.17
582.878	31415.33
583.076	31073.32
583.274	31894.55
583.471	31081.51
583.669	31370.27
583.866	31009.83
584.064	31071.27
584.262	30921.77
584.459	30929.96
584.657	30966.82
584.854	30856.23
585.052	30336.05
585.249	30989.35
585.447	30602.29
585.644	30186.55
585.841	30254.13
586.039	30692.4
586.236	30075.96
586.434	30164.02
586.631	30065.72
586.828	29645.88
587.026	30059.57
587.223	29840.44
587.42	29889.59
587.618	29762.62
587.815	29506.62
588.012	29692.99
588.21	29523.01
588.407	29850.68
588.604	29160.52
588.801	29314.11
588.999	29226.05
589.196	29058.12
589.393	29066.31
589.59	28941.38
589.787	28849.22
589.984	28746.83
590.182	28712.01
590.379	28851.27
590.576	28361.81
590.773	28529.74
590.97	28394.57
591.167	28722.25
591.364	28234.83
591.561	28261.46
591.758	28116.05
591.955	27960.41
592.152	28165.2
592.349	27692.12
592.546	27935.83
592.743	27862.1
592.94	27434.08
593.137	27743.32
593.334	27483.23
593.531	26856.55
593.727	27364.45
593.924	27495.52
594.121	26815.59
594.318	27225.18
594.515	26909.8
594.712	27051.11
594.908	26735.72
595.105	26852.45
595.302	26313.84
595.499	26522.73
595.696	26639.47
595.892	26426.48
596.089	26844.26
596.286	26469.48
596.482	26276.98
596.679	26262.64
596.876	26238.06
597.072	26014.84
597.269	25834.61
597.466	25848.95
597.662	25805.94
597.859	25652.34
598.055	25771.13
598.252	25785.46
598.448	25756.79
598.645	25529.47
598.841	25316.48
599.038	25402.49
599.234	25267.33
599.431	25136.26
599.627	25060.48
599.824	25314.43
600.02	24794.25
600.217	24851.59
600.413	24802.44
600.609	24474.76
600.806	24616.07
601.002	25021.57
601.198	24796.29
601.395	24458.38
601.591	24355.98
601.787	24745.09
601.984	24198.29
602.18	24487.05
602.376	23852.18
602.572	23882.9
602.769	24128.66
602.965	23907.48
603.161	23956.63
603.357	23766.17
603.553	23528.6
603.75	23493.79
603.946	23477.4
604.142	23307.42
604.338	23245.98
604.534	23327.9
604.73	23012.51
604.926	23221.41
605.122	23430.3
605.318	23332
605.514	23010.46
605.71	23223.45
605.906	22733.99
606.102	22873.25
606.298	22680.74
606.494	22822.05
606.69	22697.13
606.886	22834.34
607.082	22398.12
607.278	22611.11
607.474	22054.06
607.67	22723.75
607.866	22011.06
608.062	22824.1
608.257	21988.53
608.453	21980.34
608.649	22045.87
608.845	22074.54
609.041	21841.07
609.236	22211.76
609.432	21431.48
609.628	22031.54
609.824	21884.08
610.019	21742.77
610.215	21961.9
610.411	22162.61
610.606	21544.12
610.802	21877.94
610.998	21660.85
611.193	21662.9
611.389	21347.51
611.584	21595.32
611.78	21449.91
611.976	21337.27
612.171	21587.13
612.367	21433.53
612.562	21173.44
612.758	21021.89
612.953	21023.94
613.149	21527.74
613.344	20819.14
613.539	21324.99
613.735	20765.89
613.93	21048.51
614.126	20919.49
614.321	21148.86
614.517	21085.37
614.712	21005.5
614.907	20653.25
615.103	20853.95
615.298	20722.88
615.493	21028.03
615.688	20573.38
615.884	20774.08
616.079	20501.7
616.274	20563.14
616.47	20688.07
616.665	20307.15
616.86	20675.78
617.055	20376.78
617.25	20372.68
617.445	20540.61
617.641	20137.16
617.836	20169.93
618.031	20264.14
618.226	20276.43
618.421	20126.92
618.616	20372.68
618.811	19979.47
619.006	20286.67
619.201	19709.14
619.396	19819.73
619.591	19389.66
619.786	19528.92
619.981	19115.23
620.176	19465.43
620.371	19395.8
620.566	19371.22
620.761	19100.89
620.956	19373.27
621.151	18754.79
621.346	18955.49
621.541	18773.22
621.735	18842.85
621.93	18590.95
622.125	18666.72
622.32	18195.69
622.515	18666.72
622.709	18492.65
622.904	18420.97
623.099	18504.93
623.294	18097.39
623.488	17947.89
623.683	17868.02
623.878	17806.58
624.072	17884.4
624.267	17648.88
624.462	17583.35
624.656	17204.47
624.851	17423.61
625.046	17087.74
625.24	17286.39
625.435	16862.46
625.629	17026.3
625.824	16913.66
626.018	16860.41
626.213	16555.27
626.407	16874.75
626.602	16311.56
626.796	16710.91
626.991	16598.27
627.185	16282.89
627.38	16373
627.574	16016.65
627.768	15883.53
627.963	15871.25
628.157	15969.55
628.352	15719.7
628.546	15774.99
628.74	15922.45
628.935	15496.47
629.129	15498.52
629.323	15385.88
629.517	15498.52
629.712	15035.67
629.906	15258.9
630.1	15025.43
630.294	14957.85
630.489	14935.32
630.683	14816.54
630.877	14822.69
631.071	14593.31
631.265	14595.36
631.459	14486.82
631.653	14406.95
631.848	14284.07
632.042	14341.41
632.236	14267.69
632.43	14005.55
632.624	14271.78
632.818	13899.05
633.012	13501.75
633.206	13923.63
633.4	13878.57
633.594	13532.47
633.788	13724.97
633.982	13489.46
634.176	13415.73
634.369	13686.06
634.563	13327.67
634.757	13385.01
634.951	13385.01
635.145	13151.54
635.339	13118.78
635.533	13038.91
635.726	13153.59
635.92	12959.03
636.114	12977.47
636.308	12733.76
636.501	12637.5
636.695	12787
636.889	12508.48
637.083	12490.05
637.276	12567.87
637.47	12395.84
637.664	12432.71
637.857	12260.68
638.051	12358.98
638.244	11984.2
638.438	12150.09
638.632	11894.09
638.825	11846.99
639.019	11965.77
639.212	11765.07
639.406	11865.42
639.599	11867.47
639.793	11826.51
639.986	11318.61
640.18	11861.32
640.373	11711.82
640.567	11318.61
640.76	11466.07
640.954	11234.64
641.147	11300.18
641.34	11076.95
641.534	11052.38
641.727	10999.13
641.92	10857.82
642.114	11085.14
642.307	10929.5
642.5	10909.02
642.694	10831.19
642.887	10718.56
643.08	10880.35
643.273	10693.98
643.467	10530.14
643.66	10345.83
643.853	10544.48
644.046	10259.81
644.239	10300.77
644.432	10331.49
644.626	10227.04
644.819	10120.55
645.012	10032.49
645.205	10067.3
645.398	9942.38
645.591	9915.75
645.784	9981.29
645.977	9878.89
646.17	9710.96
646.363	9733.48
646.556	9694.57
646.749	9713
646.942	9665.9
647.135	9608.56
647.328	9524.59
647.521	9489.78
647.714	9307.51
647.907	9387.38
648.099	9399.66
648.292	9100.66
648.485	9190.77
648.678	8957.3
648.871	9344.37
649.064	9133.43
649.256	8844.67
649.449	9020.79
649.642	8856.95
649.835	8842.62
650.027	8869.24
650.22	8910.2
650.413	8715.64
650.605	8572.29
650.798	8715.64
650.991	8545.66
651.183	8809.85
651.376	8467.84
651.568	8406.4
651.761	8367.49
651.954	8426.88
652.146	8320.39
652.339	8195.46
652.531	8217.99
652.724	8103.3
652.916	8230.27
653.109	8185.22
653.301	8123.78
653.494	8230.27
653.686	7972.23
653.879	8084.87
654.071	8005
654.263	7902.6
654.456	7841.16
654.648	7904.65
654.84	7636.36
655.033	7757.19
655.225	7746.95
655.417	7765.39
655.61	7667.08
655.802	7546.25
655.994	7609.74
656.186	7583.12
656.379	7425.42
656.571	7437.71
656.763	7292.3
656.955	7214.48
657.148	7312.78
657.34	7349.65
657.532	7216.53
657.724	7206.29
657.916	7220.63
658.108	7050.64
658.3	7157.14
658.492	7155.09
658.684	7007.64
658.876	6911.38
659.068	6987.16
659.26	6892.95
659.452	6913.43
659.644	6833.56
659.836	6692.25
660.028	6905.24
660.22	6780.31
660.412	6741.4
660.604	6700.44
660.796	6579.61
660.988	6477.21
661.18	6546.84
661.372	6440.35
661.563	6614.43
661.755	6389.15
661.947	6524.32
662.139	6479.26
662.331	6378.91
662.522	6296.99
662.714	6399.39
662.906	6178.21
663.097	6155.68
663.289	6219.17
663.481	6131.11
663.673	6116.77
663.864	6071.72
664.056	5946.79
664.247	6034.85
664.439	5860.77
664.631	6069.67
664.822	5676.46
665.014	6014.37
665.205	5893.54
665.397	5918.12
665.588	5803.43
665.78	5903.78
665.971	5750.18
666.163	5741.99
666.354	5713.32
666.546	5754.28
666.737	5668.27
666.929	5682.6
667.12	5539.24
667.311	5553.58
667.503	5490.09
667.694	5592.49
667.885	5555.63
668.077	5471.66
668.268	5465.52
668.459	5490.09
668.651	5348.78
668.842	5418.41
669.033	5213.62
669.224	5277.1
669.416	5281.2
669.607	5326.25
669.798	5395.89
669.989	5246.38
670.18	5211.57
670.371	5213.62
670.563	5129.65
670.754	5211.57
670.945	5141.94
671.136	4994.48
671.327	5035.44
671.518	5146.03
671.709	4994.48
671.9	4939.19
672.091	5086.64
672.282	5047.73
672.473	4967.86
672.664	4793.78
672.855	4908.47
673.046	5035.44
673.237	5062.07
673.428	4898.23
673.619	4908.47
673.809	4818.36
674	4855.22
674.191	4683.19
674.382	4769.21
674.573	4752.82
674.764	4744.63
674.954	4765.11
675.145	4750.78
675.336	4556.22
675.527	4545.98
675.717	4634.04
675.908	4631.99
676.099	4627.9
676.289	4707.77
676.48	4552.12
676.671	4541.88
676.861	4560.31
677.052	4445.63
677.243	4615.61
677.433	4482.49
677.624	4591.03
677.814	4478.4
678.005	4576.7
678.195	4543.93
678.386	4406.72
678.576	4294.08
678.767	4343.23
678.957	4384.19
679.148	4533.69
679.338	4390.33
679.529	4373.95
679.719	4382.14
679.909	4443.58
680.1	4228.54
680.29	4238.78
680.481	4210.11
680.671	4249.02
680.861	4117.95
681.052	4259.26
681.242	4242.88
681.432	4345.28
681.622	4203.97
681.813	4167.1
682.003	4281.79
682.193	4187.58
682.383	4124.1
682.573	4101.57
682.764	4122.05
682.954	4257.22
683.144	4216.26
683.334	4107.71
683.524	4236.74
683.714	4079.04
683.904	4017.6
684.094	4175.3
684.284	4095.43
684.474	4040.13
684.664	4097.47
684.854	3921.35
685.044	4091.33
685.234	3943.88
685.424	4003.27
685.614	3823.05
685.804	3861.96
685.994	3933.64
686.184	3847.62
686.374	3904.96
686.564	3904.96
686.753	3888.58
686.943	3823.05
687.133	3931.59
687.323	3929.54
687.513	3786.18
687.702	3888.58
687.892	3683.78
688.082	3831.24
688.272	3796.42
688.461	3554.76
688.651	3622.34
688.841	3761.61
689.03	3646.92
689.22	3640.78
689.41	3653.06
689.599	3548.62
689.789	3679.69
689.979	3491.27
690.168	3573.19
690.358	3411.4
690.547	3544.52
690.737	3526.09
690.926	3331.53
691.116	3368.4
691.305	3530.19
691.495	3454.41
691.684	3409.36
691.874	3454.41
692.063	3368.4
692.252	3302.86
692.442	3360.2
692.631	3278.29
692.82	3222.99
693.01	3349.96
693.199	3276.24
693.388	3298.77
693.578	3352.01
693.767	3313.1
693.956	3161.55
694.146	3235.28
694.335	3165.65
694.524	3108.3
694.713	3091.92
694.902	3220.94
695.092	3167.7
695.281	3093.97
695.47	3233.23
695.659	3087.82
695.848	3098.06
696.037	3046.87
696.226	2995.67
696.415	3038.67
696.604	3081.68
696.793	3108.3
696.982	3114.45
697.171	3040.72
697.36	2960.85
697.549	3032.53
697.738	3030.48
697.927	2901.46
698.116	2903.51
698.305	3118.54
698.494	3108.3
698.683	2911.7
698.872	3036.63
699.061	2827.73
699.25	2883.03
699.438	2923.99
699.627	2950.61
699.816	2917.84
700.005	2854.36
700.193	2821.59
700.382	2907.6
700.571	2811.35
700.76	2983.38
700.948	2985.43
701.137	2905.56
701.326	2930.13
701.514	2680.28
701.703	2764.25
701.892	2764.25
702.08	2809.3
702.269	2874.84
702.457	2883.03
702.646	2805.21
702.834	2827.73
703.023	2874.84
703.212	2772.44
703.4	2835.92
703.589	2715.09
703.777	2745.81
703.965	2622.94
704.154	2751.96
704.342	2737.62
704.531	2702.81
704.719	2647.51
704.907	2797.01
705.096	2686.42
705.284	2555.35
705.472	2766.29
705.661	2686.42
705.849	2739.67
706.037	2713.05
706.226	2639.32
706.414	2731.48
706.602	2809.3
706.79	2696.66
706.979	2682.33
707.167	2635.22
707.355	2678.23
707.543	2659.8
707.731	2651.61
707.919	2694.61
708.107	2657.75
708.296	2375.13
708.484	2735.57
708.672	2627.03
708.86	2604.5
709.048	2655.7
709.236	2672.09
709.424	2627.03
709.612	2643.42
709.8	2569.69
709.988	2624.98
710.176	2629.08
710.364	2624.98
710.551	2618.84
710.739	2618.84
710.927	2633.18
711.115	2538.97
711.303	2680.28
711.491	2565.59
711.679	2508.25
711.866	2649.56
712.054	2561.5
712.242	2528.73
712.43	2602.46
712.617	2610.65
712.805	2618.84
712.993	2553.31
713.181	2545.11
713.368	2586.07
713.556	2581.98
713.744	2502.11
713.931	2627.03
714.119	2579.93
714.306	2581.98
714.494	2530.78
714.682	2584.02
714.869	2606.55
715.057	2483.67
715.244	2502.11
715.432	2510.3
715.619	2477.53
715.807	2598.36
715.994	2485.72
716.182	2452.95
716.369	2459.1
716.556	2555.35
716.744	2557.4
716.931	2555.35
717.119	2471.39
717.306	2516.44
717.493	2495.96
717.681	2493.91
717.868	2522.59
718.055	2516.44
718.242	2551.26
718.43	2442.71
718.617	2442.71
718.804	2405.85
718.991	2590.17
719.179	2606.55
719.366	2483.67
719.553	2473.43
719.74	2561.5
719.927	2549.21
720.114	2495.96
720.301	2565.59
720.488	2412
720.676	2428.38
720.863	2532.83
721.05	2536.92
721.237	2485.72
721.424	2518.49
721.611	2637.27
721.798	2639.32
721.985	2493.91
722.172	2440.67
722.358	2543.07
722.545	2493.91
722.732	2426.33
722.919	2565.59
723.106	2432.47
723.293	2508.25
723.48	2545.11
723.667	2428.38
723.853	2573.78
724.04	2588.12
724.227	2508.25
724.414	2481.63
724.6	2393.56
724.787	2643.42
724.974	2475.48
725.161	2594.26
725.347	2489.82
725.534	2493.91
725.72	2448.86
725.907	2461.15
726.094	2543.07
726.28	2426.33
726.467	2530.78
726.653	2559.45
726.84	2491.87
727.027	2512.35
727.213	2500.06
727.4	2600.41
727.586	2518.49
727.773	2567.64
727.959	2409.95
728.145	2366.94
728.332	2422.24
728.518	2405.85
728.705	2483.67
728.891	2528.73
729.077	2573.78
729.264	2395.61
729.45	2516.44
729.636	2504.15
729.823	2475.48
730.009	2538.97
730.195	2528.73
730.382	2512.35
730.568	2428.38
730.754	2457.05
730.94	2373.08
731.126	2590.17
731.313	2487.77
731.499	2463.19
731.685	2541.02
731.871	2422.24
732.057	2506.2
732.243	2479.58
732.429	2504.15
732.615	2493.91
732.801	2526.68
732.987	2414.04
733.173	2465.24
733.359	2545.11
733.545	2483.67
733.731	2362.84
733.917	2627.03
734.103	2485.72
734.289	2493.91
734.475	2465.24
734.661	2541.02
734.847	2434.52
735.033	2551.26
735.219	2430.43
735.404	2467.29
735.59	2467.29
735.776	2522.59
735.962	2432.47
736.148	2489.82
736.333	2555.35
736.519	2362.84
736.705	2485.72
736.89	2500.06
737.076	2516.44
737.262	2459.1
737.447	2549.21
737.633	2436.57
737.819	2518.49
738.004	2334.17
738.19	2342.36
738.375	2422.24
738.561	2483.67
738.747	2592.22
738.932	2364.89
739.118	2422.24
739.303	2346.46
739.489	2393.56
739.674	2399.71
739.859	2414.04
740.045	2303.45
740.23	2375.13
740.416	2420.19
740.601	2383.32
740.786	2403.8
740.972	2495.96
741.157	2387.42
741.342	2377.18
741.528	2262.49
741.713	2358.75
741.898	2307.55
742.084	2348.51
742.269	2436.57
742.454	2373.08
742.639	2319.84
742.824	2342.36
743.01	2287.07
743.195	2346.46
743.38	2192.86
743.565	2225.63
743.75	2317.79
743.935	2239.97
744.12	2317.79
744.305	2307.55
744.49	2168.29
744.675	2248.16
744.86	2237.92
745.045	2309.6
745.23	2145.76
745.415	2153.95
745.6	2164.19
745.785	2242.01
745.97	2090.46
746.155	2043.36
746.34	2164.19
746.525	2190.81
746.71	2168.29
746.895	2018.79
747.079	2178.53
747.264	2063.84
747.449	2184.67
747.634	2029.03
747.819	2098.66
748.003	2035.17
748.188	2037.22
748.373	2102.75
748.557	1986.02
748.742	1961.44
748.927	2022.88
749.111	2069.98
749.296	1959.39
749.481	1988.07
749.665	1881.57
749.85	1943.01
750.034	1908.19
750.219	1938.91
750.404	1883.62
750.588	1857
750.773	1824.23
750.957	1850.85
751.141	1891.81
751.326	1889.76
751.51	1781.22
751.695	1897.96
751.879	1818.08
752.064	1754.6
752.248	1789.41
752.432	1828.32
752.617	1717.73
752.801	1832.42
752.985	1762.79
753.17	1684.97
753.354	1764.84
753.538	1629.67
753.722	1758.69
753.907	1646.05
754.091	1668.58
754.275	1603.05
754.459	1684.97
754.643	1543.66
754.828	1664.49
755.012	1662.44
755.196	1586.66
755.38	1592.81
755.564	1566.18
755.748	1512.94
755.932	1500.65
756.116	1586.66
756.3	1486.31
756.484	1498.6
756.668	1512.94
756.852	1469.93
757.036	1484.27
757.22	1578.47
757.404	1517.03
757.588	1441.26
757.772	1445.35
757.956	1463.79
758.14	1342.96
758.323	1469.93
758.507	1512.94
758.691	1316.33
758.875	1367.53
759.059	1410.54
759.242	1340.91
759.426	1467.88
759.61	1336.81
759.794	1279.47
759.977	1349.1
760.161	1390.06
760.345	1361.39
760.528	1392.11
760.712	1353.2
760.895	1297.9
761.079	1304.04
761.263	1293.8
761.446	1299.95
761.63	1201.65
761.813	1226.22
761.997	1232.37
762.18	1302
762.364	1236.46
762.547	1256.94
762.731	1295.85
762.914	1347.05
763.098	1209.84
763.281	1267.18
763.464	1238.51
763.648	1152.49
763.831	1226.22
764.015	1148.4
764.198	1199.6
764.381	1189.36
764.564	1170.93
764.748	1181.17
764.931	1172.97
765.114	1166.83
765.297	1209.84
765.481	1082.86
765.664	1199.6
765.847	1062.38
766.03	1205.74
766.213	1125.87
766.397	1136.11
766.58	1103.34
766.763	1134.06
766.946	1160.69
767.129	1070.58
767.312	1179.12
767.495	1076.72
767.678	1125.87
767.861	1136.11
768.044	1058.29
768.227	1156.59
768.41	1150.45
768.593	1082.86
768.776	1099.25
768.959	990.7
769.142	1136.11
769.324	980.47
769.507	1021.42
769.69	1099.25
769.873	992.75
770.056	1066.48
770.239	1062.38
770.421	1017.33
770.604	992.75
770.787	951.79
770.97	1019.38
771.152	1078.77
771.335	937.46
771.518	974.32
771.7	1035.76
771.883	959.99
772.066	908.79
772.248	959.99
772.431	929.27
772.613	904.69
772.796	869.87
772.978	968.18
773.161	904.69
773.343	937.46
773.526	970.23
773.708	878.07
773.891	822.77
774.073	955.89
774.256	919.03
774.438	886.26
774.621	949.75
774.803	867.83
774.985	837.11
775.168	843.25
775.35	828.92
775.532	792.05
775.715	806.39
775.897	916.98
776.079	935.41
776.261	886.26
776.444	822.77
776.626	859.63
776.808	808.44
776.99	898.55
777.173	830.96
777.355	787.96
777.537	816.63
777.719	828.92
777.901	753.14
778.083	816.63
778.265	761.33
778.447	861.68
778.629	761.33
778.811	693.75
778.993	779.76
779.175	716.28
779.357	660.98
779.539	759.28
779.721	785.91
779.903	722.42
780.085	685.56
780.267	718.33
780.449	650.74
780.631	689.65
780.812	718.33
780.994	673.27
781.176	660.98
781.358	654.84
781.54	663.03
781.721	703.99
781.903	644.6
782.085	628.21
782.267	734.71
782.448	681.46
782.63	697.85
782.812	685.56
782.993	595.45
783.175	538.1
783.357	679.41
783.538	650.74
783.72	583.16
783.901	615.93
784.083	589.3
784.264	560.63
784.446	505.34
784.627	620.02
784.809	591.35
784.99	599.54
785.172	562.68
785.353	460.28
785.535	570.87
785.716	646.65
785.897	462.33
786.079	585.21
786.26	507.38
786.441	488.95
786.623	521.72
786.804	515.58
786.985	577.02
787.167	517.62
787.348	454.14
787.529	593.4
787.71	536.06
787.891	476.66
788.073	454.14
788.254	486.9
788.435	435.71
788.616	503.29
788.797	505.34
788.978	531.96
789.159	407.03
789.34	536.06
789.522	447.99
789.703	499.19
789.884	466.42
790.065	439.8
790.246	484.86
790.427	441.85
790.607	466.42
790.788	439.8
790.969	484.86
791.15	402.94
791.331	361.98
791.512	429.56
791.693	466.42
791.874	419.32
792.054	394.75
792.235	427.51
792.416	357.88
792.597	343.55
792.778	359.93
792.958	445.95
793.139	394.75
793.32	312.83
793.5	380.41
793.681	452.09
793.862	366.07
794.042	368.12
794.223	357.88
794.404	355.83
794.584	327.16
794.765	345.59
794.945	394.75
795.126	366.07
795.306	349.69
795.487	345.59
795.667	290.3
795.848	339.45
796.028	419.32
796.209	413.18
796.389	386.55
796.57	382.46
796.75	269.82
796.93	294.4
797.111	370.17
797.291	282.11
797.471	413.18
797.652	339.45
797.832	343.55
798.012	333.31
798.192	312.83
798.373	259.58
798.553	400.89
798.733	284.16
798.913	263.68
799.093	345.59
799.274	267.77
799.454	345.59
799.634	325.12
799.814	224.76
799.994	343.55
800.174	382.46
800.354	300.54
800.534	372.22
800.714	357.88
800.894	278.01
801.074	216.57
801.254	323.07
801.434	312.83
801.614	257.53
801.794	314.88
801.974	615.93
802.154	286.2
802.334	361.98
802.514	230.91
802.693	355.83
802.873	325.12
803.053	325.12
803.233	286.2
803.413	243.2
803.592	241.15
803.772	259.58
803.952	318.97
804.131	304.64
804.311	269.82
804.491	306.68
804.67	245.24
804.85	218.62
805.03	325.12
805.209	321.02
805.389	271.87
805.568	192
805.748	304.64
805.928	280.06
806.107	255.48
806.287	241.15
806.466	259.58
806.646	202.24
806.825	278.01
807.004	241.15
807.184	327.16
807.363	237.05
807.543	247.29
807.722	243.2
807.901	257.53
808.081	177.66
808.26	179.71
808.439	251.39
808.619	192
808.798	241.15
808.977	241.15
809.156	228.86
809.336	192
809.515	151.04
809.694	204.28
809.873	263.68
810.052	85.5
810.231	228.86
810.411	232.96
810.59	230.91
810.769	212.48
810.948	247.29
811.127	163.33
811.306	290.3
811.485	161.28
811.664	165.37
811.843	269.82
812.022	157.18
812.201	185.85
812.38	230.91
812.559	189.95
812.737	257.53
812.916	192
813.095	157.18
813.274	118.27
813.453	222.72
813.632	218.62
813.811	181.76
813.989	187.9
814.168	87.55
814.347	204.28
814.526	202.24
814.704	214.52
814.883	263.68
815.062	212.48
815.24	165.37
815.419	148.99
815.598	142.85
815.776	116.22
815.955	194.05
816.133	148.99
816.312	181.76
816.49	212.48
816.669	112.13
816.847	163.33
817.026	189.95
817.204	161.28
817.383	159.23
817.561	161.28
817.74	206.33
817.918	261.63
818.097	169.47
818.275	95.74
818.453	183.81
818.632	134.65
818.81	161.28
818.988	142.85
819.167	140.8
819.345	157.18
819.523	144.89
819.701	110.08
819.879	118.27
820.058	112.13
820.236	189.95
820.414	140.8
820.592	157.18
820.77	146.94
820.948	155.13
821.127	202.24
821.305	185.85
821.483	146.94
821.661	153.09
821.839	128.51
822.017	124.41
822.195	50.69
822.373	155.13
822.551	130.56
822.729	130.56
822.907	122.37
823.085	140.8
823.262	163.33
823.44	114.17
823.618	79.36
823.796	110.08
823.974	54.78
824.152	116.22
824.329	87.55
824.507	140.8
824.685	148.99
824.863	93.69
825.04	144.89
825.218	120.32
825.396	134.65
825.574	124.41
825.751	108.03
825.929	206.33
826.107	73.21
826.284	153.09
826.462	194.05
826.639	140.8
826.817	83.45
826.994	83.45
827.172	116.22
827.349	108.03
827.527	194.05
827.704	95.74
827.882	120.32
828.059	165.37
828.237	62.98
828.414	140.8
828.591	67.07
828.769	163.33
828.946	67.07
829.124	185.85
829.301	130.56
829.478	95.74
829.655	126.46
829.833	122.37
830.01	50.69
830.187	146.94
830.364	167.42
830.542	83.45
830.719	62.98
830.896	146.94
831.073	136.7
831.25	112.13
831.427	73.21
831.604	120.32
831.782	95.74
831.959	142.85
832.136	110.08
832.313	118.27
832.49	9.73
832.667	81.41
832.844	67.07
833.021	120.32
833.198	161.28
833.374	62.98
833.551	71.17
833.728	155.13
833.905	122.37
834.082	134.65
834.259	54.78
834.436	85.5
834.612	69.12
834.789	118.27
834.966	138.75
835.143	138.75
835.319	32.26
835.496	146.94
835.673	65.02
835.85	69.12
836.026	71.17
836.203	120.32
836.38	181.76
836.556	67.07
836.733	77.31
836.909	122.37
837.086	79.36
837.262	52.74
837.439	81.41
837.616	75.26
837.792	99.84
837.968	73.21
838.145	126.46
838.321	75.26
838.498	116.22
838.674	93.69
838.851	114.17
839.027	95.74
839.203	65.02
839.38	71.17
839.556	108.03
839.732	110.08
839.909	89.6
840.085	120.32
840.261	34.3
840.437	67.07
840.614	17.92
840.79	1.54
840.966	81.41
841.142	93.69
841.318	5.63
841.494	34.3
841.671	97.79
841.847	54.78
842.023	75.26
842.199	15.87
842.375	60.93
842.551	112.13
842.727	87.55
842.903	79.36
843.079	69.12
843.255	79.36
843.431	-2.56
843.607	30.21
843.783	62.98
843.959	44.54
844.134	60.93
844.31	114.17
844.486	81.41
844.662	71.17
844.838	118.27
845.013	85.5
845.189	105.98
845.365	62.98
845.541	116.22
845.716	79.36
845.892	83.45
846.068	108.03
846.244	83.45
846.419	71.17
846.595	65.02
846.77	58.88
846.946	112.13
847.122	93.69
847.297	40.45
847.473	126.46
847.648	122.37
847.824	7.68
847.999	-20.99
848.175	105.98
848.35	89.6
848.526	77.31
848.701	60.93
848.876	112.13
849.052	83.45
849.227	1.54
849.403	44.54
849.578	62.98
849.753	71.17
849.929	144.89
850.104	81.41
850.279	56.83
850.454	87.55
850.63	17.92
850.805	83.45
850.98	79.36
851.155	42.5
851.33	73.21
851.505	-12.8
851.681	101.89
851.856	58.88
852.031	77.31
852.206	65.02
852.381	13.82
852.556	38.4
852.731	67.07
852.906	56.83
853.081	1.54
853.256	54.78
853.431	97.79
853.606	34.3
853.781	54.78
853.956	-4.61
854.131	103.93
854.305	13.82
854.48	-4.61
854.655	34.3
854.83	52.74
855.005	9.73
855.18	28.16
855.354	46.59
855.529	17.92
855.704	28.16
855.879	95.74
856.053	120.32
856.228	38.4
856.403	46.59
856.577	46.59
856.752	11.78
856.926	17.92
857.101	15.87
857.276	-0.51
857.45	65.02
857.625	7.68
857.799	11.78
857.974	60.93
858.148	38.4
858.323	-10.75
858.497	89.6
858.672	7.68
858.846	65.02
859.02	-14.85
859.195	-10.75
859.369	19.97
859.543	46.59
859.718	95.74
859.892	75.26
860.066	7.68
860.241	15.87
860.415	95.74
860.589	108.03
860.763	-10.75
860.938	-6.66
861.112	17.92
861.286	69.12
861.46	67.07
861.634	32.26
861.808	60.93
861.982	62.98
862.157	58.88
862.331	62.98
862.505	42.5
862.679	19.97
862.853	71.17
863.027	22.02
863.201	69.12
863.375	-31.23
863.549	73.21
863.722	65.02
863.896	118.27
864.07	83.45
864.244	50.69
864.418	91.65
864.592	36.35
864.766	36.35
864.939	26.11
865.113	-4.61
865.287	87.55
865.461	-51.71
865.634	77.31
865.808	87.55
865.982	93.69
866.156	34.3
866.329	36.35
866.503	60.93
866.676	75.26
866.85	50.69
867.024	-29.18
867.197	-29.18
867.371	40.45
867.544	34.3
867.718	13.82
867.891	85.5
868.065	9.73
868.238	73.21
868.412	34.3
868.585	28.16
868.759	60.93
868.932	9.73
869.105	95.74
869.279	-10.75
869.452	42.5
869.625	36.35
869.799	44.54
869.972	-10.75
870.145	-4.61
870.319	54.78
870.492	73.21
870.665	38.4
870.838	5.63
871.011	48.64
871.185	56.83
871.358	-25.09
871.531	22.02
871.704	62.98
871.877	-16.9
872.05	-0.51
872.223	60.93
872.396	22.02
872.569	13.82
872.742	-35.33
872.915	118.27
873.088	32.26
873.261	28.16
873.434	65.02
873.607	-37.38
873.78	124.41
873.953	19.97
874.126	32.26
874.299	40.45
874.471	38.4
874.644	-12.8
874.817	50.69
874.99	81.41
875.163	26.11
875.335	1.54
875.508	44.54
875.681	-10.75
875.853	24.06
876.026	30.21
876.199	11.78
876.371	30.21
876.544	15.87
876.717	22.02
876.889	146.94
877.062	11.78
877.234	17.92
877.407	19.97
877.579	-14.85
877.752	83.45
877.924	62.98
878.097	60.93
878.269	11.78
878.442	40.45
878.614	-43.52
878.786	83.45
878.959	17.92
879.131	52.74
879.303	3.58
879.476	99.84
879.648	-31.23
879.82	46.59
879.993	13.82
880.165	7.68
880.337	-39.42
880.509	15.87
880.681	17.92
880.854	-14.85
881.026	58.88
881.198	71.17
881.37	-0.51
881.542	17.92
881.714	-6.66
881.886	-20.99
882.058	54.78
882.23	105.98
882.402	58.88
882.574	17.92
882.746	50.69
882.918	19.97
883.09	11.78
883.262	99.84
883.434	-47.62
883.606	46.59
883.778	-49.66
883.95	69.12
884.122	-6.66
884.293	62.98
884.465	60.93
884.637	50.69
884.809	-51.71
884.98	42.5
885.152	-12.8
885.324	38.4
885.496	48.64
885.667	-12.8
885.839	-64
886.011	28.16
886.182	3.58
886.354	3.58
886.525	17.92
886.697	60.93
886.869	91.65
887.04	5.63
887.212	19.97
887.383	40.45
887.555	-31.23
887.726	13.82
887.897	13.82
888.069	-0.51
888.24	81.41
888.412	-49.66
888.583	26.11
888.754	91.65
888.926	-18.94
889.097	-20.99
889.268	11.78
889.44	-12.8
889.611	-31.23
889.782	69.12
889.953	24.06
890.125	34.3
890.296	9.73
890.467	67.07
890.638	-45.57
890.809	28.16
890.98	-0.51
891.151	44.54
891.323	17.92
891.494	-8.7
891.665	15.87
891.836	5.63
892.007	36.35
892.178	93.69
892.349	-18.94
892.52	48.64
892.691	3.58
892.862	79.36
893.032	36.35
893.203	3.58
893.374	36.35
893.545	46.59
893.716	-18.94
893.887	17.92
894.057	48.64
894.228	-41.47
894.399	-6.66
894.57	77.31
894.74	-25.09
894.911	-82.43
895.082	-47.62
895.253	32.26
895.423	-37.38
895.594	52.74
895.764	26.11
895.935	11.78
896.106	17.92
896.276	-8.7
896.447	40.45
896.617	9.73
896.788	-49.66
896.958	-49.66
897.129	36.35
897.299	-14.85
897.47	62.98
897.64	28.16
897.81	-23.04
897.981	7.68
898.151	-51.71
898.322	34.3
898.492	-8.7
898.662	54.78
898.832	-10.75
899.003	-61.95
899.173	17.92
899.343	34.3
899.513	13.82
