Data from USB4F104151__75__11-06-20-524.txt Node

Date: Wed Mar 12 11:06:20 EDT 2025
User: louis
Spectrometer: USB4F10415
Trigger mode: 4
Integration Time (sec): 2.000000E-2
Scans to average: 1
Electric dark correction enabled: true
Nonlinearity correction enabled: false
Boxcar width: 0
XAxis mode: Wavelengths
Number of Pixels in Spectrum: 3648
>>>>>Begin Spectral Data<<<<<
178.204	-73.04
178.424	-73.04
178.644	-73.04
178.864	-132.44
179.084	-62.8
179.304	-36.18
179.524	-1.37
179.744	-32.08
179.964	-40.28
180.184	60.07
180.404	45.74
180.624	0.68
180.844	6.83
181.064	-44.37
181.283	29.35
181.503	-5.46
181.723	17.07
181.943	-46.42
182.163	55.98
182.383	0.68
182.602	-19.8
182.822	27.31
183.042	21.16
183.262	39.59
183.482	0.68
183.701	-48.47
183.921	23.21
184.141	58.03
184.361	15.02
184.58	33.45
184.8	27.31
185.02	-15.7
185.239	60.07
185.459	74.41
185.679	39.59
185.898	-21.85
186.118	25.26
186.338	58.03
186.557	-46.42
186.777	-42.32
186.997	82.6
187.216	37.55
187.436	21.16
187.655	35.5
187.875	64.17
188.095	19.11
188.314	-3.41
188.534	72.36
188.753	-21.85
188.973	-3.41
189.192	39.59
189.412	-13.65
189.631	127.66
189.851	-21.85
190.07	84.65
190.29	-3.41
190.509	43.69
190.729	55.98
190.948	49.83
191.168	66.22
191.387	76.46
191.607	41.64
191.826	19.11
192.045	68.27
192.265	-7.51
192.484	10.92
192.704	-38.23
192.923	-21.85
193.142	55.98
193.362	-13.65
193.581	74.41
193.8	-9.56
194.02	72.36
194.239	51.88
194.458	-34.13
194.678	17.07
194.897	86.7
195.116	2.73
195.335	115.37
195.555	8.87
195.774	-13.65
195.993	2.73
196.212	-3.41
196.432	2.73
196.651	-15.7
196.87	-13.65
197.089	84.65
197.308	-3.41
197.528	39.59
197.747	8.87
197.966	55.98
198.185	49.83
198.404	-5.46
198.623	4.78
198.842	-5.46
199.062	82.6
199.281	53.93
199.5	23.21
199.719	21.16
199.938	-54.61
200.157	92.84
200.376	72.36
200.595	68.27
200.814	-46.42
201.033	19.11
201.252	60.07
201.471	2.73
201.69	55.98
201.909	86.7
202.128	-54.61
202.347	31.4
202.566	-25.94
202.785	33.45
203.004	-11.61
203.223	39.59
203.442	0.68
203.661	-1.37
203.879	37.55
204.098	49.83
204.317	-25.94
204.536	31.4
204.755	-9.56
204.974	31.4
205.193	47.79
205.411	115.37
205.63	10.92
205.849	-27.99
206.068	84.65
206.287	19.11
206.505	-21.85
206.724	47.79
206.943	47.79
207.162	23.21
207.381	-34.13
207.599	29.35
207.818	29.35
208.037	27.31
208.255	78.51
208.474	21.16
208.693	-21.85
208.911	-17.75
209.13	115.37
209.349	35.5
209.567	-1.37
209.786	19.11
210.005	64.17
210.223	66.22
210.442	-38.23
210.661	-7.51
210.879	62.12
211.098	-1.37
211.316	-32.08
211.535	66.22
211.753	17.07
211.972	31.4
212.191	0.68
212.409	45.74
212.628	-9.56
212.846	12.97
213.065	68.27
213.283	41.64
213.502	41.64
213.72	47.79
213.938	6.83
214.157	-7.51
214.375	23.21
214.594	-13.65
214.812	-36.18
215.031	-30.04
215.249	29.35
215.467	43.69
215.686	84.65
215.904	10.92
216.122	29.35
216.341	78.51
216.559	-13.65
216.778	60.07
216.996	68.27
217.214	39.59
217.432	29.35
217.651	17.07
217.869	25.26
218.087	51.88
218.306	-1.37
218.524	12.97
218.742	-17.75
218.96	4.78
219.179	-15.7
219.397	-3.41
219.615	2.73
219.833	35.5
220.051	-40.28
220.27	33.45
220.488	10.92
220.706	19.11
220.924	2.73
221.142	-23.89
221.36	47.79
221.578	43.69
221.796	-13.65
222.015	62.12
222.233	27.31
222.451	33.45
222.669	74.41
222.887	88.75
223.105	-48.47
223.323	25.26
223.541	35.5
223.759	41.64
223.977	37.55
224.195	2.73
224.413	-32.08
224.631	47.79
224.849	49.83
225.067	31.4
225.285	-58.71
225.503	45.74
225.721	-1.37
225.939	2.73
226.157	-3.41
226.375	84.65
226.592	19.11
226.81	4.78
227.028	-17.75
227.246	35.5
227.464	15.02
227.682	82.6
227.9	29.35
228.117	35.5
228.335	15.02
228.553	53.93
228.771	88.75
228.989	49.83
229.206	-23.89
229.424	2.73
229.642	0.68
229.86	-58.71
230.077	58.03
230.295	88.75
230.513	-30.04
230.731	55.98
230.948	-9.56
231.166	80.55
231.384	-32.08
231.601	31.4
231.819	15.02
232.037	19.11
232.254	72.36
232.472	53.93
232.689	25.26
232.907	96.94
233.125	-48.47
233.342	-44.37
233.56	58.03
233.777	72.36
233.995	19.11
234.213	35.5
234.43	25.26
234.648	31.4
234.865	51.88
235.083	10.92
235.3	-32.08
235.518	17.07
235.735	25.26
235.953	49.83
236.17	-19.8
236.388	-73.04
236.605	-17.75
236.822	-30.04
237.04	92.84
237.257	15.02
237.475	-5.46
237.692	62.12
237.909	-27.99
238.127	64.17
238.344	31.4
238.562	37.55
238.779	-21.85
238.996	-48.47
239.214	6.83
239.431	25.26
239.648	0.68
239.865	21.16
240.083	19.11
240.3	-15.7
240.517	74.41
240.735	-1.37
240.952	78.51
241.169	45.74
241.386	51.88
241.603	15.02
241.821	-23.89
242.038	4.78
242.255	92.84
242.472	33.45
242.689	45.74
242.907	33.45
243.124	6.83
243.341	-50.52
243.558	8.87
243.775	35.5
243.992	41.64
244.209	-9.56
244.426	53.93
244.643	64.17
244.86	8.87
245.078	17.07
245.295	43.69
245.512	45.74
245.729	4.78
245.946	-66.9
246.163	33.45
246.38	31.4
246.597	70.31
246.814	41.64
247.031	84.65
247.248	78.51
247.464	-17.75
247.681	-15.7
247.898	-15.7
248.115	45.74
248.332	37.55
248.549	43.69
248.766	105.13
248.983	8.87
249.2	8.87
249.417	117.42
249.633	21.16
249.85	27.31
250.067	45.74
250.284	27.31
250.501	74.41
250.717	31.4
250.934	96.94
251.151	-15.7
251.368	-1.37
251.585	4.78
251.801	-3.41
252.018	37.55
252.235	141.99
252.451	-9.56
252.668	31.4
252.885	47.79
253.102	-1.37
253.318	-15.7
253.535	82.6
253.752	29.35
253.968	-42.32
254.185	6.83
254.401	53.93
254.618	23.21
254.835	-9.56
255.051	86.7
255.268	-62.8
255.484	90.79
255.701	19.11
255.917	55.98
256.134	19.11
256.351	133.8
256.567	-21.85
256.784	86.7
257	49.83
257.217	115.37
257.433	-23.89
257.65	33.45
257.866	-23.89
258.082	12.97
258.299	45.74
258.515	27.31
258.732	-66.9
258.948	19.11
259.165	72.36
259.381	-25.94
259.597	19.11
259.814	64.17
260.03	0.68
260.246	10.92
260.463	45.74
260.679	4.78
260.895	27.31
261.112	-17.75
261.328	-13.65
261.544	53.93
261.761	2.73
261.977	21.16
262.193	49.83
262.409	39.59
262.626	15.02
262.842	27.31
263.058	29.35
263.274	72.36
263.49	15.02
263.707	-9.56
263.923	37.55
264.139	-60.76
264.355	45.74
264.571	43.69
264.787	2.73
265.004	-3.41
265.22	19.11
265.436	70.31
265.652	23.21
265.868	15.02
266.084	-68.95
266.3	-27.99
266.516	4.78
266.732	51.88
266.948	2.73
267.164	17.07
267.38	60.07
267.596	103.08
267.812	-25.94
268.028	12.97
268.244	-46.42
268.46	-25.94
268.676	41.64
268.892	47.79
269.108	-17.75
269.324	-7.51
269.54	-3.41
269.756	39.59
269.972	-32.08
270.188	-17.75
270.403	66.22
270.619	47.79
270.835	82.6
271.051	6.83
271.267	-1.37
271.483	-5.46
271.698	84.65
271.914	66.22
272.13	12.97
272.346	10.92
272.562	4.78
272.777	6.83
272.993	47.79
273.209	-62.8
273.425	-11.61
273.64	21.16
273.856	-44.37
274.072	2.73
274.287	-9.56
274.503	68.27
274.719	33.45
274.934	62.12
275.15	107.18
275.366	60.07
275.581	-5.46
275.797	35.5
276.012	51.88
276.228	45.74
276.444	51.88
276.659	62.12
276.875	80.55
277.09	-9.56
277.306	10.92
277.521	49.83
277.737	-25.94
277.952	58.03
278.168	33.45
278.383	-64.85
278.599	80.55
278.814	-3.41
279.03	62.12
279.245	60.07
279.461	125.61
279.676	78.51
279.892	-27.99
280.107	21.16
280.322	-1.37
280.538	47.79
280.753	8.87
280.969	55.98
281.184	29.35
281.399	15.02
281.615	2.73
281.83	-13.65
282.045	33.45
282.26	-15.7
282.476	55.98
282.691	39.59
282.906	-23.89
283.122	41.64
283.337	-9.56
283.552	39.59
283.767	88.75
283.983	64.17
284.198	76.46
284.413	-17.75
284.628	-15.7
284.843	-13.65
285.058	76.46
285.274	60.07
285.489	10.92
285.704	76.46
285.919	-21.85
286.134	-17.75
286.349	6.83
286.564	58.03
286.779	2.73
286.995	62.12
287.21	-48.47
287.425	8.87
287.64	2.73
287.855	47.79
288.07	21.16
288.285	47.79
288.5	31.4
288.715	39.59
288.93	35.5
289.145	47.79
289.36	92.84
289.575	68.27
289.79	-1.37
290.004	-68.95
290.219	19.11
290.434	21.16
290.649	6.83
290.864	45.74
291.079	6.83
291.294	39.59
291.509	25.26
291.724	27.31
291.938	21.16
292.153	84.65
292.368	62.12
292.583	10.92
292.798	31.4
293.012	-36.18
293.227	23.21
293.442	12.97
293.657	49.83
293.871	78.51
294.086	109.22
294.301	66.22
294.516	31.4
294.73	55.98
294.945	12.97
295.16	27.31
295.374	68.27
295.589	103.08
295.804	-25.94
296.018	-11.61
296.233	27.31
296.447	-17.75
296.662	-11.61
296.877	-23.89
297.091	29.35
297.306	105.13
297.52	53.93
297.735	60.07
297.949	51.88
298.164	25.26
298.378	41.64
298.593	-38.23
298.807	-17.75
299.022	103.08
299.236	84.65
299.451	70.31
299.665	6.83
299.88	4.78
300.094	27.31
300.309	88.75
300.523	55.98
300.737	29.35
300.952	27.31
301.166	19.11
301.381	47.79
301.595	27.31
301.809	49.83
302.024	21.16
302.238	-3.41
302.452	86.7
302.667	31.4
302.881	31.4
303.095	39.59
303.309	70.31
303.524	-13.65
303.738	-23.89
303.952	27.31
304.166	62.12
304.381	23.21
304.595	76.46
304.809	15.02
305.023	15.02
305.237	47.79
305.452	41.64
305.666	43.69
305.88	51.88
306.094	19.11
306.308	60.07
306.522	70.31
306.736	12.97
306.95	64.17
307.164	105.13
307.379	8.87
307.593	39.59
307.807	0.68
308.021	60.07
308.235	10.92
308.449	-15.7
308.663	31.4
308.877	0.68
309.091	19.11
309.305	37.55
309.519	-5.46
309.733	62.12
309.947	-27.99
310.161	-34.13
310.374	-21.85
310.588	53.93
310.802	29.35
311.016	41.64
311.23	33.45
311.444	84.65
311.658	47.79
311.872	41.64
312.085	105.13
312.299	31.4
312.513	17.07
312.727	115.37
312.941	-27.99
313.154	31.4
313.368	39.59
313.582	53.93
313.796	60.07
314.009	125.61
314.223	129.7
314.437	33.45
314.651	27.31
314.864	6.83
315.078	60.07
315.292	53.93
315.505	-1.37
315.719	29.35
315.933	49.83
316.146	66.22
316.36	-30.04
316.573	60.07
316.787	129.7
317.001	19.11
317.214	31.4
317.428	19.11
317.641	10.92
317.855	41.64
318.068	39.59
318.282	-13.65
318.495	84.65
318.709	62.12
318.922	51.88
319.136	19.11
319.349	35.5
319.563	23.21
319.776	19.11
319.99	47.79
320.203	51.88
320.417	55.98
320.63	105.13
320.843	47.79
321.057	23.21
321.27	-17.75
321.483	39.59
321.697	68.27
321.91	-9.56
322.124	45.74
322.337	-3.41
322.55	80.55
322.763	23.21
322.977	60.07
323.19	51.88
323.403	47.79
323.617	15.02
323.83	53.93
324.043	21.16
324.256	62.12
324.469	0.68
324.683	-17.75
324.896	25.26
325.109	39.59
325.322	45.74
325.535	-3.41
325.748	39.59
325.962	-19.8
326.175	12.97
326.388	58.03
326.601	82.6
326.814	55.98
327.027	2.73
327.24	113.32
327.453	68.27
327.666	103.08
327.879	23.21
328.092	66.22
328.305	-1.37
328.518	-27.99
328.731	6.83
328.944	-5.46
329.157	27.31
329.37	33.45
329.583	82.6
329.796	2.73
330.009	-19.8
330.222	21.16
330.435	76.46
330.648	43.69
330.861	141.99
331.073	23.21
331.286	45.74
331.499	-11.61
331.712	-30.04
331.925	39.59
332.138	-11.61
332.35	76.46
332.563	80.55
332.776	51.88
332.989	31.4
333.202	70.31
333.414	23.21
333.627	39.59
333.84	62.12
334.053	66.22
334.265	29.35
334.478	72.36
334.691	47.79
334.903	15.02
335.116	29.35
335.329	15.02
335.541	82.6
335.754	74.41
335.966	31.4
336.179	113.32
336.392	-21.85
336.604	25.26
336.817	64.17
337.029	17.07
337.242	49.83
337.454	82.6
337.667	70.31
337.88	25.26
338.092	47.79
338.305	47.79
338.517	53.93
338.729	64.17
338.942	8.87
339.154	80.55
339.367	43.69
339.579	94.89
339.792	0.68
340.004	76.46
340.217	17.07
340.429	60.07
340.641	15.02
340.854	17.07
341.066	27.31
341.278	-30.04
341.491	123.56
341.703	33.45
341.915	-36.18
342.128	60.07
342.34	80.55
342.552	-21.85
342.764	19.11
342.977	72.36
343.189	33.45
343.401	66.22
343.613	-44.37
343.826	80.55
344.038	2.73
344.25	62.12
344.462	12.97
344.674	27.31
344.886	10.92
345.099	23.21
345.311	49.83
345.523	35.5
345.735	62.12
345.947	58.03
346.159	51.88
346.371	41.64
346.583	74.41
346.795	55.98
347.007	25.26
347.219	-1.37
347.431	70.31
347.643	64.17
347.855	29.35
348.067	45.74
348.279	35.5
348.491	94.89
348.703	72.36
348.915	45.74
349.127	27.31
349.339	8.87
349.551	47.79
349.763	119.46
349.975	-32.08
350.187	84.65
350.399	45.74
350.61	49.83
350.822	-30.04
351.034	70.31
351.246	-34.13
351.458	103.08
351.669	107.18
351.881	92.84
352.093	33.45
352.305	74.41
352.517	-9.56
352.728	60.07
352.94	-34.13
353.152	51.88
353.363	49.83
353.575	19.11
353.787	64.17
353.999	37.55
354.21	49.83
354.422	84.65
354.633	25.26
354.845	47.79
355.057	-9.56
355.268	92.84
355.48	23.21
355.692	27.31
355.903	27.31
356.115	-25.94
356.326	31.4
356.538	66.22
356.749	-11.61
356.961	82.6
357.172	84.65
357.384	45.74
357.595	84.65
357.807	6.83
358.018	74.41
358.23	53.93
358.441	96.94
358.653	60.07
358.864	72.36
359.075	-13.65
359.287	41.64
359.498	70.31
359.709	76.46
359.921	47.79
360.132	37.55
360.344	137.9
360.555	10.92
360.766	47.79
360.977	68.27
361.189	127.66
361.4	51.88
361.611	121.51
361.823	62.12
362.034	-11.61
362.245	29.35
362.456	58.03
362.667	45.74
362.879	-32.08
363.09	62.12
363.301	94.89
363.512	-25.94
363.723	-1.37
363.935	86.7
364.146	-21.85
364.357	78.51
364.568	70.31
364.779	62.12
364.99	62.12
365.201	2.73
365.412	31.4
365.623	-48.47
365.834	31.4
366.045	43.69
366.256	37.55
366.467	72.36
366.678	76.46
366.889	43.69
367.1	58.03
367.311	68.27
367.522	66.22
367.733	47.79
367.944	68.27
368.155	-3.41
368.366	84.65
368.577	96.94
368.788	68.27
368.999	12.97
369.209	39.59
369.42	129.7
369.631	80.55
369.842	78.51
370.053	2.73
370.264	94.89
370.474	58.03
370.685	8.87
370.896	119.46
371.107	0.68
371.317	31.4
371.528	43.69
371.739	45.74
371.95	84.65
372.16	51.88
372.371	39.59
372.582	58.03
372.792	4.78
373.003	62.12
373.214	15.02
373.424	47.79
373.635	66.22
373.846	39.59
374.056	39.59
374.267	121.51
374.477	119.46
374.688	-9.56
374.898	98.99
375.109	70.31
375.319	96.94
375.53	94.89
375.74	131.75
375.951	-9.56
376.161	94.89
376.372	129.7
376.582	60.07
376.793	12.97
377.003	53.93
377.214	60.07
377.424	96.94
377.635	68.27
377.845	29.35
378.055	33.45
378.266	-13.65
378.476	88.75
378.686	82.6
378.897	72.36
379.107	62.12
379.317	70.31
379.528	-7.51
379.738	60.07
379.948	29.35
380.158	53.93
380.369	53.93
380.579	76.46
380.789	88.75
380.999	78.51
381.21	-34.13
381.42	88.75
381.63	90.79
381.84	86.7
382.05	111.27
382.261	51.88
382.471	80.55
382.681	58.03
382.891	70.31
383.101	55.98
383.311	4.78
383.521	45.74
383.731	6.83
383.941	154.28
384.151	51.88
384.361	29.35
384.571	55.98
384.781	74.41
384.991	121.51
385.201	94.89
385.411	86.7
385.621	19.11
385.831	47.79
386.041	68.27
386.251	74.41
386.461	43.69
386.671	27.31
386.881	35.5
387.091	53.93
387.301	27.31
387.511	47.79
387.72	103.08
387.93	58.03
388.14	62.12
388.35	21.16
388.56	60.07
388.769	86.7
388.979	64.17
389.189	27.31
389.399	62.12
389.609	60.07
389.818	76.46
390.028	60.07
390.238	76.46
390.447	45.74
390.657	144.04
390.867	84.65
391.076	164.52
391.286	82.6
391.496	45.74
391.705	131.75
391.915	6.83
392.125	15.02
392.334	96.94
392.544	55.98
392.753	101.03
392.963	-1.37
393.172	55.98
393.382	29.35
393.591	129.7
393.801	55.98
394.01	146.09
394.22	86.7
394.429	4.78
394.639	51.88
394.848	158.38
395.058	60.07
395.267	115.37
395.477	207.53
395.686	74.41
395.895	127.66
396.105	205.48
396.314	53.93
396.524	148.14
396.733	90.79
396.942	172.71
397.152	137.9
397.361	92.84
397.57	119.46
397.78	158.38
397.989	92.84
398.198	180.9
398.407	84.65
398.617	135.85
398.826	113.32
399.035	135.85
399.244	131.75
399.453	86.7
399.663	121.51
399.872	203.43
400.081	141.99
400.29	166.57
400.499	6.83
400.708	176.81
400.917	152.23
401.127	152.23
401.336	96.94
401.545	195.24
401.754	185
401.963	158.38
402.172	158.38
402.381	152.23
402.59	176.81
402.799	178.86
403.008	166.57
403.217	135.85
403.426	156.33
403.635	264.87
403.844	115.37
404.053	209.58
404.262	164.52
404.471	217.77
404.68	219.82
404.888	209.58
405.097	129.7
405.306	174.76
405.515	240.3
405.724	244.39
405.933	266.92
406.142	180.9
406.35	197.29
406.559	279.21
406.768	223.91
406.977	228.01
407.185	273.06
407.394	232.1
407.603	256.68
407.812	279.21
408.02	316.07
408.229	348.84
408.438	334.5
408.646	367.27
408.855	238.25
409.064	346.79
409.272	322.21
409.481	365.22
409.69	324.26
409.898	340.65
410.107	344.74
410.315	412.32
410.524	367.27
410.733	436.9
410.941	402.08
411.15	426.66
411.358	565.92
411.567	514.72
411.775	467.62
411.984	510.63
412.192	567.97
412.401	598.69
412.609	656.03
412.818	662.18
413.026	617.12
413.234	713.38
413.443	668.32
413.651	666.27
413.86	733.86
414.068	795.29
414.276	838.3
414.485	832.16
414.693	885.41
414.901	922.27
415.11	932.51
415.318	955.04
415.526	918.17
415.734	969.37
415.943	1047.19
416.151	969.37
416.359	1200.79
416.567	1258.14
416.776	1180.31
416.984	1313.43
417.192	1311.38
417.4	1335.96
417.608	1264.28
417.817	1381.01
418.025	1438.36
418.233	1608.34
418.441	1630.87
418.649	1614.48
418.857	1591.95
419.065	1606.29
419.273	1731.22
419.481	1929.87
419.689	1933.97
419.897	1981.07
420.105	2079.37
420.313	2232.97
420.521	2118.28
420.729	2075.27
420.937	2370.18
421.145	2427.53
421.353	2501.25
421.561	2466.44
421.769	2634.37
421.977	2755.2
422.185	2669.19
422.393	2820.74
422.601	3084.92
422.809	3117.69
423.017	3062.4
423.224	3193.47
423.432	3347.06
423.64	3398.26
423.848	3658.35
424.056	3521.14
424.263	3801.71
424.471	3840.62
424.679	4016.75
424.887	4090.48
425.094	4383.34
425.302	4289.13
425.51	4452.97
425.718	4518.5
425.925	4590.18
426.133	4833.89
426.341	5055.07
426.548	5311.07
426.756	5173.85
426.964	5429.85
427.171	5821.01
427.379	5802.58
427.586	5831.25
427.794	6238.8
428.001	6484.55
428.209	6556.23
428.417	6646.34
428.624	7096.89
428.832	7084.61
429.039	7094.85
429.247	7025.22
429.454	7635.51
429.662	8274.48
429.869	7572.02
430.076	8221.23
430.284	8041.01
430.491	8432.17
430.699	8946.21
430.906	8794.66
431.114	9042.46
431.321	9357.85
431.528	9468.44
431.736	9978.39
431.943	10654.22
432.15	10183.18
432.358	10387.98
432.565	10971.65
432.772	10969.6
432.979	11645.43
433.187	11745.78
433.394	11719.16
433.601	12835.3
433.808	12638.7
434.016	12550.64
434.223	12909.03
434.43	13672.92
434.637	13513.18
434.844	14416.33
435.052	14567.88
435.259	14457.29
435.466	14635.47
435.673	14383.57
435.88	15624.64
436.087	16449.97
436.294	16535.98
436.501	16079.29
436.708	16390.58
436.915	16785.83
437.122	17365.41
437.329	17365.41
437.537	17930.65
437.743	18624.91
437.95	18360.72
438.157	19106.18
438.364	19937.66
438.571	19933.56
438.778	20003.19
438.985	21694.82
439.192	21086.57
439.399	21711.2
439.606	21098.86
439.813	22010.2
440.02	23984.44
440.227	23138.63
440.433	23036.24
440.64	23814.46
440.847	23537.99
441.054	24193.34
441.261	25735.46
441.467	25432.36
441.674	26202.39
441.881	26605.84
442.088	26872.08
442.294	26489.11
442.501	27240.72
442.708	27855.11
442.914	29104.37
443.121	30257.37
443.328	29855.97
443.534	31465.67
443.741	30453.98
443.948	30208.22
444.154	32616.63
444.361	32045.25
444.568	32078.02
444.774	32387.26
444.981	32745.65
445.187	33708.2
445.394	35192.98
445.6	34769.05
445.807	37922.92
446.013	36274.31
446.22	36964.47
446.426	38680.67
446.633	38821.98
446.839	40233.03
447.046	38547.55
447.252	40665.15
447.459	40314.95
447.665	40194.12
447.871	42250.28
448.078	43974.67
448.284	41672.75
448.491	42469.41
448.697	44453.89
448.903	45260.79
449.11	45230.07
449.316	44261.38
449.522	45500.4
449.728	46680.03
449.935	47050.72
450.141	46669.79
450.347	47837.14
450.553	46331.88
450.76	46942.17
450.966	48029.65
451.172	47497.17
451.378	48607.17
451.584	47896.53
451.791	48842.69
451.997	48402.38
452.203	49229.76
452.409	49067.97
452.615	49301.43
452.821	47421.4
453.027	47005.66
453.233	49084.35
453.44	47454.17
453.646	47947.73
453.852	47802.32
454.058	48605.12
454.264	46915.55
454.47	48181.2
454.676	47007.71
454.882	48170.96
455.088	44130.31
455.294	44648.45
455.5	45416.44
455.705	45946.86
455.911	43984.91
456.117	43032.6
456.323	42254.37
456.529	40327.24
456.735	41685.04
456.941	40783.93
457.147	40497.22
457.352	38752.35
457.558	38273.12
457.764	38309.99
457.97	37929.06
458.176	37173.36
458.381	37154.93
458.587	35383.44
458.793	35426.45
458.999	33468.59
459.204	35981.45
459.41	34597.02
459.616	32721.08
459.821	32323.77
460.027	32235.71
460.233	31781.06
460.438	30109.92
460.644	30759.13
460.85	29286.64
461.055	28866.8
461.261	28885.23
461.466	26456.34
461.672	25831.71
461.878	27775.23
462.083	25887.01
462.289	25669.92
462.494	25057.58
462.7	23896.38
462.905	23327.05
463.111	24154.43
463.316	24103.23
463.522	23935.29
463.727	23841.09
463.932	23660.87
464.138	23542.08
464.343	23798.08
464.549	23359.81
464.754	23996.73
464.959	23554.37
465.165	23306.57
465.37	22552.91
465.575	22133.08
465.781	22876.49
465.986	23015.76
466.191	22067.55
466.397	21922.14
466.602	20816.24
466.807	21707.1
467.012	21535.07
467.218	21262.69
467.423	20980.07
467.628	21348.71
467.833	22309.21
468.038	21057.9
468.244	20756.85
468.449	21416.29
468.654	20787.57
468.859	20560.24
469.064	20711.79
469.269	19749.25
469.474	19554.69
469.679	20324.72
469.885	19519.87
470.09	20001.15
470.295	19863.93
470.5	19546.5
470.705	19390.85
470.91	19104.14
471.115	18794.89
471.32	19048.84
471.525	18952.59
471.73	18680.21
471.935	18383.25
472.139	17822.11
472.344	18190.74
472.549	17897.88
472.754	17748.38
472.959	17455.52
473.164	16929.19
473.369	16912.81
473.574	17500.58
473.778	17209.76
473.983	17066.41
474.188	16873.9
474.393	16232.88
474.598	16329.14
474.802	15966.65
475.007	16275.89
475.212	15952.31
475.417	15317.44
475.621	14938.57
475.826	15724.99
476.031	15112.64
476.235	15147.46
476.44	15212.99
476.645	14897.61
476.849	14901.7
477.054	14760.39
477.259	14586.32
477.463	14408.14
477.668	13984.21
477.872	14367.18
478.077	14019.03
478.282	13648.35
478.486	13642.2
478.691	13631.96
478.895	13607.39
479.1	13634.01
479.304	13584.86
479.509	13038.05
479.713	13236.7
479.918	12900.84
480.122	12706.28
480.326	13079.01
480.531	13105.63
480.735	12696.04
480.94	12595.69
481.144	13220.32
481.348	12646.89
481.553	12802.54
481.757	12589.55
481.961	12589.55
482.166	13013.48
482.37	12642.79
482.574	12497.39
482.778	12464.62
482.983	12751.34
483.187	12579.31
483.391	12802.54
483.595	12548.59
483.8	12716.52
484.004	12470.76
484.208	12673.51
484.412	12386.8
484.616	12843.49
484.821	12706.28
485.025	12200.43
485.229	12503.53
485.433	12354.03
485.637	12659.18
485.841	12341.74
486.045	12450.28
486.249	12452.33
486.453	12628.46
486.657	12644.84
486.861	12716.52
487.065	12288.5
487.269	12616.17
487.473	12458.48
487.677	12612.07
487.881	12591.59
488.085	12632.55
488.289	12552.68
488.493	12571.11
488.697	12900.84
488.901	12700.14
489.105	12503.53
489.309	12882.41
489.512	12681.71
489.716	12702.18
489.92	12696.04
490.124	12857.83
490.328	12724.71
490.531	12655.08
490.735	13033.96
490.939	12976.61
491.143	12976.61
491.346	12997.09
491.55	13064.68
491.754	13212.13
491.958	13062.63
492.161	13185.51
492.365	13017.57
492.569	13271.52
492.772	13416.93
492.976	13332.96
493.18	13593.05
493.383	13847
493.587	13717.98
493.79	13920.73
493.994	13838.81
494.197	13957.59
494.401	14139.86
494.605	14131.67
494.808	14131.67
495.012	14156.24
495.215	14307.79
495.419	14657.99
495.622	14262.74
495.825	14670.28
496.029	14629.32
496.232	15249.86
496.436	14977.48
496.639	15253.95
496.843	15313.34
497.046	15698.36
497.249	15585.72
497.453	15864.25
497.656	15978.93
497.859	15897.02
498.063	16220.6
498.266	16474.54
498.469	16214.45
498.673	16386.48
498.876	16720.3
499.079	16990.63
499.282	16830.89
499.485	17340.83
499.689	17414.56
499.892	17996.18
500.095	17924.51
500.298	18069.91
500.501	18174.36
500.705	18727.31
500.908	19014.02
501.111	18985.35
501.314	19005.83
501.517	19478.91
501.72	19341.7
501.923	19612.03
502.126	19970.43
502.329	20253.05
502.532	20285.81
502.735	20568.43
502.938	20691.31
503.141	20844.91
503.344	21102.95
503.547	21471.59
503.75	21526.88
503.953	22104.41
504.156	22063.45
504.359	22344.02
504.562	22237.53
504.765	22882.64
504.968	23486.79
505.17	23290.18
505.373	23460.16
505.576	23920.96
505.779	24049.98
505.982	24121.66
506.185	24789.3
506.387	24824.11
506.59	25008.43
506.793	25483.56
506.996	25463.08
507.198	26292.51
507.401	25946.4
507.604	26669.33
507.807	26949.9
508.009	26902.8
508.212	27062.54
508.415	27402.5
508.617	27640.07
508.82	28113.15
509.022	27738.37
509.225	28909.81
509.428	28909.81
509.63	28883.19
509.833	29069.55
510.035	29982.95
510.238	29720.81
510.44	30230.75
510.643	30380.25
510.845	30953.68
511.048	30607.58
511.25	31353.04
511.453	31293.65
511.655	32686.26
511.858	32202.94
512.06	32395.45
512.262	32874.68
512.465	32633.02
512.667	33501.36
512.87	33517.74
513.072	33796.26
513.274	34402.46
513.477	34412.7
513.679	34971.8
513.881	35385.49
514.084	36014.21
514.286	35848.33
514.488	36176
514.69	36812.92
514.893	37007.48
515.095	37099.64
515.297	37525.61
515.499	37603.44
515.701	37994.6
515.904	38832.22
516.106	39092.31
516.308	39059.54
516.51	39157.85
516.712	39462.99
516.914	39919.69
517.116	40738.88
517.318	40611.9
517.52	40859.71
517.722	41320.5
517.925	41832.49
518.127	42213.41
518.329	42227.75
518.531	42184.74
518.733	42987.55
518.935	43288.6
519.136	43632.66
519.338	44144.65
519.54	43907.08
519.742	44593.15
519.944	44410.89
520.146	45821.94
520.348	45465.59
520.55	46172.14
520.752	46163.95
520.954	46325.74
521.155	46704.61
521.357	47450.07
521.559	47298.52
521.761	48216.01
521.963	48152.52
522.164	48299.98
522.366	48320.46
522.568	49004.48
522.77	49334.2
522.971	50198.44
523.173	49418.17
523.375	50081.71
523.576	50143.15
523.778	50710.44
523.98	51105.69
524.181	51130.27
524.383	50980.77
524.584	51752.85
524.786	52187.02
524.988	52318.09
525.189	52254.61
525.391	52633.48
525.592	52651.91
525.794	53444.48
525.995	52940.67
526.197	53168
526.398	53268.35
526.6	53499.77
526.801	53995.38
527.003	54396.78
527.204	53819.25
527.406	54878.05
527.607	54617.96
527.808	55306.08
528.01	53976.95
528.211	54450.03
528.412	55770.97
528.614	55713.62
528.815	55570.27
529.016	56000.34
529.218	55197.54
529.419	55697.24
529.62	55625.56
529.822	55463.77
530.023	55697.24
530.224	55979.86
530.425	56348.49
530.626	55918.42
530.828	55861.08
531.029	57315.14
531.23	55955.28
531.431	56303.44
531.632	56858.44
531.833	56850.25
532.035	56950.6
532.236	57007.94
532.437	57196.35
532.638	56377.17
532.839	56917.83
533.04	57118.53
533.241	56518.48
533.442	57294.66
533.643	57417.53
533.844	56907.59
534.045	57061.19
534.246	56743.75
534.447	57653.05
534.648	57053
534.849	57425.73
535.05	56889.16
535.251	56577.87
535.451	56911.69
535.652	57579.32
535.853	57091.91
536.054	57214.79
536.255	57311.04
536.456	57089.86
536.657	57601.85
536.857	57139.01
537.058	57376.58
537.259	57405.25
537.46	57646.91
537.66	57538.36
537.861	57268.03
538.062	57024.32
538.263	57528.12
538.463	56737.61
538.664	57415.49
538.865	57603.9
539.065	57773.88
539.266	56885.06
539.466	57857.85
539.667	56575.82
539.868	57663.29
540.068	57315.14
540.269	57016.13
540.469	57091.91
540.67	56905.54
540.87	57089.86
541.071	57147.2
541.271	57352
541.472	57376.58
541.672	56823.62
541.873	56661.83
542.073	56485.71
542.274	57460.54
542.474	56571.72
542.675	56452.94
542.875	57493.31
543.075	56844.1
543.276	56334.16
543.476	57313.09
543.676	57040.71
543.877	56827.72
544.077	56848.2
544.277	56745.8
544.478	56635.21
544.678	57053
544.878	57167.68
545.078	56868.68
545.279	56389.45
545.479	56715.08
545.679	57290.56
545.879	57085.76
546.079	56713.03
546.28	56557.39
546.48	56489.8
546.68	56907.59
546.88	56745.8
547.08	56897.35
547.28	56481.61
547.48	56721.23
547.68	56811.34
547.88	56487.76
548.081	56864.58
548.281	56395.6
548.481	56516.43
548.681	57034.56
548.881	56801.1
549.081	56493.9
549.28	56115.03
549.48	57018.18
549.68	56330.06
549.88	57456.45
550.08	56688.46
550.28	56622.92
550.48	56381.26
550.68	56770.38
550.88	56360.78
551.08	56164.18
551.279	56745.8
551.479	56043.35
551.679	56661.83
551.879	56096.59
552.079	56782.66
552.278	56307.54
552.478	56592.2
552.678	56297.3
552.878	56119.12
553.077	56330.06
553.277	55914.33
553.477	56590.16
553.676	56217.42
553.876	56368.97
554.076	55881.56
554.275	56016.72
554.475	55166.82
554.674	56305.49
554.874	56172.37
555.074	55824.21
555.273	56504.14
555.473	56258.38
555.672	56067.92
555.872	56033.11
556.071	55912.28
556.271	55803.74
556.47	55574.36
556.67	55717.72
556.869	55617.37
557.068	55658.33
557.268	55525.21
557.467	55316.32
557.667	55926.61
557.866	55762.78
558.065	55373.66
558.265	55099.23
558.464	54798.18
558.663	55480.16
558.863	54808.42
559.062	55803.74
559.261	54693.74
559.461	55705.43
559.66	54689.64
559.859	55185.25
560.058	54636.39
560.258	54916.96
560.457	54239.09
560.656	54968.16
560.855	54665.06
561.054	54677.35
561.253	54169.46
561.453	54036.34
561.652	54116.21
561.851	54605.67
562.05	54228.85
562.249	53847.93
562.448	54314.86
562.647	54054.77
562.846	54091.63
563.045	53890.93
563.244	53600.12
563.443	54452.08
563.642	53284.73
563.841	53583.74
564.04	53368.7
564.239	54124.4
564.438	53022.59
564.637	53288.83
564.836	53163.9
565.035	52713.35
565.234	52830.08
565.432	52770.69
565.631	52752.26
565.83	52707.21
566.029	52840.32
566.228	52346.76
566.427	53022.59
566.625	51971.99
566.824	51603.35
567.023	52400.01
567.222	51462.04
567.42	51957.65
567.619	52215.69
567.818	52004.75
568.016	51638.17
568.215	51849.11
568.414	51562.39
568.612	52111.25
568.811	51158.94
569.01	51281.82
569.208	50775.97
569.407	51464.09
569.605	50716.58
569.804	51451.8
570.002	50384.81
570.201	51265.44
570.4	50286.51
570.598	50325.42
570.797	50466.73
570.995	50638.76
571.193	50139.05
571.392	50620.33
571.59	49926.06
571.789	50298.8
571.987	49653.68
572.186	49661.88
572.384	49434.55
572.582	50147.25
572.781	49864.63
572.979	49121.21
573.177	49524.66
573.376	49217.47
573.574	48945.09
573.772	49422.26
573.971	48897.98
574.169	48803.78
574.367	48596.93
574.565	48984
574.763	48406.47
574.962	48082.89
575.16	48226.25
575.358	48447.43
575.556	47704.02
575.754	48291.79
575.952	47413.21
576.151	48461.77
576.349	47249.37
576.547	47439.83
576.745	47937.49
576.943	47849.42
577.141	47042.52
577.339	47284.19
577.537	47273.95
577.735	47167.45
577.933	46931.93
578.131	47054.81
578.329	46639.08
578.527	46571.49
578.725	46477.29
578.923	46993.37
579.121	46317.54
579.319	46292.97
579.516	46385.13
579.714	46051.31
579.912	45918.19
580.11	45633.52
580.308	45776.88
580.506	45864.94
580.704	44867.58
580.901	45846.51
581.099	45416.44
581.297	45195.26
581.495	45473.78
581.692	44865.53
581.89	44822.53
582.088	45486.07
582.285	45074.43
582.483	44947.45
582.681	44648.45
582.878	44593.15
583.076	44191.75
583.274	44861.44
583.471	43995.15
583.669	43913.23
583.866	43804.69
584.064	44134.41
584.262	43487.25
584.459	44195.85
584.657	43411.48
584.854	43778.06
585.052	43206.68
585.249	44036.11
585.447	43153.43
585.644	42999.83
585.841	43096.09
586.039	43606.03
586.236	42735.65
586.434	42432.55
586.631	42518.56
586.828	42772.51
587.026	42854.43
587.223	42584.1
587.42	42182.69
587.618	42319.91
587.815	41480.24
588.012	41941.03
588.21	41726
588.407	42147.88
588.604	41603.12
588.801	41426.99
588.999	41328.69
589.196	41443.38
589.393	41506.87
589.59	40994.87
589.787	40947.77
589.984	40597.57
590.182	40738.88
590.379	41101.37
590.576	40517.7
590.773	40820.8
590.97	40265.8
591.167	40423.49
591.364	39948.36
591.561	40288.32
591.758	39561.29
591.955	39854.15
592.152	39995.46
592.349	39587.92
592.546	39979.08
592.743	39776.33
592.94	38838.36
593.137	39372.88
593.334	39344.21
593.531	38760.54
593.727	39311.44
593.924	38869.08
594.121	38359.14
594.318	39168.08
594.515	38355.04
594.712	38985.82
594.908	38307.94
595.105	38705.24
595.302	38119.53
595.499	38217.83
595.696	38086.76
595.892	37738.6
596.089	38086.76
596.286	38072.42
596.482	37468.27
596.679	37601.39
596.876	37785.71
597.072	37269.62
597.269	37664.88
597.466	37015.67
597.662	37089.4
597.859	36888.7
598.055	37261.43
598.252	36747.39
598.448	36843.64
598.645	36581.5
598.841	36167.81
599.038	36421.76
599.234	36212.87
599.431	35909.77
599.627	36094.08
599.824	36237.44
600.02	36016.26
600.217	36284.54
600.413	35825.8
600.609	35647.63
600.806	35375.25
601.002	35391.63
601.198	35238.03
601.395	35328.14
601.591	34820.25
601.787	35338.38
601.984	34617.5
602.18	35002.52
602.376	34732.18
602.572	34769.05
602.769	34629.79
602.965	34357.41
603.161	34179.23
603.357	34173.09
603.553	34449.57
603.75	34068.64
603.946	33478.83
604.142	34021.54
604.338	33566.89
604.534	34105.51
604.73	33505.45
604.926	33618.09
605.122	33464.49
605.318	33548.46
605.514	33306.8
605.71	33237.17
605.906	32985.27
606.102	33214.64
606.298	33044.66
606.494	33009.84
606.69	32723.13
606.886	32862.39
607.082	32475.32
607.278	32733.37
607.474	32080.07
607.67	32663.74
607.866	32143.55
608.062	32475.32
608.257	32340.16
608.453	32336.06
608.649	32305.34
608.845	31983.81
609.041	32071.87
609.236	32260.29
609.432	32022.72
609.628	32129.22
609.824	31819.97
610.019	31895.75
610.215	31891.65
610.411	31537.35
610.606	31541.45
610.802	31797.45
610.998	31426.76
611.193	31553.74
611.389	31434.95
611.584	31512.78
611.78	31269.07
611.976	31138
612.171	31201.49
612.367	31338.7
612.562	31166.67
612.758	30398.68
612.953	30585.05
613.149	31267.02
613.344	30626.01
613.539	31267.02
613.735	30730.45
613.93	30998.74
614.126	30402.78
614.321	31109.33
614.517	30290.14
614.712	30460.12
614.907	30449.88
615.103	30597.34
615.298	30292.19
615.493	30673.11
615.688	30154.97
615.884	30597.34
616.079	29640.93
616.274	30097.63
616.47	29911.27
616.665	30128.35
616.86	29962.47
617.055	29864.16
617.25	29575.4
617.445	30353.63
617.641	29532.39
617.836	29579.5
618.031	29587.69
618.226	29800.68
618.421	29425.9
618.616	29575.4
618.811	29083.89
619.006	29223.15
619.201	28649.72
619.396	29098.22
619.591	28543.22
619.786	29184.24
619.981	28139.77
620.176	28991.73
620.371	27984.13
620.566	28475.64
620.761	28276.99
620.956	28631.29
621.151	27660.55
621.346	28242.17
621.541	27519.24
621.735	27906.3
621.93	27425.03
622.125	27478.28
622.32	26720.53
622.515	27193.61
622.709	26816.79
622.904	27171.08
623.099	26693.91
623.294	27083.02
623.488	26528.02
623.683	26347.8
623.878	25921.82
624.072	26208.54
624.267	26034.46
624.462	25950.49
624.656	25846.05
624.851	25895.2
625.046	25487.65
625.24	25446.69
625.435	25227.56
625.629	25233.71
625.824	24949.04
626.018	24801.58
626.213	24371.51
626.407	24678.71
626.602	24090.94
626.796	24803.63
626.991	24381.75
627.185	24066.36
627.38	23695.68
627.574	23707.97
627.768	23394.63
627.963	23431.49
628.157	23245.13
628.352	23331.14
628.546	23083.34
628.74	23474.5
628.935	22935.88
629.129	22841.68
629.323	22671.7
629.517	22706.51
629.712	22473.04
629.906	22364.5
630.1	22202.71
630.294	22258.01
630.489	21954.91
630.683	22290.77
630.877	21705.06
631.071	21547.36
631.265	21711.2
631.459	21557.6
631.653	21373.28
631.848	21291.37
632.042	21158.25
632.236	21401.96
632.43	21170.54
632.624	21133.67
632.818	20793.71
633.012	20582.77
633.206	20830.57
633.4	20466.03
633.594	20369.78
633.788	20167.03
633.982	20318.58
634.176	20011.39
634.369	19870.08
634.563	19951.99
634.757	19732.86
634.951	19732.86
635.145	19648.89
635.339	19605.89
635.533	19491.2
635.726	19560.83
635.92	19255.68
636.114	19122.57
636.308	19153.29
636.501	19044.74
636.695	18862.47
636.889	18780.56
637.083	18739.6
637.276	18706.83
637.47	18516.37
637.664	18418.07
637.857	18403.73
638.051	18682.25
638.244	18065.81
638.438	18084.25
638.632	17955.22
638.825	17889.69
639.019	17734.04
639.212	17813.91
639.406	17437.09
639.599	17533.34
639.793	17260.96
639.986	16847.27
640.18	17328.55
640.373	17404.32
640.567	17095.08
640.76	16845.23
640.954	16964.01
641.147	16591.28
641.34	16648.62
641.534	16761.26
641.727	16447.92
641.92	16578.99
642.114	16386.48
642.307	16257.46
642.5	16134.58
642.694	15856.06
642.887	15962.55
643.08	15851.96
643.273	15780.28
643.467	15823.29
643.66	15661.5
643.853	15702.46
644.046	15387.07
644.239	15653.31
644.432	15452.61
644.626	15151.56
644.819	15323.58
645.012	15217.09
645.205	15296.96
645.398	15012.29
645.591	14594.51
645.784	14903.75
645.977	14576.08
646.17	14832.07
646.363	14391.76
646.556	14223.83
646.749	14498.25
646.942	14449.1
647.135	14152.15
647.328	14268.88
647.521	14354.9
647.714	13945.3
647.907	14016.98
648.099	14049.75
648.292	14045.65
648.485	13660.63
648.678	13638.11
648.871	13808.09
649.064	13363.68
649.256	13562.33
649.449	13648.35
649.642	13412.83
649.835	13138.4
650.027	13158.88
650.22	13060.58
650.413	13066.72
650.605	13130.21
650.798	13007.33
650.991	12763.62
651.183	12884.45
651.376	12659.18
651.568	12931.56
651.761	12558.83
651.954	12739.05
652.146	12587.5
652.339	12257.78
652.531	12200.43
652.724	12331.5
652.916	12313.07
653.109	12222.96
653.301	12196.34
653.494	12061.17
653.686	11772.41
653.879	12052.98
654.071	11756.02
654.263	11899.38
654.456	11856.37
654.648	11880.95
654.84	11457.02
655.033	11518.46
655.225	11401.72
655.417	11323.9
655.61	11477.5
655.802	11549.18
655.994	11368.96
656.186	11512.31
656.379	11094.53
656.571	11182.59
656.763	10965.51
656.955	11151.87
657.148	10951.17
657.34	10779.14
657.532	10803.72
657.724	10822.15
657.916	10742.28
658.108	10777.09
658.3	10607.11
658.492	10568.2
658.684	10439.18
658.876	10373.64
659.068	10465.8
659.26	10324.49
659.452	10428.94
659.644	10148.37
659.836	10144.27
660.028	10142.22
660.22	10025.49
660.412	10070.55
660.604	9851.41
660.796	10011.15
660.988	10029.59
661.18	9783.83
661.372	9830.93
661.563	9826.84
661.755	9546.26
661.947	9632.28
662.139	9429.53
662.331	9441.82
662.522	9415.19
662.714	9357.85
662.906	9323.04
663.097	9331.23
663.289	9134.62
663.481	9185.82
663.673	9026.08
663.864	9011.75
664.056	9062.94
664.247	8860.2
664.439	8776.23
664.631	9163.29
664.822	8790.56
665.014	8882.72
665.205	8849.96
665.397	8514.09
665.588	8768.04
665.78	8643.11
665.971	8503.85
666.163	8737.32
666.354	8432.17
666.546	8630.82
666.737	8512.04
666.929	8321.58
667.12	8292.91
667.311	8346.16
667.503	8137.26
667.694	8131.12
667.885	8239.66
668.077	8163.89
668.268	8022.58
668.459	8086.06
668.651	8049.2
668.842	8069.68
669.033	7893.55
669.224	7926.32
669.416	7942.71
669.607	7791.16
669.798	7819.83
669.989	7760.44
670.18	7699
670.371	7510.58
670.563	7588.41
670.754	7649.85
670.945	7406.14
671.136	7604.79
671.327	7451.19
671.518	7295.55
671.709	7391.8
671.9	7420.47
672.091	7391.8
672.282	7391.8
672.473	7246.4
672.664	7115.33
672.855	7139.9
673.046	7285.31
673.237	7203.39
673.428	7117.37
673.619	6926.91
673.809	7029.31
674	6914.63
674.191	7115.33
674.382	6967.87
674.573	6976.06
674.764	7025.22
674.954	6980.16
675.145	6920.77
675.336	6804.03
675.527	6769.22
675.717	6701.64
675.908	6646.34
676.099	6713.92
676.289	6746.69
676.48	6478.41
676.671	6752.84
676.861	6736.45
677.052	6607.43
677.243	6748.74
677.433	6589
677.624	6462.02
677.814	6431.3
678.005	6328.91
678.195	6404.68
678.386	6488.65
678.576	6185.55
678.767	6404.68
678.957	6242.89
679.148	6402.63
679.338	6236.75
679.529	6330.95
679.719	6337.1
679.909	6312.52
680.1	6230.6
680.29	6355.53
680.481	6326.86
680.671	6015.57
680.861	6093.39
681.052	6195.79
681.242	6060.62
681.432	6048.33
681.622	5952.08
681.813	5939.79
682.003	5929.55
682.193	5714.52
682.383	5923.41
682.573	5902.93
682.764	5945.94
682.954	5931.6
683.144	5798.48
683.334	5855.83
683.524	5833.3
683.714	5616.21
683.904	5593.69
684.094	5739.09
684.284	5775.95
684.474	5655.12
684.664	5685.84
684.854	5476.95
685.044	5657.17
685.234	5704.28
685.424	5634.64
685.614	5515.86
685.804	5567.06
685.994	5788.24
686.184	5681.75
686.374	5536.34
686.564	5397.08
686.753	5585.49
686.943	5356.12
687.133	5347.93
687.323	5503.57
687.513	5446.23
687.702	5517.91
687.892	5069.41
688.082	5263.96
688.272	5120.6
688.461	5204.57
688.651	5200.48
688.841	5163.61
689.03	5071.45
689.22	5075.55
689.41	5268.06
689.599	5139.04
689.789	5188.19
689.979	5024.35
690.168	5093.98
690.358	5126.75
690.547	5067.36
690.737	4866.66
690.926	5028.45
691.116	4778.59
691.305	4940.38
691.495	4837.98
691.684	4784.74
691.874	4940.38
692.063	4850.27
692.252	4883.04
692.442	4784.74
692.631	4690.53
692.82	4758.11
693.01	4786.79
693.199	4612.71
693.388	4659.81
693.578	4831.84
693.767	4747.87
693.956	4631.14
694.146	4672.1
694.335	4485.73
694.524	4536.93
694.713	4704.87
694.902	4641.38
695.092	4500.07
695.281	4541.03
695.47	4528.74
695.659	4514.41
695.848	4401.77
696.037	4442.73
696.226	4534.89
696.415	4614.76
696.604	4522.6
696.793	4434.53
696.982	4291.18
697.171	4383.34
697.36	4418.15
697.549	4379.24
697.738	4430.44
697.927	4444.77
698.116	4418.15
698.305	4414.06
698.494	4360.81
698.683	4364.9
698.872	4416.1
699.061	4239.98
699.25	4205.16
699.438	4219.5
699.627	4270.7
699.816	4248.17
700.005	4231.79
700.193	4119.15
700.382	4250.22
700.571	4047.47
700.76	4250.22
700.948	4135.53
701.137	4178.54
701.326	4010.61
701.514	4274.79
701.703	4086.38
701.892	4176.49
702.08	4215.4
702.269	4317.8
702.457	4094.57
702.646	4061.8
702.834	4055.66
703.023	4201.07
703.212	4139.63
703.4	4262.51
703.589	4055.66
703.777	4266.6
703.965	4026.99
704.154	3971.69
704.342	4137.58
704.531	3996.27
704.719	4070
704.907	4119.15
705.096	4135.53
705.284	4012.65
705.472	4086.38
705.661	3875.44
705.849	4115.05
706.037	3945.07
706.226	4041.32
706.414	3854.96
706.602	3895.92
706.79	3988.08
706.979	3955.31
707.167	3906.16
707.355	3943.02
707.543	4004.46
707.731	3897.97
707.919	3842.67
708.107	3840.62
708.296	3807.86
708.484	3652.21
708.672	4008.56
708.86	3902.06
709.048	3859.06
709.236	3682.93
709.424	3863.15
709.612	3779.18
709.8	3863.15
709.988	3809.9
710.176	3877.49
710.364	3762.8
710.551	3832.43
710.739	3687.03
710.927	3697.27
711.115	3762.8
711.303	3820.14
711.491	3799.66
711.679	3705.46
711.866	3725.94
712.054	3748.47
712.242	3558
712.43	3734.13
712.617	3701.36
712.805	3566.2
712.993	3674.74
713.181	3525.24
713.368	3682.93
713.556	3623.54
713.744	3689.07
713.931	3725.94
714.119	3568.24
714.306	3508.85
714.494	3646.07
714.682	3644.02
714.869	3603.06
715.057	3586.68
715.244	3547.76
715.432	3695.22
715.619	3555.96
715.807	3504.76
715.994	3560.05
716.182	3537.52
716.369	3662.45
716.556	3644.02
716.744	3474.04
716.931	3531.38
717.119	3605.11
717.306	3535.48
717.493	3555.96
717.681	3465.85
717.868	3463.8
718.055	3480.18
718.242	3541.62
718.43	3568.24
718.617	3355.26
718.804	3555.96
718.991	3545.72
719.179	3562.1
719.366	3418.74
719.553	3431.03
719.74	3414.65
719.927	3480.18
720.114	3191.42
720.301	3306.1
720.488	3293.82
720.676	3287.67
720.863	3338.87
721.05	3369.59
721.237	3357.3
721.424	3533.43
721.611	3416.69
721.798	3259
721.985	3332.73
722.172	3242.62
722.358	3277.43
722.545	3390.07
722.732	3164.79
722.919	3400.31
723.106	3203.71
723.293	3267.19
723.48	3308.15
723.667	3332.73
723.853	3271.29
724.04	3220.09
724.227	3285.62
724.414	3287.67
724.6	3019.39
724.787	3361.4
724.974	3193.47
725.161	3205.75
725.347	3103.36
725.534	3203.71
725.72	3271.29
725.907	3181.18
726.094	3189.37
726.28	3132.03
726.467	3218.04
726.653	3146.36
726.84	3132.03
727.027	3205.75
727.213	3080.83
727.4	3281.53
727.586	3152.51
727.773	3195.51
727.959	3046.01
728.145	3154.55
728.332	3048.06
728.518	3043.96
728.705	3132.03
728.891	3166.84
729.077	3062.4
729.264	2982.53
729.45	3097.21
729.636	3154.55
729.823	3039.87
730.009	3148.41
730.195	3046.01
730.382	3064.44
730.568	2904.7
730.754	3084.92
730.94	3050.11
731.126	3095.16
731.313	3076.73
731.499	3095.16
731.685	3138.17
731.871	3025.53
732.057	3105.4
732.243	3017.34
732.429	3117.69
732.615	2925.18
732.801	2994.81
732.987	2951.81
733.173	3013.24
733.359	3066.49
733.545	2908.8
733.731	2949.76
733.917	3082.88
734.103	3025.53
734.289	2929.28
734.475	2916.99
734.661	2882.17
734.847	2941.57
735.033	3003
735.219	2822.78
735.404	2996.86
735.59	2837.12
735.776	2916.99
735.962	2976.38
736.148	2941.57
736.333	2843.26
736.519	2898.56
736.705	2828.93
736.89	2771.58
737.076	2810.5
737.262	2781.82
737.447	2828.93
737.633	2869.89
737.819	2785.92
738.004	2769.54
738.19	2790.02
738.375	2841.22
738.561	2816.64
738.747	2759.3
738.932	2757.25
739.118	2849.41
739.303	2673.28
739.489	2814.59
739.674	2759.3
739.859	2732.67
740.045	2630.27
740.23	2734.72
740.416	2701.95
740.601	2775.68
740.786	2701.95
740.972	2579.08
741.157	2667.14
741.342	2691.71
741.528	2603.65
741.713	2749.06
741.898	2570.88
742.084	2593.41
742.269	2534.02
742.454	2595.46
742.639	2599.56
742.824	2615.94
743.01	2568.84
743.195	2636.42
743.38	2480.77
743.565	2511.49
743.75	2560.64
743.935	2546.31
744.12	2517.64
744.305	2493.06
744.49	2548.36
744.675	2380.42
744.86	2480.77
745.045	2433.67
745.23	2345.61
745.415	2437.77
745.6	2497.16
745.785	2353.8
745.97	2431.62
746.155	2345.61
746.34	2409.09
746.525	2237.06
746.71	2433.67
746.895	2288.26
747.079	2241.16
747.264	2300.55
747.449	2298.5
747.634	2275.98
747.819	2359.94
748.003	2155.15
748.188	2241.16
748.373	2116.23
748.557	2235.02
748.742	2210.44
748.927	2105.99
749.111	2208.39
749.296	2056.84
749.481	2194.06
749.665	2224.78
749.85	2065.04
750.034	2071.18
750.219	2089.61
750.404	2022.03
750.588	1966.73
750.773	1954.44
750.957	2081.42
751.141	1968.78
751.326	1983.12
751.51	1989.26
751.695	1940.11
751.879	1954.44
752.064	1895.05
752.248	1817.23
752.432	1997.45
752.617	1927.82
752.801	1962.64
752.985	1962.64
753.17	1845.9
753.354	1989.26
753.538	1839.76
753.722	1866.38
753.907	1677.97
754.091	1663.63
754.275	1798.8
754.459	1772.18
754.643	1798.8
754.828	1686.16
755.012	1770.13
755.196	1637.01
755.38	1823.37
755.564	1702.54
755.748	1632.91
755.932	1677.97
756.116	1647.25
756.3	1706.64
756.484	1481.36
756.668	1571.47
756.852	1643.15
757.036	1546.9
757.22	1577.62
757.404	1522.32
757.588	1618.58
757.772	1526.42
757.956	1534.61
758.14	1571.47
758.323	1434.26
758.507	1467.03
758.691	1489.56
758.875	1645.2
759.059	1544.85
759.242	1563.28
759.426	1505.94
759.61	1430.16
759.794	1493.65
759.977	1446.55
760.161	1534.61
760.345	1434.26
760.528	1440.4
760.712	1366.68
760.895	1450.64
761.079	1448.6
761.263	1376.92
761.446	1411.73
761.63	1436.31
761.813	1421.97
761.997	1362.58
762.18	1340.05
762.364	1434.26
762.547	1342.1
762.731	1395.35
762.914	1211.03
763.098	1364.63
763.281	1235.61
763.464	1381.01
763.648	1256.09
763.831	1245.85
764.015	1393.3
764.198	1350.29
764.381	1340.05
764.564	1235.61
764.748	1307.29
764.931	1282.71
765.114	1225.37
765.297	1346.2
765.481	1120.92
765.664	1258.14
765.847	1323.67
766.03	1225.37
766.213	1258.14
766.397	1237.66
766.58	1112.73
766.763	1387.16
766.946	1198.74
767.129	1196.7
767.312	1225.37
767.495	1188.5
767.678	1178.26
767.861	1237.66
768.044	1174.17
768.227	1190.55
768.41	1139.35
768.593	1165.98
768.776	1174.17
768.959	1196.7
769.142	1170.07
769.324	1202.84
769.507	1145.5
769.69	1125.02
769.873	1104.54
770.056	1024.67
770.239	1045.15
770.421	1145.5
770.604	1092.25
770.787	1014.43
770.97	1110.68
771.152	1041.05
771.335	1106.59
771.518	1137.31
771.7	1120.92
771.883	1098.39
772.066	1059.48
772.248	1022.62
772.431	985.76
772.613	1092.25
772.796	1049.24
772.978	1004.19
773.161	1098.39
773.343	967.32
773.526	1014.43
773.708	940.7
773.891	1002.14
774.073	965.28
774.256	1006.24
774.438	1022.62
774.621	1034.91
774.803	979.61
774.985	983.71
775.168	1022.62
775.35	979.61
775.532	993.95
775.715	975.52
775.897	1000.09
776.079	903.84
776.261	961.18
776.444	926.36
776.626	836.25
776.808	883.36
776.99	858.78
777.173	797.34
777.355	899.74
777.537	955.04
777.719	836.25
777.901	901.79
778.083	883.36
778.265	840.35
778.447	813.73
778.629	928.41
778.811	785.05
778.993	864.93
779.175	778.91
779.357	854.69
779.539	768.67
779.721	785.05
779.903	740
780.085	778.91
780.267	789.15
780.449	766.62
780.631	871.07
780.812	705.18
780.994	842.4
781.176	719.52
781.358	656.03
781.54	791.2
781.721	746.14
781.903	713.38
782.085	740
782.267	735.9
782.448	737.95
782.63	602.79
782.812	733.86
782.993	731.81
783.175	701.09
783.357	729.76
783.538	651.94
783.72	588.45
783.901	649.89
784.083	723.62
784.264	547.49
784.446	639.65
784.627	606.88
784.809	608.93
784.99	688.8
785.172	645.79
785.353	565.92
785.535	635.55
785.716	559.78
785.897	541.35
786.079	641.7
786.26	596.64
786.441	598.69
786.623	518.82
786.804	545.44
786.985	516.77
787.167	551.59
787.348	576.16
787.529	563.87
787.71	613.03
787.891	592.55
788.073	508.58
788.254	574.11
788.435	484
788.616	563.87
788.797	465.57
788.978	406.18
789.159	494.24
789.34	463.52
789.522	512.67
789.703	516.77
789.884	524.96
790.065	453.28
790.246	438.95
790.427	449.19
790.607	541.35
790.788	508.58
790.969	465.57
791.15	502.43
791.331	588.45
791.512	397.99
791.693	322.21
791.874	420.52
792.054	471.72
792.235	400.04
792.416	389.8
792.597	436.9
792.778	424.61
792.958	453.28
793.139	428.71
793.32	434.85
793.5	438.95
793.681	469.67
793.862	350.89
794.042	471.72
794.223	373.41
794.404	361.13
794.584	367.27
794.765	365.22
794.945	381.6
795.126	484
795.306	424.61
795.487	332.45
795.667	424.61
795.848	432.8
796.028	389.8
796.209	314.02
796.389	354.98
796.57	395.94
796.75	311.97
796.93	445.09
797.111	359.08
797.291	361.13
797.471	357.03
797.652	340.65
797.832	299.69
798.012	393.89
798.192	334.5
798.373	395.94
798.553	342.69
798.733	324.26
798.913	285.35
799.093	365.22
799.274	281.25
799.454	291.49
799.634	367.27
799.814	383.65
799.994	305.83
800.174	336.55
800.354	326.31
800.534	373.41
800.714	369.32
800.894	324.26
801.074	338.6
801.254	320.17
801.434	334.5
801.614	314.02
801.794	281.25
801.974	715.42
802.154	326.31
802.334	344.74
802.514	273.06
802.693	311.97
802.873	289.45
803.053	357.03
803.233	328.36
803.413	340.65
803.592	252.58
803.772	203.43
803.952	277.16
804.131	256.68
804.311	287.4
804.491	330.41
804.67	219.82
804.85	252.58
805.03	324.26
805.209	228.01
805.389	258.73
805.568	254.63
805.748	246.44
805.928	242.34
806.107	197.29
806.287	277.16
806.466	254.63
806.646	289.45
806.825	309.93
807.004	289.45
807.184	260.77
807.363	262.82
807.543	258.73
807.722	166.57
807.901	295.59
808.081	238.25
808.26	170.66
808.439	219.82
808.619	215.72
808.798	174.76
808.977	193.19
809.156	248.49
809.336	248.49
809.515	252.58
809.694	244.39
809.873	207.53
810.052	228.01
810.231	182.95
810.411	162.47
810.59	295.59
810.769	199.34
810.948	199.34
811.127	273.06
811.306	199.34
811.485	268.97
811.664	248.49
811.843	197.29
812.022	195.24
812.201	195.24
812.38	248.49
812.559	234.15
812.737	209.58
812.916	191.14
813.095	199.34
813.274	180.9
813.453	172.71
813.632	195.24
813.811	236.2
813.989	158.38
814.168	234.15
814.347	262.82
814.526	191.14
814.704	209.58
814.883	225.96
815.062	178.86
815.24	199.34
815.419	174.76
815.598	189.1
815.776	228.01
815.955	166.57
816.133	123.56
816.312	137.9
816.49	121.51
816.669	205.48
816.847	139.94
817.026	244.39
817.204	164.52
817.383	174.76
817.561	154.28
817.74	135.85
817.918	252.58
818.097	168.62
818.275	215.72
818.453	164.52
818.632	189.1
818.81	31.4
818.988	178.86
819.167	201.38
819.345	160.42
819.523	139.94
819.701	215.72
819.879	158.38
820.058	219.82
820.236	156.33
820.414	111.27
820.592	180.9
820.77	178.86
820.948	211.62
821.127	115.37
821.305	98.99
821.483	187.05
821.661	141.99
821.839	203.43
822.017	189.1
822.195	170.66
822.373	174.76
822.551	121.51
822.729	189.1
822.907	174.76
823.085	166.57
823.262	129.7
823.44	113.32
823.618	117.42
823.796	103.08
823.974	193.19
824.152	84.65
824.329	221.86
824.507	139.94
824.685	101.03
824.863	113.32
825.04	131.75
825.218	141.99
825.396	178.86
825.574	191.14
825.751	96.94
825.929	113.32
826.107	113.32
826.284	146.09
826.462	107.18
826.639	53.93
826.817	47.79
826.994	80.55
827.172	64.17
827.349	146.09
827.527	51.88
827.704	101.03
827.882	113.32
828.059	121.51
828.237	150.18
828.414	221.86
828.591	53.93
828.769	168.62
828.946	10.92
829.124	103.08
829.301	139.94
829.478	180.9
829.655	131.75
829.833	117.42
830.01	158.38
830.187	172.71
830.364	96.94
830.542	137.9
830.719	144.04
830.896	53.93
831.073	41.64
831.25	105.13
831.427	80.55
831.604	72.36
831.782	62.12
831.959	150.18
832.136	76.46
832.313	109.22
832.49	101.03
832.667	78.51
832.844	78.51
833.021	115.37
833.198	86.7
833.374	137.9
833.551	115.37
833.728	25.26
833.905	84.65
834.082	80.55
834.259	94.89
834.436	103.08
834.612	45.74
834.789	133.8
834.966	92.84
835.143	74.41
835.319	62.12
835.496	103.08
835.673	64.17
835.85	119.46
836.026	55.98
836.203	90.79
836.38	80.55
836.556	127.66
836.733	103.08
836.909	133.8
837.086	74.41
837.262	162.47
837.439	23.21
837.616	43.69
837.792	72.36
837.968	139.94
838.145	96.94
838.321	68.27
838.498	90.79
838.674	64.17
838.851	62.12
839.027	12.97
839.203	49.83
839.38	62.12
839.556	127.66
839.732	105.13
839.909	94.89
840.085	64.17
840.261	-27.99
840.437	78.51
840.614	123.56
840.79	72.36
840.966	66.22
841.142	23.21
841.318	4.78
841.494	101.03
841.671	60.07
841.847	37.55
842.023	70.31
842.199	6.83
842.375	45.74
842.551	68.27
842.727	70.31
842.903	80.55
843.079	23.21
843.255	-9.56
843.431	103.08
843.607	23.21
843.783	127.66
843.959	80.55
844.134	23.21
844.31	107.18
844.486	37.55
844.662	80.55
844.838	43.69
845.013	96.94
845.189	-11.61
845.365	72.36
845.541	82.6
845.716	55.98
845.892	31.4
846.068	47.79
846.244	60.07
846.419	103.08
846.595	80.55
846.77	113.32
846.946	17.07
847.122	15.02
847.297	-30.04
847.473	78.51
847.648	43.69
847.824	19.11
847.999	4.78
848.175	10.92
848.35	-27.99
848.526	101.03
848.701	96.94
848.876	55.98
849.052	55.98
849.227	0.68
849.403	19.11
849.578	76.46
849.753	-9.56
849.929	68.27
850.104	25.26
850.279	135.85
850.454	62.12
850.63	6.83
850.805	12.97
850.98	72.36
851.155	25.26
851.33	0.68
851.505	6.83
851.681	37.55
851.856	-58.71
852.031	23.21
852.206	6.83
852.381	31.4
852.556	-3.41
852.731	41.64
852.906	119.46
853.081	64.17
853.256	88.75
853.431	74.41
853.606	29.35
853.781	41.64
853.956	-1.37
854.131	84.65
854.305	-44.37
854.48	35.5
854.655	76.46
854.83	15.02
855.005	51.88
855.18	29.35
855.354	15.02
855.529	37.55
855.704	-1.37
855.879	90.79
856.053	60.07
856.228	103.08
856.403	39.59
856.577	76.46
856.752	47.79
856.926	2.73
857.101	19.11
857.276	37.55
857.45	17.07
857.625	68.27
857.799	10.92
857.974	8.87
858.148	41.64
858.323	72.36
858.497	-11.61
858.672	-36.18
858.846	17.07
859.02	-34.13
859.195	51.88
859.369	21.16
859.543	-1.37
859.718	2.73
859.892	55.98
860.066	4.78
860.241	78.51
860.415	45.74
860.589	-21.85
860.763	19.11
860.938	-58.71
861.112	78.51
861.286	53.93
861.46	25.26
861.634	55.98
861.808	74.41
861.982	-19.8
862.157	39.59
862.331	-25.94
862.505	19.11
862.679	39.59
862.853	-1.37
863.027	-3.41
863.201	72.36
863.375	-11.61
863.549	47.79
863.722	-13.65
863.896	0.68
864.07	10.92
864.244	41.64
864.418	60.07
864.592	39.59
864.766	-87.38
864.939	27.31
865.113	49.83
865.287	103.08
865.461	0.68
865.634	55.98
865.808	45.74
865.982	-60.76
866.156	-27.99
866.329	0.68
866.503	47.79
866.676	58.03
866.85	29.35
867.024	-25.94
867.197	53.93
867.371	55.98
867.544	51.88
867.718	19.11
867.891	12.97
868.065	37.55
868.238	-15.7
868.412	31.4
868.585	55.98
868.759	-40.28
868.932	19.11
869.105	-40.28
869.279	27.31
869.452	8.87
869.625	53.93
869.799	-17.75
869.972	21.16
870.145	27.31
870.319	-54.61
870.492	-1.37
870.665	72.36
870.838	58.03
871.011	31.4
871.185	15.02
871.358	-1.37
871.531	-52.56
871.704	-42.32
871.877	39.59
872.05	4.78
872.223	21.16
872.396	39.59
872.569	68.27
872.742	-30.04
872.915	47.79
873.088	47.79
873.261	33.45
873.434	-27.99
873.607	-7.51
873.78	80.55
873.953	-7.51
874.126	-9.56
874.299	-30.04
874.471	62.12
874.644	4.78
874.817	76.46
874.99	96.94
875.163	35.5
875.335	64.17
875.508	-40.28
875.681	76.46
875.853	17.07
876.026	19.11
876.199	-50.52
876.371	-62.8
876.544	-5.46
876.717	29.35
876.889	76.46
877.062	33.45
877.234	51.88
877.407	-17.75
877.579	92.84
877.752	4.78
877.924	70.31
878.097	4.78
878.269	19.11
878.442	-17.75
878.614	33.45
878.786	-27.99
878.959	25.26
879.131	-56.66
879.303	-23.89
879.476	15.02
879.648	72.36
879.82	-40.28
879.993	12.97
880.165	-34.13
880.337	8.87
880.509	-3.41
880.681	-34.13
880.854	-5.46
881.026	35.5
881.198	49.83
881.37	-11.61
881.542	51.88
881.714	4.78
881.886	47.79
882.058	-11.61
882.23	4.78
882.402	-13.65
882.574	68.27
882.746	23.21
882.918	15.02
883.09	-7.51
883.262	15.02
883.434	19.11
883.606	-11.61
883.778	-11.61
883.95	35.5
884.122	-17.75
884.293	0.68
884.465	-46.42
884.637	55.98
884.809	62.12
884.98	21.16
885.152	21.16
885.324	-15.7
885.496	23.21
885.667	17.07
885.839	8.87
886.011	-9.56
886.182	92.84
886.354	0.68
886.525	2.73
886.697	23.21
886.869	-13.65
887.04	-5.46
887.212	55.98
887.383	-38.23
887.555	6.83
887.726	6.83
887.897	-62.8
888.069	33.45
888.24	49.83
888.412	68.27
888.583	-17.75
888.754	-5.46
888.926	-11.61
889.097	-25.94
889.268	43.69
889.44	25.26
889.611	-17.75
889.782	-56.66
889.953	43.69
890.125	-11.61
890.296	35.5
890.467	51.88
890.638	6.83
890.809	15.02
890.98	-1.37
891.151	2.73
891.323	-23.89
891.494	37.55
891.665	45.74
891.836	35.5
892.007	45.74
892.178	-13.65
892.349	29.35
892.52	-62.8
892.691	-3.41
892.862	53.93
893.032	-38.23
893.203	-13.65
893.374	-42.32
893.545	45.74
893.716	-21.85
893.887	53.93
894.057	-7.51
894.228	58.03
894.399	-36.18
894.57	31.4
894.74	49.83
894.911	-3.41
895.082	-5.46
895.253	-68.95
895.423	-21.85
895.594	-52.56
895.764	-30.04
895.935	27.31
896.106	37.55
896.276	-54.61
896.447	10.92
896.617	43.69
896.788	-42.32
896.958	-15.7
897.129	15.02
897.299	37.55
897.47	-9.56
897.64	-73.04
897.81	17.07
897.981	-17.75
898.151	31.4
898.322	-36.18
898.492	51.88
898.662	-46.42
898.832	27.31
899.003	-46.42
899.173	12.97
899.343	-13.65
899.513	-19.8
