Data from USB4F104151__84__11-06-35-802.txt Node

Date: Wed Mar 12 11:06:35 EDT 2025
User: louis
Spectrometer: USB4F10415
Trigger mode: 4
Integration Time (sec): 2.000000E-2
Scans to average: 1
Electric dark correction enabled: true
Nonlinearity correction enabled: false
Boxcar width: 0
XAxis mode: Wavelengths
Number of Pixels in Spectrum: 3648
>>>>>Begin Spectral Data<<<<<
178.204	-38.74
178.424	-38.74
178.644	-38.74
178.864	-126.8
179.084	-20.31
179.304	-20.31
179.524	-36.69
179.744	-26.45
179.964	43.18
180.184	-42.84
180.404	20.65
180.624	-26.45
180.844	53.42
181.064	-36.69
181.283	-5.97
181.503	88.23
181.723	-10.07
181.943	-3.93
182.163	16.55
182.383	26.79
182.602	-14.17
182.822	43.18
183.042	37.03
183.262	-44.88
183.482	-18.26
183.701	22.7
183.921	61.61
184.141	2.22
184.361	96.43
184.58	4.27
184.8	-24.4
185.02	47.27
185.239	34.99
185.459	-26.45
185.679	34.99
185.898	24.75
186.118	2.22
186.338	26.79
186.557	57.51
186.777	-3.93
186.997	24.75
187.216	-63.32
187.436	114.86
187.655	59.56
187.875	51.37
188.095	2.22
188.314	-77.65
188.534	63.66
188.753	-18.26
188.973	-75.6
189.192	28.84
189.412	2.22
189.631	47.27
189.851	63.66
190.07	0.17
190.29	-59.22
190.509	39.08
190.729	-8.02
190.948	131.24
191.168	102.57
191.387	24.75
191.607	22.7
191.826	14.51
192.045	12.46
192.265	18.6
192.484	12.46
192.704	28.84
192.923	14.51
193.142	39.08
193.362	32.94
193.581	45.23
193.8	-36.69
194.02	59.56
194.239	-14.17
194.458	69.8
194.678	-36.69
194.897	-14.17
195.116	-51.03
195.335	-14.17
195.555	57.51
195.774	22.7
195.993	45.23
196.212	2.22
196.432	59.56
196.651	24.75
196.87	-8.02
197.089	55.47
197.308	-32.6
197.528	20.65
197.747	-5.97
197.966	24.75
198.185	-16.21
198.404	6.31
198.623	4.27
198.842	-10.07
199.062	6.31
199.281	75.95
199.5	-3.93
199.719	-40.79
199.938	104.62
200.157	18.6
200.376	39.08
200.595	20.65
200.814	32.94
201.033	-32.6
201.252	39.08
201.471	-18.26
201.69	-1.88
201.909	20.65
202.128	-46.93
202.347	-3.93
202.566	-42.84
202.785	28.84
203.004	4.27
203.223	71.85
203.442	28.84
203.661	4.27
203.879	10.41
204.098	26.79
204.317	-69.46
204.536	39.08
204.755	10.41
204.974	-1.88
205.193	-40.79
205.411	16.55
205.63	47.27
205.849	-75.6
206.068	24.75
206.287	22.7
206.505	24.75
206.724	-32.6
206.943	39.08
207.162	-28.5
207.381	6.31
207.599	49.32
207.818	-38.74
208.037	41.13
208.255	-12.12
208.474	-3.93
208.693	-30.55
208.911	6.31
209.13	8.36
209.349	61.61
209.567	14.51
209.786	39.08
210.005	69.8
210.223	63.66
210.442	-18.26
210.661	67.75
210.879	41.13
211.098	-8.02
211.316	75.95
211.535	34.99
211.753	16.55
211.972	39.08
212.191	22.7
212.409	26.79
212.628	8.36
212.846	45.23
213.065	8.36
213.283	63.66
213.502	45.23
213.72	10.41
213.938	-53.08
214.157	73.9
214.375	6.31
214.594	65.71
214.812	-18.26
215.031	-36.69
215.249	10.41
215.467	-26.45
215.686	0.17
215.904	22.7
216.122	-8.02
216.341	26.79
216.559	-3.93
216.778	0.17
216.996	0.17
217.214	14.51
217.432	22.7
217.651	14.51
217.869	16.55
218.087	71.85
218.306	10.41
218.524	-1.88
218.742	10.41
218.96	28.84
219.179	-44.88
219.397	32.94
219.615	84.14
219.833	43.18
220.051	-18.26
220.27	20.65
220.488	-51.03
220.706	45.23
220.924	114.86
221.142	41.13
221.36	-26.45
221.578	39.08
221.796	-55.12
222.015	73.9
222.233	2.22
222.451	63.66
222.669	47.27
222.887	20.65
223.105	-1.88
223.323	2.22
223.541	-79.7
223.759	39.08
223.977	26.79
224.195	-10.07
224.413	10.41
224.631	-8.02
224.849	39.08
225.067	82.09
225.285	49.32
225.503	-1.88
225.721	-38.74
225.939	2.22
226.157	-12.12
226.375	57.51
226.592	-8.02
226.81	0.17
227.028	-14.17
227.246	-30.55
227.464	41.13
227.682	18.6
227.9	-36.69
228.117	92.33
228.335	37.03
228.553	63.66
228.771	47.27
228.989	-18.26
229.206	34.99
229.424	61.61
229.642	-3.93
229.86	8.36
230.077	32.94
230.295	12.46
230.513	24.75
230.731	86.19
230.948	80.04
231.166	-12.12
231.384	47.27
231.601	-42.84
231.819	28.84
232.037	-18.26
232.254	18.6
232.472	-34.64
232.689	-3.93
232.907	24.75
233.125	12.46
233.342	18.6
233.56	-59.22
233.777	4.27
233.995	8.36
234.213	-24.4
234.43	26.79
234.648	18.6
234.865	-55.12
235.083	43.18
235.3	45.23
235.518	-20.31
235.735	-57.17
235.953	14.51
236.17	-28.5
236.388	26.79
236.605	57.51
236.822	-14.17
237.04	47.27
237.257	14.51
237.475	43.18
237.692	59.56
237.909	-40.79
238.127	67.75
238.344	12.46
238.562	6.31
238.779	-3.93
238.996	30.89
239.214	-32.6
239.431	106.67
239.648	20.65
239.865	16.55
240.083	8.36
240.3	24.75
240.517	16.55
240.735	65.71
240.952	18.6
241.169	49.32
241.386	14.51
241.603	-12.12
241.821	43.18
242.038	8.36
242.255	26.79
242.472	-26.45
242.689	47.27
242.907	59.56
243.124	34.99
243.341	30.89
243.558	-46.93
243.775	4.27
243.992	-14.17
244.209	61.61
244.426	106.67
244.643	-59.22
244.86	-44.88
245.078	10.41
245.295	14.51
245.512	24.75
245.729	16.55
245.946	28.84
246.163	0.17
246.38	59.56
246.597	34.99
246.814	0.17
247.031	4.27
247.248	53.42
247.464	10.41
247.681	0.17
247.898	14.51
248.115	47.27
248.332	34.99
248.549	53.42
248.766	71.85
248.983	53.42
249.2	39.08
249.417	18.6
249.633	-14.17
249.85	-22.36
250.067	0.17
250.284	22.7
250.501	106.67
250.717	30.89
250.934	39.08
251.151	8.36
251.368	-10.07
251.585	39.08
251.801	2.22
252.018	6.31
252.235	32.94
252.451	80.04
252.668	-104.28
252.885	59.56
253.102	-20.31
253.318	26.79
253.535	-1.88
253.752	39.08
253.968	-5.97
254.185	-30.55
254.401	-32.6
254.618	-8.02
254.835	6.31
255.051	55.47
255.268	51.37
255.484	39.08
255.701	65.71
255.917	41.13
256.134	0.17
256.351	20.65
256.567	-12.12
256.784	10.41
257	12.46
257.217	10.41
257.433	14.51
257.65	77.99
257.866	51.37
258.082	16.55
258.299	-14.17
258.515	47.27
258.732	-5.97
258.948	28.84
259.165	34.99
259.381	24.75
259.597	34.99
259.814	-18.26
260.03	65.71
260.246	30.89
260.463	10.41
260.679	18.6
260.895	53.42
261.112	45.23
261.328	39.08
261.544	22.7
261.761	-14.17
261.977	10.41
262.193	10.41
262.409	55.47
262.626	30.89
262.842	53.42
263.058	-32.6
263.274	2.22
263.49	63.66
263.707	-3.93
263.923	2.22
264.139	2.22
264.355	-42.84
264.571	14.51
264.787	10.41
265.004	71.85
265.22	10.41
265.436	22.7
265.652	-1.88
265.868	-3.93
266.084	-14.17
266.3	37.03
266.516	32.94
266.732	37.03
266.948	16.55
267.164	-1.88
267.38	39.08
267.596	61.61
267.812	2.22
268.028	0.17
268.244	-1.88
268.46	100.52
268.676	-10.07
268.892	6.31
269.108	16.55
269.324	22.7
269.54	14.51
269.756	-12.12
269.972	30.89
270.188	73.9
270.403	53.42
270.619	28.84
270.835	-26.45
271.051	32.94
271.267	10.41
271.483	2.22
271.698	34.99
271.914	88.23
272.13	-14.17
272.346	-59.22
272.562	-18.26
272.777	43.18
272.993	41.13
273.209	98.47
273.425	24.75
273.64	-30.55
273.856	-12.12
274.072	2.22
274.287	-55.12
274.503	-8.02
274.719	18.6
274.934	6.31
275.15	18.6
275.366	-59.22
275.581	-55.12
275.797	43.18
276.012	28.84
276.228	0.17
276.444	-63.32
276.659	71.85
276.875	-12.12
277.09	69.8
277.306	-46.93
277.521	73.9
277.737	-5.97
277.952	37.03
278.168	0.17
278.383	-30.55
278.599	53.42
278.814	90.28
279.03	51.37
279.245	39.08
279.461	-34.64
279.676	26.79
279.892	-1.88
280.107	-32.6
280.322	14.51
280.538	28.84
280.753	-1.88
280.969	12.46
281.184	39.08
281.399	-14.17
281.615	24.75
281.83	133.29
282.045	-96.08
282.26	51.37
282.476	2.22
282.691	102.57
282.906	2.22
283.122	30.89
283.337	-22.36
283.552	22.7
283.767	47.27
283.983	8.36
284.198	28.84
284.413	18.6
284.628	-104.28
284.843	-5.97
285.058	-18.26
285.274	-10.07
285.489	8.36
285.704	96.43
285.919	55.47
286.134	73.9
286.349	0.17
286.564	-14.17
286.779	47.27
286.995	18.6
287.21	26.79
287.425	-22.36
287.64	-53.08
287.855	12.46
288.07	51.37
288.285	51.37
288.5	63.66
288.715	45.23
288.93	18.6
289.145	2.22
289.36	49.32
289.575	73.9
289.79	84.14
290.004	26.79
290.219	34.99
290.434	-26.45
290.649	-34.64
290.864	-34.64
291.079	-36.69
291.294	0.17
291.509	84.14
291.724	67.75
291.938	-10.07
292.153	82.09
292.368	37.03
292.583	24.75
292.798	67.75
293.012	69.8
293.227	71.85
293.442	22.7
293.657	39.08
293.871	71.85
294.086	94.38
294.301	75.95
294.516	65.71
294.73	26.79
294.945	12.46
295.16	53.42
295.374	-34.64
295.589	39.08
295.804	41.13
296.018	16.55
296.233	28.84
296.447	75.95
296.662	-8.02
296.877	51.37
297.091	43.18
297.306	47.27
297.52	8.36
297.735	34.99
297.949	43.18
298.164	53.42
298.378	-10.07
298.593	14.51
298.807	-14.17
299.022	4.27
299.236	77.99
299.451	55.47
299.665	18.6
299.88	32.94
300.094	34.99
300.309	0.17
300.523	22.7
300.737	71.85
300.952	8.36
301.166	10.41
301.381	26.79
301.595	2.22
301.809	47.27
302.024	-67.41
302.238	30.89
302.452	16.55
302.667	-30.55
302.881	24.75
303.095	43.18
303.309	-22.36
303.524	32.94
303.738	-91.99
303.952	63.66
304.166	41.13
304.381	-42.84
304.595	22.7
304.809	-3.93
305.023	20.65
305.237	43.18
305.452	10.41
305.666	-20.31
305.88	67.75
306.094	32.94
306.308	94.38
306.522	88.23
306.736	32.94
306.95	49.32
307.164	20.65
307.379	-20.31
307.593	77.99
307.807	137.38
308.021	45.23
308.235	22.7
308.449	2.22
308.663	-10.07
308.877	71.85
309.091	-44.88
309.305	18.6
309.519	10.41
309.733	34.99
309.947	37.03
310.161	14.51
310.374	32.94
310.588	28.84
310.802	2.22
311.016	22.7
311.23	-57.17
311.444	-18.26
311.658	14.51
311.872	22.7
312.085	10.41
312.299	59.56
312.513	77.99
312.727	-1.88
312.941	12.46
313.154	8.36
313.368	43.18
313.582	32.94
313.796	8.36
314.009	59.56
314.223	28.84
314.437	53.42
314.651	-1.88
314.864	30.89
315.078	-16.21
315.292	49.32
315.505	-3.93
315.719	8.36
315.933	26.79
316.146	59.56
316.36	37.03
316.573	45.23
316.787	-8.02
317.001	6.31
317.214	-46.93
317.428	43.18
317.641	-14.17
317.855	32.94
318.068	26.79
318.282	43.18
318.495	71.85
318.709	-5.97
318.922	41.13
319.136	47.27
319.349	-14.17
319.563	41.13
319.776	20.65
319.99	12.46
320.203	18.6
320.417	4.27
320.63	32.94
320.843	39.08
321.057	18.6
321.27	-22.36
321.483	47.27
321.697	84.14
321.91	45.23
322.124	-5.97
322.337	80.04
322.55	0.17
322.763	43.18
322.977	63.66
323.19	6.31
323.403	-1.88
323.617	-26.45
323.83	55.47
324.043	45.23
324.256	67.75
324.469	57.51
324.683	49.32
324.896	-40.79
325.109	84.14
325.322	-14.17
325.535	26.79
325.748	-22.36
325.962	18.6
326.175	32.94
326.388	67.75
326.601	108.71
326.814	-3.93
327.027	18.6
327.24	63.66
327.453	32.94
327.666	47.27
327.879	-46.93
328.092	26.79
328.305	14.51
328.518	-30.55
328.731	18.6
328.944	18.6
329.157	82.09
329.37	55.47
329.583	57.51
329.796	22.7
330.009	18.6
330.222	30.89
330.435	14.51
330.648	10.41
330.861	-18.26
331.073	-8.02
331.286	4.27
331.499	10.41
331.712	22.7
331.925	49.32
332.138	-30.55
332.35	20.65
332.563	-5.97
332.776	75.95
332.989	-44.88
333.202	8.36
333.414	6.31
333.627	61.61
333.84	22.7
334.053	71.85
334.265	41.13
334.478	24.75
334.691	32.94
334.903	16.55
335.116	10.41
335.329	-34.64
335.541	20.65
335.754	55.47
335.966	43.18
336.179	-3.93
336.392	61.61
336.604	73.9
336.817	125.1
337.029	28.84
337.242	37.03
337.454	32.94
337.667	22.7
337.88	65.71
338.092	61.61
338.305	53.42
338.517	4.27
338.729	20.65
338.942	18.6
339.154	-46.93
339.367	51.37
339.579	-46.93
339.792	-53.08
340.004	65.71
340.217	2.22
340.429	28.84
340.641	14.51
340.854	-57.17
341.066	-26.45
341.278	26.79
341.491	22.7
341.703	-5.97
341.915	28.84
342.128	37.03
342.34	30.89
342.552	18.6
342.764	16.55
342.977	24.75
343.189	6.31
343.401	77.99
343.613	32.94
343.826	18.6
344.038	-1.88
344.25	18.6
344.462	16.55
344.674	20.65
344.886	65.71
345.099	43.18
345.311	92.33
345.523	14.51
345.735	22.7
345.947	-38.74
346.159	59.56
346.371	28.84
346.583	37.03
346.795	63.66
347.007	28.84
347.219	34.99
347.431	69.8
347.643	41.13
347.855	22.7
348.067	55.47
348.279	-30.55
348.491	18.6
348.703	30.89
348.915	67.75
349.127	-46.93
349.339	43.18
349.551	41.13
349.763	59.56
349.975	28.84
350.187	30.89
350.399	-26.45
350.61	0.17
350.822	45.23
351.034	59.56
351.246	32.94
351.458	67.75
351.669	104.62
351.881	96.43
352.093	45.23
352.305	2.22
352.517	55.47
352.728	34.99
352.94	53.42
353.152	82.09
353.363	67.75
353.575	94.38
353.787	34.99
353.999	30.89
354.21	30.89
354.422	28.84
354.633	10.41
354.845	110.76
355.057	41.13
355.268	10.41
355.48	-65.36
355.692	39.08
355.903	2.22
356.115	30.89
356.326	-5.97
356.538	-36.69
356.749	116.9
356.961	12.46
357.172	4.27
357.384	-16.21
357.595	75.95
357.807	18.6
358.018	-16.21
358.23	39.08
358.441	71.85
358.653	88.23
358.864	12.46
359.075	39.08
359.287	26.79
359.498	116.9
359.709	37.03
359.921	-14.17
360.132	2.22
360.344	4.27
360.555	-38.74
360.766	69.8
360.977	-8.02
361.189	41.13
361.4	67.75
361.611	28.84
361.823	34.99
362.034	20.65
362.245	-16.21
362.456	12.46
362.667	67.75
362.879	14.51
363.09	-46.93
363.301	47.27
363.512	77.99
363.723	-3.93
363.935	75.95
364.146	34.99
364.357	-61.27
364.568	112.81
364.779	34.99
364.99	116.9
365.201	6.31
365.412	10.41
365.623	2.22
365.834	39.08
366.045	45.23
366.256	59.56
366.467	49.32
366.678	-10.07
366.889	32.94
367.1	18.6
367.311	118.95
367.522	59.56
367.733	61.61
367.944	10.41
368.155	-24.4
368.366	141.48
368.577	61.61
368.788	-44.88
368.999	-8.02
369.209	45.23
369.42	92.33
369.631	92.33
369.842	32.94
370.053	37.03
370.264	55.47
370.474	28.84
370.685	57.51
370.896	18.6
371.107	57.51
371.317	18.6
371.528	77.99
371.739	14.51
371.95	-3.93
372.16	32.94
372.371	34.99
372.582	2.22
372.792	43.18
373.003	43.18
373.214	16.55
373.424	80.04
373.635	-10.07
373.846	106.67
374.056	94.38
374.267	82.09
374.477	73.9
374.688	-44.88
374.898	-34.64
375.109	-12.12
375.319	67.75
375.53	26.79
375.74	65.71
375.951	26.79
376.161	98.47
376.372	26.79
376.582	-14.17
376.793	45.23
377.003	-38.74
377.214	28.84
377.424	24.75
377.635	65.71
377.845	0.17
378.055	90.28
378.266	100.52
378.476	100.52
378.686	-26.45
378.897	39.08
379.107	22.7
379.317	59.56
379.528	34.99
379.738	77.99
379.948	-14.17
380.158	53.42
380.369	65.71
380.579	77.99
380.789	-3.93
380.999	39.08
381.21	-87.89
381.42	16.55
381.63	20.65
381.84	28.84
382.05	-10.07
382.261	45.23
382.471	57.51
382.681	32.94
382.891	10.41
383.101	88.23
383.311	-26.45
383.521	6.31
383.731	12.46
383.941	82.09
384.151	22.7
384.361	73.9
384.571	82.09
384.781	39.08
384.991	39.08
385.201	96.43
385.411	129.19
385.621	-16.21
385.831	16.55
386.041	53.42
386.251	104.62
386.461	-5.97
386.671	-55.12
386.881	6.31
387.091	71.85
387.301	-1.88
387.511	47.27
387.72	37.03
387.93	14.51
388.14	-40.79
388.35	41.13
388.56	30.89
388.769	32.94
388.979	-5.97
389.189	14.51
389.399	63.66
389.609	-1.88
389.818	108.71
390.028	26.79
390.238	61.61
390.447	53.42
390.657	43.18
390.867	-10.07
391.076	24.75
391.286	57.51
391.496	75.95
391.705	-22.36
391.915	86.19
392.125	82.09
392.334	-10.07
392.544	75.95
392.753	24.75
392.963	71.85
393.172	28.84
393.382	-34.64
393.591	8.36
393.801	26.79
394.01	18.6
394.22	10.41
394.429	63.66
394.639	49.32
394.848	110.76
395.058	139.43
395.267	12.46
395.477	43.18
395.686	82.09
395.895	92.33
396.105	139.43
396.314	34.99
396.524	43.18
396.733	18.6
396.942	96.43
397.152	133.29
397.361	164.01
397.57	47.27
397.78	26.79
397.989	129.19
398.198	137.38
398.407	14.51
398.617	14.51
398.826	34.99
399.035	92.33
399.244	55.47
399.453	65.71
399.663	47.27
399.872	100.52
400.081	12.46
400.29	143.53
400.499	61.61
400.708	28.84
400.917	16.55
401.127	71.85
401.336	65.71
401.545	86.19
401.754	100.52
401.963	100.52
402.172	84.14
402.381	84.14
402.59	69.8
402.799	57.51
403.008	118.95
403.217	135.34
403.426	10.41
403.635	118.95
403.844	84.14
404.053	63.66
404.262	84.14
404.471	141.48
404.68	127.14
404.888	108.71
405.097	63.66
405.306	174.25
405.515	166.06
405.724	96.43
405.933	98.47
406.142	106.67
406.35	147.62
406.559	98.47
406.768	92.33
406.977	264.36
407.185	116.9
407.394	225.45
407.603	137.38
407.812	149.67
408.02	170.15
408.229	153.77
408.438	141.48
408.646	174.25
408.855	227.5
409.064	221.35
409.272	192.68
409.481	188.58
409.69	188.58
409.898	284.84
410.107	247.97
410.315	311.46
410.524	313.51
410.733	270.5
410.941	215.21
411.15	254.12
411.358	288.93
411.567	278.69
411.775	387.24
411.984	299.17
412.192	301.22
412.401	299.17
412.609	366.76
412.818	405.67
413.026	411.81
413.234	374.95
413.443	426.15
413.651	452.77
413.86	413.86
414.068	483.49
414.276	499.88
414.485	540.83
414.693	569.51
414.901	465.06
415.11	534.69
415.318	587.94
415.526	557.22
415.734	618.66
415.943	579.75
416.151	661.66
416.359	673.95
416.567	624.8
416.776	714.91
416.984	710.82
417.192	786.59
417.4	843.93
417.608	737.44
417.817	796.83
418.025	911.52
418.233	970.91
418.441	878.75
418.649	821.41
418.857	1085.59
419.065	972.96
419.273	1011.87
419.481	1024.16
419.689	1044.63
419.897	1132.7
420.105	1241.24
420.313	1300.63
420.521	1134.75
420.729	1239.19
420.937	1271.96
421.145	1335.45
421.353	1394.84
421.561	1448.08
421.769	1540.24
421.977	1626.26
422.185	1491.09
422.393	1734.8
422.601	1822.86
422.809	1677.46
423.017	1779.86
423.224	1943.69
423.432	1904.78
423.64	2033.8
423.848	2080.91
424.056	2048.14
424.263	2209.93
424.471	2093.19
424.679	2336.9
424.887	2451.59
425.094	2433.16
425.302	2465.93
425.51	2547.84
425.718	2664.58
425.925	2687.11
426.133	2871.42
426.341	2889.85
426.548	2988.16
426.756	3080.32
426.964	3176.57
427.171	3283.06
427.379	3383.42
427.586	3479.67
427.794	3588.21
428.001	3694.71
428.209	3838.06
428.417	3850.35
428.624	4069.48
428.832	4026.48
429.039	4063.34
429.247	4055.15
429.454	4599.91
429.662	4610.15
429.869	4319.34
430.076	4700.26
430.284	4536.42
430.491	4784.23
430.699	5064.8
430.906	5146.72
431.114	5066.85
431.321	5288.03
431.528	5455.96
431.736	5840.98
431.943	6023.25
432.15	5904.46
432.358	5959.76
432.565	6373.45
432.772	6258.76
432.979	6731.84
433.187	6727.75
433.394	6871.11
433.601	7190.59
433.808	7317.56
434.016	7321.66
434.223	7536.7
434.43	7876.66
434.637	7514.17
434.844	8099.89
435.052	8398.89
435.259	8450.09
435.466	8630.31
435.673	8323.12
435.88	8968.23
436.087	9306.14
436.294	9525.27
436.501	9162.78
436.708	9449.5
436.915	9553.94
437.122	10094.61
437.329	10100.75
437.537	10268.69
437.743	10676.23
437.95	10473.48
438.157	10895.36
438.364	11403.26
438.571	11307.01
438.778	11569.15
438.985	12589.03
439.192	12134.39
439.399	12154.87
439.606	12085.23
439.813	12808.17
440.02	13684.7
440.227	13189.09
440.433	13266.91
440.64	13756.38
440.847	13729.75
441.054	14061.52
441.261	14878.66
441.467	14798.79
441.674	14864.33
441.881	15667.13
442.088	15759.29
442.294	15286.21
442.501	15814.59
442.708	16060.34
442.914	16795.56
443.121	17239.97
443.328	17037.22
443.534	18243.48
443.741	17590.17
443.948	17653.66
444.154	18640.78
444.361	18550.67
444.568	18802.57
444.774	18599.82
444.981	18894.73
445.187	19316.61
445.394	20510.58
445.6	20209.53
445.807	21870.43
446.013	20930.41
446.22	21577.57
446.426	22058.84
446.633	22368.09
446.839	23187.27
447.046	22110.04
447.252	23435.08
447.459	23619.39
447.665	23240.52
447.871	24362.81
448.078	25225
448.284	24241.98
448.491	24858.42
448.697	25673.51
448.903	26091.29
449.11	26365.72
449.316	25747.23
449.522	26238.75
449.728	26822.42
449.935	27156.24
450.141	27293.45
450.347	27907.84
450.553	26980.11
450.76	27238.16
450.966	28098.3
451.172	27758.34
451.378	28368.63
451.584	27846.4
451.791	28391.16
451.997	28401.4
452.203	28911.35
452.409	28761.84
452.615	28802.8
452.821	27395.85
453.027	27166.48
453.233	28851.95
453.44	27463.43
453.646	27586.31
453.852	28032.77
454.058	28464.89
454.264	27401.99
454.47	28296.95
454.676	27397.9
454.882	28360.44
455.088	25866.02
455.294	26093.34
455.5	26482.45
455.705	26687.25
455.911	25732.9
456.117	25118.51
456.323	24819.5
456.529	23445.32
456.735	24866.61
456.941	23625.54
457.147	23617.35
457.352	22871.89
457.558	22349.65
457.764	22808.4
457.97	22208.34
458.176	21528.42
458.381	21661.54
458.587	20625.26
458.793	20391.8
458.999	19513.22
459.204	21026.67
459.41	20539.25
459.616	19163.01
459.821	19189.64
460.027	18878.35
460.233	18485.14
460.438	17637.28
460.644	18087.83
460.85	16865.19
461.055	16809.9
461.261	16422.83
461.466	15460.29
461.672	15075.27
461.878	16019.38
462.083	15097.8
462.289	14784.46
462.494	14716.87
462.7	14055.38
462.905	13615.07
463.111	13987.8
463.316	14059.48
463.522	13920.21
463.727	13895.64
463.932	13946.84
464.138	13725.66
464.343	13793.24
464.549	13215.71
464.754	13848.54
464.959	13746.14
465.165	13531.1
465.37	13084.64
465.575	12707.82
465.781	13307.87
465.986	13420.51
466.191	12785.64
466.397	12576.75
466.602	11974.64
466.807	12367.85
467.012	12337.13
467.218	12320.75
467.423	12355.57
467.628	12318.7
467.833	12664.81
468.038	12189.68
468.244	11784.18
468.449	12392.43
468.654	11966.45
468.859	11819
469.064	12058.61
469.269	11507.71
469.474	11487.23
469.679	11739.13
469.885	11290.62
470.09	11390.97
470.295	11540.47
470.5	11116.55
470.705	11233.28
470.91	10788.87
471.115	10678.28
471.32	11018.24
471.525	10942.47
471.73	10745.86
471.935	10719.24
472.139	10418.19
472.344	10393.61
472.549	10399.76
472.754	10270.73
472.959	10176.53
473.164	9820.18
473.369	9895.96
473.574	10016.79
473.778	9924.63
473.983	9820.18
474.188	9775.13
474.393	9435.16
474.598	9580.57
474.802	9349.15
475.007	9494.55
475.212	9283.61
475.417	8986.66
475.621	8818.72
475.826	9144.35
476.031	8808.48
476.235	8726.57
476.44	8800.29
476.645	8785.96
476.849	8677.41
477.054	8620.07
477.259	8409.13
477.463	8493.1
477.668	8192.05
477.872	8167.47
478.077	8165.42
478.282	7950.39
478.486	8005.68
478.691	7884.85
478.895	7911.47
479.1	7880.75
479.304	7862.32
479.509	7714.87
479.713	7854.13
479.918	7448.63
480.122	7450.68
480.326	7739.44
480.531	7600.18
480.735	7544.89
480.94	7581.75
481.144	7798.84
481.348	7368.76
481.553	7321.66
481.757	7168.06
481.961	7465.02
482.166	7542.84
482.37	7499.83
482.574	7290.94
482.778	7280.7
482.983	7356.47
483.187	7383.1
483.391	7411.77
483.595	7301.18
483.8	7407.67
484.004	7444.54
484.208	7256.12
484.412	7243.84
484.616	7393.34
484.821	7223.36
485.025	7213.12
485.229	7364.67
485.433	7422.01
485.637	7391.29
485.841	7335.99
486.045	7272.51
486.249	7342.14
486.453	7237.69
486.657	7426.11
486.861	7411.77
487.065	7067.71
487.269	7286.84
487.473	7182.4
487.677	7364.67
487.881	7295.04
488.085	7348.28
488.289	7370.81
488.493	7321.66
488.697	7270.46
488.901	7338.04
489.105	7405.63
489.309	7368.76
489.512	7239.74
489.716	7462.97
489.92	7389.24
490.124	7401.53
490.328	7577.66
490.531	7508.02
490.735	7641.14
490.939	7473.21
491.143	7571.51
491.346	7395.39
491.55	7776.31
491.754	7440.44
491.958	7694.39
492.161	7620.66
492.365	7786.55
492.569	7772.21
492.772	7862.32
492.976	7819.32
493.18	7839.8
493.383	7872.56
493.587	8116.27
493.79	8159.28
493.994	8042.54
494.197	8192.05
494.401	8175.66
494.605	8247.34
494.808	8294.44
495.012	8448.04
495.215	8312.88
495.419	8642.6
495.622	8583.21
495.825	8532.01
496.029	8693.8
496.232	8833.06
496.436	8810.53
496.639	8871.97
496.843	8882.21
497.046	9027.62
497.249	9087.01
497.453	9101.34
497.656	9351.2
497.859	9445.4
498.063	9443.35
498.266	9613.34
498.469	9500.7
498.673	9670.68
498.876	9867.28
499.079	10008.59
499.282	10065.94
499.485	10237.97
499.689	10283.02
499.892	10545.16
500.095	10481.67
500.298	10872.84
500.501	10645.51
500.705	11026.43
500.908	11188.22
501.111	11182.08
501.314	11261.95
501.517	11378.69
501.72	11407.36
501.923	11440.12
502.126	11704.31
502.329	11794.42
502.532	11976.69
502.735	11999.22
502.938	12333.04
503.141	12449.77
503.344	12509.16
503.547	12640.23
503.75	12797.93
503.953	13017.06
504.156	13205.47
504.359	12937.19
504.562	13146.08
504.765	13508.57
504.968	13799.38
505.17	13840.34
505.373	13869.02
505.576	14145.49
505.779	14473.17
505.982	14258.13
506.185	14606.28
506.387	14649.29
506.59	15048.65
506.793	15075.27
506.996	14813.13
507.198	15484.86
507.401	15595.45
507.604	15656.89
507.807	15919.03
508.009	16156.6
508.212	16119.73
508.415	16441.26
508.617	16697.26
508.82	16656.3
509.022	16639.92
509.225	17078.18
509.428	17196.96
509.63	17571.74
509.833	17727.39
510.035	17958.81
510.238	17758.11
510.44	18151.32
510.643	18376.59
510.845	18341.78
511.048	18372.5
511.25	18702.22
511.453	18882.44
511.655	19607.42
511.858	19310.47
512.06	19302.28
512.262	19789.69
512.465	19881.85
512.667	20170.61
512.87	20170.61
513.072	20397.94
513.274	20983.66
513.477	20815.73
513.679	20897.64
513.881	21297
514.084	21456.74
514.286	21804.89
514.488	21997.4
514.69	22507.35
514.893	22304.6
515.095	22484.82
515.297	22767.44
515.499	22724.43
515.701	23129.93
515.904	23279.43
516.106	23633.73
516.308	23656.26
516.51	24072
516.712	23889.73
516.914	24569.65
517.116	24940.33
517.318	25077.55
517.52	25249.58
517.722	25431.85
517.925	25560.87
518.127	25833.25
518.329	25904.93
518.531	26105.63
518.733	26717.97
518.935	26562.33
519.136	26810.13
519.338	27414.28
519.54	27301.64
519.742	27488.01
519.944	27817.73
520.146	28323.58
520.348	28288.76
520.55	28837.62
520.752	28858.1
520.954	29458.15
521.155	29079.28
521.357	29556.46
521.559	29513.45
521.761	30095.07
521.963	30054.11
522.164	30346.97
522.366	30576.34
522.568	30480.09
522.77	31143.63
522.971	31188.69
523.173	31190.73
523.375	31571.66
523.576	31485.64
523.778	31557.32
523.98	32054.98
524.181	32843.45
524.383	32462.52
524.584	32638.65
524.786	33060.53
524.988	32374.46
525.189	33158.83
525.391	33365.68
525.592	33633.96
525.794	33818.28
525.995	34004.64
526.197	34035.36
526.398	34072.23
526.6	34309.79
526.801	34573.98
527.003	34774.68
527.204	34430.62
527.406	35126.93
527.607	34772.63
527.808	35612.3
528.01	34932.37
528.211	35171.99
528.412	35925.64
528.614	35851.91
528.815	35876.49
529.016	36046.47
529.218	35917.45
529.419	36109.96
529.62	36302.46
529.822	36204.16
530.023	36529.79
530.224	36279.94
530.425	36492.93
530.626	36335.23
530.828	36392.58
531.029	36853.37
531.23	36511.36
531.431	36613.76
531.632	37121.65
531.833	37197.43
532.035	37074.55
532.236	36978.29
532.437	37234.29
532.638	36849.27
532.839	37160.56
533.04	37445.23
533.241	37015.16
533.442	37805.67
533.643	37752.43
533.844	37363.31
534.045	37514.86
534.246	37080.69
534.447	37752.43
534.648	37465.71
534.849	37690.99
535.05	37285.49
535.251	37813.87
535.451	37668.46
535.652	37701.23
535.853	37371.5
536.054	37850.73
536.255	37998.18
536.456	37207.67
536.657	38301.28
536.857	37959.27
537.058	37611.12
537.259	38104.68
537.46	38084.2
537.66	38084.2
537.861	38010.47
538.062	37676.65
538.263	38301.28
538.463	38000.23
538.664	37658.22
538.865	37826.15
539.065	38332
539.266	38209.12
539.466	38137.44
539.667	37729.9
539.868	38114.92
540.068	37944.94
540.269	37543.53
540.469	38243.94
540.67	37760.62
540.87	37490.29
541.071	37588.59
541.271	38026.85
541.472	37936.74
541.672	37676.65
541.873	37697.13
542.073	37459.57
542.274	38549.09
542.474	37871.21
542.675	37688.94
542.875	38123.11
543.075	37809.77
543.276	37191.28
543.476	38196.84
543.676	37826.15
543.877	38196.84
544.077	37858.92
544.277	37580.4
544.478	38082.15
544.678	37928.55
544.878	37664.36
545.078	37951.08
545.279	37797.48
545.479	37566.06
545.679	37676.65
545.879	37908.07
546.079	37555.82
546.28	37856.87
546.48	37459.57
546.68	37590.64
546.88	37680.75
547.08	38119.01
547.28	37539.44
547.48	37518.96
547.68	38069.86
547.88	37226.1
548.081	37719.66
548.281	37758.57
548.481	37754.47
548.681	37725.8
548.881	37895.78
549.081	37369.46
549.28	37191.28
549.48	37856.87
549.68	37502.57
549.88	38153.83
550.08	37600.88
550.28	37936.74
550.48	37570.16
550.68	37996.13
550.88	37834.35
551.08	37385.84
551.279	37723.76
551.479	37129.84
551.679	37639.79
551.879	37533.29
552.079	37633.64
552.278	37654.12
552.478	37561.97
552.678	37201.52
552.878	37588.59
553.077	37656.17
553.277	37297.78
553.477	37938.79
553.676	37461.62
553.876	37416.56
554.076	37154.42
554.275	37437.04
554.475	36740.73
554.674	37488.24
554.874	37211.76
555.074	36828.79
555.273	37432.94
555.473	37396.08
555.672	36996.73
555.872	37191.28
556.071	37353.07
556.271	37123.7
556.47	36789.88
556.67	36488.83
556.869	36908.66
557.068	37033.59
557.268	36808.31
557.467	36984.44
557.667	36949.62
557.866	36394.62
558.065	36667
558.265	36419.2
558.464	36437.63
558.663	37099.12
558.863	36169.35
559.062	36707.96
559.261	35780.23
559.461	36839.03
559.66	35987.08
559.859	36619.9
560.058	35876.49
560.258	35903.11
560.457	35796.62
560.656	36343.42
560.855	35903.11
561.054	35886.73
561.253	35876.49
561.453	35952.26
561.652	36265.6
561.851	36118.15
562.05	35991.17
562.249	35448.46
562.448	35718.79
562.647	35509.9
562.846	35620.49
563.045	35178.13
563.244	35020.44
563.443	35729.03
563.642	34807.45
563.841	35290.77
564.04	35047.06
564.239	35298.96
564.438	34911.89
564.637	34713.24
564.836	34850.45
565.035	34451.1
565.234	34414.24
565.432	34537.12
565.631	34539.16
565.83	34500.25
566.029	34229.92
566.228	34092.71
566.427	34313.89
566.625	34416.29
566.824	33685.16
567.023	34127.52
567.222	33549.99
567.42	34033.32
567.619	33836.71
567.818	33736.36
568.016	33308.33
568.215	34082.47
568.414	33414.83
568.612	33887.91
568.811	33484.46
569.01	33105.59
569.208	32960.18
569.407	33177.26
569.605	32902.84
569.804	33052.34
570.002	32689.85
570.201	32980.66
570.4	32386.75
570.598	32528.06
570.797	32192.19
570.995	32190.14
571.193	32124.61
571.392	32681.66
571.59	32095.94
571.789	31948.48
571.987	32059.07
572.186	31874.76
572.384	31768.26
572.582	31909.57
572.781	32036.55
572.979	31233.74
573.177	31489.74
573.376	31385.29
573.574	31162.06
573.772	31426.25
573.971	31086.29
574.169	30785.24
574.367	30871.25
574.565	31194.83
574.763	30547.67
574.962	30453.47
575.16	30699.22
575.358	30682.84
575.556	30447.32
575.754	30758.61
575.952	29865.7
576.151	30590.68
576.349	30076.64
576.547	30050.02
576.745	30150.37
576.943	29900.51
577.141	30004.96
577.339	29773.54
577.537	29763.3
577.735	29599.46
577.933	29554.41
578.131	29529.83
578.329	29613.8
578.527	29437.67
578.725	29279.98
578.923	29607.65
579.121	29130.48
579.319	28933.87
579.516	29003.5
579.714	28915.44
579.912	28946.16
580.11	29060.85
580.308	28923.63
580.506	28708.6
580.704	28475.13
580.901	28567.29
581.099	29023.98
581.297	28378.87
581.495	28616.44
581.692	28495.61
581.89	27774.72
582.088	28436.22
582.285	27834.11
582.483	27858.69
582.681	28118.78
582.878	27887.36
583.076	27707.14
583.274	27903.74
583.471	27541.25
583.669	27688.71
583.866	27485.96
584.064	27588.36
584.262	27031.31
584.459	27502.34
584.657	27242.25
584.854	27373.32
585.052	26670.87
585.249	26924.82
585.447	26822.42
585.644	26472.21
585.841	26631.96
586.039	26978.06
586.236	26644.24
586.434	26367.77
586.631	26162.97
586.828	26625.81
587.026	26425.11
587.223	26119.96
587.42	26478.36
587.618	26335
587.815	25820.96
588.012	26281.75
588.21	25644.84
588.407	25980.7
588.604	25921.31
588.801	25532.2
588.999	25700.13
589.196	25628.45
589.393	25780
589.59	25339.69
589.787	24960.81
589.984	25018.16
590.182	25032.49
590.379	25220.91
590.576	24817.46
590.773	25192.23
590.97	25046.83
591.167	24876.85
591.364	24727.35
591.561	24696.63
591.758	24825.65
591.955	24633.14
592.152	24725.3
592.349	24389.43
592.546	24401.72
592.743	24145.72
592.94	24219.45
593.137	24327.99
593.334	24244.02
593.531	23791.42
593.727	24051.52
593.924	24221.5
594.121	23758.66
594.318	24061.76
594.515	23564.1
594.712	23893.82
594.908	23592.77
595.105	23510.85
595.302	23252.81
595.499	23447.36
595.696	23349.06
595.892	22777.68
596.089	23308.1
596.286	23168.84
596.482	23191.37
596.679	22826.83
596.876	22947.66
597.072	22662.99
597.269	23185.22
597.466	22667.09
597.662	22804.3
597.859	22843.21
598.055	22749.01
598.252	22613.84
598.448	22525.78
598.645	22198.1
598.841	22200.15
599.038	22476.63
599.234	22382.42
599.431	22103.9
599.627	21878.62
599.824	21796.7
600.02	21827.42
600.217	21819.23
600.413	21901.15
600.609	21725.02
600.806	21522.27
601.002	22093.66
601.198	21430.12
601.395	21280.61
601.591	21534.56
601.787	21503.84
601.984	21192.55
602.18	21530.47
602.376	21124.97
602.572	20799.34
602.769	21206.89
602.965	21071.72
603.161	20993.9
603.357	20678.51
603.553	20658.03
603.75	21038.95
603.946	20586.35
604.142	20780.91
604.338	20500.34
604.534	20569.97
604.73	20143.99
604.926	20402.04
605.122	20455.28
605.318	20356.98
605.514	20299.64
605.71	20109.18
605.906	20146.04
606.102	19926.91
606.298	20039.54
606.494	19900.28
606.69	20240.25
606.886	20041.59
607.082	19670.91
607.278	19746.69
607.474	19611.52
607.67	19775.36
607.866	19455.87
608.062	19879.8
608.257	19515.26
608.453	19492.74
608.649	19595.14
608.845	19462.02
609.041	19230.6
609.236	19529.6
609.432	19191.69
609.628	19199.88
609.824	19519.36
610.019	18857.87
610.215	19150.73
610.411	19302.28
610.606	19025.8
610.802	19132.29
610.998	18843.53
611.193	19019.66
611.389	18739.08
611.584	18904.97
611.78	18778
611.976	18716.56
612.171	18935.69
612.367	18636.69
612.562	18605.97
612.758	18605.97
612.953	18804.62
613.149	18870.15
613.344	18384.79
613.539	18546.58
613.735	18435.99
613.93	18771.85
614.126	18261.91
614.321	18907.02
614.517	18425.75
614.712	18456.47
614.907	18237.33
615.103	18337.68
615.298	18194.33
615.493	18268.05
615.688	17821.59
615.884	18204.56
616.079	18040.73
616.274	18118.55
616.47	17874.84
616.665	17932.19
616.86	17803.16
617.055	18030.49
617.25	17729.44
617.445	17891.23
617.641	17870.75
617.836	17973.14
618.031	17676.19
618.226	17604.51
618.421	17629.09
618.616	17932.19
618.811	17618.85
619.006	17878.94
619.201	17461.15
619.396	17346.47
619.591	16981.93
619.786	17553.31
619.981	16996.26
620.176	17229.73
620.371	17084.33
620.566	17072.04
620.761	16996.26
620.956	16830.38
621.151	16687.02
621.346	16707.5
621.541	16625.58
621.735	16615.34
621.93	16320.43
622.125	16308.15
622.32	15974.33
622.515	16371.63
622.709	16332.72
622.904	16246.71
623.099	15888.31
623.294	16046.01
623.488	15724.47
623.683	15933.37
623.878	15822.78
624.072	15419.33
624.267	15587.26
624.462	15468.48
624.656	15345.6
624.851	15308.74
625.046	15349.7
625.24	15192
625.435	15103.94
625.629	15112.13
625.824	14845.9
626.018	14913.48
626.213	14739.4
626.407	14778.31
626.602	14665.67
626.796	14831.56
626.991	14669.77
627.185	14718.92
627.38	14456.78
627.574	14292.94
627.768	14235.6
627.963	14182.35
628.157	13907.93
628.352	14272.46
628.546	13977.56
628.74	13907.93
628.935	13834.2
629.129	13832.15
629.323	13600.73
629.517	13610.97
629.712	13541.34
629.906	13440.99
630.1	13244.38
630.294	13160.42
630.489	13101.03
630.683	13467.61
630.877	12998.63
631.071	13031.4
631.265	13150.18
631.459	12869.61
631.653	12902.37
631.848	12961.76
632.042	12632.04
632.236	12754.92
632.43	12625.9
632.624	12632.04
632.818	12525.55
633.012	12455.92
633.206	12402.67
633.4	12304.37
633.594	12031.99
633.788	12312.56
633.982	12310.51
634.176	12003.32
634.369	11982.84
634.563	12062.71
634.757	11837.43
634.951	11993.08
635.145	11810.81
635.339	11888.63
635.533	11610.11
635.726	11696.12
635.92	11601.91
636.114	11677.69
636.308	11493.37
636.501	11464.7
636.695	11307.01
636.889	11274.24
637.083	11218.94
637.276	11147.26
637.47	11208.7
637.664	11210.75
637.857	10950.66
638.051	10967.04
638.244	10731.53
638.438	10905.6
638.632	10649.61
638.825	10631.18
639.019	10346.51
639.212	10655.75
639.406	10493.96
639.599	10627.08
639.793	10389.52
639.986	10307.6
640.18	10225.68
640.373	10158.1
640.567	10149.9
640.76	10235.92
640.954	10094.61
641.147	10254.35
641.34	9984.02
641.534	9924.63
641.727	9891.86
641.92	9850.9
642.114	9771.03
642.307	9816.08
642.5	9621.53
642.694	9578.52
642.887	9459.74
643.08	9639.96
643.273	9490.46
643.467	9506.84
643.66	9416.73
643.853	9263.13
644.046	9087.01
644.239	9435.16
644.432	9105.44
644.626	9248.8
644.819	9113.63
645.012	9154.59
645.205	9017.38
645.398	9072.67
645.591	8947.75
645.784	8794.15
645.977	8851.49
646.17	8732.71
646.363	8767.52
646.556	8679.46
646.749	8648.74
646.942	8634.41
647.135	8572.97
647.328	8527.91
647.521	8402.99
647.714	8333.36
647.907	8405.03
648.099	8374.31
648.292	8468.52
648.485	8345.64
648.678	8280.11
648.871	8253.48
649.064	8288.3
649.256	8093.74
649.449	8112.17
649.642	8044.59
649.835	7911.47
650.027	8050.74
650.22	7790.64
650.413	7890.99
650.605	7815.22
650.798	7784.5
650.991	7809.08
651.183	7678.01
651.376	7653.43
651.568	7575.61
651.761	7501.88
651.954	7569.46
652.146	7600.18
652.339	7522.36
652.531	7411.77
652.724	7387.19
652.916	7325.75
653.109	7389.24
653.301	7383.1
653.494	7475.26
653.686	7299.13
653.879	7225.4
654.071	7147.58
654.263	7112.77
654.456	7395.39
654.648	7170.11
654.84	7067.71
655.033	7018.56
655.225	7008.32
655.417	6948.93
655.61	6993.98
655.802	6955.07
655.994	6684.74
656.186	6764.61
656.379	6633.54
656.571	6713.41
656.763	6774.85
656.955	6576.2
657.148	6699.08
657.34	6619.21
657.532	6412.36
657.724	6547.53
657.916	6473.8
658.108	6418.5
658.3	6391.88
658.492	6527.05
658.684	6305.87
658.876	6211.66
659.068	6398.03
659.26	6316.11
659.452	6316.11
659.644	6383.69
659.836	6187.08
660.028	6240.33
660.22	5965.9
660.412	5967.95
660.604	5914.7
660.796	6121.55
660.988	6096.97
661.18	6002.77
661.372	5863.51
661.563	6064.21
661.755	5810.26
661.947	5853.27
662.139	5892.18
662.331	5771.35
662.522	5771.35
662.714	5789.78
662.906	5810.26
663.097	5513.3
663.289	5703.76
663.481	5439.58
663.673	5648.47
663.864	5369.94
664.056	5455.96
664.247	5539.93
664.439	5437.53
664.631	5587.03
664.822	5392.47
665.014	5568.6
665.205	5396.57
665.397	5431.38
665.588	5388.38
665.78	5212.25
665.971	5427.29
666.163	5179.48
666.354	5333.08
666.546	5273.69
666.737	5042.27
666.929	5070.94
667.12	5306.46
667.311	5228.63
667.503	4919.39
667.694	5017.69
667.885	4905.06
668.077	4874.34
668.268	5056.61
668.459	5021.79
668.651	4989.02
668.842	4980.83
669.033	4884.58
669.224	4860
669.416	4907.1
669.607	4915.3
669.798	4778.08
669.989	4839.52
670.18	4827.23
670.371	4763.75
670.563	4845.66
670.754	4675.68
670.945	4722.79
671.136	4673.64
671.327	4655.2
671.518	4653.16
671.709	4520.04
671.9	4585.57
672.091	4589.67
672.282	4724.83
672.473	4653.16
672.664	4558.95
672.855	4483.17
673.046	4704.35
673.237	4552.81
673.428	4526.18
673.619	4579.43
673.809	4397.16
674	4434.02
674.191	4409.45
674.382	4288.62
674.573	4413.54
674.764	4427.88
674.954	4413.54
675.145	4399.21
675.336	4239.47
675.527	4298.86
675.717	4241.51
675.908	4128.88
676.099	4319.34
676.289	4302.95
676.48	4305
676.671	4286.57
676.861	4370.54
677.052	4102.25
677.243	4075.63
677.433	4202.6
677.624	4241.51
677.814	4233.32
678.005	4237.42
678.195	4049
678.386	4212.84
678.576	4137.07
678.767	4063.34
678.957	3960.94
679.148	4110.44
679.338	4081.77
679.529	4022.38
679.719	4059.24
679.909	4178.03
680.1	4016.24
680.29	3952.75
680.481	4132.97
680.671	4128.88
680.861	4012.14
681.052	3936.37
681.242	3913.84
681.432	4012.14
681.622	3840.11
681.813	3932.27
682.003	3983.47
682.193	3932.27
682.383	4063.34
682.573	3799.15
682.764	3784.82
682.954	3989.61
683.144	3846.26
683.334	3862.64
683.524	3846.26
683.714	3827.82
683.904	3793.01
684.094	3838.06
684.284	3903.6
684.474	3881.07
684.664	3811.44
684.854	3817.58
685.044	3711.09
685.234	3717.23
685.424	3747.95
685.614	3731.57
685.804	3704.95
685.994	3774.58
686.184	3790.96
686.374	3721.33
686.564	3620.98
686.753	3811.44
686.943	3723.38
687.133	3743.86
687.323	3594.36
687.513	3641.46
687.702	3647.6
687.892	3555.44
688.082	3494.01
688.272	3643.51
688.461	3545.2
688.651	3602.55
688.841	3534.96
689.03	3491.96
689.22	3485.81
689.41	3506.29
689.599	3477.62
689.789	3522.68
689.979	3485.81
690.168	3496.05
690.358	3414.13
690.547	3248.25
690.737	3373.18
690.926	3240.06
691.116	3309.69
691.305	3448.95
691.495	3256.44
691.684	3338.36
691.874	3248.25
692.063	3328.12
692.252	3186.81
692.442	3344.5
692.631	3330.17
692.82	3188.86
693.01	3199.1
693.199	3291.26
693.388	3238.01
693.578	3223.67
693.767	3211.39
693.956	3209.34
694.146	3137.66
694.335	3131.51
694.524	3192.95
694.713	3086.46
694.902	3002.49
695.092	3100.8
695.281	3080.32
695.47	3158.14
695.659	3164.28
695.848	3217.53
696.037	3129.47
696.226	3172.47
696.415	3086.46
696.604	3086.46
696.793	3037.31
696.982	3084.41
697.171	3082.36
697.36	3094.65
697.549	3061.88
697.738	2955.39
697.927	3080.32
698.116	3104.89
698.305	3072.12
698.494	3016.83
698.683	3074.17
698.872	3106.94
699.061	3125.37
699.25	3147.9
699.438	2910.33
699.627	2867.33
699.816	2998.4
700.005	3072.12
700.193	2955.39
700.382	2988.16
700.571	3074.17
700.76	2904.19
700.948	2982.01
701.137	2914.43
701.326	3156.09
701.514	2939.01
701.703	2939.01
701.892	2963.58
702.08	3065.98
702.269	2984.06
702.457	2953.34
702.646	3025.02
702.834	2963.58
703.023	2861.18
703.212	2924.67
703.4	2883.71
703.589	2932.86
703.777	2936.96
703.965	2879.61
704.154	2943.1
704.342	2922.62
704.531	2867.33
704.719	2836.61
704.907	3002.49
705.096	2900.09
705.284	2885.76
705.472	2949.25
705.661	2820.22
705.849	2934.91
706.037	3027.07
706.226	2908.29
706.414	2834.56
706.602	2803.84
706.79	2809.98
706.979	2783.36
707.167	2861.18
707.355	2924.67
707.543	2936.96
707.731	2912.38
707.919	2941.05
708.107	2816.13
708.296	2936.96
708.484	2928.77
708.672	2818.18
708.86	2857.09
709.048	2812.03
709.236	2889.85
709.424	2906.24
709.612	2740.35
709.8	2807.94
709.988	2840.7
710.176	2904.19
710.364	2873.47
710.551	2939.01
710.739	2838.66
710.927	2734.21
711.115	2732.16
711.303	2771.07
711.491	2910.33
711.679	2795.65
711.866	2779.26
712.054	2891.9
712.242	2723.97
712.43	2803.84
712.617	2760.83
712.805	2670.72
712.993	2693.25
713.181	2701.44
713.368	2697.35
713.556	2783.36
713.744	2826.37
713.931	2791.55
714.119	2627.71
714.306	2597
714.494	2777.22
714.682	2787.46
714.869	2723.97
715.057	2779.26
715.244	2764.93
715.432	2771.07
715.619	2865.28
715.807	2828.42
715.994	2719.87
716.182	2726.02
716.369	2746.5
716.556	2820.22
716.744	2752.64
716.931	2691.2
717.119	2711.68
717.306	2697.35
717.493	2795.65
717.681	2787.46
717.868	2836.61
718.055	2709.63
718.242	2699.39
718.43	2732.16
718.617	2674.82
718.804	2740.35
718.991	2734.21
719.179	2656.39
719.366	2771.07
719.553	2709.63
719.74	2637.95
719.927	2779.26
720.114	2642.05
720.301	2582.66
720.488	2607.23
720.676	2676.87
720.863	2746.5
721.05	2736.26
721.237	2633.86
721.424	2678.91
721.611	2797.7
721.798	2672.77
721.985	2562.18
722.172	2629.76
722.358	2656.39
722.545	2656.39
722.732	2680.96
722.919	2707.59
723.106	2732.16
723.293	2717.83
723.48	2594.95
723.667	2568.32
723.853	2648.19
724.04	2635.91
724.227	2586.76
724.414	2726.02
724.6	2742.4
724.787	2547.84
724.974	2709.63
725.161	2482.31
725.347	2586.76
725.534	2562.18
725.72	2736.26
725.907	2611.33
726.094	2680.96
726.28	2627.71
726.467	2582.66
726.653	2576.52
726.84	2656.39
727.027	2537.6
727.213	2568.32
727.4	2621.57
727.586	2527.36
727.773	2488.45
727.959	2560.13
728.145	2621.57
728.332	2625.67
728.518	2683.01
728.705	2642.05
728.891	2502.79
729.077	2484.36
729.264	2470.02
729.45	2529.41
729.636	2623.62
729.823	2435.21
730.009	2527.36
730.195	2584.71
730.382	2603.14
730.568	2504.84
730.754	2488.45
730.94	2484.36
731.126	2551.94
731.313	2576.52
731.499	2535.56
731.685	2590.85
731.871	2607.23
732.057	2490.5
732.243	2570.37
732.429	2650.24
732.615	2463.88
732.801	2566.28
732.987	2545.8
733.173	2488.45
733.359	2422.92
733.545	2502.79
733.731	2556.04
733.917	2418.82
734.103	2556.04
734.289	2470.02
734.475	2451.59
734.661	2486.4
734.847	2486.4
735.033	2467.97
735.219	2416.77
735.404	2435.21
735.59	2424.97
735.776	2437.25
735.962	2461.83
736.148	2330.76
736.333	2377.86
736.519	2465.93
736.705	2400.39
736.89	2420.87
737.076	2558.08
737.262	2314.38
737.447	2424.97
737.633	2377.86
737.819	2308.23
738.004	2353.29
738.19	2437.25
738.375	2406.53
738.561	2390.15
738.747	2463.88
738.932	2416.77
739.118	2451.59
739.303	2318.47
739.489	2476.16
739.674	2449.54
739.859	2400.39
740.045	2332.81
740.23	2365.57
740.416	2300.04
740.601	2332.81
740.786	2332.81
740.972	2195.59
741.157	2359.43
741.342	2222.22
741.528	2269.32
741.713	2418.82
741.898	2250.89
742.084	2287.75
742.269	2257.03
742.454	2336.9
742.639	2295.94
742.824	2222.22
743.01	2207.88
743.195	2203.79
743.38	2160.78
743.565	2193.55
743.75	2250.89
743.935	2105.48
744.12	2300.04
744.305	2115.72
744.49	2021.52
744.675	2156.68
744.86	2189.45
745.045	2218.12
745.23	2033.8
745.415	2099.34
745.6	2097.29
745.785	2095.24
745.97	2130.06
746.155	2115.72
746.34	2029.71
746.525	2105.48
746.71	1974.41
746.895	2031.76
747.079	1847.44
747.264	1894.54
747.449	2031.76
747.634	1964.17
747.819	1958.03
748.003	1857.68
748.188	1878.16
748.373	1960.08
748.557	1912.97
748.742	1902.73
748.927	1894.54
749.111	1900.69
749.296	1861.77
749.481	1867.92
749.665	1845.39
749.85	1806.48
750.034	1865.87
750.219	1720.46
750.404	1761.42
750.588	1769.62
750.773	1769.62
750.957	1609.87
751.141	1761.42
751.326	1779.86
751.51	1794.19
751.695	1683.6
751.879	1667.22
752.064	1720.46
752.248	1708.18
752.432	1673.36
752.617	1665.17
752.801	1783.95
752.985	1599.63
753.17	1714.32
753.354	1618.07
753.538	1558.67
753.722	1603.73
753.907	1550.48
754.091	1534.1
754.275	1636.5
754.459	1462.42
754.643	1566.87
754.828	1521.81
755.012	1609.87
755.196	1353.88
755.38	1464.47
755.564	1550.48
755.748	1446.04
755.932	1489.04
756.116	1489.04
756.3	1409.17
756.484	1368.21
756.668	1456.28
756.852	1341.59
757.036	1409.17
757.22	1378.45
757.404	1308.82
757.588	1380.5
757.772	1407.13
757.956	1396.89
758.14	1294.49
758.323	1247.38
758.507	1235.1
758.691	1321.11
758.875	1321.11
759.059	1448.08
759.242	1308.82
759.426	1261.72
759.61	1341.59
759.794	1249.43
759.977	1282.2
760.161	1251.48
760.345	1271.96
760.528	1255.58
760.712	1247.38
760.895	1208.47
761.079	1249.43
761.263	1233.05
761.446	1179.8
761.63	1140.89
761.813	1124.51
761.997	1233.05
762.18	1196.18
762.364	1099.93
762.547	1263.77
762.731	1144.99
762.914	1194.14
763.098	1187.99
763.281	1194.14
763.464	1147.03
763.648	1091.74
763.831	1081.5
764.015	1124.51
764.198	1183.9
764.381	1015.96
764.564	1118.36
764.748	1063.07
764.931	1099.93
765.114	1140.89
765.297	1063.07
765.481	1071.26
765.664	1101.98
765.847	1089.69
766.03	1110.17
766.213	1124.51
766.397	1056.92
766.58	1073.31
766.763	1044.63
766.946	987.29
767.129	979.1
767.312	956.57
767.495	1063.07
767.678	1058.97
767.861	1032.35
768.044	991.39
768.227	1009.82
768.41	1077.4
768.593	991.39
768.776	995.48
768.959	1026.2
769.142	1077.4
769.324	1044.63
769.507	944.28
769.69	1001.63
769.873	1048.73
770.056	936.09
770.239	1015.96
770.421	966.81
770.604	981.15
770.787	921.76
770.97	972.96
771.152	884.89
771.335	1026.2
771.518	909.47
771.7	911.52
771.883	934.04
772.066	983.2
772.248	891.04
772.431	919.71
772.613	848.03
772.796	850.08
772.978	886.94
773.161	868.51
773.343	872.61
773.526	891.04
773.708	878.75
773.891	899.23
774.073	751.78
774.256	780.45
774.438	880.8
774.621	841.89
774.803	792.73
774.985	819.36
775.168	825.5
775.35	784.54
775.532	819.36
775.715	772.25
775.897	762.02
776.079	772.25
776.261	733.34
776.444	757.92
776.626	805.02
776.808	719.01
776.99	776.35
777.173	759.97
777.355	741.54
777.537	714.91
777.719	753.82
777.901	723.1
778.083	805.02
778.265	663.71
778.447	751.78
778.629	647.33
778.811	649.38
778.993	690.34
779.175	759.97
779.357	682.14
779.539	659.62
779.721	643.23
779.903	669.86
780.085	647.33
780.267	657.57
780.449	571.55
780.631	692.38
780.812	628.9
780.994	602.27
781.176	651.42
781.358	626.85
781.54	614.56
781.721	555.17
781.903	573.6
782.085	563.36
782.267	643.23
782.448	512.16
782.63	557.22
782.812	608.42
782.993	616.61
783.175	637.09
783.357	465.06
783.538	518.31
783.72	497.83
783.901	534.69
784.083	610.47
784.264	542.88
784.446	524.45
784.627	510.11
784.809	522.4
784.99	471.2
785.172	508.07
785.353	428.2
785.535	452.77
785.716	417.96
785.897	524.45
786.079	477.35
786.26	506.02
786.441	426.15
786.623	532.64
786.804	477.35
786.985	503.97
787.167	493.73
787.348	458.92
787.529	411.81
787.71	444.58
787.891	555.17
788.073	471.2
788.254	391.33
788.435	379.04
788.616	452.77
788.797	415.91
788.978	389.28
789.159	327.85
789.34	401.57
789.522	395.43
789.703	370.85
789.884	405.67
790.065	407.72
790.246	381.09
790.427	424.1
790.607	366.76
790.788	430.24
790.969	366.76
791.15	415.91
791.331	368.81
791.512	325.8
791.693	256.17
791.874	399.52
792.054	407.72
792.235	305.32
792.416	422.05
792.597	395.43
792.778	317.61
792.958	260.26
793.139	305.32
793.32	405.67
793.5	385.19
793.681	436.39
793.862	338.09
794.042	356.52
794.223	293.03
794.404	290.98
794.584	350.37
794.765	252.07
794.945	364.71
795.126	288.93
795.306	321.7
795.487	329.89
795.667	313.51
795.848	381.09
796.028	305.32
796.209	348.33
796.389	327.85
796.57	372.9
796.75	319.65
796.93	309.41
797.111	327.85
797.291	364.71
797.471	284.84
797.652	313.51
797.832	293.03
798.012	323.75
798.192	225.45
798.373	241.83
798.553	264.36
798.733	282.79
798.913	258.21
799.093	315.56
799.274	237.74
799.454	325.8
799.634	258.21
799.814	323.75
799.994	241.83
800.174	274.6
800.354	319.65
800.534	219.3
800.714	250.02
800.894	241.83
801.074	270.5
801.254	303.27
801.434	258.21
801.614	245.93
801.794	196.78
801.974	600.23
802.154	264.36
802.334	305.32
802.514	264.36
802.693	254.12
802.873	174.25
803.053	225.45
803.233	303.27
803.413	211.11
803.592	182.44
803.772	143.53
803.952	235.69
804.131	184.49
804.311	207.02
804.491	221.35
804.67	215.21
804.85	225.45
805.03	243.88
805.209	235.69
805.389	178.34
805.568	161.96
805.748	280.74
805.928	227.5
806.107	278.69
806.287	219.3
806.466	276.65
806.646	219.3
806.825	198.82
807.004	190.63
807.184	202.92
807.363	180.39
807.543	221.35
807.722	125.1
807.901	243.88
808.081	186.54
808.26	172.2
808.439	135.34
808.619	180.39
808.798	153.77
808.977	284.84
809.156	268.45
809.336	250.02
809.515	219.3
809.694	164.01
809.873	151.72
810.052	166.06
810.231	239.78
810.411	153.77
810.59	141.48
810.769	127.14
810.948	155.82
811.127	118.95
811.306	84.14
811.485	192.68
811.664	182.44
811.843	196.78
812.022	168.1
812.201	198.82
812.38	170.15
812.559	139.43
812.737	123.05
812.916	174.25
813.095	114.86
813.274	145.58
813.453	178.34
813.632	139.43
813.811	139.43
813.989	123.05
814.168	190.63
814.347	157.86
814.526	241.83
814.704	125.1
814.883	207.02
815.062	137.38
815.24	164.01
815.419	190.63
815.598	106.67
815.776	69.8
815.955	209.06
816.133	49.32
816.312	155.82
816.49	106.67
816.669	114.86
816.847	164.01
817.026	176.3
817.204	141.48
817.383	145.58
817.561	106.67
817.74	178.34
817.918	198.82
818.097	137.38
818.275	151.72
818.453	121
818.632	157.86
818.81	114.86
818.988	209.06
819.167	143.53
819.345	196.78
819.523	86.19
819.701	127.14
819.879	219.3
820.058	96.43
820.236	96.43
820.414	123.05
820.592	86.19
820.77	166.06
820.948	116.9
821.127	110.76
821.305	131.24
821.483	139.43
821.661	129.19
821.839	121
822.017	55.47
822.195	116.9
822.373	149.67
822.551	127.14
822.729	121
822.907	121
823.085	139.43
823.262	98.47
823.44	121
823.618	53.42
823.796	192.68
823.974	102.57
824.152	174.25
824.329	75.95
824.507	188.58
824.685	219.3
824.863	106.67
825.04	137.38
825.218	96.43
825.396	61.61
825.574	73.9
825.751	176.3
825.929	116.9
826.107	71.85
826.284	88.23
826.462	71.85
826.639	129.19
826.817	82.09
826.994	159.91
827.172	88.23
827.349	133.29
827.527	131.24
827.704	168.1
827.882	71.85
828.059	84.14
828.237	121
828.414	121
828.591	47.27
828.769	157.86
828.946	98.47
829.124	69.8
829.301	41.13
829.478	116.9
829.655	59.56
829.833	88.23
830.01	141.48
830.187	110.76
830.364	57.51
830.542	112.81
830.719	51.37
830.896	16.55
831.073	73.9
831.25	28.84
831.427	22.7
831.604	57.51
831.782	63.66
831.959	151.72
832.136	108.71
832.313	86.19
832.49	57.51
832.667	47.27
832.844	86.19
833.021	104.62
833.198	90.28
833.374	114.86
833.551	82.09
833.728	129.19
833.905	98.47
834.082	59.56
834.259	24.75
834.436	164.01
834.612	61.61
834.789	45.23
834.966	0.17
835.143	80.04
835.319	49.32
835.496	170.15
835.673	18.6
835.85	63.66
836.026	108.71
836.203	82.09
836.38	82.09
836.556	43.18
836.733	141.48
836.909	92.33
837.086	43.18
837.262	59.56
837.439	26.79
837.616	34.99
837.792	147.62
837.968	39.08
838.145	-40.79
838.321	71.85
838.498	14.51
838.674	63.66
838.851	65.71
839.027	57.51
839.203	69.8
839.38	47.27
839.556	104.62
839.732	88.23
839.909	147.62
840.085	102.57
840.261	30.89
840.437	-10.07
840.614	88.23
840.79	34.99
840.966	0.17
841.142	22.7
841.318	51.37
841.494	106.67
841.671	43.18
841.847	43.18
842.023	49.32
842.199	55.47
842.375	77.99
842.551	2.22
842.727	18.6
842.903	114.86
843.079	-5.97
843.255	16.55
843.431	8.36
843.607	92.33
843.783	26.79
843.959	98.47
844.134	30.89
844.31	114.86
844.486	59.56
844.662	10.41
844.838	69.8
845.013	41.13
845.189	6.31
845.365	55.47
845.541	37.03
845.716	86.19
845.892	55.47
846.068	63.66
846.244	24.75
846.419	61.61
846.595	32.94
846.77	30.89
846.946	59.56
847.122	75.95
847.297	71.85
847.473	18.6
847.648	-12.12
847.824	-3.93
847.999	77.99
848.175	55.47
848.35	2.22
848.526	77.99
848.701	55.47
848.876	59.56
849.052	59.56
849.227	139.43
849.403	-20.31
849.578	-18.26
849.753	102.57
849.929	16.55
850.104	-1.88
850.279	75.95
850.454	51.37
850.63	6.31
850.805	24.75
850.98	39.08
851.155	-36.69
851.33	-8.02
851.505	65.71
851.681	32.94
851.856	26.79
852.031	49.32
852.206	12.46
852.381	8.36
852.556	-40.79
852.731	86.19
852.906	8.36
853.081	94.38
853.256	-3.93
853.431	53.42
853.606	-91.99
853.781	0.17
853.956	20.65
854.131	32.94
854.305	10.41
854.48	22.7
854.655	-30.55
854.83	-16.21
855.005	-30.55
855.18	-38.74
855.354	123.05
855.529	84.14
855.704	-30.55
855.879	39.08
856.053	-1.88
856.228	88.23
856.403	84.14
856.577	37.03
856.752	2.22
856.926	4.27
857.101	-42.84
857.276	12.46
857.45	0.17
857.625	-16.21
857.799	26.79
857.974	49.32
858.148	34.99
858.323	30.89
858.497	-10.07
858.672	-28.5
858.846	24.75
859.02	63.66
859.195	4.27
859.369	53.42
859.543	108.71
859.718	37.03
859.892	63.66
860.066	34.99
860.241	-8.02
860.415	14.51
860.589	51.37
860.763	65.71
860.938	30.89
861.112	63.66
861.286	-16.21
861.46	53.42
861.634	-87.89
861.808	16.55
861.982	14.51
862.157	14.51
862.331	-65.36
862.505	-46.93
862.679	-8.02
862.853	51.37
863.027	37.03
863.201	18.6
863.375	-59.22
863.549	24.75
863.722	84.14
863.896	-26.45
864.07	-14.17
864.244	37.03
864.418	6.31
864.592	63.66
864.766	-46.93
864.939	22.7
865.113	28.84
865.287	18.6
865.461	-16.21
865.634	43.18
865.808	4.27
865.982	45.23
866.156	-12.12
866.329	-51.03
866.503	80.04
866.676	26.79
866.85	0.17
867.024	69.8
867.197	-28.5
867.371	6.31
867.544	53.42
867.718	10.41
867.891	-12.12
868.065	43.18
868.238	-22.36
868.412	-12.12
868.585	-1.88
868.759	-55.12
868.932	-26.45
869.105	8.36
869.279	30.89
869.452	10.41
869.625	-18.26
869.799	63.66
869.972	84.14
870.145	-63.32
870.319	10.41
870.492	-44.88
870.665	0.17
870.838	20.65
871.011	0.17
871.185	59.56
871.358	30.89
871.531	30.89
871.704	-8.02
871.877	61.61
872.05	-91.99
872.223	-59.22
872.396	41.13
872.569	-116.56
872.742	-46.93
872.915	65.71
873.088	8.36
873.261	-69.46
873.434	12.46
873.607	88.23
873.78	41.13
873.953	-5.97
874.126	55.47
874.299	-26.45
874.471	10.41
874.644	18.6
874.817	6.31
874.99	0.17
875.163	-73.56
875.335	63.66
875.508	-98.13
875.681	16.55
875.853	0.17
876.026	18.6
876.199	34.99
876.371	34.99
876.544	16.55
876.717	-1.88
876.889	47.27
877.062	37.03
877.234	-22.36
877.407	49.32
877.579	-14.17
877.752	-26.45
877.924	-8.02
878.097	-1.88
878.269	-10.07
878.442	-16.21
878.614	41.13
878.786	49.32
878.959	-10.07
879.131	-18.26
879.303	-44.88
879.476	-28.5
879.648	4.27
879.82	32.94
879.993	-89.94
880.165	75.95
880.337	-1.88
880.509	82.09
880.681	-30.55
880.854	-5.97
881.026	32.94
881.198	22.7
881.37	61.61
881.542	8.36
881.714	14.51
881.886	-26.45
882.058	39.08
882.23	-51.03
882.402	-30.55
882.574	32.94
882.746	20.65
882.918	2.22
883.09	69.8
883.262	26.79
883.434	-40.79
883.606	-5.97
883.778	34.99
883.95	-1.88
884.122	4.27
884.293	80.04
884.465	-73.56
884.637	2.22
884.809	-71.51
884.98	-10.07
885.152	-42.84
885.324	-20.31
885.496	-22.36
885.667	63.66
885.839	-12.12
886.011	2.22
886.182	-20.31
886.354	30.89
886.525	-1.88
886.697	-24.4
886.869	-30.55
887.04	49.32
887.212	80.04
887.383	-16.21
887.555	-40.79
887.726	73.9
887.897	-40.79
888.069	16.55
888.24	-42.84
888.412	-34.64
888.583	26.79
888.754	-1.88
888.926	-38.74
889.097	-18.26
889.268	-10.07
889.44	8.36
889.611	-63.32
889.782	8.36
889.953	57.51
890.125	37.03
890.296	12.46
890.467	-57.17
890.638	-20.31
890.809	16.55
890.98	18.6
891.151	-22.36
891.323	30.89
891.494	-14.17
891.665	-106.32
891.836	4.27
892.007	-1.88
892.178	18.6
892.349	-18.26
892.52	10.41
892.691	4.27
892.862	-3.93
893.032	-3.93
893.203	14.51
893.374	6.31
893.545	63.66
893.716	51.37
893.887	47.27
894.057	8.36
894.228	-8.02
894.399	-16.21
894.57	-22.36
894.74	-57.17
894.911	-30.55
895.082	-30.55
895.253	-5.97
895.423	-8.02
895.594	32.94
895.764	-67.41
895.935	-10.07
896.106	49.32
896.276	-14.17
896.447	51.37
896.617	59.56
896.788	34.99
896.958	-26.45
897.129	30.89
897.299	-14.17
897.47	-5.97
897.64	-5.97
897.81	22.7
897.981	100.52
898.151	49.32
898.322	43.18
898.492	86.19
898.662	-42.84
898.832	30.89
899.003	30.89
899.173	-44.88
899.343	-48.98
899.513	30.89
