Data from USB4F104151__227__11-10-54-634.txt Node

Date: Wed Mar 12 11:10:54 EDT 2025
User: louis
Spectrometer: USB4F10415
Trigger mode: 4
Integration Time (sec): 2.000000E-2
Scans to average: 1
Electric dark correction enabled: true
Nonlinearity correction enabled: false
Boxcar width: 0
XAxis mode: Wavelengths
Number of Pixels in Spectrum: 3648
>>>>>Begin Spectral Data<<<<<
178.204	-102.74
178.424	-102.74
178.644	-102.74
178.864	-57.68
179.084	-61.78
179.304	26.28
179.524	-35.16
179.744	-2.39
179.964	-41.3
180.184	9.9
180.404	16.04
180.624	28.33
180.844	-14.68
181.064	-61.78
181.283	20.14
181.503	11.95
181.723	42.67
181.943	50.86
182.163	77.48
182.383	26.28
182.602	-16.73
182.822	104.11
183.042	-8.53
183.262	24.23
183.482	-16.73
183.701	38.57
183.921	100.01
184.141	-24.92
184.361	104.11
184.58	24.23
184.8	61.1
185.02	18.09
185.239	-12.63
185.459	-10.58
185.679	28.33
185.898	-18.77
186.118	42.67
186.338	-35.16
186.557	54.95
186.777	1.71
186.997	-4.44
187.216	40.62
187.436	93.87
187.655	69.29
187.875	57
188.095	69.29
188.314	-51.54
188.534	28.33
188.753	32.43
188.973	48.81
189.192	40.62
189.412	-80.21
189.631	13.99
189.851	-12.63
190.07	-0.34
190.29	30.38
190.509	77.48
190.729	5.8
190.948	69.29
191.168	54.95
191.387	52.91
191.607	54.95
191.826	-43.35
192.045	-12.63
192.265	71.34
192.484	42.67
192.704	28.33
192.923	-26.96
193.142	-24.92
193.362	38.57
193.581	34.47
193.8	36.52
194.02	65.19
194.239	59.05
194.458	65.19
194.678	69.29
194.897	52.91
195.116	36.52
195.335	104.11
195.555	97.96
195.774	128.68
195.993	75.43
196.212	-26.96
196.432	-45.4
196.651	-4.44
196.87	30.38
197.089	61.1
197.308	-14.68
197.528	42.67
197.747	26.28
197.966	36.52
198.185	48.81
198.404	-4.44
198.623	36.52
198.842	3.75
199.062	36.52
199.281	26.28
199.5	77.48
199.719	9.9
199.938	32.43
200.157	13.99
200.376	30.38
200.595	46.76
200.814	71.34
201.033	-22.87
201.252	65.19
201.471	-14.68
201.69	65.19
201.909	46.76
202.128	-0.34
202.347	3.75
202.566	34.47
202.785	1.71
203.004	30.38
203.223	79.53
203.442	-49.49
203.661	16.04
203.879	48.81
204.098	71.34
204.317	18.09
204.536	48.81
204.755	9.9
204.974	52.91
205.193	52.91
205.411	38.57
205.63	36.52
205.849	18.09
206.068	5.8
206.287	32.43
206.505	-4.44
206.724	16.04
206.943	81.58
207.162	36.52
207.381	32.43
207.599	40.62
207.818	-20.82
208.037	42.67
208.255	-4.44
208.474	57
208.693	20.14
208.911	16.04
209.13	11.95
209.349	61.1
209.567	-59.73
209.786	-18.77
210.005	22.19
210.223	59.05
210.442	-82.26
210.661	-74.07
210.879	28.33
211.098	13.99
211.316	-0.34
211.535	42.67
211.753	16.04
211.972	36.52
212.191	7.85
212.409	42.67
212.628	-12.63
212.846	13.99
213.065	106.15
213.283	36.52
213.502	-8.53
213.72	9.9
213.938	28.33
214.157	13.99
214.375	9.9
214.594	-6.49
214.812	-39.25
215.031	69.29
215.249	-22.87
215.467	30.38
215.686	44.71
215.904	-18.77
216.122	28.33
216.341	44.71
216.559	87.72
216.778	13.99
216.996	20.14
217.214	36.52
217.432	-18.77
217.651	36.52
217.869	13.99
218.087	9.9
218.306	65.19
218.524	83.63
218.742	7.85
218.96	44.71
219.179	108.2
219.397	-6.49
219.615	104.11
219.833	95.91
220.051	30.38
220.27	69.29
220.488	-47.44
220.706	77.48
220.924	-14.68
221.142	5.8
221.36	24.23
221.578	93.87
221.796	40.62
222.015	38.57
222.233	57
222.451	73.39
222.669	26.28
222.887	-4.44
223.105	54.95
223.323	57
223.541	-16.73
223.759	11.95
223.977	34.47
224.195	16.04
224.413	-14.68
224.631	-29.01
224.849	-61.78
225.067	32.43
225.285	-8.53
225.503	18.09
225.721	26.28
225.939	-6.49
226.157	9.9
226.375	126.63
226.592	50.86
226.81	112.3
227.028	42.67
227.246	155.3
227.464	3.75
227.682	138.92
227.9	9.9
228.117	32.43
228.335	18.09
228.553	-98.64
228.771	20.14
228.989	26.28
229.206	24.23
229.424	-37.2
229.642	-35.16
229.86	40.62
230.077	48.81
230.295	32.43
230.513	61.1
230.731	59.05
230.948	73.39
231.166	112.3
231.384	7.85
231.601	-4.44
231.819	46.76
232.037	30.38
232.254	85.67
232.472	-14.68
232.689	24.23
232.907	48.81
233.125	77.48
233.342	22.19
233.56	-24.92
233.777	42.67
233.995	3.75
234.213	32.43
234.43	40.62
234.648	22.19
234.865	-33.11
235.083	-6.49
235.3	83.63
235.518	145.06
235.735	40.62
235.953	44.71
236.17	-55.64
236.388	40.62
236.605	44.71
236.822	22.19
237.04	30.38
237.257	-6.49
237.475	-31.06
237.692	30.38
237.909	-10.58
238.127	-18.77
238.344	-4.44
238.562	30.38
238.779	28.33
238.996	-57.68
239.214	102.06
239.431	61.1
239.648	30.38
239.865	13.99
240.083	26.28
240.3	11.95
240.517	-2.39
240.735	-6.49
240.952	-6.49
241.169	61.1
241.386	1.71
241.603	28.33
241.821	65.19
242.038	89.77
242.255	40.62
242.472	-0.34
242.689	61.1
242.907	-14.68
243.124	44.71
243.341	36.52
243.558	-2.39
243.775	-6.49
243.992	26.28
244.209	9.9
244.426	61.1
244.643	67.24
244.86	1.71
245.078	32.43
245.295	22.19
245.512	-29.01
245.729	16.04
245.946	112.3
246.163	59.05
246.38	44.71
246.597	13.99
246.814	18.09
247.031	-22.87
247.248	44.71
247.464	24.23
247.681	42.67
247.898	-14.68
248.115	7.85
248.332	-22.87
248.549	52.91
248.766	85.67
248.983	32.43
249.2	3.75
249.417	32.43
249.633	7.85
249.85	102.06
250.067	102.06
250.284	71.34
250.501	65.19
250.717	132.78
250.934	-43.35
251.151	18.09
251.368	32.43
251.585	61.1
251.801	59.05
252.018	36.52
252.235	50.86
252.451	38.57
252.668	-20.82
252.885	48.81
253.102	-2.39
253.318	-12.63
253.535	11.95
253.752	81.58
253.968	-39.25
254.185	46.76
254.401	57
254.618	46.76
254.835	-18.77
255.051	52.91
255.268	18.09
255.484	36.52
255.701	-47.44
255.917	34.47
256.134	-22.87
256.351	-72.02
256.567	-59.73
256.784	-47.44
257	11.95
257.217	54.95
257.433	52.91
257.65	24.23
257.866	7.85
258.082	-18.77
258.299	-2.39
258.515	61.1
258.732	9.9
258.948	7.85
259.165	34.47
259.381	24.23
259.597	52.91
259.814	44.71
260.03	59.05
260.246	30.38
260.463	48.81
260.679	91.82
260.895	-49.49
261.112	-20.82
261.328	-22.87
261.544	38.57
261.761	34.47
261.977	28.33
262.193	-49.49
262.409	34.47
262.626	44.71
262.842	-8.53
263.058	-29.01
263.274	-16.73
263.49	7.85
263.707	30.38
263.923	16.04
264.139	24.23
264.355	46.76
264.571	-26.96
264.787	-6.49
265.004	50.86
265.22	52.91
265.436	9.9
265.652	57
265.868	11.95
266.084	28.33
266.3	-37.2
266.516	-0.34
266.732	77.48
266.948	30.38
267.164	36.52
267.38	22.19
267.596	22.19
267.812	-14.68
268.028	124.58
268.244	-22.87
268.46	36.52
268.676	11.95
268.892	11.95
269.108	65.19
269.324	18.09
269.54	73.39
269.756	100.01
269.972	42.67
270.188	46.76
270.403	24.23
270.619	87.72
270.835	106.15
271.051	50.86
271.267	-47.44
271.483	-8.53
271.698	-20.82
271.914	-43.35
272.13	-2.39
272.346	-16.73
272.562	32.43
272.777	65.19
272.993	11.95
273.209	79.53
273.425	16.04
273.64	40.62
273.856	24.23
274.072	73.39
274.287	11.95
274.503	16.04
274.719	-22.87
274.934	65.19
275.15	-22.87
275.366	106.15
275.581	59.05
275.797	67.24
276.012	38.57
276.228	-2.39
276.444	18.09
276.659	13.99
276.875	7.85
277.09	54.95
277.306	54.95
277.521	77.48
277.737	61.1
277.952	89.77
278.168	54.95
278.383	36.52
278.599	-6.49
278.814	20.14
279.03	-24.92
279.245	-2.39
279.461	36.52
279.676	32.43
279.892	73.39
280.107	-41.3
280.322	7.85
280.538	59.05
280.753	-49.49
280.969	28.33
281.184	-49.49
281.399	54.95
281.615	42.67
281.83	16.04
282.045	-24.92
282.26	13.99
282.476	3.75
282.691	93.87
282.906	22.19
283.122	-10.58
283.337	-12.63
283.552	-4.44
283.767	-6.49
283.983	48.81
284.198	-22.87
284.413	24.23
284.628	5.8
284.843	67.24
285.058	-14.68
285.274	24.23
285.489	24.23
285.704	34.47
285.919	-18.77
286.134	24.23
286.349	-2.39
286.564	-20.82
286.779	54.95
286.995	28.33
287.21	-4.44
287.425	83.63
287.64	16.04
287.855	11.95
288.07	-16.73
288.285	26.28
288.5	73.39
288.715	-20.82
288.93	-2.39
289.145	26.28
289.36	-55.64
289.575	38.57
289.79	46.76
290.004	3.75
290.219	44.71
290.434	-100.69
290.649	61.1
290.864	95.91
291.079	71.34
291.294	63.15
291.509	-12.63
291.724	40.62
291.938	34.47
292.153	85.67
292.368	57
292.583	-14.68
292.798	24.23
293.012	3.75
293.227	63.15
293.442	54.95
293.657	52.91
293.871	28.33
294.086	61.1
294.301	116.39
294.516	57
294.73	52.91
294.945	-6.49
295.16	52.91
295.374	26.28
295.589	-31.06
295.804	3.75
296.018	11.95
296.233	-4.44
296.447	36.52
296.662	1.71
296.877	-4.44
297.091	87.72
297.306	30.38
297.52	16.04
297.735	-26.96
297.949	-20.82
298.164	61.1
298.378	20.14
298.593	-29.01
298.807	28.33
299.022	1.71
299.236	38.57
299.451	28.33
299.665	116.39
299.88	89.77
300.094	24.23
300.309	24.23
300.523	102.06
300.737	48.81
300.952	57
301.166	40.62
301.381	-22.87
301.595	-2.39
301.809	22.19
302.024	30.38
302.238	5.8
302.452	71.34
302.667	3.75
302.881	38.57
303.095	108.2
303.309	40.62
303.524	1.71
303.738	93.87
303.952	59.05
304.166	-2.39
304.381	-20.82
304.595	48.81
304.809	11.95
305.023	-4.44
305.237	-0.34
305.452	93.87
305.666	44.71
305.88	93.87
306.094	32.43
306.308	3.75
306.522	-41.3
306.736	73.39
306.95	-6.49
307.164	24.23
307.379	16.04
307.593	-2.39
307.807	116.39
308.021	52.91
308.235	28.33
308.449	-0.34
308.663	-22.87
308.877	116.39
309.091	71.34
309.305	-45.4
309.519	85.67
309.733	134.82
309.947	-0.34
310.161	38.57
310.374	57
310.588	3.75
310.802	-16.73
311.016	1.71
311.23	59.05
311.444	-29.01
311.658	61.1
311.872	87.72
312.085	28.33
312.299	71.34
312.513	54.95
312.727	75.43
312.941	61.1
313.154	44.71
313.368	91.82
313.582	22.19
313.796	-2.39
314.009	26.28
314.223	57
314.437	26.28
314.651	18.09
314.864	95.91
315.078	-72.02
315.292	7.85
315.505	34.47
315.719	44.71
315.933	26.28
316.146	42.67
316.36	1.71
316.573	104.11
316.787	28.33
317.001	3.75
317.214	3.75
317.428	-12.63
317.641	59.05
317.855	36.52
318.068	7.85
318.282	32.43
318.495	-8.53
318.709	34.47
318.922	-18.77
319.136	147.11
319.349	83.63
319.563	22.19
319.776	-37.2
319.99	50.86
320.203	-18.77
320.417	73.39
320.63	-12.63
320.843	42.67
321.057	-20.82
321.27	71.34
321.483	91.82
321.697	81.58
321.91	38.57
322.124	16.04
322.337	11.95
322.55	118.44
322.763	-24.92
322.977	89.77
323.19	-26.96
323.403	-10.58
323.617	20.14
323.83	71.34
324.043	-29.01
324.256	65.19
324.469	-26.96
324.683	48.81
324.896	-26.96
325.109	52.91
325.322	16.04
325.535	114.34
325.748	9.9
325.962	-12.63
326.175	81.58
326.388	73.39
326.601	-20.82
326.814	54.95
327.027	48.81
327.24	89.77
327.453	34.47
327.666	28.33
327.879	26.28
328.092	48.81
328.305	-0.34
328.518	-0.34
328.731	102.06
328.944	26.28
329.157	38.57
329.37	-10.58
329.583	65.19
329.796	63.15
330.009	46.76
330.222	28.33
330.435	-0.34
330.648	44.71
330.861	11.95
331.073	48.81
331.286	73.39
331.499	42.67
331.712	18.09
331.925	-12.63
332.138	118.44
332.35	52.91
332.563	52.91
332.776	136.87
332.989	5.8
333.202	65.19
333.414	-0.34
333.627	-16.73
333.84	44.71
334.053	18.09
334.265	54.95
334.478	13.99
334.691	-4.44
334.903	-4.44
335.116	7.85
335.329	38.57
335.541	-8.53
335.754	44.71
335.966	32.43
336.179	65.19
336.392	54.95
336.604	57
336.817	26.28
337.029	75.43
337.242	46.76
337.454	87.72
337.667	7.85
337.88	69.29
338.092	85.67
338.305	79.53
338.517	-14.68
338.729	5.8
338.942	18.09
339.154	-51.54
339.367	1.71
339.579	81.58
339.792	22.19
340.004	50.86
340.217	26.28
340.429	9.9
340.641	16.04
340.854	30.38
341.066	-74.07
341.278	16.04
341.491	81.58
341.703	11.95
341.915	-16.73
342.128	75.43
342.34	11.95
342.552	5.8
342.764	7.85
342.977	67.24
343.189	32.43
343.401	32.43
343.613	40.62
343.826	32.43
344.038	36.52
344.25	100.01
344.462	-29.01
344.674	67.24
344.886	93.87
345.099	75.43
345.311	54.95
345.523	3.75
345.735	57
345.947	32.43
346.159	9.9
346.371	79.53
346.583	-35.16
346.795	71.34
347.007	38.57
347.219	71.34
347.431	-37.2
347.643	28.33
347.855	13.99
348.067	57
348.279	-29.01
348.491	24.23
348.703	18.09
348.915	13.99
349.127	24.23
349.339	93.87
349.551	3.75
349.763	57
349.975	67.24
350.187	26.28
350.399	83.63
350.61	83.63
350.822	-4.44
351.034	71.34
351.246	-18.77
351.458	30.38
351.669	30.38
351.881	26.28
352.093	85.67
352.305	9.9
352.517	-37.2
352.728	157.35
352.94	46.76
353.152	48.81
353.363	-24.92
353.575	1.71
353.787	26.28
353.999	93.87
354.21	77.48
354.422	65.19
354.633	7.85
354.845	-2.39
355.057	3.75
355.268	1.71
355.48	32.43
355.692	69.29
355.903	42.67
356.115	67.24
356.326	-74.07
356.538	-43.35
356.749	1.71
356.961	106.15
357.172	28.33
357.384	42.67
357.595	91.82
357.807	83.63
358.018	69.29
358.23	9.9
358.441	97.96
358.653	73.39
358.864	28.33
359.075	65.19
359.287	20.14
359.498	124.58
359.709	67.24
359.921	-16.73
360.132	18.09
360.344	22.19
360.555	-33.11
360.766	73.39
360.977	48.81
361.189	-16.73
361.4	36.52
361.611	61.1
361.823	57
362.034	71.34
362.245	40.62
362.456	40.62
362.667	110.25
362.879	59.05
363.09	61.1
363.301	16.04
363.512	79.53
363.723	-20.82
363.935	-31.06
364.146	42.67
364.357	40.62
364.568	16.04
364.779	44.71
364.99	61.1
365.201	30.38
365.412	22.19
365.623	97.96
365.834	34.47
366.045	36.52
366.256	36.52
366.467	11.95
366.678	11.95
366.889	18.09
367.1	36.52
367.311	100.01
367.522	20.14
367.733	38.57
367.944	-4.44
368.155	-22.87
368.366	106.15
368.577	34.47
368.788	110.25
368.999	-14.68
369.209	9.9
369.42	26.28
369.631	106.15
369.842	28.33
370.053	-16.73
370.264	-14.68
370.474	13.99
370.685	16.04
370.896	34.47
371.107	67.24
371.317	81.58
371.528	42.67
371.739	89.77
371.95	54.95
372.16	65.19
372.371	13.99
372.582	28.33
372.792	18.09
373.003	-0.34
373.214	75.43
373.424	-10.58
373.635	42.67
373.846	30.38
374.056	38.57
374.267	73.39
374.477	28.33
374.688	46.76
374.898	63.15
375.109	-2.39
375.319	-4.44
375.53	69.29
375.74	-35.16
375.951	13.99
376.161	5.8
376.372	50.86
376.582	95.91
376.793	61.1
377.003	63.15
377.214	54.95
377.424	42.67
377.635	13.99
377.845	28.33
378.055	18.09
378.266	-14.68
378.476	46.76
378.686	40.62
378.897	91.82
379.107	52.91
379.317	83.63
379.528	40.62
379.738	-45.4
379.948	38.57
380.158	32.43
380.369	26.28
380.579	112.3
380.789	73.39
380.999	81.58
381.21	54.95
381.42	126.63
381.63	11.95
381.84	100.01
382.05	52.91
382.261	52.91
382.471	87.72
382.681	36.52
382.891	149.16
383.101	52.91
383.311	30.38
383.521	97.96
383.731	38.57
383.941	79.53
384.151	52.91
384.361	20.14
384.571	28.33
384.781	11.95
384.991	69.29
385.201	52.91
385.411	30.38
385.621	46.76
385.831	63.15
386.041	40.62
386.251	16.04
386.461	69.29
386.671	34.47
386.881	32.43
387.091	54.95
387.301	67.24
387.511	34.47
387.72	73.39
387.93	67.24
388.14	7.85
388.35	77.48
388.56	50.86
388.769	-18.77
388.979	20.14
389.189	73.39
389.399	81.58
389.609	59.05
389.818	13.99
390.028	5.8
390.238	44.71
390.447	138.92
390.657	87.72
390.867	22.19
391.076	63.15
391.286	48.81
391.496	34.47
391.705	26.28
391.915	89.77
392.125	50.86
392.334	42.67
392.544	34.47
392.753	38.57
392.963	65.19
393.172	36.52
393.382	50.86
393.591	75.43
393.801	-55.64
394.01	79.53
394.22	5.8
394.429	65.19
394.639	32.43
394.848	63.15
395.058	40.62
395.267	-12.63
395.477	65.19
395.686	149.16
395.895	79.53
396.105	91.82
396.314	110.25
396.524	67.24
396.733	110.25
396.942	20.14
397.152	46.76
397.361	83.63
397.57	32.43
397.78	112.3
397.989	106.15
398.198	163.5
398.407	69.29
398.617	120.49
398.826	83.63
399.035	77.48
399.244	89.77
399.453	136.87
399.663	81.58
399.872	75.43
400.081	91.82
400.29	110.25
400.499	126.63
400.708	112.3
400.917	69.29
401.127	42.67
401.336	151.21
401.545	134.82
401.754	102.06
401.963	104.11
402.172	73.39
402.381	83.63
402.59	118.44
402.799	22.19
403.008	132.78
403.217	124.58
403.426	136.87
403.635	120.49
403.844	24.23
404.053	85.67
404.262	143.02
404.471	173.74
404.68	128.68
404.888	83.63
405.097	20.14
405.306	102.06
405.515	81.58
405.724	126.63
405.933	173.74
406.142	159.4
406.35	106.15
406.559	57
406.768	192.17
406.977	165.54
407.185	153.26
407.394	116.39
407.603	118.44
407.812	140.97
408.02	237.22
408.229	183.98
408.438	220.84
408.646	196.26
408.855	274.09
409.064	216.74
409.272	165.54
409.481	194.22
409.69	183.98
409.898	220.84
410.107	229.03
410.315	214.7
410.524	169.64
410.733	241.32
410.941	272.04
411.15	241.32
411.358	265.89
411.567	276.13
411.775	235.18
411.984	269.99
412.192	290.47
412.401	339.62
412.609	362.15
412.818	374.44
413.026	388.77
413.234	333.48
413.443	454.31
413.651	405.16
413.86	409.25
414.068	507.55
414.276	351.91
414.485	513.7
414.693	431.78
414.901	620.19
415.11	595.62
415.318	513.7
415.526	595.62
415.734	591.52
415.943	585.38
416.151	577.19
416.359	642.72
416.567	636.58
416.776	708.26
416.984	669.34
417.192	706.21
417.4	712.35
417.608	722.59
417.817	728.74
418.025	880.29
418.233	779.93
418.441	855.71
418.649	933.53
418.857	900.76
419.065	931.48
419.273	816.8
419.481	1076.89
419.689	1054.36
419.897	1136.28
420.105	1101.47
420.313	1109.66
420.521	1218.2
420.729	1195.67
420.937	1199.77
421.145	1283.74
421.353	1287.83
421.561	1375.89
421.769	1443.48
421.977	1556.11
422.185	1494.68
422.393	1588.88
422.601	1722
422.809	1746.58
423.017	1635.99
423.224	1832.59
423.432	1871.5
423.64	1846.93
423.848	1975.95
424.056	2025.1
424.263	2086.54
424.471	2113.16
424.679	2115.21
424.887	2277
425.094	2399.88
425.302	2332.3
425.51	2471.56
425.718	2469.51
425.925	2512.52
426.133	2602.63
426.341	2573.96
426.548	2772.61
426.756	2838.14
426.964	2864.77
427.171	3223.16
427.379	3110.52
427.586	3204.73
427.794	3284.6
428.001	3581.56
428.209	3636.85
428.417	3591.8
428.624	3927.66
428.832	3747.44
429.039	3806.83
429.247	3948.14
429.454	4128.36
429.662	4558.44
429.869	4130.41
430.076	4472.42
430.284	4263.53
430.491	4609.64
430.699	4884.06
430.906	4828.77
431.114	4849.25
431.321	4902.5
431.528	5066.33
431.736	5523.03
431.943	5652.05
432.15	5461.59
432.358	5496.41
432.565	5875.28
432.772	5858.9
432.979	6067.79
433.187	6116.94
433.394	6205
433.601	6454.86
433.808	6766.15
434.016	6673.99
434.223	6893.12
434.43	7491.13
434.637	7177.79
434.844	7730.74
435.052	7859.76
435.259	7843.38
435.466	7720.5
435.673	7671.35
435.88	8240.68
436.087	8529.45
436.294	8785.44
436.501	8449.58
436.708	8724.01
436.915	8924.71
437.122	9092.64
437.329	9248.29
437.537	9481.75
437.743	9907.73
437.95	9713.17
438.157	10071.57
438.364	10468.87
438.571	10505.74
438.778	10429.96
438.985	11472.38
439.192	11214.34
439.399	11558.39
439.606	11038.21
439.813	11924.98
440.02	12385.77
440.227	12338.67
440.433	12340.72
440.64	12482.03
440.847	12682.73
441.054	12746.22
441.261	13694.43
441.467	13649.37
441.674	13891.03
441.881	14165.46
442.088	14263.76
442.294	13954.52
442.501	14527.95
442.708	14759.37
442.914	15343.04
443.121	15906.23
443.328	15785.4
443.534	16479.66
443.741	16008.63
443.948	16027.06
444.154	17018.28
444.361	16793
444.568	17081.77
444.774	16973.22
444.981	17249.7
445.187	17386.91
445.394	18451.86
445.6	18281.88
445.807	20055.42
446.013	19398.02
446.22	19328.39
446.426	20374.9
446.633	20522.35
446.839	20825.45
447.046	20094.33
447.252	21583.2
447.459	21319.01
447.665	21415.27
447.871	22265.17
448.078	22789.45
448.284	22099.29
448.491	22580.56
448.697	23518.53
448.903	23596.35
449.11	23874.88
449.316	23364.93
449.522	23799.1
449.728	24599.86
449.935	24694.07
450.141	24622.39
450.347	25496.87
450.553	24327.48
450.76	24749.36
450.966	25701.67
451.172	25285.93
451.378	25687.33
451.584	25382.18
451.791	25892.13
451.997	25619.75
452.203	26080.54
452.409	25924.9
452.615	26158.36
452.821	25099.56
453.027	24626.48
453.233	26084.64
453.44	25019.69
453.646	25494.82
453.852	25474.34
454.058	25824.54
454.264	24900.91
454.47	25492.77
454.676	24909.1
454.882	25699.62
455.088	23405.89
455.294	24036.67
455.5	24073.53
455.705	24517.94
455.911	23346.5
456.117	22859.09
456.323	22725.97
456.529	21402.98
456.735	22244.7
456.941	21575.01
457.147	21359.97
457.352	20893.04
457.558	20129.14
457.764	20723.05
457.97	20100.47
458.176	19774.84
458.381	19537.28
458.587	18658.7
458.793	18521.49
458.999	17634.72
459.204	19101.06
459.41	18480.53
459.616	17184.16
459.821	17329.57
460.027	17112.49
460.233	16588.21
460.438	15893.94
460.644	16422.32
460.85	15398.34
461.055	15168.96
461.261	15189.44
461.466	13829.59
461.672	13784.54
461.878	14591.44
462.083	13719
462.289	13454.81
462.494	13311.46
462.7	12525.04
462.905	12178.93
463.111	12717.54
463.316	12744.17
463.522	12555.76
463.727	12596.71
463.932	12535.28
464.138	12568.04
464.343	12289.52
464.549	12176.88
464.754	12426.73
464.959	12453.36
465.165	12283.38
465.37	11693.56
465.575	11443.71
465.781	11812.34
465.986	11957.75
466.191	11642.36
466.397	11419.13
466.602	10737.16
466.807	11286.01
467.012	11007.49
467.218	11189.76
467.423	10810.89
467.628	11099.65
467.833	11437.56
468.038	11120.13
468.244	10757.64
468.449	11085.31
468.654	10720.78
468.859	10530.31
469.064	10698.25
469.269	10085.9
469.474	10403.34
469.679	10567.18
469.885	10147.34
470.09	10173.97
470.295	10253.84
470.5	10018.32
470.705	10159.63
470.91	9696.79
471.115	9825.81
471.32	9874.96
471.525	9825.81
471.73	9674.26
471.935	9453.08
472.139	9264.67
472.344	9311.77
472.549	9299.48
472.754	9211.42
472.959	8994.34
473.164	8848.93
473.369	8619.56
473.574	9094.69
473.778	8873.51
473.983	8846.88
474.188	8967.71
474.393	8545.83
474.598	8412.71
474.802	8289.84
475.007	8392.23
475.212	8445.48
475.417	7951.92
475.621	7855.67
475.826	8031.79
476.031	7818.8
476.235	7687.73
476.44	7822.9
476.645	7626.29
476.849	7769.65
477.054	7646.77
477.259	7667.25
477.463	7632.44
477.668	7312.96
477.872	7366.2
478.077	7183.93
478.282	7022.14
478.486	7030.34
478.691	7067.2
478.895	6837.83
479.1	7046.72
479.304	6905.41
479.509	6696.52
479.713	6942.27
479.918	6776.39
480.122	6747.72
480.326	6753.86
480.531	6553.16
480.735	6624.84
480.94	6506.06
481.144	6917.7
481.348	6520.39
481.553	6782.53
481.757	6420.04
481.961	6624.84
482.166	6669.89
482.37	6426.18
482.574	6467.14
482.778	6596.17
482.983	6575.69
483.187	6567.49
483.391	6516.3
483.595	6514.25
483.8	6407.75
484.004	6374.99
484.208	6417.99
484.412	6331.98
484.616	6567.49
484.821	6372.94
485.025	6424.14
485.229	6534.73
485.433	6321.74
485.637	6555.21
485.841	6383.18
486.045	6563.4
486.249	6477.38
486.453	6440.52
486.657	6360.65
486.861	6372.94
487.065	6291.02
487.269	6438.47
487.473	6278.73
487.677	6389.32
487.881	6481.48
488.085	6348.36
488.289	6401.61
488.493	6377.03
488.697	6540.87
488.901	6493.77
489.105	6417.99
489.309	6598.21
489.512	6504.01
489.716	6465.1
489.92	6446.66
490.124	6555.21
490.328	6673.99
490.531	6399.56
490.735	6549.06
490.939	6692.42
491.143	6448.71
491.346	6805.06
491.55	6665.8
491.754	6678.08
491.958	6753.86
492.161	6723.14
492.365	6817.35
492.569	6671.94
492.772	6760
492.976	6876.74
493.18	7001.66
493.383	6899.27
493.587	7003.71
493.79	7102.01
493.994	6942.27
494.197	7077.44
494.401	7192.12
494.605	7106.11
494.808	7171.65
495.012	7222.84
495.215	7185.98
495.419	7392.83
495.622	7300.67
495.825	7523.9
496.029	7366.2
496.232	7597.62
496.436	7689.78
496.639	7718.45
496.843	7628.34
497.046	7812.66
497.249	8066.61
497.453	8042.03
497.656	7855.67
497.859	8160.81
498.063	8111.66
498.266	8406.57
498.469	8138.29
498.673	8371.75
498.876	8681
499.079	8482.35
499.282	8758.82
499.485	8756.77
499.689	8889.89
499.892	9055.78
500.095	8865.32
500.298	9170.46
500.501	9066.02
500.705	9504.28
500.908	9541.15
501.111	9514.52
501.314	9651.74
501.517	9717.27
501.72	10024.47
501.923	9877.01
502.126	10085.9
502.329	10120.72
502.532	10278.41
502.735	10296.85
502.938	10468.87
503.141	10681.86
503.344	10765.83
503.547	10862.08
503.75	10997.25
503.953	11109.89
504.156	11212.29
504.359	11226.62
504.562	11290.11
504.765	11783.67
504.968	11699.7
505.17	11906.55
505.373	11628.03
505.576	12385.77
505.779	12264.94
505.982	12195.31
506.185	12529.13
506.387	12553.71
506.59	12645.87
506.793	12785.13
506.996	12807.66
507.198	13186.53
507.401	13077.99
507.604	13417.95
507.807	13698.52
508.009	13682.14
508.212	13856.22
508.415	13850.07
508.617	14128.6
508.82	14192.08
509.022	14134.74
509.225	14278.1
509.428	14587.34
509.63	14788.04
509.833	14962.12
510.035	15359.42
510.238	15029.7
510.44	15400.38
510.643	15488.45
510.845	15672.76
511.048	15562.17
511.25	16006.58
511.453	15975.86
511.655	16651.69
511.858	16424.37
512.06	16383.41
512.262	16483.76
512.465	16666.03
512.667	16950.7
512.87	17155.49
513.072	16967.08
513.274	17733.02
513.477	17530.27
513.679	17802.65
513.881	17862.04
514.084	18214.29
514.286	18228.63
514.488	18113.94
514.69	18636.17
514.893	18720.14
515.095	18900.36
515.297	19207.56
515.499	19256.71
515.701	19428.74
515.904	19873.15
516.106	19959.16
516.308	19780.99
516.51	20282.74
516.712	20213.11
516.914	20569.46
517.116	20845.93
517.318	21067.11
517.52	20954.47
517.722	21083.5
517.925	21331.3
518.127	21628.26
518.329	22023.51
518.531	21806.43
518.733	21970.27
518.935	22586.71
519.136	22381.91
519.338	22480.21
519.54	22764.88
519.742	23131.47
519.944	22914.38
520.146	23567.68
520.348	23332.17
520.55	23651.65
520.752	23739.71
520.954	24331.58
521.155	24108.35
521.357	24649.01
521.559	24524.08
521.761	24882.48
521.963	25179.43
522.164	24728.88
522.366	25070.89
522.568	25672.99
522.77	25453.86
522.971	26000.67
523.173	25822.5
523.375	26254.62
523.576	26303.77
523.778	26414.36
523.98	26709.27
524.181	27071.76
524.383	26885.39
524.584	27104.53
524.786	27309.32
524.988	27069.71
525.189	27485.45
525.391	27360.52
525.592	27626.76
525.794	28042.49
525.995	27919.62
526.197	28062.97
526.398	28159.23
526.6	28015.87
526.801	28361.98
527.003	28421.37
527.204	28534.01
527.406	28638.45
527.607	28607.73
527.808	29168.88
528.01	28542.2
528.211	28800.24
528.412	29619.43
528.614	29342.95
528.815	29340.91
529.016	29545.7
529.218	29328.62
529.419	29482.22
529.62	29525.22
529.822	29893.86
530.023	29709.54
530.224	29842.66
530.425	29820.13
530.626	29603.05
530.828	29736.16
531.029	30205.15
531.23	29838.56
531.431	29742.31
531.632	30321.88
531.833	30112.99
532.035	30211.29
532.236	30110.94
532.437	30555.35
532.638	30291.16
532.839	30575.83
533.04	30520.54
533.241	30207.2
533.442	30885.08
533.643	30930.13
533.844	30532.82
534.045	30670.04
534.246	30301.4
534.447	30840.02
534.648	30502.11
534.849	30627.03
535.05	30659.8
535.251	30612.7
535.451	30960.85
535.652	30498.01
535.853	30590.17
536.054	30891.22
536.255	30655.7
536.456	30670.04
536.657	31225.04
536.857	30792.92
537.058	30917.84
537.259	31091.92
537.46	30741.72
537.66	30743.77
537.861	31036.63
538.062	30747.86
538.263	30680.28
538.463	30594.26
538.664	30780.63
538.865	30797.01
539.065	30792.92
539.266	30199.01
539.466	31091.92
539.667	30506.2
539.868	30797.01
540.068	30696.66
540.269	30432.47
540.469	31055.06
540.67	30672.09
540.87	30530.78
541.071	30559.45
541.271	31044.82
541.472	30768.34
541.672	30620.89
541.873	30393.56
542.073	30446.81
542.274	31118.54
542.474	30657.75
542.675	30493.91
542.875	30590.17
543.075	30788.82
543.276	30549.21
543.476	30696.66
543.676	30557.4
543.877	30989.52
544.077	30622.94
544.277	30495.96
544.478	30538.97
544.678	30727.38
544.878	30469.34
545.078	30545.11
545.279	30319.84
545.479	30282.97
545.679	30584.02
545.879	30502.11
546.079	30762.2
546.28	30661.85
546.48	30373.08
546.68	30590.17
546.88	30799.06
547.08	30528.73
547.28	30274.78
547.48	30291.16
547.68	30414.04
547.88	30471.39
548.081	30129.37
548.281	30502.11
548.481	30282.97
548.681	30770.39
548.881	30471.39
549.081	30209.25
549.28	30104.8
549.48	30498.01
549.68	30688.47
549.88	30586.07
550.08	30061.79
550.28	30487.77
550.48	30205.15
550.68	30235.87
550.88	30086.37
551.08	30549.21
551.279	30270.68
551.479	30117.09
551.679	30285.02
551.879	30090.46
552.079	30797.01
552.278	30092.51
552.478	30143.71
552.678	30051.55
552.878	30158.05
553.077	30016.74
553.277	30153.95
553.477	30596.31
553.676	30026.98
553.876	30162.14
554.076	29971.68
554.275	30043.36
554.475	29707.49
554.674	29928.67
554.874	30119.14
555.074	29992.16
555.273	29926.63
555.473	29983.97
555.672	29723.88
555.872	29820.13
556.071	30051.55
556.271	29783.27
556.47	29852.9
556.67	29191.41
556.869	29291.76
557.068	29750.5
557.268	29418.73
557.467	29611.24
557.667	29140.21
557.866	30047.46
558.065	28976.37
558.265	29392.11
558.464	29168.88
558.663	29431.02
558.863	29123.82
559.062	29371.63
559.261	29250.8
559.461	28998.9
559.66	28605.69
559.859	28843.25
560.058	28837.11
560.258	28658.93
560.457	28474.62
560.656	29256.94
560.855	28585.21
561.054	28773.62
561.253	28556.53
561.453	28495.1
561.652	28734.71
561.851	28798.2
562.05	28419.32
562.249	28282.11
562.448	28552.44
562.647	28638.45
562.846	28136.7
563.045	28437.75
563.244	28003.58
563.443	28159.23
563.642	27581.7
563.841	28273.92
564.04	27913.47
564.239	28214.52
564.438	27516.17
564.637	27704.58
564.836	27798.79
565.035	27421.96
565.234	27749.64
565.432	27634.95
565.631	27581.7
565.83	27520.26
566.029	27426.06
566.228	27196.68
566.427	27481.35
566.625	26987.79
566.824	26578.2
567.023	27294.99
567.222	26443.03
567.42	26985.74
567.619	26795.28
567.818	26848.53
568.016	26660.12
568.215	26645.78
568.414	26670.36
568.612	26680.6
568.811	26541.33
569.01	26445.08
569.208	26191.13
569.407	26563.86
569.605	26207.51
569.804	25888.03
570.002	25804.06
570.201	25847.07
570.4	25650.47
570.598	25847.07
570.797	25488.68
570.995	25996.57
571.193	25402.66
571.392	25605.41
571.59	25392.42
571.789	25437.48
571.987	25466.15
572.186	25439.53
572.384	25015.6
572.582	25343.27
572.781	25029.93
572.979	24837.42
573.177	24859.95
573.376	24950.06
573.574	24802.61
573.772	24835.38
573.971	24659.25
574.169	24849.71
574.367	24530.23
574.565	24622.39
574.763	24241.46
574.962	24237.37
575.16	24075.58
575.358	24589.62
575.556	23926.08
575.754	24255.8
575.952	23952.7
576.151	23848.25
576.349	24079.68
576.547	23731.52
576.745	23698.75
576.943	24040.76
577.141	23778.62
577.339	23684.42
577.537	23600.45
577.735	23438.66
577.933	23141.71
578.131	23375.17
578.329	23207.24
578.527	23182.66
578.725	23156.04
578.923	23139.66
579.121	23057.74
579.319	22861.13
579.516	22977.87
579.714	22711.63
579.912	22754.64
580.11	22693.2
580.308	22484.31
580.506	22592.85
580.704	22316.37
580.901	22461.78
581.099	22715.73
581.297	22033.75
581.495	22334.81
581.692	22336.85
581.89	22259.03
582.088	22310.23
582.285	22398.29
582.483	22480.21
582.681	22035.8
582.878	21788
583.076	21464.42
583.274	22078.81
583.471	21480.8
583.669	21400.93
583.866	21448.04
584.064	21714.27
584.262	21103.98
584.459	21605.73
584.657	21239.14
584.854	21370.21
585.052	20788.59
585.249	21198.18
585.447	21265.77
585.644	21022.06
585.841	20725.1
586.039	21040.49
586.236	20903.28
586.434	20772.21
586.631	20952.43
586.828	20471.15
587.026	20606.32
587.223	20661.62
587.42	20211.06
587.618	20501.87
587.815	20188.53
588.012	20292.98
588.21	19989.88
588.407	20280.69
588.604	20252.02
588.801	20090.23
588.999	20008.31
589.196	20135.29
589.393	20299.12
589.59	19901.82
589.787	19910.01
589.984	19682.69
590.182	19565.95
590.379	19680.64
590.576	19322.24
590.773	19572.1
590.97	19273.09
591.167	19645.82
591.364	19004.81
591.561	19336.58
591.758	19178.89
591.955	19049.86
592.152	19269
592.349	19045.77
592.546	19027.34
592.743	19170.69
592.94	18775.44
593.137	18947.47
593.334	18791.82
593.531	18406.8
593.727	18806.16
593.924	18593.17
594.121	18566.54
594.318	18580.88
594.515	18259.35
594.712	18359.7
594.908	18054.55
595.105	18568.59
595.302	18005.4
595.499	18285.97
595.696	18105.75
595.892	17931.67
596.089	18210.2
596.286	17831.32
596.482	17833.37
596.679	18138.52
596.876	17761.69
597.072	17587.61
597.269	17542.56
597.466	17649.05
597.662	17448.35
597.859	17604
598.055	17341.86
598.252	17466.78
598.448	17167.78
598.645	17405.35
598.841	16991.66
599.038	17388.96
599.234	17331.62
599.431	17005.99
599.627	16772.52
599.824	17237.41
600.02	16778.67
600.217	16913.83
600.413	16790.95
600.609	16776.62
600.806	16682.41
601.002	16762.28
601.198	16539.05
601.395	16571.82
601.591	16573.87
601.787	16256.43
601.984	16403.89
602.18	16418.22
602.376	16264.63
602.572	16147.89
602.769	15951.29
602.965	16174.52
603.161	15963.58
603.357	16180.66
603.553	15957.43
603.75	16027.06
603.946	15769.02
604.142	15982.01
604.338	15717.82
604.534	15799.74
604.73	15799.74
604.926	15435.2
605.122	15580.6
605.318	15693.24
605.514	15322.56
605.71	15424.96
605.906	15615.42
606.102	15226.31
606.298	15488.45
606.494	15273.41
606.69	15275.46
606.886	15365.57
607.082	15152.58
607.278	15199.68
607.474	14933.45
607.67	15234.5
607.866	14853.58
608.062	15021.51
608.257	14835.14
608.453	14972.36
608.649	14988.74
608.845	14769.61
609.041	14994.89
609.236	14636.49
609.432	14632.4
609.628	14491.09
609.824	14609.87
610.019	14626.25
610.215	14630.35
610.411	14398.93
610.606	14392.78
610.802	14609.87
610.998	14382.54
611.193	14605.77
611.389	14534.09
611.584	14382.54
611.78	14206.42
611.976	14218.71
612.171	14480.85
612.367	14376.4
612.562	14351.82
612.758	13946.33
612.953	14122.45
613.149	13993.43
613.344	13852.12
613.539	14355.92
613.735	14003.67
613.93	14120.4
614.126	13987.29
614.321	14003.67
614.517	13942.23
614.712	13870.55
614.907	13768.15
615.103	13741.53
615.298	13764.06
615.493	13802.97
615.688	13481.44
615.884	13698.52
616.079	13723.1
616.274	13567.45
616.47	13630.94
616.665	13702.62
616.86	13583.84
617.055	13471.2
617.25	13403.61
617.445	13555.16
617.641	13315.55
617.836	13489.63
618.031	13139.43
618.226	13305.31
618.421	13358.56
618.616	13256.16
618.811	13063.65
619.006	13399.52
619.201	12844.52
619.396	13055.46
619.591	12701.16
619.786	12953.06
619.981	12596.71
620.176	12809.7
620.371	12604.91
620.566	12834.28
620.761	12547.56
620.956	12547.56
621.151	12623.34
621.346	12340.72
621.541	12307.95
621.735	12555.76
621.93	12123.63
622.125	12260.85
622.32	12082.67
622.515	12226.03
622.709	12101.11
622.904	11945.46
623.099	11949.56
623.294	11875.83
623.488	11898.36
623.683	11664.89
623.878	11652.6
624.072	11755
624.267	11636.22
624.462	11599.35
624.656	11243.01
624.851	11511.29
625.046	11314.69
625.24	11341.31
625.435	11099.65
625.629	11202.05
625.824	11070.98
626.018	11103.75
626.213	10905.09
626.407	10829.32
626.602	10837.51
626.796	10817.03
626.991	10771.97
627.185	10548.75
627.38	10726.92
627.574	10563.08
627.768	10454.54
627.963	10329.61
628.157	10284.56
628.352	10419.72
628.546	10124.82
628.74	10182.16
628.935	10194.45
629.129	10241.55
629.323	9960.98
629.517	10139.15
629.712	9930.26
629.906	10036.75
630.1	9782.81
630.294	9889.3
630.489	9885.2
630.683	9621.02
630.877	9668.12
631.071	9545.24
631.265	9797.14
631.459	9479.71
631.653	9457.18
631.848	9475.61
632.042	9238.05
632.236	9410.08
632.43	9285.15
632.624	9412.12
632.818	9043.49
633.012	9244.19
633.206	9018.91
633.4	9172.51
633.594	8941.09
633.788	8695.33
633.982	9025.06
634.176	8982.05
634.369	8932.9
634.563	8977.95
634.757	8732.2
634.951	8644.13
635.145	8586.79
635.339	8341.04
635.533	8476.2
635.726	8574.5
635.92	8500.78
636.114	8367.66
636.308	8349.23
636.501	8367.66
636.695	8318.51
636.889	8107.57
637.083	8398.38
637.276	8109.61
637.47	8017.46
637.664	8025.65
637.857	8085.04
638.051	8113.71
638.244	7939.63
638.438	7853.62
638.632	7949.87
638.825	7802.42
639.019	7755.32
639.212	7824.95
639.406	7704.12
639.599	7794.23
639.793	7716.4
639.986	7513.66
640.18	7462.46
640.373	7405.11
640.567	7577.14
640.76	7450.17
640.954	7308.86
641.147	7259.71
641.34	7290.43
641.534	7185.98
641.727	7341.63
641.92	7104.06
642.114	7216.7
642.307	7050.82
642.5	7069.25
642.694	6913.6
642.887	6897.22
643.08	6866.5
643.273	6835.78
643.467	6782.53
643.66	6811.2
643.853	6676.04
644.046	6659.65
644.239	6624.84
644.432	6651.46
644.626	6538.82
644.819	6676.04
645.012	6596.17
645.205	6645.32
645.398	6508.1
645.591	6481.48
645.784	6479.43
645.977	6362.7
646.17	6444.62
646.363	6364.75
646.556	6243.92
646.749	6385.23
646.942	6137.42
647.135	6166.09
647.328	6155.85
647.521	6032.97
647.714	6016.59
647.907	6098.51
648.099	6080.08
648.292	6030.93
648.485	6123.09
648.678	5832.27
648.871	5957.2
649.064	5862.99
649.256	5877.33
649.449	5944.91
649.642	5770.83
649.835	5764.69
650.027	5774.93
650.22	5572.18
650.413	5602.9
650.605	5525.08
650.798	5512.79
650.991	5500.5
651.183	5498.45
651.376	5475.93
651.568	5387.86
651.761	5467.74
651.954	5551.7
652.146	5447.26
652.339	5443.16
652.531	5326.43
652.724	5353.05
652.916	5107.29
653.109	5248.6
653.301	5181.02
653.494	5312.09
653.686	5164.64
653.879	5238.36
654.071	5142.11
654.263	5140.06
654.456	5144.16
654.648	4992.61
654.84	5074.53
655.033	4957.79
655.225	5039.71
655.417	4939.36
655.61	4922.98
655.802	4941.41
655.994	4843.1
656.186	4791.91
656.379	4824.67
656.571	4773.47
656.763	4714.08
656.955	4765.28
657.148	4679.27
657.34	4679.27
657.532	4845.15
657.724	4623.97
657.916	4595.3
658.108	4609.64
658.3	4580.96
658.492	4695.65
658.684	4476.52
658.876	4521.57
659.068	4494.95
659.26	4392.55
659.452	4400.74
659.644	4464.23
659.836	4284.01
660.028	4224.62
660.22	4427.37
660.412	4372.07
660.604	4361.83
660.796	4253.29
660.988	4200.04
661.18	4208.23
661.372	4228.71
661.563	4224.62
661.755	4111.98
661.947	4073.07
662.139	4202.09
662.331	4116.08
662.522	4025.97
662.714	3993.2
662.906	4021.87
663.097	4066.92
663.289	3980.91
663.481	3993.2
663.673	3939.95
663.864	3868.27
664.056	3790.45
664.247	3872.37
664.439	3769.97
664.631	3876.46
664.822	3829.36
665.014	3630.71
665.205	3702.39
665.397	3810.93
665.588	3739.25
665.78	3763.83
665.971	3546.74
666.163	3647.09
666.354	3640.95
666.546	3626.61
666.737	3640.95
666.929	3653.23
667.12	3667.57
667.311	3493.49
667.503	3522.16
667.694	3614.32
667.885	3583.6
668.077	3387
668.268	3419.77
668.459	3483.25
668.651	3393.14
668.842	3456.63
669.033	3368.57
669.224	3481.21
669.416	3462.77
669.607	3481.21
669.798	3473.01
669.989	3407.48
670.18	3358.33
670.371	3346.04
670.563	3370.62
670.754	3296.89
670.945	3192.44
671.136	3296.89
671.327	3272.31
671.518	3251.83
671.709	3350.14
671.9	3235.45
672.091	3153.53
672.282	3204.73
672.473	3069.56
672.664	3079.8
672.855	3081.85
673.046	3149.43
673.237	3116.67
673.428	3221.11
673.619	3104.38
673.809	3028.6
674	3022.46
674.191	3073.66
674.382	3188.35
674.573	3085.95
674.764	3069.56
674.954	3085.95
675.145	2887.29
675.336	3012.22
675.527	2997.88
675.717	3092.09
675.908	2942.59
676.099	3028.6
676.289	2930.3
676.48	2924.16
676.671	2832
676.861	2993.79
677.052	2885.25
677.243	2754.18
677.433	2883.2
677.624	2883.2
677.814	2954.88
678.005	2815.62
678.195	2981.5
678.386	2866.81
678.576	2778.75
678.767	2760.32
678.957	2776.7
679.148	2807.42
679.338	2856.58
679.529	2709.12
679.719	2725.51
679.909	2795.14
680.1	2750.08
680.29	2827.9
680.481	2619.01
680.671	2838.14
680.861	2715.27
681.052	2690.69
681.242	2768.51
681.432	2717.31
681.622	2664.07
681.813	2735.74
682.003	2743.94
682.193	2715.27
682.383	2557.57
682.573	2619.01
682.764	2666.11
682.954	2682.5
683.144	2750.08
683.334	2721.41
683.524	2682.5
683.714	2606.72
683.904	2766.46
684.094	2614.91
684.284	2664.07
684.474	2768.51
684.664	2535.04
684.854	2608.77
685.044	2612.87
685.234	2600.58
685.424	2625.15
685.614	2516.61
685.804	2518.66
685.994	2573.96
686.184	2530.95
686.374	2494.08
686.564	2483.84
686.753	2506.37
686.943	2373.25
687.133	2479.75
687.323	2381.45
687.513	2479.75
687.702	2444.93
687.892	2272.9
688.082	2489.99
688.272	2498.18
688.461	2279.05
688.651	2406.02
688.841	2389.64
689.03	2383.49
689.22	2397.83
689.41	2414.21
689.599	2352.77
689.789	2412.17
689.979	2197.13
690.168	2328.2
690.358	2307.72
690.547	2264.71
690.737	2307.72
690.926	2367.11
691.116	2365.06
691.305	2254.47
691.495	2295.43
691.684	2309.77
691.874	2242.18
692.063	2205.32
692.252	2330.25
692.442	2223.75
692.631	2203.27
692.82	2215.56
693.01	2166.41
693.199	2197.13
693.388	2156.17
693.578	2162.31
693.767	2201.23
693.956	2064.01
694.146	2147.98
694.335	2209.42
694.524	2199.18
694.713	2041.48
694.902	2115.21
695.092	2205.32
695.281	2041.48
695.47	2195.08
695.659	2041.48
695.848	2006.67
696.037	2090.63
696.226	2145.93
696.415	1930.89
696.604	2150.03
696.793	2064.01
696.982	2055.82
697.171	1982.09
697.36	2018.96
697.549	1969.8
697.738	2109.07
697.927	2045.58
698.116	2100.87
698.305	1961.61
698.494	2088.59
698.683	2055.82
698.872	2025.1
699.061	2014.86
699.25	1982.09
699.438	2018.96
699.627	2068.11
699.816	1967.76
700.005	1896.08
700.193	2059.92
700.382	2029.2
700.571	1820.3
700.76	2035.34
700.948	1961.61
701.137	2008.72
701.326	2021
701.514	2100.87
701.703	1971.85
701.892	2061.96
702.08	2061.96
702.269	1955.47
702.457	1943.18
702.646	1971.85
702.834	1992.33
703.023	1984.14
703.212	2035.34
703.4	2023.05
703.589	1918.61
703.777	1973.9
703.965	1975.95
704.154	2010.76
704.342	1986.19
704.531	1984.14
704.719	2018.96
704.907	2041.48
705.096	1887.89
705.284	2041.48
705.472	1992.33
705.661	1926.8
705.849	2119.31
706.037	1918.61
706.226	1853.07
706.414	2076.3
706.602	2080.39
706.79	2039.44
706.979	2014.86
707.167	2021
707.355	2029.2
707.543	1914.51
707.731	1842.83
707.919	2107.02
708.107	1883.79
708.296	1973.9
708.484	1963.66
708.672	1959.56
708.86	1853.07
709.048	1951.37
709.236	1941.13
709.424	1953.42
709.612	1916.56
709.8	1900.17
709.988	1865.36
710.176	1965.71
710.364	2086.54
710.551	1988.24
710.739	1930.89
710.927	1971.85
711.115	2051.72
711.303	1836.69
711.491	1904.27
711.679	1853.07
711.866	1885.84
712.054	1916.56
712.242	1912.46
712.43	1988.24
712.617	1887.89
712.805	1965.71
712.993	1986.19
713.181	1900.17
713.368	1844.88
713.556	2016.91
713.744	1902.22
713.931	1959.56
714.119	1877.65
714.306	2027.15
714.494	1803.92
714.682	1984.14
714.869	1869.45
715.057	1904.27
715.244	1906.32
715.432	1990.28
715.619	1955.47
715.807	1908.37
715.994	1818.25
716.182	1896.08
716.369	1930.89
716.556	1943.18
716.744	1871.5
716.931	1971.85
717.119	1941.13
717.306	1863.31
717.493	1861.26
717.681	1973.9
717.868	2064.01
718.055	1928.85
718.242	1769.1
718.43	1859.21
718.617	1912.46
718.804	1965.71
718.991	1808.02
719.179	1949.32
719.366	1846.93
719.553	1918.61
719.74	1939.09
719.927	1877.65
720.114	1924.75
720.301	1961.61
720.488	1875.6
720.676	1916.56
720.863	1920.65
721.05	1867.41
721.237	1953.42
721.424	1891.98
721.611	1881.74
721.798	1918.61
721.985	1918.61
722.172	1908.37
722.358	1867.41
722.545	1922.7
722.732	1824.4
722.919	1912.46
723.106	1863.31
723.293	1848.97
723.48	1883.79
723.667	1881.74
723.853	1951.37
724.04	1937.04
724.227	1842.83
724.414	1904.27
724.6	1889.93
724.787	1824.4
724.974	1863.31
725.161	2012.81
725.347	1756.82
725.534	1830.54
725.72	1910.41
725.907	1973.9
726.094	1896.08
726.28	1891.98
726.467	1953.42
726.653	1859.21
726.84	1855.12
727.027	1937.04
727.213	1867.41
727.4	1799.82
727.586	1959.56
727.773	1934.99
727.959	1912.46
728.145	1826.45
728.332	1949.32
728.518	1973.9
728.705	1877.65
728.891	1904.27
729.077	1959.56
729.264	1996.43
729.45	1853.07
729.636	1830.54
729.823	1906.32
730.009	1894.03
730.195	1783.44
730.382	2018.96
730.568	1842.83
730.754	1912.46
730.94	1840.78
731.126	1853.07
731.313	1861.26
731.499	1859.21
731.685	1851.02
731.871	1830.54
732.057	1846.93
732.243	1906.32
732.429	1867.41
732.615	1828.49
732.801	1877.65
732.987	1896.08
733.173	1851.02
733.359	1928.85
733.545	1861.26
733.731	1814.16
733.917	1908.37
734.103	1906.32
734.289	1898.13
734.475	1855.12
734.661	1916.56
734.847	1816.21
735.033	1851.02
735.219	1859.21
735.404	1842.83
735.59	1777.3
735.776	1896.08
735.962	1869.45
736.148	1914.51
736.333	1879.69
736.519	1865.36
736.705	1898.13
736.89	1826.45
737.076	1891.98
737.262	1824.4
737.447	1889.93
737.633	1941.13
737.819	1879.69
738.004	1769.1
738.19	1787.54
738.375	1709.71
738.561	1787.54
738.747	1693.33
738.932	1742.48
739.118	1771.15
739.303	1808.02
739.489	1822.35
739.674	1722
739.859	1797.78
740.045	1789.58
740.23	1724.05
740.416	1765.01
740.601	1758.86
740.786	1808.02
740.972	1799.82
741.157	1744.53
741.342	1697.42
741.528	1719.95
741.713	1830.54
741.898	1760.91
742.084	1748.62
742.269	1793.68
742.454	1719.95
742.639	1650.32
742.824	1566.35
743.01	1762.96
743.195	1707.66
743.38	1707.66
743.565	1722
743.75	1701.52
743.935	1650.32
744.12	1590.93
744.305	1689.23
744.49	1617.55
744.675	1642.13
744.86	1568.4
745.045	1603.22
745.23	1635.99
745.415	1582.74
745.6	1678.99
745.785	1578.64
745.97	1627.79
746.155	1633.94
746.34	1576.59
746.525	1638.03
746.71	1674.9
746.895	1482.39
747.079	1607.31
747.264	1486.48
747.449	1564.31
747.634	1513.11
747.819	1511.06
748.003	1556.11
748.188	1441.43
748.373	1556.11
748.557	1451.67
748.742	1425.04
748.927	1463.96
749.111	1431.19
749.296	1353.37
749.481	1367.7
749.665	1420.95
749.85	1369.75
750.034	1494.68
750.219	1498.77
750.404	1468.05
750.588	1343.13
750.773	1328.79
750.957	1359.51
751.141	1324.69
751.326	1326.74
751.51	1355.41
751.695	1349.27
751.879	1341.08
752.064	1402.52
752.248	1281.69
752.432	1291.93
752.617	1314.45
752.801	1263.26
752.985	1302.17
753.17	1289.88
753.354	1306.26
753.538	1259.16
753.722	1285.78
753.907	1232.54
754.091	1253.02
754.275	1253.02
754.459	1189.53
754.643	1199.77
754.828	1310.36
755.012	1134.23
755.196	1158.81
755.38	1181.34
755.564	1130.14
755.748	1113.75
755.932	1224.34
756.116	1187.48
756.3	1207.96
756.484	1085.08
756.668	1181.34
756.852	1074.84
757.036	1044.12
757.22	1087.13
757.404	1097.37
757.588	1064.6
757.772	1040.03
757.956	1126.04
758.14	1011.36
758.323	1101.47
758.507	1076.89
758.691	1099.42
758.875	1023.64
759.059	1048.22
759.242	1050.27
759.426	1070.75
759.61	1078.94
759.794	974.49
759.977	1027.74
760.161	1060.51
760.345	1040.03
760.528	949.92
760.712	919.2
760.895	972.44
761.079	911
761.263	943.77
761.446	968.35
761.63	929.44
761.813	1001.12
761.997	900.76
762.18	1031.83
762.364	949.92
762.547	962.2
762.731	824.99
762.914	943.77
763.098	900.76
763.281	917.15
763.464	923.29
763.648	935.58
763.831	962.2
764.015	851.61
764.198	859.81
764.381	810.65
764.564	917.15
764.748	906.91
764.931	880.29
765.114	802.46
765.297	902.81
765.481	761.5
765.664	884.38
765.847	892.57
766.03	808.61
766.213	870.05
766.397	835.23
766.58	851.61
766.763	894.62
766.946	812.7
767.129	812.7
767.312	769.69
767.495	835.23
767.678	771.74
767.861	775.84
768.044	878.24
768.227	745.12
768.41	736.93
768.593	814.75
768.776	765.6
768.959	843.42
769.142	781.98
769.324	775.84
769.507	802.46
769.69	859.81
769.873	706.21
770.056	796.32
770.239	661.15
770.421	806.56
770.604	722.59
770.787	816.8
770.97	779.93
771.152	779.93
771.335	802.46
771.518	728.74
771.7	913.05
771.883	849.57
772.066	726.69
772.248	652.96
772.431	657.06
772.613	700.06
772.796	679.58
772.978	745.12
773.161	704.16
773.343	632.48
773.526	734.88
773.708	718.5
773.891	712.35
774.073	677.54
774.256	550.56
774.438	706.21
774.621	685.73
774.803	681.63
774.985	665.25
775.168	644.77
775.35	698.02
775.532	638.62
775.715	581.28
775.897	693.92
776.079	575.14
776.261	577.19
776.444	571.04
776.626	552.61
776.808	622.24
776.99	677.54
777.173	616.1
777.355	616.1
777.537	677.54
777.719	538.27
777.901	573.09
778.083	558.75
778.265	515.75
778.447	566.95
778.629	536.23
778.811	593.57
778.993	575.14
779.175	601.76
779.357	560.8
779.539	573.09
779.721	568.99
779.903	589.47
780.085	505.51
780.267	538.27
780.449	515.75
780.631	515.75
780.812	450.21
780.994	585.38
781.176	460.45
781.358	454.31
781.54	485.03
781.721	482.98
781.903	495.27
782.085	448.16
782.267	482.98
782.448	536.23
782.63	470.69
782.812	439.97
782.993	474.79
783.175	462.5
783.357	429.73
783.538	487.08
783.72	405.16
783.901	552.61
784.083	423.59
784.264	405.16
784.446	384.68
784.627	448.16
784.809	409.25
784.99	413.35
785.172	460.45
785.353	427.68
785.535	327.33
785.716	415.4
785.897	331.43
786.079	399.01
786.26	323.24
786.441	439.97
786.623	390.82
786.804	358.05
786.985	433.83
787.167	356.01
787.348	452.26
787.529	315.05
787.71	456.36
787.891	362.15
788.073	349.86
788.254	364.2
788.435	325.29
788.616	306.85
788.797	411.3
788.978	327.33
789.159	335.53
789.34	405.16
789.522	321.19
789.703	358.05
789.884	274.09
790.065	362.15
790.246	429.73
790.427	319.14
790.607	384.68
790.788	347.81
790.969	274.09
791.15	288.42
791.331	278.18
791.512	325.29
791.693	308.9
791.874	302.76
792.054	341.67
792.235	274.09
792.416	288.42
792.597	272.04
792.778	329.38
792.958	306.85
793.139	290.47
793.32	315.05
793.5	310.95
793.681	296.61
793.862	310.95
794.042	245.41
794.223	294.57
794.404	226.98
794.584	249.51
794.765	300.71
794.945	308.9
795.126	239.27
795.306	259.75
795.487	192.17
795.667	224.94
795.848	353.96
796.028	231.08
796.209	298.66
796.389	237.22
796.57	233.13
796.75	233.13
796.93	204.46
797.111	345.77
797.291	245.41
797.471	245.41
797.652	294.57
797.832	265.89
798.012	306.85
798.192	212.65
798.373	257.7
798.553	298.66
798.733	192.17
798.913	276.13
799.093	212.65
799.274	251.56
799.454	280.23
799.634	245.41
799.814	286.37
799.994	183.98
800.174	218.79
800.354	272.04
800.534	224.94
800.714	204.46
800.894	188.07
801.074	159.4
801.254	206.5
801.434	200.36
801.614	196.26
801.794	229.03
801.974	536.23
802.154	247.46
802.334	143.02
802.514	140.97
802.693	167.59
802.873	237.22
803.053	157.35
803.233	202.41
803.413	249.51
803.592	214.7
803.772	110.25
803.952	198.31
804.131	108.2
804.311	231.08
804.491	147.11
804.67	173.74
804.85	159.4
805.03	190.12
805.209	192.17
805.389	173.74
805.568	159.4
805.748	231.08
805.928	198.31
806.107	208.55
806.287	224.94
806.466	167.59
806.646	179.88
806.825	136.87
807.004	171.69
807.184	108.2
807.363	220.84
807.543	165.54
807.722	91.82
807.901	192.17
808.081	188.07
808.26	138.92
808.439	183.98
808.619	173.74
808.798	93.87
808.977	153.26
809.156	231.08
809.336	52.91
809.515	216.74
809.694	104.11
809.873	206.5
810.052	165.54
810.231	249.51
810.411	163.5
810.59	261.8
810.769	120.49
810.948	169.64
811.127	167.59
811.306	196.26
811.485	206.5
811.664	155.3
811.843	112.3
812.022	145.06
812.201	110.25
812.38	134.82
812.559	153.26
812.737	143.02
812.916	147.11
813.095	81.58
813.274	122.54
813.453	194.22
813.632	132.78
813.811	136.87
813.989	52.91
814.168	132.78
814.347	155.3
814.526	112.3
814.704	159.4
814.883	136.87
815.062	151.21
815.24	163.5
815.419	75.43
815.598	140.97
815.776	136.87
815.955	167.59
816.133	126.63
816.312	140.97
816.49	3.75
816.669	143.02
816.847	128.68
817.026	165.54
817.204	138.92
817.383	143.02
817.561	7.85
817.74	13.99
817.918	132.78
818.097	44.71
818.275	112.3
818.453	145.06
818.632	110.25
818.81	143.02
818.988	85.67
819.167	100.01
819.345	9.9
819.523	153.26
819.701	73.39
819.879	95.91
820.058	130.73
820.236	153.26
820.414	69.29
820.592	59.05
820.77	120.49
820.948	130.73
821.127	118.44
821.305	108.2
821.483	118.44
821.661	73.39
821.839	81.58
822.017	138.92
822.195	87.72
822.373	7.85
822.551	110.25
822.729	112.3
822.907	85.67
823.085	165.54
823.262	110.25
823.44	110.25
823.618	87.72
823.796	151.21
823.974	30.38
824.152	120.49
824.329	120.49
824.507	75.43
824.685	104.11
824.863	28.33
825.04	91.82
825.218	126.63
825.396	75.43
825.574	85.67
825.751	118.44
825.929	159.4
826.107	18.09
826.284	36.52
826.462	122.54
826.639	32.43
826.817	32.43
826.994	124.58
827.172	85.67
827.349	147.11
827.527	61.1
827.704	136.87
827.882	71.34
828.059	71.34
828.237	71.34
828.414	87.72
828.591	65.19
828.769	81.58
828.946	30.38
829.124	100.01
829.301	93.87
829.478	81.58
829.655	126.63
829.833	69.29
830.01	-6.49
830.187	122.54
830.364	108.2
830.542	61.1
830.719	136.87
830.896	124.58
831.073	40.62
831.25	28.33
831.427	32.43
831.604	81.58
831.782	28.33
831.959	95.91
832.136	151.21
832.313	52.91
832.49	85.67
832.667	30.38
832.844	114.34
833.021	77.48
833.198	24.23
833.374	54.95
833.551	83.63
833.728	65.19
833.905	89.77
834.082	20.14
834.259	28.33
834.436	63.15
834.612	110.25
834.789	87.72
834.966	52.91
835.143	9.9
835.319	-0.34
835.496	81.58
835.673	83.63
835.85	110.25
836.026	-20.82
836.203	30.38
836.38	40.62
836.556	-0.34
836.733	75.43
836.909	20.14
837.086	65.19
837.262	30.38
837.439	36.52
837.616	40.62
837.792	93.87
837.968	16.04
838.145	149.16
838.321	44.71
838.498	20.14
838.674	140.97
838.851	59.05
839.027	104.11
839.203	50.86
839.38	28.33
839.556	28.33
839.732	100.01
839.909	36.52
840.085	-10.58
840.261	97.96
840.437	50.86
840.614	83.63
840.79	83.63
840.966	104.11
841.142	28.33
841.318	132.78
841.494	26.28
841.671	57
841.847	42.67
842.023	71.34
842.199	79.53
842.375	30.38
842.551	44.71
842.727	48.81
842.903	26.28
843.079	18.09
843.255	77.48
843.431	57
843.607	110.25
843.783	67.24
843.959	28.33
844.134	57
844.31	110.25
844.486	22.19
844.662	-16.73
844.838	44.71
845.013	-8.53
845.189	13.99
845.365	57
845.541	61.1
845.716	44.71
845.892	77.48
846.068	9.9
846.244	11.95
846.419	81.58
846.595	-8.53
846.77	11.95
846.946	69.29
847.122	-65.88
847.297	57
847.473	48.81
847.648	69.29
847.824	59.05
847.999	42.67
848.175	108.2
848.35	28.33
848.526	16.04
848.701	69.29
848.876	77.48
849.052	104.11
849.227	9.9
849.403	11.95
849.578	108.2
849.753	-49.49
849.929	57
850.104	13.99
850.279	81.58
850.454	-6.49
850.63	46.76
850.805	36.52
850.98	40.62
851.155	46.76
851.33	36.52
851.505	52.91
851.681	118.44
851.856	22.19
852.031	13.99
852.206	30.38
852.381	46.76
852.556	42.67
852.731	5.8
852.906	-26.96
853.081	-4.44
853.256	102.06
853.431	-18.77
853.606	79.53
853.781	22.19
853.956	13.99
854.131	-14.68
854.305	-10.58
854.48	16.04
854.655	-22.87
854.83	1.71
855.005	-6.49
855.18	54.95
855.354	-4.44
855.529	34.47
855.704	5.8
855.879	22.19
856.053	85.67
856.228	36.52
856.403	11.95
856.577	71.34
856.752	-39.25
856.926	26.28
857.101	52.91
857.276	36.52
857.45	-29.01
857.625	11.95
857.799	46.76
857.974	89.77
858.148	77.48
858.323	7.85
858.497	18.09
858.672	-0.34
858.846	28.33
859.02	30.38
859.195	-14.68
859.369	3.75
859.543	38.57
859.718	30.38
859.892	106.15
860.066	-10.58
860.241	13.99
860.415	-41.3
860.589	69.29
860.763	-39.25
860.938	30.38
861.112	18.09
861.286	65.19
861.46	-41.3
861.634	89.77
861.808	48.81
861.982	-0.34
862.157	22.19
862.331	20.14
862.505	-65.88
862.679	-24.92
862.853	26.28
863.027	-45.4
863.201	54.95
863.375	30.38
863.549	16.04
863.722	-47.44
863.896	65.19
864.07	48.81
864.244	57
864.418	36.52
864.592	28.33
864.766	-4.44
864.939	108.2
865.113	18.09
865.287	104.11
865.461	-0.34
865.634	52.91
865.808	20.14
865.982	18.09
866.156	28.33
866.329	-10.58
866.503	-2.39
866.676	75.43
866.85	9.9
867.024	46.76
867.197	44.71
867.371	9.9
867.544	30.38
867.718	-55.64
867.891	28.33
868.065	34.47
868.238	22.19
868.412	11.95
868.585	-12.63
868.759	57
868.932	3.75
869.105	9.9
869.279	34.47
869.452	44.71
869.625	79.53
869.799	89.77
869.972	-4.44
870.145	24.23
870.319	-20.82
870.492	16.04
870.665	108.2
870.838	32.43
871.011	22.19
871.185	9.9
871.358	5.8
871.531	16.04
871.704	44.71
871.877	18.09
872.05	79.53
872.223	34.47
872.396	-0.34
872.569	-0.34
872.742	-2.39
872.915	42.67
873.088	-39.25
873.261	65.19
873.434	13.99
873.607	50.86
873.78	28.33
873.953	3.75
874.126	5.8
874.299	-12.63
874.471	65.19
874.644	7.85
874.817	52.91
874.99	134.82
875.163	-47.44
875.335	7.85
875.508	61.1
875.681	42.67
875.853	-43.35
876.026	65.19
876.199	28.33
876.371	1.71
876.544	-6.49
876.717	-0.34
876.889	28.33
877.062	93.87
877.234	-35.16
877.407	-63.83
877.579	32.43
877.752	38.57
877.924	-12.63
878.097	-18.77
878.269	1.71
878.442	40.62
878.614	85.67
878.786	44.71
878.959	-12.63
879.131	36.52
879.303	-4.44
879.476	-2.39
879.648	71.34
879.82	22.19
879.993	3.75
880.165	-69.97
880.337	7.85
880.509	24.23
880.681	5.8
880.854	16.04
881.026	13.99
881.198	48.81
881.37	36.52
881.542	16.04
881.714	-61.78
881.886	-29.01
882.058	-80.21
882.23	-12.63
882.402	-18.77
882.574	26.28
882.746	57
882.918	9.9
883.09	-26.96
883.262	42.67
883.434	-26.96
883.606	-0.34
883.778	24.23
883.95	3.75
884.122	-10.58
884.293	59.05
884.465	26.28
884.637	18.09
884.809	-14.68
884.98	44.71
885.152	104.11
885.324	-2.39
885.496	61.1
885.667	36.52
885.839	11.95
886.011	136.87
886.182	28.33
886.354	38.57
886.525	18.09
886.697	18.09
886.869	44.71
887.04	-14.68
887.212	57
887.383	44.71
887.555	5.8
887.726	54.95
887.897	-18.77
888.069	-35.16
888.24	61.1
888.412	-12.63
888.583	9.9
888.754	16.04
888.926	7.85
889.097	5.8
889.268	22.19
889.44	-4.44
889.611	-53.59
889.782	61.1
889.953	-6.49
890.125	26.28
890.296	-4.44
890.467	57
890.638	-22.87
890.809	-41.3
890.98	-37.2
891.151	22.19
891.323	-0.34
891.494	93.87
891.665	-18.77
891.836	-51.54
892.007	20.14
892.178	-14.68
892.349	-12.63
892.52	13.99
892.691	-49.49
892.862	67.24
893.032	-18.77
893.203	28.33
893.374	79.53
893.545	-18.77
893.716	-33.11
893.887	71.34
894.057	3.75
894.228	11.95
894.399	-22.87
894.57	30.38
894.74	34.47
894.911	11.95
895.082	-29.01
895.253	-45.4
895.423	26.28
895.594	-29.01
895.764	32.43
895.935	-35.16
896.106	108.2
896.276	57
896.447	-51.54
896.617	73.39
896.788	46.76
896.958	65.19
897.129	-6.49
897.299	24.23
897.47	28.33
897.64	16.04
897.81	77.48
897.981	-43.35
898.151	-16.73
898.322	34.47
898.492	34.47
898.662	-14.68
898.832	52.91
899.003	-53.59
899.173	38.57
899.343	-0.34
899.513	-6.49
