Data from USB4F104151__99__11-07-01-240.txt Node

Date: Wed Mar 12 11:07:01 EDT 2025
User: louis
Spectrometer: USB4F10415
Trigger mode: 4
Integration Time (sec): 2.000000E-2
Scans to average: 1
Electric dark correction enabled: true
Nonlinearity correction enabled: false
Boxcar width: 0
XAxis mode: Wavelengths
Number of Pixels in Spectrum: 3648
>>>>>Begin Spectral Data<<<<<
178.204	-95.57
178.424	-95.57
178.644	-95.57
178.864	-136.53
179.084	-66.9
179.304	-13.65
179.524	-46.42
179.744	-60.76
179.964	60.07
180.184	-25.94
180.404	25.26
180.624	-36.18
180.844	39.59
181.064	-11.61
181.283	29.35
181.503	35.5
181.723	4.78
181.943	-15.7
182.163	-7.51
182.383	10.92
182.602	64.17
182.822	-44.37
183.042	41.64
183.262	-7.51
183.482	-32.08
183.701	-21.84
183.921	49.83
184.141	29.35
184.361	43.69
184.58	21.16
184.8	41.64
185.02	-23.89
185.239	12.97
185.459	-50.52
185.679	-36.18
185.898	-36.18
186.118	72.36
186.338	-5.46
186.557	6.83
186.777	25.26
186.997	31.4
187.216	27.31
187.436	-1.37
187.655	-48.47
187.875	103.08
188.095	15.02
188.314	-36.18
188.534	-40.28
188.753	-17.75
188.973	45.74
189.192	47.79
189.412	-54.61
189.631	-13.65
189.851	-11.61
190.07	25.26
190.29	15.02
190.509	-11.61
190.729	17.07
190.948	29.35
191.168	62.12
191.387	27.31
191.607	-25.94
191.826	-17.75
192.045	25.26
192.265	17.07
192.484	-32.08
192.704	-17.75
192.923	-3.41
193.142	119.46
193.362	4.78
193.581	35.5
193.8	12.97
194.02	31.4
194.239	4.78
194.458	72.36
194.678	6.83
194.897	31.4
195.116	-25.94
195.335	43.69
195.555	29.35
195.774	31.4
195.993	62.12
196.212	10.92
196.432	70.31
196.651	70.31
196.87	45.74
197.089	37.55
197.308	4.78
197.528	-15.7
197.747	-11.61
197.966	8.87
198.185	68.27
198.404	-5.46
198.623	-38.23
198.842	35.5
199.062	70.31
199.281	4.78
199.5	21.16
199.719	25.26
199.938	41.64
200.157	0.68
200.376	25.26
200.595	0.68
200.814	8.87
201.033	0.68
201.252	17.07
201.471	-5.46
201.69	12.97
201.909	-25.94
202.128	62.12
202.347	62.12
202.566	-85.33
202.785	-103.76
203.004	62.12
203.223	45.74
203.442	88.75
203.661	-3.41
203.879	68.27
204.098	2.73
204.317	27.31
204.536	0.68
204.755	-38.23
204.974	170.66
205.193	27.31
205.411	60.07
205.63	86.7
205.849	10.92
206.068	6.83
206.287	-50.52
206.505	35.5
206.724	55.98
206.943	21.16
207.162	37.55
207.381	-11.61
207.599	39.59
207.818	-23.89
208.037	55.98
208.255	27.31
208.474	-1.37
208.693	12.97
208.911	70.31
209.13	55.98
209.349	10.92
209.567	86.7
209.786	60.07
210.005	8.87
210.223	17.07
210.442	-48.47
210.661	17.07
210.879	39.59
211.098	-1.37
211.316	-44.37
211.535	33.45
211.753	-27.99
211.972	17.07
212.191	41.64
212.409	43.69
212.628	41.64
212.846	41.64
213.065	37.55
213.283	8.87
213.502	58.03
213.72	-21.84
213.938	8.87
214.157	-21.84
214.375	45.74
214.594	55.98
214.812	-5.46
215.031	70.31
215.249	0.68
215.467	31.4
215.686	10.92
215.904	2.73
216.122	101.03
216.341	-73.04
216.559	58.03
216.778	19.11
216.996	8.87
217.214	-40.28
217.432	-19.8
217.651	4.78
217.869	84.65
218.087	19.11
218.306	25.26
218.524	25.26
218.742	76.46
218.96	27.31
219.179	-36.18
219.397	35.5
219.615	-36.18
219.833	21.16
220.051	-54.61
220.27	78.51
220.488	62.12
220.706	-7.51
220.924	31.4
221.142	-5.46
221.36	55.98
221.578	37.55
221.796	4.78
222.015	-1.37
222.233	-44.37
222.451	68.27
222.669	101.03
222.887	86.7
223.105	-58.71
223.323	-7.51
223.541	53.93
223.759	6.83
223.977	-56.66
224.195	21.16
224.413	-23.89
224.631	31.4
224.849	-23.89
225.067	72.36
225.285	-42.32
225.503	64.17
225.721	-34.13
225.939	-30.04
226.157	60.07
226.375	51.88
226.592	-23.89
226.81	51.88
227.028	101.03
227.246	62.12
227.464	-40.28
227.682	19.11
227.9	15.02
228.117	-40.28
228.335	35.5
228.553	49.83
228.771	29.35
228.989	27.31
229.206	-38.23
229.424	39.59
229.642	8.87
229.86	-38.23
230.077	-11.61
230.295	-36.18
230.513	39.59
230.731	2.73
230.948	0.68
231.166	-23.89
231.384	-19.8
231.601	64.17
231.819	8.87
232.037	41.64
232.254	-7.51
232.472	12.97
232.689	-7.51
232.907	6.83
233.125	33.45
233.342	17.07
233.56	31.4
233.777	51.88
233.995	2.73
234.213	31.4
234.43	8.87
234.648	6.83
234.865	72.36
235.083	86.7
235.3	-17.75
235.518	19.11
235.735	0.68
235.953	98.99
236.17	25.26
236.388	66.22
236.605	-38.23
236.822	58.03
237.04	-5.46
237.257	37.55
237.475	33.45
237.692	103.08
237.909	43.69
238.127	10.92
238.344	29.35
238.562	84.65
238.779	-21.84
238.996	-13.65
239.214	35.5
239.431	39.59
239.648	72.36
239.865	17.07
240.083	0.68
240.3	29.35
240.517	25.26
240.735	21.16
240.952	-17.75
241.169	101.03
241.386	60.07
241.603	-15.7
241.821	17.07
242.038	25.26
242.255	82.6
242.472	-3.41
242.689	58.03
242.907	23.21
243.124	-13.65
243.341	8.87
243.558	-3.41
243.775	60.07
243.992	0.68
244.209	45.74
244.426	74.41
244.643	37.55
244.86	-77.14
245.078	-1.37
245.295	-34.13
245.512	23.21
245.729	25.26
245.946	12.97
246.163	-38.23
246.38	2.73
246.597	15.02
246.814	-7.51
247.031	-3.41
247.248	66.22
247.464	82.6
247.681	47.79
247.898	45.74
248.115	37.55
248.332	-7.51
248.549	82.6
248.766	62.12
248.983	29.35
249.2	17.07
249.417	15.02
249.633	27.31
249.85	-25.94
250.067	-13.65
250.284	80.55
250.501	-15.7
250.717	19.11
250.934	119.46
251.151	80.55
251.368	-44.37
251.585	4.78
251.801	72.36
252.018	-19.8
252.235	33.45
252.451	86.7
252.668	17.07
252.885	70.31
253.102	70.31
253.318	-32.08
253.535	-17.75
253.752	12.97
253.968	8.87
254.185	-3.41
254.401	58.03
254.618	86.7
254.835	2.73
255.051	25.26
255.268	76.46
255.484	-1.37
255.701	-3.41
255.917	37.55
256.134	-50.52
256.351	-21.84
256.567	64.17
256.784	12.97
257	31.4
257.217	2.73
257.433	21.16
257.65	31.4
257.866	-1.37
258.082	86.7
258.299	39.59
258.515	45.74
258.732	-42.32
258.948	39.59
259.165	53.93
259.381	21.16
259.597	84.65
259.814	64.17
260.03	35.5
260.246	2.73
260.463	37.55
260.679	39.59
260.895	29.35
261.112	74.41
261.328	-27.99
261.544	37.55
261.761	64.17
261.977	-3.41
262.193	66.22
262.409	0.68
262.626	90.79
262.842	64.17
263.058	4.78
263.274	-15.7
263.49	15.02
263.707	45.74
263.923	49.83
264.139	-23.89
264.355	-54.61
264.571	51.88
264.787	8.87
265.004	25.26
265.22	29.35
265.436	0.68
265.652	29.35
265.868	76.46
266.084	80.55
266.3	127.66
266.516	-36.18
266.732	-56.66
266.948	58.03
267.164	-3.41
267.38	35.5
267.596	4.78
267.812	-15.7
268.028	-19.8
268.244	45.74
268.46	-30.04
268.676	23.21
268.892	66.22
269.108	-56.66
269.324	43.69
269.54	-3.41
269.756	62.12
269.972	37.55
270.188	-25.94
270.403	62.12
270.619	-9.56
270.835	41.64
271.051	49.83
271.267	62.12
271.483	109.23
271.698	-64.85
271.914	35.5
272.13	23.21
272.346	64.17
272.562	6.83
272.777	55.98
272.993	15.02
273.209	45.74
273.425	41.64
273.64	12.97
273.856	27.31
274.072	62.12
274.287	-1.37
274.503	53.93
274.719	80.55
274.934	58.03
275.15	21.16
275.366	10.92
275.581	10.92
275.797	86.7
276.012	29.35
276.228	12.97
276.444	43.69
276.659	4.78
276.875	0.68
277.09	-7.51
277.306	51.88
277.521	-5.46
277.737	-11.61
277.952	-15.7
278.168	125.61
278.383	47.79
278.599	45.74
278.814	-13.65
279.03	-38.23
279.245	35.5
279.461	76.46
279.676	2.73
279.892	-44.37
280.107	51.88
280.322	27.31
280.538	96.94
280.753	35.5
280.969	64.17
281.184	58.03
281.399	8.87
281.615	70.31
281.83	62.12
282.045	29.35
282.26	-40.28
282.476	-50.52
282.691	-7.51
282.906	6.83
283.122	-7.51
283.337	47.79
283.552	31.4
283.767	-3.41
283.983	66.22
284.198	94.89
284.413	78.51
284.628	-30.04
284.843	-7.51
285.058	8.87
285.274	23.21
285.489	39.59
285.704	43.69
285.919	27.31
286.134	29.35
286.349	-19.8
286.564	-36.18
286.779	8.87
286.995	41.64
287.21	-7.51
287.425	41.64
287.64	10.92
287.855	82.6
288.07	49.83
288.285	-9.56
288.5	21.16
288.715	47.79
288.93	-50.52
289.145	92.84
289.36	-9.56
289.575	88.75
289.79	-11.61
290.004	2.73
290.219	17.07
290.434	-25.94
290.649	-34.13
290.864	-40.28
291.079	-38.23
291.294	55.98
291.509	51.88
291.724	-3.41
291.938	17.07
292.153	60.07
292.368	82.6
292.583	-40.28
292.798	23.21
293.012	-7.51
293.227	64.17
293.442	37.55
293.657	12.97
293.871	60.07
294.086	66.22
294.301	101.03
294.516	-7.51
294.73	82.6
294.945	-60.76
295.16	6.83
295.374	55.98
295.589	43.69
295.804	23.21
296.018	31.4
296.233	41.64
296.447	33.45
296.662	-25.94
296.877	-32.08
297.091	-11.61
297.306	-11.61
297.52	25.26
297.735	23.21
297.949	-5.46
298.164	82.6
298.378	-36.18
298.593	29.35
298.807	10.92
299.022	-7.51
299.236	25.26
299.451	-11.61
299.665	60.07
299.88	-11.61
300.094	35.5
300.309	-30.04
300.523	12.97
300.737	-13.65
300.952	45.74
301.166	10.92
301.381	37.55
301.595	-23.89
301.809	68.27
302.024	-7.51
302.238	55.98
302.452	70.31
302.667	-38.23
302.881	53.93
303.095	17.07
303.309	37.55
303.524	51.88
303.738	64.17
303.952	-13.65
304.166	66.22
304.381	45.74
304.595	94.89
304.809	10.92
305.023	53.93
305.237	78.51
305.452	55.98
305.666	-3.41
305.88	-1.37
306.094	45.74
306.308	72.36
306.522	68.27
306.736	72.36
306.95	39.59
307.164	33.45
307.379	-40.28
307.593	43.69
307.807	72.36
308.021	96.94
308.235	90.79
308.449	4.78
308.663	8.87
308.877	62.12
309.091	90.79
309.305	29.35
309.519	-66.9
309.733	25.26
309.947	12.97
310.161	47.79
310.374	64.17
310.588	66.22
310.802	8.87
311.016	90.79
311.23	-1.37
311.444	-9.56
311.658	-36.18
311.872	0.68
312.085	62.12
312.299	-15.7
312.513	10.92
312.727	-9.56
312.941	29.35
313.154	64.17
313.368	74.41
313.582	-11.61
313.796	86.7
314.009	-5.46
314.223	19.11
314.437	21.16
314.651	25.26
314.864	17.07
315.078	76.46
315.292	-56.66
315.505	23.21
315.719	66.22
315.933	-9.56
316.146	-54.61
316.36	70.31
316.573	72.36
316.787	35.5
317.001	33.45
317.214	47.79
317.428	62.12
317.641	35.5
317.855	-5.46
318.068	-3.41
318.282	154.28
318.495	-25.94
318.709	-40.28
318.922	21.16
319.136	39.59
319.349	-13.65
319.563	35.5
319.776	31.4
319.99	-27.99
320.203	-17.75
320.417	86.7
320.63	94.89
320.843	92.84
321.057	12.97
321.27	-5.46
321.483	72.36
321.697	39.59
321.91	-30.04
322.124	33.45
322.337	62.12
322.55	4.78
322.763	47.79
322.977	45.74
323.19	-87.38
323.403	45.74
323.617	-27.99
323.83	47.79
324.043	23.21
324.256	-3.41
324.469	47.79
324.683	37.55
324.896	-5.46
325.109	33.45
325.322	-15.7
325.535	105.13
325.748	70.31
325.962	-3.41
326.175	53.93
326.388	53.93
326.601	21.16
326.814	45.74
327.027	-54.61
327.24	62.12
327.453	-23.89
327.666	53.93
327.879	-3.41
328.092	12.97
328.305	-9.56
328.518	-3.41
328.731	-38.23
328.944	94.89
329.157	119.46
329.37	17.07
329.583	158.38
329.796	51.88
330.009	27.31
330.222	12.97
330.435	70.31
330.648	80.55
330.861	0.68
331.073	-3.41
331.286	107.18
331.499	58.03
331.712	-7.51
331.925	25.26
332.138	-30.04
332.35	70.31
332.563	39.59
332.776	86.7
332.989	-13.65
333.202	19.11
333.414	-15.7
333.627	17.07
333.84	82.6
334.053	90.79
334.265	27.31
334.478	19.11
334.691	45.74
334.903	78.51
335.116	10.92
335.329	111.27
335.541	74.41
335.754	41.64
335.966	123.56
336.179	12.97
336.392	25.26
336.604	12.97
336.817	131.75
337.029	17.07
337.242	39.59
337.454	4.78
337.667	-15.7
337.88	53.93
338.092	4.78
338.305	80.55
338.517	12.97
338.729	60.07
338.942	35.5
339.154	-34.13
339.367	84.65
339.579	53.93
339.792	-60.76
340.004	74.41
340.217	6.83
340.429	-15.7
340.641	-5.46
340.854	23.21
341.066	-23.89
341.278	123.56
341.491	41.64
341.703	-21.84
341.915	88.75
342.128	74.41
342.34	117.42
342.552	12.97
342.764	19.11
342.977	33.45
343.189	-19.8
343.401	-23.89
343.613	-25.94
343.826	53.93
344.038	10.92
344.25	49.83
344.462	74.41
344.674	4.78
344.886	-13.65
345.099	2.73
345.311	45.74
345.523	43.69
345.735	60.07
345.947	23.21
346.159	78.51
346.371	8.87
346.583	-34.13
346.795	29.35
347.007	80.55
347.219	39.59
347.431	2.73
347.643	-1.37
347.855	35.5
348.067	76.46
348.279	-13.65
348.491	12.97
348.703	27.31
348.915	31.4
349.127	25.26
349.339	31.4
349.551	-11.61
349.763	82.6
349.975	105.13
350.187	21.16
350.399	53.93
350.61	21.16
350.822	23.21
351.034	98.99
351.246	-7.51
351.458	49.83
351.669	33.45
351.881	41.64
352.093	49.83
352.305	76.46
352.517	62.12
352.728	-7.51
352.94	-5.46
353.152	39.59
353.363	-46.42
353.575	47.79
353.787	-44.37
353.999	62.12
354.21	33.45
354.422	64.17
354.633	4.78
354.845	53.93
355.057	49.83
355.268	15.02
355.48	98.99
355.692	27.31
355.903	-11.61
356.115	8.87
356.326	-23.89
356.538	-1.37
356.749	37.55
356.961	74.41
357.172	19.11
357.384	12.97
357.595	82.6
357.807	27.31
358.018	21.16
358.23	94.89
358.441	60.07
358.653	19.11
358.864	41.64
359.075	-34.13
359.287	37.55
359.498	-38.23
359.709	53.93
359.921	23.21
360.132	-3.41
360.344	84.65
360.555	-9.56
360.766	82.6
360.977	43.69
361.189	58.03
361.4	-11.61
361.611	58.03
361.823	15.02
362.034	45.74
362.245	74.41
362.456	53.93
362.667	29.35
362.879	86.7
363.09	29.35
363.301	53.93
363.512	12.97
363.723	29.35
363.935	6.83
364.146	47.79
364.357	-48.47
364.568	-3.41
364.779	-58.71
364.99	98.99
365.201	8.87
365.412	109.23
365.623	6.83
365.834	53.93
366.045	78.51
366.256	17.07
366.467	62.12
366.678	70.31
366.889	31.4
367.1	55.98
367.311	-5.46
367.522	25.26
367.733	53.93
367.944	55.98
368.155	0.68
368.366	72.36
368.577	51.88
368.788	105.13
368.999	-36.18
369.209	43.69
369.42	60.07
369.631	70.31
369.842	4.78
370.053	98.99
370.264	64.17
370.474	0.68
370.685	62.12
370.896	37.55
371.107	37.55
371.317	88.75
371.528	105.13
371.739	55.98
371.95	12.97
372.16	23.21
372.371	25.26
372.582	66.22
372.792	12.97
373.003	33.45
373.214	21.16
373.424	25.26
373.635	139.94
373.846	23.21
374.056	53.93
374.267	70.31
374.477	23.21
374.688	72.36
374.898	12.97
375.109	76.46
375.319	49.83
375.53	29.35
375.74	15.02
375.951	70.31
376.161	60.07
376.372	119.46
376.582	35.5
376.793	-13.65
377.003	37.55
377.214	41.64
377.424	70.31
377.635	55.98
377.845	76.46
378.055	33.45
378.266	-3.41
378.476	12.97
378.686	37.55
378.897	70.31
379.107	12.97
379.317	74.41
379.528	12.97
379.738	58.03
379.948	82.6
380.158	60.07
380.369	53.93
380.579	19.11
380.789	84.65
380.999	78.51
381.21	78.51
381.42	98.99
381.63	-46.42
381.84	133.8
382.05	23.21
382.261	70.31
382.471	15.02
382.681	70.31
382.891	55.98
383.101	43.69
383.311	23.21
383.521	-7.51
383.731	15.02
383.941	82.6
384.151	86.7
384.361	10.92
384.571	64.17
384.781	117.42
384.991	135.85
385.201	117.42
385.411	35.5
385.621	58.03
385.831	45.74
386.041	53.93
386.251	19.11
386.461	101.03
386.671	10.92
386.881	-15.7
387.091	62.12
387.301	60.07
387.511	23.21
387.72	39.59
387.93	88.75
388.14	-9.56
388.35	37.55
388.56	78.51
388.769	21.16
388.979	21.16
389.189	41.64
389.399	45.74
389.609	70.31
389.818	103.08
390.028	29.35
390.238	-5.46
390.447	31.4
390.657	0.68
390.867	17.07
391.076	35.5
391.286	115.37
391.496	66.22
391.705	66.22
391.915	96.94
392.125	33.45
392.334	37.55
392.544	103.08
392.753	17.07
392.963	47.79
393.172	15.02
393.382	29.35
393.591	119.46
393.801	-32.08
394.01	37.55
394.22	111.27
394.429	4.78
394.639	160.42
394.848	76.46
395.058	6.83
395.267	53.93
395.477	45.74
395.686	123.56
395.895	53.93
396.105	90.79
396.314	115.37
396.524	19.11
396.733	80.55
396.942	129.7
397.152	133.8
397.361	70.31
397.57	51.88
397.78	68.27
397.989	111.27
398.198	101.03
398.407	29.35
398.617	37.55
398.826	107.18
399.035	43.69
399.244	144.04
399.453	55.98
399.663	60.07
399.872	92.84
400.081	41.64
400.29	127.66
400.499	60.07
400.708	111.27
400.917	86.7
401.127	49.83
401.336	86.7
401.545	176.81
401.754	96.94
401.963	154.28
402.172	176.81
402.381	125.61
402.59	111.27
402.799	105.13
403.008	119.46
403.217	164.52
403.426	133.8
403.635	66.22
403.844	158.38
404.053	178.86
404.262	123.56
404.471	90.79
404.68	180.9
404.888	92.84
405.097	84.65
405.306	219.82
405.515	191.14
405.724	193.19
405.933	82.6
406.142	164.52
406.35	223.91
406.559	172.71
406.768	156.33
406.977	189.1
407.185	150.18
407.394	172.71
407.603	217.77
407.812	113.32
408.02	275.11
408.229	217.77
408.438	185
408.646	148.14
408.855	191.14
409.064	240.3
409.272	209.58
409.481	271.01
409.69	209.58
409.898	285.35
410.107	289.45
410.315	301.73
410.524	295.59
410.733	320.17
410.941	334.5
411.15	357.03
411.358	334.5
411.567	375.46
411.775	330.41
411.984	334.5
412.192	488.1
412.401	408.23
412.609	397.99
412.818	414.37
413.026	451.24
413.234	486.05
413.443	529.06
413.651	496.29
413.86	461.48
414.068	529.06
414.276	594.59
414.485	543.39
414.693	627.36
414.901	647.84
415.11	547.49
415.318	713.38
415.526	606.88
415.734	746.14
415.943	658.08
416.151	848.54
416.359	696.99
416.567	778.91
416.776	901.79
416.984	860.83
417.192	922.27
417.4	907.93
417.608	928.41
417.817	1002.14
418.025	1014.43
418.233	1133.21
418.441	1000.09
418.649	1071.77
418.857	1219.22
419.065	1223.32
419.273	1258.14
419.481	1192.6
419.689	1292.95
419.897	1385.11
420.105	1391.25
420.313	1458.84
420.521	1553.04
420.729	1499.8
420.937	1534.61
421.145	1622.67
421.353	1757.84
421.561	1782.42
421.769	1839.76
421.977	1948.3
422.185	1856.14
422.393	1997.45
422.601	2140.81
422.809	2038.41
423.017	2087.56
423.224	2296.46
423.432	2259.59
423.64	2196.11
423.848	2411.14
424.056	2357.89
424.263	2542.21
424.471	2564.74
424.679	2771.58
424.887	2693.76
425.094	3005.05
425.302	2867.84
425.51	3019.39
425.718	3224.19
425.925	3160.7
426.133	3353.21
426.341	3375.74
426.548	3537.52
426.756	3596.92
426.964	3727.99
427.171	3889.78
427.379	4022.89
427.586	4039.28
427.794	4090.48
428.001	4362.86
428.209	4518.5
428.417	4534.89
428.624	4768.35
428.832	4883.04
429.039	4846.18
429.247	4866.66
429.454	5204.57
429.662	5646.93
429.869	5190.24
430.076	5644.88
430.284	5540.44
430.491	5771.86
430.699	6074.96
430.906	6013.52
431.114	6062.67
431.321	6390.35
431.528	6502.98
431.736	6851.14
431.943	7262.78
432.15	7012.93
432.358	7127.61
432.565	7328.31
432.772	7418.43
432.979	7793.2
433.187	7903.79
433.394	7926.32
433.601	8528.42
433.808	8446.51
434.016	8507.94
434.223	8911.39
434.43	9343.52
434.637	9144.86
434.844	9751.06
435.052	9890.32
435.259	9812.5
435.466	9935.38
435.673	9859.6
435.88	10654.22
436.087	11063.81
436.294	10951.17
436.501	10641.93
436.708	10996.23
436.915	11467.26
437.122	12009.97
437.329	11710.97
437.537	12378.61
437.743	12358.13
437.95	12208.62
438.157	13181.41
438.364	13418.97
438.571	13300.19
438.778	13363.68
438.985	14760.39
439.192	14121.43
439.399	14694.86
439.606	14322.13
439.813	14901.7
440.02	16067
440.227	15772.09
440.433	15577.53
440.64	16196.02
440.847	16107.96
441.054	16529.84
441.261	17205.67
441.467	17275.3
441.674	17877.4
441.881	18454.93
442.088	18157.97
442.294	18026.9
442.501	18524.56
442.708	18944.39
442.914	19618.18
443.121	20519.28
443.328	19849.6
443.534	21080.42
443.741	20697.45
443.948	20439.41
444.154	21926.24
444.361	21920.09
444.568	21920.09
444.774	22317.4
444.981	22362.45
445.187	23202.12
445.394	23818.56
445.6	23511.36
445.807	25907.49
446.013	24621.36
446.22	25020.72
446.426	25923.87
446.633	26554.65
446.839	27156.75
447.046	25993.5
447.252	27373.83
447.459	27539.72
447.665	27343.11
447.871	28508.41
448.078	30083.3
448.284	28612.85
448.491	29180.14
448.697	30347.48
448.903	31117.52
449.11	30961.87
449.316	30263.52
449.522	30855.38
449.728	31883.46
449.935	31924.42
450.141	31690.95
450.347	32651.45
450.553	31486.15
450.76	31996.1
450.966	33001.65
451.172	32719.03
451.378	33558.7
451.584	32614.58
451.791	33444.01
451.997	33274.03
452.203	33906.85
452.409	33665.19
452.615	33800.36
452.821	32731.32
453.027	32131.26
453.233	33847.46
453.44	32305.34
453.646	33001.65
453.852	32891.06
454.058	33560.75
454.264	32454.84
454.47	33034.42
454.676	32161.98
454.882	33376.43
455.088	30462.17
455.294	30929.11
455.5	31303.88
455.705	31717.57
455.911	30329.05
456.117	29976.8
456.323	29313.26
456.529	27691.27
456.735	28954.86
456.941	28424.44
457.147	27873.54
457.352	26820.88
457.558	26548.5
457.764	26935.57
457.97	26226.97
458.176	25719.07
458.381	25837.86
458.587	24299.83
458.793	24389.94
458.999	23054.67
459.204	24631.6
459.41	24158.52
459.616	22538.58
459.821	22587.73
460.027	22542.67
460.233	22159.7
460.438	21059.95
460.644	20965.74
460.85	20257.14
461.055	19908.99
461.261	19831.16
461.466	18401.68
461.672	17623.45
461.878	19073.42
462.083	17936.79
462.289	17574.3
462.494	17373.6
462.7	16785.83
462.905	16306.61
463.111	16763.31
463.316	17025.45
463.522	16619.95
463.727	16615.85
463.932	16437.68
464.138	16150.96
464.343	16212.4
464.549	15946.17
464.754	16456.11
464.959	16372.14
465.165	16218.55
465.37	15387.07
465.575	15159.75
465.781	15661.5
465.986	15862.2
466.191	14928.33
466.397	15141.32
466.602	14164.43
466.807	14524.88
467.012	14686.67
467.218	14629.32
467.423	14543.31
467.628	14762.44
467.833	15077.83
468.038	14744.01
468.244	14041.56
468.449	14866.89
468.654	14397.9
468.859	14072.28
469.064	14191.06
469.269	13580.76
469.474	13803.99
469.679	13943.25
469.885	13715.93
470.09	13607.39
470.295	13709.79
470.5	13355.49
470.705	13373.92
470.91	13277.66
471.115	12915.17
471.32	13337.06
471.525	13191.65
471.73	12702.18
471.935	12704.23
472.139	12239.34
472.344	12329.45
472.549	12364.27
472.754	12276.21
472.959	11932.15
473.164	11674.1
473.369	11559.42
473.574	11866.61
473.778	11809.27
473.983	11805.17
474.188	11665.91
474.393	11119.1
474.598	11319.81
474.802	11002.37
475.007	10975.75
475.212	10936.84
475.417	10713.61
475.621	10711.56
475.826	10672.65
476.031	10453.52
476.235	10150.42
476.44	10461.71
476.645	10146.32
476.849	10410.51
477.054	10039.83
477.259	9789.97
477.463	9781.78
477.668	9445.91
477.872	9857.56
478.077	9708.05
478.282	9501.21
478.486	9398.81
478.691	9183.77
478.895	9306.65
479.1	9355.8
479.304	9259.55
479.509	8987.17
479.713	9114.14
479.918	8991.27
480.122	8892.96
480.326	8966.69
480.531	8958.5
480.735	8817.19
480.94	8704.55
481.144	9097.76
481.348	8598.06
481.553	8817.19
481.757	8477.23
481.961	8589.86
482.166	8741.41
482.37	8739.37
482.574	8399.4
482.778	8643.11
482.983	8835.62
483.187	8634.92
483.391	8731.17
483.595	8501.8
483.8	8358.44
484.004	8477.23
484.208	8649.25
484.412	8614.44
484.616	8604.2
484.821	8565.29
485.025	8362.54
485.229	8622.63
485.433	8614.44
485.637	8534.57
485.841	8522.28
486.045	8471.08
486.249	8473.13
486.453	8393.26
486.657	8526.38
486.861	8540.71
487.065	8405.55
487.269	8628.78
487.473	8514.09
487.677	8550.95
487.881	8696.36
488.085	8501.8
488.289	8579.62
488.493	8692.26
488.697	8563.24
488.901	8753.7
489.105	8567.34
489.309	8626.73
489.512	8563.24
489.716	8550.95
489.92	8827.43
490.124	8612.39
490.328	8792.61
490.531	8774.18
490.735	8712.74
490.939	8817.19
491.143	8671.78
491.346	8684.07
491.55	9079.33
491.754	8974.88
491.958	8978.98
492.161	8983.07
492.365	9237.02
492.569	9064.99
492.772	9110.05
492.976	9028.13
493.18	9239.07
493.383	9347.61
493.587	9208.35
493.79	9423.39
493.994	9320.99
494.197	9366.04
494.401	9437.72
494.605	9597.46
494.808	9765.4
495.012	9816.6
495.215	9720.34
495.419	9962
495.622	9964.05
495.825	10009.11
496.029	9880.08
496.232	10230.29
496.436	10009.11
496.639	10342.92
496.843	10365.45
497.046	10600.97
497.249	10734.09
497.453	10912.26
497.656	10742.28
497.859	10856.97
498.063	11014.66
498.266	11059.71
498.469	11123.2
498.673	11237.89
498.876	11454.97
499.079	11342.33
499.282	11807.22
499.485	11950.58
499.689	12079.6
499.892	12052.98
500.095	12030.45
500.298	12380.65
500.501	12122.61
500.705	12628.46
500.908	12782.06
501.111	12823.01
501.314	13103.59
501.517	13375.97
501.72	13232.61
501.923	13087.2
502.126	13504.99
502.329	13971.93
502.532	13828.57
502.735	13984.21
502.938	14057.94
503.141	14135.76
503.344	14416.33
503.547	14496.21
503.75	14940.61
503.953	15145.41
504.156	15010.25
504.359	15237.57
504.562	15411.65
504.765	15589.82
504.968	15880.63
505.17	15718.84
505.373	16142.77
505.576	16271.79
505.779	16417.2
505.982	16449.97
506.185	16710.06
506.387	17146.28
506.59	16865.71
506.793	17371.55
506.996	17377.7
507.198	18004.38
507.401	17510.82
507.604	17955.22
507.807	18301.33
508.009	18586
508.212	18776.46
508.415	18815.37
508.617	19016.07
508.82	19306.88
509.022	18954.63
509.225	19603.84
509.428	19665.28
509.63	20019.58
509.833	20074.87
510.035	20324.72
510.238	20201.85
510.44	20652.4
510.643	20986.22
510.845	21021.03
511.048	21113.19
511.25	21393.76
511.453	21633.38
511.655	22149.46
511.858	22108.51
512.06	22301.01
512.262	22497.62
512.465	22602.07
512.667	22937.93
512.87	23292.23
513.072	23155.02
513.274	23720.26
513.477	23923.01
513.679	24095.03
513.881	24170.81
514.084	24537.4
514.286	24822.06
514.488	25043.24
514.69	25516.33
514.893	25606.44
515.095	25506.09
515.297	25651.49
515.499	26007.84
515.701	26577.17
515.904	27044.11
516.106	26786.07
516.308	27078.93
516.51	27312.39
516.712	27713.8
516.914	27793.67
517.116	28252.41
517.318	28135.68
517.52	28535.03
517.722	28764.4
517.925	29018.35
518.127	29247.72
518.329	29346.03
518.531	29552.87
518.733	30120.16
518.935	30157.02
519.136	30417.11
519.338	31101.14
519.54	31031.51
519.742	31344.84
519.944	31563.98
520.146	32098.5
520.348	32145.6
520.55	32334.01
520.752	32465.08
520.954	32897.2
521.155	32751.8
521.357	33325.23
521.559	33880.23
521.761	33777.83
521.963	33968.29
522.164	34171.04
522.366	34859.16
522.568	34877.59
522.77	34959.51
522.971	35133.59
523.173	35244.18
523.375	35397.77
523.576	35805.32
523.778	35713.16
523.98	35997.83
524.181	36558.97
524.383	36311.17
524.584	36927.61
524.786	37093.49
524.988	36604.03
525.189	37474.41
525.391	37329.01
525.592	37693.55
525.794	37750.89
525.995	37890.15
526.197	38301.79
526.398	38350.95
526.6	38496.35
526.801	38815.83
527.003	38920.28
527.204	38662.24
527.406	39315.54
527.607	39372.88
527.808	39626.83
528.01	39016.54
528.211	39456.85
528.412	40267.84
528.614	39821.39
528.815	40255.56
529.016	40317
529.218	40212.55
529.419	40863.8
529.62	40935.48
529.822	40484.93
530.023	40628.29
530.224	40663.1
530.425	40595.52
530.626	40613.95
530.828	40482.88
531.029	41672.75
531.23	41302.07
531.431	41080.89
531.632	40687.68
531.833	41539.63
532.035	41041.98
532.236	41066.55
532.437	41365.56
532.638	41379.89
532.839	41691.18
533.04	41812.01
533.241	41408.56
533.442	42244.13
533.643	41820.2
533.844	41537.58
534.045	42145.83
534.246	41687.09
534.447	42006.57
534.648	41470
534.849	42139.69
535.05	41515.06
535.251	42215.46
535.451	41826.35
535.652	41809.96
535.853	41867.31
536.054	42305.57
536.255	41988.14
536.456	41621.55
536.657	42539.04
536.857	41781.29
537.058	41875.5
537.259	41932.84
537.46	41893.93
537.66	41908.27
537.861	42006.57
538.062	41689.13
538.263	41900.08
538.463	41584.69
538.664	42086.44
538.865	41820.2
539.065	42307.62
539.266	41809.96
539.466	42256.42
539.667	41531.44
539.868	42510.37
540.068	41795.63
540.269	41662.51
540.469	42115.11
540.67	41820.2
540.87	41676.85
541.071	41627.7
541.271	42008.62
541.472	41932.84
541.672	41740.33
541.873	41844.78
542.073	41365.56
542.274	41941.03
542.474	41560.11
542.675	42002.47
542.875	41926.7
543.075	41617.46
543.276	41451.57
543.476	41875.5
543.676	41539.63
543.877	41932.84
544.077	41812.01
544.277	41850.92
544.478	41916.46
544.678	42063.91
544.878	41721.9
545.078	41771.05
545.279	41195.57
545.479	41453.62
545.679	41744.43
545.879	41629.74
546.079	41838.64
546.28	41252.92
546.48	41435.19
546.68	41650.22
546.88	41906.22
547.08	41556.02
547.28	41689.13
547.48	41416.75
547.68	41646.13
547.88	41400.37
548.081	41218.1
548.281	41756.72
548.481	41490.48
548.681	42049.58
548.881	41265.21
549.081	41355.32
549.28	41089.08
549.48	41785.39
549.68	41244.73
549.88	41996.33
550.08	41494.58
550.28	41805.87
550.48	41465.91
550.68	41582.64
550.88	41195.57
551.08	41400.37
551.279	41566.26
551.479	40968.25
551.679	41478.19
551.879	41357.36
552.079	41621.55
552.278	41041.98
552.478	41273.4
552.678	41269.3
552.878	42022.95
553.077	40861.76
553.277	40644.67
553.477	41398.32
553.676	41048.12
553.876	41015.35
554.076	41046.07
554.275	41054.26
554.475	40716.35
554.674	41523.25
554.874	41392.18
555.074	40818.75
555.273	41340.98
555.473	40826.94
555.672	40689.73
555.872	40679.49
556.071	40489.02
556.271	40745.02
556.47	40749.12
556.67	40265.8
556.869	40560.7
557.068	40687.68
557.268	40366.15
557.467	40435.78
557.667	40525.89
557.866	40403.01
558.065	40341.57
558.265	40499.26
558.464	39950.41
558.663	40349.76
558.863	40249.41
559.062	40235.08
559.261	39663.69
559.461	40224.84
559.66	39471.18
559.859	40007.75
560.058	39868.49
560.258	40085.58
560.457	39098.45
560.656	39755.85
560.855	39620.69
561.054	39872.59
561.253	39229.52
561.453	39389.27
561.652	39620.69
561.851	39577.68
562.05	39266.39
562.249	38824.03
562.448	39149.65
562.647	39510.1
562.846	39012.44
563.045	39094.36
563.244	38426.72
563.443	39071.83
563.642	38402.14
563.841	38477.92
564.04	38410.34
564.239	38914.14
564.438	38434.91
564.637	38178.92
564.836	38350.95
565.035	38373.47
565.234	38307.94
565.432	38183.01
565.631	37947.5
565.83	38256.74
566.029	37855.34
566.228	37754.99
566.427	37435.5
566.625	37550.19
566.824	37050.49
567.023	37582.96
567.222	37001.33
567.42	37529.71
567.619	37253.23
567.818	36841.59
568.016	36763.77
568.215	37021.81
568.414	36903.03
568.612	37040.25
568.811	36776.06
569.01	36722.81
569.208	36210.82
569.407	36378.75
569.605	36290.69
569.804	36448.38
570.002	36126.85
570.201	36370.56
570.4	35786.89
570.598	36053.12
570.797	35795.08
570.995	35866.76
571.193	34936.98
571.392	35752.07
571.59	35420.3
571.789	35674.25
571.987	35266.7
572.186	35094.68
572.384	34736.28
572.582	35109.01
572.781	34857.11
572.979	34707.61
573.177	35035.28
573.376	34861.21
573.574	34478.24
573.772	34676.89
573.971	34355.36
574.169	34488.48
574.367	33826.98
574.565	34449.57
574.763	34164.9
574.962	33931.43
575.16	33468.59
575.358	33792.17
575.556	33575.08
575.754	34228.38
575.952	33314.99
576.151	33530.03
576.349	32966.84
576.547	33200.3
576.745	33472.68
576.943	33319.09
577.141	33181.87
577.339	32932.02
577.537	33009.84
577.735	32846.01
577.933	32616.63
578.131	32778.42
578.329	32512.19
578.527	32149.7
578.725	32311.49
578.923	32426.17
579.121	32141.5
579.319	32313.53
579.516	32264.38
579.714	32360.64
579.912	31711.43
580.11	32248
580.308	31961.28
580.506	31871.17
580.704	31488.2
580.901	31537.35
581.099	31723.72
581.297	31107.28
581.495	31299.79
581.692	31357.13
581.89	31017.17
582.088	31391.95
582.285	30984.4
582.483	30980.31
582.681	30705.88
582.878	30922.96
583.076	30703.83
583.274	30761.17
583.471	30314.72
583.669	30613.72
583.866	30314.72
584.064	30324.96
584.262	29966.56
584.459	29995.23
584.657	29978.85
584.854	30453.98
585.052	29669.61
585.249	29833.44
585.447	29800.68
585.644	29622.5
585.841	29853.92
586.039	29679.85
586.236	29569.26
586.434	29434.09
586.631	29044.98
586.828	28995.82
587.026	28971.25
587.223	29063.41
587.42	28823.79
587.618	28907.76
587.815	28573.94
588.012	28356.86
588.21	28420.34
588.407	29040.88
588.604	28500.22
588.801	28354.81
588.999	28514.55
589.196	28442.87
589.393	28414.2
589.59	28068.09
589.787	28064
589.984	28035.33
590.182	27887.87
590.379	27996.42
590.576	27650.31
590.773	27576.58
590.97	27498.76
591.167	27357.45
591.364	27121.93
591.561	27678.98
591.758	27298.06
591.955	27177.23
592.152	27334.92
592.349	27042.06
592.546	26980.62
592.743	26966.29
592.94	26734.87
593.137	26628.37
593.334	26898.7
593.531	26675.48
593.727	26753.3
593.924	26362.14
594.121	26261.79
594.318	26585.36
594.515	25983.26
594.712	26540.31
594.908	26056.99
595.105	26292.51
595.302	25882.91
595.499	25835.81
595.696	25905.44
595.892	25598.24
596.089	25643.3
596.286	25631.01
596.482	25774.37
596.679	25571.62
596.876	25327.91
597.072	25323.82
597.269	25424.17
597.466	25030.96
597.662	25147.69
597.859	25225.51
598.055	25157.93
598.252	24824.11
598.448	24781.1
598.645	24824.11
598.841	24369.46
599.038	24480.05
599.234	24525.11
599.431	24547.64
599.627	24277.3
599.824	24375.61
600.02	24037.69
600.217	24596.79
600.413	24420.66
600.609	23757.12
600.806	23992.64
601.002	23941.44
601.198	23939.39
601.395	24009.02
601.591	23800.13
601.787	23562.56
601.984	23472.45
602.18	23775.55
602.376	23658.82
602.572	23343.43
602.769	23492.93
602.965	23212.36
603.161	23261.51
603.357	22931.79
603.553	23032.14
603.75	23177.54
603.946	22872.4
604.142	23189.83
604.338	22495.57
604.534	22399.32
604.73	22575.44
604.926	22511.96
605.122	22698.32
605.318	22462.8
605.514	22434.13
605.71	22065.5
605.906	22532.43
606.102	22544.72
606.298	22387.03
606.494	22241.62
606.69	22311.25
606.886	22006.11
607.082	21913.95
607.278	21899.61
607.474	21920.09
607.67	22186.33
607.866	21799.26
608.062	21954.91
608.257	21803.36
608.453	21713.25
608.649	21422.44
608.845	21332.33
609.041	21510.5
609.236	21387.62
609.432	21358.95
609.628	21598.56
609.824	21406.05
610.019	21436.77
610.215	21225.83
610.411	21352.8
610.606	21236.07
610.802	21567.84
610.998	20859.24
611.193	21238.12
611.389	20674.93
611.584	21100.9
611.78	20873.58
611.976	20818.28
612.171	20838.76
612.367	20828.52
612.562	20826.48
612.758	20500.85
612.953	20351.35
613.149	20932.97
613.344	20728.17
613.539	20679.02
613.735	20509.04
613.93	20769.13
614.126	20414.84
614.321	20611.44
614.517	20218.23
614.712	20222.33
614.907	20394.36
615.103	20345.2
615.298	20160.89
615.493	20416.88
615.688	20117.88
615.884	20359.54
616.079	19734.91
616.274	20416.88
616.47	19476.87
616.665	19900.79
616.86	19937.66
617.055	20060.54
617.25	19665.28
617.445	20007.29
617.641	19464.58
617.836	19759.49
618.031	19368.32
618.226	19607.94
618.421	19442.05
618.616	19614.08
618.811	19298.69
619.006	19618.18
619.201	18964.87
619.396	19319.17
619.591	19048.84
619.786	19128.71
619.981	18813.32
620.176	19011.98
620.371	18688.4
620.566	18571.66
620.761	18682.25
620.956	18821.52
621.151	18313.62
621.346	18844.04
621.541	18471.31
621.735	18553.23
621.93	18219.41
622.125	18024.86
622.32	18196.88
622.515	18004.38
622.709	17852.83
622.904	17748.38
623.099	17740.19
623.294	17455.52
623.488	17625.5
623.683	17828.25
623.878	17449.38
624.072	17418.66
624.267	17490.34
624.462	17355.17
624.656	16974.25
624.851	17019.3
625.046	16974.25
625.24	16769.45
625.435	16609.71
625.629	16595.37
625.824	16562.61
626.018	16495.02
626.213	16361.9
626.407	16058.81
626.602	15890.87
626.796	16247.22
626.991	15913.4
627.185	15835.58
627.38	16212.4
627.574	15825.34
627.768	15692.22
627.963	15518.14
628.157	15454.65
628.352	15460.8
628.546	15223.23
628.74	15481.28
628.935	15249.86
629.129	15161.8
629.323	14879.18
629.517	15000.01
629.712	14909.9
629.906	14920.13
630.1	14805.45
630.294	14631.37
630.489	14569.93
630.683	14410.19
630.877	14377.42
631.071	14197.2
631.265	14451.15
631.459	14193.11
631.653	14186.96
631.848	13881.81
632.042	13775.32
632.236	13947.35
632.43	13730.27
632.624	13908.44
632.818	13730.27
633.012	13535.71
633.206	13418.97
633.4	13666.78
633.594	13257.18
633.788	13296.1
633.982	13195.75
634.176	13214.18
634.369	13212.13
634.563	13267.42
634.757	12894.69
634.951	13019.62
635.145	13019.62
635.339	12710.38
635.533	12806.63
635.726	12689.9
635.92	12595.69
636.114	12628.46
636.308	12540.4
636.501	12374.51
636.695	12286.45
636.889	12294.64
637.083	12218.86
637.276	12337.65
637.47	12171.76
637.664	12095.99
637.857	11899.38
638.051	12145.14
638.244	11739.64
638.438	11907.57
638.632	11563.51
638.825	11952.63
639.019	11641.34
639.212	11856.37
639.406	11485.69
639.599	11463.16
639.793	11450.88
639.986	11274.75
640.18	11260.41
640.373	11192.83
640.567	11135.49
640.76	10998.27
640.954	10988.03
641.147	11084.29
641.34	10836.49
641.534	10842.63
641.727	10899.97
641.92	10805.77
642.114	10654.22
642.307	10732.04
642.5	10629.64
642.694	10342.92
642.887	10392.08
643.08	10551.82
643.273	10396.17
643.467	10340.88
643.66	10140.18
643.853	10076.69
644.046	10119.7
644.239	10369.55
644.432	9900.56
644.626	9865.75
644.819	10109.46
645.012	9959.95
645.205	9794.07
645.398	9941.52
645.591	9624.09
645.784	9728.53
645.977	9579.03
646.17	9630.23
646.363	9531.93
646.556	9460.25
646.749	9468.44
646.942	9454.11
647.135	9294.36
647.328	9388.57
647.521	9269.79
647.714	9038.37
647.907	9165.34
648.099	9077.28
648.292	8950.31
648.485	8997.41
648.678	8788.52
648.871	8860.2
649.064	8790.56
649.256	8938.02
649.449	8835.62
649.642	8716.84
649.835	8538.66
650.027	8651.3
650.22	8553
650.413	8397.35
650.605	8483.37
650.798	8497.7
650.991	8311.34
651.183	8464.94
651.376	8305.2
651.568	8333.87
651.761	8219.18
651.954	8188.46
652.146	8297
652.339	7967.28
652.531	8118.83
652.724	7828.02
652.916	7989.81
653.109	7940.66
653.301	7807.54
653.494	7807.54
653.686	7795.25
653.879	7762.48
654.071	7891.51
654.263	7592.5
654.456	7516.73
654.648	7813.68
654.84	7336.51
655.033	7471.67
655.225	7576.12
655.417	7408.19
655.61	7318.07
655.802	7371.32
655.994	7316.03
656.186	7479.86
656.379	7236.16
656.571	7225.92
656.763	7217.72
656.955	7064.13
657.148	7164.48
657.34	7166.53
657.532	6906.43
657.724	6842.95
657.916	7031.36
658.108	7041.6
658.3	7012.93
658.492	6847.04
658.684	6818.37
658.876	6838.85
659.068	6806.08
659.26	6695.49
659.452	6791.75
659.644	6646.34
659.836	6797.89
660.028	6482.5
660.22	6466.12
660.412	6462.02
660.604	6363.72
660.796	6462.02
660.988	6302.28
661.18	6451.78
661.372	6369.87
661.563	6433.35
661.755	6330.95
661.947	6310.47
662.139	6298.19
662.331	6175.31
662.522	5950.03
662.714	6261.32
662.906	6019.66
663.097	6093.39
663.289	6144.59
663.481	6144.59
663.673	6068.81
663.864	6117.97
664.056	5806.67
664.247	5802.58
664.439	5837.39
664.631	5880.4
664.822	5671.51
665.014	5958.22
665.205	5659.22
665.397	5683.8
665.588	5933.65
665.78	5720.66
665.971	5565.01
666.163	5722.71
666.354	5591.64
666.546	5538.39
666.737	5462.62
666.929	5493.33
667.12	5380.7
667.311	5290.59
667.503	5435.99
667.694	5403.22
667.885	5298.78
668.077	5407.32
668.268	5309.02
668.459	5360.22
668.651	5227.1
668.842	5235.29
669.033	5169.76
669.224	5120.6
669.416	5274.2
669.607	5038.69
669.798	5075.55
669.989	5067.36
670.18	4930.14
670.371	5003.87
670.563	4956.77
670.754	5044.83
670.945	5012.06
671.136	4985.44
671.327	4958.81
671.518	4794.98
671.709	4885.09
671.9	4993.63
672.091	4915.81
672.282	4905.57
672.473	4924
672.664	4946.53
672.855	4803.17
673.046	4797.03
673.237	4571.75
673.428	4872.8
673.619	4727.39
673.809	4612.71
674	4782.69
674.191	4606.56
674.382	4618.85
674.573	4551.27
674.764	4592.23
674.954	4549.22
675.145	4508.26
675.336	4563.56
675.527	4471.4
675.717	4588.13
675.908	4358.76
676.099	4526.69
676.289	4436.58
676.48	4416.1
676.671	4321.9
676.861	4215.4
677.052	4369
677.243	4276.84
677.433	4305.51
677.624	4276.84
677.814	4280.94
678.005	4262.51
678.195	4264.55
678.386	4086.38
678.576	4192.87
678.767	4213.35
678.957	4297.32
679.148	4219.5
679.338	4223.59
679.529	4211.31
679.719	4100.72
679.909	4205.16
680.1	4156.01
680.29	4108.91
680.481	4158.06
680.671	4043.37
680.861	4010.61
681.052	4043.37
681.242	4059.76
681.432	4166.25
681.622	3981.93
681.813	3945.07
682.003	4031.09
682.193	3961.45
682.383	4018.8
682.573	4088.43
682.764	3891.82
682.954	4055.66
683.144	3940.97
683.334	3940.97
683.524	3879.54
683.714	4008.56
683.904	3828.34
684.094	4002.41
684.284	3859.06
684.474	3877.49
684.664	4008.56
684.854	3852.91
685.044	3768.95
685.234	3887.73
685.424	3836.53
685.614	3848.82
685.804	3863.15
685.994	3820.14
686.184	3709.55
686.374	3762.8
686.564	3730.03
686.753	3805.81
686.943	3723.89
687.133	3721.84
687.323	3660.4
687.513	3672.69
687.702	3674.74
687.892	3510.9
688.082	3646.07
688.272	3586.68
688.461	3588.72
688.651	3570.29
688.841	3592.82
689.03	3689.07
689.22	3367.54
689.41	3547.76
689.599	3474.04
689.789	3594.87
689.979	3459.7
690.168	3547.76
690.358	3447.41
690.547	3404.41
690.737	3461.75
690.926	3390.07
691.116	3295.86
691.305	3392.12
691.495	3385.98
691.684	3392.12
691.874	3336.82
692.063	3281.53
692.252	3402.36
692.442	3306.1
692.631	3271.29
692.82	3392.12
693.01	3338.87
693.199	3252.86
693.388	3285.62
693.578	3236.47
693.767	3342.97
693.956	3209.85
694.146	3195.51
694.335	3199.61
694.524	3222.14
694.713	3199.61
694.902	3211.9
695.092	3271.29
695.281	3162.75
695.47	3140.22
695.659	3089.02
695.848	3183.23
696.037	3283.58
696.226	3134.07
696.415	3181.18
696.604	3170.94
696.793	3121.79
696.982	3136.12
697.171	3093.12
697.36	3207.8
697.549	3117.69
697.738	3043.96
697.927	3066.49
698.116	3089.02
698.305	3056.25
698.494	3125.88
698.683	3185.27
698.872	3058.3
699.061	3048.06
699.25	3039.87
699.438	3068.54
699.627	2935.42
699.816	3119.74
700.005	3005.05
700.193	3062.4
700.382	2929.28
700.571	3025.53
700.76	3123.84
700.948	3060.35
701.137	3078.78
701.326	3101.31
701.514	3185.27
701.703	3000.96
701.892	3027.58
702.08	2947.71
702.269	2935.42
702.457	2978.43
702.646	3158.65
702.834	3078.78
703.023	2837.12
703.212	3125.88
703.4	3078.78
703.589	2845.31
703.777	2843.26
703.965	3099.26
704.154	2982.53
704.342	2966.14
704.531	3076.73
704.719	2896.51
704.907	2933.37
705.096	2996.86
705.284	2916.99
705.472	3056.25
705.661	2841.22
705.849	2998.91
706.037	3033.72
706.226	3082.88
706.414	3068.54
706.602	2900.61
706.79	2988.67
706.979	2892.41
707.167	2980.48
707.355	2865.79
707.543	3084.92
707.731	2900.61
707.919	2927.23
708.107	2865.79
708.296	2888.32
708.484	2861.69
708.672	2894.46
708.86	2939.52
709.048	2927.23
709.236	2941.57
709.424	2900.61
709.612	3019.39
709.8	2925.18
709.988	2753.15
710.176	2923.13
710.364	2783.87
710.551	2839.17
710.739	2871.93
710.927	2808.45
711.115	2882.17
711.303	3013.24
711.491	2935.42
711.679	2910.85
711.866	2835.07
712.054	2802.3
712.242	2779.78
712.43	2837.12
712.617	2810.5
712.805	2826.88
712.993	2710.15
713.181	2966.14
713.368	2986.62
713.556	2808.45
713.744	2679.43
713.931	2970.24
714.119	2849.41
714.306	2871.93
714.494	2769.54
714.682	2787.97
714.869	2716.29
715.057	2916.99
715.244	2779.78
715.432	2869.89
715.619	2755.2
715.807	2732.67
715.994	2765.44
716.182	2736.77
716.369	2753.15
716.556	2826.88
716.744	2667.14
716.931	2753.15
717.119	2814.59
717.306	2972.29
717.493	2667.14
717.681	2843.26
717.868	2744.96
718.055	2859.65
718.242	2679.43
718.43	2796.16
718.617	2654.85
718.804	2689.67
718.991	2767.49
719.179	2720.39
719.366	2710.15
719.553	2740.86
719.74	2699.91
719.927	2781.82
720.114	2769.54
720.301	2710.15
720.488	2728.58
720.676	2699.91
720.863	2718.34
721.05	2775.68
721.237	2720.39
721.424	2634.37
721.611	2572.93
721.798	2630.27
721.985	2632.32
722.172	2706.05
722.358	2706.05
722.545	2511.49
722.732	2718.34
722.919	2542.21
723.106	2642.56
723.293	2699.91
723.48	2595.46
723.667	2605.7
723.853	2734.72
724.04	2685.57
724.227	2601.6
724.414	2714.24
724.6	2665.09
724.787	2638.47
724.974	2646.66
725.161	2646.66
725.347	2572.93
725.534	2620.03
725.72	2632.32
725.907	2564.74
726.094	2560.64
726.28	2591.36
726.467	2579.08
726.653	2624.13
726.84	2607.75
727.027	2634.37
727.213	2624.13
727.4	2581.12
727.586	2593.41
727.773	2577.03
727.959	2511.49
728.145	2630.27
728.332	2497.16
728.518	2577.03
728.705	2564.74
728.891	2611.84
729.077	2525.83
729.264	2669.19
729.45	2480.77
729.636	2585.22
729.823	2628.23
730.009	2527.88
730.195	2493.06
730.382	2572.93
730.568	2460.29
730.754	2601.6
730.94	2550.4
731.126	2720.39
731.313	2581.12
731.499	2585.22
731.685	2603.65
731.871	2581.12
732.057	2583.17
732.243	2497.16
732.429	2595.46
732.615	2642.56
732.801	2534.02
732.987	2581.12
733.173	2501.25
733.359	2431.62
733.545	2591.36
733.731	2626.18
733.917	2429.57
734.103	2472.58
734.289	2642.56
734.475	2546.31
734.661	2601.6
734.847	2620.03
735.033	2445.96
735.219	2527.88
735.404	2521.73
735.59	2509.44
735.776	2476.68
735.962	2601.6
736.148	2450.05
736.333	2486.92
736.519	2312.84
736.705	2501.25
736.89	2527.88
737.076	2361.99
737.262	2427.53
737.447	2378.37
737.633	2368.13
737.819	2394.76
738.004	2396.81
738.19	2386.57
738.375	2474.63
738.561	2355.85
738.747	2445.96
738.932	2253.45
739.118	2318.98
739.303	2370.18
739.489	2384.52
739.674	2431.62
739.859	2364.04
740.045	2343.56
740.23	2329.22
740.416	2331.27
740.601	2310.79
740.786	2259.59
740.972	2333.32
741.157	2396.81
741.342	2345.61
741.528	2370.18
741.713	2396.81
741.898	2323.08
742.084	2282.12
742.269	2290.31
742.454	2216.58
742.639	2159.24
742.824	2159.24
743.01	2245.26
743.195	2237.06
743.38	2253.45
743.565	2235.02
743.75	2165.39
743.935	2185.87
744.12	2273.93
744.305	2110.09
744.49	2140.81
744.675	2269.83
744.86	2017.93
745.045	2142.86
745.23	2142.86
745.415	2058.89
745.6	2075.28
745.785	2087.56
745.97	2110.09
746.155	2067.08
746.34	2011.79
746.525	1981.07
746.71	2089.61
746.895	2060.94
747.079	2007.69
747.264	1925.77
747.449	2077.32
747.634	2067.08
747.819	1936.01
748.003	1952.4
748.188	1815.18
748.373	1956.49
748.557	1823.37
748.742	1931.92
748.927	1936.01
749.111	1770.13
749.296	1864.33
749.481	1751.7
749.665	1780.37
749.85	1845.9
750.034	1806.99
750.219	1845.9
750.404	1737.36
750.588	1802.9
750.773	1753.74
750.957	1698.45
751.141	1747.6
751.326	1815.18
751.51	1829.52
751.695	1696.4
751.879	1716.88
752.064	1688.21
752.248	1749.65
752.432	1696.4
752.617	1585.81
752.801	1720.98
752.985	1634.96
753.17	1575.57
753.354	1661.59
753.538	1630.87
753.722	1503.89
753.907	1622.67
754.091	1462.93
754.275	1606.29
754.459	1501.84
754.643	1587.86
754.828	1550.99
755.012	1567.38
755.196	1475.22
755.38	1567.38
755.564	1542.8
755.748	1460.88
755.932	1401.49
756.116	1467.03
756.3	1356.44
756.484	1391.25
756.668	1397.4
756.852	1393.3
757.036	1516.18
757.22	1364.63
757.404	1413.78
757.588	1397.4
757.772	1331.86
757.956	1299.09
758.14	1270.42
758.323	1315.48
758.507	1397.4
758.691	1290.9
758.875	1299.09
759.059	1313.43
759.242	1251.99
759.426	1311.38
759.61	1313.43
759.794	1268.38
759.977	1301.14
760.161	1329.81
760.345	1256.09
760.528	1272.47
760.712	1219.22
760.895	1260.18
761.079	1190.55
761.263	1297.05
761.446	1231.51
761.63	1188.5
761.813	1249.94
761.997	1184.41
762.18	1131.16
762.364	1141.4
762.547	1204.89
762.731	1161.88
762.914	1147.55
763.098	1196.7
763.281	1127.07
763.464	1090.2
763.648	1069.72
763.831	1116.83
764.015	1110.68
764.198	1120.92
764.381	1133.21
764.564	1178.26
764.748	1157.78
764.931	1131.16
765.114	1092.25
765.297	1110.68
765.481	1006.24
765.664	1090.2
765.847	1092.25
766.03	1102.49
766.213	1079.96
766.397	1116.83
766.58	1020.57
766.763	1063.58
766.946	967.32
767.129	1157.78
767.312	1071.77
767.495	977.56
767.678	1075.87
767.861	1051.29
768.044	961.18
768.227	1016.48
768.41	971.42
768.593	1086.11
768.776	1041.05
768.959	1065.63
769.142	971.42
769.324	1008.28
769.507	887.45
769.69	971.42
769.873	989.85
770.056	909.98
770.239	952.99
770.421	959.13
770.604	1014.43
770.787	873.12
770.97	887.45
771.152	914.08
771.335	934.56
771.518	973.47
771.7	934.56
771.883	987.8
772.066	780.96
772.248	944.8
772.431	930.46
772.613	983.71
772.796	961.18
772.978	866.97
773.161	936.6
773.343	891.55
773.526	889.5
773.708	871.07
773.891	877.21
774.073	885.41
774.256	877.21
774.438	877.21
774.621	848.54
774.803	856.73
774.985	774.81
775.168	850.59
775.35	840.35
775.532	768.67
775.715	774.81
775.897	828.06
776.079	864.93
776.261	766.62
776.444	766.62
776.626	717.47
776.808	668.32
776.99	670.37
777.173	766.62
777.355	733.86
777.537	729.76
777.719	647.84
777.901	805.53
778.083	787.1
778.265	715.42
778.447	709.28
778.629	717.47
778.811	703.14
778.993	750.24
779.175	643.74
779.357	723.62
779.539	688.8
779.721	653.98
779.903	696.99
780.085	633.51
780.267	653.98
780.449	553.63
780.631	602.79
780.812	645.79
780.994	692.9
781.176	629.41
781.358	547.49
781.54	604.83
781.721	541.35
781.903	565.92
782.085	600.74
782.267	615.07
782.448	522.91
782.63	506.53
782.812	531.11
782.993	559.78
783.175	576.16
783.357	567.97
783.538	553.63
783.72	594.59
783.901	551.59
784.083	537.25
784.264	545.44
784.446	580.26
784.627	574.11
784.809	533.15
784.99	459.43
785.172	539.3
785.353	455.33
785.535	561.83
785.716	492.2
785.897	563.87
786.079	549.54
786.26	531.11
786.441	492.2
786.623	549.54
786.804	459.43
786.985	475.81
787.167	553.63
787.348	426.66
787.529	527.01
787.71	484
787.891	453.28
788.073	455.33
788.254	406.18
788.435	428.71
788.616	385.7
788.797	447.14
788.978	420.52
789.159	457.38
789.34	385.7
789.522	449.19
789.703	434.85
789.884	354.98
790.065	424.61
790.246	418.47
790.427	408.23
790.607	387.75
790.788	428.71
790.969	408.23
791.15	350.89
791.331	416.42
791.512	422.56
791.693	391.84
791.874	354.98
792.054	424.61
792.235	348.84
792.416	393.89
792.597	314.02
792.778	369.32
792.958	369.32
793.139	428.71
793.32	334.5
793.5	367.27
793.681	352.93
793.862	365.22
794.042	367.27
794.223	264.87
794.404	346.79
794.584	309.93
794.765	303.78
794.945	281.25
795.126	299.69
795.306	279.21
795.487	328.36
795.667	334.5
795.848	361.13
796.028	262.82
796.209	342.69
796.389	330.41
796.57	346.79
796.75	271.01
796.93	324.26
797.111	352.93
797.291	328.36
797.471	357.03
797.652	338.6
797.832	260.77
798.012	336.55
798.192	316.07
798.373	254.63
798.553	338.6
798.733	264.87
798.913	289.45
799.093	252.58
799.274	264.87
799.454	295.59
799.634	316.07
799.814	277.16
799.994	260.77
800.174	336.55
800.354	189.1
800.534	150.18
800.714	203.43
800.894	318.12
801.074	297.64
801.254	275.11
801.434	256.68
801.614	199.34
801.794	266.92
801.974	627.36
802.154	299.69
802.334	217.77
802.514	213.67
802.693	266.92
802.873	189.1
803.053	230.06
803.233	203.43
803.413	262.82
803.592	271.01
803.772	221.86
803.952	262.82
804.131	234.15
804.311	209.58
804.491	193.19
804.67	223.91
804.85	228.01
805.03	225.96
805.209	215.72
805.389	225.96
805.568	248.49
805.748	207.53
805.928	230.06
806.107	273.06
806.287	199.34
806.466	228.01
806.646	244.39
806.825	207.53
807.004	230.06
807.184	191.14
807.363	246.44
807.543	174.76
807.722	187.05
807.901	223.91
808.081	209.58
808.26	193.19
808.439	178.86
808.619	170.66
808.798	236.2
808.977	256.68
809.156	228.01
809.336	168.62
809.515	176.81
809.694	137.9
809.873	152.23
810.052	213.67
810.231	211.62
810.411	246.44
810.59	139.94
810.769	211.62
810.948	260.77
811.127	146.09
811.306	141.99
811.485	240.3
811.664	240.3
811.843	268.97
812.022	113.32
812.201	172.71
812.38	92.84
812.559	209.58
812.737	178.86
812.916	168.62
813.095	115.37
813.274	189.1
813.453	131.75
813.632	117.42
813.811	113.32
813.989	154.28
814.168	273.06
814.347	119.46
814.526	119.46
814.704	176.81
814.883	197.29
815.062	133.8
815.24	193.19
815.419	123.56
815.598	111.27
815.776	115.37
815.955	174.76
816.133	176.81
816.312	146.09
816.49	62.12
816.669	178.86
816.847	86.7
817.026	176.81
817.204	154.28
817.383	64.17
817.561	164.52
817.74	109.23
817.918	178.86
818.097	172.71
818.275	135.85
818.453	103.08
818.632	160.42
818.81	131.75
818.988	150.18
819.167	141.99
819.345	187.05
819.523	117.42
819.701	113.32
819.879	154.28
820.058	68.27
820.236	119.46
820.414	58.03
820.592	98.99
820.77	174.76
820.948	121.51
821.127	127.66
821.305	115.37
821.483	111.27
821.661	148.14
821.839	152.23
822.017	55.98
822.195	84.65
822.373	109.23
822.551	107.18
822.729	117.42
822.907	90.79
823.085	86.7
823.262	119.46
823.44	174.76
823.618	107.18
823.796	156.33
823.974	92.84
824.152	135.85
824.329	58.03
824.507	127.66
824.685	119.46
824.863	117.42
825.04	107.18
825.218	119.46
825.396	90.79
825.574	92.84
825.751	105.13
825.929	111.27
826.107	39.59
826.284	154.28
826.462	201.38
826.639	96.94
826.817	88.75
826.994	86.7
827.172	60.07
827.349	129.7
827.527	60.07
827.704	70.31
827.882	53.93
828.059	117.42
828.237	92.84
828.414	178.86
828.591	23.21
828.769	166.57
828.946	64.17
829.124	76.46
829.301	133.8
829.478	105.13
829.655	88.75
829.833	113.32
830.01	133.8
830.187	117.42
830.364	164.52
830.542	154.28
830.719	107.18
830.896	74.41
831.073	119.46
831.25	144.04
831.427	74.41
831.604	131.75
831.782	135.85
831.959	115.37
832.136	62.12
832.313	119.46
832.49	109.23
832.667	148.14
832.844	96.94
833.021	107.18
833.198	76.46
833.374	144.04
833.551	109.23
833.728	129.7
833.905	115.37
834.082	70.31
834.259	66.22
834.436	74.41
834.612	51.88
834.789	127.66
834.966	131.75
835.143	41.64
835.319	39.59
835.496	105.13
835.673	76.46
835.85	62.12
836.026	78.51
836.203	88.75
836.38	55.98
836.556	17.07
836.733	60.07
836.909	105.13
837.086	37.55
837.262	113.32
837.439	-5.46
837.616	74.41
837.792	33.45
837.968	88.75
838.145	68.27
838.321	101.03
838.498	45.74
838.674	160.42
838.851	43.69
839.027	-7.51
839.203	45.74
839.38	139.94
839.556	60.07
839.732	55.98
839.909	78.51
840.085	35.5
840.261	31.4
840.437	113.32
840.614	88.75
840.79	121.51
840.966	23.21
841.142	21.16
841.318	62.12
841.494	94.89
841.671	127.66
841.847	35.5
842.023	-11.61
842.199	103.08
842.375	144.04
842.551	25.26
842.727	66.22
842.903	119.46
843.079	70.31
843.255	53.93
843.431	37.55
843.607	41.64
843.783	31.4
843.959	84.65
844.134	78.51
844.31	86.7
844.486	41.64
844.662	29.35
844.838	33.45
845.013	60.07
845.189	82.6
845.365	62.12
845.541	27.31
845.716	58.03
845.892	8.87
846.068	55.98
846.244	10.92
846.419	-52.56
846.595	82.6
846.77	31.4
846.946	15.02
847.122	35.5
847.297	80.55
847.473	72.36
847.648	4.78
847.824	53.93
847.999	45.74
848.175	64.17
848.35	25.26
848.526	82.6
848.701	74.41
848.876	60.07
849.052	121.51
849.227	35.5
849.403	17.07
849.578	6.83
849.753	8.87
849.929	131.75
850.104	2.73
850.279	2.73
850.454	10.92
850.63	47.79
850.805	4.78
850.98	39.59
851.155	-19.8
851.33	4.78
851.505	21.16
851.681	55.98
851.856	25.26
852.031	135.85
852.206	62.12
852.381	23.21
852.556	25.26
852.731	35.5
852.906	25.26
853.081	96.94
853.256	96.94
853.431	43.69
853.606	21.16
853.781	19.11
853.956	-7.51
854.131	25.26
854.305	55.98
854.48	68.27
854.655	15.02
854.83	94.89
855.005	35.5
855.18	72.36
855.354	82.6
855.529	-15.7
855.704	-15.7
855.879	64.17
856.053	37.55
856.228	43.69
856.403	21.16
856.577	37.55
856.752	55.98
856.926	45.74
857.101	-42.32
857.276	33.45
857.45	45.74
857.625	2.73
857.799	66.22
857.974	39.59
858.148	10.92
858.323	39.59
858.497	39.59
858.672	53.93
858.846	21.16
859.02	109.23
859.195	-32.08
859.369	45.74
859.543	31.4
859.718	33.45
859.892	4.78
860.066	58.03
860.241	-1.37
860.415	10.92
860.589	29.35
860.763	53.93
860.938	35.5
861.112	21.16
861.286	0.68
861.46	53.93
861.634	43.69
861.808	0.68
861.982	37.55
862.157	-71
862.331	0.68
862.505	64.17
862.679	-52.56
862.853	-21.84
863.027	27.31
863.201	64.17
863.375	60.07
863.549	33.45
863.722	-15.7
863.896	119.46
864.07	49.83
864.244	25.26
864.418	23.21
864.592	-32.08
864.766	0.68
864.939	-3.41
865.113	21.16
865.287	64.17
865.461	2.73
865.634	4.78
865.808	-11.61
865.982	31.4
866.156	47.79
866.329	-23.89
866.503	45.74
866.676	43.69
866.85	10.92
867.024	33.45
867.197	23.21
867.371	35.5
867.544	86.7
867.718	47.79
867.891	45.74
868.065	76.46
868.238	51.88
868.412	111.27
868.585	-5.46
868.759	-38.23
868.932	6.83
869.105	39.59
869.279	119.46
869.452	-19.8
869.625	51.88
869.799	60.07
869.972	-13.65
870.145	-23.89
870.319	17.07
870.492	84.65
870.665	53.93
870.838	0.68
871.011	8.87
871.185	10.92
871.358	4.78
871.531	-11.61
871.704	-21.84
871.877	88.75
872.05	-42.32
872.223	25.26
872.396	-71
872.569	-7.51
872.742	-23.89
872.915	109.23
873.088	72.36
873.261	74.41
873.434	-19.8
873.607	27.31
873.78	68.27
873.953	0.68
874.126	-83.28
874.299	111.27
874.471	-25.94
874.644	2.73
874.817	55.98
874.99	19.11
875.163	-7.51
875.335	41.64
875.508	0.68
875.681	47.79
875.853	92.84
876.026	68.27
876.199	41.64
876.371	25.26
876.544	4.78
876.717	27.31
876.889	-36.18
877.062	2.73
877.234	29.35
877.407	27.31
877.579	-23.89
877.752	6.83
877.924	39.59
878.097	70.31
878.269	31.4
878.442	-3.41
878.614	35.5
878.786	8.87
878.959	53.93
879.131	62.12
879.303	-42.32
879.476	-34.13
879.648	68.27
879.82	29.35
879.993	29.35
880.165	-15.7
880.337	15.02
880.509	17.07
880.681	-7.51
880.854	0.68
881.026	10.92
881.198	19.11
881.37	49.83
881.542	-46.42
881.714	80.55
881.886	37.55
882.058	-23.89
882.23	43.69
882.402	0.68
882.574	82.6
882.746	23.21
882.918	-13.65
883.09	12.97
883.262	58.03
883.434	-60.76
883.606	-30.04
883.778	15.02
883.95	25.26
884.122	-30.04
884.293	31.4
884.465	12.97
884.637	58.03
884.809	-50.52
884.98	-7.51
885.152	86.7
885.324	43.69
885.496	-54.61
885.667	-60.76
885.839	-3.41
886.011	4.78
886.182	82.6
886.354	68.27
886.525	-11.61
886.697	62.12
886.869	-23.89
887.04	31.4
887.212	-7.51
887.383	90.79
887.555	-13.65
887.726	-9.56
887.897	23.21
888.069	-15.7
888.24	10.92
888.412	-42.32
888.583	58.03
888.754	19.11
888.926	37.55
889.097	15.02
889.268	-13.65
889.44	25.26
889.611	-75.09
889.782	33.45
889.953	-87.38
890.125	119.46
890.296	-62.8
890.467	31.4
890.638	-66.9
890.809	23.21
890.98	53.93
891.151	-38.23
891.323	25.26
891.494	12.97
891.665	58.03
891.836	41.64
892.007	4.78
892.178	-23.89
892.349	-38.23
892.52	-109.91
892.691	45.74
892.862	-5.46
893.032	-5.46
893.203	-3.41
893.374	8.87
893.545	37.55
893.716	-48.47
893.887	58.03
894.057	45.74
894.228	12.97
894.399	29.35
894.57	68.27
894.74	39.59
894.911	82.6
895.082	39.59
895.253	-5.46
895.423	25.26
895.594	49.83
895.764	62.12
895.935	-9.56
896.106	-21.84
896.276	10.92
896.447	-11.61
896.617	-50.52
896.788	0.68
896.958	15.02
897.129	-3.41
897.299	-15.7
897.47	6.83
897.64	-30.04
897.81	-19.8
897.981	-3.41
898.151	-7.51
898.322	-7.51
898.492	-11.61
898.662	-15.7
898.832	-7.51
899.003	-30.04
899.173	-19.8
899.343	-17.75
899.513	-25.94
