Data from USB4F104151__30__11-05-13-712.txt Node

Date: Wed Mar 12 11:05:13 EDT 2025
User: louis
Spectrometer: USB4F10415
Trigger mode: 4
Integration Time (sec): 2.000000E-2
Scans to average: 1
Electric dark correction enabled: true
Nonlinearity correction enabled: false
Boxcar width: 0
XAxis mode: Wavelengths
Number of Pixels in Spectrum: 3648
>>>>>Begin Spectral Data<<<<<
178.204	-83.28
178.424	-83.28
178.644	-83.28
178.864	-99.67
179.084	-56.66
179.304	0.68
179.524	12.97
179.744	-23.89
179.964	45.74
180.184	-42.32
180.404	-17.75
180.624	-25.94
180.844	10.92
181.064	0.68
181.283	-5.46
181.503	12.97
181.723	31.4
181.943	-52.56
182.163	23.21
182.383	47.79
182.602	68.27
182.822	55.98
183.042	49.83
183.262	23.21
183.482	12.97
183.701	21.16
183.921	-7.51
184.141	-1.37
184.361	72.36
184.58	12.97
184.8	76.46
185.02	12.97
185.239	33.45
185.459	-25.94
185.679	125.61
185.898	6.83
186.118	55.98
186.338	62.12
186.557	27.31
186.777	-30.04
186.997	8.87
187.216	35.5
187.436	19.11
187.655	12.97
187.875	70.31
188.095	-54.61
188.314	103.08
188.534	-1.37
188.753	33.45
188.973	12.97
189.192	2.73
189.412	84.65
189.631	-3.41
189.851	43.69
190.07	62.12
190.29	-60.76
190.509	-3.41
190.729	0.68
190.948	45.74
191.168	12.97
191.387	45.74
191.607	15.02
191.826	74.41
192.045	2.73
192.265	-21.85
192.484	-25.94
192.704	84.65
192.923	6.83
193.142	-3.41
193.362	21.16
193.581	41.64
193.8	25.26
194.02	66.22
194.239	35.5
194.458	21.16
194.678	39.59
194.897	68.27
195.116	-71
195.335	60.07
195.555	-11.61
195.774	82.6
195.993	82.6
196.212	162.47
196.432	49.83
196.651	37.55
196.87	-13.65
197.089	0.68
197.308	10.92
197.528	43.69
197.747	-11.61
197.966	35.5
198.185	12.97
198.404	37.55
198.623	31.4
198.842	-1.37
199.062	12.97
199.281	45.74
199.5	64.17
199.719	31.4
199.938	45.74
200.157	49.83
200.376	21.16
200.595	25.26
200.814	-1.37
201.033	-7.51
201.252	94.89
201.471	-23.89
201.69	92.84
201.909	49.83
202.128	84.65
202.347	125.61
202.566	-27.99
202.785	74.41
203.004	-17.75
203.223	101.03
203.442	-11.61
203.661	-52.56
203.879	31.4
204.098	0.68
204.317	47.79
204.536	29.35
204.755	37.55
204.974	-1.37
205.193	19.11
205.411	92.84
205.63	64.17
205.849	-5.46
206.068	-23.89
206.287	33.45
206.505	68.27
206.724	53.93
206.943	31.4
207.162	41.64
207.381	15.02
207.599	-13.65
207.818	-34.13
208.037	-62.8
208.255	-48.47
208.474	43.69
208.693	21.16
208.911	82.6
209.13	60.07
209.349	53.93
209.567	58.03
209.786	17.07
210.005	-13.65
210.223	12.97
210.442	-9.56
210.661	35.5
210.879	-15.7
211.098	-25.94
211.316	-11.61
211.535	-9.56
211.753	31.4
211.972	33.45
212.191	-17.75
212.409	60.07
212.628	17.07
212.846	25.26
213.065	41.64
213.283	33.45
213.502	17.07
213.72	-38.23
213.938	-1.37
214.157	4.78
214.375	-9.56
214.594	-7.51
214.812	33.45
215.031	25.26
215.249	-19.8
215.467	41.64
215.686	53.93
215.904	154.28
216.122	64.17
216.341	51.88
216.559	8.87
216.778	90.79
216.996	33.45
217.214	4.78
217.432	17.07
217.651	37.55
217.869	21.16
218.087	12.97
218.306	96.94
218.524	53.93
218.742	19.11
218.96	0.68
219.179	-7.51
219.397	-19.8
219.615	47.79
219.833	-32.08
220.051	82.6
220.27	25.26
220.488	37.55
220.706	31.4
220.924	19.11
221.142	29.35
221.36	-7.51
221.578	-40.28
221.796	70.31
222.015	10.92
222.233	21.16
222.451	12.97
222.669	-75.09
222.887	-23.89
223.105	17.07
223.323	-11.61
223.541	-17.75
223.759	15.02
223.977	17.07
224.195	12.97
224.413	49.83
224.631	62.12
224.849	51.88
225.067	66.22
225.285	55.98
225.503	23.21
225.721	-3.41
225.939	-15.7
226.157	58.03
226.375	121.51
226.592	-7.51
226.81	51.88
227.028	-7.51
227.246	66.22
227.464	17.07
227.682	103.08
227.9	58.03
228.117	66.22
228.335	-17.75
228.553	51.88
228.771	78.51
228.989	17.07
229.206	-3.41
229.424	27.31
229.642	27.31
229.86	-44.37
230.077	60.07
230.295	49.83
230.513	21.16
230.731	39.59
230.948	105.13
231.166	35.5
231.384	35.5
231.601	47.79
231.819	-15.7
232.037	0.68
232.254	78.51
232.472	-15.7
232.689	-44.37
232.907	64.17
233.125	29.35
233.342	0.68
233.56	119.46
233.777	-21.85
233.995	-44.37
234.213	53.93
234.43	58.03
234.648	12.97
234.865	25.26
235.083	58.03
235.3	-42.32
235.518	58.03
235.735	47.79
235.953	68.27
236.17	43.69
236.388	17.07
236.605	-25.94
236.822	82.6
237.04	72.36
237.257	84.65
237.475	29.35
237.692	55.98
237.909	-34.13
238.127	47.79
238.344	37.55
238.562	109.22
238.779	12.97
238.996	37.55
239.214	49.83
239.431	45.74
239.648	17.07
239.865	33.45
240.083	25.26
240.3	88.75
240.517	109.22
240.735	27.31
240.952	12.97
241.169	35.5
241.386	72.36
241.603	4.78
241.821	37.55
242.038	51.88
242.255	2.73
242.472	84.65
242.689	-15.7
242.907	8.87
243.124	-3.41
243.341	66.22
243.558	-1.37
243.775	109.22
243.992	-58.71
244.209	-34.13
244.426	12.97
244.643	-21.85
244.86	17.07
245.078	8.87
245.295	31.4
245.512	70.31
245.729	-50.52
245.946	55.98
246.163	41.64
246.38	45.74
246.597	0.68
246.814	47.79
247.031	-46.42
247.248	45.74
247.464	43.69
247.681	47.79
247.898	53.93
248.115	55.98
248.332	51.88
248.549	74.41
248.766	-3.41
248.983	53.93
249.2	58.03
249.417	10.92
249.633	86.7
249.85	-27.99
250.067	-9.56
250.284	33.45
250.501	41.64
250.717	111.27
250.934	58.03
251.151	62.12
251.368	-11.61
251.585	19.11
251.801	92.84
252.018	33.45
252.235	-42.32
252.451	-25.94
252.668	49.83
252.885	-54.61
253.102	68.27
253.318	27.31
253.535	58.03
253.752	41.64
253.968	31.4
254.185	23.21
254.401	55.98
254.618	-27.99
254.835	37.55
255.051	76.46
255.268	33.45
255.484	45.74
255.701	37.55
255.917	113.32
256.134	17.07
256.351	27.31
256.567	-21.85
256.784	72.36
257	-30.04
257.217	41.64
257.433	98.99
257.65	41.64
257.866	74.41
258.082	47.79
258.299	6.83
258.515	47.79
258.732	-23.89
258.948	43.69
259.165	66.22
259.381	-15.7
259.597	-11.61
259.814	27.31
260.03	-25.94
260.246	4.78
260.463	-3.41
260.679	21.16
260.895	98.99
261.112	37.55
261.328	17.07
261.544	31.4
261.761	35.5
261.977	17.07
262.193	0.68
262.409	45.74
262.626	58.03
262.842	-15.7
263.058	23.21
263.274	86.7
263.49	64.17
263.707	60.07
263.923	60.07
264.139	10.92
264.355	8.87
264.571	35.5
264.787	21.16
265.004	21.16
265.22	-25.94
265.436	6.83
265.652	-3.41
265.868	139.94
266.084	49.83
266.3	88.75
266.516	-17.75
266.732	12.97
266.948	117.42
267.164	82.6
267.38	6.83
267.596	-30.04
267.812	0.68
268.028	41.64
268.244	2.73
268.46	-60.76
268.676	25.26
268.892	78.51
269.108	33.45
269.324	-19.8
269.54	62.12
269.756	64.17
269.972	58.03
270.188	4.78
270.403	0.68
270.619	27.31
270.835	94.89
271.051	86.7
271.267	-50.52
271.483	19.11
271.698	43.69
271.914	47.79
272.13	76.46
272.346	72.36
272.562	43.69
272.777	12.97
272.993	90.79
273.209	10.92
273.425	66.22
273.64	27.31
273.856	0.68
274.072	29.35
274.287	-17.75
274.503	29.35
274.719	12.97
274.934	-15.7
275.15	-19.8
275.366	19.11
275.581	39.59
275.797	12.97
276.012	39.59
276.228	-17.75
276.444	12.97
276.659	25.26
276.875	64.17
277.09	31.4
277.306	0.68
277.521	82.6
277.737	39.59
277.952	-1.37
278.168	21.16
278.383	80.55
278.599	70.31
278.814	35.5
279.03	92.84
279.245	41.64
279.461	86.7
279.676	35.5
279.892	-5.46
280.107	33.45
280.322	23.21
280.538	-19.8
280.753	68.27
280.969	58.03
281.184	8.87
281.399	68.27
281.615	39.59
281.83	23.21
282.045	2.73
282.26	-15.7
282.476	-9.56
282.691	8.87
282.906	-25.94
283.122	47.79
283.337	-19.8
283.552	37.55
283.767	66.22
283.983	66.22
284.198	25.26
284.413	49.83
284.628	15.02
284.843	49.83
285.058	55.98
285.274	45.74
285.489	33.45
285.704	33.45
285.919	37.55
286.134	-56.66
286.349	27.31
286.564	10.92
286.779	-9.56
286.995	66.22
287.21	-5.46
287.425	6.83
287.64	-13.65
287.855	17.07
288.07	-7.51
288.285	15.02
288.5	-15.7
288.715	45.74
288.93	27.31
289.145	15.02
289.36	-1.37
289.575	8.87
289.79	74.41
290.004	58.03
290.219	70.31
290.434	2.73
290.649	39.59
290.864	12.97
291.079	74.41
291.294	25.26
291.509	-23.89
291.724	27.31
291.938	8.87
292.153	29.35
292.368	-40.28
292.583	78.51
292.798	23.21
293.012	62.12
293.227	-5.46
293.442	33.45
293.657	74.41
293.871	92.84
294.086	0.68
294.301	80.55
294.516	72.36
294.73	49.83
294.945	6.83
295.16	72.36
295.374	105.13
295.589	86.7
295.804	-32.08
296.018	37.55
296.233	66.22
296.447	53.93
296.662	68.27
296.877	45.74
297.091	35.5
297.306	47.79
297.52	55.98
297.735	33.45
297.949	86.7
298.164	80.55
298.378	8.87
298.593	-27.99
298.807	68.27
299.022	92.84
299.236	64.17
299.451	-9.56
299.665	31.4
299.88	-11.61
300.094	8.87
300.309	53.93
300.523	33.45
300.737	-1.37
300.952	43.69
301.166	-5.46
301.381	68.27
301.595	-38.23
301.809	17.07
302.024	29.35
302.238	47.79
302.452	-11.61
302.667	17.07
302.881	-1.37
303.095	49.83
303.309	66.22
303.524	-68.95
303.738	-7.51
303.952	29.35
304.166	60.07
304.381	4.78
304.595	96.94
304.809	0.68
305.023	45.74
305.237	117.42
305.452	21.16
305.666	-60.76
305.88	41.64
306.094	64.17
306.308	-17.75
306.522	47.79
306.736	-17.75
306.95	49.83
307.164	-32.08
307.379	39.59
307.593	94.89
307.807	39.59
308.021	103.08
308.235	41.64
308.449	-1.37
308.663	-7.51
308.877	58.03
309.091	82.6
309.305	150.18
309.519	-3.41
309.733	55.98
309.947	33.45
310.161	0.68
310.374	-44.37
310.588	115.37
310.802	-32.08
311.016	94.89
311.23	90.79
311.444	25.26
311.658	72.36
311.872	84.65
312.085	80.55
312.299	10.92
312.513	-3.41
312.727	21.16
312.941	33.45
313.154	53.93
313.368	25.26
313.582	37.55
313.796	21.16
314.009	-15.7
314.223	86.7
314.437	23.21
314.651	39.59
314.864	12.97
315.078	-23.89
315.292	39.59
315.505	37.55
315.719	-1.37
315.933	39.59
316.146	70.31
316.36	-85.33
316.573	53.93
316.787	86.7
317.001	12.97
317.214	-23.89
317.428	64.17
317.641	92.84
317.855	-34.13
318.068	105.13
318.282	55.98
318.495	37.55
318.709	23.21
318.922	70.31
319.136	68.27
319.349	33.45
319.563	-11.61
319.776	90.79
319.99	25.26
320.203	8.87
320.417	-23.89
320.63	17.07
320.843	27.31
321.057	4.78
321.27	29.35
321.483	68.27
321.697	125.61
321.91	12.97
322.124	35.5
322.337	-9.56
322.55	-15.7
322.763	80.55
322.977	47.79
323.19	27.31
323.403	55.98
323.617	51.88
323.83	6.83
324.043	47.79
324.256	-5.46
324.469	-3.41
324.683	96.94
324.896	33.45
325.109	-44.37
325.322	-50.52
325.535	25.26
325.748	72.36
325.962	-3.41
326.175	41.64
326.388	49.83
326.601	4.78
326.814	82.6
327.027	37.55
327.24	39.59
327.453	33.45
327.666	-40.28
327.879	39.59
328.092	92.84
328.305	51.88
328.518	66.22
328.731	58.03
328.944	51.88
329.157	62.12
329.37	115.37
329.583	-23.89
329.796	137.9
330.009	-19.8
330.222	21.16
330.435	-1.37
330.648	47.79
330.861	49.83
331.073	84.65
331.286	8.87
331.499	0.68
331.712	-15.7
331.925	29.35
332.138	4.78
332.35	35.5
332.563	-21.85
332.776	21.16
332.989	15.02
333.202	49.83
333.414	55.98
333.627	68.27
333.84	-3.41
334.053	10.92
334.265	-15.7
334.478	-7.51
334.691	41.64
334.903	35.5
335.116	43.69
335.329	60.07
335.541	23.21
335.754	88.75
335.966	-9.56
336.179	88.75
336.392	33.45
336.604	12.97
336.817	2.73
337.029	80.55
337.242	0.68
337.454	15.02
337.667	47.79
337.88	4.78
338.092	6.83
338.305	37.55
338.517	29.35
338.729	53.93
338.942	86.7
339.154	0.68
339.367	15.02
339.579	45.74
339.792	51.88
340.004	68.27
340.217	105.13
340.429	68.27
340.641	4.78
340.854	6.83
341.066	-3.41
341.278	78.51
341.491	92.84
341.703	66.22
341.915	6.83
342.128	107.18
342.34	21.16
342.552	72.36
342.764	-7.51
342.977	53.93
343.189	-23.89
343.401	31.4
343.613	-54.61
343.826	76.46
344.038	21.16
344.25	17.07
344.462	41.64
344.674	60.07
344.886	-58.71
345.099	88.75
345.311	2.73
345.523	33.45
345.735	17.07
345.947	43.69
346.159	37.55
346.371	39.59
346.583	45.74
346.795	49.83
347.007	2.73
347.219	0.68
347.431	58.03
347.643	41.64
347.855	25.26
348.067	6.83
348.279	21.16
348.491	82.6
348.703	17.07
348.915	53.93
349.127	62.12
349.339	39.59
349.551	43.69
349.763	0.68
349.975	-52.56
350.187	49.83
350.399	55.98
350.61	-1.37
350.822	45.74
351.034	4.78
351.246	31.4
351.458	39.59
351.669	119.46
351.881	17.07
352.093	64.17
352.305	43.69
352.517	17.07
352.728	96.94
352.94	53.93
353.152	39.59
353.363	12.97
353.575	66.22
353.787	66.22
353.999	98.99
354.21	74.41
354.422	80.55
354.633	21.16
354.845	66.22
355.057	66.22
355.268	60.07
355.48	86.7
355.692	-36.18
355.903	58.03
356.115	6.83
356.326	-50.52
356.538	109.22
356.749	51.88
356.961	47.79
357.172	-9.56
357.384	51.88
357.595	62.12
357.807	-62.8
358.018	78.51
358.23	62.12
358.441	17.07
358.653	31.4
358.864	58.03
359.075	19.11
359.287	51.88
359.498	70.31
359.709	-40.28
359.921	72.36
360.132	37.55
360.344	60.07
360.555	17.07
360.766	94.89
360.977	-27.99
361.189	41.64
361.4	35.5
361.611	53.93
361.823	58.03
362.034	80.55
362.245	66.22
362.456	10.92
362.667	39.59
362.879	10.92
363.09	27.31
363.301	33.45
363.512	33.45
363.723	41.64
363.935	8.87
364.146	0.68
364.357	-25.94
364.568	66.22
364.779	21.16
364.99	49.83
365.201	-9.56
365.412	23.21
365.623	53.93
365.834	66.22
366.045	82.6
366.256	33.45
366.467	60.07
366.678	-3.41
366.889	15.02
367.1	-38.23
367.311	82.6
367.522	6.83
367.733	39.59
367.944	49.83
368.155	76.46
368.366	74.41
368.577	51.88
368.788	70.31
368.999	-52.56
369.209	-60.76
369.42	29.35
369.631	60.07
369.842	58.03
370.053	0.68
370.264	74.41
370.474	43.69
370.685	72.36
370.896	103.08
371.107	19.11
371.317	84.65
371.528	43.69
371.739	115.37
371.95	76.46
372.16	43.69
372.371	-9.56
372.582	51.88
372.792	12.97
373.003	88.75
373.214	41.64
373.424	129.7
373.635	-17.75
373.846	107.18
374.056	39.59
374.267	-3.41
374.477	80.55
374.688	62.12
374.898	21.16
375.109	19.11
375.319	45.74
375.53	47.79
375.74	58.03
375.951	19.11
376.161	-23.89
376.372	68.27
376.582	41.64
376.793	45.74
377.003	10.92
377.214	-27.99
377.424	15.02
377.635	113.32
377.845	4.78
378.055	72.36
378.266	64.17
378.476	90.79
378.686	-3.41
378.897	70.31
379.107	23.21
379.317	94.89
379.528	19.11
379.738	35.5
379.948	31.4
380.158	58.03
380.369	29.35
380.579	107.18
380.789	0.68
380.999	0.68
381.21	70.31
381.42	47.79
381.63	58.03
381.84	78.51
382.05	25.26
382.261	133.8
382.471	2.73
382.681	29.35
382.891	55.98
383.101	23.21
383.311	-36.18
383.521	-30.04
383.731	64.17
383.941	80.55
384.151	4.78
384.361	90.79
384.571	41.64
384.781	78.51
384.991	33.45
385.201	90.79
385.411	111.27
385.621	47.79
385.831	98.99
386.041	68.27
386.251	-5.46
386.461	127.66
386.671	10.92
386.881	64.17
387.091	51.88
387.301	43.69
387.511	64.17
387.72	39.59
387.93	51.88
388.14	66.22
388.35	39.59
388.56	43.69
388.769	76.46
388.979	51.88
389.189	43.69
389.399	25.26
389.609	45.74
389.818	119.46
390.028	55.98
390.238	96.94
390.447	-19.8
390.657	92.84
390.867	25.26
391.076	96.94
391.286	31.4
391.496	29.35
391.705	10.92
391.915	31.4
392.125	-1.37
392.334	84.65
392.544	80.55
392.753	82.6
392.963	72.36
393.172	80.55
393.382	123.56
393.591	113.32
393.801	53.93
394.01	90.79
394.22	-25.94
394.429	0.68
394.639	53.93
394.848	41.64
395.058	12.97
395.267	74.41
395.477	103.08
395.686	111.27
395.895	129.7
396.105	172.71
396.314	47.79
396.524	35.5
396.733	33.45
396.942	60.07
397.152	29.35
397.361	144.04
397.57	101.03
397.78	86.7
397.989	160.42
398.198	158.38
398.407	49.83
398.617	80.55
398.826	129.7
399.035	17.07
399.244	12.97
399.453	78.51
399.663	80.55
399.872	105.13
400.081	58.03
400.29	185
400.499	88.75
400.708	90.79
400.917	58.03
401.127	68.27
401.336	74.41
401.545	133.8
401.754	148.14
401.963	139.94
402.172	144.04
402.381	94.89
402.59	49.83
402.799	158.38
403.008	82.6
403.217	117.42
403.426	127.66
403.635	109.22
403.844	94.89
404.053	35.5
404.262	98.99
404.471	101.03
404.68	55.98
404.888	49.83
405.097	117.42
405.306	103.08
405.515	148.14
405.724	131.75
405.933	158.38
406.142	137.9
406.35	166.57
406.559	146.09
406.768	123.56
406.977	105.13
407.185	156.33
407.394	176.81
407.603	170.66
407.812	193.19
408.02	152.23
408.229	148.14
408.438	180.9
408.646	152.23
408.855	172.71
409.064	232.1
409.272	170.66
409.481	211.62
409.69	197.29
409.898	219.82
410.107	215.72
410.315	320.17
410.524	318.12
410.733	211.62
410.941	168.62
411.15	281.25
411.358	324.26
411.567	344.74
411.775	285.35
411.984	295.59
412.192	363.17
412.401	428.71
412.609	430.76
412.818	381.6
413.026	426.66
413.234	414.37
413.443	414.37
413.651	414.37
413.86	516.77
414.068	479.91
414.276	541.35
414.485	408.23
414.693	443.04
414.901	492.2
415.11	432.8
415.318	486.05
415.526	535.2
415.734	658.08
415.943	584.35
416.151	684.7
416.359	625.31
416.567	723.62
416.776	651.94
416.984	690.85
417.192	731.81
417.4	701.09
417.608	723.62
417.817	830.11
418.025	819.87
418.233	979.61
418.441	815.77
418.649	879.26
418.857	973.47
419.065	1075.87
419.273	1010.33
419.481	1106.59
419.689	1159.83
419.897	1133.21
420.105	1208.98
420.313	1247.9
420.521	1133.21
420.729	1268.38
420.937	1247.9
421.145	1368.73
421.353	1370.77
421.561	1522.32
421.769	1587.86
421.977	1604.24
422.185	1518.23
422.393	1700.5
422.601	1890.96
422.809	1774.22
423.017	1696.4
423.224	1815.18
423.432	1880.72
423.64	1958.54
423.848	2065.04
424.056	2099.85
424.263	2265.74
424.471	2280.07
424.679	2280.07
424.887	2310.79
425.094	2484.87
425.302	2589.32
425.51	2677.38
425.718	2742.91
425.925	2677.38
426.133	2783.87
426.341	2855.55
426.548	3033.72
426.756	3019.39
426.964	3099.26
427.171	3334.78
427.379	3277.43
427.586	3416.69
427.794	3494.52
428.001	3687.03
428.209	3863.15
428.417	3805.81
428.624	4092.52
428.832	3947.12
429.039	4127.34
429.247	4092.52
429.454	4434.53
429.662	4598.37
429.869	4436.58
430.076	4731.49
430.284	4555.37
430.491	4749.92
430.699	5044.83
430.906	4905.57
431.114	4950.62
431.321	5190.24
431.528	5292.63
431.736	5704.28
431.943	6105.68
432.15	5702.23
432.358	6001.23
432.565	6138.44
432.772	6109.77
432.979	6318.67
433.187	6634.05
433.394	6617.67
433.601	6969.92
433.808	7133.76
434.016	7045.7
434.223	7418.43
434.43	7744.05
434.637	7684.66
434.844	7973.42
435.052	8231.47
435.259	8309.29
435.466	8176.17
435.673	8116.78
435.88	8708.65
436.087	9263.65
436.294	8993.31
436.501	8997.41
436.708	9191.97
436.915	9626.14
437.122	10119.7
437.329	9769.49
437.537	10099.22
437.743	10562.06
437.95	10342.92
438.157	11112.96
438.364	11237.89
438.571	11284.99
438.778	11084.29
438.985	12501.48
439.192	11897.33
439.399	12386.8
439.606	12042.74
439.813	12722.66
440.02	13378.01
440.227	13093.35
440.433	13062.63
440.64	13468.13
440.847	13339.1
441.054	13920.73
441.261	14637.52
441.467	14473.68
441.674	14668.23
441.881	15106.5
442.088	15180.23
442.294	15096.26
442.501	15483.33
442.708	15577.53
442.914	16507.31
443.121	17066.41
443.328	16439.73
443.534	17752.48
443.741	17258.92
443.948	17289.63
444.154	18391.44
444.361	18364.82
444.568	18510.22
444.774	18303.38
444.981	18704.78
445.187	18837.9
445.394	20185.46
445.6	19755.39
445.807	21565.79
446.013	20633.97
446.22	20953.45
446.426	21965.15
446.633	22190.42
446.839	22770
447.046	21764.45
447.252	23058.76
447.459	23079.24
447.665	22966.6
447.871	24379.7
448.078	24805.68
448.284	23644.48
448.491	24277.3
448.697	25336.1
448.903	25887.01
449.11	25510.18
449.316	25094.44
449.522	26093.85
449.728	26607.89
449.935	26796.31
450.141	26528.02
450.347	27388.17
450.553	26347.8
450.76	26775.83
450.966	27482.38
451.172	27126.03
451.378	27695.36
451.584	27181.32
451.791	27803.91
451.997	27615.49
452.203	28489.98
452.409	28055.81
452.615	28059.9
452.821	27072.78
453.027	26769.68
453.233	28109.05
453.44	26978.57
453.646	27128.08
453.852	27347.21
454.058	27437.32
454.264	26718.48
454.47	27222.28
454.676	26667.28
454.882	27449.61
455.088	25104.68
455.294	25250.09
455.5	25815.33
455.705	26145.05
455.911	24770.86
456.117	24490.29
456.323	24103.23
456.529	22665.55
456.735	23720.26
456.941	23157.07
457.147	22620.5
457.352	21911.9
457.558	21483.87
457.764	21829.98
457.97	21422.44
458.176	20781.42
458.381	20892.01
458.587	19843.45
458.793	19515.78
458.999	18899.34
459.204	19974.52
459.41	19452.29
459.616	18446.74
459.821	18065.82
460.027	17977.75
460.233	17854.87
460.438	17084.84
460.644	17117.61
460.85	16366
461.055	16136.63
461.261	16198.07
461.466	14793.16
461.672	14627.28
461.878	15512
462.083	14488.01
462.289	14297.55
462.494	14109.14
462.7	13468.13
462.905	12915.17
463.111	13611.48
463.316	13617.63
463.522	13167.07
463.727	13437.41
463.932	13439.45
464.138	13130.21
464.343	12927.46
464.549	12902.89
464.754	13081.06
464.959	12978.66
465.165	12958.18
465.37	12630.51
465.575	12169.71
465.781	12542.44
465.986	12816.87
466.191	12284.4
466.397	12067.31
466.602	11198.98
466.807	11866.61
467.012	11715.06
467.218	11620.86
467.423	11629.05
467.628	11639.29
467.833	12300.78
468.038	11799.03
468.244	11274.75
468.449	11989.49
468.654	11446.78
468.859	11432.44
469.064	11289.09
469.269	10797.57
469.474	10844.68
469.679	11235.84
469.885	11115.01
470.09	11147.78
470.295	11016.71
470.5	10637.83
470.705	10717.7
470.91	10539.53
471.115	10254.86
471.32	10560.01
471.525	10347.02
471.73	10273.29
471.935	10224.14
472.139	9888.28
472.344	10091.02
472.549	9953.81
472.754	9800.21
472.959	9591.32
473.164	9265.69
473.369	9310.75
473.574	9607.7
473.778	9490.97
473.983	9257.5
474.188	9243.17
474.393	8976.93
474.598	8962.59
474.802	8804.9
475.007	8784.42
475.212	8751.65
475.417	8487.47
475.621	8509.99
475.826	8581.67
476.031	8395.31
476.235	8319.53
476.44	8444.46
476.645	8229.42
476.849	8194.61
477.054	8129.07
477.259	7924.27
477.463	7918.13
477.668	7830.07
477.872	7856.69
478.077	7717.43
478.282	7496.25
478.486	7578.17
478.691	7324.22
478.895	7518.78
479.1	7408.19
479.304	7322.17
479.509	7258.68
479.713	7330.36
479.918	7115.33
480.122	7227.96
480.326	7090.75
480.531	7270.97
480.735	7010.88
480.94	7033.41
481.144	7209.53
481.348	6963.78
481.553	7184.96
481.757	6816.32
481.961	6971.97
482.166	7070.27
482.37	7053.89
482.574	6832.71
482.778	6898.24
482.983	7010.88
483.187	6791.75
483.391	7012.93
483.595	6836.8
483.8	6922.82
484.004	6861.38
484.208	6922.82
484.412	6861.38
484.616	7012.93
484.821	6906.43
485.025	6781.51
485.229	7037.5
485.433	7019.07
485.637	6974.02
485.841	6928.96
486.045	6783.56
486.249	6922.82
486.453	6816.32
486.657	6838.85
486.861	6847.04
487.065	6718.02
487.269	6820.42
487.473	6924.86
487.677	6994.5
487.881	6933.06
488.085	6726.21
488.289	6869.57
488.493	6914.63
488.697	6959.68
488.901	6894.15
489.105	6756.93
489.309	7092.8
489.512	7086.65
489.716	7066.17
489.92	7062.08
490.124	6971.97
490.328	7057.98
490.531	7031.36
490.735	7193.15
490.939	7141.95
491.143	6994.5
491.346	7180.86
491.55	7123.52
491.754	7189.05
491.958	7350.84
492.161	7438.91
492.365	7152.19
492.569	7356.99
492.772	7176.77
492.976	7438.91
493.18	7399.99
493.383	7486.01
493.587	7451.19
493.79	7746.1
493.994	7285.31
494.197	7707.19
494.401	7559.74
494.605	7752.24
494.808	7821.88
495.012	7746.1
495.215	8178.22
495.419	7926.32
495.622	7817.78
495.825	8172.08
496.029	8362.54
496.232	8540.71
496.436	8217.13
496.639	8487.47
496.843	8544.81
497.046	8507.94
497.249	8618.54
497.453	8682.02
497.656	8770.08
497.859	8729.13
498.063	8811.04
498.266	9241.12
498.469	9130.53
498.673	9112.1
498.876	9218.59
499.079	9501.21
499.282	9478.68
499.485	9626.14
499.689	9771.54
499.892	10074.64
500.095	9908.76
500.298	9826.84
500.501	9914.9
500.705	10252.81
500.908	10580.49
501.111	10473.99
501.314	10512.91
501.517	10502.67
501.72	10871.3
501.923	10777.09
502.126	11158.02
502.329	11004.42
502.532	11143.68
502.735	11291.13
502.938	11438.59
503.141	11737.59
503.344	11837.94
503.547	11764.22
503.75	12143.09
503.953	12296.69
504.156	12161.52
504.359	12407.28
504.562	12585.45
504.765	12663.27
504.968	12847.59
505.17	13060.58
505.373	13058.53
505.576	13339.1
505.779	13289.95
505.982	13560.28
506.185	13541.85
506.387	13816.28
506.59	14344.66
506.793	14209.49
506.996	14184.91
507.198	14414.29
507.401	14430.67
507.604	14516.69
507.807	14916.04
508.009	15243.71
508.212	15129.03
508.415	15358.4
508.617	15419.84
508.82	15458.75
509.022	15489.47
509.225	16001.46
509.428	16318.9
509.63	16232.88
509.833	16380.34
510.035	16617.9
510.238	16462.26
510.44	17172.9
510.643	17181.09
510.845	17406.37
511.048	17525.15
511.25	17699.23
511.453	17865.11
511.655	18385.3
511.858	18063.77
512.06	18330
512.262	18536.85
512.465	18686.35
512.667	19108.23
512.87	19061.13
513.072	19229.06
513.274	19591.55
513.477	19710.33
513.679	19624.32
513.881	19937.66
514.084	20468.08
514.286	20582.77
514.488	20445.55
514.69	21086.57
514.893	21168.49
515.095	21285.22
515.297	21547.36
515.499	21784.93
515.701	21944.67
515.904	22120.79
516.106	22290.77
516.308	22511.96
516.51	22767.95
516.712	22784.33
516.914	23378.25
517.116	23388.49
517.318	23734.59
517.52	23562.56
517.722	23693.63
517.925	24101.18
518.127	24420.66
518.329	24817.97
518.531	24265.02
518.733	25329.96
518.935	25332.01
519.136	25362.73
519.338	26097.95
519.54	25790.75
519.742	25749.79
519.944	26431.77
520.146	26806.55
520.348	26886.42
520.55	26917.14
520.752	26982.67
520.954	27552.01
521.155	27367.69
521.357	28299.51
521.559	28092.67
521.761	28295.42
521.963	28676.34
522.164	29243.63
522.366	28684.53
522.568	29151.47
522.77	29278.44
522.971	29978.85
523.173	29477.1
523.375	30019.81
523.576	30126.3
523.778	30042.34
523.98	30783.7
524.181	30695.64
524.383	30697.69
524.584	31535.31
524.786	31211.73
524.988	31365.32
525.189	31283.41
525.391	31709.38
525.592	31936.71
525.794	32231.61
525.995	32106.69
526.197	32327.87
526.398	32311.49
526.6	32471.23
526.801	32901.3
527.003	33095.86
527.204	33087.67
527.406	33308.85
527.607	33110.19
527.808	33599.66
528.01	32956.6
528.211	33503.4
528.412	34226.34
528.614	33710.25
528.815	33986.72
529.016	34343.07
529.218	34168.99
529.419	34416.8
529.62	34365.6
529.822	34623.64
530.023	34699.42
530.224	34558.11
530.425	34973.85
530.626	34392.22
530.828	34408.61
531.029	35621
531.23	34916.5
531.431	35090.58
531.632	35344.53
531.833	35342.48
532.035	35180.69
532.236	35227.79
532.437	35491.98
532.638	35211.41
532.839	35905.67
533.04	36079.75
533.241	34986.13
533.442	36073.6
533.643	35719.31
533.844	35391.63
534.045	35850.38
534.246	35432.59
534.447	35850.38
534.648	35758.22
534.849	35764.36
535.05	35645.58
535.251	35805.32
535.451	35911.81
535.652	36276.35
535.853	36028.55
536.054	36167.81
536.255	36259.97
536.456	35655.82
536.657	36391.04
536.857	36247.68
537.058	35936.39
537.259	36100.23
537.46	36395.14
537.66	35883.14
537.861	36774.01
538.062	35750.03
538.263	35911.81
538.463	36151.43
538.664	36180.1
538.865	36032.64
539.065	36458.62
539.266	35784.84
539.466	36733.05
539.667	35737.74
539.868	36284.54
540.068	36100.23
540.269	36042.88
540.469	36067.46
540.67	36169.86
540.87	36298.88
541.071	36296.83
541.271	36337.79
541.472	36376.7
541.672	36190.34
541.873	36081.8
542.073	35653.77
542.274	36530.3
542.474	35960.97
542.675	35723.4
542.875	36133
543.075	35920.01
543.276	35596.43
543.476	36446.33
543.676	35924.1
543.877	36370.56
544.077	35926.15
544.277	35772.55
544.478	36087.94
544.678	36081.8
544.878	36092.04
545.078	36108.42
545.279	35817.61
545.479	35854.47
545.679	36071.56
545.879	36216.96
546.079	36182.15
546.28	35803.27
546.48	35772.55
546.68	35903.62
546.88	36106.37
547.08	35911.81
547.28	35733.64
547.48	35764.36
547.68	35932.29
547.88	35694.73
548.081	35999.88
548.281	35498.12
548.481	35666.06
548.681	36210.82
548.881	35860.62
549.081	35807.37
549.28	36008.07
549.48	35709.07
549.68	35723.4
549.88	36341.89
550.08	35627.15
550.28	35881.1
550.48	35659.91
550.68	36028.55
550.88	35793.03
551.08	35747.98
551.279	35633.29
551.479	35483.79
551.679	35885.19
551.879	35514.51
552.079	35817.61
552.278	35328.14
552.478	35868.81
552.678	35403.92
552.878	35530.89
553.077	35534.99
553.277	35397.77
553.477	35537.04
553.676	35311.76
553.876	35346.58
554.076	35500.17
554.275	34982.04
554.475	34812.06
554.674	35489.93
554.874	34920.6
555.074	35362.96
555.273	35358.86
555.473	35614.86
555.672	34949.27
555.872	35272.85
556.071	35111.06
556.271	35291.28
556.47	34840.73
556.67	34879.64
556.869	34717.85
557.068	35113.11
557.268	34599.07
557.467	34928.79
557.667	34855.06
557.866	35297.42
558.065	34754.71
558.265	34576.54
558.464	34470.04
558.663	34918.55
558.863	34035.88
559.062	34613.4
559.261	34085.03
559.461	34580.64
559.66	33855.65
559.859	34427.04
560.058	33771.69
560.258	33966.24
560.457	33855.65
560.656	34117.79
560.855	33908.9
561.054	33921.19
561.253	33433.77
561.453	33605.8
561.652	33671.34
561.851	33945.76
562.05	33464.49
562.249	33095.86
562.448	33765.54
562.647	33353.9
562.846	33378.48
563.045	33657
563.244	32934.07
563.443	33188.02
563.642	32704.7
563.841	32864.44
564.04	32839.86
564.239	33202.35
564.438	32618.68
564.637	32606.39
564.836	32606.39
565.035	32377.02
565.234	32467.13
565.432	32030.91
565.631	32166.08
565.83	32481.47
566.029	32346.3
566.228	32121.02
566.427	31848.64
566.625	32374.97
566.824	31684.81
567.023	31987.91
567.222	31310.03
567.42	31512.78
567.619	31758.53
567.818	31295.69
568.016	31238.35
568.215	31633.61
568.414	30941.39
568.612	31557.83
568.811	30994.64
569.01	31373.52
569.208	30675.16
569.407	30963.92
569.605	30386.39
569.804	30705.88
570.002	30431.45
570.201	30976.21
570.4	30476.51
570.598	30492.89
570.797	30195.93
570.995	30193.89
571.193	29569.26
571.392	29901.03
571.59	29837.54
571.789	29542.63
571.987	29532.39
572.186	29561.06
572.384	29333.74
572.582	29833.44
572.781	29522.15
572.979	28711.16
573.177	29470.95
573.376	29270.25
573.574	29081.84
573.772	29137.13
573.971	28713.2
574.169	28608.76
574.367	28559.61
574.565	28801.27
574.763	28451.06
574.962	28678.39
575.16	27990.27
575.358	28397.82
575.556	27818.24
575.754	28293.37
575.952	28010.75
576.151	28369.15
576.349	27545.86
576.547	27537.67
576.745	27678.98
576.943	27726.08
577.141	27572.49
577.339	27509
577.537	27367.69
577.735	27400.46
577.933	27181.32
578.131	27306.25
578.329	27197.71
578.527	26691.86
578.725	27160.84
578.923	27119.88
579.121	26646.8
579.319	26872.08
579.516	26728.72
579.714	26622.23
579.912	26425.62
580.11	26396.95
580.308	26196.25
580.506	26253.59
580.704	25809.18
580.901	26417.43
581.099	26112.28
581.297	26077.47
581.495	25880.86
581.692	25870.62
581.89	25717.03
582.088	25827.62
582.285	25501.99
582.483	25489.7
582.681	25444.65
582.878	25293.1
583.076	24891.69
583.274	25018.67
583.471	24912.17
583.669	24719.67
583.866	25088.3
584.064	25327.91
584.262	24473.91
584.459	25137.45
584.657	24717.62
584.854	24713.52
585.052	24379.7
585.249	24707.38
585.447	24521.01
585.644	24426.81
585.841	24215.87
586.039	24156.47
586.236	23746.88
586.434	24297.78
586.631	24097.08
586.828	23808.32
587.026	23980.35
587.223	23791.94
587.42	24002.88
587.618	23869.76
587.815	23361.86
588.012	23478.6
588.21	23644.48
588.407	23656.77
588.604	23488.84
588.801	23349.57
588.999	23103.82
589.196	23116.11
589.393	23097.67
589.59	22903.12
589.787	23042.38
589.984	22782.29
590.182	22741.33
590.379	22739.28
590.576	22602.07
590.773	22679.89
590.97	22210.9
591.167	22702.42
591.364	22245.72
591.561	22595.92
591.758	22149.46
591.955	22538.58
592.152	22227.29
592.349	21694.82
592.546	22135.13
592.743	22034.78
592.94	21436.77
593.137	21643.62
593.334	22028.63
593.531	21782.88
593.727	21801.31
593.924	21506.4
594.121	21590.37
594.318	21645.66
594.515	21408.1
594.712	21584.23
594.908	21252.45
595.105	21408.1
595.302	20947.31
595.499	21021.03
595.696	21078.38
595.892	20689.26
596.089	20744.56
596.286	21164.39
596.482	20531.57
596.679	20650.35
596.876	20889.96
597.072	20599.15
597.269	20470.13
597.466	20582.77
597.662	20302.2
597.859	20504.95
598.055	20298.1
598.252	20136.31
598.448	20044.15
598.645	20154.74
598.841	19863.93
599.038	20242.81
599.234	20029.82
599.431	19820.92
599.627	20007.29
599.824	19902.84
600.02	19392.9
600.217	19571.07
600.413	19622.27
600.609	19341.7
600.806	19222.92
601.002	19681.66
601.198	19147.14
601.395	19237.25
601.591	19272.07
601.787	19132.81
601.984	19030.41
602.18	19179.91
602.376	18932.11
602.572	18973.07
602.769	19018.12
602.965	18792.84
603.161	18821.52
603.357	18563.47
603.553	18700.69
603.75	18626.96
603.946	18344.34
604.142	18581.9
604.338	18178.45
604.534	18469.26
604.73	18035.1
604.926	18069.91
605.122	18149.78
605.318	18074.01
605.514	18153.88
605.71	18002.33
605.906	17922.46
606.102	17752.48
606.298	17840.54
606.494	17801.63
606.69	18006.42
606.886	18026.9
607.082	17670.56
607.278	17590.69
607.474	17621.41
607.67	17516.96
607.866	17136.04
608.062	17465.76
608.257	17357.22
608.453	17185.19
608.649	17379.75
608.845	17238.44
609.041	16896.42
609.236	17164.71
609.432	17273.25
609.628	17068.45
609.824	17279.39
610.019	16806.31
610.215	16984.49
610.411	17168.8
610.606	16986.54
610.802	16998.82
610.998	16976.3
611.193	16845.23
611.389	16626.09
611.584	16789.93
611.78	16331.19
611.976	16564.65
612.171	16699.82
612.367	16519.6
612.562	16439.73
612.758	16404.91
612.953	16316.85
613.149	16402.86
613.344	16056.76
613.539	16646.57
613.735	16347.57
613.93	16300.47
614.126	16122.29
614.321	16239.03
614.517	16124.34
614.712	15851.96
614.907	16083.38
615.103	16105.91
615.298	15903.16
615.493	15985.08
615.688	15862.2
615.884	16193.97
616.079	15700.41
616.274	15817.15
616.47	15722.94
616.665	16093.62
616.86	15630.78
617.055	15634.88
617.25	15677.88
617.445	15661.5
617.641	15278.53
617.836	15729.08
618.031	15264.19
618.226	15442.37
618.421	15374.78
618.616	15423.94
618.811	15186.37
619.006	15501.76
619.201	14907.85
619.396	15122.88
619.591	15055.3
619.786	14909.9
619.981	14795.21
620.176	15030.73
620.371	14787.02
620.566	14844.36
620.761	14576.08
620.956	14635.47
621.151	14332.37
621.346	14651.85
621.541	14203.35
621.735	14549.45
621.93	14180.82
622.125	14275.02
622.32	13830.62
622.515	14395.85
622.709	14246.35
622.904	14107.09
623.099	13826.52
623.294	13873.62
623.488	13717.98
623.683	13750.74
623.878	13597.15
624.072	13677.02
624.267	13558.24
624.462	13560.28
624.656	13167.07
624.851	13263.33
625.046	13259.23
625.24	13165.03
625.435	13171.17
625.629	13253.09
625.824	12794.34
626.018	12964.32
626.213	12585.45
626.407	12704.23
626.602	12603.88
626.796	12614.12
626.991	12454.38
627.185	12261.87
627.38	12331.5
627.574	12296.69
627.768	12411.37
627.963	12270.06
628.157	12143.09
628.352	12089.84
628.546	11964.92
628.74	12214.77
628.935	11766.26
629.129	11874.81
629.323	11575.8
629.517	11743.74
629.712	11616.76
629.906	11522.55
630.1	11510.27
630.294	11493.88
630.489	11231.74
630.683	11565.56
630.877	11147.78
631.071	11221.5
631.265	11276.8
631.459	11141.63
631.653	10975.75
631.848	10844.68
632.042	10936.84
632.236	10850.82
632.43	10877.44
632.624	10930.69
632.818	10789.38
633.012	10465.8
633.206	10459.66
633.4	10586.63
633.594	10410.51
633.788	10568.2
633.982	10224.14
634.176	10492.43
634.369	10215.95
634.563	10312.21
634.757	10066.45
634.951	10179.09
635.145	10177.04
635.339	10105.36
635.533	10023.44
635.726	9861.65
635.92	9806.36
636.114	9857.56
636.308	9855.51
636.501	9617.94
636.695	9804.31
636.889	9607.7
637.083	9663
637.276	9413.15
637.47	9450.01
637.664	9333.28
637.857	9392.67
638.051	9261.6
638.244	9286.17
638.438	9245.21
638.632	9110.05
638.825	8976.93
639.019	8956.45
639.212	9105.95
639.406	8878.63
639.599	8905.25
639.793	8899.11
639.986	8776.23
640.18	8778.28
640.373	8553
640.567	8684.07
640.76	8591.91
640.954	8546.86
641.147	8352.3
641.34	8438.31
641.534	8436.27
641.727	8481.32
641.92	8196.65
642.114	8221.23
642.307	8276.52
642.5	8260.14
642.694	8075.82
642.887	8124.97
643.08	8254
643.273	8041.01
643.467	7864.88
643.66	7932.47
643.853	7729.72
644.046	7815.73
644.239	8020.53
644.432	7764.53
644.626	7699
644.819	7660.09
645.012	7653.94
645.205	7651.89
645.398	7488.06
645.591	7512.63
645.784	7533.11
645.977	7406.14
646.17	7340.6
646.363	7354.94
646.556	7346.75
646.749	7205.44
646.942	7270.97
647.135	7092.8
647.328	7180.86
647.521	7080.51
647.714	7049.79
647.907	7051.84
648.099	7031.36
648.292	7117.37
648.485	6994.5
648.678	6822.47
648.871	6879.81
649.064	6781.51
649.256	6898.24
649.449	6771.27
649.642	6644.29
649.835	6709.83
650.027	6494.79
650.22	6408.78
650.413	6486.6
650.605	6500.94
650.798	6421.06
650.991	6459.98
651.183	6414.92
651.376	6441.54
651.568	6412.87
651.761	6279.75
651.954	6400.58
652.146	6300.23
652.339	6333
652.531	6163.02
652.724	6199.88
652.916	6064.72
653.109	6079.05
653.301	5972.56
653.494	6156.88
653.686	6029.9
653.879	5954.13
654.071	5962.32
654.263	5935.7
654.456	5872.21
654.648	6064.72
654.84	5845.59
655.033	5796.43
655.225	5702.23
655.417	5706.32
655.61	5886.54
655.802	5812.82
655.994	5620.31
656.186	5714.52
656.379	5583.45
656.571	5567.06
656.763	5583.45
656.955	5536.34
657.148	5759.57
657.34	5319.26
657.532	5345.88
657.724	5546.58
657.916	5544.53
658.108	5292.63
658.3	5311.07
658.492	5341.79
658.684	5239.39
658.876	5212.76
659.068	5233.24
659.26	5263.96
659.452	5251.67
659.644	5196.38
659.836	5128.8
660.028	5030.49
660.22	4938.34
660.412	4842.08
660.604	4969.05
660.796	4940.38
660.988	4891.23
661.18	5001.82
661.372	4829.79
661.563	4790.88
661.755	4756.07
661.947	4934.24
662.139	4817.51
662.331	4837.98
662.522	4751.97
662.714	4723.3
662.906	4762.21
663.097	4625
663.289	4665.96
663.481	4770.4
663.673	4741.73
663.864	4592.23
664.056	4538.98
664.247	4577.89
664.439	4526.69
664.631	4575.84
664.822	4450.92
665.014	4596.32
665.205	4553.32
665.397	4438.63
665.588	4438.63
665.78	4313.7
665.971	4311.66
666.163	4272.75
666.354	4315.75
666.546	4436.58
666.737	4186.73
666.929	4244.07
667.12	4375.14
667.311	4233.83
667.503	4262.51
667.694	4270.7
667.885	4285.03
668.077	4102.76
668.268	4084.33
668.459	4084.33
668.651	4096.62
668.842	4053.61
669.033	4053.61
669.224	4074.09
669.416	3957.36
669.607	3992.17
669.798	3957.36
669.989	3965.55
670.18	3875.44
670.371	3961.45
670.563	3859.06
670.754	3990.13
670.945	3895.92
671.136	3895.92
671.327	3986.03
671.518	3920.49
671.709	3777.14
671.9	3781.23
672.091	3719.79
672.282	3928.69
672.473	3818.1
672.664	3834.48
672.855	3832.43
673.046	3822.19
673.237	3717.75
673.428	3719.79
673.619	3781.23
673.809	3682.93
674	3605.11
674.191	3760.75
674.382	3693.17
674.573	3625.59
674.764	3738.23
674.954	3635.83
675.145	3623.54
675.336	3637.88
675.527	3666.55
675.717	3662.45
675.908	3586.68
676.099	3633.78
676.289	3609.2
676.48	3570.29
676.671	3484.28
676.861	3615.35
677.052	3498.61
677.243	3506.81
677.433	3494.52
677.624	3515
677.814	3488.37
678.005	3570.29
678.195	3629.68
678.386	3414.65
678.576	3392.12
678.767	3373.69
678.957	3428.98
679.148	3398.26
679.338	3482.23
679.529	3482.23
679.719	3457.65
679.909	3498.61
680.1	3377.78
680.29	3381.88
680.481	3428.98
680.671	3433.08
680.861	3367.54
681.052	3299.96
681.242	3342.97
681.432	3392.12
681.622	3199.61
681.813	3353.21
682.003	3267.19
682.193	3461.75
682.383	3433.08
682.573	3193.47
682.764	3263.1
682.954	3359.35
683.144	3379.83
683.334	3189.37
683.524	3340.92
683.714	3215.99
683.904	3297.91
684.094	3295.86
684.284	3336.82
684.474	3267.19
684.664	3215.99
684.854	3197.56
685.044	3304.06
685.234	3129.98
685.424	3211.9
685.614	3136.12
685.804	3156.6
685.994	3111.55
686.184	3304.06
686.374	3207.8
686.564	3113.6
686.753	3277.43
686.943	3185.27
687.133	3109.5
687.323	3101.31
687.513	3095.16
687.702	3142.27
687.892	3072.64
688.082	3009.15
688.272	2998.91
688.461	3023.48
688.651	3056.25
688.841	2935.42
689.03	2972.29
689.22	2884.22
689.41	3021.44
689.599	3031.68
689.789	3029.63
689.979	2910.85
690.168	2960
690.358	2933.37
690.547	2828.93
690.737	2892.41
690.926	2847.36
691.116	2888.32
691.305	3003
691.495	2878.08
691.684	2820.74
691.874	2859.65
692.063	2861.69
692.252	2914.94
692.442	2630.27
692.631	2839.17
692.82	2730.62
693.01	2718.34
693.199	2699.91
693.388	2773.63
693.578	2771.58
693.767	2792.06
693.956	2751.1
694.146	2607.75
694.335	2761.34
694.524	2806.4
694.713	2728.58
694.902	2718.34
695.092	2771.58
695.281	2650.75
695.47	2673.28
695.659	2609.79
695.848	2669.19
696.037	2669.19
696.226	2675.33
696.415	2615.94
696.604	2601.6
696.793	2652.8
696.982	2650.75
697.171	2740.86
697.36	2632.32
697.549	2722.43
697.738	2708.1
697.927	2609.79
698.116	2673.28
698.305	2685.57
698.494	2630.27
698.683	2605.7
698.872	2675.33
699.061	2663.04
699.25	2736.77
699.438	2644.61
699.627	2640.51
699.816	2714.24
700.005	2656.9
700.193	2671.23
700.382	2626.18
700.571	2552.45
700.76	2701.95
700.948	2714.24
701.137	2663.04
701.326	2663.04
701.514	2478.72
701.703	2708.1
701.892	2648.71
702.08	2652.8
702.269	2626.18
702.457	2613.89
702.646	2634.37
702.834	2548.36
703.023	2599.55
703.212	2652.8
703.4	2687.62
703.589	2570.88
703.777	2744.96
703.965	2491.01
704.154	2593.41
704.342	2704
704.531	2628.23
704.719	2640.51
704.907	2593.41
705.096	2589.32
705.284	2570.88
705.472	2513.54
705.661	2747.01
705.849	2509.44
706.037	2742.91
706.226	2636.42
706.414	2667.14
706.602	2644.61
706.79	2763.39
706.979	2658.95
707.167	2663.04
707.355	2624.13
707.543	2677.38
707.731	2615.94
707.919	2607.75
708.107	2591.36
708.296	2613.89
708.484	2556.55
708.672	2722.43
708.86	2609.79
709.048	2667.14
709.236	2581.12
709.424	2585.22
709.612	2499.2
709.8	2548.36
709.988	2677.38
710.176	2634.37
710.364	2714.24
710.551	2593.41
710.739	2597.51
710.927	2579.08
711.115	2634.37
711.303	2646.66
711.491	2718.34
711.679	2595.46
711.866	2607.75
712.054	2634.37
712.242	2628.23
712.43	2763.39
712.617	2564.74
712.805	2464.39
712.993	2656.9
713.181	2611.84
713.368	2566.79
713.556	2687.62
713.744	2570.88
713.931	2607.75
714.119	2601.6
714.306	2589.32
714.494	2601.6
714.682	2583.17
714.869	2564.74
715.057	2718.34
715.244	2529.92
715.432	2486.92
715.619	2687.62
715.807	2529.92
715.994	2605.7
716.182	2613.89
716.369	2671.23
716.556	2583.17
716.744	2601.6
716.931	2669.19
717.119	2636.42
717.306	2605.7
717.493	2630.27
717.681	2624.13
717.868	2656.9
718.055	2583.17
718.242	2691.71
718.43	2663.04
718.617	2562.69
718.804	2585.22
718.991	2548.36
719.179	2622.08
719.366	2501.25
719.553	2564.74
719.74	2603.65
719.927	2593.41
720.114	2634.37
720.301	2560.64
720.488	2591.36
720.676	2468.48
720.863	2595.46
721.05	2556.55
721.237	2630.27
721.424	2505.35
721.611	2550.4
721.798	2642.56
721.985	2622.08
722.172	2642.56
722.358	2585.22
722.545	2716.29
722.732	2613.89
722.919	2509.44
723.106	2560.64
723.293	2644.61
723.48	2556.55
723.667	2515.59
723.853	2599.55
724.04	2597.51
724.227	2685.57
724.414	2488.96
724.6	2556.55
724.787	2488.96
724.974	2540.16
725.161	2499.2
725.347	2484.87
725.534	2478.72
725.72	2517.64
725.907	2505.35
726.094	2507.4
726.28	2550.4
726.467	2611.84
726.653	2605.7
726.84	2640.51
727.027	2636.42
727.213	2372.23
727.4	2531.97
727.586	2513.54
727.773	2462.34
727.959	2613.89
728.145	2503.3
728.332	2495.11
728.518	2687.62
728.705	2474.63
728.891	2495.11
729.077	2448.01
729.264	2626.18
729.45	2650.75
729.636	2568.84
729.823	2513.54
730.009	2642.56
730.195	2589.32
730.382	2577.03
730.568	2527.88
730.754	2665.09
730.94	2503.3
731.126	2491.01
731.313	2544.26
731.499	2505.35
731.685	2534.02
731.871	2497.16
732.057	2474.63
732.243	2450.05
732.429	2499.2
732.615	2431.62
732.801	2550.4
732.987	2673.28
733.173	2427.53
733.359	2605.7
733.545	2421.38
733.731	2515.59
733.917	2511.49
734.103	2605.7
734.289	2534.02
734.475	2486.92
734.661	2550.4
734.847	2515.59
735.033	2542.21
735.219	2534.02
735.404	2583.17
735.59	2615.94
735.776	2460.29
735.962	2560.64
736.148	2523.78
736.333	2503.3
736.519	2310.79
736.705	2515.59
736.89	2540.16
737.076	2513.54
737.262	2411.14
737.447	2415.24
737.633	2464.39
737.819	2450.05
738.004	2476.68
738.19	2470.53
738.375	2435.72
738.561	2505.35
738.747	2433.67
738.932	2407.05
739.118	2441.86
739.303	2413.19
739.489	2443.91
739.674	2466.44
739.859	2386.57
740.045	2327.18
740.23	2298.5
740.416	2267.78
740.601	2429.57
740.786	2341.51
740.972	2325.13
741.157	2454.15
741.342	2288.26
741.528	2304.65
741.713	2357.89
741.898	2282.12
742.084	2292.36
742.269	2310.79
742.454	2228.87
742.639	2300.55
742.824	2183.82
743.01	2323.08
743.195	2237.06
743.38	2409.09
743.565	2235.02
743.75	2235.02
743.935	2220.68
744.12	2257.54
744.305	2114.19
744.49	2132.62
744.675	2212.49
744.86	2194.06
745.045	2161.29
745.23	2241.16
745.415	2130.57
745.6	2105.99
745.785	2177.67
745.97	2114.19
746.155	2138.76
746.34	2093.71
746.525	2009.74
746.71	2196.11
746.895	1933.97
747.079	2019.98
747.264	1936.01
747.449	1987.21
747.634	1997.45
747.819	2009.74
748.003	1995.4
748.188	2030.22
748.373	1954.44
748.557	1917.58
748.742	1999.5
748.927	2052.75
749.111	1868.43
749.296	1841.81
749.481	1999.5
749.665	1880.72
749.85	1768.08
750.034	1907.34
750.219	1886.86
750.404	1776.27
750.588	1768.08
750.773	1794.7
750.957	1741.46
751.141	1811.09
751.326	1741.46
751.51	1835.66
751.695	1702.54
751.879	1798.8
752.064	1831.57
752.248	1741.46
752.432	1680.02
752.617	1684.11
752.801	1708.69
752.985	1686.16
753.17	1725.07
753.354	1602.19
753.538	1688.21
753.722	1600.15
753.907	1637.01
754.091	1628.82
754.275	1561.23
754.459	1553.04
754.643	1561.23
754.828	1475.22
755.012	1561.23
755.196	1571.47
755.38	1419.92
755.564	1536.66
755.748	1448.6
755.932	1475.22
756.116	1542.8
756.3	1483.41
756.484	1434.26
756.668	1477.27
756.852	1471.12
757.036	1360.53
757.22	1495.7
757.404	1473.17
757.588	1393.3
757.772	1438.36
757.956	1415.83
758.14	1372.82
758.323	1338.01
758.507	1329.81
758.691	1284.76
758.875	1366.68
759.059	1436.31
759.242	1381.01
759.426	1268.38
759.61	1233.56
759.794	1243.8
759.977	1243.8
760.161	1251.99
760.345	1362.58
760.528	1325.72
760.712	1368.73
760.895	1305.24
761.079	1311.38
761.263	1245.85
761.446	1178.26
761.63	1243.8
761.813	1159.83
761.997	1258.14
762.18	1239.7
762.364	1180.31
762.547	1176.22
762.731	1276.57
762.914	1165.98
763.098	1163.93
763.281	1219.22
763.464	1278.62
763.648	1176.22
763.831	1190.55
764.015	1213.08
764.198	1176.22
764.381	1182.36
764.564	1149.59
764.748	1135.26
764.931	1131.16
765.114	1137.31
765.297	1122.97
765.481	1086.11
765.664	1161.88
765.847	1065.63
766.03	1131.16
766.213	1127.07
766.397	1137.31
766.58	1094.3
766.763	1084.06
766.946	1086.11
767.129	1075.87
767.312	1049.24
767.495	1110.68
767.678	1016.48
767.861	1079.96
768.044	1090.2
768.227	1000.09
768.41	1026.71
768.593	1004.19
768.776	1012.38
768.959	1000.09
769.142	1055.39
769.324	959.13
769.507	969.37
769.69	1006.24
769.873	971.42
770.056	1049.24
770.239	996
770.421	1077.91
770.604	938.65
770.787	989.85
770.97	946.84
771.152	932.51
771.335	907.93
771.518	871.07
771.7	981.66
771.883	936.6
772.066	938.65
772.248	901.79
772.431	942.75
772.613	885.41
772.796	961.18
772.978	901.79
773.161	893.6
773.343	991.9
773.526	860.83
773.708	893.6
773.891	875.17
774.073	821.92
774.256	807.58
774.438	897.69
774.621	817.82
774.803	852.64
774.985	834.21
775.168	819.87
775.35	793.25
775.532	834.21
775.715	823.97
775.897	803.49
776.079	823.97
776.261	836.25
776.444	780.96
776.626	758.43
776.808	727.71
776.99	723.62
777.173	768.67
777.355	770.72
777.537	783.01
777.719	707.23
777.901	748.19
778.083	797.34
778.265	709.28
778.447	752.29
778.629	651.94
778.811	690.85
778.993	696.99
779.175	709.28
779.357	705.18
779.539	631.46
779.721	705.18
779.903	690.85
780.085	641.7
780.267	717.47
780.449	643.74
780.631	578.21
780.812	625.31
780.994	660.13
781.176	682.66
781.358	545.44
781.54	660.13
781.721	658.08
781.903	615.07
782.085	592.55
782.267	653.98
782.448	613.03
782.63	574.11
782.812	610.98
782.993	633.5
783.175	488.1
783.357	555.68
783.538	537.25
783.72	432.8
783.901	582.31
784.083	559.78
784.264	516.77
784.446	578.21
784.627	549.54
784.809	578.21
784.99	498.34
785.172	527.01
785.353	533.15
785.535	506.53
785.716	488.1
785.897	520.87
786.079	520.87
786.26	481.96
786.441	496.29
786.623	580.26
786.804	465.57
786.985	488.1
787.167	479.91
787.348	596.64
787.529	486.05
787.71	387.75
787.891	461.48
788.073	443.04
788.254	477.86
788.435	412.32
788.616	473.76
788.797	406.18
788.978	410.28
789.159	477.86
789.34	412.32
789.522	467.62
789.703	494.24
789.884	445.09
790.065	432.8
790.246	457.38
790.427	412.32
790.607	395.94
790.788	363.17
790.969	393.89
791.15	402.08
791.331	387.75
791.512	373.41
791.693	377.51
791.874	443.04
792.054	379.56
792.235	455.33
792.416	346.79
792.597	397.99
792.778	391.84
792.958	400.04
793.139	373.41
793.32	369.32
793.5	408.23
793.681	363.17
793.862	416.42
794.042	260.77
794.223	334.5
794.404	352.93
794.584	318.12
794.765	314.02
794.945	326.31
795.126	326.31
795.306	367.27
795.487	342.69
795.667	336.55
795.848	346.79
796.028	328.36
796.209	291.49
796.389	252.58
796.57	352.93
796.75	242.34
796.93	256.68
797.111	262.82
797.291	324.26
797.471	354.98
797.652	318.12
797.832	277.16
798.012	348.84
798.192	268.97
798.373	324.26
798.553	359.08
798.733	326.31
798.913	348.84
799.093	279.21
799.274	260.77
799.454	248.49
799.634	266.92
799.814	301.73
799.994	352.93
800.174	307.88
800.354	266.92
800.534	322.21
800.714	309.93
800.894	262.82
801.074	283.3
801.254	305.83
801.434	305.83
801.614	217.77
801.794	271.01
801.974	600.74
802.154	168.62
802.334	223.91
802.514	314.02
802.693	236.2
802.873	219.82
803.053	230.06
803.233	273.06
803.413	203.43
803.592	213.67
803.772	285.35
803.952	213.67
804.131	197.29
804.311	240.29
804.491	254.63
804.67	193.19
804.85	211.62
805.03	258.73
805.209	228.01
805.389	182.95
805.568	221.86
805.748	260.77
805.928	242.34
806.107	193.19
806.287	273.06
806.466	240.29
806.646	250.53
806.825	213.67
807.004	205.48
807.184	172.71
807.363	187.05
807.543	191.14
807.722	252.58
807.901	168.62
808.081	264.87
808.26	119.46
808.439	199.34
808.619	213.67
808.798	195.24
808.977	230.06
809.156	264.87
809.336	256.68
809.515	271.01
809.694	156.33
809.873	185
810.052	205.48
810.231	221.86
810.411	168.62
810.59	152.23
810.769	125.61
810.948	234.15
811.127	197.29
811.306	219.82
811.485	191.14
811.664	193.19
811.843	152.23
812.022	185
812.201	187.05
812.38	215.72
812.559	152.23
812.737	199.34
812.916	152.23
813.095	168.62
813.274	195.24
813.453	209.58
813.632	215.72
813.811	189.1
813.989	148.14
814.168	187.05
814.347	131.75
814.526	180.9
814.704	187.05
814.883	201.38
815.062	109.22
815.24	232.1
815.419	148.14
815.598	162.47
815.776	146.09
815.955	144.04
816.133	123.56
816.312	185
816.49	121.51
816.669	185
816.847	98.99
817.026	144.04
817.204	135.85
817.383	176.81
817.561	94.89
817.74	178.86
817.918	193.19
818.097	162.47
818.275	146.09
818.453	162.47
818.632	133.8
818.81	174.76
818.988	68.27
819.167	148.14
819.345	131.75
819.523	189.1
819.701	131.75
819.879	164.52
820.058	29.35
820.236	146.09
820.414	176.81
820.592	119.46
820.77	174.76
820.948	125.61
821.127	154.28
821.305	148.14
821.483	43.69
821.661	131.75
821.839	131.75
822.017	127.66
822.195	88.75
822.373	156.33
822.551	82.6
822.729	168.62
822.907	111.27
823.085	148.14
823.262	103.08
823.44	146.09
823.618	139.94
823.796	168.62
823.974	119.46
824.152	76.46
824.329	160.42
824.507	64.17
824.685	144.04
824.863	172.71
825.04	117.42
825.218	150.18
825.396	51.88
825.574	180.9
825.751	150.18
825.929	133.8
826.107	58.03
826.284	90.79
826.462	111.27
826.639	164.52
826.817	80.55
826.994	141.99
827.172	82.6
827.349	101.03
827.527	107.18
827.704	105.13
827.882	182.95
828.059	70.31
828.237	129.7
828.414	133.8
828.591	80.55
828.769	152.23
828.946	141.99
829.124	191.14
829.301	125.61
829.478	154.28
829.655	119.46
829.833	82.6
830.01	60.07
830.187	131.75
830.364	127.66
830.542	27.31
830.719	164.52
830.896	205.48
831.073	45.74
831.25	133.8
831.427	135.85
831.604	64.17
831.782	64.17
831.959	94.89
832.136	146.09
832.313	72.36
832.49	72.36
832.667	127.66
832.844	123.56
833.021	37.55
833.198	98.99
833.374	129.7
833.551	58.03
833.728	39.59
833.905	72.36
834.082	96.94
834.259	62.12
834.436	191.14
834.612	129.7
834.789	176.81
834.966	103.08
835.143	35.5
835.319	82.6
835.496	150.18
835.673	92.84
835.85	33.45
836.026	86.7
836.203	76.46
836.38	88.75
836.556	84.65
836.733	37.55
836.909	58.03
837.086	117.42
837.262	43.69
837.439	78.51
837.616	105.13
837.792	53.93
837.968	19.11
838.145	88.75
838.321	64.17
838.498	64.17
838.674	92.84
838.851	78.51
839.027	123.56
839.203	25.26
839.38	58.03
839.556	88.75
839.732	84.65
839.909	74.41
840.085	27.31
840.261	29.35
840.437	37.55
840.614	33.45
840.79	109.22
840.966	107.18
841.142	103.08
841.318	39.59
841.494	82.6
841.671	51.88
841.847	-32.08
842.023	33.45
842.199	90.79
842.375	123.56
842.551	70.31
842.727	94.89
842.903	70.31
843.079	72.36
843.255	148.14
843.431	-11.61
843.607	68.27
843.783	45.74
843.959	103.08
844.134	60.07
844.31	53.93
844.486	115.37
844.662	49.83
844.838	17.07
845.013	6.83
845.189	103.08
845.365	17.07
845.541	8.87
845.716	31.4
845.892	156.33
846.068	35.5
846.244	68.27
846.419	148.14
846.595	62.12
846.77	19.11
846.946	53.93
847.122	29.35
847.297	8.87
847.473	45.74
847.648	39.59
847.824	72.36
847.999	33.45
848.175	37.55
848.35	66.22
848.526	58.03
848.701	70.31
848.876	66.22
849.052	31.4
849.227	64.17
849.403	-9.56
849.578	64.17
849.753	84.65
849.929	31.4
850.104	55.98
850.279	66.22
850.454	58.03
850.63	43.69
850.805	80.55
850.98	45.74
851.155	82.6
851.33	49.83
851.505	-44.37
851.681	64.17
851.856	-1.37
852.031	146.09
852.206	19.11
852.381	31.4
852.556	78.51
852.731	72.36
852.906	29.35
853.081	68.27
853.256	53.93
853.431	60.07
853.606	-21.85
853.781	21.16
853.956	-15.7
854.131	47.79
854.305	68.27
854.48	37.55
854.655	-11.61
854.83	144.04
855.005	94.89
855.18	43.69
855.354	51.88
855.529	37.55
855.704	-15.7
855.879	62.12
856.053	23.21
856.228	101.03
856.403	43.69
856.577	133.8
856.752	29.35
856.926	29.35
857.101	64.17
857.276	-3.41
857.45	92.84
857.625	70.31
857.799	33.45
857.974	-58.71
858.148	-87.38
858.323	76.46
858.497	47.79
858.672	29.35
858.846	-15.7
859.02	135.85
859.195	49.83
859.369	49.83
859.543	55.98
859.718	55.98
859.892	-21.85
860.066	2.73
860.241	43.69
860.415	-17.75
860.589	0.68
860.763	64.17
860.938	33.45
861.112	88.75
861.286	62.12
861.46	-97.62
861.634	19.11
861.808	129.7
861.982	29.35
862.157	62.12
862.331	-13.65
862.505	27.31
862.679	-27.99
862.853	-13.65
863.027	33.45
863.201	12.97
863.375	31.4
863.549	74.41
863.722	10.92
863.896	-13.65
864.07	-36.18
864.244	-21.85
864.418	88.75
864.592	72.36
864.766	107.18
864.939	53.93
865.113	23.21
865.287	21.16
865.461	17.07
865.634	29.35
865.808	70.31
865.982	41.64
866.156	41.64
866.329	39.59
866.503	2.73
866.676	53.93
866.85	33.45
867.024	-19.8
867.197	-7.51
867.371	43.69
867.544	27.31
867.718	6.83
867.891	8.87
868.065	25.26
868.238	74.41
868.412	35.5
868.585	55.98
868.759	41.64
868.932	-11.61
869.105	0.68
869.279	2.73
869.452	-34.13
869.625	51.88
869.799	-11.61
869.972	-9.56
870.145	45.74
870.319	39.59
870.492	27.31
870.665	-32.08
870.838	25.26
871.011	-27.99
871.185	66.22
871.358	74.41
871.531	66.22
871.704	0.68
871.877	4.78
872.05	33.45
872.223	-5.46
872.396	-15.7
872.569	78.51
872.742	19.11
872.915	94.89
873.088	-54.61
873.261	74.41
873.434	76.46
873.607	-11.61
873.78	4.78
873.953	82.6
874.126	17.07
874.299	37.55
874.471	15.02
874.644	27.31
874.817	-11.61
874.99	49.83
875.163	19.11
875.335	-1.37
875.508	21.16
875.681	27.31
875.853	-11.61
876.026	78.51
876.199	49.83
876.371	74.41
876.544	4.78
876.717	-7.51
876.889	-7.51
877.062	2.73
877.234	4.78
877.407	-7.51
877.579	41.64
877.752	31.4
877.924	78.51
878.097	37.55
878.269	27.31
878.442	2.73
878.614	-19.8
878.786	27.31
878.959	23.21
879.131	4.78
879.303	4.78
879.476	-21.85
879.648	-21.85
879.82	90.79
879.993	-36.18
880.165	70.31
880.337	10.92
880.509	31.4
880.681	-30.04
880.854	-11.61
881.026	29.35
881.198	60.07
881.37	8.87
881.542	39.59
881.714	-11.61
881.886	21.16
882.058	31.4
882.23	12.97
882.402	21.16
882.574	43.69
882.746	6.83
882.918	35.5
883.09	-21.85
883.262	35.5
883.434	4.78
883.606	90.79
883.778	-38.23
883.95	49.83
884.122	-36.18
884.293	37.55
884.465	6.83
884.637	29.35
884.809	8.87
884.98	60.07
885.152	49.83
885.324	-15.7
885.496	-11.61
885.667	21.16
885.839	19.11
886.011	45.74
886.182	-27.99
886.354	74.41
886.525	27.31
886.697	-3.41
886.869	-36.18
887.04	86.7
887.212	17.07
887.383	37.55
887.555	10.92
887.726	23.21
887.897	94.89
888.069	19.11
888.24	-5.46
888.412	80.55
888.583	-17.75
888.754	92.84
888.926	17.07
889.097	-15.7
889.268	43.69
889.44	70.31
889.611	-64.85
889.782	-99.67
889.953	-54.61
890.125	-7.51
890.296	-75.09
890.467	-15.7
890.638	12.97
890.809	98.99
890.98	-7.51
891.151	53.93
891.323	82.6
891.494	31.4
891.665	8.87
891.836	41.64
892.007	53.93
892.178	27.31
892.349	17.07
892.52	35.5
892.691	53.93
892.862	39.59
893.032	0.68
893.203	45.74
893.374	-11.61
893.545	90.79
893.716	78.51
893.887	10.92
894.057	25.26
894.228	4.78
894.399	-1.37
894.57	35.5
894.74	21.16
894.911	-1.37
895.082	-11.61
895.253	-3.41
895.423	51.88
895.594	-7.51
895.764	-13.65
895.935	-23.89
896.106	82.6
896.276	4.78
896.447	15.02
896.617	-3.41
896.788	-17.75
896.958	4.78
897.129	-21.85
897.299	33.45
897.47	-30.04
897.64	-11.61
897.81	-40.28
897.981	2.73
898.151	31.4
898.322	58.03
898.492	-15.7
898.662	-1.37
898.832	53.93
899.003	66.22
899.173	17.07
899.343	-15.7
899.513	66.22
