Data from USB4F104151__138__11-07-57-834.txt Node

Date: Wed Mar 12 11:07:57 EDT 2025
User: louis
Spectrometer: USB4F10415
Trigger mode: 4
Integration Time (sec): 2.000000E-2
Scans to average: 1
Electric dark correction enabled: true
Nonlinearity correction enabled: false
Boxcar width: 0
XAxis mode: Wavelengths
Number of Pixels in Spectrum: 3648
>>>>>Begin Spectral Data<<<<<
178.204	-82.77
178.424	-82.77
178.644	-82.77
178.864	-111.44
179.084	-56.15
179.304	-66.39
179.524	3.24
179.744	-31.57
179.964	29.87
180.184	-9.05
180.404	-17.24
180.624	3.24
180.844	33.96
181.064	-17.24
181.283	29.87
181.503	15.53
181.723	25.77
181.943	-37.72
182.163	-29.52
182.383	-7
182.602	-25.43
182.822	-0.85
183.042	60.59
183.262	-25.43
183.482	-9.05
183.701	3.24
183.921	36.01
184.141	-84.82
184.361	-9.05
184.58	29.87
184.8	15.53
185.02	-23.38
185.239	-37.72
185.459	-9.05
185.679	56.49
185.898	-70.48
186.118	-9.05
186.338	-4.95
186.557	54.44
186.777	-15.19
186.997	-0.85
187.216	72.87
187.436	83.11
187.655	25.77
187.875	29.87
188.095	62.63
188.314	60.59
188.534	-33.62
188.753	7.34
188.973	-0.85
189.192	56.49
189.412	-25.43
189.631	38.06
189.851	15.53
190.07	36.01
190.29	-13.14
190.509	25.77
190.729	-58.2
190.948	68.78
191.168	91.31
191.387	-25.43
191.607	-17.24
191.826	7.34
192.045	9.39
192.265	-19.29
192.484	-50
192.704	48.3
192.923	-17.24
193.142	36.01
193.362	-0.85
193.581	23.72
193.8	-68.44
194.02	-23.38
194.239	79.02
194.458	128.17
194.678	-43.86
194.897	29.87
195.116	23.72
195.335	36.01
195.555	-25.43
195.774	38.06
195.993	68.78
196.212	-7
196.432	-23.38
196.651	-15.19
196.87	42.15
197.089	15.53
197.308	50.35
197.528	3.24
197.747	-2.9
197.966	40.11
198.185	31.91
198.404	-54.1
198.623	25.77
198.842	-2.9
199.062	70.83
199.281	5.29
199.5	19.63
199.719	40.11
199.938	50.35
200.157	27.82
200.376	-4.95
200.595	60.59
200.814	42.15
201.033	33.96
201.252	21.67
201.471	27.82
201.69	-13.14
201.909	-43.86
202.128	62.63
202.347	15.53
202.566	-29.52
202.785	13.48
203.004	-17.24
203.223	40.11
203.442	66.73
203.661	-15.19
203.879	-0.85
204.098	-15.19
204.317	-2.9
204.536	54.44
204.755	7.34
204.974	11.43
205.193	-23.38
205.411	89.26
205.63	-72.53
205.849	3.24
206.068	-62.29
206.287	19.63
206.505	31.91
206.724	-64.34
206.943	3.24
207.162	-27.48
207.381	-25.43
207.599	-31.57
207.818	-25.43
208.037	-17.24
208.255	-0.85
208.474	62.63
208.693	-15.19
208.911	1.19
209.13	11.43
209.349	-19.29
209.567	36.01
209.786	7.34
210.005	83.11
210.223	-9.05
210.442	-27.48
210.661	-9.05
210.879	-23.38
211.098	3.24
211.316	-41.81
211.535	85.16
211.753	-4.95
211.972	70.83
212.191	23.72
212.409	-13.14
212.628	-29.52
212.846	38.06
213.065	42.15
213.283	68.78
213.502	-0.85
213.72	-70.48
213.938	48.3
214.157	13.48
214.375	44.2
214.594	13.48
214.812	11.43
215.031	46.25
215.249	13.48
215.467	31.91
215.686	23.72
215.904	-27.48
216.122	-29.52
216.341	-11.09
216.559	-29.52
216.778	19.63
216.996	5.29
217.214	-11.09
217.432	-4.95
217.651	62.63
217.869	-19.29
218.087	-0.85
218.306	-33.62
218.524	-17.24
218.742	42.15
218.96	81.07
219.179	-0.85
219.397	40.11
219.615	44.2
219.833	46.25
220.051	79.02
220.27	95.4
220.488	38.06
220.706	31.91
220.924	58.54
221.142	-29.52
221.36	48.3
221.578	11.43
221.796	3.24
222.015	40.11
222.233	-29.52
222.451	-62.29
222.669	-33.62
222.887	7.34
223.105	-39.76
223.323	44.2
223.541	-11.09
223.759	44.2
223.977	48.3
224.195	-4.95
224.413	19.63
224.631	64.68
224.849	31.91
225.067	29.87
225.285	42.15
225.503	-11.09
225.721	-58.2
225.939	38.06
226.157	13.48
226.375	21.67
226.592	1.19
226.81	11.43
227.028	11.43
227.246	68.78
227.464	-19.29
227.682	-7
227.9	-13.14
228.117	11.43
228.335	-33.62
228.553	-7
228.771	5.29
228.989	-64.34
229.206	68.78
229.424	13.48
229.642	-2.9
229.86	-50
230.077	29.87
230.295	19.63
230.513	25.77
230.731	54.44
230.948	33.96
231.166	56.49
231.384	-47.96
231.601	-33.62
231.819	-27.48
232.037	-33.62
232.254	-17.24
232.472	-41.81
232.689	-45.91
232.907	-43.86
233.125	7.34
233.342	-43.86
233.56	27.82
233.777	-4.95
233.995	5.29
234.213	42.15
234.43	-76.63
234.648	-29.52
234.865	-9.05
235.083	66.73
235.3	-9.05
235.518	-2.9
235.735	40.11
235.953	19.63
236.17	-7
236.388	44.2
236.605	19.63
236.822	60.59
237.04	-21.33
237.257	44.2
237.475	-31.57
237.692	7.34
237.909	31.91
238.127	17.58
238.344	-0.85
238.562	29.87
238.779	-29.52
238.996	-13.14
239.214	-37.72
239.431	52.39
239.648	3.24
239.865	113.83
240.083	33.96
240.3	-52.05
240.517	-0.85
240.735	40.11
240.952	38.06
241.169	7.34
241.386	7.34
241.603	-15.19
241.821	-19.29
242.038	72.87
242.255	70.83
242.472	23.72
242.689	46.25
242.907	-0.85
243.124	60.59
243.341	-25.43
243.558	19.63
243.775	7.34
243.992	-39.76
244.209	52.39
244.426	48.3
244.643	25.77
244.86	52.39
245.078	-13.14
245.295	9.39
245.512	27.82
245.729	-11.09
245.946	-27.48
246.163	89.26
246.38	31.91
246.597	83.11
246.814	-74.58
247.031	11.43
247.248	54.44
247.464	-2.9
247.681	-2.9
247.898	-52.05
248.115	85.16
248.332	9.39
248.549	48.3
248.766	-35.67
248.983	-9.05
249.2	19.63
249.417	15.53
249.633	101.55
249.85	56.49
250.067	17.58
250.284	13.48
250.501	48.3
250.717	19.63
250.934	-54.1
251.151	-13.14
251.368	9.39
251.585	101.55
251.801	15.53
252.018	19.63
252.235	-21.33
252.451	-25.43
252.668	-33.62
252.885	33.96
253.102	23.72
253.318	7.34
253.535	-9.05
253.752	-9.05
253.968	40.11
254.185	-15.19
254.401	-23.38
254.618	-4.95
254.835	13.48
255.051	44.2
255.268	27.82
255.484	-4.95
255.701	31.91
255.917	68.78
256.134	27.82
256.351	58.54
256.567	-62.29
256.784	-37.72
257	29.87
257.217	54.44
257.433	38.06
257.65	-47.96
257.866	-25.43
258.082	27.82
258.299	-45.91
258.515	23.72
258.732	-19.29
258.948	7.34
259.165	23.72
259.381	23.72
259.597	17.58
259.814	-43.86
260.03	-2.9
260.246	52.39
260.463	11.43
260.679	15.53
260.895	-29.52
261.112	56.49
261.328	-0.85
261.544	19.63
261.761	29.87
261.977	23.72
262.193	21.67
262.409	25.77
262.626	36.01
262.842	36.01
263.058	-45.91
263.274	64.68
263.49	50.35
263.707	11.43
263.923	89.26
264.139	-33.62
264.355	13.48
264.571	-11.09
264.787	19.63
265.004	-2.9
265.22	33.96
265.436	19.63
265.652	-2.9
265.868	11.43
266.084	-72.53
266.3	23.72
266.516	7.34
266.732	-43.86
266.948	21.67
267.164	44.2
267.38	31.91
267.596	31.91
267.812	36.01
268.028	113.83
268.244	-39.76
268.46	54.44
268.676	29.87
268.892	-45.91
269.108	64.68
269.324	3.24
269.54	5.29
269.756	58.54
269.972	-58.2
270.188	31.91
270.403	5.29
270.619	-4.95
270.835	56.49
271.051	-29.52
271.267	-21.33
271.483	7.34
271.698	13.48
271.914	85.16
272.13	-37.72
272.346	-68.44
272.562	27.82
272.777	33.96
272.993	21.67
273.209	-41.81
273.425	11.43
273.64	-0.85
273.856	72.87
274.072	-45.91
274.287	23.72
274.503	-39.76
274.719	50.35
274.934	15.53
275.15	-15.19
275.366	68.78
275.581	-41.81
275.797	-9.05
276.012	-45.91
276.228	21.67
276.444	-7
276.659	68.78
276.875	-17.24
277.09	11.43
277.306	-60.24
277.521	13.48
277.737	-41.81
277.952	54.44
278.168	85.16
278.383	42.15
278.599	-35.67
278.814	52.39
279.03	-25.43
279.245	93.35
279.461	-52.05
279.676	60.59
279.892	-33.62
280.107	-0.85
280.322	29.87
280.538	40.11
280.753	3.24
280.969	29.87
281.184	-15.19
281.399	50.35
281.615	5.29
281.83	-25.43
282.045	-0.85
282.26	-21.33
282.476	25.77
282.691	66.73
282.906	-0.85
283.122	-2.9
283.337	-11.09
283.552	44.2
283.767	81.07
283.983	19.63
284.198	40.11
284.413	11.43
284.628	-35.67
284.843	38.06
285.058	29.87
285.274	5.29
285.489	-66.39
285.704	19.63
285.919	-35.67
286.134	-0.85
286.349	-33.62
286.564	25.77
286.779	-23.38
286.995	-33.62
287.21	7.34
287.425	15.53
287.64	-62.29
287.855	31.91
288.07	42.15
288.285	19.63
288.5	5.29
288.715	15.53
288.93	29.87
289.145	29.87
289.36	40.11
289.575	23.72
289.79	64.68
290.004	42.15
290.219	-4.95
290.434	-25.43
290.649	-50
290.864	-9.05
291.079	3.24
291.294	-4.95
291.509	-43.86
291.724	11.43
291.938	-7
292.153	-58.2
292.368	-9.05
292.583	42.15
292.798	-2.9
293.012	97.45
293.227	9.39
293.442	54.44
293.657	5.29
293.871	-19.29
294.086	46.25
294.301	7.34
294.516	19.63
294.73	-9.05
294.945	-19.29
295.16	56.49
295.374	81.07
295.589	33.96
295.804	-70.48
296.018	72.87
296.233	-11.09
296.447	13.48
296.662	-7
296.877	25.77
297.091	-4.95
297.306	42.15
297.52	-29.52
297.735	-21.33
297.949	15.53
298.164	7.34
298.378	7.34
298.593	36.01
298.807	29.87
299.022	23.72
299.236	15.53
299.451	50.35
299.665	25.77
299.88	15.53
300.094	11.43
300.309	46.25
300.523	11.43
300.737	38.06
300.952	52.39
301.166	101.55
301.381	-4.95
301.595	42.15
301.809	31.91
302.024	46.25
302.238	-54.1
302.452	103.59
302.667	79.02
302.881	5.29
303.095	117.93
303.309	-29.52
303.524	36.01
303.738	13.48
303.952	66.73
304.166	7.34
304.381	-50
304.595	111.78
304.809	-13.14
305.023	-7
305.237	19.63
305.452	-31.57
305.666	40.11
305.88	38.06
306.094	58.54
306.308	54.44
306.522	21.67
306.736	27.82
306.95	42.15
307.164	44.2
307.379	40.11
307.593	21.67
307.807	-23.38
308.021	13.48
308.235	81.07
308.449	15.53
308.663	27.82
308.877	23.72
309.091	-11.09
309.305	9.39
309.519	-41.81
309.733	-50
309.947	13.48
310.161	42.15
310.374	-19.29
310.588	79.02
310.802	15.53
311.016	54.44
311.23	13.48
311.444	46.25
311.658	13.48
311.872	105.64
312.085	17.58
312.299	50.35
312.513	64.68
312.727	70.83
312.941	-25.43
313.154	46.25
313.368	113.83
313.582	7.34
313.796	5.29
314.009	58.54
314.223	58.54
314.437	-43.86
314.651	64.68
314.864	-43.86
315.078	7.34
315.292	3.24
315.505	-31.57
315.719	3.24
315.933	9.39
316.146	15.53
316.36	-17.24
316.573	-29.52
316.787	25.77
317.001	52.39
317.214	-0.85
317.428	40.11
317.641	25.77
317.855	64.68
318.068	3.24
318.282	5.29
318.495	134.31
318.709	29.87
318.922	-4.95
319.136	48.3
319.349	17.58
319.563	-7
319.776	-0.85
319.99	-11.09
320.203	-17.24
320.417	29.87
320.63	36.01
320.843	-45.91
321.057	64.68
321.27	25.77
321.483	33.96
321.697	66.73
321.91	48.3
322.124	15.53
322.337	76.97
322.55	46.25
322.763	40.11
322.977	13.48
323.19	76.97
323.403	29.87
323.617	5.29
323.83	48.3
324.043	40.11
324.256	-7
324.469	15.53
324.683	15.53
324.896	17.58
325.109	31.91
325.322	5.29
325.535	115.88
325.748	-11.09
325.962	74.92
326.175	56.49
326.388	48.3
326.601	101.55
326.814	46.25
327.027	-4.95
327.24	60.59
327.453	-37.72
327.666	46.25
327.879	146.6
328.092	60.59
328.305	11.43
328.518	-2.9
328.731	89.26
328.944	-0.85
329.157	9.39
329.37	15.53
329.583	48.3
329.796	50.35
330.009	-25.43
330.222	68.78
330.435	48.3
330.648	7.34
330.861	66.73
331.073	-7
331.286	1.19
331.499	48.3
331.712	27.82
331.925	-7
332.138	70.83
332.35	48.3
332.563	38.06
332.776	11.43
332.989	7.34
333.202	68.78
333.414	7.34
333.627	83.11
333.84	40.11
334.053	-25.43
334.265	21.67
334.478	40.11
334.691	-41.81
334.903	21.67
335.116	64.68
335.329	5.29
335.541	-37.72
335.754	27.82
335.966	-19.29
336.179	29.87
336.392	36.01
336.604	21.67
336.817	-0.85
337.029	31.91
337.242	1.19
337.454	52.39
337.667	50.35
337.88	101.55
338.092	-4.95
338.305	95.4
338.517	21.67
338.729	89.26
338.942	9.39
339.154	13.48
339.367	31.91
339.579	23.72
339.792	58.54
340.004	48.3
340.217	70.83
340.429	60.59
340.641	66.73
340.854	-0.85
341.066	-19.29
341.278	66.73
341.491	-19.29
341.703	76.97
341.915	-58.2
342.128	79.02
342.34	3.24
342.552	-37.72
342.764	68.78
342.977	-2.9
343.189	-23.38
343.401	-13.14
343.613	31.91
343.826	68.78
344.038	-17.24
344.25	1.19
344.462	21.67
344.674	76.97
344.886	7.34
345.099	138.41
345.311	58.54
345.523	48.3
345.735	-9.05
345.947	85.16
346.159	40.11
346.371	-17.24
346.583	40.11
346.795	15.53
347.007	-25.43
347.219	-7
347.431	9.39
347.643	31.91
347.855	31.91
348.067	119.98
348.279	-11.09
348.491	13.48
348.703	-25.43
348.915	23.72
349.127	19.63
349.339	50.35
349.551	29.87
349.763	3.24
349.975	66.73
350.187	56.49
350.399	19.63
350.61	-11.09
350.822	-2.9
351.034	-2.9
351.246	-7
351.458	-13.14
351.669	62.63
351.881	-15.19
352.093	83.11
352.305	5.29
352.517	3.24
352.728	54.44
352.94	44.2
353.152	79.02
353.363	-84.82
353.575	56.49
353.787	48.3
353.999	-19.29
354.21	87.21
354.422	13.48
354.633	21.67
354.845	40.11
355.057	23.72
355.268	-54.1
355.48	54.44
355.692	-41.81
355.903	117.93
356.115	21.67
356.326	13.48
356.538	50.35
356.749	76.97
356.961	81.07
357.172	-19.29
357.384	21.67
357.595	109.74
357.807	3.24
358.018	19.63
358.23	56.49
358.441	23.72
358.653	64.68
358.864	58.54
359.075	-15.19
359.287	19.63
359.498	64.68
359.709	3.24
359.921	-13.14
360.132	109.74
360.344	36.01
360.555	68.78
360.766	40.11
360.977	-17.24
361.189	33.96
361.4	23.72
361.611	36.01
361.823	31.91
362.034	40.11
362.245	21.67
362.456	99.5
362.667	50.35
362.879	58.54
363.09	-29.52
363.301	87.21
363.512	44.2
363.723	70.83
363.935	23.72
364.146	76.97
364.357	89.26
364.568	72.87
364.779	5.29
364.99	40.11
365.201	5.29
365.412	60.59
365.623	36.01
365.834	66.73
366.045	38.06
366.256	56.49
366.467	60.59
366.678	46.25
366.889	13.48
367.1	-15.19
367.311	111.78
367.522	-56.15
367.733	-9.05
367.944	23.72
368.155	40.11
368.366	1.19
368.577	60.59
368.788	103.59
368.999	36.01
369.209	15.53
369.42	54.44
369.631	101.55
369.842	21.67
370.053	-41.81
370.264	81.07
370.474	-23.38
370.685	13.48
370.896	11.43
371.107	17.58
371.317	21.67
371.528	-2.9
371.739	11.43
371.95	-11.09
372.16	48.3
372.371	40.11
372.582	38.06
372.792	7.34
373.003	33.96
373.214	17.58
373.424	-2.9
373.635	-68.44
373.846	66.73
374.056	40.11
374.267	-27.48
374.477	-9.05
374.688	38.06
374.898	44.2
375.109	-41.81
375.319	29.87
375.53	83.11
375.74	-29.52
375.951	109.74
376.161	-80.72
376.372	-72.53
376.582	29.87
376.793	25.77
377.003	27.82
377.214	40.11
377.424	19.63
377.635	7.34
377.845	-35.67
378.055	83.11
378.266	44.2
378.476	42.15
378.686	-23.38
378.897	-50
379.107	-37.72
379.317	48.3
379.528	27.82
379.738	3.24
379.948	31.91
380.158	-7
380.369	-2.9
380.579	85.16
380.789	13.48
380.999	27.82
381.21	23.72
381.42	64.68
381.63	-43.86
381.84	9.39
382.05	87.21
382.261	-19.29
382.471	64.68
382.681	64.68
382.891	40.11
383.101	56.49
383.311	-21.33
383.521	-0.85
383.731	31.91
383.941	-9.05
384.151	89.26
384.361	58.54
384.571	105.64
384.781	46.25
384.991	23.72
385.201	36.01
385.411	58.54
385.621	27.82
385.831	-107.35
386.041	15.53
386.251	134.31
386.461	107.69
386.671	89.26
386.881	60.59
387.091	36.01
387.301	19.63
387.511	-17.24
387.72	19.63
387.93	33.96
388.14	-2.9
388.35	46.25
388.56	25.77
388.769	19.63
388.979	42.15
389.189	-19.29
389.399	87.21
389.609	29.87
389.818	97.45
390.028	-11.09
390.238	56.49
390.447	70.83
390.657	23.72
390.867	48.3
391.076	50.35
391.286	11.43
391.496	52.39
391.705	19.63
391.915	134.31
392.125	58.54
392.334	31.91
392.544	52.39
392.753	85.16
392.963	-7
393.172	52.39
393.382	3.24
393.591	95.4
393.801	48.3
394.01	122.02
394.22	138.41
394.429	62.63
394.639	103.59
394.848	-7
395.058	76.97
395.267	165.03
395.477	40.11
395.686	56.49
395.895	62.63
396.105	42.15
396.314	48.3
396.524	134.31
396.733	50.35
396.942	46.25
397.152	95.4
397.361	33.96
397.57	66.73
397.78	46.25
397.989	56.49
398.198	130.22
398.407	-7
398.617	87.21
398.826	113.83
399.035	91.31
399.244	154.79
399.453	36.01
399.663	44.2
399.872	72.87
400.081	124.07
400.29	44.2
400.499	91.31
400.708	91.31
400.917	64.68
401.127	64.68
401.336	119.98
401.545	17.58
401.754	95.4
401.963	74.92
402.172	97.45
402.381	89.26
402.59	58.54
402.799	40.11
403.008	97.45
403.217	119.98
403.426	101.55
403.635	68.78
403.844	97.45
404.053	119.98
404.262	72.87
404.471	183.46
404.68	109.74
404.888	119.98
405.097	122.02
405.306	91.31
405.515	109.74
405.724	187.56
405.933	165.03
406.142	150.7
406.35	109.74
406.559	115.88
406.768	72.87
406.977	173.22
407.185	193.7
407.394	177.32
407.603	109.74
407.812	238.76
408.02	232.62
408.229	150.7
408.438	142.5
408.646	146.6
408.855	189.61
409.064	224.42
409.272	152.74
409.481	195.75
409.69	195.75
409.898	214.18
410.107	242.85
410.315	298.15
410.524	203.94
410.733	308.39
410.941	212.14
411.15	316.58
411.358	236.71
411.567	328.87
411.775	277.67
411.984	359.59
412.192	332.97
412.401	267.43
412.609	384.16
412.818	429.22
413.026	408.74
413.234	369.83
413.443	406.69
413.651	363.69
413.86	332.97
414.068	480.42
414.276	461.99
414.485	482.47
414.693	560.29
414.901	558.24
415.11	566.43
415.318	511.14
415.526	584.87
415.734	572.58
415.943	717.98
416.151	693.41
416.359	677.02
416.567	597.15
416.776	736.42
416.984	734.37
417.192	726.18
417.4	752.8
417.608	722.08
417.817	779.42
418.025	828.57
418.233	890.01
418.441	898.2
418.649	982.17
418.857	1006.75
419.065	1025.18
419.273	996.51
419.481	1082.52
419.689	1086.62
419.897	1119.39
420.105	1107.1
420.313	1180.82
420.521	1227.93
420.729	1229.98
420.937	1297.56
421.145	1311.89
421.353	1393.81
421.561	1430.68
421.769	1606.8
421.977	1535.12
422.185	1528.98
422.393	1666.19
422.601	1707.15
422.809	1641.62
423.017	1744.02
423.224	1918.09
423.432	1873.04
423.64	2030.73
423.848	2112.65
424.056	2104.46
424.263	2215.05
424.471	2188.43
424.679	2258.06
424.887	2409.61
425.094	2358.41
425.302	2477.19
425.51	2595.97
425.718	2681.99
425.925	2610.31
426.133	2813.06
426.341	2794.62
426.548	3112.06
426.756	3048.57
426.964	2991.23
427.171	3155.07
427.379	3335.29
427.586	3363.96
427.794	3443.83
428.001	3540.08
428.209	3775.6
428.417	3669.11
428.624	4029.55
428.832	4027.5
429.039	3976.3
429.247	3988.59
429.454	4326.5
429.662	4742.24
429.869	4310.12
430.076	4512.87
430.284	4516.97
430.491	4643.94
430.699	5041.25
430.906	4947.04
431.114	5137.5
431.321	5178.46
431.528	5157.98
431.736	5651.54
431.943	5925.97
432.15	5688.4
432.358	5940.3
432.565	6239.31
432.772	6136.91
432.979	6388.81
433.187	6663.24
433.394	6669.38
433.601	7023.68
433.808	7015.49
434.016	7171.13
434.223	7310.4
434.43	7719.99
434.637	7642.17
434.844	8076.34
435.052	8358.96
435.259	8051.76
435.466	8358.96
435.673	8260.65
435.88	8932.39
436.087	9307.16
436.294	9274.4
436.501	8797.22
436.708	9206.81
436.915	9643.03
437.122	9847.83
437.329	9925.65
437.537	10079.25
437.743	10419.21
437.95	10073.1
438.157	10910.72
438.364	11455.48
438.571	11211.78
438.778	11250.69
438.985	12213.23
439.192	11672.57
439.399	12332.01
439.606	11918.32
439.813	12565.48
440.02	13333.47
440.227	12803.05
440.433	12991.46
440.64	13386.72
440.847	13315.04
441.054	13618.14
441.261	14554.06
441.467	14326.74
441.674	14681.03
441.881	15207.36
442.088	15262.66
442.294	15043.53
442.501	15604.67
442.708	15600.57
442.914	16386.99
443.121	17302.43
443.328	16716.72
443.534	18092.95
443.741	17372.07
443.948	16905.13
444.154	18246.55
444.361	18113.43
444.568	18471.82
444.774	18461.58
444.981	18912.14
445.187	19104.65
445.394	19805.05
445.6	19716.99
445.807	21646.18
446.013	20673.39
446.22	21128.04
446.426	21670.75
446.633	21764.96
446.839	22909.77
447.046	21613.41
447.252	22922.06
447.459	23178.06
447.665	22973.26
447.871	24015.68
448.078	24752.94
448.284	23450.44
448.491	24421.17
448.697	25541.41
448.903	26116.89
449.11	25496.36
449.316	25572.13
449.522	25703.2
449.728	26598.16
449.935	26743.57
450.141	26772.24
450.347	27308.81
450.553	26219.29
450.76	26583.83
450.966	27550.47
451.172	27218.7
451.378	27753.22
451.584	27452.17
451.791	28300.03
451.997	27896.58
452.203	28365.56
452.409	28406.52
452.615	28109.57
452.821	27153.16
453.027	26702.61
453.233	28320.51
453.44	27089.68
453.646	27325.19
453.852	27405.06
454.058	27953.92
454.264	26970.9
454.47	27501.32
454.676	27138.83
454.882	27933.44
455.088	25625.38
455.294	25678.63
455.5	26268.44
455.705	26673.94
455.911	25250.6
456.117	25150.25
456.323	24613.68
456.529	23235.4
456.735	24226.62
456.941	23761.73
457.147	23229.26
457.352	22670.16
457.558	22301.53
457.764	22283.09
457.97	22061.91
458.176	21500.77
458.381	21230.44
458.587	20411.25
458.793	20382.58
458.999	19211.14
459.204	20700.01
459.41	20216.69
459.616	18959.24
459.821	18697.1
460.027	18715.53
460.233	18674.57
460.438	17550.24
460.644	17947.54
460.85	16731.05
461.055	16798.63
461.261	16550.83
461.466	15436.74
461.672	14754.76
461.878	16004.02
462.083	15168.45
462.289	14885.83
462.494	14570.44
462.7	14064.6
462.905	13466.59
463.111	14146.51
463.316	14187.47
463.522	13669.34
463.727	13839.32
463.932	13964.25
464.138	13839.32
464.343	13724.63
464.549	13315.04
464.754	13900.76
464.959	13380.57
465.165	13650.91
465.37	12960.74
465.575	12669.93
465.781	13163.49
465.986	12968.93
466.191	12524.52
466.397	12635.11
466.602	11637.75
466.807	12450.8
467.012	12104.69
467.218	12360.69
467.423	11918.32
467.628	12438.51
467.833	12559.34
468.038	12198.9
468.244	11699.19
468.449	12172.27
468.654	11981.81
468.859	11910.13
469.064	11674.62
469.269	11295.74
469.474	11480.06
469.679	11662.33
469.885	11344.89
470.09	11467.77
470.295	11379.71
470.5	10828.81
470.705	11305.98
470.91	10976.26
471.115	10843.14
471.32	10916.87
471.525	11052.03
471.73	10632.2
471.935	10603.53
472.139	10075.15
472.344	10503.18
472.549	10308.62
472.754	10333.2
472.959	10046.48
473.164	9825.3
473.369	9567.26
473.574	10140.69
473.778	9980.95
473.983	9905.17
474.188	9761.81
474.393	9561.11
474.598	9341.98
474.802	9233.44
475.007	9116.7
475.212	9188.38
475.417	8844.32
475.621	9030.69
475.826	9061.41
476.031	8774.69
476.235	8530.98
476.44	8727.59
476.645	8582.18
476.849	8649.77
477.054	8496.17
477.259	8365.1
477.463	8399.91
477.668	8150.06
477.872	8113.2
478.077	8053.81
478.282	7924.79
478.486	7910.45
478.691	8041.52
478.895	7713.84
479.1	7885.87
479.304	7834.68
479.509	7664.69
479.713	7656.5
479.918	7420.99
480.122	7351.35
480.326	7654.45
480.531	7525.43
480.735	7377.98
480.94	7294.01
481.144	7681.08
481.348	7140.41
481.553	7263.29
481.757	7203.9
481.961	7416.89
482.166	7392.31
482.37	7398.46
482.574	7052.35
482.778	7074.88
482.983	7316.54
483.187	7277.63
483.391	7425.08
483.595	7234.62
483.8	6888.51
484.004	7208
484.208	7494.71
484.412	7191.61
484.616	7185.47
484.821	7367.74
485.025	7097.41
485.229	7222.33
485.433	7205.95
485.637	7371.83
485.841	7160.89
486.045	7255.1
486.249	7386.17
486.453	7210.04
486.657	7277.63
486.861	7316.54
487.065	6980.67
487.269	7377.98
487.473	7113.79
487.677	7271.48
487.881	7369.79
488.085	7246.91
488.289	7316.54
488.493	7138.37
488.697	7328.83
488.901	7351.35
489.105	7171.13
489.309	7435.32
489.512	7136.32
489.716	7306.3
489.92	7328.83
490.124	7394.36
490.328	7332.92
490.531	7349.31
490.735	7474.23
490.939	7439.42
491.143	7427.13
491.346	7386.17
491.55	7687.22
491.754	7507
491.958	7746.61
492.161	7670.84
492.365	7668.79
492.569	7699.51
492.772	7406.65
492.976	7693.37
493.18	7789.62
493.383	8094.77
493.587	8041.52
493.79	8100.91
493.994	7926.83
494.197	8023.09
494.401	8156.21
494.605	8039.47
494.808	8258.6
495.012	8170.54
495.215	8250.41
495.419	8451.11
495.622	8318
495.825	8530.98
496.029	8467.5
496.232	8580.14
496.436	8678.44
496.639	8774.69
496.843	8772.64
497.046	9004.07
497.249	9104.42
497.453	9227.29
497.656	9190.43
497.859	9182.24
498.063	9321.5
498.266	9507.87
498.469	9464.86
498.673	9780.25
498.876	9661.46
499.079	9745.43
499.282	9917.46
499.485	10071.06
499.689	10249.23
499.892	10148.88
500.095	10335.24
500.298	10640.39
500.501	10470.41
500.705	10869.76
500.908	10877.96
501.111	11031.55
501.314	11123.71
501.517	11156.48
501.72	11242.5
501.923	11226.11
502.126	11475.96
502.329	11777.01
502.532	11965.43
502.735	11807.73
502.938	11969.52
503.141	12418.03
503.344	12174.32
503.547	12411.89
503.75	12749.8
503.953	12930.02
504.156	12704.74
504.359	13067.24
504.562	13124.58
504.765	13235.17
504.968	13466.59
505.17	13611.99
505.373	13814.74
505.576	14078.93
505.779	14054.36
505.982	14371.79
506.185	14494.67
506.387	14515.15
506.59	14713.8
506.793	14846.92
506.996	14799.82
507.198	15125.44
507.401	15115.2
507.604	15260.61
507.807	15645.63
508.009	15580.09
508.212	15745.98
508.415	16159.67
508.617	16516.01
508.82	16595.89
509.022	16530.35
509.225	16839.59
509.428	17060.77
509.63	16800.68
509.833	16937.9
510.035	17757.08
510.238	17314.72
510.44	17507.23
510.643	18027.42
510.845	18213.78
511.048	18221.97
511.25	18310.04
511.453	18373.52
511.655	19323.78
511.858	19182.47
512.06	19149.7
512.262	19417.99
512.465	19481.47
512.667	19737.47
512.87	20083.58
513.072	20177.78
513.274	20290.42
513.477	20661.1
513.679	20718.45
513.881	21011.31
514.084	21519.2
514.286	21289.83
514.488	21404.52
514.69	22180.7
514.893	22016.86
515.095	22299.48
515.297	22653.78
515.499	22645.59
515.701	22702.93
515.904	23190.34
516.106	22848.33
516.308	23624.51
516.51	23876.41
516.712	23864.13
516.914	23898.94
517.116	24560.44
517.318	24576.82
517.52	24798
517.722	25127.72
517.925	25176.87
518.127	25615.14
518.329	25938.72
518.531	25721.63
518.733	26303.26
518.935	26663.7
519.136	26159.9
519.338	26897.17
519.54	27106.06
519.742	27171.6
519.944	27345.67
520.146	27927.3
520.348	27986.69
520.55	28142.33
520.752	28246.78
520.954	28873.46
521.155	28488.44
521.357	28988.14
521.559	29424.36
521.761	29913.83
521.963	30016.22
522.164	30223.07
522.366	30132.96
522.568	30237.41
522.77	30618.33
522.971	30972.63
523.173	30773.97
523.375	31124.18
523.576	31085.26
523.778	31175.37
523.98	31455.95
524.181	32062.15
524.383	32209.6
524.584	32314.05
524.786	32434.88
524.988	32418.49
525.189	32957.11
525.391	33014.45
525.592	33411.76
525.794	33485.48
525.995	33702.57
526.197	33436.33
526.398	33620.65
526.6	34169.51
526.801	34015.91
527.003	34169.51
527.204	34409.12
527.406	34818.71
527.607	34665.11
527.808	34730.65
528.01	34319.01
528.211	34824.86
528.412	35459.73
528.614	35220.11
528.815	35291.79
529.016	35717.77
529.218	35517.07
529.419	35555.98
529.62	35785.35
529.822	35611.28
530.023	35971.72
530.224	36196.99
530.425	36053.64
530.626	35807.88
530.828	35615.37
531.029	36366.98
531.23	36266.63
531.431	36248.19
531.632	36549.24
531.833	36557.44
532.035	36608.64
532.236	36438.65
532.437	36823.67
532.638	36620.92
532.839	36751.99
533.04	36973.17
533.241	36692.6
533.442	37290.61
533.643	37233.27
533.844	36850.3
534.045	36743.8
534.246	36686.46
534.447	37313.14
534.648	37268.08
534.849	37397.1
535.05	36811.38
535.251	37190.26
535.451	37339.76
535.652	37163.64
535.853	37360.24
536.054	37202.55
536.255	37321.33
536.456	37141.11
536.657	37757.55
536.857	37560.94
537.058	37317.23
537.259	37530.22
537.46	37562.99
537.66	37087.86
537.861	37519.98
538.062	37481.07
538.263	37341.81
538.463	37474.93
538.664	37536.37
538.865	37608.04
539.065	37851.75
539.266	37085.81
539.466	37759.59
539.667	37153.4
539.868	37782.12
540.068	37503.6
540.269	37388.91
540.469	37321.33
540.67	37247.6
540.87	37038.71
541.071	37460.59
541.271	37524.08
541.472	36934.26
541.672	37368.43
541.873	37331.57
542.073	37038.71
542.274	37581.42
542.474	37321.33
542.675	37450.35
542.875	37108.34
543.075	37306.99
543.276	37061.24
543.476	37669.48
543.676	37306.99
543.877	37741.16
544.077	37343.86
544.277	37470.83
544.478	37372.53
544.678	37603.95
544.878	37468.78
545.078	37192.31
545.279	37079.67
545.479	37296.75
545.679	37759.59
545.879	37188.21
546.079	37884.52
546.28	37362.29
546.48	37341.81
546.68	37704.3
546.88	37458.54
547.08	37665.39
547.28	37118.58
547.48	37151.35
547.68	37483.12
547.88	37192.31
548.081	37290.61
548.281	37649
548.481	36958.84
548.681	37831.27
548.881	37399.15
549.081	37413.49
549.28	36989.56
549.48	37454.45
549.68	37212.79
549.88	37630.57
550.08	37190.26
550.28	37388.91
550.48	37292.66
550.68	37642.86
550.88	37241.46
551.08	37257.84
551.279	37708.4
551.479	37382.77
551.679	37352.05
551.879	37300.85
552.079	37364.34
552.278	37382.77
552.478	37108.34
552.678	36895.35
552.878	37503.6
553.077	37282.42
553.277	36743.8
553.477	37644.91
553.676	37001.85
553.876	37139.06
554.076	37225.07
554.275	36588.16
554.475	36653.69
554.674	36641.4
554.874	36741.75
555.074	36807.29
555.273	37024.37
555.473	37253.75
555.672	36520.57
555.872	36692.6
556.071	36934.26
556.271	36993.65
556.47	36668.03
556.67	36532.86
556.869	36235.91
557.068	36389.5
557.268	36369.02
557.467	36303.49
557.667	36469.37
557.866	36602.49
558.065	35918.47
558.265	36108.93
558.464	36164.23
558.663	36573.82
558.863	35971.72
559.062	36833.91
559.261	35650.19
559.461	36770.43
559.66	35695.24
559.859	35994.25
560.058	35789.45
560.258	35771.02
560.457	35250.83
560.656	35934.85
560.855	35728.01
561.054	35832.46
561.253	35437.2
561.453	35738.25
561.652	35676.81
561.851	35887.75
562.05	35736.2
562.249	35041.94
562.448	35500.68
562.647	35478.16
562.846	35025.56
563.045	35228.31
563.244	34984.6
563.443	35277.46
563.642	34998.93
563.841	34640.54
564.04	34781.85
564.239	35136.15
564.438	34435.74
564.637	34677.4
564.836	34640.54
565.035	34388.64
565.234	34499.23
565.432	34460.32
565.631	34075.3
565.83	34675.35
566.029	34151.07
566.228	33813.16
566.427	33847.97
566.625	33610.41
566.824	33204.91
567.023	34056.87
567.222	33340.08
567.42	33712.81
567.619	33264.3
567.818	33301.17
568.016	33344.17
568.215	33544.87
568.414	33309.36
568.612	33342.13
568.811	33018.55
569.01	32918.2
569.208	32424.64
569.407	33032.88
569.605	32215.74
569.804	32641.72
570.002	32142.02
570.201	32867
570.4	32496.31
570.598	32553.66
570.797	32033.47
570.995	31982.27
571.193	31666.89
571.392	32133.82
571.59	31744.71
571.789	31634.12
571.987	31437.51
572.186	31761.09
572.384	31394.51
572.582	31826.63
572.781	31371.98
572.979	31441.61
573.177	31337.16
573.376	31546.06
573.574	30720.73
573.772	31216.33
573.971	31029.97
574.169	30915.28
574.367	30642.9
574.565	30847.7
574.763	30366.43
574.962	30556.89
575.16	30411.48
575.358	30583.51
575.556	30036.7
575.754	30667.48
575.952	30112.48
576.151	30278.36
576.349	30042.85
576.547	30077.66
576.745	30241.5
576.943	29893.35
577.141	29686.5
577.339	29420.27
577.537	29729.51
577.735	29530.86
577.933	29397.74
578.131	29514.47
578.329	29002.48
578.527	28865.27
578.725	28938.99
578.923	29274.86
579.121	29025.01
579.319	28865.27
579.516	29123.31
579.714	28498.68
579.912	28879.6
580.11	28771.06
580.308	28418.81
580.506	28736.24
580.704	28230.4
580.901	28658.42
581.099	28644.09
581.297	28189.44
581.495	28050.17
581.692	28463.86
581.89	27824.9
582.088	28289.79
582.285	28046.08
582.483	27816.71
582.681	27865.86
582.878	27511.56
583.076	27519.75
583.274	27839.23
583.471	27089.68
583.669	27185.93
583.866	27294.47
584.064	27218.7
584.262	27155.21
584.459	27220.75
584.657	27063.05
584.854	27425.54
585.052	26745.62
585.249	26790.67
585.447	26829.59
585.644	26764.05
585.841	26653.46
586.039	26602.26
586.236	26399.51
586.434	26542.87
586.631	26176.28
586.828	26374.94
587.026	26286.87
587.223	26049.31
587.42	25969.44
587.618	26143.52
587.815	25973.53
588.012	25781.03
588.21	25746.21
588.407	25758.5
588.604	25596.71
588.801	25510.69
588.999	25692.96
589.196	25774.88
589.393	25522.98
589.59	25090.86
589.787	25326.38
589.984	25125.68
590.182	24949.55
590.379	25226.03
590.576	24744.75
590.773	24771.38
590.97	24767.28
591.167	24744.75
591.364	24591.16
591.561	25013.04
591.758	24478.52
591.955	24464.18
592.152	24531.76
592.349	24302.39
592.546	24240.95
592.743	24304.44
592.94	23937.85
593.137	24361.78
593.334	24460.09
593.531	23688
593.727	24374.07
593.924	23868.22
594.121	23487.3
594.318	24136.51
594.515	23712.58
594.712	23661.38
594.908	23456.58
595.105	23614.27
595.302	23376.71
595.499	23511.88
595.696	23083.85
595.892	23171.91
596.089	23161.67
596.286	23098.19
596.482	23094.09
596.679	23110.47
596.876	22819.66
597.072	22848.33
597.269	22874.96
597.466	22829.9
597.662	22684.5
597.859	22596.43
598.055	22664.02
598.252	22502.23
598.448	22440.79
598.645	22448.98
598.841	21996.38
599.038	22483.8
599.234	22184.79
599.431	22209.37
599.627	21900.12
599.824	22016.86
600.02	22037.34
600.217	21652.32
600.413	21773.15
600.609	21982.04
600.806	21502.82
601.002	21853.02
601.198	21523.3
601.395	21427.04
601.591	21529.44
601.787	21390.18
601.984	21070.7
602.18	21341.03
602.376	21144.42
602.572	21148.52
602.769	21177.19
602.965	20890.48
603.161	20958.06
603.357	20980.59
603.553	20904.81
603.75	20888.43
603.946	20568.94
604.142	20577.14
604.338	20405.11
604.534	20835.18
604.73	20454.26
604.926	20441.97
605.122	20437.87
605.318	19995.51
605.514	20220.79
605.71	19942.27
605.906	20134.78
606.102	20063.1
606.298	19921.79
606.494	20001.66
606.69	19716.99
606.886	19776.38
607.082	19633.02
607.278	19835.77
607.474	19809.15
607.67	19708.8
607.866	19170.18
608.062	19655.55
608.257	19319.68
608.453	19645.31
608.649	19796.86
608.845	19301.25
609.041	19286.92
609.236	19530.62
609.432	19239.81
609.628	19436.42
609.824	19282.82
610.019	19264.39
610.215	19352.45
610.411	19395.46
610.606	18793.36
610.802	18942.86
610.998	18910.09
611.193	19020.68
611.389	18723.72
611.584	19006.34
611.78	18699.15
611.976	18918.28
612.171	18416.53
612.367	18994.06
612.562	18707.34
612.758	18420.63
612.953	18686.86
613.149	18838.41
613.344	18498.45
613.539	18766.73
613.735	18606.99
613.93	18494.35
614.126	18621.33
614.321	18426.77
614.517	18451.35
614.712	18242.45
614.907	18228.12
615.103	18375.57
615.298	18004.89
615.493	18623.37
615.688	17998.74
615.884	18361.23
616.079	17910.68
616.274	17886.11
616.47	17943.45
616.665	18105.24
616.86	17750.94
617.055	17662.88
617.25	17527.71
617.445	18054.04
617.641	17476.51
617.836	17677.21
618.031	17335.2
618.226	17947.54
618.421	17550.24
618.616	17585.05
618.811	16997.29
619.006	17605.53
619.201	17109.93
619.396	17370.02
619.591	17021.86
619.786	17249.19
619.981	17091.49
620.176	17103.78
620.371	16931.75
620.566	17054.63
620.761	16927.66
620.956	16585.65
621.151	16571.31
621.346	16657.32
621.541	16423.86
621.735	16597.93
621.93	16421.81
622.125	16303.03
622.32	16022.45
622.515	16497.58
622.709	16126.9
622.904	16280.5
623.099	15920.06
623.294	16053.17
623.488	16026.55
623.683	15633.34
623.878	15621.05
624.072	15610.81
624.267	15561.66
624.462	15246.27
624.656	15201.22
624.851	15596.48
625.046	15164.36
625.24	14947.27
625.435	15111.11
625.629	15190.98
625.824	14869.45
626.018	14986.18
626.213	14504.91
626.407	14879.69
626.602	14377.94
626.796	14359.5
626.991	14496.72
627.185	14560.2
627.38	14298.06
627.574	14552.01
627.768	14037.97
627.963	14289.87
628.157	13951.96
628.352	14068.69
628.546	13560.8
628.74	13999.06
628.935	13466.59
629.129	13671.39
629.323	13442.01
629.517	13675.48
629.712	13466.59
629.906	13183.97
630.1	13317.09
630.294	13284.32
630.489	13140.96
630.683	13241.31
630.877	13067.24
631.071	13007.84
631.265	12938.21
631.459	12735.46
631.653	12807.14
631.848	12770.28
632.042	12520.43
632.236	12727.27
632.43	12499.95
632.624	12633.07
632.818	12497.9
633.012	12334.06
633.206	12385.26
633.4	12329.97
633.594	11975.67
633.788	12321.77
633.982	12037.11
634.176	11955.19
634.369	11922.42
634.563	11797.49
634.757	11883.51
634.951	11854.84
635.145	11822.07
635.339	11834.36
635.533	11504.64
635.726	11617.27
635.92	11500.54
636.114	11461.63
636.308	11377.66
636.501	11340.8
636.695	11496.44
636.889	11318.27
637.083	10824.71
637.276	10931.2
637.47	10824.71
637.664	11033.6
637.857	10949.64
638.051	10937.35
638.244	10796.04
638.438	10744.84
638.632	10691.59
638.825	10679.3
639.019	10632.2
639.212	10806.28
639.406	10476.55
639.599	10490.89
639.793	10304.53
639.986	10374.16
640.18	10245.13
640.373	10257.42
640.567	10062.87
640.76	10202.13
640.954	10132.5
641.147	10030.1
641.34	10017.81
641.534	10021.91
641.727	9835.54
641.92	9907.22
642.114	9526.3
642.307	9630.74
642.5	9690.13
642.694	9542.68
642.887	9438.23
643.08	9628.7
643.273	9522.2
643.467	9387.04
643.66	9372.7
643.853	9532.44
644.046	9149.47
644.239	9083.94
644.432	9188.38
644.626	9026.59
644.819	9131.04
645.012	9106.46
645.205	9061.41
645.398	8963.11
645.591	8887.33
645.784	8877.09
645.977	8776.74
646.17	8823.84
646.363	8592.42
646.556	8549.42
646.749	8709.16
646.942	8721.45
647.135	8322.09
647.328	8420.39
647.521	8592.42
647.714	8195.12
647.907	8193.07
648.099	8100.91
648.292	8274.99
648.485	8229.93
648.678	8031.28
648.871	8246.32
649.064	8055.86
649.256	8039.47
649.449	8072.24
649.642	7883.83
649.835	7730.23
650.027	7875.63
650.22	7732.28
650.413	7875.63
650.605	7687.22
650.798	7758.9
650.991	7535.67
651.183	7537.72
651.376	7500.86
651.568	7695.41
651.761	7560.25
651.954	7488.57
652.146	7281.72
652.339	7416.89
652.531	7334.97
652.724	7480.38
652.916	7390.27
653.109	7287.87
653.301	7205.95
653.494	7396.41
653.686	7187.52
653.879	7111.74
654.071	7146.56
654.263	7124.03
654.456	7132.22
654.648	7074.88
654.84	7015.49
655.033	6878.27
655.225	6712.39
655.417	6822.98
655.61	6792.26
655.802	6814.79
655.994	6724.68
656.186	6671.43
656.379	6730.82
656.571	6638.66
656.763	6456.39
656.955	6673.48
657.148	6515.78
657.34	6491.21
657.532	6440.01
657.724	6534.21
657.916	6310.99
658.108	6427.72
658.3	6351.95
658.492	6276.17
658.684	6141
658.876	6173.77
659.068	6149.2
659.26	6136.91
659.452	6136.91
659.644	6093.9
659.836	5932.11
660.028	5999.7
660.22	5893.2
660.412	5815.38
660.604	5936.21
660.796	5944.4
660.988	5917.78
661.18	6003.79
661.372	5803.09
661.563	5833.81
661.755	5602.39
661.947	5631.06
662.139	5794.9
662.331	5674.07
662.522	5475.42
662.714	5647.44
662.906	5661.78
663.097	5712.98
663.289	5588.05
663.481	5440.6
663.673	5401.69
663.864	5342.3
664.056	5471.32
664.247	5389.4
664.439	5248.09
664.631	5301.34
664.822	5270.62
665.014	5407.83
665.205	5356.63
665.397	5239.9
665.588	5237.85
665.78	5166.17
665.971	5184.6
666.163	5104.73
666.354	5086.3
666.546	5164.12
666.737	5049.44
666.929	5184.6
667.12	5053.53
667.311	4971.61
667.503	4873.31
667.694	5086.3
667.885	4871.26
668.077	5055.58
668.268	4809.83
668.459	4973.66
668.651	4783.2
668.842	4824.16
669.033	4760.67
669.224	4574.31
669.416	4811.87
669.607	4826.21
669.798	4781.15
669.989	4754.53
670.18	4645.99
670.371	4600.93
670.563	4664.42
670.754	4623.46
670.945	4598.88
671.136	4772.96
671.327	4736.1
671.518	4529.25
671.709	4629.6
671.9	4508.77
672.091	4650.08
672.282	4555.88
672.473	4500.58
672.664	4480.1
672.855	4414.57
673.046	4455.53
673.237	4430.95
673.428	4357.22
673.619	4418.66
673.809	4324.46
674	4412.52
674.191	4320.36
674.382	4197.48
674.573	4324.46
674.764	4336.74
674.954	4351.08
675.145	4131.95
675.336	4158.57
675.527	4195.43
675.717	4152.43
675.908	4168.81
676.099	4043.88
676.289	4209.77
676.48	4172.91
676.671	4068.46
676.861	4062.32
677.052	4113.52
677.243	4004.97
677.433	4187.24
677.624	4054.12
677.814	4039.79
678.005	4011.12
678.195	3951.73
678.386	3908.72
678.576	4021.36
678.767	3857.52
678.957	3992.69
679.148	3853.42
679.338	3820.66
679.529	3996.78
679.719	3933.29
679.909	3886.19
680.1	3972.21
680.29	3972.21
680.481	3761.27
680.671	3703.92
680.861	3841.14
681.052	3873.9
681.242	3783.79
681.432	3894.38
681.622	3869.81
681.813	3880.05
682.003	3853.42
682.193	3857.52
682.383	3875.95
682.573	3732.59
682.764	3693.68
682.954	3691.63
683.144	3685.49
683.334	3865.71
683.524	3695.73
683.714	3703.92
683.904	3683.44
684.094	3658.87
684.284	3767.41
684.474	3720.31
684.664	3804.27
684.854	3675.25
685.044	3603.57
685.234	3597.43
685.424	3607.67
685.614	3560.56
685.804	3636.34
685.994	3480.69
686.184	3683.44
686.374	3544.18
686.564	3464.31
686.753	3509.37
686.943	3562.61
687.133	3499.13
687.323	3480.69
687.513	3607.67
687.702	3509.37
687.892	3396.73
688.082	3433.59
688.272	3345.53
688.461	3374.2
688.651	3439.73
688.841	3472.5
689.03	3337.34
689.22	3318.9
689.41	3443.83
689.599	3331.19
689.789	3386.49
689.979	3300.47
690.168	3290.23
690.358	3390.58
690.547	3323
690.737	3304.57
690.926	3179.64
691.116	3116.16
691.305	3286.14
691.495	3243.13
691.684	3265.66
691.874	3261.56
692.063	3259.51
692.252	3202.17
692.442	3232.89
692.631	3193.98
692.82	3193.98
693.01	3073.15
693.199	3284.09
693.388	3060.86
693.578	3128.44
693.767	3161.21
693.956	3097.72
694.146	3085.44
694.335	2991.23
694.524	3017.85
694.713	3116.16
694.902	3175.55
695.092	3101.82
695.281	3103.87
695.47	2987.13
695.659	3030.14
695.848	3114.11
696.037	3003.52
696.226	3003.52
696.415	3089.53
696.604	3095.68
696.793	2989.18
696.982	3007.61
697.171	2954.37
697.36	3044.48
697.549	3003.52
697.738	2884.73
697.927	3036.28
698.116	2866.3
698.305	2849.92
698.494	2974.85
698.683	2835.58
698.872	2950.27
699.061	2962.56
699.25	2956.41
699.438	2964.61
699.627	2944.13
699.816	2960.51
700.005	3021.95
700.193	3024
700.382	2968.7
700.571	2962.56
700.76	2968.7
700.948	2976.89
701.137	2954.37
701.326	3069.05
701.514	2940.03
701.703	2899.07
701.892	2831.49
702.08	3003.52
702.269	2960.51
702.457	2966.65
702.646	2911.36
702.834	2874.49
703.023	2948.22
703.212	2866.3
703.4	3013.76
703.589	2911.36
703.777	2940.03
703.965	2933.89
704.154	2985.09
704.342	2815.1
704.531	2917.5
704.719	2888.83
704.907	2966.65
705.096	2854.02
705.284	2835.58
705.472	2911.36
705.661	2874.49
705.849	2950.27
706.037	2856.06
706.226	2872.45
706.414	2862.21
706.602	2856.06
706.79	2864.25
706.979	2843.78
707.167	2940.03
707.355	2739.33
707.543	2858.11
707.731	2860.16
707.919	2923.65
708.107	2858.11
708.296	2917.5
708.484	2798.72
708.672	2843.78
708.86	2808.96
709.048	2800.77
709.236	2831.49
709.424	2735.23
709.612	2845.82
709.8	2923.65
709.988	2815.1
710.176	2808.96
710.364	2860.16
710.551	2772.1
710.739	2835.58
710.927	2806.91
711.115	2872.45
711.303	2772.1
711.491	2806.91
711.679	2765.95
711.866	2952.32
712.054	2833.54
712.242	2718.85
712.43	2741.38
712.617	2731.14
712.805	2837.63
712.993	2940.03
713.181	2800.77
713.368	2808.96
713.556	2796.67
713.744	2772.1
713.931	2876.54
714.119	2755.71
714.306	2825.34
714.494	2716.8
714.682	2675.84
714.869	2636.93
715.057	2800.77
715.244	2737.28
715.432	2632.83
715.619	2765.95
715.807	2784.38
715.994	2630.79
716.182	2876.54
716.369	2747.52
716.556	2798.72
716.744	2819.2
716.931	2782.34
717.119	2874.49
717.306	2735.23
717.493	2751.62
717.681	2727.04
717.868	2624.64
718.055	2673.79
718.242	2747.52
718.43	2606.21
718.617	2866.3
718.804	2815.1
718.991	2704.51
719.179	2823.3
719.366	2696.32
719.553	2743.42
719.74	2724.99
719.927	2835.58
720.114	2657.41
720.301	2710.66
720.488	2651.27
720.676	2645.12
720.863	2716.8
721.05	2792.58
721.237	2649.22
721.424	2782.34
721.611	2743.42
721.798	2657.41
721.985	2677.89
722.172	2567.3
722.358	2497.67
722.545	2645.12
722.732	2671.75
722.919	2643.07
723.106	2583.68
723.293	2622.59
723.48	2708.61
723.667	2557.06
723.853	2655.36
724.04	2610.31
724.227	2641.03
724.414	2595.97
724.6	2606.21
724.787	2745.47
724.974	2690.18
725.161	2643.07
725.347	2581.64
725.534	2733.18
725.72	2620.55
725.907	2616.45
726.094	2700.42
726.28	2591.88
726.467	2530.44
726.653	2583.68
726.84	2661.51
727.027	2913.41
727.213	2555.01
727.4	2731.14
727.586	2679.94
727.773	2575.49
727.959	2604.16
728.145	2524.29
728.332	2753.66
728.518	2530.44
728.705	2655.36
728.891	2540.68
729.077	2555.01
729.264	2681.99
729.45	2526.34
729.636	2606.21
729.823	2694.27
730.009	2649.22
730.195	2591.88
730.382	2653.31
730.568	2579.59
730.754	2487.43
730.94	2579.59
731.126	2499.72
731.313	2548.87
731.499	2583.68
731.685	2591.88
731.871	2555.01
732.057	2665.6
732.243	2489.48
732.429	2563.2
732.615	2567.3
732.801	2608.26
732.987	2532.48
733.173	2598.02
733.359	2567.3
733.545	2667.65
733.731	2512
733.917	2516.1
734.103	2409.61
734.289	2444.42
734.475	2530.44
734.661	2509.96
734.847	2657.41
735.033	2563.2
735.219	2448.52
735.404	2555.01
735.59	2483.33
735.776	2538.63
735.962	2548.87
736.148	2509.96
736.333	2475.14
736.519	2509.96
736.705	2483.33
736.89	2432.13
737.076	2495.62
737.262	2491.52
737.447	2378.89
737.633	2395.27
737.819	2473.09
738.004	2366.6
738.19	2425.99
738.375	2374.79
738.561	2505.86
738.747	2397.32
738.932	2272.39
739.118	2313.35
739.303	2538.63
739.489	2448.52
739.674	2411.65
739.859	2454.66
740.045	2389.13
740.23	2440.33
740.416	2378.89
740.601	2335.88
740.786	2401.41
740.972	2364.55
741.157	2450.57
741.342	2247.82
741.528	2311.3
741.713	2278.54
741.898	2337.93
742.084	2296.97
742.269	2296.97
742.454	2278.54
742.639	2350.21
742.824	2264.2
743.01	2260.1
743.195	2245.77
743.38	2276.49
743.565	2192.52
743.75	2161.8
743.935	2313.35
744.12	2229.38
744.305	2098.31
744.49	2079.88
744.675	2069.64
744.86	2178.19
745.045	2129.03
745.23	2116.75
745.415	2110.6
745.6	2108.55
745.785	2151.56
745.97	2090.12
746.155	2135.18
746.34	2071.69
746.525	2118.79
746.71	2178.19
746.895	1969.29
747.079	2131.08
747.264	2028.68
747.449	1979.53
747.634	2038.92
747.819	1928.33
748.003	1940.62
748.188	1813.65
748.373	1963.15
748.557	1911.95
748.742	1899.66
748.927	1963.15
749.111	1854.61
749.296	1842.32
749.481	1789.07
749.665	1850.51
749.85	1926.29
750.034	1850.51
750.219	1813.65
750.404	1854.61
750.588	1850.51
750.773	1717.39
750.957	1782.93
751.141	1766.54
751.326	1719.44
751.51	1670.29
751.695	1834.13
751.879	1639.57
752.064	1813.65
752.248	1744.02
752.432	1850.51
752.617	1676.43
752.801	1662.1
752.985	1610.9
753.17	1701.01
753.354	1662.1
753.538	1641.62
753.722	1606.8
753.907	1545.36
754.091	1559.7
754.275	1578.13
754.459	1629.33
754.643	1596.56
754.828	1647.76
755.012	1483.92
755.196	1467.54
755.38	1504.4
755.564	1469.59
755.748	1571.99
755.932	1385.62
756.116	1553.55
756.3	1514.64
756.484	1485.97
756.668	1481.88
756.852	1438.87
757.036	1494.16
757.22	1500.31
757.404	1397.91
757.588	1414.29
757.772	1424.53
757.956	1338.52
758.14	1453.2
758.323	1320.09
758.507	1289.37
758.691	1375.38
758.875	1318.04
759.059	1371.29
759.242	1332.37
759.426	1246.36
759.61	1309.85
759.794	1199.26
759.977	1305.75
760.161	1232.02
760.345	1291.41
760.528	1193.11
760.712	1244.31
760.895	1295.51
761.079	1305.75
761.263	1301.65
761.446	1221.78
761.63	1197.21
761.813	1115.29
761.997	1211.54
762.18	1246.36
762.364	1160.34
762.547	1191.06
762.731	1238.17
762.914	1211.54
763.098	1125.53
763.281	1057.95
763.464	1100.95
763.648	1066.14
763.831	1156.25
764.015	1180.82
764.198	1207.45
764.381	1170.58
764.564	1162.39
764.748	1033.37
764.931	1152.15
765.114	1072.28
765.297	1072.28
765.481	1059.99
765.664	1023.13
765.847	1027.23
766.03	1133.72
766.213	1107.1
766.397	986.27
766.58	1043.61
766.763	1023.13
766.946	998.56
767.129	1051.8
767.312	969.88
767.495	1053.85
767.678	965.79
767.861	992.41
768.044	910.49
768.227	1076.38
768.41	1055.9
768.593	990.36
768.776	994.46
768.959	1053.85
769.142	1064.09
769.324	939.16
769.507	990.36
769.69	1047.71
769.873	963.74
770.056	1068.19
770.239	976.03
770.421	957.6
770.604	933.02
770.787	924.83
770.97	912.54
771.152	957.6
771.335	892.06
771.518	885.92
771.7	982.17
771.883	951.45
772.066	914.59
772.248	951.45
772.431	922.78
772.613	900.25
772.796	957.6
772.978	912.54
773.161	920.73
773.343	914.59
773.526	840.86
773.708	920.73
773.891	906.4
774.073	830.62
774.256	855.2
774.438	916.64
774.621	801.95
774.803	804
774.985	818.33
775.168	830.62
775.35	795.81
775.532	812.19
775.715	760.99
775.897	818.33
776.079	810.14
776.261	808.09
776.444	777.37
776.626	799.9
776.808	711.84
776.99	713.89
777.173	738.46
777.355	744.61
777.537	672.93
777.719	701.6
777.901	703.65
778.083	724.13
778.265	691.36
778.447	730.27
778.629	709.79
778.811	695.46
778.993	724.13
779.175	689.31
779.357	672.93
779.539	646.3
779.721	652.45
779.903	648.35
780.085	683.17
780.267	701.6
780.449	629.92
780.631	722.08
780.812	670.88
780.994	734.37
781.176	658.59
781.358	570.53
781.54	572.58
781.721	627.87
781.903	636.06
782.085	523.43
782.267	582.82
782.448	558.24
782.63	646.3
782.812	568.48
782.993	705.7
783.175	586.91
783.357	545.95
783.538	550.05
783.72	525.47
783.901	484.52
784.083	554.15
784.264	515.23
784.446	539.81
784.627	591.01
784.809	535.71
784.99	593.06
785.172	502.95
785.353	588.96
785.535	490.66
785.716	492.71
785.897	511.14
786.079	558.24
786.26	513.19
786.441	474.28
786.623	517.28
786.804	500.9
786.985	478.37
787.167	474.28
787.348	414.88
787.529	474.28
787.71	474.28
787.891	427.17
788.073	388.26
788.254	445.6
788.435	412.84
788.616	406.69
788.797	443.56
788.978	404.64
789.159	457.89
789.34	441.51
789.522	375.97
789.703	423.08
789.884	347.3
790.065	482.47
790.246	459.94
790.427	388.26
790.607	496.8
790.788	378.02
790.969	353.45
791.15	435.36
791.331	384.16
791.512	345.25
791.693	373.92
791.874	392.36
792.054	437.41
792.235	314.53
792.416	345.25
792.597	343.21
792.778	353.45
792.958	343.21
793.139	421.03
793.32	378.02
793.5	302.25
793.681	433.32
793.862	332.97
794.042	361.64
794.223	265.38
794.404	292.01
794.584	226.47
794.765	349.35
794.945	296.1
795.126	388.26
795.306	378.02
795.487	343.21
795.667	343.21
795.848	273.57
796.028	269.48
796.209	324.77
796.389	257.19
796.57	320.68
796.75	351.4
796.93	304.29
797.111	339.11
797.291	267.43
797.471	345.25
797.652	302.25
797.832	302.25
798.012	246.95
798.192	300.2
798.373	183.46
798.553	314.53
798.733	332.97
798.913	226.47
799.093	277.67
799.274	261.29
799.454	292.01
799.634	285.86
799.814	306.34
799.994	324.77
800.174	271.53
800.354	230.57
800.534	257.19
800.714	285.86
800.894	281.77
801.074	208.04
801.254	175.27
801.434	359.59
801.614	191.66
801.794	171.18
801.974	617.63
802.154	212.14
802.334	281.77
802.514	214.18
802.693	234.66
802.873	294.05
803.053	218.28
803.233	205.99
803.413	228.52
803.592	230.57
803.772	265.38
803.952	175.27
804.131	240.81
804.311	193.7
804.491	251.05
804.67	195.75
804.85	306.34
805.03	158.89
805.209	322.73
805.389	173.22
805.568	122.02
805.748	230.57
805.928	205.99
806.107	244.9
806.287	216.23
806.466	183.46
806.646	251.05
806.825	183.46
807.004	246.95
807.184	158.89
807.363	181.42
807.543	226.47
807.722	224.42
807.901	208.04
808.081	226.47
808.26	183.46
808.439	165.03
808.619	162.98
808.798	150.7
808.977	195.75
809.156	199.85
809.336	253.09
809.515	199.85
809.694	240.81
809.873	169.13
810.052	136.36
810.231	173.22
810.411	138.41
810.59	236.71
810.769	175.27
810.948	167.08
811.127	193.7
811.306	177.32
811.485	232.62
811.664	224.42
811.843	191.66
812.022	218.28
812.201	138.41
812.38	136.36
812.559	146.6
812.737	244.9
812.916	171.18
813.095	119.98
813.274	134.31
813.453	113.83
813.632	109.74
813.811	228.52
813.989	136.36
814.168	216.23
814.347	142.5
814.526	169.13
814.704	232.62
814.883	142.5
815.062	171.18
815.24	107.69
815.419	130.22
815.598	146.6
815.776	154.79
815.955	87.21
816.133	124.07
816.312	171.18
816.49	142.5
816.669	130.22
816.847	113.83
817.026	275.62
817.204	87.21
817.383	162.98
817.561	146.6
817.74	201.9
817.918	128.17
818.097	76.97
818.275	160.94
818.453	183.46
818.632	87.21
818.81	119.98
818.988	87.21
819.167	132.26
819.345	122.02
819.523	144.55
819.701	95.4
819.879	148.65
820.058	146.6
820.236	193.7
820.414	126.12
820.592	111.78
820.77	99.5
820.948	115.88
821.127	-15.19
821.305	148.65
821.483	54.44
821.661	165.03
821.839	169.13
822.017	36.01
822.195	79.02
822.373	156.84
822.551	146.6
822.729	134.31
822.907	103.59
823.085	152.74
823.262	87.21
823.44	146.6
823.618	158.89
823.796	122.02
823.974	95.4
824.152	62.63
824.329	40.11
824.507	122.02
824.685	97.45
824.863	119.98
825.04	95.4
825.218	42.15
825.396	117.93
825.574	146.6
825.751	124.07
825.929	68.78
826.107	33.96
826.284	70.83
826.462	31.91
826.639	130.22
826.817	64.68
826.994	99.5
827.172	76.97
827.349	99.5
827.527	89.26
827.704	40.11
827.882	187.56
828.059	148.65
828.237	99.5
828.414	134.31
828.591	117.93
828.769	115.88
828.946	36.01
829.124	165.03
829.301	160.94
829.478	126.12
829.655	95.4
829.833	130.22
830.01	50.35
830.187	160.94
830.364	103.59
830.542	89.26
830.719	93.35
830.896	72.87
831.073	144.55
831.25	134.31
831.427	95.4
831.604	99.5
831.782	89.26
831.959	111.78
832.136	97.45
832.313	144.55
832.49	83.11
832.667	95.4
832.844	15.53
833.021	122.02
833.198	52.39
833.374	76.97
833.551	79.02
833.728	103.59
833.905	105.64
834.082	31.91
834.259	93.35
834.436	105.64
834.612	60.59
834.789	117.93
834.966	33.96
835.143	74.92
835.319	54.44
835.496	105.64
835.673	76.97
835.85	40.11
836.026	68.78
836.203	81.07
836.38	95.4
836.556	138.41
836.733	36.01
836.909	113.83
837.086	70.83
837.262	44.2
837.439	70.83
837.616	122.02
837.792	64.68
837.968	58.54
838.145	-2.9
838.321	79.02
838.498	29.87
838.674	101.55
838.851	68.78
839.027	85.16
839.203	128.17
839.38	95.4
839.556	103.59
839.732	117.93
839.909	87.21
840.085	91.31
840.261	64.68
840.437	97.45
840.614	74.92
840.79	27.82
840.966	9.39
841.142	-2.9
841.318	25.77
841.494	97.45
841.671	11.43
841.847	29.87
842.023	27.82
842.199	60.59
842.375	62.63
842.551	-13.14
842.727	-41.81
842.903	148.65
843.079	3.24
843.255	58.54
843.431	29.87
843.607	60.59
843.783	23.72
843.959	9.39
844.134	56.49
844.31	103.59
844.486	17.58
844.662	54.44
844.838	54.44
845.013	13.48
845.189	72.87
845.365	68.78
845.541	23.72
845.716	115.88
845.892	31.91
846.068	-29.52
846.244	-13.14
846.419	93.35
846.595	27.82
846.77	-13.14
846.946	15.53
847.122	27.82
847.297	42.15
847.473	19.63
847.648	1.19
847.824	66.73
847.999	70.83
848.175	17.58
848.35	33.96
848.526	60.59
848.701	91.31
848.876	54.44
849.052	76.97
849.227	1.19
849.403	46.25
849.578	87.21
849.753	44.2
849.929	52.39
850.104	17.58
850.279	42.15
850.454	13.48
850.63	105.64
850.805	7.34
850.98	23.72
851.155	74.92
851.33	-23.38
851.505	54.44
851.681	81.07
851.856	-4.95
852.031	42.15
852.206	25.77
852.381	13.48
852.556	40.11
852.731	23.72
852.906	25.77
853.081	9.39
853.256	128.17
853.431	19.63
853.606	-72.53
853.781	5.29
853.956	-17.24
854.131	44.2
854.305	66.73
854.48	-4.95
854.655	7.34
854.83	1.19
855.005	11.43
855.18	9.39
855.354	44.2
855.529	62.63
855.704	27.82
855.879	72.87
856.053	36.01
856.228	68.78
856.403	44.2
856.577	85.16
856.752	31.91
856.926	-39.76
857.101	31.91
857.276	27.82
857.45	-13.14
857.625	27.82
857.799	19.63
857.974	-4.95
858.148	-90.96
858.323	91.31
858.497	-31.57
858.672	-37.72
858.846	17.58
859.02	-0.85
859.195	5.29
859.369	60.59
859.543	1.19
859.718	15.53
859.892	-17.24
860.066	29.87
860.241	15.53
860.415	-54.1
860.589	-27.48
860.763	21.67
860.938	60.59
861.112	7.34
861.286	7.34
861.46	-4.95
861.634	-15.19
861.808	60.59
861.982	54.44
862.157	42.15
862.331	5.29
862.505	42.15
862.679	23.72
862.853	48.3
863.027	1.19
863.201	70.83
863.375	-2.9
863.549	-9.05
863.722	79.02
863.896	38.06
864.07	-58.2
864.244	29.87
864.418	-0.85
864.592	79.02
864.766	36.01
864.939	91.31
865.113	5.29
865.287	-4.95
865.461	40.11
865.634	54.44
865.808	-19.29
865.982	-29.52
866.156	-7
866.329	52.39
866.503	-45.91
866.676	-13.14
866.85	-9.05
867.024	-54.1
867.197	-25.43
867.371	-62.29
867.544	58.54
867.718	-45.91
867.891	64.68
868.065	-4.95
868.238	42.15
868.412	25.77
868.585	103.59
868.759	101.55
868.932	-25.43
869.105	-9.05
869.279	-23.38
869.452	17.58
869.625	-7
869.799	7.34
869.972	-9.05
870.145	-41.81
870.319	81.07
870.492	-15.19
870.665	25.77
870.838	83.11
871.011	-50
871.185	-2.9
871.358	-2.9
871.531	13.48
871.704	-37.72
871.877	-31.57
872.05	-7
872.223	19.63
872.396	-0.85
872.569	-11.09
872.742	-76.63
872.915	31.91
873.088	13.48
873.261	7.34
873.434	29.87
873.607	58.54
873.78	-9.05
873.953	3.24
874.126	44.2
874.299	17.58
874.471	-13.14
874.644	40.11
874.817	5.29
874.99	62.63
875.163	-70.48
875.335	-60.24
875.508	-13.14
875.681	23.72
875.853	11.43
876.026	66.73
876.199	46.25
876.371	29.87
876.544	-13.14
876.717	79.02
876.889	7.34
877.062	-29.52
877.234	48.3
877.407	-13.14
877.579	-35.67
877.752	66.73
877.924	33.96
878.097	48.3
878.269	50.35
878.442	-33.62
878.614	15.53
878.786	48.3
878.959	-0.85
879.131	-33.62
879.303	-41.81
879.476	68.78
879.648	7.34
879.82	-7
879.993	-27.48
880.165	-23.38
880.337	-35.67
880.509	21.67
880.681	-60.24
880.854	54.44
881.026	70.83
881.198	13.48
881.37	23.72
881.542	7.34
881.714	76.97
881.886	48.3
882.058	-4.95
882.23	3.24
882.402	5.29
882.574	21.67
882.746	5.29
882.918	13.48
883.09	5.29
883.262	54.44
883.434	-39.76
883.606	3.24
883.778	31.91
883.95	11.43
884.122	-31.57
884.293	27.82
884.465	29.87
884.637	54.44
884.809	58.54
884.98	-109.4
885.152	62.63
885.324	-29.52
885.496	-52.05
885.667	48.3
885.839	-25.43
886.011	-33.62
886.182	-64.34
886.354	58.54
886.525	-11.09
886.697	-15.19
886.869	-19.29
887.04	-17.24
887.212	11.43
887.383	109.74
887.555	-9.05
887.726	-95.06
887.897	15.53
888.069	-27.48
888.24	5.29
888.412	-54.1
888.583	-21.33
888.754	-23.38
888.926	-70.48
889.097	29.87
889.268	-13.14
889.44	-11.09
889.611	-37.72
889.782	-9.05
889.953	-7
890.125	-0.85
890.296	-23.38
890.467	19.63
890.638	-39.76
890.809	62.63
890.98	56.49
891.151	3.24
891.323	1.19
891.494	-21.33
891.665	-25.43
891.836	15.53
892.007	19.63
892.178	5.29
892.349	-25.43
892.52	27.82
892.691	-2.9
892.862	-31.57
893.032	-95.06
893.203	-52.05
893.374	-17.24
893.545	11.43
893.716	-39.76
893.887	44.2
894.057	48.3
894.228	-21.33
894.399	33.96
894.57	56.49
894.74	-45.91
894.911	25.77
895.082	5.29
895.253	-60.24
895.423	9.39
895.594	7.34
895.764	-56.15
895.935	9.39
896.106	3.24
896.276	-13.14
896.447	-0.85
896.617	5.29
896.788	-7
896.958	-66.39
897.129	-9.05
897.299	-66.39
897.47	-7
897.64	5.29
897.81	-9.05
897.981	-4.95
898.151	-39.76
898.322	-21.33
898.492	5.29
898.662	-43.86
898.832	-23.38
899.003	-52.05
899.173	-72.53
899.343	-9.05
899.513	25.77
