Data from USB4F104151__157__11-08-32-630.txt Node

Date: Wed Mar 12 11:08:32 EDT 2025
User: louis
Spectrometer: USB4F10415
Trigger mode: 4
Integration Time (sec): 2.000000E-2
Scans to average: 1
Electric dark correction enabled: true
Nonlinearity correction enabled: false
Boxcar width: 0
XAxis mode: Wavelengths
Number of Pixels in Spectrum: 3648
>>>>>Begin Spectral Data<<<<<
178.204	-35.16
178.424	-35.16
178.644	-35.16
178.864	-63.83
179.084	-37.2
179.304	5.8
179.524	30.38
179.744	36.52
179.964	24.23
180.184	-49.49
180.404	5.8
180.624	1.71
180.844	-31.06
181.064	-57.68
181.283	-37.2
181.503	61.1
181.723	9.9
181.943	-4.44
182.163	110.25
182.383	69.29
182.602	-6.49
182.822	-39.25
183.042	65.19
183.262	79.53
183.482	-14.68
183.701	18.09
183.921	95.91
184.141	75.43
184.361	54.95
184.58	61.1
184.8	28.33
185.02	-8.53
185.239	24.23
185.459	-12.63
185.679	48.81
185.898	79.53
186.118	26.28
186.338	100.01
186.557	38.57
186.777	11.95
186.997	-53.59
187.216	-31.06
187.436	100.01
187.655	42.67
187.875	32.43
188.095	42.67
188.314	24.23
188.534	85.67
188.753	30.38
188.973	87.72
189.192	16.04
189.412	-22.87
189.631	67.24
189.851	28.33
190.07	104.11
190.29	20.14
190.509	3.75
190.729	42.67
190.948	108.2
191.168	140.97
191.387	18.09
191.607	34.47
191.826	50.86
192.045	52.91
192.265	30.38
192.484	3.75
192.704	54.95
192.923	-26.96
193.142	87.72
193.362	-6.49
193.581	36.52
193.8	67.24
194.02	100.01
194.239	-16.73
194.458	81.58
194.678	42.67
194.897	24.23
195.116	57
195.335	18.09
195.555	97.96
195.774	65.19
195.993	30.38
196.212	32.43
196.432	124.58
196.651	20.14
196.87	65.19
197.089	42.67
197.308	61.1
197.528	100.01
197.747	77.48
197.966	38.57
198.185	20.14
198.404	48.81
198.623	40.62
198.842	7.85
199.062	48.81
199.281	89.77
199.5	20.14
199.719	67.24
199.938	36.52
200.157	75.43
200.376	32.43
200.595	57
200.814	-4.44
201.033	16.04
201.252	83.63
201.471	63.15
201.69	61.1
201.909	9.9
202.128	42.67
202.347	22.19
202.566	147.11
202.785	13.99
203.004	38.57
203.223	63.15
203.442	75.43
203.661	34.47
203.879	48.81
204.098	63.15
204.317	34.47
204.536	118.44
204.755	46.76
204.974	93.87
205.193	79.53
205.411	20.14
205.63	28.33
205.849	11.95
206.068	44.71
206.287	-14.68
206.505	28.33
206.724	83.63
206.943	69.29
207.162	9.9
207.381	110.25
207.599	32.43
207.818	71.34
208.037	67.24
208.255	-4.44
208.474	20.14
208.693	104.11
208.911	34.47
209.13	77.48
209.349	48.81
209.567	28.33
209.786	91.82
210.005	30.38
210.223	26.28
210.442	-16.73
210.661	36.52
210.879	48.81
211.098	102.06
211.316	48.81
211.535	46.76
211.753	65.19
211.972	42.67
212.191	83.63
212.409	30.38
212.628	63.15
212.846	18.09
213.065	-14.68
213.283	20.14
213.502	-16.73
213.72	126.63
213.938	30.38
214.157	50.86
214.375	54.95
214.594	30.38
214.812	65.19
215.031	77.48
215.249	52.91
215.467	18.09
215.686	28.33
215.904	48.81
216.122	57
216.341	50.86
216.559	83.63
216.778	34.47
216.996	77.48
217.214	32.43
217.432	-6.49
217.651	-22.87
217.869	30.38
218.087	-10.58
218.306	-8.53
218.524	95.91
218.742	-20.82
218.96	11.95
219.179	79.53
219.397	63.15
219.615	-10.58
219.833	63.15
220.051	77.48
220.27	32.43
220.488	122.54
220.706	9.9
220.924	44.71
221.142	65.19
221.36	18.09
221.578	50.86
221.796	54.95
222.015	-4.44
222.233	9.9
222.451	77.48
222.669	-16.73
222.887	-0.34
223.105	-47.44
223.323	32.43
223.541	16.04
223.759	83.63
223.977	104.11
224.195	26.28
224.413	89.77
224.631	-0.34
224.849	69.29
225.067	34.47
225.285	-8.53
225.503	42.67
225.721	16.04
225.939	-4.44
226.157	34.47
226.375	63.15
226.592	32.43
226.81	32.43
227.028	28.33
227.246	11.95
227.464	1.71
227.682	95.91
227.9	71.34
228.117	36.52
228.335	3.75
228.553	75.43
228.771	42.67
228.989	69.29
229.206	24.23
229.424	71.34
229.642	63.15
229.86	-6.49
230.077	28.33
230.295	61.1
230.513	42.67
230.731	20.14
230.948	67.24
231.166	63.15
231.384	26.28
231.601	61.1
231.819	95.91
232.037	81.58
232.254	52.91
232.472	-24.92
232.689	-45.4
232.907	65.19
233.125	65.19
233.342	32.43
233.56	54.95
233.777	50.86
233.995	65.19
234.213	110.25
234.43	71.34
234.648	48.81
234.865	5.8
235.083	87.72
235.3	3.75
235.518	59.05
235.735	40.62
235.953	48.81
236.17	61.1
236.388	102.06
236.605	20.14
236.822	87.72
237.04	-4.44
237.257	-2.39
237.475	1.71
237.692	108.2
237.909	32.43
238.127	28.33
238.344	11.95
238.562	32.43
238.779	5.8
238.996	34.47
239.214	89.77
239.431	61.1
239.648	83.63
239.865	-4.44
240.083	116.39
240.3	34.47
240.517	-0.34
240.735	42.67
240.952	87.72
241.169	26.28
241.386	26.28
241.603	42.67
241.821	26.28
242.038	73.39
242.255	40.62
242.472	11.95
242.689	-18.77
242.907	52.91
243.124	20.14
243.341	52.91
243.558	36.52
243.775	-16.73
243.992	30.38
244.209	85.67
244.426	44.71
244.643	9.9
244.86	32.43
245.078	91.82
245.295	22.19
245.512	54.95
245.729	-14.68
245.946	32.43
246.163	65.19
246.38	28.33
246.597	34.47
246.814	73.39
247.031	20.14
247.248	61.1
247.464	42.67
247.681	81.58
247.898	126.63
248.115	57
248.332	36.52
248.549	87.72
248.766	93.87
248.983	75.43
249.2	9.9
249.417	91.82
249.633	34.47
249.85	110.25
250.067	57
250.284	81.58
250.501	34.47
250.717	-4.44
250.934	40.62
251.151	30.38
251.368	7.85
251.585	24.23
251.801	67.24
252.018	63.15
252.235	26.28
252.451	-51.54
252.668	50.86
252.885	48.81
253.102	36.52
253.318	-4.44
253.535	-12.63
253.752	93.87
253.968	79.53
254.185	32.43
254.401	120.49
254.618	20.14
254.835	114.34
255.051	61.1
255.268	-0.34
255.484	100.01
255.701	85.67
255.917	11.95
256.134	57
256.351	91.82
256.567	3.75
256.784	77.48
257	46.76
257.217	73.39
257.433	106.15
257.65	79.53
257.866	1.71
258.082	-6.49
258.299	52.91
258.515	40.62
258.732	24.23
258.948	34.47
259.165	77.48
259.381	97.96
259.597	91.82
259.814	81.58
260.03	83.63
260.246	42.67
260.463	79.53
260.679	59.05
260.895	28.33
261.112	126.63
261.328	16.04
261.544	42.67
261.761	77.48
261.977	136.87
262.193	-26.96
262.409	69.29
262.626	136.87
262.842	-8.53
263.058	50.86
263.274	77.48
263.49	75.43
263.707	85.67
263.923	1.71
264.139	63.15
264.355	104.11
264.571	143.02
264.787	50.86
265.004	26.28
265.22	20.14
265.436	57
265.652	50.86
265.868	44.71
266.084	32.43
266.3	140.97
266.516	40.62
266.732	54.95
266.948	73.39
267.164	5.8
267.38	26.28
267.596	52.91
267.812	44.71
268.028	-2.39
268.244	97.96
268.46	22.19
268.676	20.14
268.892	48.81
269.108	7.85
269.324	24.23
269.54	34.47
269.756	67.24
269.972	-29.01
270.188	87.72
270.403	77.48
270.619	65.19
270.835	30.38
271.051	-37.2
271.267	71.34
271.483	42.67
271.698	30.38
271.914	57
272.13	52.91
272.346	-2.39
272.562	-8.53
272.777	50.86
272.993	57
273.209	26.28
273.425	44.71
273.64	89.77
273.856	24.23
274.072	26.28
274.287	-37.2
274.503	67.24
274.719	97.96
274.934	63.15
275.15	-6.49
275.366	95.91
275.581	-8.53
275.797	46.76
276.012	34.47
276.228	73.39
276.444	73.39
276.659	73.39
276.875	11.95
277.09	69.29
277.306	30.38
277.521	67.24
277.737	-35.16
277.952	120.49
278.168	42.67
278.383	54.95
278.599	89.77
278.814	77.48
279.03	32.43
279.245	83.63
279.461	30.38
279.676	67.24
279.892	-47.44
280.107	7.85
280.322	-24.92
280.538	50.86
280.753	-6.49
280.969	22.19
281.184	-0.34
281.399	16.04
281.615	40.62
281.83	63.15
282.045	7.85
282.26	79.53
282.476	65.19
282.691	54.95
282.906	46.76
283.122	114.34
283.337	65.19
283.552	34.47
283.767	36.52
283.983	106.15
284.198	71.34
284.413	110.25
284.628	-18.77
284.843	77.48
285.058	44.71
285.274	-41.3
285.489	-37.2
285.704	26.28
285.919	40.62
286.134	-6.49
286.349	46.76
286.564	22.19
286.779	79.53
286.995	18.09
287.21	75.43
287.425	18.09
287.64	-29.01
287.855	13.99
288.07	5.8
288.285	85.67
288.5	93.87
288.715	16.04
288.93	3.75
289.145	-37.2
289.36	48.81
289.575	89.77
289.79	59.05
290.004	75.43
290.219	16.04
290.434	13.99
290.649	91.82
290.864	-10.58
291.079	65.19
291.294	32.43
291.509	89.77
291.724	-0.34
291.938	73.39
292.153	159.4
292.368	71.34
292.583	91.82
292.798	42.67
293.012	93.87
293.227	50.86
293.442	65.19
293.657	52.91
293.871	40.62
294.086	38.57
294.301	102.06
294.516	87.72
294.73	42.67
294.945	18.09
295.16	69.29
295.374	85.67
295.589	54.95
295.804	65.19
296.018	85.67
296.233	52.91
296.447	59.05
296.662	61.1
296.877	140.97
297.091	77.48
297.306	69.29
297.52	-4.44
297.735	40.62
297.949	1.71
298.164	63.15
298.378	-18.77
298.593	81.58
298.807	32.43
299.022	75.43
299.236	-10.58
299.451	77.48
299.665	83.63
299.88	40.62
300.094	34.47
300.309	77.48
300.523	67.24
300.737	59.05
300.952	59.05
301.166	97.96
301.381	28.33
301.595	18.09
301.809	32.43
302.024	100.01
302.238	61.1
302.452	89.77
302.667	36.52
302.881	104.11
303.095	73.39
303.309	44.71
303.524	40.62
303.738	57
303.952	89.77
304.166	65.19
304.381	26.28
304.595	116.39
304.809	71.34
305.023	46.76
305.237	34.47
305.452	32.43
305.666	118.44
305.88	97.96
306.094	-22.87
306.308	42.67
306.522	102.06
306.736	69.29
306.95	-14.68
307.164	116.39
307.379	87.72
307.593	46.76
307.807	50.86
308.021	42.67
308.235	40.62
308.449	9.9
308.663	143.02
308.877	95.91
309.091	13.99
309.305	128.68
309.519	32.43
309.733	52.91
309.947	34.47
310.161	134.82
310.374	18.09
310.588	46.76
310.802	69.29
311.016	67.24
311.23	59.05
311.444	61.1
311.658	-12.63
311.872	145.06
312.085	83.63
312.299	134.82
312.513	87.72
312.727	67.24
312.941	97.96
313.154	73.39
313.368	42.67
313.582	65.19
313.796	67.24
314.009	122.54
314.223	44.71
314.437	77.48
314.651	20.14
314.864	97.96
315.078	71.34
315.292	3.75
315.505	32.43
315.719	124.58
315.933	59.05
316.146	36.52
316.36	69.29
316.573	118.44
316.787	52.91
317.001	100.01
317.214	104.11
317.428	18.09
317.641	44.71
317.855	59.05
318.068	48.81
318.282	65.19
318.495	108.2
318.709	155.3
318.922	85.67
319.136	26.28
319.349	36.52
319.563	18.09
319.776	61.1
319.99	40.62
320.203	61.1
320.417	52.91
320.63	118.44
320.843	110.25
321.057	48.81
321.27	-18.77
321.483	104.11
321.697	102.06
321.91	77.48
322.124	40.62
322.337	38.57
322.55	50.86
322.763	112.3
322.977	91.82
323.19	143.02
323.403	32.43
323.617	83.63
323.83	46.76
324.043	48.81
324.256	83.63
324.469	18.09
324.683	42.67
324.896	11.95
325.109	91.82
325.322	9.9
325.535	130.73
325.748	85.67
325.962	81.58
326.175	85.67
326.388	71.34
326.601	20.14
326.814	97.96
327.027	24.23
327.24	79.53
327.453	46.76
327.666	79.53
327.879	118.44
328.092	100.01
328.305	75.43
328.518	61.1
328.731	-10.58
328.944	73.39
329.157	54.95
329.37	34.47
329.583	57
329.796	13.99
330.009	89.77
330.222	95.91
330.435	26.28
330.648	65.19
330.861	69.29
331.073	-8.53
331.286	102.06
331.499	93.87
331.712	28.33
331.925	65.19
332.138	1.71
332.35	67.24
332.563	28.33
332.776	97.96
332.989	52.91
333.202	3.75
333.414	81.58
333.627	57
333.84	57
334.053	46.76
334.265	-67.92
334.478	87.72
334.691	-24.92
334.903	106.15
335.116	3.75
335.329	59.05
335.541	122.54
335.754	71.34
335.966	16.04
336.179	75.43
336.392	22.19
336.604	71.34
336.817	77.48
337.029	-6.49
337.242	110.25
337.454	24.23
337.667	52.91
337.88	48.81
338.092	54.95
338.305	57
338.517	-24.92
338.729	77.48
338.942	71.34
339.154	106.15
339.367	22.19
339.579	48.81
339.792	81.58
340.004	20.14
340.217	-0.34
340.429	22.19
340.641	44.71
340.854	34.47
341.066	28.33
341.278	48.81
341.491	63.15
341.703	79.53
341.915	69.29
342.128	42.67
342.34	122.54
342.552	5.8
342.764	149.16
342.977	59.05
343.189	69.29
343.401	81.58
343.613	30.38
343.826	91.82
344.038	48.81
344.25	63.15
344.462	3.75
344.674	57
344.886	97.96
345.099	69.29
345.311	79.53
345.523	149.16
345.735	67.24
345.947	71.34
346.159	16.04
346.371	69.29
346.583	50.86
346.795	102.06
347.007	59.05
347.219	73.39
347.431	85.67
347.643	110.25
347.855	87.72
348.067	104.11
348.279	24.23
348.491	50.86
348.703	26.28
348.915	73.39
349.127	-29.01
349.339	-10.58
349.551	42.67
349.763	44.71
349.975	57
350.187	118.44
350.399	87.72
350.61	40.62
350.822	77.48
351.034	61.1
351.246	38.57
351.458	153.26
351.669	73.39
351.881	50.86
352.093	112.3
352.305	40.62
352.517	20.14
352.728	44.71
352.94	110.25
353.152	28.33
353.363	50.86
353.575	95.91
353.787	50.86
353.999	85.67
354.21	134.82
354.422	79.53
354.633	30.38
354.845	89.77
355.057	79.53
355.268	97.96
355.48	69.29
355.692	65.19
355.903	63.15
356.115	44.71
356.326	44.71
356.538	59.05
356.749	5.8
356.961	69.29
357.172	67.24
357.384	95.91
357.595	48.81
357.807	42.67
358.018	93.87
358.23	61.1
358.441	136.87
358.653	52.91
358.864	54.95
359.075	134.82
359.287	30.38
359.498	59.05
359.709	54.95
359.921	59.05
360.132	20.14
360.344	108.2
360.555	79.53
360.766	83.63
360.977	65.19
361.189	81.58
361.4	61.1
361.611	124.58
361.823	77.48
362.034	36.52
362.245	91.82
362.456	-12.63
362.667	69.29
362.879	11.95
363.09	11.95
363.301	110.25
363.512	30.38
363.723	77.48
363.935	61.1
364.146	71.34
364.357	-37.2
364.568	69.29
364.779	118.44
364.99	65.19
365.201	106.15
365.412	34.47
365.623	34.47
365.834	73.39
366.045	91.82
366.256	32.43
366.467	75.43
366.678	104.11
366.889	48.81
367.1	81.58
367.311	97.96
367.522	67.24
367.733	122.54
367.944	110.25
368.155	65.19
368.366	85.67
368.577	42.67
368.788	85.67
368.999	-2.39
369.209	32.43
369.42	106.15
369.631	104.11
369.842	42.67
370.053	126.63
370.264	104.11
370.474	102.06
370.685	97.96
370.896	26.28
371.107	57
371.317	77.48
371.528	136.87
371.739	40.62
371.95	81.58
372.16	89.77
372.371	67.24
372.582	130.73
372.792	34.47
373.003	104.11
373.214	34.47
373.424	73.39
373.635	52.91
373.846	118.44
374.056	24.23
374.267	100.01
374.477	112.3
374.688	81.58
374.898	48.81
375.109	52.91
375.319	147.11
375.53	102.06
375.74	83.63
375.951	67.24
376.161	61.1
376.372	100.01
376.582	69.29
376.793	126.63
377.003	77.48
377.214	7.85
377.424	75.43
377.635	73.39
377.845	34.47
378.055	102.06
378.266	91.82
378.476	85.67
378.686	32.43
378.897	145.06
379.107	59.05
379.317	28.33
379.528	16.04
379.738	65.19
379.948	54.95
380.158	65.19
380.369	106.15
380.579	69.29
380.789	77.48
380.999	155.3
381.21	104.11
381.42	145.06
381.63	65.19
381.84	106.15
382.05	132.78
382.261	93.87
382.471	85.67
382.681	112.3
382.891	44.71
383.101	97.96
383.311	93.87
383.521	16.04
383.731	81.58
383.941	67.24
384.151	59.05
384.361	52.91
384.571	104.11
384.781	165.54
384.991	140.97
385.201	95.91
385.411	147.11
385.621	106.15
385.831	61.1
386.041	106.15
386.251	134.82
386.461	69.29
386.671	11.95
386.881	95.91
387.091	97.96
387.301	140.97
387.511	44.71
387.72	71.34
387.93	67.24
388.14	26.28
388.35	122.54
388.56	40.62
388.769	40.62
388.979	52.91
389.189	102.06
389.399	106.15
389.609	63.15
389.818	91.82
390.028	93.87
390.238	102.06
390.447	73.39
390.657	134.82
390.867	3.75
391.076	89.77
391.286	32.43
391.496	52.91
391.705	100.01
391.915	134.82
392.125	91.82
392.334	83.63
392.544	110.25
392.753	50.86
392.963	46.76
393.172	112.3
393.382	79.53
393.591	177.83
393.801	26.28
394.01	169.64
394.22	63.15
394.429	116.39
394.639	44.71
394.848	186.02
395.058	140.97
395.267	128.68
395.477	26.28
395.686	138.92
395.895	124.58
396.105	169.64
396.314	155.3
396.524	110.25
396.733	153.26
396.942	153.26
397.152	110.25
397.361	108.2
397.57	61.1
397.78	102.06
397.989	106.15
398.198	143.02
398.407	130.73
398.617	169.64
398.826	95.91
399.035	100.01
399.244	175.78
399.453	151.21
399.663	188.07
399.872	157.35
400.081	157.35
400.29	181.93
400.499	97.96
400.708	198.31
400.917	120.49
401.127	179.88
401.336	75.43
401.545	143.02
401.754	143.02
401.963	200.36
402.172	149.16
402.381	241.32
402.59	118.44
402.799	83.63
403.008	120.49
403.217	155.3
403.426	159.4
403.635	93.87
403.844	138.92
404.053	136.87
404.262	175.78
404.471	222.89
404.68	231.08
404.888	196.26
405.097	134.82
405.306	179.88
405.515	261.8
405.724	181.93
405.933	173.74
406.142	204.46
406.35	241.32
406.559	251.56
406.768	257.7
406.977	194.22
407.185	294.57
407.394	259.75
407.603	317.09
407.812	257.7
408.02	233.13
408.229	288.42
408.438	269.99
408.646	358.05
408.855	308.9
409.064	315.05
409.272	319.14
409.481	317.09
409.69	255.65
409.898	364.2
410.107	423.59
410.315	394.92
410.524	429.73
410.733	439.97
410.941	374.44
411.15	425.64
411.358	507.55
411.567	478.88
411.775	470.69
411.984	530.08
412.192	540.32
412.401	599.71
412.609	579.23
412.818	589.47
413.026	601.76
413.234	630.43
413.443	583.33
413.651	634.53
413.86	638.62
414.068	714.4
414.276	745.12
414.485	798.37
414.693	806.56
414.901	837.28
415.11	872.09
415.318	824.99
415.526	925.34
415.734	970.4
415.943	954.01
416.151	994.97
416.359	972.44
416.567	1058.46
416.776	1054.36
416.984	1154.71
417.192	1255.06
417.4	1138.33
417.608	1240.73
417.817	1345.17
418.025	1318.55
418.233	1437.33
418.441	1304.21
418.649	1416.85
418.857	1480.34
419.065	1668.75
419.273	1394.33
419.481	1681.04
419.689	1793.68
419.897	1810.06
420.105	1871.5
420.313	1871.5
420.521	1988.24
420.729	1908.37
420.937	2057.87
421.145	2057.87
421.353	2205.32
421.561	2381.45
421.769	2336.39
421.977	2463.37
422.185	2363.01
422.393	2610.82
422.601	2682.5
422.809	2719.36
423.017	2844.29
423.224	2772.61
423.432	2999.93
423.64	3067.52
423.848	3264.12
424.056	3288.7
424.263	3391.09
424.471	3339.9
424.679	3528.31
424.887	3772.02
425.094	3677.81
425.302	3866.22
425.51	3831.41
425.718	4120.17
425.925	4052.59
426.133	4306.54
426.341	4552.29
426.548	4689.51
426.756	4648.55
426.964	4752.99
427.171	4982.37
427.379	5078.62
427.586	5330.52
427.794	5285.47
428.001	5617.24
428.209	5889.62
428.417	5776.98
428.624	6356.55
428.832	6307.4
429.039	6391.37
429.247	6334.03
429.454	6749.76
429.662	7159.36
429.869	6721.09
430.076	7194.17
430.284	7067.2
430.491	7376.44
430.699	7749.17
430.906	7734.84
431.114	7810.61
431.321	8109.61
431.528	8390.19
431.736	8883.75
431.943	9147.94
432.15	8996.39
432.358	9090.59
432.565	9709.08
432.772	9391.64
432.979	9983.51
433.187	10255.89
433.394	10360.33
433.601	10896.9
433.808	10896.9
434.016	10888.71
434.223	11329.02
434.43	12115.44
434.637	11886.07
434.844	12463.6
435.052	12940.77
435.259	12576.23
435.466	12844.52
435.673	12787.18
435.88	13671.9
436.087	14380.5
436.294	14376.4
436.501	13809.11
436.708	14144.98
436.915	14579.15
437.122	15314.37
437.329	15351.23
437.537	15740.35
437.743	15951.29
437.95	15640
438.157	16688.56
438.364	17323.43
438.571	17149.35
438.778	17323.43
438.985	19084.68
439.192	18222.48
439.399	18900.36
439.606	18466.19
439.813	19488.13
440.02	20669.81
440.227	20049.27
440.433	20028.79
440.64	20747.63
440.847	20583.79
441.054	21146.98
441.261	22027.61
441.467	22054.23
441.674	22891.85
441.881	23383.37
442.088	23321.93
442.294	22920.52
442.501	23805.25
442.708	24020.28
442.914	25384.23
443.121	25922.85
443.328	25677.09
443.534	27094.29
443.741	26744.08
443.948	25963.81
444.154	28364.03
444.361	27639.04
444.568	27852.03
444.774	27966.72
444.981	28812.53
445.187	29154.54
445.394	30536.92
445.6	29955.3
445.807	32969.91
446.013	31478.99
446.22	31900.87
446.426	33635.5
446.633	33610.92
446.839	34567.32
447.046	33447.08
447.252	34964.63
447.459	34843.8
447.665	34886.81
447.871	36459.65
448.078	37743.72
448.284	36031.62
448.491	37260.4
448.697	38769.76
448.903	39048.28
449.11	39033.94
449.316	37923.94
449.522	39326.8
449.728	40340.55
449.935	40836.16
450.141	40424.51
450.347	41532.46
450.553	40111.17
450.76	40727.61
450.966	41757.74
451.172	41049.14
451.378	42048.55
451.584	41540.66
451.791	42163.24
451.997	42120.23
452.203	42642.46
452.409	42642.46
452.615	42329.12
452.821	41114.68
453.027	40729.66
453.233	42490.91
453.44	40545.34
453.646	41208.89
453.852	41206.84
454.058	41927.72
454.264	40657.98
454.47	41432.11
454.676	40674.37
454.882	41643.06
455.088	38268
455.294	38999.13
455.5	39570.51
455.705	39765.07
455.911	37917.8
456.117	37112.95
456.323	36883.58
456.529	34661.53
456.735	36211.84
456.941	35239.06
457.147	34747.54
457.352	33739.94
457.558	33275.05
457.764	33262.77
457.97	32732.34
458.176	32109.76
458.381	32175.3
458.587	30502.11
458.793	30393.56
458.999	28605.69
459.204	30870.74
459.41	30008.54
459.616	28101.89
459.821	27819.27
460.027	28054.78
460.233	27319.56
460.438	25779.49
460.644	26338.58
460.85	24943.92
461.055	24741.17
461.261	24442.17
461.466	22787.41
461.672	22111.58
461.878	23512.39
462.083	22283.61
462.289	22089.05
462.494	21654.88
462.7	20741.49
462.905	20012.41
463.111	20743.53
463.316	20864.36
463.522	20176.25
463.727	20383.09
463.932	20411.76
464.138	20239.73
464.343	20288.89
464.549	19778.94
464.754	20368.76
464.959	20016.51
465.165	20096.38
465.37	19314.05
465.575	18544.02
465.781	19488.13
465.986	19684.73
466.191	18840.97
466.397	18396.56
466.602	17730.97
466.807	18408.85
467.012	18365.84
467.218	18152.85
467.423	17931.67
467.628	18124.18
467.833	18908.55
468.038	18027.93
468.244	17616.29
468.449	18421.14
468.654	17849.75
468.859	17730.97
469.064	17667.49
469.269	16915.88
469.474	16969.13
469.679	17286.56
469.885	16713.13
470.09	16825.77
470.295	16862.63
470.5	16227.76
470.705	16670.12
470.91	16248.24
471.115	16086.45
471.32	16342.45
471.525	16274.87
471.73	15658.43
471.935	15795.64
472.139	15029.7
472.344	15402.43
472.549	15257.03
472.754	15023.56
472.959	14605.77
473.164	14462.41
473.369	14312.91
473.574	14681.55
473.778	14568.91
473.983	14321.1
474.188	14056.92
474.393	13825.5
474.598	13905.37
474.802	13561.31
475.007	13583.84
475.212	13802.97
475.417	13075.94
475.621	13049.32
475.826	13028.84
476.031	12793.32
476.235	12760.55
476.44	13004.26
476.645	12381.68
476.849	12617.19
477.054	12674.54
477.259	12389.87
477.463	12387.82
477.668	11982.32
477.872	11980.28
478.077	11869.69
478.282	11625.98
478.486	11787.77
478.691	11435.52
478.895	11587.07
479.1	11392.51
479.304	11308.54
479.509	10999.3
479.713	11275.77
479.918	10925.57
480.122	10886.66
480.326	11200
480.531	11154.94
480.735	10759.69
480.94	10626.57
481.144	11214.34
481.348	10640.9
481.553	10851.85
481.757	10634.76
481.961	10601.99
482.166	10817.03
482.37	10667.53
482.574	10499.59
482.778	10649.1
482.983	10657.29
483.187	10651.14
483.391	10653.19
483.595	10769.93
483.8	10194.45
484.004	10544.65
484.208	10630.66
484.412	10548.75
484.616	10604.04
484.821	10640.9
485.025	10264.08
485.229	10864.13
485.433	10663.43
485.637	10440.2
485.841	10530.31
486.045	10616.33
486.249	10579.47
486.453	10538.51
486.657	10591.75
486.861	10726.92
487.065	10085.9
487.269	10638.86
487.473	10184.21
487.677	10673.67
487.881	10769.93
488.085	10597.9
488.289	10507.79
488.493	10538.51
488.697	10518.03
488.901	10616.33
489.105	10550.79
489.309	10767.88
489.512	10882.56
489.716	10624.52
489.92	10468.87
490.124	10692.1
490.328	10851.85
490.531	10708.49
490.735	10903.04
490.939	10972.68
491.143	10812.93
491.346	10800.65
491.55	10999.3
491.754	10929.67
491.958	11042.31
492.161	11122.18
492.365	11073.03
492.569	11038.21
492.772	10917.38
492.976	11204.1
493.18	11193.86
493.383	11324.93
493.587	11412.99
493.79	11630.07
493.994	11355.65
494.197	11544.06
494.401	11810.29
494.605	11871.73
494.808	11785.72
495.012	11951.6
495.215	11974.13
495.419	12178.93
495.622	12062.19
495.825	11988.47
496.029	12279.28
496.232	12604.91
496.436	12469.74
496.639	12766.7
496.843	12662.25
497.046	13123.04
497.249	13155.81
497.453	13053.41
497.656	13399.52
497.859	13426.14
498.063	13614.55
498.266	13755.86
498.469	13790.68
498.673	13798.87
498.876	13975
499.079	14026.2
499.282	14185.94
499.485	14405.07
499.689	14599.63
499.892	14659.02
500.095	14706.12
500.298	14917.06
500.501	15046.09
500.705	15465.92
500.908	15422.91
501.111	15625.66
501.314	16113.08
501.517	16061.88
501.72	16143.8
501.923	16319.92
502.126	16780.71
502.329	16674.22
502.532	16846.25
502.735	16917.93
502.938	17452.45
503.141	17507.74
503.344	17687.96
503.547	17700.25
503.75	18115.99
503.953	18214.29
504.156	18318.74
504.359	18271.64
504.562	18644.37
504.765	18974.09
504.968	19303.81
505.17	19471.75
505.373	19481.99
505.576	19633.54
505.779	19928.44
505.982	20010.36
506.185	20372.85
506.387	20292.98
506.59	20714.86
506.793	20870.51
506.996	21140.84
507.198	21720.42
507.401	21519.71
507.604	21656.93
507.807	22099.29
508.009	22111.58
508.212	22461.78
508.415	22627.67
508.617	22674.77
508.82	23213.38
509.022	23055.69
509.225	23696.71
509.428	23762.24
509.63	24177.98
509.833	24034.62
510.035	24509.75
510.238	24393.01
510.44	24821.04
510.643	25261.35
510.845	25302.31
511.048	25122.09
511.25	25679.14
511.453	25720.1
511.655	26686.74
511.858	26397.98
512.06	26793.23
512.262	26799.38
512.465	27223.31
512.667	27415.82
512.87	27477.26
513.072	27739.4
513.274	27841.79
513.477	28370.17
513.679	28687.6
513.881	28765.43
514.084	29336.81
514.286	29172.97
514.488	29367.53
514.69	30106.85
514.893	30211.29
515.095	30287.07
515.297	31044.82
515.499	31065.3
515.701	31136.98
515.904	31413.45
516.106	31761.61
516.308	31724.74
516.51	32416.96
516.712	32052.42
516.914	33074.35
517.116	33393.84
517.318	33250.48
517.52	33547.43
517.722	33805.48
517.925	34167.97
518.127	34372.77
518.329	34540.7
518.531	34651.29
518.733	35185.81
518.935	34968.73
519.136	35671.18
519.338	36377.73
519.54	35961.99
519.742	36426.88
519.944	36439.17
520.146	37209.2
520.348	37215.35
520.55	37317.75
520.752	37528.69
520.954	38018.15
521.155	37545.07
521.357	38429.79
521.559	38933.59
521.761	39136.34
521.963	39257.17
522.164	39480.4
522.366	39687.25
522.568	40217.67
522.77	39814.22
522.971	40719.42
523.173	40447.04
523.375	40612.93
523.576	40922.17
523.778	40774.72
523.98	41411.63
524.181	41374.77
524.383	41104.44
524.584	41860.14
524.786	41741.36
524.988	41864.24
525.189	42636.32
525.391	42841.12
525.592	42578.98
525.794	43193.37
525.995	43090.97
526.197	43295.77
526.398	43549.71
526.6	43744.27
526.801	43783.18
527.003	43826.19
527.204	43899.92
527.406	44418.05
527.607	44373
527.808	44336.13
528.01	43760.65
528.211	44616.71
528.412	45700.08
528.614	44987.39
528.815	44747.78
529.016	45511.67
529.218	44723.2
529.419	45208.57
529.62	45143.03
529.822	44932.09
530.023	44942.33
530.224	45638.64
530.425	45771.76
530.626	45409.27
530.828	44925.95
531.029	46064.62
531.23	45712.37
531.431	45442.04
531.632	45749.23
531.833	46021.61
532.035	45593.59
532.236	46107.63
532.437	45958.13
532.638	45626.35
532.839	45921.26
533.04	46500.84
533.241	45380.6
533.442	46787.55
533.643	46222.31
533.844	46232.55
534.045	46199.79
534.246	45915.12
534.447	46367.72
534.648	46324.71
534.849	46513.12
535.05	45827.06
535.251	46060.52
535.451	46337
535.652	46363.62
535.853	46119.91
536.054	46019.56
536.255	46463.97
536.456	45949.93
536.657	46771.17
536.857	46019.56
537.058	45962.22
537.259	46631.91
537.46	46482.41
537.66	46175.21
537.861	46590.95
538.062	46097.39
538.263	46216.17
538.463	46154.73
538.664	46584.8
538.865	46042.09
539.065	46320.62
539.266	45784.05
539.466	46517.22
539.667	45710.32
539.868	46519.27
540.068	46371.82
540.269	46257.13
540.469	46466.02
540.67	46074.86
540.87	46160.87
541.071	45642.74
541.271	46175.21
541.472	46011.37
541.672	45986.8
541.873	46011.37
542.073	45161.47
542.274	46590.95
542.474	45970.41
542.675	45503.48
542.875	45978.61
543.075	45487.09
543.276	45401.08
543.476	45931.5
543.676	45874.16
543.877	46068.72
544.077	45839.34
544.277	45786.1
544.478	45413.37
544.678	45974.51
544.878	45872.11
545.078	45777.9
545.279	45687.79
545.479	45585.4
545.679	45706.23
545.879	45751.28
546.079	45245.43
546.28	45272.06
546.48	45122.55
546.68	45593.59
546.88	45581.3
547.08	45652.98
547.28	45659.12
547.48	45491.19
547.68	45417.46
547.88	45198.33
548.081	45497.33
548.281	45681.65
548.481	45439.99
548.681	45736.94
548.881	45556.72
549.081	45638.64
549.28	45050.88
549.48	45364.21
549.68	45243.38
549.88	45730.8
550.08	44991.48
550.28	45771.76
550.48	45112.31
550.68	45622.26
550.88	45136.89
551.08	45245.43
551.279	45431.8
551.479	44911.61
551.679	45487.09
551.879	45020.16
552.079	45679.6
552.278	44948.48
552.478	45192.19
552.678	45179.9
552.878	45351.93
553.077	45321.21
553.277	44770.3
553.477	44968.96
553.676	44577.79
553.876	44829.69
554.076	44807.17
554.275	44663.81
554.475	44094.47
554.674	45083.64
554.874	44581.89
555.074	44504.07
555.273	44776.45
555.473	44620.8
555.672	44397.57
555.872	44608.51
556.071	44608.51
556.271	44749.82
556.47	43824.14
556.67	43865.1
556.869	44211.21
557.068	44612.61
557.268	44104.71
557.467	43942.92
557.667	43719.7
557.866	44112.91
558.065	44080.14
558.265	43719.7
558.464	43643.92
558.663	44264.46
558.863	43447.32
559.062	44348.42
559.261	43641.87
559.461	44258.31
559.66	43279.38
559.859	43791.37
560.058	43144.22
560.258	43615.25
560.457	43318.29
560.656	43727.89
560.855	43387.92
561.054	43475.99
561.253	43435.03
561.453	43412.5
561.652	43129.88
561.851	43203.61
562.05	43140.12
562.249	42906.65
562.448	42886.17
562.647	42865.69
562.846	42871.84
563.045	42996.76
563.244	42392.61
563.443	42652.7
563.642	42169.38
563.841	42822.69
564.04	42095.66
564.239	42648.61
564.438	41886.76
564.637	42439.72
564.836	42294.31
565.035	41735.21
565.234	42181.67
565.432	41954.35
565.631	41522.23
565.83	41794.6
566.029	41518.13
566.228	41120.82
566.427	41722.93
566.625	41391.16
566.824	40866.88
567.023	41468.98
567.222	40698.94
567.42	41366.58
567.619	40977.47
567.818	40926.27
568.016	40653.89
568.215	41247.8
568.414	40858.68
568.612	40686.65
568.811	40350.79
569.01	40797.24
569.208	40154.18
569.407	40395.84
569.605	40156.23
569.804	40391.75
570.002	39969.86
570.201	40344.64
570.4	39672.91
570.598	40137.8
570.797	39337.04
570.995	39896.14
571.193	39470.16
571.392	39605.33
571.59	39101.53
571.789	39568.46
571.987	39294.04
572.186	39066.71
572.384	38825.05
572.582	39236.69
572.781	39054.42
572.979	38550.62
573.177	38585.44
573.376	38851.67
573.574	38397.02
573.772	38653.02
573.971	38032.49
574.169	38128.74
574.367	37911.66
574.565	38290.53
574.763	38143.08
574.962	37958.76
575.16	37411.95
575.358	38153.32
575.556	37639.28
575.754	38095.97
575.952	37393.52
576.151	37622.89
576.349	36736.12
576.547	37192.82
576.745	37258.35
576.943	37237.87
577.141	37284.98
577.339	37549.17
577.537	36762.75
577.735	36707.45
577.933	36590.72
578.131	36869.24
578.329	36189.31
578.527	36095.11
578.725	36361.34
578.923	36316.29
579.121	35904.65
579.319	36129.92
579.516	36312.19
579.714	35892.36
579.912	35880.07
580.11	35667.08
580.308	36082.82
580.506	35390.61
580.704	34952.34
580.901	35556.49
581.099	35626.12
581.297	34995.35
581.495	35198.1
581.692	35337.36
581.89	34444.45
582.088	35230.87
582.285	34780.31
582.483	34935.96
582.681	34663.58
582.878	34489.5
583.076	34075.81
583.274	34684.06
583.471	34213.02
583.669	34372.77
583.866	33813.67
584.064	34354.33
584.262	33760.42
584.459	34043.04
584.657	33754.28
584.854	33889.45
585.052	33076.4
585.249	33879.21
585.447	33686.7
585.644	33240.24
585.841	33246.38
586.039	33410.22
586.236	32664.76
586.434	32918.71
586.631	32431.29
586.828	32713.91
587.026	32640.18
587.223	32588.99
587.42	32365.76
587.618	32505.02
587.815	32095.42
588.012	32242.88
588.21	32396.48
588.407	32615.61
588.604	31857.86
588.801	31929.54
588.999	31681.74
589.196	31997.12
589.393	31769.8
589.59	31683.78
589.787	31683.78
589.984	31562.95
590.182	31278.29
590.379	31417.55
590.576	31167.7
590.773	31241.42
590.97	30813.4
591.167	31315.15
591.364	30708.95
591.561	31005.91
591.758	30256.35
591.955	30231.77
592.152	30624.98
592.349	30457.05
592.546	30340.32
592.743	30389.47
592.94	30110.94
593.137	30354.65
593.334	30260.44
593.531	29523.18
593.727	30072.03
593.924	29824.23
594.121	29373.67
594.318	30002.4
594.515	28943.6
594.712	29717.73
594.908	29127.92
595.105	29768.93
595.302	29164.78
595.499	29439.21
595.696	28859.63
595.892	28779.76
596.089	28695.8
596.286	29388.01
596.482	28687.6
596.679	28613.88
596.876	28499.19
597.072	28153.09
597.269	28292.35
597.466	28331.26
597.662	28048.64
597.859	28103.93
598.055	28304.63
598.252	27876.61
598.448	27895.04
598.645	28105.98
598.841	27669.76
599.038	27614.47
599.234	27442.44
599.431	27487.5
599.627	27317.51
599.824	27258.12
600.02	27512.07
600.217	27276.55
600.413	27057.42
600.609	27155.72
600.806	27012.37
601.002	26672.4
601.198	26461.46
601.395	26578.2
601.591	26666.26
601.787	26756.37
601.984	26572.05
602.18	26713.36
602.376	26072.35
602.572	26369.3
602.769	26213.66
602.965	25765.15
603.161	26006.81
603.357	25914.66
603.553	25928.99
603.75	26017.05
603.946	25607.46
604.142	25914.66
604.338	25201.96
604.534	25539.88
604.73	25181.48
604.926	25425.19
605.122	25482.53
605.318	24988.97
605.514	24835.38
605.71	24798.51
605.906	25210.15
606.102	24997.17
606.298	24874.29
606.494	24665.39
606.69	24491.32
606.886	24798.51
607.082	24522.04
607.278	24646.96
607.474	24347.96
607.67	24632.63
607.866	24137.02
608.062	24616.24
608.257	24255.8
608.453	23909.69
608.649	24116.54
608.845	23993.66
609.041	24128.83
609.236	23766.34
609.432	24022.33
609.628	23803.2
609.824	23891.26
610.019	23571.78
610.215	23827.78
610.411	23977.28
610.606	23543.11
610.802	23543.11
610.998	23330.12
611.193	23348.55
611.389	23565.64
611.584	23311.69
611.78	23383.37
611.976	23248.2
612.171	23405.89
612.367	23129.42
612.562	23115.08
612.758	22824.27
612.953	22891.85
613.149	22703.44
613.344	22572.37
613.539	23037.26
613.735	23047.5
613.93	22928.72
614.126	22685.01
614.321	23035.21
614.517	22662.48
614.712	22580.56
614.907	22578.51
615.103	23104.84
615.298	22463.83
615.493	22900.05
615.688	22426.96
615.884	22705.49
616.079	22388.05
616.274	22252.89
616.47	22367.57
616.665	22193.5
616.86	22185.3
617.055	22181.21
617.25	22035.8
617.445	22234.46
617.641	22072.67
617.836	22046.04
618.031	21798.24
618.226	22074.71
618.421	21245.29
618.616	21869.92
618.811	21720.42
619.006	21699.94
619.201	21243.24
619.396	21570.91
619.591	21073.26
619.786	21265.77
619.981	20901.23
620.176	21210.47
620.371	20864.36
620.566	20944.24
620.761	20790.64
620.956	21067.11
621.151	20649.33
621.346	20641.14
621.541	20370.8
621.735	20690.29
621.93	19877.24
622.125	20370.8
622.32	19774.84
622.515	20196.73
622.709	20147.58
622.904	19432.83
623.099	20006.27
623.294	19860.86
623.488	19363.2
623.683	19682.69
623.878	19090.82
624.072	19297.67
624.267	19041.67
624.462	19135.88
624.656	18732.43
624.851	18757
625.046	18769.29
625.24	18691.47
625.435	18527.63
625.629	18390.42
625.824	18197.91
626.018	18267.54
626.213	17958.3
626.407	17814.94
626.602	17874.33
626.796	17859.99
626.991	17859.99
627.185	17487.26
627.38	17427.87
627.574	17391.01
627.768	17366.43
627.963	17407.39
628.157	17161.64
628.352	17100.2
628.546	16825.77
628.74	16977.32
628.935	16655.79
629.129	16793
629.323	16582.06
629.517	16543.15
629.712	16461.23
629.906	16176.56
630.1	15975.86
630.294	16528.81
630.489	16014.77
630.683	16354.74
630.877	15926.71
631.071	15746.49
631.265	15736.25
631.459	15621.56
631.653	15588.8
631.848	15807.93
632.042	15363.52
632.236	15453.63
632.43	15388.1
632.624	15320.51
632.818	14898.63
633.012	14939.59
633.206	15021.51
633.4	14849.48
633.594	14759.37
633.788	14757.32
633.982	14648.78
634.176	14542.28
634.369	14630.35
634.563	14362.06
634.757	14310.86
634.951	14261.71
635.145	14374.35
635.339	14493.13
635.533	13956.57
635.726	14013.91
635.92	13866.46
636.114	13876.69
636.308	13786.58
636.501	13614.55
636.695	13583.84
636.889	13714.91
637.083	13688.28
637.276	13600.22
637.47	13159.91
637.664	13342.18
637.857	13102.56
638.051	13149.67
638.244	13049.32
638.438	12918.25
638.632	13227.49
638.825	13006.31
639.019	12951.01
639.212	12916.2
639.406	12801.51
639.599	12738.02
639.793	12606.95
639.986	12609
640.18	12451.31
640.373	12393.97
640.567	12287.47
640.76	12355.05
640.954	12144.11
641.147	12092.91
641.34	12305.9
641.534	12207.6
641.727	12013.04
641.92	12094.96
642.114	11824.63
642.307	12004.85
642.5	11570.68
642.694	11732.47
642.887	11558.39
643.08	11607.55
643.273	11539.96
643.467	11589.11
643.66	11433.47
643.853	11245.06
644.046	11251.2
644.239	11068.93
644.432	11017.73
644.626	11173.38
644.819	11023.87
645.012	11038.21
645.205	10706.44
645.398	10892.8
645.591	10829.32
645.784	10903.04
645.977	10601.99
646.17	10778.12
646.363	10628.62
646.556	10341.9
646.749	10460.68
646.942	10614.28
647.135	10253.84
647.328	10337.8
647.521	10251.79
647.714	10186.26
647.907	10059.28
648.099	10155.54
648.292	10214.93
648.485	9985.55
648.678	9813.52
648.871	9862.68
649.064	9528.86
649.256	9598.49
649.449	9684.5
649.642	9633.3
649.835	9504.28
650.027	9516.57
650.22	9324.06
650.413	9424.41
650.605	9375.26
650.798	9184.8
650.991	9373.21
651.183	9174.56
651.376	9006.63
651.568	9221.66
651.761	9209.37
651.954	9066.02
652.146	9129.5
652.339	8975.91
652.531	8889.89
652.724	8887.84
652.916	8713.77
653.109	8730.15
653.301	8574.5
653.494	8861.22
653.686	8341.04
653.879	8693.29
654.071	8576.55
654.263	8551.98
654.456	8478.25
654.648	8484.39
654.84	8250.92
655.033	8463.91
655.225	8255.02
655.417	8158.77
655.61	8308.27
655.802	8252.97
655.994	8017.46
656.186	8169.01
656.379	7988.78
656.571	8082.99
656.763	7890.48
656.955	8056.37
657.148	7933.49
657.34	7904.82
657.532	7587.38
657.724	7761.46
657.916	7781.94
658.108	7681.59
658.3	7636.53
658.492	7652.92
658.684	7562.81
658.876	7415.35
659.068	7454.26
659.26	7353.91
659.452	7380.54
659.644	7480.89
659.836	7243.32
660.028	7231.04
660.22	7267.9
660.412	7233.08
660.604	6960.7
660.796	7224.89
660.988	7054.91
661.18	7114.3
661.372	7016
661.563	7177.79
661.755	6960.7
661.947	7018.05
662.139	6997.57
662.331	6882.88
662.522	6667.84
662.714	6741.57
662.906	6612.55
663.097	6725.19
663.289	6745.67
663.481	6788.68
663.673	6585.93
663.864	6633.03
664.056	6438.47
664.247	6461
664.439	6350.41
664.631	6555.21
664.822	6461
665.014	6346.31
665.205	6362.7
665.397	6297.16
665.588	6399.56
665.78	6356.55
665.971	6121.04
666.163	6288.97
666.354	5971.54
666.546	6250.06
666.737	5981.78
666.929	5969.49
667.12	6219.34
667.311	6024.78
667.503	6000.21
667.694	6012.49
667.885	5973.58
668.077	5910.1
668.268	5666.39
668.459	5881.42
668.651	5776.98
668.842	5891.66
669.033	5578.33
669.224	5688.92
669.416	5858.9
669.607	5715.54
669.798	5621.33
669.989	5623.38
670.18	5607
670.371	5690.96
670.563	5627.48
670.754	5594.71
670.945	5455.45
671.136	5512.79
671.327	5357.14
671.518	5453.4
671.709	5377.62
671.9	5353.05
672.091	5488.21
672.282	5379.67
672.473	5334.62
672.664	5238.36
672.855	5178.97
673.046	5285.47
673.237	5377.62
673.428	5256.79
673.619	5193.31
673.809	5117.53
674	5193.31
674.191	5033.57
674.382	5047.9
674.573	5074.53
674.764	5029.47
674.954	5004.89
675.145	4992.61
675.336	4894.3
675.527	4986.46
675.717	4939.36
675.908	4861.54
676.099	5078.62
676.289	4900.45
676.48	4933.22
676.671	4886.11
676.861	5115.48
677.052	4865.63
677.243	4826.72
677.433	4859.49
677.624	4867.68
677.814	4767.33
678.005	4892.26
678.195	4564.58
678.386	4783.71
678.576	4617.83
678.767	4804.19
678.957	4687.46
679.148	4767.33
679.338	4523.62
679.529	4607.59
679.719	4460.13
679.909	4740.71
680.1	4525.67
680.29	4525.67
680.481	4546.15
680.671	4603.49
680.861	4507.24
681.052	4644.45
681.242	4363.88
681.432	4574.82
681.622	4515.43
681.813	4576.87
682.003	4296.3
682.193	4515.43
682.383	4259.43
682.573	4515.43
682.764	4345.45
682.954	4429.42
683.144	4320.87
683.334	4128.36
683.524	4351.59
683.714	4353.64
683.904	4306.54
684.094	4230.76
684.284	4159.08
684.474	4245.1
684.664	4281.96
684.854	4187.75
685.044	4251.24
685.234	4243.05
685.424	4195.95
685.614	4238.95
685.804	4179.56
685.994	4163.18
686.184	4144.75
686.374	4146.8
686.564	4060.78
686.753	4173.42
686.943	4030.06
687.133	4089.45
687.323	3997.29
687.513	3972.72
687.702	4146.8
687.892	3970.67
688.082	4005.49
688.272	3972.72
688.461	3886.7
688.651	3929.71
688.841	3933.81
689.03	3823.22
689.22	3987.05
689.41	3849.84
689.599	3673.71
689.789	3743.35
689.979	3745.39
690.168	3827.31
690.358	3767.92
690.547	3720.82
690.737	3712.63
690.926	3784.3
691.116	3565.17
691.305	3612.28
691.495	3556.98
691.684	3595.89
691.874	3559.03
692.063	3597.94
692.252	3468.92
692.442	3599.99
692.631	3587.7
692.82	3626.61
693.01	3378.81
693.199	3436.15
693.388	3303.03
693.578	3337.85
693.767	3540.6
693.956	3483.25
694.146	3335.8
694.335	3366.52
694.524	3387
694.713	3405.43
694.902	3415.67
695.092	3331.7
695.281	3270.26
695.47	3303.03
695.659	3309.18
695.848	3362.42
696.037	3327.61
696.226	3401.33
696.415	3335.8
696.604	3264.12
696.793	3241.59
696.982	3307.13
697.171	3204.73
697.36	3284.6
697.549	3128.95
697.738	3182.2
697.927	3079.8
698.116	3182.2
698.305	3061.37
698.494	3124.86
698.683	3214.97
698.872	3251.83
699.061	3174.01
699.25	3085.95
699.438	3178.11
699.627	3126.91
699.816	3022.46
700.005	3163.77
700.193	3159.67
700.382	2975.36
700.571	3085.95
700.76	3071.61
700.948	3178.11
701.137	3026.56
701.326	3047.04
701.514	3106.43
701.703	3012.22
701.892	2999.93
702.08	3212.92
702.269	3063.42
702.457	3006.08
702.646	3122.81
702.834	3016.32
703.023	2969.21
703.212	3040.89
703.4	2868.86
703.589	2930.3
703.777	2827.9
703.965	3004.03
704.154	2946.69
704.342	2842.24
704.531	2901.63
704.719	2821.76
704.907	2979.45
705.096	3010.17
705.284	2975.36
705.472	2840.19
705.661	2840.19
705.849	2821.76
706.037	2885.25
706.226	2870.91
706.414	2850.43
706.602	2766.46
706.79	2997.88
706.979	2915.97
707.167	2840.19
707.355	2895.49
707.543	2748.03
707.731	2897.53
707.919	2889.34
708.107	2877.05
708.296	2909.82
708.484	2875.01
708.672	2856.58
708.86	2836.1
709.048	2887.29
709.236	2879.1
709.424	2895.49
709.612	2875.01
709.8	2780.8
709.988	2760.32
710.176	2895.49
710.364	2788.99
710.551	2672.26
710.739	2829.95
710.927	2848.38
711.115	2772.61
711.303	2737.79
711.491	2858.62
711.679	2948.73
711.866	2772.61
712.054	2795.14
712.242	2786.94
712.43	2793.09
712.617	2889.34
712.805	2676.35
712.993	2809.47
713.181	2666.11
713.368	2801.28
713.556	2819.71
713.744	2682.5
713.931	2909.82
714.119	2823.81
714.306	2750.08
714.494	2807.42
714.682	2725.51
714.869	2793.09
715.057	2752.13
715.244	2702.98
715.432	2864.77
715.619	2784.9
715.807	2885.25
715.994	2657.92
716.182	2705.03
716.369	2680.45
716.556	2793.09
716.744	2629.25
716.931	2733.7
717.119	2725.51
717.306	2711.17
717.493	2635.39
717.681	2743.94
717.868	2649.73
718.055	2651.78
718.242	2682.5
718.43	2770.56
718.617	2725.51
718.804	2639.49
718.991	2743.94
719.179	2739.84
719.366	2719.36
719.553	2668.16
719.74	2698.88
719.927	2610.82
720.114	2686.59
720.301	2645.63
720.488	2717.31
720.676	2645.63
720.863	2760.32
721.05	2686.59
721.237	2621.06
721.424	2569.86
721.611	2604.67
721.798	2619.01
721.985	2713.22
722.172	2651.78
722.358	2625.15
722.545	2676.35
722.732	2688.64
722.919	2637.44
723.106	2666.11
723.293	2707.07
723.48	2543.24
723.667	2674.31
723.853	2657.92
724.04	2741.89
724.227	2664.07
724.414	2727.55
724.6	2772.61
724.787	2647.68
724.974	2717.31
725.161	2678.4
725.347	2698.88
725.534	2608.77
725.72	2639.49
725.907	2508.42
726.094	2733.7
726.28	2770.56
726.467	2541.19
726.653	2821.76
726.84	2647.68
727.027	2571.91
727.213	2766.46
727.4	2657.92
727.586	2633.35
727.773	2659.97
727.959	2694.79
728.145	2709.12
728.332	2586.24
728.518	2729.6
728.705	2651.78
728.891	2674.31
729.077	2739.84
729.264	2702.98
729.45	2645.63
729.636	2524.8
729.823	2465.41
730.009	2651.78
730.195	2563.72
730.382	2578.05
730.568	2694.79
730.754	2616.96
730.94	2569.86
731.126	2719.36
731.313	2612.87
731.499	2666.11
731.685	2616.96
731.871	2545.28
732.057	2551.43
732.243	2735.74
732.429	2578.05
732.615	2596.48
732.801	2502.28
732.987	2649.73
733.173	2702.98
733.359	2678.4
733.545	2571.91
733.731	2487.94
733.917	2651.78
734.103	2702.98
734.289	2569.86
734.475	2506.37
734.661	2602.63
734.847	2549.38
735.033	2676.35
735.219	2518.66
735.404	2559.62
735.59	2561.67
735.776	2762.37
735.962	2674.31
736.148	2571.91
736.333	2639.49
736.519	2670.21
736.705	2754.18
736.89	2471.56
737.076	2719.36
737.262	2528.9
737.447	2557.57
737.633	2461.32
737.819	2477.7
738.004	2565.76
738.19	2629.25
738.375	2551.43
738.561	2584.2
738.747	2410.12
738.932	2549.38
739.118	2653.83
739.303	2481.8
739.489	2537.09
739.674	2473.6
739.859	2461.32
740.045	2444.93
740.23	2522.76
740.416	2299.53
740.601	2430.6
740.786	2502.28
740.972	2475.65
741.157	2385.54
741.342	2438.79
741.528	2403.97
741.713	2383.49
741.898	2381.45
742.084	2434.69
742.269	2473.6
742.454	2399.88
742.639	2297.48
742.824	2279.05
743.01	2377.35
743.195	2383.49
743.38	2377.35
743.565	2348.68
743.75	2336.39
743.935	2365.06
744.12	2270.86
744.305	2283.14
744.49	2277
744.675	2365.06
744.86	2143.88
745.045	2309.77
745.23	2227.85
745.415	2197.13
745.6	2360.97
745.785	2274.95
745.97	2193.03
746.155	2176.65
746.34	2279.05
746.525	2094.73
746.71	2240.14
746.895	2139.79
747.079	2104.97
747.264	2113.16
747.449	2096.78
747.634	2133.64
747.819	2068.11
748.003	2109.07
748.188	2164.36
748.373	2023.05
748.557	2004.62
748.742	2057.87
748.927	2076.3
749.111	2039.44
749.296	1961.61
749.481	2061.96
749.665	2049.68
749.85	2014.86
750.034	1996.43
750.219	1961.61
750.404	1949.32
750.588	1910.41
750.773	1990.28
750.957	1955.47
751.141	1920.65
751.326	1957.52
751.51	1965.71
751.695	1916.56
751.879	1830.54
752.064	1765.01
752.248	1844.88
752.432	1916.56
752.617	1726.1
752.801	1838.73
752.985	1730.19
753.17	1787.54
753.354	1799.82
753.538	1836.69
753.722	1771.15
753.907	1652.37
754.091	1765.01
754.275	1713.81
754.459	1771.15
754.643	1635.99
754.828	1607.31
755.012	1703.57
755.196	1699.47
755.38	1640.08
755.564	1709.71
755.748	1650.32
755.932	1617.55
756.116	1515.16
756.3	1584.79
756.484	1547.92
756.668	1605.27
756.852	1584.79
757.036	1498.77
757.22	1423
757.404	1453.72
757.588	1490.58
757.772	1511.06
757.956	1633.94
758.14	1564.31
758.323	1447.57
758.507	1429.14
758.691	1429.14
758.875	1509.01
759.059	1478.29
759.242	1394.33
759.426	1302.17
759.61	1412.76
759.794	1437.33
759.977	1316.5
760.161	1390.23
760.345	1410.71
760.528	1402.52
760.712	1367.7
760.895	1433.24
761.079	1406.61
761.263	1341.08
761.446	1279.64
761.63	1347.22
761.813	1336.98
761.997	1336.98
762.18	1312.41
762.364	1275.54
762.547	1318.55
762.731	1363.61
762.914	1267.35
763.098	1296.02
763.281	1289.88
763.464	1250.97
763.648	1359.51
763.831	1250.97
764.015	1160.86
764.198	1267.35
764.381	1267.35
764.564	1191.58
764.748	1263.26
764.931	1291.93
765.114	1113.75
765.297	1210.01
765.481	1138.33
765.664	1189.53
765.847	1144.47
766.03	1205.91
766.213	1244.82
766.397	1136.28
766.58	1142.43
766.763	1162.9
766.946	1240.73
767.129	1150.62
767.312	1089.18
767.495	1164.95
767.678	1054.36
767.861	1091.23
768.044	1146.52
768.227	1187.48
768.41	1115.8
768.593	1167
768.776	1136.28
768.959	1109.66
769.142	1019.55
769.324	1056.41
769.507	1107.61
769.69	1031.83
769.873	978.59
770.056	1119.9
770.239	1076.89
770.421	1097.37
770.604	1083.03
770.787	1054.36
770.97	1023.64
771.152	1023.64
771.335	1091.23
771.518	1056.41
771.7	962.2
771.883	1001.12
772.066	1023.64
772.248	1037.98
772.431	1021.6
772.613	1019.55
772.796	1007.26
772.978	949.92
773.161	978.59
773.343	970.4
773.526	990.88
773.708	941.72
773.891	984.73
774.073	999.07
774.256	861.85
774.438	1019.55
774.621	976.54
774.803	958.11
774.985	923.29
775.168	816.8
775.35	857.76
775.532	902.81
775.715	878.24
775.897	843.42
776.079	859.81
776.261	896.67
776.444	872.09
776.626	849.57
776.808	947.87
776.99	829.09
777.173	913.05
777.355	849.57
777.537	779.93
777.719	802.46
777.901	857.76
778.083	857.76
778.265	822.94
778.447	870.05
778.629	769.69
778.811	779.93
778.993	806.56
779.175	822.94
779.357	761.5
779.539	765.6
779.721	753.31
779.903	757.41
780.085	734.88
780.267	763.55
780.449	681.63
780.631	775.84
780.812	837.28
780.994	640.67
781.176	685.73
781.358	652.96
781.54	714.4
781.721	689.82
781.903	655.01
782.085	650.91
782.267	687.78
782.448	710.3
782.63	667.3
782.812	667.3
782.993	583.33
783.175	560.8
783.357	618.15
783.538	577.19
783.72	558.75
783.901	612
784.083	609.95
784.264	648.86
784.446	560.8
784.627	630.43
784.809	603.81
784.99	607.91
785.172	564.9
785.353	575.14
785.535	577.19
785.716	568.99
785.897	507.55
786.079	583.33
786.26	532.13
786.441	624.29
786.623	548.51
786.804	513.7
786.985	552.61
787.167	544.42
787.348	528.03
787.529	577.19
787.71	503.46
787.891	530.08
788.073	478.88
788.254	493.22
788.435	548.51
788.616	474.79
788.797	511.65
788.978	505.51
789.159	480.93
789.34	548.51
789.522	534.18
789.703	446.12
789.884	589.47
790.065	454.31
790.246	568.99
790.427	421.54
790.607	564.9
790.788	452.26
790.969	427.68
791.15	515.75
791.331	452.26
791.512	507.55
791.693	593.57
791.874	384.68
792.054	487.08
792.235	450.21
792.416	394.92
792.597	380.58
792.778	388.77
792.958	399.01
793.139	399.01
793.32	419.49
793.5	411.3
793.681	462.5
793.862	454.31
794.042	423.59
794.223	384.68
794.404	523.94
794.584	370.34
794.765	392.87
794.945	421.54
795.126	405.16
795.306	364.2
795.487	286.37
795.667	364.2
795.848	364.2
796.028	401.06
796.209	368.29
796.389	413.35
796.57	423.59
796.75	376.48
796.93	429.73
797.111	313
797.291	396.96
797.471	370.34
797.652	302.76
797.832	349.86
798.012	392.87
798.192	323.24
798.373	337.57
798.553	284.33
798.733	247.46
798.913	288.42
799.093	372.39
799.274	292.52
799.454	413.35
799.634	290.47
799.814	292.52
799.994	313
800.174	351.91
800.354	306.85
800.534	315.05
800.714	313
800.894	313
801.074	353.96
801.254	286.37
801.434	362.15
801.614	351.91
801.794	241.32
801.974	677.54
802.154	349.86
802.334	272.04
802.514	292.52
802.693	286.37
802.873	259.75
803.053	267.94
803.233	335.53
803.413	317.09
803.592	251.56
803.772	272.04
803.952	317.09
804.131	237.22
804.311	272.04
804.491	323.24
804.67	335.53
804.85	173.74
805.03	333.48
805.209	261.8
805.389	274.09
805.568	212.65
805.748	308.9
805.928	243.37
806.107	323.24
806.287	257.7
806.466	245.41
806.646	231.08
806.825	280.23
807.004	202.41
807.184	241.32
807.363	315.05
807.543	210.6
807.722	208.55
807.901	351.91
808.081	321.19
808.26	173.74
808.439	239.27
808.619	226.98
808.798	261.8
808.977	331.43
809.156	341.67
809.336	249.51
809.515	237.22
809.694	233.13
809.873	202.41
810.052	216.74
810.231	237.22
810.411	222.89
810.59	247.46
810.769	200.36
810.948	302.76
811.127	251.56
811.306	245.41
811.485	235.18
811.664	253.61
811.843	206.5
812.022	302.76
812.201	210.6
812.38	216.74
812.559	282.28
812.737	237.22
812.916	231.08
813.095	186.02
813.274	192.17
813.453	206.5
813.632	208.55
813.811	263.85
813.989	196.26
814.168	245.41
814.347	171.69
814.526	134.82
814.704	237.22
814.883	321.19
815.062	224.94
815.24	237.22
815.419	173.74
815.598	181.93
815.776	108.2
815.955	104.11
816.133	192.17
816.312	269.99
816.49	147.11
816.669	233.13
816.847	136.87
817.026	181.93
817.204	212.65
817.383	290.47
817.561	181.93
817.74	194.22
817.918	181.93
818.097	208.55
818.275	208.55
818.453	183.98
818.632	163.5
818.81	140.97
818.988	106.15
819.167	155.3
819.345	235.18
819.523	192.17
819.701	188.07
819.879	179.88
820.058	157.35
820.236	151.21
820.414	214.7
820.592	120.49
820.77	155.3
820.948	177.83
821.127	143.02
821.305	204.46
821.483	183.98
821.661	179.88
821.839	57
822.017	143.02
822.195	132.78
822.373	181.93
822.551	77.48
822.729	216.74
822.907	147.11
823.085	140.97
823.262	151.21
823.44	155.3
823.618	95.91
823.796	212.65
823.974	181.93
824.152	83.63
824.329	132.78
824.507	93.87
824.685	157.35
824.863	132.78
825.04	143.02
825.218	175.78
825.396	155.3
825.574	155.3
825.751	165.54
825.929	173.74
826.107	151.21
826.284	73.39
826.462	198.31
826.639	188.07
826.817	71.34
826.994	167.59
827.172	134.82
827.349	181.93
827.527	132.78
827.704	171.69
827.882	183.98
828.059	126.63
828.237	208.55
828.414	198.31
828.591	130.73
828.769	112.3
828.946	89.77
829.124	120.49
829.301	214.7
829.478	93.87
829.655	128.68
829.833	175.78
830.01	136.87
830.187	120.49
830.364	153.26
830.542	159.4
830.719	163.5
830.896	267.94
831.073	116.39
831.25	110.25
831.427	173.74
831.604	186.02
831.782	108.2
831.959	91.82
832.136	81.58
832.313	95.91
832.49	69.29
832.667	108.2
832.844	112.3
833.021	200.36
833.198	200.36
833.374	87.72
833.551	75.43
833.728	122.54
833.905	122.54
834.082	120.49
834.259	149.16
834.436	118.44
834.612	104.11
834.789	157.35
834.966	85.67
835.143	124.58
835.319	140.97
835.496	175.78
835.673	122.54
835.85	95.91
836.026	179.88
836.203	36.52
836.38	120.49
836.556	179.88
836.733	63.15
836.909	97.96
837.086	57
837.262	85.67
837.439	110.25
837.616	85.67
837.792	140.97
837.968	138.92
838.145	36.52
838.321	151.21
838.498	120.49
838.674	61.1
838.851	83.63
839.027	87.72
839.203	59.05
839.38	134.82
839.556	95.91
839.732	50.86
839.909	22.19
840.085	110.25
840.261	120.49
840.437	130.73
840.614	65.19
840.79	157.35
840.966	112.3
841.142	114.34
841.318	128.68
841.494	79.53
841.671	138.92
841.847	145.06
842.023	89.77
842.199	175.78
842.375	69.29
842.551	97.96
842.727	116.39
842.903	106.15
843.079	57
843.255	67.24
843.431	116.39
843.607	110.25
843.783	-16.73
843.959	67.24
844.134	28.33
844.31	52.91
844.486	52.91
844.662	69.29
844.838	108.2
845.013	79.53
845.189	26.28
845.365	24.23
845.541	126.63
845.716	118.44
845.892	59.05
846.068	9.9
846.244	16.04
846.419	132.78
846.595	20.14
846.77	44.71
846.946	71.34
847.122	50.86
847.297	44.71
847.473	181.93
847.648	46.76
847.824	124.58
847.999	28.33
848.175	114.34
848.35	52.91
848.526	102.06
848.701	106.15
848.876	34.47
849.052	28.33
849.227	79.53
849.403	79.53
849.578	95.91
849.753	52.91
849.929	38.57
850.104	95.91
850.279	59.05
850.454	-12.63
850.63	102.06
850.805	65.19
850.98	48.81
851.155	85.67
851.33	145.06
851.505	44.71
851.681	44.71
851.856	89.77
852.031	28.33
852.206	28.33
852.381	32.43
852.556	11.95
852.731	65.19
852.906	65.19
853.081	50.86
853.256	89.77
853.431	5.8
853.606	-8.53
853.781	83.63
853.956	-22.87
854.131	77.48
854.305	65.19
854.48	116.39
854.655	122.54
854.83	13.99
855.005	110.25
855.18	118.44
855.354	100.01
855.529	32.43
855.704	46.76
855.879	89.77
856.053	69.29
856.228	54.95
856.403	59.05
856.577	26.28
856.752	-6.49
856.926	50.86
857.101	54.95
857.276	57
857.45	81.58
857.625	95.91
857.799	40.62
857.974	81.58
858.148	-10.58
858.323	91.82
858.497	42.67
858.672	5.8
858.846	61.1
859.02	97.96
859.195	-35.16
859.369	63.15
859.543	100.01
859.718	24.23
859.892	26.28
860.066	59.05
860.241	71.34
860.415	13.99
860.589	54.95
860.763	48.81
860.938	32.43
861.112	13.99
861.286	32.43
861.46	54.95
861.634	61.1
861.808	28.33
861.982	46.76
862.157	11.95
862.331	44.71
862.505	54.95
862.679	-18.77
862.853	77.48
863.027	11.95
863.201	89.77
863.375	30.38
863.549	22.19
863.722	83.63
863.896	59.05
864.07	1.71
864.244	18.09
864.418	110.25
864.592	69.29
864.766	73.39
864.939	83.63
865.113	57
865.287	11.95
865.461	3.75
865.634	83.63
865.808	7.85
865.982	-43.35
866.156	11.95
866.329	28.33
866.503	11.95
866.676	71.34
866.85	67.24
867.024	-33.11
867.197	42.67
867.371	-67.92
867.544	18.09
867.718	110.25
867.891	36.52
868.065	63.15
868.238	71.34
868.412	81.58
868.585	40.62
868.759	-20.82
868.932	46.76
869.105	30.38
869.279	102.06
869.452	40.62
869.625	40.62
869.799	57
869.972	34.47
870.145	44.71
870.319	44.71
870.492	57
870.665	30.38
870.838	-10.58
871.011	-14.68
871.185	22.19
871.358	65.19
871.531	18.09
871.704	44.71
871.877	40.62
872.05	48.81
872.223	-16.73
872.396	93.87
872.569	36.52
872.742	48.81
872.915	-14.68
873.088	44.71
873.261	13.99
873.434	40.62
873.607	-10.58
873.78	155.3
873.953	54.95
874.126	42.67
874.299	73.39
874.471	102.06
874.644	-16.73
874.817	-6.49
874.99	36.52
875.163	22.19
875.335	44.71
875.508	36.52
875.681	24.23
875.853	34.47
876.026	46.76
876.199	57
876.371	83.63
876.544	34.47
876.717	-12.63
876.889	85.67
877.062	7.85
877.234	34.47
877.407	75.43
877.579	67.24
877.752	3.75
877.924	136.87
878.097	50.86
878.269	122.54
878.442	54.95
878.614	59.05
878.786	79.53
878.959	50.86
879.131	54.95
879.303	13.99
879.476	16.04
879.648	32.43
879.82	83.63
879.993	93.87
880.165	48.81
880.337	3.75
880.509	46.76
880.681	-20.82
880.854	46.76
881.026	42.67
881.198	75.43
881.37	20.14
881.542	85.67
881.714	57
881.886	147.11
882.058	75.43
882.23	-8.53
882.402	40.62
882.574	65.19
882.746	71.34
882.918	54.95
883.09	44.71
883.262	54.95
883.434	77.48
883.606	13.99
883.778	18.09
883.95	59.05
884.122	16.04
884.293	46.76
884.465	100.01
884.637	57
884.809	30.38
884.98	79.53
885.152	69.29
885.324	75.43
885.496	-4.44
885.667	26.28
885.839	32.43
886.011	89.77
886.182	67.24
886.354	32.43
886.525	32.43
886.697	22.19
886.869	-8.53
887.04	52.91
887.212	40.62
887.383	57
887.555	-24.92
887.726	89.77
887.897	-10.58
888.069	16.04
888.24	24.23
888.412	3.75
888.583	24.23
888.754	50.86
888.926	16.04
889.097	59.05
889.268	-14.68
889.44	3.75
889.611	-33.11
889.782	3.75
889.953	24.23
890.125	40.62
890.296	-31.06
890.467	40.62
890.638	28.33
890.809	-53.59
890.98	5.8
891.151	24.23
891.323	93.87
891.494	50.86
891.665	-39.25
891.836	32.43
892.007	-29.01
892.178	16.04
892.349	46.76
892.52	-8.53
892.691	32.43
892.862	28.33
893.032	20.14
893.203	26.28
893.374	59.05
893.545	32.43
893.716	7.85
893.887	79.53
894.057	30.38
894.228	36.52
894.399	28.33
894.57	26.28
894.74	77.48
894.911	34.47
895.082	-18.77
895.253	36.52
895.423	40.62
895.594	-33.11
895.764	28.33
895.935	71.34
896.106	75.43
896.276	69.29
896.447	50.86
896.617	50.86
896.788	16.04
896.958	32.43
897.129	-12.63
897.299	26.28
897.47	42.67
897.64	54.95
897.81	24.23
897.981	30.38
898.151	18.09
898.322	57
898.492	3.75
898.662	9.9
898.832	61.1
899.003	46.76
899.173	44.71
899.343	59.05
899.513	-8.53
