Data from USB4F104151__63__11-06-03-026.txt Node

Date: Wed Mar 12 11:06:03 EDT 2025
User: louis
Spectrometer: USB4F10415
Trigger mode: 4
Integration Time (sec): 2.000000E-2
Scans to average: 1
Electric dark correction enabled: true
Nonlinearity correction enabled: false
Boxcar width: 0
XAxis mode: Wavelengths
Number of Pixels in Spectrum: 3648
>>>>>Begin Spectral Data<<<<<
178.204	-8.02
178.424	-8.02
178.644	-8.02
178.864	-26.45
179.084	-65.36
179.304	26.79
179.524	-67.41
179.744	-28.5
179.964	-28.5
180.184	4.27
180.404	43.18
180.624	0.17
180.844	-55.12
181.064	-8.02
181.283	30.89
181.503	34.99
181.723	47.27
181.943	30.89
182.163	-10.07
182.383	-34.64
182.602	59.56
182.822	108.71
183.042	-38.74
183.262	24.75
183.482	8.36
183.701	53.42
183.921	-16.21
184.141	47.27
184.361	26.79
184.58	30.89
184.8	-3.93
185.02	-8.02
185.239	59.56
185.459	51.37
185.679	39.08
185.898	4.27
186.118	0.17
186.338	-20.31
186.557	32.94
186.777	-22.36
186.997	63.66
187.216	-65.36
187.436	51.37
187.655	-8.02
187.875	96.43
188.095	51.37
188.314	104.62
188.534	77.99
188.753	-20.31
188.973	20.65
189.192	-16.21
189.412	18.6
189.631	-1.88
189.851	-36.69
190.07	18.6
190.29	6.31
190.509	55.47
190.729	-8.02
190.948	39.08
191.168	26.79
191.387	67.75
191.607	-14.17
191.826	28.84
192.045	88.23
192.265	39.08
192.484	43.18
192.704	10.41
192.923	-8.02
193.142	57.51
193.362	75.95
193.581	41.13
193.8	8.36
194.02	82.09
194.239	4.27
194.458	-24.4
194.678	16.55
194.897	45.23
195.116	32.94
195.335	63.66
195.555	-28.5
195.774	0.17
195.993	4.27
196.212	10.41
196.432	59.56
196.651	-44.88
196.87	-1.88
197.089	14.51
197.308	-5.97
197.528	-18.26
197.747	-59.22
197.966	28.84
198.185	47.27
198.404	24.75
198.623	22.7
198.842	51.37
199.062	-3.93
199.281	-5.97
199.5	12.46
199.719	53.42
199.938	18.6
200.157	67.75
200.376	45.23
200.595	47.27
200.814	4.27
201.033	28.84
201.252	51.37
201.471	69.8
201.69	26.79
201.909	82.09
202.128	-28.5
202.347	43.18
202.566	63.66
202.785	2.22
203.004	6.31
203.223	80.04
203.442	45.23
203.661	-26.45
203.879	39.08
204.098	22.7
204.317	0.17
204.536	59.56
204.755	55.47
204.974	-30.55
205.193	51.37
205.411	110.76
205.63	-12.12
205.849	2.22
206.068	18.6
206.287	10.41
206.505	53.42
206.724	8.36
206.943	-14.17
207.162	2.22
207.381	-12.12
207.599	-26.45
207.818	-16.21
208.037	8.36
208.255	-12.12
208.474	-36.69
208.693	37.03
208.911	30.89
209.13	24.75
209.349	43.18
209.567	-26.45
209.786	59.56
210.005	73.9
210.223	-48.98
210.442	-1.88
210.661	2.22
210.879	4.27
211.098	30.89
211.316	82.09
211.535	51.37
211.753	4.27
211.972	71.85
212.191	24.75
212.409	92.33
212.628	-40.79
212.846	34.99
213.065	20.65
213.283	-12.12
213.502	-28.5
213.72	22.7
213.938	37.03
214.157	20.65
214.375	96.43
214.594	4.27
214.812	14.51
215.031	47.27
215.249	-28.5
215.467	65.71
215.686	65.71
215.904	118.95
216.122	92.33
216.341	26.79
216.559	88.23
216.778	67.75
216.996	71.85
217.214	-14.17
217.432	24.75
217.651	49.32
217.869	-38.74
218.087	-44.88
218.306	2.22
218.524	16.55
218.742	75.95
218.96	69.8
219.179	-12.12
219.397	100.52
219.615	4.27
219.833	22.7
220.051	20.65
220.27	-18.26
220.488	45.23
220.706	18.6
220.924	2.22
221.142	0.17
221.36	53.42
221.578	18.6
221.796	112.81
222.015	-8.02
222.233	-12.12
222.451	4.27
222.669	16.55
222.887	45.23
223.105	-51.03
223.323	37.03
223.541	-71.51
223.759	18.6
223.977	-5.97
224.195	-10.07
224.413	61.61
224.631	69.8
224.849	-3.93
225.067	8.36
225.285	-46.93
225.503	16.55
225.721	18.6
225.939	32.94
226.157	-5.97
226.375	53.42
226.592	16.55
226.81	37.03
227.028	73.9
227.246	57.51
227.464	-38.74
227.682	26.79
227.9	24.75
228.117	75.95
228.335	12.46
228.553	10.41
228.771	77.99
228.989	-1.88
229.206	-38.74
229.424	55.47
229.642	110.76
229.86	-24.4
230.077	32.94
230.295	16.55
230.513	37.03
230.731	10.41
230.948	47.27
231.166	-16.21
231.384	47.27
231.601	30.89
231.819	10.41
232.037	69.8
232.254	-36.69
232.472	16.55
232.689	61.61
232.907	108.71
233.125	6.31
233.342	-55.12
233.56	-16.21
233.777	0.17
233.995	-40.79
234.213	32.94
234.43	-16.21
234.648	30.89
234.865	18.6
235.083	123.05
235.3	55.47
235.518	59.56
235.735	49.32
235.953	34.99
236.17	30.89
236.388	61.61
236.605	34.99
236.822	22.7
237.04	41.13
237.257	24.75
237.475	-26.45
237.692	-8.02
237.909	63.66
238.127	84.14
238.344	2.22
238.562	77.99
238.779	-61.27
238.996	2.22
239.214	51.37
239.431	-10.07
239.648	-24.4
239.865	0.17
240.083	49.32
240.3	-3.93
240.517	-61.27
240.735	-26.45
240.952	14.51
241.169	8.36
241.386	20.65
241.603	41.13
241.821	16.55
242.038	-1.88
242.255	18.6
242.472	-5.97
242.689	45.23
242.907	127.14
243.124	-75.6
243.341	41.13
243.558	86.19
243.775	28.84
243.992	-57.17
244.209	-3.93
244.426	10.41
244.643	102.57
244.86	18.6
245.078	34.99
245.295	30.89
245.512	45.23
245.729	-61.27
245.946	18.6
246.163	20.65
246.38	59.56
246.597	45.23
246.814	39.08
247.031	24.75
247.248	12.46
247.464	39.08
247.681	90.28
247.898	26.79
248.115	43.18
248.332	-20.31
248.549	71.85
248.766	20.65
248.983	65.71
249.2	86.19
249.417	53.42
249.633	94.38
249.85	30.89
250.067	75.95
250.284	39.08
250.501	-14.17
250.717	41.13
250.934	12.46
251.151	0.17
251.368	24.75
251.585	59.56
251.801	102.57
252.018	12.46
252.235	69.8
252.451	16.55
252.668	-8.02
252.885	43.18
253.102	-3.93
253.318	55.47
253.535	30.89
253.752	26.79
253.968	6.31
254.185	-5.97
254.401	30.89
254.618	43.18
254.835	8.36
255.051	65.71
255.268	18.6
255.484	63.66
255.701	16.55
255.917	22.7
256.134	-69.46
256.351	90.28
256.567	-28.5
256.784	-3.93
257	-18.26
257.217	10.41
257.433	67.75
257.65	41.13
257.866	47.27
258.082	53.42
258.299	20.65
258.515	26.79
258.732	-10.07
258.948	22.7
259.165	8.36
259.381	0.17
259.597	-26.45
259.814	55.47
260.03	34.99
260.246	45.23
260.463	55.47
260.679	65.71
260.895	49.32
261.112	71.85
261.328	37.03
261.544	69.8
261.761	96.43
261.977	55.47
262.193	-24.4
262.409	34.99
262.626	30.89
262.842	67.75
263.058	-16.21
263.274	98.47
263.49	-87.89
263.707	-12.12
263.923	53.42
264.139	-16.21
264.355	2.22
264.571	100.52
264.787	82.09
265.004	4.27
265.22	-5.97
265.436	-18.26
265.652	-22.36
265.868	51.37
266.084	61.61
266.3	-14.17
266.516	-28.5
266.732	53.42
266.948	-22.36
267.164	28.84
267.38	20.65
267.596	88.23
267.812	59.56
268.028	65.71
268.244	43.18
268.46	71.85
268.676	90.28
268.892	45.23
269.108	4.27
269.324	-18.26
269.54	-38.74
269.756	34.99
269.972	10.41
270.188	-20.31
270.403	-14.17
270.619	45.23
270.835	88.23
271.051	-42.84
271.267	-26.45
271.483	2.22
271.698	30.89
271.914	30.89
272.13	108.71
272.346	47.27
272.562	14.51
272.777	75.95
272.993	14.51
273.209	20.65
273.425	-5.97
273.64	12.46
273.856	55.47
274.072	45.23
274.287	20.65
274.503	133.29
274.719	100.52
274.934	14.51
275.15	-51.03
275.366	39.08
275.581	16.55
275.797	0.17
276.012	-20.31
276.228	75.95
276.444	53.42
276.659	73.9
276.875	57.51
277.09	-26.45
277.306	-5.97
277.521	59.56
277.737	32.94
277.952	32.94
278.168	39.08
278.383	53.42
278.599	-30.55
278.814	71.85
279.03	53.42
279.245	71.85
279.461	-8.02
279.676	26.79
279.892	22.7
280.107	24.75
280.322	-32.6
280.538	16.55
280.753	43.18
280.969	135.34
281.184	6.31
281.399	49.32
281.615	80.04
281.83	39.08
282.045	-26.45
282.26	12.46
282.476	6.31
282.691	75.95
282.906	-28.5
283.122	-32.6
283.337	28.84
283.552	75.95
283.767	53.42
283.983	71.85
284.198	108.71
284.413	114.86
284.628	-20.31
284.843	12.46
285.058	43.18
285.274	16.55
285.489	73.9
285.704	37.03
285.919	28.84
286.134	2.22
286.349	18.6
286.564	2.22
286.779	73.9
286.995	32.94
287.21	0.17
287.425	51.37
287.64	-16.21
287.855	20.65
288.07	-48.98
288.285	4.27
288.5	26.79
288.715	69.8
288.93	96.43
289.145	-51.03
289.36	14.51
289.575	98.47
289.79	16.55
290.004	69.8
290.219	12.46
290.434	32.94
290.649	18.6
290.864	-10.07
291.079	-8.02
291.294	12.46
291.509	-8.02
291.724	59.56
291.938	51.37
292.153	-34.64
292.368	-20.31
292.583	12.46
292.798	-20.31
293.012	53.42
293.227	34.99
293.442	-5.97
293.657	73.9
293.871	53.42
294.086	24.75
294.301	26.79
294.516	-46.93
294.73	24.75
294.945	41.13
295.16	45.23
295.374	49.32
295.589	84.14
295.804	-5.97
296.018	49.32
296.233	73.9
296.447	82.09
296.662	-5.97
296.877	106.67
297.091	84.14
297.306	-5.97
297.52	18.6
297.735	59.56
297.949	114.86
298.164	61.61
298.378	69.8
298.593	39.08
298.807	45.23
299.022	8.36
299.236	30.89
299.451	51.37
299.665	82.09
299.88	26.79
300.094	71.85
300.309	69.8
300.523	24.75
300.737	61.61
300.952	-24.4
301.166	8.36
301.381	-5.97
301.595	20.65
301.809	57.51
302.024	8.36
302.238	96.43
302.452	67.75
302.667	92.33
302.881	-12.12
303.095	10.41
303.309	16.55
303.524	8.36
303.738	10.41
303.952	77.99
304.166	12.46
304.381	18.6
304.595	30.89
304.809	-38.74
305.023	-5.97
305.237	69.8
305.452	39.08
305.666	118.95
305.88	6.31
306.094	-12.12
306.308	112.81
306.522	73.9
306.736	32.94
306.95	0.17
307.164	28.84
307.379	26.79
307.593	69.8
307.807	20.65
308.021	80.04
308.235	67.75
308.449	-8.02
308.663	45.23
308.877	82.09
309.091	53.42
309.305	59.56
309.519	41.13
309.733	80.04
309.947	-55.12
310.161	32.94
310.374	20.65
310.588	96.43
310.802	45.23
311.016	82.09
311.23	82.09
311.444	-10.07
311.658	-3.93
311.872	45.23
312.085	8.36
312.299	127.14
312.513	69.8
312.727	0.17
312.941	12.46
313.154	8.36
313.368	8.36
313.582	4.27
313.796	20.65
314.009	47.27
314.223	73.9
314.437	98.47
314.651	32.94
314.864	47.27
315.078	18.6
315.292	-12.12
315.505	73.9
315.719	12.46
315.933	-5.97
316.146	30.89
316.36	63.66
316.573	22.7
316.787	-5.97
317.001	100.52
317.214	-3.93
317.428	32.94
317.641	-10.07
317.855	-3.93
318.068	116.9
318.282	63.66
318.495	98.47
318.709	63.66
318.922	20.65
319.136	104.62
319.349	41.13
319.563	26.79
319.776	24.75
319.99	47.27
320.203	41.13
320.417	12.46
320.63	-20.31
320.843	12.46
321.057	43.18
321.27	-16.21
321.483	80.04
321.697	34.99
321.91	4.27
322.124	53.42
322.337	104.62
322.55	32.94
322.763	32.94
322.977	92.33
323.19	30.89
323.403	22.7
323.617	-22.36
323.83	6.31
324.043	-55.12
324.256	8.36
324.469	4.27
324.683	2.22
324.896	16.55
325.109	67.75
325.322	34.99
325.535	6.31
325.748	65.71
325.962	57.51
326.175	18.6
326.388	94.38
326.601	82.09
326.814	-1.88
327.027	61.61
327.24	112.81
327.453	-8.02
327.666	6.31
327.879	22.7
328.092	69.8
328.305	8.36
328.518	16.55
328.731	34.99
328.944	-5.97
329.157	12.46
329.37	6.31
329.583	32.94
329.796	61.61
330.009	-12.12
330.222	-8.02
330.435	20.65
330.648	59.56
330.861	-18.26
331.073	49.32
331.286	39.08
331.499	57.51
331.712	18.6
331.925	133.29
332.138	-8.02
332.35	82.09
332.563	67.75
332.776	41.13
332.989	14.51
333.202	71.85
333.414	20.65
333.627	71.85
333.84	53.42
334.053	30.89
334.265	18.6
334.478	24.75
334.691	12.46
334.903	45.23
335.116	22.7
335.329	26.79
335.541	57.51
335.754	-8.02
335.966	14.51
336.179	47.27
336.392	-24.4
336.604	20.65
336.817	47.27
337.029	34.99
337.242	41.13
337.454	98.47
337.667	51.37
337.88	20.65
338.092	20.65
338.305	-10.07
338.517	6.31
338.729	16.55
338.942	45.23
339.154	24.75
339.367	41.13
339.579	-8.02
339.792	53.42
340.004	65.71
340.217	-10.07
340.429	59.56
340.641	37.03
340.854	57.51
341.066	4.27
341.278	49.32
341.491	10.41
341.703	41.13
341.915	-61.27
342.128	53.42
342.34	84.14
342.552	67.75
342.764	67.75
342.977	67.75
343.189	-14.17
343.401	18.6
343.613	26.79
343.826	30.89
344.038	61.61
344.25	49.32
344.462	-18.26
344.674	12.46
344.886	82.09
345.099	59.56
345.311	94.38
345.523	118.95
345.735	-83.8
345.947	57.51
346.159	59.56
346.371	32.94
346.583	43.18
346.795	92.33
347.007	30.89
347.219	106.67
347.431	-14.17
347.643	96.43
347.855	84.14
348.067	45.23
348.279	86.19
348.491	59.56
348.703	47.27
348.915	-71.51
349.127	77.99
349.339	-48.98
349.551	8.36
349.763	16.55
349.975	12.46
350.187	73.9
350.399	47.27
350.61	94.38
350.822	59.56
351.034	51.37
351.246	65.71
351.458	32.94
351.669	28.84
351.881	67.75
352.093	98.47
352.305	92.33
352.517	102.57
352.728	121
352.94	102.57
353.152	71.85
353.363	20.65
353.575	18.6
353.787	41.13
353.999	65.71
354.21	65.71
354.422	73.9
354.633	12.46
354.845	-1.88
355.057	30.89
355.268	86.19
355.48	63.66
355.692	-73.56
355.903	28.84
356.115	53.42
356.326	26.79
356.538	51.37
356.749	49.32
356.961	77.99
357.172	-12.12
357.384	-32.6
357.595	118.95
357.807	12.46
358.018	59.56
358.23	20.65
358.441	131.24
358.653	90.28
358.864	8.36
359.075	45.23
359.287	88.23
359.498	30.89
359.709	86.19
359.921	37.03
360.132	-22.36
360.344	61.61
360.555	12.46
360.766	0.17
360.977	22.7
361.189	57.51
361.4	24.75
361.611	0.17
361.823	116.9
362.034	47.27
362.245	69.8
362.456	135.34
362.667	86.19
362.879	92.33
363.09	80.04
363.301	53.42
363.512	30.89
363.723	59.56
363.935	39.08
364.146	47.27
364.357	39.08
364.568	47.27
364.779	73.9
364.99	32.94
365.201	90.28
365.412	45.23
365.623	63.66
365.834	80.04
366.045	28.84
366.256	2.22
366.467	30.89
366.678	53.42
366.889	16.55
367.1	73.9
367.311	34.99
367.522	61.61
367.733	43.18
367.944	94.38
368.155	59.56
368.366	96.43
368.577	28.84
368.788	90.28
368.999	-12.12
369.209	82.09
369.42	65.71
369.631	41.13
369.842	69.8
370.053	118.95
370.264	84.14
370.474	135.34
370.685	-8.02
370.896	65.71
371.107	75.95
371.317	59.56
371.528	53.42
371.739	110.76
371.95	18.6
372.16	67.75
372.371	28.84
372.582	67.75
372.792	108.71
373.003	61.61
373.214	-12.12
373.424	0.17
373.635	82.09
373.846	24.75
374.056	34.99
374.267	18.6
374.477	71.85
374.688	34.99
374.898	110.76
375.109	73.9
375.319	94.38
375.53	30.89
375.74	75.95
375.951	47.27
376.161	71.85
376.372	94.38
376.582	24.75
376.793	104.62
377.003	73.9
377.214	26.79
377.424	8.36
377.635	18.6
377.845	22.7
378.055	127.14
378.266	57.51
378.476	57.51
378.686	-10.07
378.897	75.95
379.107	65.71
379.317	63.66
379.528	88.23
379.738	82.09
379.948	51.37
380.158	96.43
380.369	61.61
380.579	116.9
380.789	77.99
380.999	65.71
381.21	-46.93
381.42	61.61
381.63	92.33
381.84	75.95
382.05	0.17
382.261	4.27
382.471	67.75
382.681	49.32
382.891	90.28
383.101	61.61
383.311	39.08
383.521	57.51
383.731	86.19
383.941	84.14
384.151	4.27
384.361	61.61
384.571	32.94
384.781	80.04
384.991	77.99
385.201	75.95
385.411	49.32
385.621	100.52
385.831	100.52
386.041	39.08
386.251	26.79
386.461	98.47
386.671	84.14
386.881	106.67
387.091	12.46
387.301	32.94
387.511	20.65
387.72	84.14
387.93	77.99
388.14	61.61
388.35	55.47
388.56	143.53
388.769	129.19
388.979	80.04
389.189	2.22
389.399	12.46
389.609	90.28
389.818	41.13
390.028	49.32
390.238	69.8
390.447	43.18
390.657	57.51
390.867	47.27
391.076	4.27
391.286	55.47
391.496	26.79
391.705	39.08
391.915	34.99
392.125	104.62
392.334	143.53
392.544	82.09
392.753	49.32
392.963	28.84
393.172	106.67
393.382	14.51
393.591	137.38
393.801	84.14
394.01	61.61
394.22	73.9
394.429	65.71
394.639	125.1
394.848	55.47
395.058	41.13
395.267	49.32
395.477	77.99
395.686	28.84
395.895	131.24
396.105	77.99
396.314	59.56
396.524	96.43
396.733	63.66
396.942	182.44
397.152	135.34
397.361	69.8
397.57	116.9
397.78	63.66
397.989	131.24
398.198	123.05
398.407	75.95
398.617	123.05
398.826	114.86
399.035	106.67
399.244	118.95
399.453	92.33
399.663	108.71
399.872	73.9
400.081	104.62
400.29	45.23
400.499	106.67
400.708	92.33
400.917	129.19
401.127	137.38
401.336	155.82
401.545	110.76
401.754	157.86
401.963	116.9
402.172	112.81
402.381	41.13
402.59	133.29
402.799	180.39
403.008	127.14
403.217	90.28
403.426	75.95
403.635	131.24
403.844	149.67
404.053	131.24
404.262	155.82
404.471	123.05
404.68	118.95
404.888	90.28
405.097	123.05
405.306	106.67
405.515	155.82
405.724	209.06
405.933	145.58
406.142	180.39
406.35	209.06
406.559	123.05
406.768	151.72
406.977	268.45
407.185	153.77
407.394	182.44
407.603	194.73
407.812	176.3
408.02	209.06
408.229	186.54
408.438	215.21
408.646	182.44
408.855	178.34
409.064	264.36
409.272	159.91
409.481	284.84
409.69	233.64
409.898	223.4
410.107	305.32
410.315	303.27
410.524	278.69
410.733	252.07
410.941	262.31
411.15	272.55
411.358	352.42
411.567	321.7
411.775	342.18
411.984	362.66
412.192	415.91
412.401	395.43
412.609	358.57
412.818	395.43
413.026	397.48
413.234	487.59
413.443	483.49
413.651	417.96
413.86	469.16
414.068	473.25
414.276	565.41
414.485	561.31
414.693	565.41
414.901	696.48
415.11	651.42
415.318	600.23
415.526	671.9
415.734	669.86
415.943	714.91
416.151	782.49
416.359	776.35
416.567	800.93
416.776	831.65
416.984	837.79
417.192	852.13
417.4	829.6
417.608	946.33
417.817	942.24
418.025	948.38
418.233	999.58
418.441	1056.92
418.649	1028.25
418.857	1282.2
419.065	1218.71
419.273	1134.75
419.481	1169.56
419.689	1239.19
419.897	1441.94
420.105	1392.79
420.313	1368.21
420.521	1519.76
420.729	1472.66
420.937	1558.67
421.145	1523.86
421.353	1634.45
421.561	1687.7
421.769	1724.56
421.977	1861.77
422.185	1773.71
422.393	1896.59
422.601	1945.74
422.809	1915.02
423.017	2080.91
423.224	2128.01
423.432	2191.5
423.64	2293.9
423.848	2386.05
424.056	2433.16
424.263	2498.69
424.471	2640
424.679	2695.3
424.887	2822.27
425.094	2852.99
425.302	2869.37
425.51	2996.35
425.718	3049.6
425.925	3022.97
426.133	3201.15
426.341	3326.07
426.548	3584.12
426.756	3580.02
426.964	3764.34
427.171	3825.78
427.379	3897.46
427.586	3909.74
427.794	4094.06
428.001	4309.1
428.209	4536.42
428.417	4278.38
428.624	4757.6
428.832	4784.23
429.039	4690.02
429.247	4655.2
429.454	5185.63
429.662	5478.49
429.869	5116
430.076	5394.52
430.284	5400.66
430.491	5433.43
430.699	5916.75
430.906	5943.38
431.114	6049.87
431.321	6109.26
431.528	6455.37
431.736	6645.83
431.943	7094.33
432.15	6973.5
432.358	6889.54
432.565	7123.01
432.772	7272.51
432.979	7571.51
433.187	7882.8
433.394	7868.47
433.601	8155.18
433.808	8216.62
434.016	8333.36
434.223	8775.72
434.43	9091.1
434.637	8908.83
434.844	9512.99
435.052	9803.8
435.259	9564.18
435.466	9969.68
435.673	9445.4
435.88	10203.15
436.087	10539.02
436.294	10663.94
436.501	10592.27
436.708	10868.74
436.915	11372.54
437.122	11847.67
437.329	11689.98
437.537	11911.16
437.743	12330.99
437.95	11993.08
438.157	12869.61
438.364	13191.14
438.571	13051.88
438.778	13189.09
438.985	14442.45
439.192	13903.83
439.399	14374.86
439.606	14104.53
439.813	14831.56
440.02	15740.86
440.227	15495.1
440.433	15208.39
440.64	15708.09
440.847	15882.17
441.054	16132.02
441.261	17203.11
441.467	17037.22
441.674	17362.85
441.881	18055.06
442.088	17825.69
442.294	17536.93
442.501	18210.71
442.708	18679.69
442.914	19335.04
443.121	20017.02
443.328	19642.24
443.534	21002.09
443.741	20416.37
443.948	19912.57
444.154	21716.83
444.361	21438.31
444.568	21667.68
444.774	21647.2
444.981	21798.75
445.187	22386.52
445.394	23740.22
445.6	23324.49
445.807	25519.91
446.013	24502.07
446.22	24540.98
446.426	25702.18
446.633	25933.6
446.839	26730.26
447.046	25900.83
447.252	27234.06
447.459	27012.88
447.665	26871.57
447.871	27963.14
448.078	29406.95
448.284	28043.01
448.491	28837.62
448.697	29894.37
448.903	30152.41
449.11	30467.8
449.316	29937.38
449.522	30318.3
449.728	31600.33
449.935	31678.15
450.141	31647.43
450.347	32038.59
450.553	31160.02
450.76	31577.8
450.966	32456.38
451.172	32159.42
451.378	32941.75
451.584	32761.53
451.791	33005.24
451.997	32919.22
452.203	33361.58
452.409	33283.76
452.615	33015.47
452.821	32134.85
453.027	31727.3
453.233	33060.53
453.44	31823.56
453.646	32440
453.852	32569.02
454.058	32779.96
454.264	31725.25
454.47	32360.12
454.676	31983.3
454.882	32671.42
455.088	29830.88
455.294	30263
455.5	30695.13
455.705	30963.41
455.911	29515.5
456.117	29253.36
456.323	28935.92
456.529	27240.2
456.735	28180.22
456.941	27727.62
457.147	26910.48
457.352	26335
457.558	26238.75
457.764	26130.2
457.97	25481
458.176	25134.89
458.381	24991.53
458.587	23723.84
458.793	23541.57
458.999	22540.11
459.204	23865.15
459.41	23543.62
459.616	22056.79
459.821	22040.41
460.027	22107.99
460.233	21360.48
460.438	20492.15
460.644	20748.14
460.85	19527.55
461.055	19498.88
461.261	19068.81
461.466	17823.64
461.672	17624.99
461.878	18626.45
462.083	17629.09
462.289	17239.97
462.494	16801.71
462.7	16132.02
462.905	15515.58
463.111	16289.71
463.316	16422.83
463.522	16097.21
463.727	16003
463.932	15804.35
464.138	15820.73
464.343	15865.78
464.549	15505.34
464.754	16033.72
464.959	15921.08
465.165	15577.02
465.37	15103.94
465.575	14645.2
465.781	15052.74
465.986	15292.35
466.191	14776.27
466.397	14446.54
466.602	13664.22
466.807	14381.01
467.012	14335.95
467.218	14372.82
467.423	14098.39
467.628	14276.56
467.833	14913.48
468.038	14401.49
468.244	13924.31
468.449	14360.53
468.654	13936.6
468.859	13699.03
469.064	13883.35
469.269	13154.27
469.474	13207.52
469.679	13621.21
469.885	13088.74
470.09	13268.96
470.295	12959.72
470.5	13135.84
470.705	13137.89
470.91	12824.55
471.115	12693.48
471.32	12828.65
471.525	12427.25
471.73	12363.76
471.935	12376.05
472.139	12199.92
472.344	12236.78
472.549	12179.44
472.754	12007.41
472.959	11530.23
473.164	11309.05
473.369	11261.95
473.574	11524.09
473.778	11542.52
473.983	11489.28
474.188	11315.2
474.393	10842.12
474.598	11008
474.802	10790.92
475.007	10766.34
475.212	10655.75
475.417	10549.26
475.621	10344.46
475.826	10186.77
476.031	10299.41
476.235	10080.27
476.44	10188.82
476.645	9883.67
476.849	10024.98
477.054	9963.54
477.259	9654.3
477.463	9934.87
477.668	9355.29
477.872	9699.35
478.077	9457.69
478.282	9029.66
478.486	9199.65
478.691	9156.64
478.895	9246.75
479.1	8902.69
479.304	9093.15
479.509	8755.24
479.713	8923.17
479.918	8904.74
480.122	8677.41
480.326	8667.17
480.531	8861.73
480.735	8556.58
480.94	8511.53
481.144	8849.44
481.348	8462.38
481.553	8386.6
481.757	8329.26
481.961	8556.58
482.166	8835.11
482.37	8650.79
482.574	8405.03
482.778	8396.84
482.983	8585.26
483.187	8513.58
483.391	8470.57
483.595	8407.08
483.8	8259.63
484.004	8327.21
484.208	8345.64
484.412	8335.4
484.616	8409.13
484.821	8437.8
485.025	8196.14
485.229	8572.97
485.433	8233.01
485.637	8626.22
485.841	8273.96
486.045	8302.64
486.249	8448.04
486.453	8452.14
486.657	8341.55
486.861	8548.39
487.065	8282.16
487.269	8341.55
487.473	8261.68
487.677	8534.06
487.881	8443.95
488.085	8382.51
488.289	8536.1
488.493	8384.55
488.697	8507.43
488.901	8433.71
489.105	8642.6
489.309	8517.67
489.512	8425.51
489.716	8603.69
489.92	8474.67
490.124	8636.45
490.328	8607.78
490.531	8542.25
490.735	8679.46
490.939	8599.59
491.143	8329.26
491.346	8536.1
491.55	8761.38
491.754	8814.63
491.958	8802.34
492.161	8753.19
492.365	8763.43
492.569	8732.71
492.772	8882.21
492.976	9175.07
493.18	9056.29
493.383	8951.84
493.587	9170.97
493.79	9134.11
493.994	9263.13
494.197	9144.35
494.401	9383.96
494.605	9580.57
494.808	9527.32
495.012	9502.75
495.215	9476.12
495.419	9603.1
495.622	9691.16
495.825	9664.54
496.029	9748.5
496.232	9967.63
496.436	10035.22
496.639	10342.41
496.843	10338.32
497.046	10397.71
497.249	10496.01
497.453	10293.26
497.656	10487.82
497.859	10551.31
498.063	10821.64
498.266	10887.17
498.469	11106.31
498.673	11161.6
498.876	11257.85
499.079	11554.81
499.282	11595.77
499.485	11831.29
499.689	11751.42
499.892	11866.1
500.095	12128.24
500.298	12460.01
500.501	12161.01
500.705	12474.35
500.908	12605.42
501.111	12720.1
501.314	12797.93
501.517	13019.11
501.72	13217.76
501.923	13060.07
502.126	13469.66
502.329	13584.35
502.532	13930.45
502.735	13748.18
502.938	14000.09
503.141	14135.25
503.344	14471.12
503.547	14319.57
503.75	14780.36
503.953	14950.34
504.156	14792.65
504.359	15249.35
504.562	15163.33
504.765	15499.2
504.968	15540.16
505.17	15810.49
505.373	15785.91
505.576	16037.81
505.779	16435.12
505.982	16308.15
506.185	16496.56
506.387	16758.7
506.59	16922.54
506.793	17346.47
506.996	17291.17
507.198	17731.48
507.401	17622.94
507.604	17801.12
507.807	18026.39
508.009	18343.83
508.212	18419.6
508.415	18677.65
508.617	18902.92
508.82	19052.42
509.022	18978.7
509.225	19351.43
509.428	19648.38
509.63	19797.88
509.833	19988.35
510.035	20191.09
510.238	20615.02
510.44	20524.91
510.643	21008.23
510.845	21051.24
511.048	21227.37
511.25	21215.08
511.453	21534.56
511.655	22329.17
511.858	21892.96
512.06	22282.07
512.262	22710.1
512.465	22732.62
512.667	23121.74
512.87	23527.24
513.072	23193.42
513.274	23668.55
513.477	23809.86
513.679	23996.22
513.881	24110.91
514.084	24604.47
514.286	24753.97
514.488	24880.94
514.69	25280.3
514.893	25558.82
515.095	25554.72
515.297	25952.03
515.499	26144.54
515.701	26400.54
515.904	26842.9
516.106	26797.84
516.308	27195.15
516.51	27475.72
516.712	27418.38
516.914	28120.83
517.116	28569.33
517.318	28452.6
517.52	28722.93
517.722	28696.31
517.925	29290.22
518.127	29343.47
518.329	30103.26
518.531	29308.65
518.733	30414.55
518.935	30199.52
519.136	30236.38
519.338	31217.36
519.54	31444.68
519.742	31262.41
519.944	31737.54
520.146	31979.2
520.348	32325.31
520.55	32396.99
520.752	32710.33
520.954	33027.76
521.155	33060.53
521.357	33482.41
521.559	33691.3
521.761	34299.55
521.963	34395.81
522.164	34502.3
522.366	34649.75
522.568	35010.2
522.77	35229.33
522.971	35972.74
523.173	35280.53
523.375	35845.77
523.576	36048.52
523.778	36081.28
523.98	36656.76
524.181	36902.52
524.383	36826.74
524.584	37459.57
524.786	37529.2
524.988	37115.51
525.189	37824.11
525.391	38235.75
525.592	38309.47
525.794	38471.26
525.995	38147.68
526.197	38229.6
526.398	38588
526.6	39589.45
526.801	39401.04
527.003	39442
527.204	39681.61
527.406	39853.64
527.607	39843.4
527.808	40304.2
528.01	39552.59
528.211	40080.97
528.412	40932.92
528.614	40363.59
528.815	40715.84
529.016	41260.6
529.218	40531.52
529.419	40554.05
529.62	40742.46
529.822	40939.07
530.023	41180.73
530.224	41100.86
530.425	41031.22
530.626	41070.14
530.828	41078.33
531.029	42196.52
531.23	41641.52
531.431	41762.35
531.632	41635.38
531.833	41737.77
532.035	41807.4
532.236	42153.51
532.437	42202.66
532.638	41834.03
532.839	42214.95
533.04	42397.22
533.241	41879.08
533.442	42526.24
533.643	42550.82
533.844	42645.02
534.045	42669.6
534.246	42315.3
534.447	42427.94
534.648	42505.76
534.849	42941.98
535.05	42380.84
535.251	42909.21
535.451	42710.56
535.652	43052.57
535.853	43136.54
536.054	43296.28
536.255	42968.6
536.456	42530.34
536.657	43021.85
536.857	42448.42
537.058	42665.5
537.259	43083.29
537.46	43034.14
537.66	42800.67
537.861	42628.64
538.062	42745.37
538.263	42864.16
538.463	42559.01
538.664	42843.68
538.865	42917.4
539.065	42888.73
539.266	42362.4
539.466	43204.12
539.667	42513.95
539.868	43421.2
540.068	42847.77
540.269	42679.84
540.469	42966.56
540.67	42575.39
540.87	42792.48
541.071	43079.19
541.271	43021.85
541.472	42518.05
541.672	42825.25
541.873	42628.64
542.073	42354.21
542.274	43537.94
542.474	42542.63
542.675	42696.22
542.875	43146.78
543.075	42710.56
543.276	42329.64
543.476	43443.73
543.676	42540.58
543.877	42692.13
544.077	42745.37
544.277	42722.85
544.478	42221.09
544.678	42905.12
544.878	42700.32
545.078	42810.91
545.279	42716.7
545.479	42432.04
545.679	42579.49
545.879	42542.63
546.079	42911.26
546.28	42403.36
546.48	42317.35
546.68	42831.39
546.88	42728.99
547.08	42630.69
547.28	42767.9
547.48	42343.97
547.68	42919.45
547.88	42481.19
548.081	42538.53
548.281	42583.58
548.481	42366.5
548.681	43279.89
548.881	42720.8
549.081	42360.36
549.28	42767.9
549.48	42655.26
549.68	42614.3
549.88	43038.23
550.08	41967.15
550.28	42571.3
550.48	42343.97
550.68	43062.81
550.88	42305.06
551.08	42366.5
551.279	42264.1
551.479	42167.85
551.679	42835.49
551.879	42292.77
552.079	42374.69
552.278	42225.19
552.478	42505.76
552.678	42047.02
552.878	42620.45
553.077	42579.49
553.277	41840.17
553.477	42769.95
553.676	42274.34
553.876	41748.01
554.076	42161.7
554.275	41731.63
554.475	41614.9
554.674	42294.82
554.874	42421.8
555.074	41674.29
555.273	42292.77
555.473	42235.43
555.672	42130.98
555.872	41721.39
556.071	41915.95
556.271	42239.53
556.47	42008.11
556.67	41489.97
556.869	42073.64
557.068	41975.34
557.268	41907.76
557.467	42133.03
557.667	41600.56
557.866	41801.26
558.065	41158.2
558.265	41477.68
558.464	40941.11
558.663	41711.15
558.863	40799.8
559.062	41555.5
559.261	40801.85
559.461	41580.08
559.66	40918.59
559.859	41051.7
560.058	40531.52
560.258	40955.45
560.457	40629.82
560.656	41141.81
560.855	40762.94
561.054	40621.63
561.253	40691.26
561.453	40670.78
561.652	41045.56
561.851	41119.29
562.05	40521.28
562.249	40205.89
562.448	40568.38
562.647	40326.72
562.846	39839.31
563.045	40248.9
563.244	39849.55
563.443	40283.72
563.642	39482.96
563.841	39781.96
564.04	39824.97
564.239	39931.47
564.438	39388.75
564.637	39763.53
564.836	39997
565.035	39269.97
565.234	39226.96
565.432	38880.86
565.631	38868.57
565.83	38936.15
566.029	38901.34
566.228	38667.87
566.427	38600.29
566.625	38794.84
566.824	37930.6
567.023	38626.91
567.222	38258.27
567.42	38606.43
567.619	38069.86
567.818	38383.2
568.016	38065.77
568.215	38549.09
568.414	38116.97
568.612	38444.64
568.811	37850.73
569.01	37967.46
569.208	37281.39
569.407	37478
569.605	37172.85
569.804	37635.69
570.002	37295.73
570.201	37338.74
570.4	37117.56
570.598	36951.67
570.797	36615.8
570.995	36687.48
571.193	36472.45
571.392	36742.78
571.59	36273.79
571.789	36857.46
571.987	36243.07
572.186	36269.7
572.384	36140.68
572.582	36085.38
572.781	36138.63
572.979	35858.06
573.177	35819.14
573.376	35821.19
573.574	35376.78
573.772	35714.7
573.971	35466.89
574.169	35120.79
574.367	35045.01
574.565	35612.3
574.763	35311.25
574.962	34948.76
575.16	34502.3
575.358	35186.32
575.556	34354.85
575.754	34664.09
575.952	34338.46
576.151	34995.86
576.349	34334.37
576.547	34504.35
576.745	34307.74
576.943	34475.68
577.141	34277.02
577.339	34498.2
577.537	33574.57
577.735	34072.23
577.933	33789.61
578.131	33828.52
578.329	33595.05
578.527	33707.69
578.725	33765.03
578.923	33437.36
579.121	33210.03
579.319	33081.01
579.516	33257.14
579.714	33158.83
579.912	33085.11
580.11	32902.84
580.308	32585.4
580.506	32876.21
580.704	32302.78
580.901	32728.76
581.099	32966.32
581.297	32399.04
581.495	32431.8
581.692	32358.08
581.89	32009.92
582.088	32308.93
582.285	32286.4
582.483	32274.11
582.681	32118.46
582.878	31563.47
583.076	31698.63
583.274	31506.12
583.471	31432.4
583.669	31577.8
583.866	31391.44
584.064	31301.33
584.262	31323.85
584.459	31196.88
584.657	31004.37
584.854	31149.78
585.052	30469.85
585.249	30951.12
585.447	30455.51
585.644	30537.43
585.841	30631.64
586.039	30752.47
586.236	30138.08
586.434	30176.99
586.631	30326.49
586.828	30424.79
587.026	30095.07
587.223	30011.1
587.42	29781.73
587.618	29775.59
587.815	29974.24
588.012	29851.36
588.21	29411.05
588.407	30068.45
588.604	29361.9
588.801	29036.27
588.999	29335.28
589.196	29161.2
589.393	29052.66
589.59	28991.22
589.787	29353.71
589.984	29114.09
590.182	28622.58
590.379	28980.98
590.576	28491.51
590.773	28835.57
590.97	28253.95
591.167	28722.93
591.364	28266.24
591.561	28288.76
591.758	27830.02
591.955	27764.48
592.152	28094.21
592.349	27768.58
592.546	28147.45
592.743	27780.87
592.94	27657.99
593.137	27744
593.334	27666.18
593.531	27172.62
593.727	27440.9
593.924	27172.62
594.121	27387.66
594.318	27281.16
594.515	27365.13
594.712	27121.42
594.908	27264.78
595.105	27019.02
595.302	26582.81
595.499	26918.67
595.696	26640.15
595.892	26507.03
596.089	26865.42
596.286	26722.07
596.482	26851.09
596.679	26373.91
596.876	26453.78
597.072	26138.4
597.269	26099.48
597.466	26068.76
597.662	25827.1
597.859	26126.11
598.055	26177.31
598.252	25919.26
598.448	25796.39
598.645	25589.54
598.841	25399.08
599.038	25917.22
599.234	25483.05
599.431	24756.02
599.627	25294.63
599.824	25323.3
600.02	25059.12
600.217	25100.08
600.413	24899.37
600.609	25014.06
600.806	25067.31
601.002	24567.6
601.198	24717.11
601.395	24479.54
601.591	24502.07
601.787	24543.03
601.984	24125.24
602.18	24407.86
602.376	24291.13
602.572	24446.77
602.769	24420.15
602.965	23988.03
603.161	24192.83
603.357	23805.76
603.553	23744.32
603.75	23846.72
603.946	23588.67
604.142	23684.93
604.338	23469.89
604.534	23603.01
604.73	23318.34
604.926	23179.08
605.122	23709.5
605.318	23308.1
605.514	23105.35
605.71	23187.27
605.906	23056.2
606.102	23174.99
606.298	23002.96
606.494	23002.96
606.69	22949.71
606.886	22992.72
607.082	22685.52
607.278	22783.82
607.474	22507.35
607.67	22435.67
607.866	22474.58
608.062	22619.99
608.257	22515.54
608.453	22132.57
608.649	22710.1
608.845	22259.54
609.041	22447.96
609.236	22228.82
609.432	22304.6
609.628	22052.7
609.824	22103.9
610.019	22009.69
610.215	22013.79
610.411	22013.79
610.606	21950.3
610.802	21952.35
610.998	21509.99
611.193	21735.26
611.389	21751.65
611.584	21415.78
611.78	21520.23
611.976	21575.52
612.171	21563.23
612.367	20969.32
612.562	21319.53
612.758	20932.46
612.953	21127.02
613.149	21438.31
613.344	20815.73
613.539	21755.74
613.735	21139.3
613.93	21131.11
614.126	21030.76
614.321	21206.89
614.517	20911.98
614.712	21184.36
614.907	20780.91
615.103	20803.44
615.298	20647.79
615.493	21071.72
615.688	20594.54
615.884	21055.34
616.079	20600.69
616.274	20678.51
616.47	20940.65
616.665	20764.53
616.86	20703.09
617.055	20510.58
617.25	20373.36
617.445	20586.35
617.641	20266.87
617.836	20377.46
618.031	20256.63
618.226	20678.51
618.421	20068.22
618.616	20279.16
618.811	19890.04
619.006	20254.58
619.201	19863.42
619.396	19767.17
619.591	19568.51
619.786	19720.06
619.981	19281.8
620.176	19476.35
620.371	19679.1
620.566	19419.01
620.761	19146.63
620.956	19466.11
621.151	19326.85
621.346	19023.75
621.541	18870.15
621.735	18988.94
621.93	18628.49
622.125	18786.19
622.32	18651.02
622.515	18538.38
622.709	18392.98
622.904	18335.63
623.099	18028.44
623.294	18317.2
623.488	17770.4
623.683	18053.02
623.878	17772.44
624.072	17491.87
624.267	17731.48
624.462	17475.49
624.656	17446.82
624.851	17457.06
625.046	17328.03
625.24	17178.53
625.435	16916.39
625.629	16998.31
625.824	16709.55
626.018	16881.58
626.213	16558
626.407	16750.51
626.602	16570.29
626.796	16885.67
626.991	16519.09
627.185	16539.57
627.38	16187.32
627.574	16310.19
627.768	15867.83
627.963	15747
628.157	15669.18
628.352	16271.28
628.546	15689.66
628.74	16062.39
628.935	15679.42
629.129	15740.86
629.323	15493.05
629.517	15386.56
629.712	15226.82
629.906	15511.49
630.1	14968.77
630.294	15155.14
630.489	14964.68
630.683	14829.51
630.877	14786.51
631.071	14710.73
631.265	14723.02
631.459	14512.08
631.653	14510.03
631.848	14555.08
632.042	14323.66
632.236	14608.33
632.43	14219.22
632.624	14370.77
632.818	14043.09
633.012	13907.93
633.206	13826.01
633.4	14104.53
633.594	13715.42
633.788	13903.83
633.982	13926.36
634.176	13596.64
634.369	13352.93
634.563	13598.68
634.757	13285.34
634.951	13428.7
635.145	13381.6
635.339	13219.81
635.533	13035.49
635.726	13125.6
635.92	12787.69
636.114	13002.72
636.308	12914.66
636.501	12986.34
636.695	12668.91
636.889	12720.1
637.083	12601.32
637.276	12488.68
637.47	12574.7
637.664	12494.83
637.857	12302.32
638.051	12507.12
638.244	12126.19
638.438	12347.37
638.632	12111.86
638.825	12040.18
639.019	11933.68
639.212	11710.46
639.406	11913.2
639.599	11669.5
639.793	11730.94
639.986	11907.06
640.18	11452.41
640.373	11591.67
640.567	11720.7
640.76	11491.32
640.954	11479.04
641.147	11225.09
641.34	11016.19
641.534	11280.38
641.727	11098.11
641.92	10954.76
642.114	11024.39
642.307	10954.76
642.5	10860.55
642.694	10815.49
642.887	10809.35
643.08	10778.63
643.273	10829.83
643.467	10473.48
643.66	10395.66
643.853	10622.98
644.046	10197.01
644.239	10448.91
644.432	10203.15
644.626	10311.69
644.819	10078.22
645.012	10119.18
645.205	10192.91
645.398	10061.84
645.591	9889.81
645.784	9902.1
645.977	9979.92
646.17	9900.05
646.363	9918.48
646.556	9642.01
646.749	9674.78
646.942	9664.54
647.135	9326.62
647.328	9586.71
647.521	9459.74
647.714	9506.84
647.907	9488.41
648.099	9261.09
648.292	9340.96
648.485	9338.91
648.678	9105.44
648.871	9056.29
649.064	9029.66
649.256	9148.45
649.449	9000.99
649.642	8876.07
649.835	8724.52
650.027	8917.03
650.22	8906.79
650.413	8890.4
650.605	8816.68
650.798	8603.69
650.991	8577.06
651.183	8632.36
651.376	8699.94
651.568	8478.76
651.761	8532.01
651.954	8415.27
652.146	8536.1
652.339	8259.63
652.531	8462.38
652.724	8202.29
652.916	8003.63
653.109	8310.83
653.301	8179.76
653.494	8048.69
653.686	7860.27
653.879	7991.34
654.071	7833.65
654.263	7827.51
654.456	7823.41
654.648	8020.02
654.84	7804.98
655.033	7653.43
655.225	7577.66
655.417	7557.18
655.61	7594.04
655.802	7557.18
655.994	7356.47
656.186	7499.83
656.379	7526.46
656.571	7387.19
656.763	7409.72
656.955	7491.64
657.148	7372.86
657.34	7331.9
657.532	6977.6
657.724	7307.32
657.916	7073.85
658.108	7010.37
658.3	7032.9
658.492	7051.33
658.684	6967.36
658.876	6948.93
659.068	6905.92
659.26	6778.95
659.452	7061.57
659.644	6684.74
659.836	6707.27
660.028	6797.38
660.22	6701.12
660.412	6852.67
660.604	6756.42
660.796	6471.75
660.988	6656.07
661.18	6594.63
661.372	6512.71
661.563	6561.86
661.755	6424.65
661.947	6400.07
662.139	6451.27
662.331	6424.65
662.522	6211.66
662.714	6350.92
662.906	6236.24
663.097	6068.3
663.289	6164.56
663.481	6099.02
663.673	6037.58
663.864	6078.54
664.056	6047.82
664.247	6072.4
664.439	5933.14
664.631	6096.97
664.822	6019.15
665.014	5886.03
665.205	5845.07
665.397	5924.94
665.588	5992.53
665.78	5791.83
665.971	5808.21
666.163	5802.07
666.354	5660.76
666.546	5611.61
666.737	5597.27
666.929	5515.35
667.12	5777.49
667.311	5558.36
667.503	5554.26
667.694	5482.58
667.885	5412.95
668.077	5439.58
668.268	5265.5
668.459	5361.75
668.651	5445.72
668.842	5382.23
669.033	5341.27
669.224	5181.53
669.416	5314.65
669.607	5333.08
669.798	5308.51
669.989	5294.17
670.18	5210.2
670.371	5089.37
670.563	5298.27
670.754	5156.96
670.945	5148.76
671.136	5150.81
671.327	5128.28
671.518	5001.31
671.709	4952.16
671.9	5218.4
672.091	5036.13
672.282	5032.03
672.473	4989.02
672.664	4749.41
672.855	4915.3
673.046	4909.15
673.237	4870.24
673.428	4866.14
673.619	4767.84
673.809	4866.14
674	4880.48
674.191	4749.41
674.382	4780.13
674.573	4733.03
674.764	4595.81
674.954	4722.79
675.145	4558.95
675.336	4657.25
675.527	4683.88
675.717	4632.68
675.908	4513.89
676.099	4665.44
676.289	4626.53
676.48	4558.95
676.671	4663.4
676.861	4726.88
677.052	4593.76
677.243	4358.25
677.433	4581.48
677.624	4456.55
677.814	4415.59
678.005	4407.4
678.195	4489.32
678.386	4550.76
678.576	4282.47
678.767	4380.78
678.957	4448.36
679.148	4452.45
679.338	4327.53
679.529	4524.13
679.719	4280.43
679.909	4345.96
680.1	4343.91
680.29	4302.95
680.481	4126.83
680.671	4302.95
680.861	4249.71
681.052	4227.18
681.242	4186.22
681.432	4171.88
681.622	4145.26
681.813	4178.03
682.003	4110.44
682.193	4063.34
682.383	4198.51
682.573	4124.78
682.764	4071.53
682.954	4059.24
683.144	4151.4
683.334	4102.25
683.524	4038.77
683.714	4139.12
683.904	4087.92
684.094	4010.09
684.284	4036.72
684.474	3946.61
684.664	4104.3
684.854	4171.88
685.044	4098.16
685.234	3950.7
685.424	4077.68
685.614	3989.61
685.804	4044.91
685.994	3969.13
686.184	4034.67
686.374	3938.41
686.564	3922.03
686.753	3960.94
686.943	3809.39
687.133	3862.64
687.323	3938.41
687.513	3850.35
687.702	3848.3
687.892	3772.53
688.082	3833.97
688.272	3696.75
688.461	3823.73
688.651	3729.52
688.841	3661.94
689.03	3649.65
689.22	3610.74
689.41	3704.95
689.599	3620.98
689.789	3766.39
689.979	3555.44
690.168	3633.27
690.358	3676.27
690.547	3612.79
690.737	3637.36
690.926	3598.45
691.116	3555.44
691.305	3608.69
691.495	3422.33
691.684	3539.06
691.874	3491.96
692.063	3512.44
692.252	3575.92
692.442	3420.28
692.631	3489.91
692.82	3565.68
693.01	3395.7
693.199	3606.64
693.388	3559.54
693.578	3487.86
693.767	3407.99
693.956	3389.56
694.146	3356.79
694.335	3317.88
694.524	3238.01
694.713	3344.5
694.902	3401.85
695.092	3379.32
695.281	3303.54
695.47	3354.74
695.659	3334.26
695.848	3264.63
696.037	3383.42
696.226	3455.09
696.415	3293.3
696.604	3313.78
696.793	3340.41
696.982	3356.79
697.171	3252.35
697.36	3477.62
697.549	3246.2
697.738	3147.9
697.927	3342.46
698.116	3094.65
698.305	3274.87
698.494	3356.79
698.683	3207.29
698.872	3387.51
699.061	3289.21
699.25	3336.31
699.438	3346.55
699.627	3164.28
699.816	3264.63
700.005	3266.68
700.193	3379.32
700.382	3223.67
700.571	3258.49
700.76	3266.68
700.948	3231.87
701.137	3315.83
701.326	3154.04
701.514	3113.08
701.703	3250.3
701.892	3235.96
702.08	3326.07
702.269	3274.87
702.457	3321.98
702.646	3154.04
702.834	3231.87
703.023	3223.67
703.212	3147.9
703.4	3158.14
703.589	3178.62
703.777	3151.99
703.965	3117.18
704.154	3135.61
704.342	3201.15
704.531	3205.24
704.719	3258.49
704.907	3258.49
705.096	3188.86
705.284	3270.78
705.472	3192.95
705.661	3117.18
705.849	3260.54
706.037	3195
706.226	3182.71
706.414	3131.51
706.602	3192.95
706.79	3172.47
706.979	3072.12
707.167	3231.87
707.355	3195
707.543	3205.24
707.731	3244.15
707.919	3137.66
708.107	3082.36
708.296	3010.68
708.484	3092.6
708.672	3190.91
708.86	3076.22
709.048	3108.99
709.236	3160.19
709.424	3098.75
709.612	3129.47
709.8	3174.52
709.988	3117.18
710.176	2969.73
710.364	2990.21
710.551	2998.4
710.739	3160.19
710.927	3047.55
711.115	3164.28
711.303	3045.5
711.491	3145.85
711.679	2998.4
711.866	3233.91
712.054	3055.74
712.242	3043.45
712.43	3016.83
712.617	3147.9
712.805	2930.81
712.993	3100.8
713.181	2875.52
713.368	3043.45
713.556	3065.98
713.744	3031.16
713.931	3092.6
714.119	2934.91
714.306	3117.18
714.494	3035.26
714.682	2967.68
714.869	2812.03
715.057	3025.02
715.244	3088.51
715.432	3022.97
715.619	3022.97
715.807	2996.35
715.994	3014.78
716.182	2953.34
716.369	2900.09
716.556	3000.44
716.744	2771.07
716.931	2939.01
717.119	3055.74
717.306	2998.4
717.493	2934.91
717.681	2959.49
717.868	2941.05
718.055	2918.53
718.242	2840.7
718.43	2992.25
718.617	3025.02
718.804	2924.67
718.991	2932.86
719.179	3078.27
719.366	3160.19
719.553	2932.86
719.74	2883.71
719.927	2900.09
720.114	2955.39
720.301	2859.14
720.488	2936.96
720.676	2969.73
720.863	2812.03
721.05	2900.09
721.237	2988.16
721.424	2855.04
721.611	2916.48
721.798	2838.66
721.985	2842.75
722.172	2838.66
722.358	2887.81
722.545	2891.9
722.732	2766.98
722.919	2926.72
723.106	2816.13
723.293	2728.07
723.48	2873.47
723.667	2728.07
723.853	2793.6
724.04	2791.55
724.227	2879.61
724.414	2687.11
724.6	2764.93
724.787	2900.09
724.974	2877.57
725.161	2846.85
725.347	2783.36
725.534	2941.05
725.72	2820.22
725.907	2726.02
726.094	2734.21
726.28	2824.32
726.467	2803.84
726.653	2744.45
726.84	2840.7
727.027	2748.54
727.213	2816.13
727.4	2838.66
727.586	2734.21
727.773	2697.35
727.959	2785.41
728.145	2785.41
728.332	2781.31
728.518	2750.59
728.705	2672.77
728.891	2699.39
729.077	2797.7
729.264	2779.26
729.45	2697.35
729.636	2703.49
729.823	2687.11
730.009	2820.22
730.195	2689.15
730.382	2689.15
730.568	2812.03
730.754	2723.97
730.94	2566.28
731.126	2746.5
731.313	2709.63
731.499	2674.82
731.685	2723.97
731.871	2752.64
732.057	2760.83
732.243	2691.2
732.429	2674.82
732.615	2633.86
732.801	2830.46
732.987	2617.47
733.173	2713.73
733.359	2558.08
733.545	2678.91
733.731	2551.94
733.917	2623.62
734.103	2572.42
734.289	2738.3
734.475	2611.33
734.661	2582.66
734.847	2670.72
735.033	2627.71
735.219	2709.63
735.404	2603.14
735.59	2594.95
735.776	2609.28
735.962	2531.46
736.148	2607.23
736.333	2605.19
736.519	2597
736.705	2564.23
736.89	2547.84
737.076	2564.23
737.262	2494.6
737.447	2644.1
737.633	2605.19
737.819	2586.76
738.004	2500.74
738.19	2445.45
738.375	2502.79
738.561	2640
738.747	2459.78
738.932	2480.26
739.118	2504.84
739.303	2568.32
739.489	2463.88
739.674	2416.77
739.859	2451.59
740.045	2543.75
740.23	2406.53
740.416	2351.24
740.601	2402.44
740.786	2390.15
740.972	2435.21
741.157	2332.81
741.342	2375.81
741.528	2347.14
741.713	2453.64
741.898	2345.09
742.084	2297.99
742.269	2293.9
742.454	2390.15
742.639	2541.7
742.824	2394.25
743.01	2289.8
743.195	2441.35
743.38	2244.74
743.565	2416.77
743.75	2283.66
743.935	2257.03
744.12	2373.77
744.305	2273.42
744.49	2283.66
744.675	2220.17
744.86	2142.35
745.045	2236.55
745.23	2181.26
745.415	2240.65
745.6	2207.88
745.785	2130.06
745.97	2230.41
746.155	2093.19
746.34	2109.58
746.525	2220.17
746.71	2101.39
746.895	2154.63
747.079	2132.11
747.264	2052.24
747.449	1996.94
747.634	2179.21
747.819	2064.52
748.003	1992.84
748.188	2107.53
748.373	2050.19
748.557	1935.5
748.742	1988.75
748.927	2050.19
749.111	1962.12
749.296	2003.08
749.481	2050.19
749.665	1988.75
749.85	1878.16
750.034	1915.02
750.219	1884.3
750.404	1880.21
750.588	1900.69
750.773	1884.3
750.957	1837.2
751.141	1765.52
751.326	1865.87
751.51	1880.21
751.695	1863.82
751.879	1788.05
752.064	1798.29
752.248	1781.9
752.432	1818.77
752.617	1661.07
752.801	1687.7
752.985	1677.46
753.17	1753.23
753.354	1659.03
753.538	1630.35
753.722	1632.4
753.907	1630.35
754.091	1570.96
754.275	1603.73
754.459	1681.55
754.643	1431.7
754.828	1624.21
755.012	1611.92
755.196	1628.31
755.38	1634.45
755.564	1458.32
755.748	1527.96
755.932	1487
756.116	1466.52
756.3	1493.14
756.484	1538.2
756.668	1511.57
756.852	1517.72
757.036	1355.93
757.22	1466.52
757.404	1415.32
757.588	1431.7
757.772	1384.6
757.956	1411.22
758.14	1386.65
758.323	1370.26
758.507	1470.61
758.691	1392.79
758.875	1347.73
759.059	1360.02
759.242	1269.91
759.426	1396.89
759.61	1292.44
759.794	1331.35
759.977	1312.92
760.161	1308.82
760.345	1347.73
760.528	1267.86
760.712	1327.25
760.895	1343.64
761.079	1220.76
761.263	1276.06
761.446	1185.94
761.63	1097.88
761.813	1249.43
761.997	1247.38
762.18	1319.06
762.364	1187.99
762.547	1165.46
762.731	1267.86
762.914	1136.79
763.098	1190.04
763.281	1267.86
763.464	1210.52
763.648	1202.33
763.831	1196.18
764.015	1173.66
764.198	1249.43
764.381	1118.36
764.564	1067.16
764.748	1130.65
764.931	1153.18
765.114	1183.9
765.297	1142.94
765.481	1124.51
765.664	1073.31
765.847	1175.7
766.03	1155.23
766.213	1110.17
766.397	1190.04
766.58	1077.4
766.763	1089.69
766.946	1073.31
767.129	1097.88
767.312	1032.35
767.495	1159.32
767.678	1101.98
767.861	1046.68
768.044	1015.96
768.227	1099.93
768.41	975
768.593	1112.22
768.776	1028.25
768.959	1054.87
769.142	1069.21
769.324	1069.21
769.507	1032.35
769.69	960.67
769.873	1003.68
770.056	1061.02
770.239	1081.5
770.421	1073.31
770.604	948.38
770.787	1009.82
770.97	1001.63
771.152	872.61
771.335	1046.68
771.518	1022.11
771.7	1022.11
771.883	1024.16
772.066	1007.77
772.248	991.39
772.431	1024.16
772.613	893.09
772.796	956.57
772.978	975
773.161	962.72
773.343	919.71
773.526	884.89
773.708	878.75
773.891	905.37
774.073	903.32
774.256	837.79
774.438	899.23
774.621	952.48
774.803	888.99
774.985	813.21
775.168	782.49
775.35	819.36
775.532	850.08
775.715	774.3
775.897	852.13
776.079	831.65
776.261	798.88
776.444	802.97
776.626	778.4
776.808	774.3
776.99	762.02
777.173	725.15
777.355	813.21
777.537	647.33
777.719	788.64
777.901	782.49
778.083	745.63
778.265	796.83
778.447	696.48
778.629	661.66
778.811	821.41
778.993	743.58
779.175	704.67
779.357	741.54
779.539	651.42
779.721	843.93
779.903	729.25
780.085	768.16
780.267	661.66
780.449	688.29
780.631	678.05
780.812	618.66
780.994	571.55
781.176	637.09
781.358	684.19
781.54	542.88
781.721	682.14
781.903	618.66
782.085	571.55
782.267	632.99
782.448	575.65
782.63	602.27
782.812	620.71
782.993	563.36
783.175	569.51
783.357	489.64
783.538	577.7
783.72	538.79
783.901	487.59
784.083	506.02
784.264	581.79
784.446	538.79
784.627	567.46
784.809	544.93
784.99	489.64
785.172	563.36
785.353	643.23
785.535	544.93
785.716	575.65
785.897	514.21
786.079	602.27
786.26	530.59
786.441	555.17
786.623	428.2
786.804	422.05
786.985	438.44
787.167	538.79
787.348	542.88
787.529	518.31
787.71	510.11
787.891	432.29
788.073	469.16
788.254	508.07
788.435	506.02
788.616	407.72
788.797	405.67
788.978	534.69
789.159	366.76
789.34	503.97
789.522	506.02
789.703	450.72
789.884	422.05
790.065	422.05
790.246	432.29
790.427	389.28
790.607	460.96
790.788	391.33
790.969	422.05
791.15	426.15
791.331	471.2
791.512	387.24
791.693	385.19
791.874	340.13
792.054	450.72
792.235	446.63
792.416	379.04
792.597	374.95
792.778	409.76
792.958	395.43
793.139	268.45
793.32	360.61
793.5	295.08
793.681	368.81
793.862	360.61
794.042	305.32
794.223	393.38
794.404	340.13
794.584	331.94
794.765	319.65
794.945	403.62
795.126	336.04
795.306	354.47
795.487	358.57
795.667	252.07
795.848	356.52
796.028	319.65
796.209	358.57
796.389	346.28
796.57	270.5
796.75	307.37
796.93	325.8
797.111	243.88
797.291	256.17
797.471	336.04
797.652	286.89
797.832	325.8
798.012	348.33
798.192	250.02
798.373	317.61
798.553	280.74
798.733	407.72
798.913	272.55
799.093	264.36
799.274	340.13
799.454	270.5
799.634	260.26
799.814	264.36
799.994	387.24
800.174	301.22
800.354	278.69
800.534	172.2
800.714	254.12
800.894	262.31
801.074	258.21
801.254	325.8
801.434	204.97
801.614	237.74
801.794	282.79
801.974	680.1
802.154	264.36
802.334	221.35
802.514	262.31
802.693	231.59
802.873	176.3
803.053	329.89
803.233	231.59
803.413	264.36
803.592	180.39
803.772	247.97
803.952	295.08
804.131	276.65
804.311	202.92
804.491	266.41
804.67	250.02
804.85	247.97
805.03	176.3
805.209	204.97
805.389	200.87
805.568	198.82
805.748	194.73
805.928	243.88
806.107	252.07
806.287	227.5
806.466	229.54
806.646	235.69
806.825	301.22
807.004	288.93
807.184	262.31
807.363	239.78
807.543	217.26
807.722	200.87
807.901	305.32
808.081	336.04
808.26	229.54
808.439	168.1
808.619	223.4
808.798	217.26
808.977	223.4
809.156	239.78
809.336	184.49
809.515	266.41
809.694	250.02
809.873	196.78
810.052	141.48
810.231	254.12
810.411	202.92
810.59	176.3
810.769	168.1
810.948	170.15
811.127	180.39
811.306	141.48
811.485	207.02
811.664	301.22
811.843	164.01
812.022	121
812.201	168.1
812.38	164.01
812.559	157.86
812.737	213.16
812.916	127.14
813.095	196.78
813.274	247.97
813.453	215.21
813.632	188.58
813.811	200.87
813.989	143.53
814.168	213.16
814.347	151.72
814.526	209.06
814.704	200.87
814.883	149.67
815.062	207.02
815.24	176.3
815.419	200.87
815.598	168.1
815.776	176.3
815.955	186.54
816.133	139.43
816.312	227.5
816.49	159.91
816.669	190.63
816.847	110.76
817.026	139.43
817.204	174.25
817.383	116.9
817.561	147.62
817.74	178.34
817.918	178.34
818.097	106.67
818.275	127.14
818.453	166.06
818.632	194.73
818.81	192.68
818.988	196.78
819.167	170.15
819.345	184.49
819.523	133.29
819.701	168.1
819.879	63.66
820.058	147.62
820.236	137.38
820.414	178.34
820.592	65.71
820.77	161.96
820.948	110.76
821.127	94.38
821.305	96.43
821.483	137.38
821.661	125.1
821.839	174.25
822.017	106.67
822.195	127.14
822.373	157.86
822.551	118.95
822.729	123.05
822.907	90.28
823.085	127.14
823.262	131.24
823.44	121
823.618	125.1
823.796	90.28
823.974	88.23
824.152	143.53
824.329	139.43
824.507	94.38
824.685	90.28
824.863	77.99
825.04	49.32
825.218	190.63
825.396	155.82
825.574	153.77
825.751	69.8
825.929	88.23
826.107	118.95
826.284	90.28
826.462	82.09
826.639	131.24
826.817	131.24
826.994	98.47
827.172	45.23
827.349	104.62
827.527	100.52
827.704	86.19
827.882	108.71
828.059	94.38
828.237	104.62
828.414	139.43
828.591	67.75
828.769	92.33
828.946	100.52
829.124	145.58
829.301	161.96
829.478	147.62
829.655	114.86
829.833	153.77
830.01	110.76
830.187	88.23
830.364	114.86
830.542	94.38
830.719	86.19
830.896	94.38
831.073	196.78
831.25	114.86
831.427	82.09
831.604	88.23
831.782	57.51
831.959	131.24
832.136	67.75
832.313	108.71
832.49	67.75
832.667	139.43
832.844	75.95
833.021	139.43
833.198	71.85
833.374	80.04
833.551	75.95
833.728	73.9
833.905	121
834.082	102.57
834.259	86.19
834.436	178.34
834.612	43.18
834.789	139.43
834.966	61.61
835.143	59.56
835.319	-26.45
835.496	6.31
835.673	159.91
835.85	57.51
836.026	73.9
836.203	51.37
836.38	61.61
836.556	67.75
836.733	49.32
836.909	164.01
837.086	-28.5
837.262	94.38
837.439	61.61
837.616	53.42
837.792	100.52
837.968	135.34
838.145	43.18
838.321	94.38
838.498	98.47
838.674	18.6
838.851	100.52
839.027	121
839.203	59.56
839.38	43.18
839.556	-40.79
839.732	86.19
839.909	77.99
840.085	4.27
840.261	-5.97
840.437	37.03
840.614	-16.21
840.79	104.62
840.966	110.76
841.142	131.24
841.318	77.99
841.494	51.37
841.671	170.15
841.847	61.61
842.023	53.42
842.199	77.99
842.375	121
842.551	-36.69
842.727	55.47
842.903	135.34
843.079	100.52
843.255	108.71
843.431	88.23
843.607	145.58
843.783	-5.97
843.959	135.34
844.134	6.31
844.31	65.71
844.486	98.47
844.662	73.9
844.838	-14.17
845.013	143.53
845.189	147.62
845.365	125.1
845.541	110.76
845.716	12.46
845.892	59.56
846.068	82.09
846.244	0.17
846.419	77.99
846.595	102.57
846.77	-22.36
846.946	30.89
847.122	18.6
847.297	45.23
847.473	98.47
847.648	32.94
847.824	65.71
847.999	-40.79
848.175	16.55
848.35	84.14
848.526	47.27
848.701	41.13
848.876	12.46
849.052	45.23
849.227	-30.55
849.403	8.36
849.578	53.42
849.753	98.47
849.929	41.13
850.104	26.79
850.279	57.51
850.454	63.66
850.63	90.28
850.805	4.27
850.98	88.23
851.155	51.37
851.33	125.1
851.505	43.18
851.681	12.46
851.856	57.51
852.031	118.95
852.206	12.46
852.381	39.08
852.556	94.38
852.731	108.71
852.906	10.41
853.081	94.38
853.256	-18.26
853.431	57.51
853.606	8.36
853.781	49.32
853.956	-71.51
854.131	20.65
854.305	94.38
854.48	-28.5
854.655	12.46
854.83	16.55
855.005	32.94
855.18	84.14
855.354	-16.21
855.529	2.22
855.704	45.23
855.879	20.65
856.053	-5.97
856.228	94.38
856.403	-8.02
856.577	59.56
856.752	16.55
856.926	20.65
857.101	10.41
857.276	0.17
857.45	-28.5
857.625	28.84
857.799	51.37
857.974	24.75
858.148	-46.93
858.323	28.84
858.497	-12.12
858.672	80.04
858.846	12.46
859.02	102.57
859.195	55.47
859.369	-26.45
859.543	28.84
859.718	47.27
859.892	-3.93
860.066	32.94
860.241	-44.88
860.415	32.94
860.589	12.46
860.763	-12.12
860.938	-28.5
861.112	30.89
861.286	16.55
861.46	86.19
861.634	69.8
861.808	61.61
861.982	143.53
862.157	37.03
862.331	-30.55
862.505	4.27
862.679	16.55
862.853	-10.07
863.027	-22.36
863.201	75.95
863.375	49.32
863.549	8.36
863.722	94.38
863.896	43.18
864.07	30.89
864.244	12.46
864.418	12.46
864.592	32.94
864.766	18.6
864.939	57.51
865.113	47.27
865.287	55.47
865.461	28.84
865.634	32.94
865.808	43.18
865.982	51.37
866.156	-10.07
866.329	-5.97
866.503	-3.93
866.676	98.47
866.85	86.19
867.024	37.03
867.197	24.75
867.371	24.75
867.544	26.79
867.718	77.99
867.891	-3.93
868.065	-16.21
868.238	4.27
868.412	14.51
868.585	80.04
868.759	12.46
868.932	6.31
869.105	16.55
869.279	4.27
869.452	-1.88
869.625	-10.07
869.799	-22.36
869.972	-40.79
870.145	45.23
870.319	47.27
870.492	30.89
870.665	43.18
870.838	-57.17
871.011	26.79
871.185	75.95
871.358	0.17
871.531	133.29
871.704	55.47
871.877	10.41
872.05	-26.45
872.223	24.75
872.396	133.29
872.569	-14.17
872.742	57.51
872.915	41.13
873.088	-16.21
873.261	26.79
873.434	65.71
873.607	12.46
873.78	67.75
873.953	22.7
874.126	-3.93
874.299	39.08
874.471	2.22
874.644	-40.79
874.817	96.43
874.99	-3.93
875.163	-20.31
875.335	14.51
875.508	84.14
875.681	8.36
875.853	8.36
876.026	43.18
876.199	-42.84
876.371	82.09
876.544	-87.89
876.717	-20.31
876.889	8.36
877.062	-8.02
877.234	4.27
877.407	-53.08
877.579	53.42
877.752	45.23
877.924	45.23
878.097	26.79
878.269	8.36
878.442	18.6
878.614	14.51
878.786	24.75
878.959	41.13
879.131	28.84
879.303	-28.5
879.476	55.47
879.648	-30.55
879.82	20.65
879.993	20.65
880.165	30.89
880.337	18.6
880.509	12.46
880.681	12.46
880.854	53.42
881.026	4.27
881.198	26.79
881.37	-46.93
881.542	55.47
881.714	22.7
881.886	41.13
882.058	6.31
882.23	14.51
882.402	20.65
882.574	28.84
882.746	49.32
882.918	14.51
883.09	59.56
883.262	59.56
883.434	-48.98
883.606	-38.74
883.778	-10.07
883.95	14.51
884.122	-59.22
884.293	88.23
884.465	-1.88
884.637	-12.12
884.809	-36.69
884.98	77.99
885.152	0.17
885.324	-51.03
885.496	41.13
885.667	-5.97
885.839	26.79
886.011	75.95
886.182	28.84
886.354	-40.79
886.525	-40.79
886.697	12.46
886.869	-55.12
887.04	4.27
887.212	34.99
887.383	84.14
887.555	65.71
887.726	-12.12
887.897	18.6
888.069	-12.12
888.24	12.46
888.412	-1.88
888.583	-16.21
888.754	-3.93
888.926	12.46
889.097	-24.4
889.268	12.46
889.44	32.94
889.611	28.84
889.782	-57.17
889.953	26.79
890.125	73.9
890.296	-3.93
890.467	49.32
890.638	-16.21
890.809	4.27
890.98	-16.21
891.151	77.99
891.323	37.03
891.494	41.13
891.665	-5.97
891.836	26.79
892.007	14.51
892.178	-34.64
892.349	-18.26
892.52	10.41
892.691	12.46
892.862	-1.88
893.032	69.8
893.203	22.7
893.374	-8.02
893.545	47.27
893.716	16.55
893.887	43.18
894.057	37.03
894.228	45.23
894.399	-34.64
894.57	28.84
894.74	45.23
894.911	-8.02
895.082	-1.88
895.253	65.71
895.423	32.94
895.594	30.89
895.764	4.27
895.935	-36.69
896.106	10.41
896.276	-48.98
896.447	6.31
896.617	-40.79
896.788	-94.04
896.958	53.42
897.129	-46.93
897.299	20.65
897.47	26.79
897.64	-3.93
897.81	-53.08
897.981	8.36
898.151	-57.17
898.322	-42.84
898.492	-77.65
898.662	22.7
898.832	86.19
899.003	45.23
899.173	-16.21
899.343	24.75
899.513	-53.08
