Data from USB4F104151__80__11-06-26-103.txt Node

Date: Wed Mar 12 11:06:26 EDT 2025
User: louis
Spectrometer: USB4F10415
Trigger mode: 4
Integration Time (sec): 2.000000E-2
Scans to average: 1
Electric dark correction enabled: true
Nonlinearity correction enabled: false
Boxcar width: 0
XAxis mode: Wavelengths
Number of Pixels in Spectrum: 3648
>>>>>Begin Spectral Data<<<<<
178.204	-38.4
178.424	-38.4
178.644	-38.4
178.864	-60.93
179.084	-11.78
179.304	0.51
179.524	18.94
179.744	20.99
179.964	33.28
180.184	-48.64
180.404	2.56
180.624	-11.78
180.844	-52.74
181.064	-22.02
181.283	25.09
181.503	-5.63
181.723	39.42
181.943	25.09
182.163	133.63
182.383	29.18
182.602	80.38
182.822	8.7
183.042	100.86
183.262	14.85
183.482	49.66
183.701	0.51
183.921	18.94
184.141	-13.82
184.361	33.28
184.58	-3.58
184.8	33.28
185.02	41.47
185.239	-24.06
185.459	-3.58
185.679	29.18
185.898	-56.83
186.118	82.43
186.338	-11.78
186.557	10.75
186.777	12.8
186.997	25.09
187.216	72.19
187.436	49.66
187.655	78.33
187.875	12.8
188.095	76.29
188.314	115.2
188.534	84.48
188.753	-22.02
188.973	43.52
189.192	10.75
189.412	66.05
189.631	53.76
189.851	51.71
190.07	90.62
190.29	59.9
190.509	16.9
190.729	57.86
190.948	74.24
191.168	74.24
191.387	51.71
191.607	27.14
191.826	88.57
192.045	8.7
192.265	70.14
192.484	39.42
192.704	61.95
192.923	23.04
193.142	49.66
193.362	74.24
193.581	80.38
193.8	-89.6
194.02	147.97
194.239	57.86
194.458	49.66
194.678	-7.68
194.897	-17.92
195.116	66.05
195.335	-34.3
195.555	25.09
195.774	66.05
195.993	68.09
196.212	31.23
196.432	0.51
196.651	25.09
196.87	78.33
197.089	41.47
197.308	70.14
197.528	64
197.747	4.61
197.966	25.09
198.185	41.47
198.404	39.42
198.623	78.33
198.842	104.96
199.062	123.39
199.281	96.77
199.5	45.57
199.719	66.05
199.938	31.23
200.157	31.23
200.376	92.67
200.595	53.76
200.814	45.57
201.033	78.33
201.252	72.19
201.471	61.95
201.69	47.62
201.909	72.19
202.128	78.33
202.347	45.57
202.566	61.95
202.785	80.38
203.004	29.18
203.223	70.14
203.442	84.48
203.661	72.19
203.879	20.99
204.098	100.86
204.317	35.33
204.536	33.28
204.755	78.33
204.974	-38.4
205.193	72.19
205.411	100.86
205.63	25.09
205.849	64
206.068	98.81
206.287	90.62
206.505	-3.58
206.724	-3.58
206.943	84.48
207.162	51.71
207.381	43.52
207.599	-1.54
207.818	20.99
208.037	49.66
208.255	31.23
208.474	61.95
208.693	59.9
208.911	4.61
209.13	12.8
209.349	12.8
209.567	-5.63
209.786	113.15
210.005	109.05
210.223	111.1
210.442	-15.87
210.661	70.14
210.879	-15.87
211.098	2.56
211.316	39.42
211.535	135.68
211.753	45.57
211.972	51.71
212.191	49.66
212.409	102.91
212.628	72.19
212.846	-11.78
213.065	12.8
213.283	35.33
213.502	53.76
213.72	53.76
213.938	57.86
214.157	31.23
214.375	86.53
214.594	18.94
214.812	2.56
215.031	39.42
215.249	8.7
215.467	102.91
215.686	33.28
215.904	88.57
216.122	27.14
216.341	70.14
216.559	53.76
216.778	23.04
216.996	78.33
217.214	-24.06
217.432	4.61
217.651	-15.87
217.869	27.14
218.087	39.42
218.306	57.86
218.524	64
218.742	27.14
218.96	-13.82
219.179	6.66
219.397	70.14
219.615	57.86
219.833	35.33
220.051	-15.87
220.27	88.57
220.488	59.9
220.706	100.86
220.924	70.14
221.142	119.29
221.36	45.57
221.578	72.19
221.796	29.18
222.015	-1.54
222.233	88.57
222.451	55.81
222.669	86.53
222.887	61.95
223.105	53.76
223.323	27.14
223.541	33.28
223.759	8.7
223.977	-11.78
224.195	66.05
224.413	82.43
224.631	29.18
224.849	-3.58
225.067	45.57
225.285	47.62
225.503	41.47
225.721	29.18
225.939	78.33
226.157	-5.63
226.375	31.23
226.592	18.94
226.81	16.9
227.028	14.85
227.246	107.01
227.464	-7.68
227.682	20.99
227.9	64
228.117	72.19
228.335	47.62
228.553	45.57
228.771	20.99
228.989	76.29
229.206	35.33
229.424	4.61
229.642	68.09
229.86	41.47
230.077	37.38
230.295	39.42
230.513	49.66
230.731	-26.11
230.948	41.47
231.166	121.34
231.384	39.42
231.601	100.86
231.819	41.47
232.037	43.52
232.254	14.85
232.472	61.95
232.689	-30.21
232.907	53.76
233.125	53.76
233.342	64
233.56	-3.58
233.777	16.9
233.995	61.95
234.213	74.24
234.43	23.04
234.648	59.9
234.865	61.95
235.083	16.9
235.3	20.99
235.518	47.62
235.735	25.09
235.953	74.24
236.17	39.42
236.388	20.99
236.605	41.47
236.822	47.62
237.04	109.05
237.257	141.82
237.475	51.71
237.692	35.33
237.909	66.05
238.127	2.56
238.344	25.09
238.562	51.71
238.779	45.57
238.996	6.66
239.214	41.47
239.431	78.33
239.648	-34.3
239.865	39.42
240.083	57.86
240.3	72.19
240.517	27.14
240.735	66.05
240.952	37.38
241.169	84.48
241.386	74.24
241.603	66.05
241.821	-13.82
242.038	74.24
242.255	92.67
242.472	-15.87
242.689	51.71
242.907	14.85
243.124	111.1
243.341	70.14
243.558	29.18
243.775	94.72
243.992	-19.97
244.209	74.24
244.426	51.71
244.643	59.9
244.86	49.66
245.078	121.34
245.295	68.09
245.512	31.23
245.729	49.66
245.946	68.09
246.163	23.04
246.38	23.04
246.597	80.38
246.814	-17.92
247.031	23.04
247.248	94.72
247.464	25.09
247.681	14.85
247.898	61.95
248.115	72.19
248.332	78.33
248.549	-9.73
248.766	59.9
248.983	68.09
249.2	20.99
249.417	104.96
249.633	82.43
249.85	86.53
250.067	33.28
250.284	18.94
250.501	37.38
250.717	86.53
250.934	16.9
251.151	25.09
251.368	-1.54
251.585	-26.11
251.801	70.14
252.018	-9.73
252.235	76.29
252.451	94.72
252.668	23.04
252.885	41.47
253.102	-3.58
253.318	129.53
253.535	55.81
253.752	-24.06
253.968	117.25
254.185	98.81
254.401	29.18
254.618	-11.78
254.835	33.28
255.051	59.9
255.268	78.33
255.484	61.95
255.701	64
255.917	61.95
256.134	35.33
256.351	0.51
256.567	76.29
256.784	100.86
257	59.9
257.217	94.72
257.433	53.76
257.65	35.33
257.866	123.39
258.082	64
258.299	39.42
258.515	68.09
258.732	16.9
258.948	20.99
259.165	-11.78
259.381	82.43
259.597	8.7
259.814	102.91
260.03	61.95
260.246	43.52
260.463	107.01
260.679	35.33
260.895	59.9
261.112	72.19
261.328	-7.68
261.544	20.99
261.761	125.44
261.977	37.38
262.193	-5.63
262.409	76.29
262.626	147.97
262.842	113.15
263.058	37.38
263.274	35.33
263.49	35.33
263.707	70.14
263.923	29.18
264.139	55.81
264.355	20.99
264.571	82.43
264.787	31.23
265.004	111.1
265.22	16.9
265.436	41.47
265.652	2.56
265.868	70.14
266.084	117.25
266.3	27.14
266.516	39.42
266.732	107.01
266.948	16.9
267.164	115.2
267.38	59.9
267.596	90.62
267.812	100.86
268.028	94.72
268.244	78.33
268.46	76.29
268.676	-5.63
268.892	49.66
269.108	25.09
269.324	20.99
269.54	-48.64
269.756	31.23
269.972	-26.11
270.188	23.04
270.403	66.05
270.619	70.14
270.835	49.66
271.051	33.28
271.267	18.94
271.483	2.56
271.698	37.38
271.914	41.47
272.13	78.33
272.346	76.29
272.562	92.67
272.777	94.72
272.993	59.9
273.209	-11.78
273.425	29.18
273.64	6.66
273.856	100.86
274.072	143.87
274.287	41.47
274.503	51.71
274.719	-3.58
274.934	16.9
275.15	16.9
275.366	51.71
275.581	43.52
275.797	61.95
276.012	18.94
276.228	57.86
276.444	61.95
276.659	111.1
276.875	96.77
277.09	70.14
277.306	107.01
277.521	84.48
277.737	84.48
277.952	76.29
278.168	31.23
278.383	68.09
278.599	59.9
278.814	139.77
279.03	37.38
279.245	139.77
279.461	92.67
279.676	104.96
279.892	27.14
280.107	82.43
280.322	25.09
280.538	35.33
280.753	92.67
280.969	16.9
281.184	45.57
281.399	127.49
281.615	47.62
281.83	84.48
282.045	115.2
282.26	57.86
282.476	-32.26
282.691	104.96
282.906	82.43
283.122	80.38
283.337	39.42
283.552	-11.78
283.767	92.67
283.983	29.18
284.198	47.62
284.413	104.96
284.628	-38.4
284.843	82.43
285.058	39.42
285.274	-9.73
285.489	33.28
285.704	55.81
285.919	29.18
286.134	53.76
286.349	-38.4
286.564	-48.64
286.779	90.62
286.995	107.01
287.21	-13.82
287.425	82.43
287.64	102.91
287.855	131.58
288.07	-9.73
288.285	70.14
288.5	23.04
288.715	94.72
288.93	-7.68
289.145	104.96
289.36	14.85
289.575	35.33
289.79	55.81
290.004	0.51
290.219	109.05
290.434	37.38
290.649	2.56
290.864	-24.06
291.079	-26.11
291.294	70.14
291.509	111.1
291.724	37.38
291.938	82.43
292.153	109.05
292.368	104.96
292.583	61.95
292.798	37.38
293.012	104.96
293.227	53.76
293.442	92.67
293.657	70.14
293.871	64
294.086	84.48
294.301	-22.02
294.516	49.66
294.73	86.53
294.945	88.57
295.16	33.28
295.374	109.05
295.589	4.61
295.804	47.62
296.018	61.95
296.233	82.43
296.447	82.43
296.662	80.38
296.877	2.56
297.091	64
297.306	74.24
297.52	14.85
297.735	100.86
297.949	76.29
298.164	80.38
298.378	74.24
298.593	12.8
298.807	43.52
299.022	104.96
299.236	8.7
299.451	104.96
299.665	33.28
299.88	51.71
300.094	66.05
300.309	20.99
300.523	41.47
300.737	45.57
300.952	61.95
301.166	135.68
301.381	55.81
301.595	113.15
301.809	115.2
302.024	64
302.238	51.71
302.452	86.53
302.667	8.7
302.881	72.19
303.095	27.14
303.309	109.05
303.524	100.86
303.738	70.14
303.952	-11.78
304.166	115.2
304.381	-11.78
304.595	72.19
304.809	8.7
305.023	35.33
305.237	18.94
305.452	74.24
305.666	107.01
305.88	90.62
306.094	92.67
306.308	86.53
306.522	131.58
306.736	76.29
306.95	55.81
307.164	33.28
307.379	-13.82
307.593	98.81
307.807	98.81
308.021	84.48
308.235	80.38
308.449	-28.16
308.663	4.61
308.877	47.62
309.091	119.29
309.305	98.81
309.519	-3.58
309.733	145.92
309.947	-7.68
310.161	111.1
310.374	88.57
310.588	80.38
310.802	78.33
311.016	29.18
311.23	55.81
311.444	70.14
311.658	23.04
311.872	86.53
312.085	4.61
312.299	119.29
312.513	84.48
312.727	82.43
312.941	37.38
313.154	61.95
313.368	0.51
313.582	76.29
313.796	94.72
314.009	92.67
314.223	57.86
314.437	109.05
314.651	47.62
314.864	29.18
315.078	43.52
315.292	4.61
315.505	57.86
315.719	35.33
315.933	76.29
316.146	59.9
316.36	86.53
316.573	25.09
316.787	86.53
317.001	92.67
317.214	10.75
317.428	102.91
317.641	27.14
317.855	53.76
318.068	49.66
318.282	92.67
318.495	59.9
318.709	-46.59
318.922	96.77
319.136	59.9
319.349	115.2
319.563	86.53
319.776	86.53
319.99	31.23
320.203	131.58
320.417	78.33
320.63	35.33
320.843	68.09
321.057	88.57
321.27	25.09
321.483	31.23
321.697	98.81
321.91	45.57
322.124	72.19
322.337	31.23
322.55	49.66
322.763	64
322.977	53.76
323.19	33.28
323.403	23.04
323.617	119.29
323.83	72.19
324.043	76.29
324.256	70.14
324.469	55.81
324.683	70.14
324.896	80.38
325.109	25.09
325.322	20.99
325.535	45.57
325.748	90.62
325.962	57.86
326.175	59.9
326.388	-1.54
326.601	59.9
326.814	16.9
327.027	35.33
327.24	70.14
327.453	20.99
327.666	82.43
327.879	8.7
328.092	84.48
328.305	137.73
328.518	29.18
328.731	12.8
328.944	31.23
329.157	2.56
329.37	0.51
329.583	37.38
329.796	123.39
330.009	0.51
330.222	72.19
330.435	10.75
330.648	94.72
330.861	82.43
331.073	80.38
331.286	55.81
331.499	29.18
331.712	47.62
331.925	37.38
332.138	16.9
332.35	43.52
332.563	0.51
332.776	68.09
332.989	4.61
333.202	45.57
333.414	41.47
333.627	82.43
333.84	29.18
334.053	86.53
334.265	74.24
334.478	25.09
334.691	86.53
334.903	39.42
335.116	39.42
335.329	59.9
335.541	80.38
335.754	109.05
335.966	160.25
336.179	41.47
336.392	90.62
336.604	31.23
336.817	47.62
337.029	115.2
337.242	59.9
337.454	49.66
337.667	20.99
337.88	90.62
338.092	90.62
338.305	125.44
338.517	14.85
338.729	18.94
338.942	135.68
339.154	33.28
339.367	61.95
339.579	51.71
339.792	39.42
340.004	47.62
340.217	31.23
340.429	51.71
340.641	2.56
340.854	-3.58
341.066	20.99
341.278	80.38
341.491	39.42
341.703	84.48
341.915	6.66
342.128	107.01
342.34	66.05
342.552	55.81
342.764	51.71
342.977	88.57
343.189	72.19
343.401	82.43
343.613	-1.54
343.826	90.62
344.038	64
344.25	59.9
344.462	76.29
344.674	25.09
344.886	43.52
345.099	2.56
345.311	109.05
345.523	100.86
345.735	29.18
345.947	72.19
346.159	61.95
346.371	68.09
346.583	76.29
346.795	96.77
347.007	-3.58
347.219	45.57
347.431	33.28
347.643	74.24
347.855	0.51
348.067	51.71
348.279	41.47
348.491	53.76
348.703	12.8
348.915	41.47
349.127	109.05
349.339	74.24
349.551	74.24
349.763	35.33
349.975	57.86
350.187	61.95
350.399	107.01
350.61	64
350.822	35.33
351.034	84.48
351.246	64
351.458	33.28
351.669	29.18
351.881	41.47
352.093	76.29
352.305	104.96
352.517	20.99
352.728	100.86
352.94	35.33
353.152	51.71
353.363	-11.78
353.575	31.23
353.787	78.33
353.999	115.2
354.21	53.76
354.422	55.81
354.633	25.09
354.845	92.67
355.057	100.86
355.268	88.57
355.48	47.62
355.692	33.28
355.903	55.81
356.115	68.09
356.326	104.96
356.538	115.2
356.749	29.18
356.961	100.86
357.172	111.1
357.384	88.57
357.595	86.53
357.807	104.96
358.018	-24.06
358.23	80.38
358.441	90.62
358.653	14.85
358.864	2.56
359.075	55.81
359.287	35.33
359.498	43.52
359.709	104.96
359.921	147.97
360.132	76.29
360.344	125.44
360.555	96.77
360.766	20.99
360.977	-3.58
361.189	127.49
361.4	121.34
361.611	61.95
361.823	92.67
362.034	57.86
362.245	47.62
362.456	41.47
362.667	61.95
362.879	147.97
363.09	66.05
363.301	100.86
363.512	92.67
363.723	49.66
363.935	43.52
364.146	61.95
364.357	104.96
364.568	98.81
364.779	35.33
364.99	68.09
365.201	6.66
365.412	127.49
365.623	76.29
365.834	127.49
366.045	154.11
366.256	109.05
366.467	27.14
366.678	90.62
366.889	55.81
367.1	47.62
367.311	70.14
367.522	74.24
367.733	68.09
367.944	113.15
368.155	98.81
368.366	51.71
368.577	102.91
368.788	123.39
368.999	66.05
369.209	64
369.42	94.72
369.631	10.75
369.842	109.05
370.053	55.81
370.264	139.77
370.474	-5.63
370.685	96.77
370.896	39.42
371.107	37.38
371.317	84.48
371.528	123.39
371.739	88.57
371.95	12.8
372.16	135.68
372.371	92.67
372.582	68.09
372.792	92.67
373.003	-42.5
373.214	57.86
373.424	107.01
373.635	80.38
373.846	39.42
374.056	107.01
374.267	80.38
374.477	29.18
374.688	182.78
374.898	14.85
375.109	57.86
375.319	39.42
375.53	45.57
375.74	125.44
375.951	100.86
376.161	98.81
376.372	90.62
376.582	129.53
376.793	119.29
377.003	51.71
377.214	111.1
377.424	68.09
377.635	-48.64
377.845	55.81
378.055	96.77
378.266	43.52
378.476	43.52
378.686	74.24
378.897	-3.58
379.107	127.49
379.317	131.58
379.528	61.95
379.738	53.76
379.948	53.76
380.158	162.3
380.369	102.91
380.579	86.53
380.789	78.33
380.999	113.15
381.21	141.82
381.42	47.62
381.63	64
381.84	170.49
382.05	147.97
382.261	72.19
382.471	8.7
382.681	113.15
382.891	39.42
383.101	113.15
383.311	111.1
383.521	88.57
383.731	57.86
383.941	37.38
384.151	16.9
384.361	160.25
384.571	41.47
384.781	102.91
384.991	94.72
385.201	94.72
385.411	66.05
385.621	49.66
385.831	45.57
386.041	59.9
386.251	98.81
386.461	78.33
386.671	23.04
386.881	102.91
387.091	27.14
387.301	127.49
387.511	37.38
387.72	121.34
387.93	90.62
388.14	102.91
388.35	18.94
388.56	168.45
388.769	94.72
388.979	145.92
389.189	47.62
389.399	119.29
389.609	109.05
389.818	174.59
390.028	129.53
390.238	127.49
390.447	18.94
390.657	125.44
390.867	137.73
391.076	102.91
391.286	143.87
391.496	154.11
391.705	68.09
391.915	162.3
392.125	59.9
392.334	74.24
392.544	127.49
392.753	80.38
392.963	57.86
393.172	88.57
393.382	125.44
393.591	74.24
393.801	84.48
394.01	135.68
394.22	135.68
394.429	131.58
394.639	59.9
394.848	74.24
395.058	131.58
395.267	158.21
395.477	127.49
395.686	102.91
395.895	139.77
396.105	217.6
396.314	107.01
396.524	76.29
396.733	166.4
396.942	80.38
397.152	150.01
397.361	107.01
397.57	193.02
397.78	156.16
397.989	104.96
398.198	98.81
398.407	104.96
398.617	135.68
398.826	168.45
399.035	160.25
399.244	127.49
399.453	76.29
399.663	76.29
399.872	225.79
400.081	100.86
400.29	180.73
400.499	86.53
400.708	174.59
400.917	205.31
401.127	107.01
401.336	121.34
401.545	156.16
401.754	262.65
401.963	221.69
402.172	172.54
402.381	113.15
402.59	154.11
402.799	152.06
403.008	156.16
403.217	180.73
403.426	225.79
403.635	225.79
403.844	137.73
404.053	209.4
404.262	158.21
404.471	190.97
404.68	141.82
404.888	174.59
405.097	199.16
405.306	209.4
405.515	172.54
405.724	182.78
405.933	244.22
406.142	190.97
406.35	207.36
406.559	182.78
406.768	166.4
406.977	172.54
407.185	283.13
407.394	256.51
407.603	262.65
407.812	176.64
408.02	281.08
408.229	242.17
408.438	178.69
408.646	219.64
408.855	313.85
409.064	291.32
409.272	317.95
409.481	270.84
409.69	358.91
409.898	328.19
410.107	328.19
410.315	264.7
410.524	385.53
410.733	311.8
410.941	305.66
411.15	408.06
411.358	434.68
411.567	422.39
411.775	410.11
411.984	436.73
412.192	446.97
412.401	397.82
412.609	446.97
412.818	520.7
413.026	481.78
413.234	553.46
413.443	485.88
413.651	549.37
413.86	543.22
414.068	662.01
414.276	713.21
414.485	604.66
414.693	719.35
414.901	664.05
415.11	670.2
415.318	823.8
415.526	811.51
415.734	776.69
415.943	797.17
416.151	809.46
416.359	782.84
416.567	887.28
416.776	969.2
416.984	934.39
417.192	1008.11
417.4	1020.4
417.608	993.78
417.817	1182.19
418.025	1016.3
418.233	1296.88
418.441	1180.14
418.649	1284.59
418.857	1384.94
419.065	1309.16
419.273	1305.07
419.481	1298.92
419.689	1567.21
419.897	1524.2
420.105	1624.55
420.313	1563.11
420.521	1663.46
420.729	1700.33
420.937	1761.77
421.145	1886.69
421.353	1919.46
421.561	1982.95
421.769	2097.63
421.977	2169.31
422.185	2109.92
422.393	2232.8
422.601	2490.84
422.809	2408.92
423.017	2290.14
423.224	2460.12
423.432	2587.1
423.64	2671.06
423.848	2783.7
424.056	2859.48
424.263	2972.11
424.471	3060.18
424.679	2908.63
424.887	3203.54
425.094	3371.47
425.302	3256.78
425.51	3586.51
425.718	3551.69
425.925	3715.53
426.133	3867.08
426.341	4053.44
426.548	4166.08
426.756	4166.08
426.964	3981.76
427.171	4448.7
427.379	4628.92
427.586	4587.96
427.794	4759.99
428.001	4895.16
428.209	5122.48
428.417	5040.56
428.624	5331.37
428.832	5423.53
429.039	5310.89
429.247	5327.28
429.454	5841.32
429.662	6283.68
429.869	5970.34
430.076	6336.93
430.284	6072.74
430.491	6482.33
430.699	6730.14
430.906	6775.19
431.114	7076.24
431.321	7356.82
431.528	7199.12
431.736	7913.86
431.943	8110.47
432.15	7995.78
432.358	8092.04
432.565	8464.77
432.772	8362.37
432.979	8888.7
433.187	8974.71
433.394	9021.81
433.601	9537.9
433.808	9822.57
434.016	9576.81
434.223	10101.09
434.43	10426.72
434.637	10385.76
434.844	10821.98
435.052	11211.09
435.259	11059.54
435.466	11276.63
435.673	11276.63
435.88	12147.01
436.087	12595.52
436.294	12663.1
436.501	12276.04
436.708	12355.91
436.915	12945.72
437.122	13637.94
437.329	13488.43
437.537	13793.58
437.743	14205.22
437.95	14002.47
438.157	14733.6
438.364	15458.58
438.571	15321.37
438.778	15638.8
438.985	16851.2
439.192	16247.05
439.399	16521.48
439.606	16187.66
439.813	17191.16
440.02	18309.35
440.227	17953.01
440.433	17594.61
440.64	18403.56
440.847	17983.73
441.054	18594.02
441.261	20168.91
441.467	19710.16
441.674	20304.07
441.881	20721.86
442.088	20625.61
442.294	20576.45
442.501	21362.87
442.708	21846.19
442.914	22587.56
443.121	23543.96
443.328	22950.05
443.534	24688.78
443.741	23857.3
443.948	23183.52
444.154	25301.12
444.361	25030.79
444.568	25362.56
444.774	25313.41
444.981	25307.26
445.187	26151.02
445.394	27342.94
445.6	26800.23
445.807	29702.2
446.013	28432.46
446.22	28614.73
446.426	30111.8
446.633	30457.9
446.839	30775.34
447.046	29896.76
447.252	31479.84
447.459	31299.62
447.665	31541.28
447.871	32868.36
448.078	33974.27
448.284	32688.14
448.491	33488.9
448.697	34689.01
448.903	35282.92
449.11	35393.51
449.316	34738.16
449.522	35534.82
449.728	36067.29
449.935	36388.82
450.141	36155.35
450.347	37318.6
450.553	36341.72
450.76	36536.27
450.966	37887.93
451.172	37126.09
451.378	37961.66
451.584	37394.37
451.791	38451.13
451.997	38176.7
452.203	38836.14
452.409	38823.86
452.615	38719.41
452.821	37058.51
453.027	36777.93
453.233	38821.81
453.44	36794.32
453.646	37513.16
453.852	37615.55
454.058	38430.65
454.264	37009.36
454.47	37765.06
454.676	36716.5
454.882	38082.49
455.088	34838.51
455.294	35504.1
455.5	35444.71
455.705	36323.29
455.911	34736.11
456.117	33726.46
456.323	33564.67
456.529	31590.43
456.735	33247.24
456.941	32501.78
457.147	31715.36
457.352	30918.7
457.558	30484.53
457.764	30488.62
457.97	29859.9
458.176	29403.2
458.381	29048.9
458.587	27506.78
458.793	27476.06
458.999	26181.74
459.204	28239.95
459.41	27433.05
459.616	25698.42
459.821	25591.93
460.027	25362.56
460.233	24758.41
460.438	23918.74
460.644	24213.65
460.85	22956.19
461.055	22950.05
461.261	22534.31
461.466	20986.05
461.672	20488.39
461.878	21883.06
462.083	20261.07
462.289	19744.98
462.494	19804.37
462.7	18917.6
462.905	18405.61
463.111	19353.82
463.316	19286.23
463.522	18839.78
463.727	18796.77
463.932	18503.91
464.138	18637.03
464.343	18637.03
464.549	17981.68
464.754	18610.4
464.959	18559.2
465.165	18493.67
465.37	17383.67
465.575	17314.04
465.781	17912.05
465.986	18131.18
466.191	17148.15
466.397	16863.49
466.602	16019.72
466.807	16650.5
467.012	16943.36
467.218	16941.31
467.423	16539.91
467.628	16572.68
467.833	17248.5
468.038	16810.24
468.244	16218.38
468.449	17137.91
468.654	16361.73
468.859	15980.81
469.064	16222.47
469.269	15638.8
469.474	15515.92
469.679	15941.9
469.885	15517.97
470.09	15755.54
470.295	15421.72
470.5	15444.24
470.705	15241.5
470.91	14862.62
471.115	14858.53
471.32	15270.17
471.525	14696.74
471.73	14688.54
471.935	14844.19
472.139	14008.62
472.344	14274.85
472.549	14141.74
472.754	13922.6
472.959	13832.49
473.164	13392.18
473.369	13054.26
473.574	13699.37
473.778	13541.68
473.983	13615.41
474.188	13289.78
474.393	12792.12
474.598	13136.18
474.802	12628.29
475.007	12550.46
475.212	12706.11
475.417	12312.9
475.621	12116.3
475.826	12398.91
476.031	12050.76
476.235	12005.7
476.44	12015.94
476.645	11729.23
476.849	11780.43
477.054	11596.11
477.259	11573.58
477.463	11641.17
477.668	11254.1
477.872	11319.64
478.077	11245.91
478.282	10846.55
478.486	10830.17
478.691	10684.76
478.895	10664.29
479.1	10774.88
479.304	10785.12
479.509	10332.51
479.713	10686.81
479.918	10250.6
480.122	10289.51
480.326	10350.95
480.531	10105.19
480.735	10164.58
480.94	10215.78
481.144	10396
481.348	9961.83
481.553	9986.41
481.757	9978.22
481.961	10133.86
482.166	10039.65
482.37	10058.09
482.574	9787.75
482.778	10037.61
482.983	10191.2
483.187	9947.5
483.391	10084.71
483.595	10103.14
483.8	10039.65
484.004	10027.37
484.208	10090.85
484.412	9865.58
484.616	9963.88
484.821	10062.18
485.025	9951.59
485.229	10094.95
485.433	9879.91
485.637	9857.39
485.841	9898.34
486.045	9892.2
486.249	9892.2
486.453	9836.91
486.657	9802.09
486.861	9970.02
487.065	9628.01
487.269	9812.33
487.473	9689.45
487.677	10064.23
487.881	10234.21
488.085	10021.22
488.289	10119.53
488.493	10045.8
488.697	9988.46
488.901	10101.09
489.105	10056.04
489.309	10039.65
489.512	10146.15
489.716	10082.66
489.92	10058.09
490.124	10082.66
490.328	10408.29
490.531	10025.32
490.735	10283.36
490.939	10492.26
491.143	10185.06
491.346	10443.1
491.55	10492.26
491.754	10492.26
491.958	10627.42
492.161	10570.08
492.365	10451.3
492.569	10627.42
492.772	10520.93
492.976	10697.05
493.18	10631.52
493.383	10881.37
493.587	10922.33
493.79	11143.51
493.994	10901.85
494.197	11182.42
494.401	11065.69
494.605	11100.5
494.808	11389.27
495.012	11340.11
495.215	11471.18
495.419	11704.65
495.622	11530.58
495.825	11747.66
496.029	11430.23
496.232	11999.56
496.436	11915.59
496.639	12327.24
496.843	12212.55
497.046	12546.37
497.249	12519.74
497.453	12738.88
497.656	12724.54
497.859	12708.16
498.063	12966.2
498.266	13173.05
498.469	13046.07
498.673	13437.23
498.876	13435.19
499.079	13644.08
499.282	13680.94
499.485	13930.8
499.689	14080.3
499.892	14254.37
500.095	14248.23
500.298	14817.57
500.501	14467.36
500.705	14860.57
500.908	15089.95
501.111	15014.17
501.314	15481.11
501.517	15446.29
501.72	15653.14
501.923	15730.96
502.126	16091.4
502.329	16281.86
502.532	16361.73
502.735	16460.04
502.938	16711.94
503.141	16918.78
503.344	16969.98
503.547	17000.7
503.75	17228.03
503.953	17752.31
504.156	17832.18
504.359	17715.44
504.562	17858.8
504.765	18456.81
504.968	18659.56
505.17	18946.27
505.373	18890.98
505.576	19024.09
505.779	19464.41
505.982	19480.79
506.185	19869.9
506.387	19964.11
506.59	19957.97
506.793	20750.53
506.996	20502.73
507.198	21225.66
507.401	21133.5
507.604	21405.88
507.807	21665.97
508.009	21969.07
508.212	22245.55
508.415	22044.85
508.617	22319.28
508.82	22655.14
509.022	22163.63
509.225	23117.98
509.428	23230.62
509.63	23355.55
509.833	23642.26
510.035	24377.48
510.238	24008.85
510.44	24635.53
510.643	24604.81
510.845	25061.51
511.048	24862.85
511.25	25215.1
511.453	25440.38
511.655	26417.26
511.858	26040.43
512.06	26214.51
512.262	26409.07
512.465	26658.92
512.667	27242.59
512.87	27127.91
513.072	27271.26
513.274	28008.53
513.477	27899.99
513.679	28592.2
513.881	28874.82
514.084	28854.34
514.286	28760.14
514.488	29349.95
514.69	30273.59
514.893	30011.45
515.095	30111.8
515.297	30674.99
515.499	30810.15
515.701	30908.46
515.904	31684.64
516.106	31610.91
516.308	32061.46
516.51	32432.15
516.712	32127
516.914	33028.1
517.116	33138.69
517.318	33478.66
517.52	33304.58
517.722	33708.03
517.925	34373.62
518.127	34512.88
518.329	34813.93
518.531	34445.3
518.733	35157.99
518.935	35815.39
519.136	35766.24
519.338	36358.1
519.54	36331.48
519.742	37150.67
519.944	37074.89
520.146	37664.71
520.348	37476.29
520.55	37935.04
520.752	38135.74
520.954	38371.25
521.155	38172.6
521.357	38778.8
521.559	38983.6
521.761	39706.53
521.963	39929.76
522.164	40034.21
522.366	40183.71
522.568	40382.36
522.77	40671.12
522.971	41281.42
523.173	41121.68
523.375	41510.79
523.576	41799.55
523.778	41648
523.98	42043.26
524.181	42626.93
524.383	42426.23
524.584	43073.39
524.786	42841.97
524.988	43112.3
525.189	43511.66
525.391	43886.43
525.592	43706.21
525.794	44250.97
525.995	43927.39
526.197	44173.15
526.398	44586.84
526.6	44676.95
526.801	44750.68
527.003	45598.54
527.204	44922.71
527.406	45438.79
527.607	45616.97
527.808	45928.26
528.01	45324.11
528.211	45348.68
528.412	46675.77
528.614	46507.83
528.815	46282.56
529.016	46831.41
529.218	46372.67
529.419	46759.73
529.62	46530.36
529.822	46823.22
530.023	46855.99
530.224	46698.3
530.425	47089.46
530.626	46462.78
530.828	46497.59
531.029	48002.85
531.23	47224.62
531.431	47367.98
531.632	47775.53
531.833	47863.59
532.035	47503.15
532.236	47990.56
532.437	48254.75
532.638	47621.93
532.839	48191.26
533.04	48283.42
533.241	47527.72
533.442	48906.01
533.643	48006.95
533.844	48011.04
534.045	48500.51
534.246	47626.03
534.447	48334.62
534.648	47904.55
534.849	48379.68
535.05	47875.88
535.251	48045.86
535.451	48256.8
535.652	48348.96
535.853	48346.91
536.054	48447.26
536.255	48652.06
536.456	48224.03
536.657	48789.27
536.857	48039.71
537.058	48142.11
537.259	48942.87
537.46	48635.67
537.66	47845.16
537.861	48717.59
538.062	48166.69
538.263	48434.97
538.463	48385.82
538.664	48461.6
538.865	49006.36
539.065	48934.68
539.266	48117.54
539.466	48838.42
539.667	47963.94
539.868	48582.43
540.068	48445.21
540.269	48326.43
540.469	48897.81
540.67	48383.77
540.87	47965.99
541.071	48236.32
541.271	48725.78
541.472	48467.74
541.672	48160.55
541.873	48355.1
542.073	48056.1
542.274	48928.53
542.474	48445.21
542.675	47994.66
542.875	48758.55
543.075	48455.45
543.276	47666.98
543.476	48607
543.676	48013.09
543.877	48291.62
544.077	48680.73
544.277	48273.18
544.478	48371.49
544.678	48568.09
544.878	48439.07
545.078	48291.62
545.279	47650.6
545.479	48095.01
545.679	48551.71
545.879	48516.89
546.079	48377.63
546.28	48082.72
546.48	48127.78
546.68	48424.73
546.88	48340.77
547.08	47986.47
547.28	48434.97
547.48	47865.64
547.68	48445.21
547.88	47894.31
548.081	48195.36
548.281	48080.67
548.481	48154.4
548.681	48332.57
548.881	48492.32
549.081	48439.07
549.28	47988.52
549.48	48879.38
549.68	48215.84
549.88	48469.79
550.08	48111.39
550.28	48789.27
550.48	48234.27
550.68	48469.79
550.88	48011.04
551.08	48293.66
551.279	48074.53
551.479	47644.46
551.679	47781.67
551.879	47849.25
552.079	48369.44
552.278	47900.45
552.478	47961.89
552.678	48164.64
552.878	48068.39
553.077	48156.45
553.277	47458.09
553.477	48801.56
553.676	47693.61
553.876	47834.92
554.076	47877.93
554.275	47531.82
554.475	47630.12
554.674	47890.21
554.874	48015.14
555.074	47415.08
555.273	47443.76
555.473	47818.53
555.672	47488.81
555.872	47345.45
556.071	47388.46
556.271	47472.43
556.47	47191.86
556.67	47030.07
556.869	47347.5
557.068	47533.87
557.268	47308.59
557.467	47511.34
557.667	47347.5
557.866	47497
558.065	47101.75
558.265	46913.33
558.464	46677.82
558.663	47261.49
558.863	46438.2
559.062	47128.37
559.261	47028.02
559.461	47335.21
559.66	46503.74
559.859	46634.81
560.058	46489.4
560.258	46643
560.457	46407.48
560.656	46835.51
560.855	46372.67
561.054	46741.3
561.253	46057.28
561.453	46268.22
561.652	46239.55
561.851	46241.6
562.05	45807.43
562.249	45686.6
562.448	46548.79
562.647	46126.91
562.846	45664.07
563.045	45881.16
563.244	45227.85
563.443	45721.41
563.642	45311.82
563.841	45563.72
564.04	45160.27
564.239	45725.51
564.438	45016.91
564.637	45465.42
564.836	45576.01
565.035	44924.75
565.234	44963.67
565.432	45188.94
565.631	44795.73
565.83	45283.15
566.029	44521.3
566.228	44631.89
566.427	44603.22
566.625	44541.78
566.824	43685.73
567.023	44660.57
567.222	43575.14
567.42	44513.11
567.619	44132.19
567.818	43366.25
568.016	43794.28
568.215	44189.53
568.414	43718.5
568.612	44154.72
568.811	43646.82
569.01	44015.46
569.208	43390.83
569.407	43382.63
569.605	43149.17
569.804	43597.67
570.002	42950.51
570.201	43231.08
570.4	43024.24
570.598	42661.75
570.797	42661.75
570.995	42977.14
571.193	41985.92
571.392	42927.98
571.59	42534.77
571.789	42420.09
571.987	42510.2
572.186	42350.46
572.384	42024.83
572.582	41906.05
572.781	42325.88
572.979	41693.06
573.177	42145.66
573.376	41908.1
573.574	41011.09
573.772	41768.83
573.971	41496.45
574.169	41181.07
574.367	41154.44
574.565	41207.69
574.763	40859.54
574.962	40931.22
575.16	40441.75
575.358	40787.86
575.556	40671.12
575.754	40966.03
575.952	40007.58
576.151	40888.21
576.349	40052.64
576.547	40421.27
576.745	40331.16
576.943	40095.64
577.141	39669.67
577.339	39983.01
577.537	39647.14
577.735	39712.67
577.933	38942.64
578.131	39655.33
578.329	39235.5
578.527	38983.6
578.725	39475.11
578.923	39368.62
579.121	38987.69
579.319	38895.53
579.516	39036.84
579.714	38764.46
579.912	38821.81
580.11	38569.91
580.308	38537.14
580.506	38602.67
580.704	37679.04
580.901	38676.4
581.099	38571.96
581.297	37959.61
581.495	37894.08
581.692	38465.46
581.89	37681.09
582.088	37881.79
582.285	37119.95
582.483	38008.76
582.681	37652.42
582.878	37191.62
583.076	37011.4
583.274	37783.49
583.471	37154.76
583.669	37197.77
583.866	36925.39
584.064	37175.24
584.262	36657.1
584.459	36870.09
584.657	36573.14
584.854	36616.15
585.052	35882.97
585.249	36612.05
585.447	36368.34
585.644	36089.82
585.841	35928.03
586.039	36413.4
586.236	35692.51
586.434	35958.75
586.631	35712.99
586.828	35518.43
587.026	35571.68
587.223	35520.48
587.42	35342.31
587.618	35422.18
587.815	35039.21
588.012	34994.15
588.21	34973.67
588.407	35452.9
588.604	35137.51
588.801	34617.33
588.999	34430.96
589.196	34238.45
589.393	34629.62
589.59	34349.04
589.787	34314.23
589.984	34211.83
590.182	33984.51
590.379	34416.63
590.576	33882.11
590.773	34181.11
590.97	33970.17
591.167	33896.44
591.364	33193.99
591.561	33675.26
591.758	33357.83
591.955	33120.26
592.152	33501.18
592.349	33095.69
592.546	33359.87
592.743	33208.33
592.94	32532.5
593.137	32825.36
593.334	33071.11
593.531	32342.03
593.727	32653.33
593.924	32909.32
594.121	32059.41
594.318	32741.39
594.515	32018.46
594.712	32464.91
594.908	32225.3
595.105	32217.11
595.302	31889.43
595.499	31897.63
595.696	31719.45
595.892	31807.51
596.089	31234.08
596.286	31770.65
596.482	31471.65
596.679	31350.82
596.876	31383.59
597.072	30900.26
597.269	31283.23
597.466	31049.77
597.662	30910.5
597.859	31232.04
598.055	31109.16
598.252	30736.43
598.448	30849.07
598.645	30799.91
598.841	30017.59
599.038	30836.78
599.234	30474.29
599.431	29960.25
599.627	30193.72
599.824	30410.8
600.02	30154.8
600.217	29691.96
600.413	29630.52
600.609	29941.82
600.806	29638.72
601.002	29929.53
601.198	29296.7
601.395	29204.55
601.591	29343.81
601.787	29775.93
601.984	29179.97
602.18	29431.87
602.376	29200.45
602.572	28858.44
602.769	28893.26
602.965	28545.1
603.161	28663.88
603.357	28366.93
603.553	28895.3
603.75	28698.7
603.946	28190.8
604.142	28758.09
604.338	27930.71
604.534	28225.62
604.73	28041.3
604.926	28092.5
605.122	27889.75
605.318	27959.38
605.514	27605.08
605.71	27635.8
605.906	27699.29
606.102	27588.7
606.298	28160.08
606.494	27404.38
606.69	27375.71
606.886	27551.84
607.082	27119.71
607.278	27222.11
607.474	27007.08
607.67	27115.62
607.866	26816.61
608.062	27080.8
608.257	26914.92
608.453	27156.58
608.649	26935.4
608.845	26706.02
609.041	27097.19
609.236	26529.9
609.432	26701.93
609.628	26435.69
609.824	26589.29
610.019	26347.63
610.215	26564.71
610.411	26558.57
610.606	26234.99
610.802	26447.98
610.998	26345.58
611.193	26112.11
611.389	26042.48
611.584	25880.69
611.78	26036.34
611.976	25890.93
612.171	26007.67
612.367	25845.88
612.562	25766.01
612.758	25563.26
612.953	25483.39
613.149	25774.2
613.344	25872.5
613.539	25895.03
613.735	25548.92
613.93	25899.12
614.126	25421.95
614.321	25559.16
614.517	25202.82
614.712	25608.31
614.907	25239.68
615.103	25309.31
615.298	25155.71
615.493	25821.3
615.688	24764.55
615.884	25430.14
616.079	24791.17
616.274	25487.48
616.47	25073.79
616.665	25051.27
616.86	24666.25
617.055	24916.1
617.25	24635.53
617.445	25073.79
617.641	24526.99
617.836	25034.88
618.031	24553.61
618.226	24613
618.421	24647.82
618.616	24567.95
618.811	24058
619.006	24459.4
619.201	24166.54
619.396	24455.31
619.591	23509.15
619.786	24301.71
619.981	23793.81
620.176	23951.51
620.371	23644.31
620.566	24041.62
620.761	23652.5
620.956	23429.27
621.151	23584.92
621.346	23136.41
621.541	22892.71
621.735	23298.2
621.93	22849.7
622.125	22853.8
622.32	22534.31
622.515	22732.97
622.709	22462.63
622.904	22485.16
623.099	22405.29
623.294	22442.15
623.488	22018.22
623.683	22249.64
623.878	21553.34
624.072	22034.61
624.267	21872.82
624.462	21516.47
624.656	21569.72
624.851	21371.07
625.046	21117.12
625.24	21065.92
625.435	20984
625.629	21139.65
625.824	20838.59
626.018	21018.82
626.213	20568.26
626.407	20580.55
626.602	20633.8
626.796	20306.12
626.991	20230.35
627.185	20230.35
627.38	20062.41
627.574	20070.61
627.768	19718.36
627.963	19603.67
628.157	19386.58
628.352	19890.38
628.546	19341.53
628.74	19409.11
628.935	19116.25
629.129	19069.15
629.323	18989.28
629.517	18938.08
629.712	18792.67
629.906	18718.95
630.1	18577.64
630.294	18759.91
630.489	18235.63
630.683	18602.21
630.877	18149.61
631.071	18186.47
631.265	18301.16
631.459	18233.58
631.653	18047.21
631.848	17887.47
632.042	17791.22
632.236	18079.98
632.43	17488.12
632.624	17733.87
632.818	17285.37
633.012	17201.4
633.206	17434.87
633.4	17252.6
633.594	16912.64
633.788	17303.8
633.982	17182.97
634.176	16963.84
634.369	16574.72
634.563	16615.68
634.757	16677.12
634.951	16541.96
635.145	16412.93
635.339	16324.87
635.533	16349.45
635.726	16251.14
635.92	16113.93
636.114	16261.38
636.308	16095.5
636.501	16253.19
636.695	15784.21
636.889	16042.25
637.083	15536.4
637.276	15552.79
637.47	15794.45
637.664	15315.22
637.857	15626.51
638.051	15335.7
638.244	15192.34
638.438	15077.66
638.632	15153.43
638.825	15175.96
639.019	14684.45
639.212	14809.37
639.406	14895.39
639.599	14657.82
639.793	14680.35
639.986	14174.5
640.18	14932.25
640.373	14410.02
640.567	14289.19
640.76	14401.83
640.954	14078.25
641.147	14047.53
641.34	14233.89
641.534	13947.18
641.727	14043.43
641.92	13981.99
642.114	13912.36
642.307	13586.74
642.5	13777.2
642.694	13359.41
642.887	13510.96
643.08	13728.05
643.273	13289.78
643.467	13461.81
643.66	13136.18
643.853	13232.44
644.046	13132.09
644.239	13084.98
644.432	12812.6
644.626	12890.43
644.819	12728.64
645.012	12892.48
645.205	12718.4
645.398	12874.04
645.591	12550.46
645.784	12478.79
645.977	12595.52
646.17	12267.84
646.363	12255.56
646.556	12149.06
646.749	12335.43
646.942	12345.67
647.135	12099.91
647.328	12081.48
647.521	12022.09
647.714	11882.83
647.907	11770.19
648.099	11659.6
648.292	11792.72
648.485	11725.13
648.678	11508.05
648.871	11628.88
649.064	11559.25
649.256	11745.61
649.449	11432.27
649.642	11424.08
649.835	11227.48
650.027	11342.16
650.22	11231.57
650.413	11084.12
650.605	11088.21
650.798	10971.48
650.991	10895.71
651.183	11110.74
651.376	10660.19
651.568	10891.61
651.761	10699.1
651.954	10905.95
652.146	10568.03
652.339	10715.48
652.531	10396
652.724	10447.2
652.916	10514.78
653.109	10408.29
653.301	10418.53
653.494	10508.64
653.686	10213.73
653.879	10357.09
654.071	9988.46
654.263	10094.95
654.456	9937.26
654.648	10217.83
654.84	9845.1
655.033	9890.15
655.225	9824.62
655.417	9720.17
655.61	9795.95
655.802	9730.41
655.994	9675.12
656.186	9646.44
656.379	9529.71
656.571	9578.86
656.763	9283.95
656.955	9388.4
657.148	9447.79
657.34	9421.17
657.532	9339.25
657.724	9251.19
657.916	9193.84
658.108	9345.39
658.3	9161.08
658.492	9068.92
658.684	8874.36
658.876	8943.99
659.068	8995.19
659.26	8821.11
659.452	8847.74
659.644	8632.7
659.836	8581.5
660.028	8999.29
660.22	8356.22
660.412	8536.45
660.604	8526.21
660.796	8534.4
660.988	8382.85
661.18	8610.17
661.372	8296.83
661.563	8307.07
661.755	8147.33
661.947	8335.74
662.139	8145.28
662.331	8112.52
662.522	8094.08
662.714	8376.7
662.906	7995.78
663.097	8026.5
663.289	7975.3
663.481	7932.29
663.673	7885.19
663.864	7844.23
664.056	7772.55
664.247	7831.94
664.439	7670.15
664.631	7643.53
664.822	7512.46
665.014	7790.99
665.205	7664.01
665.397	7348.62
665.588	7403.92
665.78	7479.69
665.971	7451.02
666.163	7600.52
666.354	7422.35
666.546	7307.66
666.737	7213.46
666.929	7340.43
667.12	7399.82
667.311	7131.54
667.503	7063.96
667.694	7205.27
667.885	7070.1
668.077	7010.71
668.268	6877.59
668.459	7012.76
668.651	6979.99
668.842	6877.59
669.033	6865.3
669.224	6836.63
669.416	6908.31
669.607	6871.45
669.798	6773.14
669.989	6799.77
670.18	6756.76
670.371	6812.06
670.563	6640.03
670.754	6844.82
670.945	6457.76
671.136	6672.79
671.327	6625.69
671.518	6390.17
671.709	6394.27
671.9	6468
672.091	6465.95
672.282	6582.68
672.473	6265.25
672.664	6404.51
672.855	6435.23
673.046	6379.93
673.237	6463.9
673.428	6214.05
673.619	6226.34
673.809	6173.09
674	6130.08
674.191	6050.21
674.382	6056.36
674.573	6209.95
674.764	6099.36
674.954	6160.8
675.145	6113.7
675.336	5978.53
675.527	5853.61
675.717	6005.16
675.908	5943.72
676.099	6068.64
676.289	5923.24
676.48	5837.22
676.671	5726.63
676.861	5898.66
677.052	5689.77
677.243	5790.12
677.433	5667.24
677.624	5732.78
677.814	5740.97
678.005	5765.54
678.195	5396.91
678.386	5611.95
678.576	5548.46
678.767	5700.01
678.957	5607.85
679.148	5736.87
679.338	5503.4
679.529	5603.75
679.719	5593.51
679.909	5603.75
680.1	5349.81
680.29	5431.73
680.481	5429.68
680.671	5464.49
680.861	5472.68
681.052	5398.96
681.242	5339.57
681.432	5347.76
681.622	5314.99
681.813	5284.27
682.003	5323.18
682.193	5138.87
682.383	5300.66
682.573	5190.06
682.764	5210.54
682.954	5360.05
683.144	5188.02
683.334	5276.08
683.524	5153.2
683.714	5145.01
683.904	5185.97
684.094	4977.08
684.284	5091.76
684.474	5202.35
684.664	4907.45
684.854	5024.18
685.044	5075.38
685.234	5046.71
685.424	4891.06
685.614	4938.16
685.804	5050.8
685.994	4846.01
686.184	4977.08
686.374	4899.25
686.564	4725.18
686.753	4903.35
686.943	4680.12
687.133	4809.14
687.323	4759.99
687.513	4837.81
687.702	4708.79
687.892	4856.25
688.082	4755.9
688.272	4809.14
688.461	4712.89
688.651	4635.07
688.841	4753.85
689.03	4706.74
689.22	4526.52
689.41	4469.18
689.599	4571.58
689.789	4682.17
689.979	4460.99
690.168	4592.06
690.358	4460.99
690.547	4319.68
690.737	4497.85
690.926	4477.37
691.116	4276.67
691.305	4600.25
691.495	4372.93
691.684	4346.3
691.874	4456.89
692.063	4348.35
692.252	4288.96
692.442	4334.01
692.631	4198.85
692.82	4323.77
693.01	4178.37
693.199	4229.57
693.388	4252.1
693.578	4147.65
693.767	4137.41
693.956	4166.08
694.146	4172.22
694.335	3975.62
694.524	4116.93
694.713	4092.35
694.902	4125.12
695.092	3967.43
695.281	4020.67
695.47	4090.31
695.659	3920.32
695.848	4078.02
696.037	3942.85
696.226	3889.6
696.415	3977.67
696.604	4104.64
696.793	3953.09
696.982	4114.88
697.171	3901.89
697.36	3936.71
697.549	3963.33
697.738	3924.42
697.927	3795.4
698.116	3934.66
698.305	3871.17
698.494	3965.38
698.683	3916.23
698.872	3940.8
699.061	3842.5
699.25	3834.31
699.438	3822.02
699.627	3860.93
699.816	3838.41
700.005	3645.9
700.193	3971.52
700.382	3684.81
700.571	3817.93
700.76	3901.89
700.948	3871.17
701.137	3869.12
701.326	3805.64
701.514	3766.73
701.703	3639.75
701.892	3789.25
702.08	3830.21
702.269	3805.64
702.457	3729.86
702.646	3678.66
702.834	3637.7
703.023	3811.78
703.212	3805.64
703.4	3647.94
703.589	3602.89
703.777	3693
703.965	3545.55
704.154	3668.42
704.342	3750.34
704.531	3660.23
704.719	3561.93
704.907	3758.53
705.096	3660.23
705.284	3568.07
705.472	3578.31
705.661	3623.37
705.849	3709.38
706.037	3553.74
706.226	3555.79
706.414	3690.95
706.602	3504.59
706.79	3566.03
706.979	3545.55
707.167	3492.3
707.355	3514.83
707.543	3506.63
707.731	3633.61
707.919	3588.55
708.107	3432.91
708.296	3520.97
708.484	3326.41
708.672	3533.26
708.86	3592.65
709.048	3361.23
709.236	3439.05
709.424	3473.87
709.612	3570.12
709.8	3426.76
709.988	3342.8
710.176	3334.61
710.364	3443.15
710.551	3332.56
710.739	3357.13
710.927	3338.7
711.115	3457.48
711.303	3535.31
711.491	3334.61
711.679	3416.52
711.866	3432.91
712.054	3383.76
712.242	3264.97
712.43	3459.53
712.617	3408.33
712.805	3400.14
712.993	3207.63
713.181	3293.65
713.368	3260.88
713.556	3330.51
713.744	3244.49
713.931	3398.09
714.119	3312.08
714.306	3234.25
714.494	3162.58
714.682	3181.01
714.869	3213.77
715.057	3232.21
715.244	3088.85
715.432	3281.36
715.619	3189.2
715.807	3432.91
715.994	3113.42
716.182	3234.25
716.369	3164.62
716.556	3244.49
716.744	3195.34
716.931	3056.08
717.119	3164.62
717.306	3224.01
717.493	3154.38
717.681	3078.61
717.868	3129.81
718.055	3162.58
718.242	3138
718.43	3226.06
718.617	3187.15
718.804	3185.1
718.991	3047.89
719.179	3068.37
719.366	3103.18
719.553	3199.44
719.74	3013.07
719.927	3156.43
720.114	3076.56
720.301	3088.85
720.488	3031.51
720.676	2957.78
720.863	3064.27
721.05	3178.96
721.237	2918.87
721.424	3166.67
721.611	3129.81
721.798	2916.82
721.985	2970.07
722.172	2902.48
722.358	2963.92
722.545	3051.99
722.732	2910.68
722.919	2906.58
723.106	3000.79
723.293	2965.97
723.48	2986.45
723.667	3006.93
723.853	2955.73
724.04	2904.53
724.227	2937.3
724.414	2861.52
724.6	2970.07
724.787	2937.3
724.974	2945.49
725.161	2836.95
725.347	2877.91
725.534	2908.63
725.72	2902.48
725.907	2912.72
726.094	3019.22
726.28	2945.49
726.467	2814.42
726.653	2720.21
726.84	2920.92
727.027	2965.97
727.213	2759.13
727.4	2875.86
727.586	2816.47
727.773	2879.96
727.959	2836.95
728.145	2793.94
728.332	2795.99
728.518	2894.29
728.705	2816.47
728.891	2789.85
729.077	2892.24
729.264	2763.22
729.45	2826.71
729.636	2834.9
729.823	2683.35
730.009	2845.14
730.195	2752.98
730.382	2853.33
730.568	2701.78
730.754	2664.92
730.94	2632.15
731.126	2810.33
731.313	2798.04
731.499	2761.17
731.685	2712.02
731.871	2818.52
732.057	2718.17
732.243	2761.17
732.429	2738.65
732.615	2802.13
732.801	2777.56
732.987	2712.02
733.173	2726.36
733.359	2773.46
733.545	2755.03
733.731	2642.39
733.917	2648.54
734.103	2707.93
734.289	2654.68
734.475	2656.73
734.661	2808.28
734.847	2761.17
735.033	2580.95
735.219	2824.66
735.404	2601.43
735.59	2681.3
735.776	2701.78
735.962	2669.02
736.148	2703.83
736.333	2574.81
736.519	2757.08
736.705	2759.13
736.89	2580.95
737.076	2681.3
737.262	2576.86
737.447	2570.71
737.633	2509.27
737.819	2460.12
738.004	2499.03
738.19	2499.03
738.375	2488.79
738.561	2531.8
738.747	2519.51
738.932	2431.45
739.118	2458.07
739.303	2564.57
739.489	2652.63
739.674	2453.98
739.859	2451.93
740.045	2501.08
740.23	2384.35
740.416	2447.83
740.601	2556.38
740.786	2396.64
740.972	2445.79
741.157	2439.64
741.342	2398.68
741.528	2539.99
741.713	2431.45
741.898	2388.44
742.084	2394.59
742.269	2394.59
742.454	2408.92
742.639	2359.77
742.824	2329.05
743.01	2378.2
743.195	2359.77
743.38	2347.48
743.565	2333.15
743.75	2396.64
743.935	2136.54
744.12	2388.44
744.305	2322.91
744.49	2200.03
744.675	2286.05
744.86	2218.46
745.045	2273.76
745.23	2126.3
745.415	2245.09
745.6	2222.56
745.785	2128.35
745.97	2312.67
746.155	2169.31
746.34	2275.81
746.525	2101.73
746.71	2134.5
746.895	2109.92
747.079	2099.68
747.264	2062.82
747.449	1954.27
747.634	2025.95
747.819	2019.81
748.003	1905.12
748.188	1974.75
748.373	2107.87
748.557	1950.18
748.742	1915.36
748.927	2019.81
749.111	2046.43
749.296	1915.36
749.481	1911.27
749.665	1929.7
749.85	1968.61
750.034	1878.5
750.219	1833.44
750.404	1933.79
750.588	1823.2
750.773	1896.93
750.957	1847.78
751.141	1765.86
751.326	1870.31
751.51	1784.29
751.695	1772
751.879	1927.65
752.064	1722.85
752.248	1782.24
752.432	1796.58
752.617	1733.09
752.801	1647.08
752.985	1675.75
753.17	1700.33
753.354	1655.27
753.538	1661.41
753.722	1718.76
753.907	1622.5
754.091	1665.51
754.275	1655.27
754.459	1694.18
754.643	1663.46
754.828	1604.07
755.012	1606.12
755.196	1659.37
755.38	1602.02
755.564	1561.06
755.748	1548.78
755.932	1534.44
756.116	1561.06
756.3	1554.92
756.484	1499.63
756.668	1477.1
756.852	1501.67
757.036	1454.57
757.22	1372.65
757.404	1436.14
757.588	1475.05
757.772	1432.04
757.956	1499.63
758.14	1491.43
758.323	1393.13
758.507	1438.19
758.691	1264.11
758.875	1323.5
759.059	1403.37
759.242	1319.4
759.426	1405.42
759.61	1315.31
759.794	1366.51
759.977	1356.27
760.161	1389.03
760.345	1296.88
760.528	1364.46
760.712	1315.31
760.895	1245.68
761.079	1319.4
761.263	1227.25
761.446	1274.35
761.63	1427.95
761.813	1237.49
761.997	1284.59
762.18	1233.39
762.364	1221.1
762.547	1155.57
762.731	1169.9
762.914	1229.29
763.098	1116.65
763.281	1300.97
763.464	1204.72
763.648	1176.05
763.831	1249.77
764.015	1184.24
764.198	1174
764.381	1149.42
764.564	1225.2
764.748	1217.01
764.931	1251.82
765.114	1184.24
765.297	1159.66
765.481	1149.42
765.664	1122.8
765.847	1096.18
766.03	1202.67
766.213	1114.61
766.397	1171.95
766.58	1161.71
766.763	1100.27
766.946	1096.18
767.129	1126.89
767.312	1133.04
767.495	1034.74
767.678	1057.26
767.861	1067.5
768.044	1130.99
768.227	1081.84
768.41	1114.61
768.593	1008.11
768.776	1118.7
768.959	1147.37
769.142	1028.59
769.324	1036.78
769.507	975.35
769.69	1069.55
769.873	1075.7
770.056	1116.65
770.239	1114.61
770.421	1044.98
770.604	1124.85
770.787	989.68
770.97	1028.59
771.152	967.15
771.335	969.2
771.518	1083.89
771.7	961.01
771.883	991.73
772.066	1038.83
772.248	1051.12
772.431	1004.02
772.613	1010.16
772.796	848.37
772.978	987.63
773.161	942.58
773.343	870.9
773.526	856.56
773.708	803.32
773.891	977.39
774.073	901.62
774.256	954.87
774.438	930.29
774.621	897.52
774.803	934.39
774.985	936.43
775.168	887.28
775.35	862.71
775.532	844.28
775.715	864.75
775.897	842.23
776.079	842.23
776.261	831.99
776.444	915.95
776.626	788.98
776.808	901.62
776.99	811.51
777.173	705.01
777.355	850.42
777.537	850.42
777.719	788.98
777.901	788.98
778.083	662.01
778.265	813.56
778.447	793.08
778.629	748.02
778.811	801.27
778.993	821.75
779.175	758.26
779.357	762.36
779.539	713.21
779.721	668.15
779.903	713.21
780.085	733.68
780.267	606.71
780.449	709.11
780.631	870.9
780.812	731.64
780.994	700.92
781.176	651.77
781.358	756.21
781.54	619
781.721	641.53
781.903	586.23
782.085	668.15
782.267	688.63
782.448	664.05
782.63	694.77
782.812	610.81
782.993	692.73
783.175	655.86
783.357	614.9
783.538	619
783.72	616.95
783.901	592.37
784.083	612.85
784.264	608.76
784.446	561.66
784.627	578.04
784.809	559.61
784.99	545.27
785.172	610.81
785.353	582.14
785.535	535.03
785.716	506.36
785.897	500.22
786.079	530.94
786.26	414.2
786.441	518.65
786.623	475.64
786.804	545.27
786.985	543.22
787.167	473.59
787.348	575.99
787.529	485.88
787.71	504.31
787.891	573.94
788.073	532.98
788.254	506.36
788.435	438.78
788.616	471.54
788.797	541.18
788.978	483.83
789.159	393.72
789.34	526.84
789.522	508.41
789.703	539.13
789.884	526.84
790.065	442.87
790.246	494.07
790.427	420.35
790.607	461.3
790.788	483.83
790.969	424.44
791.15	449.02
791.331	399.87
791.512	461.3
791.693	438.78
791.874	469.5
792.054	526.84
792.235	463.35
792.416	377.34
792.597	416.25
792.778	399.87
792.958	461.3
793.139	330.23
793.32	428.54
793.5	381.43
793.681	381.43
793.862	424.44
794.042	369.15
794.223	293.37
794.404	449.02
794.584	406.01
794.765	383.48
794.945	291.32
795.126	457.21
795.306	457.21
795.487	387.58
795.667	360.95
795.848	358.91
796.028	324.09
796.209	381.43
796.389	299.52
796.57	414.2
796.75	340.47
796.93	436.73
797.111	395.77
797.291	367.1
797.471	350.71
797.652	363
797.832	358.91
798.012	328.19
798.192	289.28
798.373	274.94
798.553	369.15
798.733	289.28
798.913	326.14
799.093	313.85
799.274	326.14
799.454	397.82
799.634	354.81
799.814	324.09
799.994	330.23
800.174	315.9
800.354	348.67
800.534	360.95
800.714	354.81
800.894	365.05
801.074	309.76
801.254	270.84
801.434	334.33
801.614	336.38
801.794	287.23
801.974	664.05
802.154	344.57
802.334	326.14
802.514	266.75
802.693	262.65
802.873	266.75
803.053	293.37
803.233	213.5
803.413	332.28
803.592	285.18
803.772	285.18
803.952	238.08
804.131	307.71
804.311	381.43
804.491	221.69
804.67	264.7
804.85	268.8
805.03	293.37
805.209	223.74
805.389	231.93
805.568	285.18
805.748	217.6
805.928	336.38
806.107	254.46
806.287	258.56
806.466	279.04
806.646	301.56
806.825	274.94
807.004	162.3
807.184	266.75
807.363	303.61
807.543	225.79
807.722	221.69
807.901	207.36
808.081	272.89
808.26	182.78
808.439	268.8
808.619	264.7
808.798	262.65
808.977	272.89
809.156	291.32
809.336	174.59
809.515	260.6
809.694	207.36
809.873	252.41
810.052	238.08
810.231	315.9
810.411	203.26
810.59	262.65
810.769	178.69
810.948	199.16
811.127	190.97
811.306	170.49
811.485	199.16
811.664	190.97
811.843	217.6
812.022	166.4
812.201	176.64
812.38	215.55
812.559	217.6
812.737	180.73
812.916	197.12
813.095	236.03
813.274	233.98
813.453	244.22
813.632	227.84
813.811	221.69
813.989	184.83
814.168	141.82
814.347	195.07
814.526	215.55
814.704	176.64
814.883	143.87
815.062	207.36
815.24	231.93
815.419	266.75
815.598	195.07
815.776	199.16
815.955	184.83
816.133	186.88
816.312	143.87
816.49	201.21
816.669	197.12
816.847	186.88
817.026	258.56
817.204	98.81
817.383	166.4
817.561	107.01
817.74	170.49
817.918	154.11
818.097	172.54
818.275	147.97
818.453	197.12
818.632	217.6
818.81	174.59
818.988	152.06
819.167	229.88
819.345	121.34
819.523	176.64
819.701	176.64
819.879	190.97
820.058	197.12
820.236	164.35
820.414	172.54
820.592	156.16
820.77	160.25
820.948	168.45
821.127	168.45
821.305	195.07
821.483	160.25
821.661	205.31
821.839	197.12
822.017	174.59
822.195	168.45
822.373	139.77
822.551	168.45
822.729	217.6
822.907	152.06
823.085	127.49
823.262	174.59
823.44	104.96
823.618	129.53
823.796	166.4
823.974	154.11
824.152	121.34
824.329	164.35
824.507	88.57
824.685	143.87
824.863	96.77
825.04	186.88
825.218	125.44
825.396	119.29
825.574	154.11
825.751	152.06
825.929	143.87
826.107	133.63
826.284	129.53
826.462	168.45
826.639	43.52
826.817	135.68
826.994	162.3
827.172	100.86
827.349	168.45
827.527	129.53
827.704	168.45
827.882	104.96
828.059	111.1
828.237	123.39
828.414	152.06
828.591	147.97
828.769	115.2
828.946	141.82
829.124	113.15
829.301	147.97
829.478	188.93
829.655	92.67
829.833	190.97
830.01	111.1
830.187	137.73
830.364	139.77
830.542	131.58
830.719	156.16
830.896	166.4
831.073	29.18
831.25	184.83
831.427	176.64
831.604	119.29
831.782	100.86
831.959	94.72
832.136	117.25
832.313	68.09
832.49	86.53
832.667	113.15
832.844	139.77
833.021	68.09
833.198	166.4
833.374	123.39
833.551	74.24
833.728	141.82
833.905	190.97
834.082	109.05
834.259	150.01
834.436	186.88
834.612	68.09
834.789	61.95
834.966	119.29
835.143	123.39
835.319	61.95
835.496	47.62
835.673	78.33
835.85	68.09
836.026	176.64
836.203	172.54
836.38	92.67
836.556	156.16
836.733	8.7
836.909	119.29
837.086	96.77
837.262	49.66
837.439	119.29
837.616	121.34
837.792	127.49
837.968	137.73
838.145	98.81
838.321	92.67
838.498	109.05
838.674	86.53
838.851	88.57
839.027	96.77
839.203	121.34
839.38	102.91
839.556	43.52
839.732	82.43
839.909	47.62
840.085	127.49
840.261	43.52
840.437	127.49
840.614	94.72
840.79	20.99
840.966	104.96
841.142	29.18
841.318	43.52
841.494	125.44
841.671	117.25
841.847	45.57
842.023	57.86
842.199	111.1
842.375	31.23
842.551	66.05
842.727	68.09
842.903	43.52
843.079	20.99
843.255	115.2
843.431	51.71
843.607	156.16
843.783	29.18
843.959	100.86
844.134	100.86
844.31	66.05
844.486	121.34
844.662	31.23
844.838	107.01
845.013	152.06
845.189	66.05
845.365	49.66
845.541	33.28
845.716	127.49
845.892	78.33
846.068	84.48
846.244	43.52
846.419	133.63
846.595	55.81
846.77	51.71
846.946	-3.58
847.122	119.29
847.297	123.39
847.473	170.49
847.648	31.23
847.824	107.01
847.999	74.24
848.175	6.66
848.35	92.67
848.526	94.72
848.701	94.72
848.876	100.86
849.052	59.9
849.227	98.81
849.403	49.66
849.578	143.87
849.753	49.66
849.929	92.67
850.104	29.18
850.279	31.23
850.454	74.24
850.63	39.42
850.805	125.44
850.98	111.1
851.155	47.62
851.33	82.43
851.505	104.96
851.681	68.09
851.856	23.04
852.031	47.62
852.206	55.81
852.381	78.33
852.556	49.66
852.731	98.81
852.906	64
853.081	84.48
853.256	37.38
853.431	94.72
853.606	39.42
853.781	45.57
853.956	76.29
854.131	33.28
854.305	61.95
854.48	39.42
854.655	61.95
854.83	16.9
855.005	70.14
855.18	88.57
855.354	31.23
855.529	139.77
855.704	68.09
855.879	68.09
856.053	-15.87
856.228	31.23
856.403	80.38
856.577	33.28
856.752	59.9
856.926	53.76
857.101	57.86
857.276	27.14
857.45	68.09
857.625	152.06
857.799	53.76
857.974	74.24
858.148	57.86
858.323	74.24
858.497	-24.06
858.672	29.18
858.846	31.23
859.02	96.77
859.195	49.66
859.369	59.9
859.543	82.43
859.718	18.94
859.892	20.99
860.066	76.29
860.241	47.62
860.415	82.43
860.589	37.38
860.763	47.62
860.938	31.23
861.112	70.14
861.286	49.66
861.46	51.71
861.634	43.52
861.808	29.18
861.982	0.51
862.157	53.76
862.331	92.67
862.505	23.04
862.679	84.48
862.853	33.28
863.027	127.49
863.201	137.73
863.375	41.47
863.549	70.14
863.722	35.33
863.896	66.05
864.07	39.42
864.244	78.33
864.418	20.99
864.592	70.14
864.766	45.57
864.939	55.81
865.113	98.81
865.287	27.14
865.461	-42.5
865.634	45.57
865.808	35.33
865.982	59.9
866.156	92.67
866.329	-9.73
866.503	47.62
866.676	70.14
866.85	45.57
867.024	66.05
867.197	76.29
867.371	84.48
867.544	29.18
867.718	-11.78
867.891	27.14
868.065	14.85
868.238	47.62
868.412	127.49
868.585	27.14
868.759	23.04
868.932	57.86
869.105	-7.68
869.279	82.43
869.452	74.24
869.625	92.67
869.799	-15.87
869.972	78.33
870.145	-9.73
870.319	78.33
870.492	20.99
870.665	104.96
870.838	43.52
871.011	-13.82
871.185	29.18
871.358	4.61
871.531	39.42
871.704	18.94
871.877	92.67
872.05	57.86
872.223	74.24
872.396	61.95
872.569	115.2
872.742	51.71
872.915	-22.02
873.088	-56.83
873.261	84.48
873.434	74.24
873.607	33.28
873.78	49.66
873.953	16.9
874.126	16.9
874.299	29.18
874.471	-36.35
874.644	43.52
874.817	115.2
874.99	55.81
875.163	-30.21
875.335	10.75
875.508	35.33
875.681	78.33
875.853	53.76
876.026	18.94
876.199	121.34
876.371	96.77
876.544	74.24
876.717	51.71
876.889	53.76
877.062	90.62
877.234	12.8
877.407	35.33
877.579	0.51
877.752	80.38
877.924	59.9
878.097	51.71
878.269	64
878.442	88.57
878.614	37.38
878.786	37.38
878.959	57.86
879.131	10.75
879.303	14.85
879.476	57.86
879.648	33.28
879.82	43.52
879.993	51.71
880.165	68.09
880.337	53.76
880.509	49.66
880.681	70.14
880.854	53.76
881.026	66.05
881.198	61.95
881.37	64
881.542	31.23
881.714	-17.92
881.886	66.05
882.058	6.66
882.23	16.9
882.402	117.25
882.574	78.33
882.746	20.99
882.918	35.33
883.09	-24.06
883.262	-15.87
883.434	4.61
883.606	20.99
883.778	27.14
883.95	6.66
884.122	78.33
884.293	61.95
884.465	49.66
884.637	-7.68
884.809	59.9
884.98	2.56
885.152	57.86
885.324	14.85
885.496	12.8
885.667	45.57
885.839	84.48
886.011	47.62
886.182	-19.97
886.354	-5.63
886.525	84.48
886.697	55.81
886.869	0.51
887.04	41.47
887.212	61.95
887.383	64
887.555	78.33
887.726	-30.21
887.897	51.71
888.069	35.33
888.24	8.7
888.412	127.49
888.583	20.99
888.754	96.77
888.926	0.51
889.097	121.34
889.268	0.51
889.44	16.9
889.611	-40.45
889.782	12.8
889.953	27.14
890.125	49.66
890.296	35.33
890.467	39.42
890.638	37.38
890.809	100.86
890.98	-5.63
891.151	37.38
891.323	14.85
891.494	100.86
891.665	43.52
891.836	45.57
892.007	0.51
892.178	82.43
892.349	53.76
892.52	0.51
892.691	51.71
892.862	10.75
893.032	-22.02
893.203	76.29
893.374	59.9
893.545	61.95
893.716	2.56
893.887	39.42
894.057	37.38
894.228	41.47
894.399	35.33
894.57	-30.21
894.74	53.76
894.911	-60.93
895.082	4.61
895.253	27.14
895.423	23.04
895.594	8.7
895.764	92.67
895.935	4.61
896.106	2.56
896.276	74.24
896.447	20.99
896.617	59.9
896.788	88.57
896.958	35.33
897.129	-3.58
897.299	4.61
897.47	23.04
897.64	61.95
897.81	35.33
897.981	53.76
898.151	10.75
898.322	111.1
898.492	41.47
898.662	55.81
898.832	-52.74
899.003	12.8
899.173	-13.82
899.343	-13.82
899.513	61.95
