Data from USB4F104151__50__11-05-38-568.txt Node

Date: Wed Mar 12 11:05:38 EDT 2025
User: louis
Spectrometer: USB4F10415
Trigger mode: 4
Integration Time (sec): 2.000000E-2
Scans to average: 1
Electric dark correction enabled: true
Nonlinearity correction enabled: false
Boxcar width: 0
XAxis mode: Wavelengths
Number of Pixels in Spectrum: 3648
>>>>>Begin Spectral Data<<<<<
178.204	-28.33
178.424	-28.33
178.644	-28.33
178.864	-79.53
179.084	-48.81
179.304	18.77
179.524	31.06
179.744	-28.33
179.964	-9.9
180.184	-22.19
180.404	-24.23
180.624	-32.43
180.844	49.49
181.064	37.2
181.283	-30.38
181.503	2.39
181.723	8.53
181.943	-11.95
182.163	51.54
182.383	-34.47
182.602	8.53
182.822	-24.23
183.042	-93.87
183.262	18.77
183.482	61.78
183.701	2.39
183.921	10.58
184.141	16.73
184.361	-30.38
184.58	-7.85
184.8	16.73
185.02	14.68
185.239	26.96
185.459	22.87
185.679	53.59
185.898	0.34
186.118	86.36
186.338	31.06
186.557	94.55
186.777	31.06
186.997	-5.8
187.216	-54.95
187.436	33.11
187.655	72.02
187.875	72.02
188.095	24.92
188.314	10.58
188.534	78.16
188.753	63.83
188.973	86.36
189.192	88.4
189.412	12.63
189.631	57.68
189.851	47.44
190.07	12.63
190.29	-7.85
190.509	8.53
190.729	8.53
190.948	90.45
191.168	88.4
191.387	94.55
191.607	-7.85
191.826	41.3
192.045	41.3
192.265	37.2
192.484	-13.99
192.704	-34.47
192.923	-34.47
193.142	20.82
193.362	37.2
193.581	117.08
193.8	20.82
194.02	-16.04
194.239	49.49
194.458	51.54
194.678	82.26
194.897	51.54
195.116	65.88
195.335	18.77
195.555	59.73
195.774	55.64
195.993	35.16
196.212	18.77
196.432	10.58
196.651	-22.19
196.87	41.3
197.089	59.73
197.308	59.73
197.528	65.88
197.747	47.44
197.966	16.73
198.185	57.68
198.404	80.21
198.623	4.44
198.842	0.34
199.062	-3.75
199.281	72.02
199.5	0.34
199.719	72.02
199.938	20.82
200.157	20.82
200.376	0.34
200.595	55.64
200.814	0.34
201.033	10.58
201.252	80.21
201.471	26.96
201.69	55.64
201.909	0.34
202.128	6.49
202.347	20.82
202.566	39.25
202.785	8.53
203.004	49.49
203.223	102.74
203.442	49.49
203.661	102.74
203.879	45.4
204.098	78.16
204.317	-1.71
204.536	31.06
204.755	74.07
204.974	63.83
205.193	49.49
205.411	41.3
205.63	55.64
205.849	18.77
206.068	-1.71
206.287	74.07
206.505	112.98
206.724	-3.75
206.943	45.4
207.162	8.53
207.381	24.92
207.599	-3.75
207.818	-7.85
208.037	-34.47
208.255	80.21
208.474	-9.9
208.693	0.34
208.911	39.25
209.13	10.58
209.349	12.63
209.567	29.01
209.786	104.79
210.005	63.83
210.223	10.58
210.442	-36.52
210.661	6.49
210.879	86.36
211.098	8.53
211.316	-7.85
211.535	127.32
211.753	51.54
211.972	69.97
212.191	6.49
212.409	8.53
212.628	33.11
212.846	37.2
213.065	18.77
213.283	94.55
213.502	-3.75
213.72	-7.85
213.938	51.54
214.157	12.63
214.375	24.92
214.594	4.44
214.812	33.11
215.031	29.01
215.249	-24.23
215.467	86.36
215.686	6.49
215.904	37.2
216.122	-52.91
216.341	110.93
216.559	8.53
216.778	-5.8
216.996	96.6
217.214	43.35
217.432	35.16
217.651	33.11
217.869	8.53
218.087	-11.95
218.306	0.34
218.524	86.36
218.742	35.16
218.96	-20.14
219.179	4.44
219.397	-26.28
219.615	78.16
219.833	-18.09
220.051	49.49
220.27	22.87
220.488	41.3
220.706	39.25
220.924	55.64
221.142	31.06
221.36	-28.33
221.578	102.74
221.796	4.44
222.015	65.88
222.233	55.64
222.451	41.3
222.669	37.2
222.887	74.07
223.105	82.26
223.323	-28.33
223.541	86.36
223.759	31.06
223.977	26.96
224.195	41.3
224.413	-11.95
224.631	29.01
224.849	47.44
225.067	82.26
225.285	0.34
225.503	72.02
225.721	39.25
225.939	10.58
226.157	4.44
226.375	90.45
226.592	-36.52
226.81	72.02
227.028	67.92
227.246	45.4
227.464	22.87
227.682	-9.9
227.9	-1.71
228.117	80.21
228.335	-7.85
228.553	53.59
228.771	51.54
228.989	86.36
229.206	65.88
229.424	39.25
229.642	-34.47
229.86	49.49
230.077	37.2
230.295	82.26
230.513	33.11
230.731	51.54
230.948	29.01
231.166	65.88
231.384	10.58
231.601	24.92
231.819	96.6
232.037	14.68
232.254	-32.43
232.472	100.69
232.689	-22.19
232.907	86.36
233.125	49.49
233.342	22.87
233.56	24.92
233.777	-5.8
233.995	4.44
234.213	59.73
234.43	10.58
234.648	63.83
234.865	41.3
235.083	61.78
235.3	86.36
235.518	94.55
235.735	24.92
235.953	102.74
236.17	96.6
236.388	2.39
236.605	33.11
236.822	53.59
237.04	41.3
237.257	29.01
237.475	80.21
237.692	8.53
237.909	57.68
238.127	-16.04
238.344	20.82
238.562	29.01
238.779	29.01
238.996	20.82
239.214	53.59
239.431	10.58
239.648	63.83
239.865	61.78
240.083	-18.09
240.3	10.58
240.517	-22.19
240.735	-11.95
240.952	16.73
241.169	20.82
241.386	49.49
241.603	41.3
241.821	-16.04
242.038	37.2
242.255	20.82
242.472	37.2
242.689	45.4
242.907	6.49
243.124	29.01
243.341	22.87
243.558	14.68
243.775	-30.38
243.992	8.53
244.209	-1.71
244.426	39.25
244.643	59.73
244.86	33.11
245.078	76.12
245.295	14.68
245.512	-13.99
245.729	90.45
245.946	-7.85
246.163	-3.75
246.38	139.6
246.597	-11.95
246.814	53.59
247.031	61.78
247.248	12.63
247.464	26.96
247.681	12.63
247.898	88.4
248.115	39.25
248.332	45.4
248.549	82.26
248.766	31.06
248.983	57.68
249.2	90.45
249.417	20.82
249.633	53.59
249.85	26.96
250.067	51.54
250.284	69.97
250.501	96.6
250.717	51.54
250.934	39.25
251.151	55.64
251.368	108.88
251.585	31.06
251.801	-34.47
252.018	45.4
252.235	59.73
252.451	41.3
252.668	74.07
252.885	59.73
253.102	76.12
253.318	-18.09
253.535	61.78
253.752	47.44
253.968	35.16
254.185	47.44
254.401	55.64
254.618	29.01
254.835	47.44
255.051	4.44
255.268	16.73
255.484	-9.9
255.701	-13.99
255.917	57.68
256.134	76.12
256.351	33.11
256.567	12.63
256.784	82.26
257	8.53
257.217	39.25
257.433	31.06
257.65	63.83
257.866	12.63
258.082	-65.19
258.299	-22.19
258.515	65.88
258.732	86.36
258.948	-11.95
259.165	16.73
259.381	12.63
259.597	-13.99
259.814	86.36
260.03	-28.33
260.246	33.11
260.463	92.5
260.679	33.11
260.895	63.83
261.112	33.11
261.328	76.12
261.544	41.3
261.761	90.45
261.977	4.44
262.193	26.96
262.409	65.88
262.626	88.4
262.842	49.49
263.058	14.68
263.274	55.64
263.49	69.97
263.707	-7.85
263.923	63.83
264.139	72.02
264.355	65.88
264.571	35.16
264.787	-3.75
265.004	63.83
265.22	16.73
265.436	8.53
265.652	12.63
265.868	65.88
266.084	-50.86
266.3	-22.19
266.516	37.2
266.732	20.82
266.948	33.11
267.164	24.92
267.38	86.36
267.596	4.44
267.812	78.16
268.028	14.68
268.244	-9.9
268.46	51.54
268.676	104.79
268.892	69.97
269.108	-40.62
269.324	-1.71
269.54	12.63
269.756	72.02
269.972	80.21
270.188	26.96
270.403	33.11
270.619	53.59
270.835	47.44
271.051	59.73
271.267	24.92
271.483	33.11
271.698	22.87
271.914	2.39
272.13	-9.9
272.346	12.63
272.562	29.01
272.777	149.84
272.993	41.3
273.209	10.58
273.425	80.21
273.64	-3.75
273.856	82.26
274.072	51.54
274.287	-20.14
274.503	106.84
274.719	55.64
274.934	65.88
275.15	43.35
275.366	88.4
275.581	43.35
275.797	49.49
276.012	-7.85
276.228	-20.14
276.444	61.78
276.659	47.44
276.875	-9.9
277.09	45.4
277.306	18.77
277.521	31.06
277.737	31.06
277.952	43.35
278.168	88.4
278.383	94.55
278.599	43.35
278.814	84.31
279.03	69.97
279.245	98.64
279.461	82.26
279.676	65.88
279.892	100.69
280.107	49.49
280.322	67.92
280.538	-13.99
280.753	-1.71
280.969	61.78
281.184	90.45
281.399	61.78
281.615	-5.8
281.83	39.25
282.045	-5.8
282.26	76.12
282.476	2.39
282.691	51.54
282.906	4.44
283.122	10.58
283.337	-18.09
283.552	102.74
283.767	26.96
283.983	18.77
284.198	-13.99
284.413	18.77
284.628	-28.33
284.843	137.56
285.058	155.99
285.274	33.11
285.489	0.34
285.704	8.53
285.919	-32.43
286.134	37.2
286.349	-5.8
286.564	61.78
286.779	82.26
286.995	53.59
287.21	43.35
287.425	20.82
287.64	63.83
287.855	80.21
288.07	-28.33
288.285	18.77
288.5	72.02
288.715	110.93
288.93	33.11
289.145	10.58
289.36	26.96
289.575	39.25
289.79	39.25
290.004	53.59
290.219	88.4
290.434	45.4
290.649	-11.95
290.864	8.53
291.079	88.4
291.294	57.68
291.509	-13.99
291.724	74.07
291.938	53.59
292.153	-7.85
292.368	22.87
292.583	49.49
292.798	104.79
293.012	39.25
293.227	6.49
293.442	-13.99
293.657	39.25
293.871	24.92
294.086	63.83
294.301	108.88
294.516	12.63
294.73	86.36
294.945	45.4
295.16	12.63
295.374	67.92
295.589	35.16
295.804	72.02
296.018	16.73
296.233	61.78
296.447	16.73
296.662	43.35
296.877	26.96
297.091	47.44
297.306	-9.9
297.52	67.92
297.735	127.32
297.949	4.44
298.164	110.93
298.378	33.11
298.593	74.07
298.807	14.68
299.022	45.4
299.236	37.2
299.451	-9.9
299.665	94.55
299.88	39.25
300.094	69.97
300.309	16.73
300.523	-24.23
300.737	4.44
300.952	16.73
301.166	92.5
301.381	18.77
301.595	80.21
301.809	47.44
302.024	57.68
302.238	41.3
302.452	86.36
302.667	29.01
302.881	90.45
303.095	53.59
303.309	78.16
303.524	102.74
303.738	2.39
303.952	45.4
304.166	-16.04
304.381	-5.8
304.595	59.73
304.809	61.78
305.023	31.06
305.237	86.36
305.452	82.26
305.666	45.4
305.88	22.87
306.094	72.02
306.308	74.07
306.522	92.5
306.736	98.64
306.95	20.82
307.164	129.36
307.379	82.26
307.593	78.16
307.807	57.68
308.021	33.11
308.235	55.64
308.449	53.59
308.663	-24.23
308.877	55.64
309.091	8.53
309.305	49.49
309.519	-77.48
309.733	6.49
309.947	-3.75
310.161	51.54
310.374	76.12
310.588	26.96
310.802	37.2
311.016	41.3
311.23	31.06
311.444	59.73
311.658	16.73
311.872	61.78
312.085	33.11
312.299	-7.85
312.513	100.69
312.727	78.16
312.941	20.82
313.154	24.92
313.368	-3.75
313.582	47.44
313.796	41.3
314.009	14.68
314.223	82.26
314.437	22.87
314.651	35.16
314.864	-1.71
315.078	74.07
315.292	100.69
315.505	96.6
315.719	-16.04
315.933	-32.43
316.146	55.64
316.36	-13.99
316.573	51.54
316.787	33.11
317.001	14.68
317.214	18.77
317.428	84.31
317.641	4.44
317.855	35.16
318.068	10.58
318.282	22.87
318.495	51.54
318.709	33.11
318.922	74.07
319.136	43.35
319.349	51.54
319.563	35.16
319.776	-20.14
319.99	14.68
320.203	-48.81
320.417	51.54
320.63	8.53
320.843	63.83
321.057	4.44
321.27	20.82
321.483	108.88
321.697	147.8
321.91	10.58
322.124	47.44
322.337	59.73
322.55	12.63
322.763	41.3
322.977	10.58
323.19	-20.14
323.403	49.49
323.617	29.01
323.83	53.59
324.043	29.01
324.256	63.83
324.469	-5.8
324.683	43.35
324.896	63.83
325.109	86.36
325.322	20.82
325.535	18.77
325.748	59.73
325.962	-52.91
326.175	41.3
326.388	65.88
326.601	57.68
326.814	67.92
327.027	69.97
327.24	41.3
327.453	6.49
327.666	37.2
327.879	72.02
328.092	82.26
328.305	33.11
328.518	63.83
328.731	39.25
328.944	55.64
329.157	14.68
329.37	63.83
329.583	37.2
329.796	63.83
330.009	6.49
330.222	-16.04
330.435	8.53
330.648	51.54
330.861	33.11
331.073	61.78
331.286	35.16
331.499	78.16
331.712	29.01
331.925	20.82
332.138	12.63
332.35	139.6
332.563	6.49
332.776	35.16
332.989	24.92
333.202	-40.62
333.414	63.83
333.627	43.35
333.84	-1.71
334.053	39.25
334.265	18.77
334.478	96.6
334.691	106.84
334.903	35.16
335.116	53.59
335.329	29.01
335.541	92.5
335.754	131.41
335.966	53.59
336.179	53.59
336.392	-3.75
336.604	41.3
336.817	24.92
337.029	57.68
337.242	14.68
337.454	61.78
337.667	59.73
337.88	76.12
338.092	112.98
338.305	43.35
338.517	-22.19
338.729	37.2
338.942	76.12
339.154	-18.09
339.367	26.96
339.579	72.02
339.792	49.49
340.004	31.06
340.217	2.39
340.429	24.92
340.641	69.97
340.854	-34.47
341.066	-3.75
341.278	78.16
341.491	49.49
341.703	80.21
341.915	63.83
342.128	53.59
342.34	59.73
342.552	35.16
342.764	90.45
342.977	49.49
343.189	53.59
343.401	47.44
343.613	72.02
343.826	80.21
344.038	67.92
344.25	63.83
344.462	22.87
344.674	51.54
344.886	41.3
345.099	72.02
345.311	63.83
345.523	63.83
345.735	51.54
345.947	41.3
346.159	55.64
346.371	41.3
346.583	20.82
346.795	133.46
347.007	-26.28
347.219	24.92
347.431	-5.8
347.643	82.26
347.855	-20.14
348.067	94.55
348.279	98.64
348.491	16.73
348.703	24.92
348.915	53.59
349.127	39.25
349.339	12.63
349.551	-48.81
349.763	92.5
349.975	-32.43
350.187	-3.75
350.399	49.49
350.61	-5.8
350.822	45.4
351.034	12.63
351.246	14.68
351.458	106.84
351.669	-3.75
351.881	127.32
352.093	112.98
352.305	61.78
352.517	102.74
352.728	94.55
352.94	39.25
353.152	22.87
353.363	4.44
353.575	72.02
353.787	80.21
353.999	90.45
354.21	69.97
354.422	102.74
354.633	82.26
354.845	24.92
355.057	65.88
355.268	22.87
355.48	67.92
355.692	45.4
355.903	82.26
356.115	12.63
356.326	14.68
356.538	158.03
356.749	22.87
356.961	49.49
357.172	16.73
357.384	-20.14
357.595	92.5
357.807	88.4
358.018	20.82
358.23	78.16
358.441	67.92
358.653	69.97
358.864	33.11
359.075	61.78
359.287	61.78
359.498	145.75
359.709	31.06
359.921	72.02
360.132	74.07
360.344	67.92
360.555	29.01
360.766	65.88
360.977	12.63
361.189	110.93
361.4	-42.67
361.611	12.63
361.823	29.01
362.034	33.11
362.245	72.02
362.456	37.2
362.667	104.79
362.879	-36.52
363.09	49.49
363.301	45.4
363.512	96.6
363.723	78.16
363.935	4.44
364.146	86.36
364.357	18.77
364.568	78.16
364.779	14.68
364.99	57.68
365.201	16.73
365.412	137.56
365.623	29.01
365.834	59.73
366.045	57.68
366.256	16.73
366.467	47.44
366.678	61.78
366.889	45.4
367.1	8.53
367.311	35.16
367.522	112.98
367.733	63.83
367.944	33.11
368.155	29.01
368.366	88.4
368.577	88.4
368.788	63.83
368.999	0.34
369.209	55.64
369.42	47.44
369.631	135.51
369.842	74.07
370.053	-1.71
370.264	24.92
370.474	-44.71
370.685	53.59
370.896	35.16
371.107	141.65
371.317	33.11
371.528	98.64
371.739	51.54
371.95	51.54
372.16	14.68
372.371	84.31
372.582	80.21
372.792	51.54
373.003	121.17
373.214	59.73
373.424	37.2
373.635	-32.43
373.846	82.26
374.056	78.16
374.267	6.49
374.477	78.16
374.688	92.5
374.898	59.73
375.109	45.4
375.319	69.97
375.53	65.88
375.74	33.11
375.951	29.01
376.161	10.58
376.372	53.59
376.582	16.73
376.793	110.93
377.003	-1.71
377.214	8.53
377.424	39.25
377.635	102.74
377.845	94.55
378.055	16.73
378.266	47.44
378.476	80.21
378.686	2.39
378.897	78.16
379.107	49.49
379.317	20.82
379.528	69.97
379.738	106.84
379.948	-69.29
380.158	39.25
380.369	33.11
380.579	33.11
380.789	33.11
380.999	-36.52
381.21	37.2
381.42	115.03
381.63	14.68
381.84	8.53
382.05	-9.9
382.261	72.02
382.471	76.12
382.681	102.74
382.891	78.16
383.101	16.73
383.311	26.96
383.521	61.78
383.731	51.54
383.941	47.44
384.151	74.07
384.361	45.4
384.571	8.53
384.781	-7.85
384.991	16.73
385.201	72.02
385.411	67.92
385.621	41.3
385.831	61.78
386.041	104.79
386.251	37.2
386.461	98.64
386.671	-42.67
386.881	37.2
387.091	-5.8
387.301	74.07
387.511	72.02
387.72	90.45
387.93	16.73
388.14	67.92
388.35	45.4
388.56	20.82
388.769	96.6
388.979	129.36
389.189	43.35
389.399	55.64
389.609	67.92
389.818	78.16
390.028	-3.75
390.238	18.77
390.447	0.34
390.657	37.2
390.867	33.11
391.076	24.92
391.286	24.92
391.496	14.68
391.705	31.06
391.915	110.93
392.125	162.13
392.334	20.82
392.544	86.36
392.753	72.02
392.963	-7.85
393.172	57.68
393.382	41.3
393.591	143.7
393.801	57.68
394.01	57.68
394.22	57.68
394.429	86.36
394.639	59.73
394.848	112.98
395.058	106.84
395.267	90.45
395.477	110.93
395.686	141.65
395.895	94.55
396.105	115.03
396.314	49.49
396.524	115.03
396.733	100.69
396.942	92.5
397.152	123.22
397.361	131.41
397.57	100.69
397.78	88.4
397.989	96.6
398.198	123.22
398.407	137.56
398.617	86.36
398.826	51.54
399.035	74.07
399.244	26.96
399.453	151.89
399.663	37.2
399.872	80.21
400.081	78.16
400.29	121.17
400.499	135.51
400.708	162.13
400.917	112.98
401.127	22.87
401.336	141.65
401.545	104.79
401.754	145.75
401.963	92.5
402.172	88.4
402.381	45.4
402.59	96.6
402.799	94.55
403.008	123.22
403.217	106.84
403.426	123.22
403.635	115.03
403.844	86.36
404.053	133.46
404.262	96.6
404.471	108.88
404.68	158.03
404.888	160.08
405.097	61.78
405.306	147.8
405.515	147.8
405.724	141.65
405.933	192.85
406.142	168.27
406.35	149.84
406.559	160.08
406.768	196.95
406.977	186.71
407.185	143.7
407.394	186.71
407.603	110.93
407.812	180.56
408.02	213.33
408.229	184.66
408.438	184.66
408.646	201.04
408.855	237.91
409.064	194.9
409.272	178.51
409.481	164.18
409.69	176.47
409.898	160.08
410.107	272.72
410.315	215.38
410.524	266.58
410.733	217.43
410.941	268.63
411.15	313.68
411.358	389.46
411.567	307.54
411.775	256.34
411.984	321.87
412.192	317.78
412.401	381.26
412.609	385.36
412.818	377.17
413.026	336.21
413.234	430.41
413.443	430.41
413.651	493.9
413.86	493.9
414.068	493.9
414.276	457.04
414.485	508.24
414.693	514.38
414.901	602.44
415.11	543.05
415.318	590.16
415.526	602.44
415.734	584.01
415.943	667.98
416.151	721.23
416.359	686.41
416.567	678.22
416.776	680.27
416.984	821.58
417.192	776.52
417.4	801.1
417.608	772.43
417.817	848.2
418.025	983.37
418.233	950.6
418.441	874.82
418.649	987.46
418.857	999.75
419.065	1014.09
419.273	1018.18
419.481	1020.23
419.689	1085.76
419.897	1233.22
420.105	1249.6
420.313	1253.7
420.521	1259.84
420.729	1282.37
420.937	1349.95
421.145	1333.57
421.353	1456.45
421.561	1603.9
421.769	1524.03
421.977	1657.15
422.185	1450.3
422.393	1751.35
422.601	1751.35
422.809	1798.46
423.017	1818.94
423.224	1878.33
423.432	1950.01
423.64	2001.21
423.848	2167.09
424.056	2154.8
424.263	2228.53
424.471	2160.95
424.679	2292.02
424.887	2623.79
425.094	2533.68
425.302	2552.11
425.51	2505.01
425.718	2779.43
425.925	2746.67
426.133	2804.01
426.341	2885.93
426.548	3103.01
426.756	3053.86
426.964	3100.97
427.171	3277.09
427.379	3352.87
427.586	3440.93
427.794	3545.38
428.001	3746.08
428.209	3875.1
428.417	3924.25
428.624	4073.75
428.832	4045.08
429.039	3981.59
429.247	4118.81
429.454	4483.34
429.662	4745.48
429.869	4456.72
430.076	4806.92
430.284	4679.95
430.491	4747.53
430.699	5042.44
430.906	5155.08
431.114	5259.53
431.321	5247.24
431.528	5423.36
431.736	5699.84
431.943	5947.64
432.15	5828.86
432.358	5906.68
432.565	6332.66
432.772	6234.36
432.979	6590.7
433.187	6457.59
433.394	6691.06
433.601	7162.09
433.808	7155.94
434.016	7291.11
434.223	7508.19
434.43	7803.1
434.637	7715.04
434.844	8159.45
435.052	8409.3
435.259	8358.1
435.466	8237.27
435.673	8356.05
435.88	8925.39
436.087	9224.39
436.294	9427.14
436.501	9081.03
436.708	9222.34
436.915	9625.79
437.122	9904.32
437.329	10045.63
437.537	10100.92
437.743	10596.53
437.95	10252.47
438.157	10817.71
438.364	11219.11
438.571	11296.94
438.778	11329.7
438.985	12581.01
439.192	11944.1
439.399	12052.64
439.606	12062.88
439.813	12667.03
440.02	13547.65
440.227	13140.11
440.433	13076.62
440.64	13725.83
440.847	13365.39
441.054	13777.03
441.261	14682.23
441.467	14356.6
441.674	14702.71
441.881	15331.44
442.088	15204.46
442.294	15147.12
442.501	15487.08
442.708	16132.19
442.914	16470.11
443.121	17113.17
443.328	16537.69
443.534	17883.2
443.741	17406.03
443.948	17016.91
444.154	18526.27
444.361	18219.07
444.568	18657.34
444.774	18610.23
444.981	18583.61
445.187	19173.42
445.394	20064.29
445.6	19832.87
445.807	21575.69
446.013	20645.91
446.22	20971.54
446.426	21909.51
446.633	22198.27
446.839	22851.58
447.046	21719.05
447.252	23232.5
447.459	23234.55
447.665	23171.06
447.871	23832.55
448.078	24891.35
448.284	23351.28
448.491	24678.36
448.697	25466.83
448.903	25935.82
449.11	25731.02
449.316	25558.99
449.522	25966.54
449.728	26613.7
449.935	26558.4
450.141	26662.85
450.347	27504.56
450.553	26492.87
450.76	26609.6
450.966	27469.75
451.172	27230.13
451.378	27867.05
451.584	27418.55
451.791	27912.11
451.997	27654.06
452.203	28186.54
452.409	28301.22
452.615	28088.23
452.821	27273.14
453.027	26687.42
453.233	28229.54
453.44	27094.97
453.646	27099.06
453.852	27377.59
454.058	27529.14
454.264	27064.25
454.47	27176.89
454.676	26695.61
454.882	27660.21
455.088	24823.77
455.294	25303
455.5	25638.86
455.705	25921.48
455.911	24862.68
456.117	24369.12
456.323	24317.92
456.529	22761.47
456.735	23904.23
456.941	23175.16
457.147	22763.51
457.352	21925.89
457.558	21788.68
457.764	21729.29
457.97	21356.56
458.176	20815.9
458.381	20912.15
458.587	19818.53
458.793	19922.98
458.999	18708.54
459.204	20086.82
459.41	19443.76
459.616	18036.8
459.821	18307.13
460.027	18047.04
460.233	17891.4
460.438	16717.91
460.644	17082.45
460.85	16308.32
461.055	15982.69
461.261	15945.83
461.466	14792.82
461.672	14684.28
461.878	15464.55
462.083	14313.59
462.289	14340.22
462.494	14059.65
462.7	13260.94
462.905	12974.22
463.111	13576.33
463.316	13578.37
463.522	13115.53
463.727	13293.71
463.932	13097.1
464.138	13224.08
464.343	13351.05
464.549	12763.28
464.754	13179.02
464.959	13158.54
465.165	13017.23
465.37	12316.83
465.575	12089.5
465.781	12642.45
465.986	12722.32
466.191	12392.6
466.397	11853.98
466.602	11491.49
466.807	11696.29
467.012	11870.37
467.218	11755.68
467.423	11538.6
467.628	11935.9
467.833	12322.97
468.038	11692.19
468.244	11477.16
468.449	11925.66
468.654	11462.82
468.859	11186.35
469.064	11350.18
469.269	11024.56
469.474	10959.02
469.679	11086
469.885	10877.1
470.09	11094.19
470.295	10909.87
470.5	10664.11
470.705	10870.96
470.91	10428.6
471.115	10414.26
471.32	10721.46
471.525	10416.31
471.73	10139.83
471.935	10205.37
472.139	9779.39
472.344	9971.9
472.549	9730.24
472.754	9715.91
472.959	9615.55
473.164	9468.1
473.369	9220.3
473.574	9521.35
473.778	9275.59
473.983	9472.2
474.188	9322.7
474.393	8890.57
474.598	8964.3
474.802	8708.3
475.007	8788.18
475.212	8683.73
475.417	8472.79
475.621	8614.1
475.826	8673.49
476.031	8323.29
476.235	8075.48
476.44	8143.07
476.645	7983.32
476.849	8265.94
477.054	8110.3
477.259	7981.28
477.463	7823.58
477.668	7819.49
477.872	7706.85
478.077	7704.8
478.282	7669.98
478.486	7575.78
478.691	7344.36
478.895	7254.25
479.1	7315.69
479.304	7278.82
479.509	7160.04
479.713	7252.2
479.918	7059.69
480.122	7094.51
480.326	7207.14
480.531	7272.68
480.735	7043.31
480.94	6951.15
481.144	7192.81
481.348	6942.96
481.553	7014.63
481.757	6717.68
481.961	7010.54
482.166	7053.55
482.37	6955.24
482.574	6764.78
482.778	6750.45
482.983	6809.84
483.187	6834.41
483.391	6865.13
483.595	6830.32
483.8	6842.6
484.004	6842.6
484.208	6836.46
484.412	6949.1
484.616	6828.27
484.821	6959.34
485.025	6777.07
485.229	6832.37
485.433	6750.45
485.637	6746.35
485.841	6846.7
486.045	6686.96
486.249	6879.47
486.453	6953.2
486.657	6908.14
486.861	6697.2
487.065	6746.35
487.269	6867.18
487.473	6678.77
487.677	6772.97
487.881	7043.31
488.085	6756.59
488.289	6893.8
488.493	6703.34
488.697	6799.6
488.901	7039.21
489.105	6791.41
489.309	6848.75
489.512	6918.38
489.716	6617.33
489.92	6758.64
490.124	6779.12
490.328	7176.42
490.531	6971.63
490.735	7192.81
490.939	7219.43
491.143	6959.34
491.346	6994.15
491.55	7078.12
491.754	7225.58
491.958	7237.86
492.161	6975.72
492.365	7356.65
492.569	7082.22
492.772	7342.31
492.976	7438.56
493.18	7192.81
493.383	7334.12
493.587	7379.17
493.79	7579.87
493.994	7358.69
494.197	7657.7
494.401	7575.78
494.605	7569.63
494.808	7684.32
495.012	7712.99
495.215	7846.11
495.419	8009.95
495.622	7684.32
495.825	7889.12
496.029	7928.03
496.232	8052.95
496.436	8044.76
496.639	8337.62
496.843	8251.61
497.046	8421.59
497.249	8433.88
497.453	8591.57
497.656	8466.64
497.859	8718.54
498.063	8704.21
498.266	8919.25
498.469	8827.09
498.673	8884.43
498.876	8970.44
499.079	9205.96
499.282	9089.23
499.485	9359.56
499.689	9386.18
499.892	9574.6
500.095	9799.87
500.298	9875.65
500.501	9695.43
500.705	10109.12
500.908	10076.35
501.111	10244.28
501.314	10334.39
501.517	10479.8
501.72	10707.12
501.923	10535.09
502.126	10748.08
502.329	10954.93
502.532	10952.88
502.735	11292.84
502.938	11172.01
503.141	11337.9
503.344	11585.7
503.547	11458.73
503.75	11550.89
503.953	11886.75
504.156	11862.18
504.359	12001.44
504.562	12241.05
504.765	12357.78
504.968	12757.14
505.17	12728.47
505.373	12648.6
505.576	13086.86
505.779	13027.47
505.982	13291.66
506.185	13471.88
506.387	13361.29
506.59	13594.76
506.793	13820.03
506.996	13930.62
507.198	14256.25
507.401	14082.17
507.604	14108.8
507.807	14651.51
508.009	14743.67
508.212	15044.72
508.415	14954.61
508.617	15390.83
508.82	15052.91
509.022	15353.96
509.225	15681.64
509.428	15827.04
509.63	15812.71
509.833	16150.62
510.035	16363.61
510.238	16171.1
510.44	16363.61
510.643	16961.62
510.845	16775.25
511.048	16951.38
511.25	17217.61
511.453	17426.51
511.655	17940.55
511.858	17836.1
512.06	17764.42
512.262	18104.39
512.465	17967.17
512.667	18307.13
512.87	18677.82
513.072	18665.53
513.274	19005.49
513.477	19220.53
513.679	19583.02
513.881	19623.98
514.084	19769.38
514.286	19976.23
514.488	20301.86
514.69	20512.8
514.893	20457.5
515.095	20762.65
515.297	20883.48
515.499	20930.58
515.701	21209.11
515.904	21676.04
516.106	21979.14
516.308	21809.16
516.51	22482.94
516.712	22292.48
516.914	22736.89
517.116	22845.43
517.318	22841.34
517.52	22994.93
517.722	23128.05
517.925	23590.89
518.127	24086.5
518.329	24047.59
518.531	23963.62
518.733	24375.27
518.935	24623.07
519.136	24551.39
519.338	24784.86
519.54	25188.31
519.742	25460.69
519.944	25759.69
520.146	26048.46
520.348	26281.92
520.55	26310.6
520.752	26275.78
520.954	27154.36
521.155	26607.55
521.357	27314.1
521.559	27500.47
521.761	27709.36
521.963	27662.26
522.164	27893.68
522.366	28084.14
522.568	28266.41
522.77	28440.48
522.971	29116.31
523.173	28772.25
523.375	29224.86
523.576	29149.08
523.778	29400.98
523.98	29542.29
524.181	29806.48
524.383	30140.3
524.584	30447.49
524.786	30314.37
524.988	30572.42
525.189	30732.16
525.391	31201.15
525.592	30893.95
525.794	31428.47
525.995	31428.47
526.197	31416.18
526.398	31532.92
526.6	31897.45
526.801	31866.74
527.003	32042.86
527.204	32077.68
527.406	32636.77
527.607	32671.59
527.808	32534.37
528.01	32257.9
528.211	32978.78
528.412	33566.55
528.614	33089.37
528.815	33298.27
529.016	33355.61
529.218	33105.76
529.419	33701.72
529.62	33734.48
529.822	33306.46
530.023	33494.87
530.224	33763.15
530.425	33836.88
530.626	33429.34
530.828	33695.57
531.029	34465.61
531.23	33910.61
531.431	33931.09
531.632	34303.82
531.833	34105.16
532.035	34359.11
532.236	34277.19
532.437	34451.27
532.638	34228.04
532.839	34625.35
533.04	34774.85
533.241	34414.41
533.442	35063.61
533.643	34838.34
533.844	34346.83
534.045	34953.02
534.246	34502.47
534.447	34977.6
534.648	34817.86
534.849	34817.86
535.05	34725.7
535.251	35010.37
535.451	34770.75
535.652	35116.86
535.853	34690.88
536.054	34971.46
536.255	35057.47
536.456	34500.42
536.657	35127.1
536.857	35163.96
537.058	34733.89
537.259	35002.18
537.46	35016.51
537.66	34852.67
537.861	35080
538.062	34703.17
538.263	35135.29
538.463	35071.81
538.664	35014.46
538.865	35168.06
539.065	35618.61
539.266	34991.94
539.466	35116.86
539.667	34879.3
539.868	35675.96
540.068	34893.63
540.269	35340.09
540.469	35135.29
540.67	34965.31
540.87	34998.08
541.071	35153.72
541.271	35075.9
541.472	35301.18
541.672	35245.88
541.873	34924.35
542.073	34727.75
542.274	35278.65
542.474	35098.43
542.675	34666.31
542.875	35194.68
543.075	35303.23
543.276	34553.67
543.476	35198.78
543.676	34907.97
543.877	34850.63
544.077	34842.43
544.277	34895.68
544.478	34932.54
544.678	35415.86
544.878	34891.58
545.078	35065.66
545.279	34787.14
545.479	34807.62
545.679	35215.16
545.879	35112.77
546.079	34750.28
546.28	34707.27
546.48	34588.49
546.68	35069.76
546.88	34989.89
547.08	34686.79
547.28	34697.03
547.48	34291.53
547.68	34596.68
547.88	34082.64
548.081	34637.64
548.281	34772.8
548.481	34641.73
548.681	34727.75
548.881	34819.91
549.081	34867.01
549.28	34805.57
549.48	34752.32
549.68	34500.42
549.88	35180.35
550.08	34840.39
550.28	34686.79
550.48	34686.79
550.68	34844.48
550.88	34195.28
551.08	34838.34
551.279	35000.13
551.479	34357.07
551.679	34641.73
551.879	34441.03
552.079	34649.92
552.278	34533.19
552.478	34613.06
552.678	34201.42
552.878	34692.93
553.077	34654.02
553.277	34080.59
553.477	34817.86
553.676	34266.95
553.876	34404.17
554.076	34426.7
554.275	34174.8
554.475	34035.53
554.674	34262.86
554.874	34219.85
555.074	33974.09
555.273	34133.84
555.473	34209.61
555.672	33816.4
555.872	34199.37
556.071	33828.69
556.271	34207.56
556.47	34232.14
556.67	33695.57
556.869	33652.56
557.068	33722.19
557.268	33720.15
557.467	33892.18
557.667	33687.38
557.866	33779.54
558.065	33441.62
558.265	33339.22
558.464	33371.99
558.663	33601.36
558.863	32827.23
559.062	33820.5
559.261	33183.58
559.461	33773.39
559.66	33003.36
559.859	33136.48
560.058	32745.31
560.258	33023.84
560.457	32585.57
560.656	33015.65
560.855	32823.14
561.054	33134.43
561.253	32233.32
561.453	32358.25
561.652	32771.94
561.851	32698.21
562.05	32520.04
562.249	32163.69
562.448	32571.24
562.647	32204.65
562.846	32292.71
563.045	32208.75
563.244	32032.62
563.443	32221.03
563.642	31952.75
563.841	31797.1
564.04	31303.54
564.239	31831.92
564.438	31268.73
564.637	31557.49
564.836	31463.29
565.035	31283.06
565.234	31291.26
565.432	31260.54
565.631	31221.62
565.83	31174.52
566.029	30975.87
566.228	30615.43
566.427	30553.99
566.625	30711.68
566.824	30490.5
567.023	30900.09
567.222	29884.3
567.42	30453.64
567.619	30390.15
567.818	30195.59
568.016	30449.54
568.215	30431.11
568.414	30136.2
568.612	30177.16
568.811	29962.12
569.01	29710.22
569.208	29394.84
569.407	29730.7
569.605	29562.77
569.804	29673.36
570.002	29126.55
570.201	29271.96
570.4	29144.98
570.598	29214.62
570.797	28798.88
570.995	29114.27
571.193	28700.58
571.392	29011.87
571.59	28669.86
571.789	28542.88
571.987	28284.84
572.186	28524.45
572.384	27901.87
572.582	28106.66
572.781	28526.5
572.979	27887.53
573.177	27989.93
573.376	27989.93
573.574	27506.61
573.772	27742.13
573.971	27518.9
574.169	27391.92
574.367	27152.31
574.565	27633.58
574.763	27432.88
574.962	27070.39
575.16	26884.03
575.358	27391.92
575.556	26791.87
575.754	27252.66
575.952	26718.14
576.151	26738.62
576.349	26578.88
576.547	26677.18
576.745	26558.4
576.943	26478.53
577.141	26384.32
577.339	26476.48
577.537	26318.79
577.735	26169.29
577.933	25702.35
578.131	26152.9
578.329	25724.88
578.527	25634.77
578.725	25585.61
578.923	25960.39
579.121	25690.06
579.319	25595.85
579.516	25563.09
579.714	25409.49
579.912	25233.36
580.11	25485.26
580.308	25186.26
580.506	25042.9
580.704	24766.43
580.901	24664.03
581.099	25176.02
581.297	24758.24
581.495	24813.53
581.692	24762.33
581.89	24584.16
582.088	25047
582.285	24416.22
582.483	24750.04
582.681	24322.02
582.878	24213.48
583.076	23918.57
583.274	24133.61
583.471	23551.98
583.669	24057.83
583.866	23984.1
584.064	24205.28
584.262	23508.97
584.459	23789.55
584.657	23494.64
584.854	23865.32
585.052	22990.84
585.249	23371.76
585.447	23463.92
585.644	23027.7
585.841	23007.22
586.039	23291.89
586.236	22773.75
586.434	23025.65
586.631	22831.1
586.828	22931.45
587.026	22872.06
587.223	22687.74
587.42	22546.43
587.618	22587.39
587.815	22528
588.012	22319.1
588.21	22454.27
588.407	22564.86
588.604	22024.2
588.801	22048.77
588.999	22087.68
589.196	21952.52
589.393	22034.44
589.59	21968.9
589.787	21667.85
589.984	21733.39
590.182	21370.9
590.379	21786.63
590.576	21538.83
590.773	21352.46
590.97	21221.39
591.167	21434.38
591.364	21162
591.561	21223.44
591.758	21254.16
591.955	21075.99
592.152	21239.83
592.349	20852.76
592.546	21035.03
592.743	20819.99
592.94	20498.46
593.137	20789.27
593.334	20840.47
593.531	20312.1
593.727	20645.91
593.924	20709.4
594.121	20219.94
594.318	20623.39
594.515	20279.33
594.712	20635.67
594.908	20174.88
595.105	20154.4
595.302	19773.48
595.499	19963.94
595.696	19904.55
595.892	19634.22
596.089	19810.34
596.286	19984.42
596.482	19808.3
596.679	19542.06
596.876	19765.29
597.072	19281.97
597.269	19585.07
597.466	19001.4
597.662	19263.54
597.859	19331.12
598.055	19410.99
598.252	19331.12
598.448	19210.29
598.645	19044.4
598.841	18978.87
599.038	19181.62
599.234	19058.74
599.431	18741.3
599.627	18526.27
599.824	18812.98
600.02	18544.7
600.217	18440.25
600.413	18241.6
600.609	18378.81
600.806	18208.83
601.002	18436.16
601.198	18329.66
601.395	18286.65
601.591	17995.84
601.787	17963.08
601.984	17911.88
602.18	18282.56
602.376	17700.94
602.572	17809.48
602.769	17856.58
602.965	17688.65
603.161	17850.44
603.357	17449.04
603.553	17385.55
603.75	17782.85
603.946	17653.83
604.142	17545.29
604.338	17268.81
604.534	17524.81
604.73	17139.79
604.926	17109.07
605.122	17164.37
605.318	16928.85
605.514	17027.15
605.71	16943.19
605.906	17092.69
606.102	16955.47
606.298	17045.59
606.494	16906.32
606.69	16908.37
606.886	16918.61
607.082	16357.47
607.278	16816.21
607.474	16533.59
607.67	16390.24
607.866	16271.45
608.062	16476.25
608.257	16359.52
608.453	16316.51
608.649	16273.5
608.845	16130.14
609.041	16336.99
609.236	16402.52
609.432	16244.83
609.628	16181.34
609.824	15915.11
610.019	16027.74
610.215	16068.7
610.411	16064.61
610.606	16060.51
610.802	16099.42
610.998	15880.29
611.193	15988.83
611.389	15851.62
611.584	15597.67
611.78	15587.43
611.976	15497.32
612.171	15720.55
612.367	15745.13
612.562	15528.04
612.758	15435.88
612.953	15429.74
613.149	15693.93
613.344	15310.96
613.539	15505.51
613.735	15327.34
613.93	15505.51
614.126	15339.63
614.321	15536.23
614.517	15331.44
614.712	15194.22
614.907	15079.54
615.103	15302.76
615.298	14944.37
615.493	15290.48
615.688	15038.58
615.884	15190.13
616.079	14848.11
616.274	14925.94
616.47	14727.28
616.665	14858.35
616.86	14782.58
617.055	14667.89
617.25	14897.27
617.445	14856.31
617.641	14415.99
617.836	14614.65
618.031	14518.39
618.226	14776.44
618.421	14231.68
618.616	14536.82
618.811	14415.99
619.006	14430.33
619.201	14100.61
619.396	14155.9
619.591	13863.04
619.786	14436.47
619.981	13979.78
620.176	14243.96
620.371	13717.64
620.566	14053.5
620.761	13815.94
620.956	13760.64
621.151	13492.36
621.346	13750.4
621.541	13353.1
621.735	13709.44
621.93	13486.22
622.125	13375.63
622.32	12976.27
622.515	13265.03
622.709	13181.07
622.904	13148.3
623.099	13029.52
623.294	13015.18
623.488	13054.09
623.683	12806.29
623.878	12959.89
624.072	12712.08
624.267	12693.65
624.462	12449.94
624.656	12316.83
624.851	12339.35
625.046	12408.98
625.24	12193.95
625.435	12277.91
625.629	12261.53
625.824	11911.33
626.018	11987.1
626.213	12105.88
626.407	11931.81
626.602	11804.83
626.796	11782.31
626.991	11600.04
627.185	11745.44
627.38	11747.49
627.574	11485.35
627.768	11606.18
627.963	11423.91
628.157	11135.15
628.352	11393.19
628.546	11065.52
628.74	11243.69
628.935	10940.59
629.129	11047.08
629.323	10987.69
629.517	10883.25
629.712	10922.16
629.906	10686.64
630.1	10862.77
630.294	10584.24
630.489	10766.51
630.683	10653.87
630.877	10592.44
631.071	10332.34
631.265	10586.29
631.459	10318.01
631.653	10375.35
631.848	10418.36
632.042	9988.28
632.236	10242.23
632.43	10078.4
632.624	10164.41
632.818	9994.43
633.012	10064.06
633.206	9738.43
633.4	9875.65
633.594	9525.44
633.788	9920.7
633.982	9816.26
634.176	9851.07
634.369	9629.89
634.563	9453.77
634.757	9398.47
634.951	9480.39
635.145	9439.43
635.339	9429.19
635.533	9279.69
635.726	9314.5
635.92	8954.06
636.114	9257.16
636.308	9035.98
636.501	9121.99
636.695	9109.71
636.889	8790.22
637.083	8759.5
637.276	8878.29
637.47	8667.35
637.664	8644.82
637.857	8843.47
638.051	8804.56
638.244	8698.06
638.438	8605.91
638.632	8552.66
638.825	8390.87
639.019	8509.65
639.212	8448.21
639.406	8351.96
639.599	8243.42
639.793	8337.62
639.986	8048.86
640.18	8157.4
640.373	8081.63
640.567	8083.67
640.76	7968.99
640.954	8032.47
641.147	7999.71
641.34	7964.89
641.534	7889.12
641.727	7921.88
641.92	7827.68
642.114	7641.31
642.307	7729.38
642.5	7741.66
642.694	7512.29
642.887	7545.06
643.08	7495.91
643.273	7348.45
643.467	7510.24
643.66	7450.85
643.853	7399.65
644.046	7319.78
644.239	7358.69
644.432	7254.25
644.626	7244.01
644.819	7205.1
645.012	7196.9
645.205	7092.46
645.398	7164.14
645.591	6912.24
645.784	7020.78
645.977	6795.5
646.17	6906.09
646.363	7012.59
646.556	6924.52
646.749	6832.37
646.942	6727.92
647.135	6764.78
647.328	6533.36
647.521	6590.7
647.714	6455.54
647.907	6609.14
648.099	6369.52
648.292	6375.67
648.485	6435.06
648.678	6412.53
648.871	6410.48
649.064	6308.09
649.256	6381.81
649.449	6371.57
649.642	6359.28
649.835	6201.59
650.027	6338.8
650.22	6070.52
650.413	5976.31
650.605	6111.48
650.798	6031.61
650.991	5914.88
651.183	5986.55
651.376	5904.64
651.568	5986.55
651.761	5882.11
651.954	6004.99
652.146	5968.12
652.339	5720.32
652.531	5841.15
652.724	5640.45
652.916	5722.37
653.109	5630.21
653.301	5695.74
653.494	5642.5
653.686	5662.97
653.879	5437.7
654.071	5652.74
654.263	5529.86
654.456	5527.81
654.648	5525.76
654.84	5396.74
655.033	5290.24
655.225	5320.96
655.417	5357.83
655.61	5210.37
655.802	5536
655.994	5034.25
656.186	5224.71
656.379	5241.09
656.571	5187.85
656.763	4987.15
656.955	5128.46
657.148	5093.64
657.34	5046.54
657.532	4903.18
657.724	5007.62
657.916	5060.87
658.108	5048.58
658.3	4987.15
658.492	4854.03
658.684	5017.86
658.876	4763.92
659.068	4815.12
659.26	4837.64
659.452	4784.4
659.644	4802.83
659.836	4770.06
660.028	4665.61
660.22	4581.65
660.412	4714.77
660.604	4727.05
660.796	4565.26
660.988	4532.5
661.18	4665.61
661.372	4516.11
661.563	4512.02
661.755	4395.28
661.947	4536.59
662.139	4436.24
662.331	4483.34
662.522	4401.43
662.714	4290.84
662.906	4028.7
663.097	4405.52
663.289	4245.78
663.481	4284.69
663.673	4331.8
663.864	4178.2
664.056	4174.1
664.247	4245.78
664.439	4057.37
664.631	4206.87
664.822	4075.8
665.014	4157.72
665.205	4012.31
665.397	4135.19
665.588	4129.05
665.78	4006.17
665.971	3979.54
666.163	4071.7
666.354	3952.92
666.546	4043.03
666.737	3903.77
666.929	3911.96
667.12	3897.63
667.311	3885.34
667.503	3873.05
667.694	4028.7
667.885	3735.84
668.077	3916.06
668.268	3846.43
668.459	3797.28
668.651	3883.29
668.842	3766.56
669.033	3672.35
669.224	3694.88
669.416	3651.87
669.607	3608.86
669.798	3651.87
669.989	3848.47
670.18	3766.56
670.371	3569.95
670.563	3551.52
670.754	3627.29
670.945	3594.53
671.136	3520.8
671.327	3592.48
671.518	3584.29
671.709	3662.11
671.9	3567.9
672.091	3555.62
672.282	3414.31
672.473	3338.53
672.664	3504.42
672.855	3449.12
673.046	3385.63
673.237	3580.19
673.428	3412.26
673.619	3399.97
673.809	3420.45
674	3258.66
674.191	3416.35
674.382	3307.81
674.573	3387.68
674.764	3313.95
674.954	3416.35
675.145	3316
675.336	3203.36
675.527	3356.96
675.717	3342.63
675.908	3270.95
676.099	3250.47
676.289	3320.1
676.48	3287.33
676.671	3166.5
676.861	3150.12
677.052	3262.76
677.243	3223.84
677.433	3256.61
677.624	3158.31
677.814	3273
678.005	3266.85
678.195	3213.6
678.386	3182.88
678.576	3125.54
678.767	3166.5
678.957	3143.97
679.148	3350.82
679.338	3166.5
679.529	3131.69
679.719	3109.16
679.909	3168.55
680.1	3207.46
680.29	3098.92
680.481	3141.93
680.671	3094.82
680.861	3023.14
681.052	3111.21
681.242	2998.57
681.432	3141.93
681.622	3084.58
681.813	3158.31
682.003	3051.81
682.193	3043.62
682.383	3117.35
682.573	3086.63
682.764	2949.42
682.954	3017
683.144	3012.9
683.334	3133.73
683.524	2939.18
683.714	3039.53
683.904	3008.81
684.094	3017
684.284	3066.15
684.474	3088.68
684.664	3010.86
684.854	2953.51
685.044	2924.84
685.234	2980.14
685.424	3045.67
685.614	2898.22
685.804	2908.46
685.994	3004.71
686.184	2900.27
686.374	2922.79
686.564	2904.36
686.753	2906.41
686.943	2922.79
687.133	3031.34
687.323	2965.8
687.513	2836.78
687.702	2732.33
687.892	2955.56
688.082	2806.06
688.272	2801.96
688.461	2808.11
688.651	2836.78
688.841	2761
689.03	2769.2
689.22	2677.04
689.41	2715.95
689.599	2742.57
689.789	2734.38
689.979	2750.76
690.168	2703.66
690.358	2672.94
690.547	2742.57
690.737	2869.55
690.926	2810.15
691.116	2677.04
691.305	2701.61
691.495	2625.84
691.684	2543.92
691.874	2740.52
692.063	2634.03
692.252	2509.1
692.442	2672.94
692.631	2533.68
692.82	2482.48
693.01	2515.25
693.199	2697.52
693.388	2394.42
693.578	2615.6
693.767	2535.73
693.956	2611.5
694.146	2576.69
694.335	2558.25
694.524	2531.63
694.713	2523.44
694.902	2521.39
695.092	2498.86
695.281	2570.54
695.47	2462
695.659	2421.04
695.848	2490.67
696.037	2410.8
696.226	2527.53
696.415	2490.67
696.604	2513.2
696.793	2576.69
696.982	2320.69
697.171	2421.04
697.36	2541.87
697.549	2505.01
697.738	2519.34
697.927	2361.65
698.116	2408.75
698.305	2390.32
698.494	2517.29
698.683	2423.09
698.872	2457.9
699.061	2451.76
699.25	2470.19
699.438	2443.57
699.627	2433.33
699.816	2609.45
700.005	2449.71
700.193	2472.24
700.382	2449.71
700.571	2351.41
700.76	2502.96
700.948	2457.9
701.137	2433.33
701.326	2488.62
701.514	2560.3
701.703	2474.29
701.892	2371.89
702.08	2498.86
702.269	2425.14
702.457	2361.65
702.646	2564.4
702.834	2408.75
703.023	2447.66
703.212	2484.53
703.4	2455.86
703.589	2513.2
703.777	2482.48
703.965	2423.09
704.154	2505.01
704.342	2427.18
704.531	2505.01
704.719	2513.2
704.907	2511.15
705.096	2619.69
705.284	2531.63
705.472	2507.06
705.661	2562.35
705.849	2388.27
706.037	2414.9
706.226	2490.67
706.414	2418.99
706.602	2562.35
706.79	2353.46
706.979	2394.42
707.167	2535.73
707.355	2398.51
707.543	2457.9
707.731	2369.84
707.919	2603.31
708.107	2500.91
708.296	2507.06
708.484	2418.99
708.672	2416.94
708.86	2476.34
709.048	2505.01
709.236	2511.15
709.424	2459.95
709.612	2451.76
709.8	2507.06
709.988	2537.77
710.176	2525.49
710.364	2470.19
710.551	2554.16
710.739	2443.57
710.927	2539.82
711.115	2361.65
711.303	2390.32
711.491	2404.66
711.679	2384.18
711.866	2535.73
712.054	2603.31
712.242	2445.62
712.43	2392.37
712.617	2476.34
712.805	2476.34
712.993	2591.02
713.181	2365.75
713.368	2421.04
713.556	2505.01
713.744	2466.1
713.931	2478.38
714.119	2410.8
714.306	2396.46
714.494	2326.83
714.682	2455.86
714.869	2423.09
715.057	2552.11
715.244	2464.05
715.432	2492.72
715.619	2459.95
715.807	2464.05
715.994	2298.16
716.182	2515.25
716.369	2517.29
716.556	2453.81
716.744	2468.14
716.931	2550.06
717.119	2509.1
717.306	2562.35
717.493	2482.48
717.681	2466.1
717.868	2388.27
718.055	2382.13
718.242	2502.96
718.43	2480.43
718.617	2400.56
718.804	2451.76
718.991	2466.1
719.179	2486.58
719.366	2343.22
719.553	2476.34
719.74	2566.45
719.927	2474.29
720.114	2548.01
720.301	2447.66
720.488	2382.13
720.676	2459.95
720.863	2418.99
721.05	2521.39
721.237	2462
721.424	2462
721.611	2490.67
721.798	2386.22
721.985	2453.81
722.172	2449.71
722.358	2418.99
722.545	2457.9
722.732	2539.82
722.919	2478.38
723.106	2357.55
723.293	2371.89
723.48	2414.9
723.667	2398.51
723.853	2386.22
724.04	2418.99
724.227	2328.88
724.414	2408.75
724.6	2505.01
724.787	2373.94
724.974	2462
725.161	2408.75
725.347	2349.36
725.534	2525.49
725.72	2564.4
725.907	2533.68
726.094	2443.57
726.28	2404.66
726.467	2335.03
726.653	2275.63
726.84	2443.57
727.027	2584.88
727.213	2253.11
727.4	2380.08
727.586	2400.56
727.773	2359.6
727.959	2369.84
728.145	2351.41
728.332	2459.95
728.518	2459.95
728.705	2423.09
728.891	2347.31
729.077	2392.37
729.264	2380.08
729.45	2566.45
729.636	2449.71
729.823	2320.69
730.009	2418.99
730.195	2404.66
730.382	2451.76
730.568	2375.99
730.754	2425.14
730.94	2433.33
731.126	2285.87
731.313	2429.23
731.499	2339.12
731.685	2343.22
731.871	2373.94
732.057	2453.81
732.243	2437.42
732.429	2320.69
732.615	2332.98
732.801	2390.32
732.987	2339.12
733.173	2328.88
733.359	2296.11
733.545	2328.88
733.731	2394.42
733.917	2449.71
734.103	2400.56
734.289	2375.99
734.475	2371.89
734.661	2429.23
734.847	2281.78
735.033	2345.27
735.219	2414.9
735.404	2351.41
735.59	2343.22
735.776	2406.7
735.962	2486.58
736.148	2320.69
736.333	2437.42
736.519	2355.51
736.705	2277.68
736.89	2259.25
737.076	2261.3
737.262	2365.75
737.447	2349.36
737.633	2320.69
737.819	2185.52
738.004	2347.31
738.19	2148.66
738.375	2294.07
738.561	2281.78
738.747	2341.17
738.932	2224.44
739.118	2345.27
739.303	2312.5
739.489	2310.45
739.674	2302.26
739.859	2353.46
740.045	2343.22
740.23	2255.15
740.416	2183.48
740.601	2238.77
740.786	2228.53
740.972	2249.01
741.157	2201.91
741.342	2300.21
741.528	2230.58
741.713	2234.68
741.898	2130.23
742.084	2206
742.269	2224.44
742.454	2177.33
742.639	2152.76
742.824	2091.32
743.01	2128.18
743.195	2142.52
743.38	2128.18
743.565	2158.9
743.75	2132.28
743.935	2091.32
744.12	2093.37
744.305	2083.13
744.49	2142.52
744.675	2007.35
744.86	2076.98
745.045	2038.07
745.23	2025.78
745.415	1972.54
745.6	1956.15
745.785	1997.11
745.97	2003.25
746.155	1929.53
746.34	1974.58
746.525	1943.86
746.71	1952.06
746.895	1907
747.079	1911.1
747.264	1913.14
747.449	1950.01
747.634	1954.1
747.819	1894.71
748.003	1968.44
748.188	1814.84
748.373	1904.95
748.557	1874.23
748.742	1954.1
748.927	1823.03
749.111	1894.71
749.296	1806.65
749.481	1878.33
749.665	1851.71
749.85	1716.54
750.034	1857.85
750.219	1712.44
750.404	1644.86
750.588	1732.92
750.773	1831.23
750.957	1667.39
751.141	1599.8
751.326	1685.82
751.51	1683.77
751.695	1636.67
751.879	1677.63
752.064	1753.4
752.248	1577.28
752.432	1691.96
752.617	1581.37
752.801	1577.28
752.985	1593.66
753.17	1610.04
753.354	1636.67
753.538	1679.68
753.722	1548.61
753.907	1630.52
754.091	1530.17
754.275	1558.85
754.459	1548.61
754.643	1501.5
754.828	1472.83
755.012	1546.56
755.196	1546.56
755.38	1407.3
755.564	1403.2
755.748	1339.71
755.932	1442.11
756.116	1423.68
756.3	1458.5
756.484	1368.38
756.668	1425.73
756.852	1290.56
757.036	1382.72
757.22	1380.67
757.404	1323.33
757.588	1392.96
757.772	1292.61
757.956	1284.42
758.14	1280.32
758.323	1335.62
758.507	1278.27
758.691	1380.67
758.875	1308.99
759.059	1200.45
759.242	1282.37
759.426	1313.09
759.61	1177.92
759.794	1255.75
759.977	1251.65
760.161	1251.65
760.345	1298.75
760.528	1313.09
760.712	1200.45
760.895	1175.88
761.079	1192.26
761.263	1208.64
761.446	1147.2
761.63	1114.44
761.813	1159.49
761.997	1126.72
762.18	1093.96
762.364	1167.68
762.547	1071.43
762.731	1044.81
762.914	1128.77
763.098	1171.78
763.281	1134.92
763.464	1091.91
763.648	1093.96
763.831	1059.14
764.015	1167.68
764.198	1075.52
764.381	1116.48
764.564	1034.57
764.748	1149.25
764.931	1071.43
765.114	1063.24
765.297	1055.05
765.481	1030.47
765.664	1087.81
765.847	1096
766.03	1110.34
766.213	868.68
766.397	999.75
766.58	1032.52
766.763	1012.04
766.946	926.02
767.129	993.61
767.312	1042.76
767.495	995.65
767.678	1048.9
767.861	1018.18
768.044	1048.9
768.227	995.65
768.41	901.45
768.593	915.78
768.776	981.32
768.959	991.56
769.142	1046.85
769.324	928.07
769.507	950.6
769.69	1014.09
769.873	948.55
770.056	960.84
770.239	903.5
770.421	883.02
770.604	1038.66
770.787	969.03
770.97	977.22
771.152	926.02
771.335	999.75
771.518	993.61
771.7	901.45
771.883	948.55
772.066	856.39
772.248	831.82
772.431	919.88
772.613	938.31
772.796	856.39
772.978	938.31
773.161	809.29
773.343	831.82
773.526	852.3
773.708	858.44
773.891	811.34
774.073	899.4
774.256	858.44
774.438	827.72
774.621	809.29
774.803	833.86
774.985	825.67
775.168	868.68
775.35	797
775.532	831.82
775.715	803.15
775.897	751.95
776.079	708.94
776.261	815.43
776.444	784.71
776.626	694.6
776.808	739.66
776.99	680.27
777.173	725.32
777.355	688.46
777.537	731.47
777.719	647.5
777.901	706.89
778.083	690.51
778.265	663.88
778.447	684.36
778.629	758.09
778.811	708.94
778.993	782.67
779.175	686.41
779.357	639.31
779.539	672.08
779.721	653.64
779.903	717.13
780.085	631.12
780.267	692.55
780.449	641.36
780.631	627.02
780.812	635.21
780.994	616.78
781.176	620.88
781.358	590.16
781.54	569.68
781.721	491.85
781.903	512.33
782.085	602.44
782.267	631.12
782.448	555.34
782.63	610.64
782.812	459.09
782.993	614.73
783.175	510.29
783.357	567.63
783.538	561.48
783.72	522.57
783.901	528.72
784.083	518.48
784.264	524.62
784.446	442.7
784.627	518.48
784.809	557.39
784.99	498
785.172	526.67
785.353	491.85
785.535	506.19
785.716	520.53
785.897	506.19
786.079	469.33
786.26	430.41
786.441	526.67
786.623	420.17
786.804	416.08
786.985	549.2
787.167	479.57
787.348	430.41
787.529	504.14
787.71	500.05
787.891	471.37
788.073	393.55
788.254	444.75
788.435	479.57
788.616	504.14
788.797	442.7
788.978	471.37
789.159	459.09
789.34	391.5
789.522	373.07
789.703	346.45
789.884	444.75
790.065	440.65
790.246	389.46
790.427	407.89
790.607	450.89
790.788	428.37
790.969	352.59
791.15	328.02
791.331	319.82
791.512	307.54
791.693	368.98
791.874	317.78
792.054	366.93
792.235	368.98
792.416	411.98
792.597	293.2
792.778	397.65
792.958	352.59
793.139	360.78
793.32	416.08
793.5	334.16
793.681	405.84
793.862	360.78
794.042	411.98
794.223	373.07
794.404	295.25
794.584	368.98
794.765	336.21
794.945	317.78
795.126	344.4
795.306	385.36
795.487	373.07
795.667	317.78
795.848	350.54
796.028	213.33
796.209	250.19
796.389	368.98
796.57	348.5
796.75	375.12
796.93	276.82
797.111	328.02
797.291	375.12
797.471	295.25
797.652	409.94
797.832	334.16
798.012	336.21
798.192	375.12
798.373	190.8
798.553	285.01
798.733	319.82
798.913	192.85
799.093	280.91
799.274	278.87
799.454	340.3
799.634	287.06
799.814	172.37
799.994	252.24
800.174	332.11
800.354	295.25
800.534	291.15
800.714	328.02
800.894	248.15
801.074	198.99
801.254	368.98
801.434	231.76
801.614	272.72
801.794	215.38
801.974	651.6
802.154	244.05
802.334	231.76
802.514	227.67
802.693	258.39
802.873	186.71
803.053	268.63
803.233	274.77
803.413	307.54
803.592	227.67
803.772	192.85
803.952	215.38
804.131	221.52
804.311	198.99
804.491	270.67
804.67	143.7
804.85	213.33
805.03	282.96
805.209	346.45
805.389	194.9
805.568	354.64
805.748	270.67
805.928	180.56
806.107	196.95
806.287	250.19
806.466	215.38
806.646	297.3
806.825	178.51
807.004	153.94
807.184	160.08
807.363	235.86
807.543	178.51
807.722	137.56
807.901	293.2
808.081	254.29
808.26	139.6
808.439	227.67
808.619	201.04
808.798	268.63
808.977	184.66
809.156	170.32
809.336	192.85
809.515	229.71
809.694	186.71
809.873	246.1
810.052	127.32
810.231	282.96
810.411	155.99
810.59	153.94
810.769	211.28
810.948	215.38
811.127	155.99
811.306	123.22
811.485	172.37
811.664	196.95
811.843	235.86
812.022	227.67
812.201	176.47
812.38	203.09
812.559	112.98
812.737	194.9
812.916	166.23
813.095	158.03
813.274	115.03
813.453	127.32
813.632	166.23
813.811	219.47
813.989	84.31
814.168	231.76
814.347	129.36
814.526	231.76
814.704	186.71
814.883	254.29
815.062	151.89
815.24	129.36
815.419	160.08
815.598	176.47
815.776	67.92
815.955	215.38
816.133	76.12
816.312	125.27
816.49	145.75
816.669	180.56
816.847	196.95
817.026	182.61
817.204	94.55
817.383	145.75
817.561	135.51
817.74	227.67
817.918	129.36
818.097	86.36
818.275	84.31
818.453	176.47
818.632	133.46
818.81	131.41
818.988	155.99
819.167	172.37
819.345	215.38
819.523	178.51
819.701	139.6
819.879	147.8
820.058	104.79
820.236	63.83
820.414	186.71
820.592	110.93
820.77	74.07
820.948	133.46
821.127	133.46
821.305	94.55
821.483	123.22
821.661	201.04
821.839	160.08
822.017	125.27
822.195	172.37
822.373	127.32
822.551	123.22
822.729	176.47
822.907	174.42
823.085	133.46
823.262	172.37
823.44	164.18
823.618	121.17
823.796	72.02
823.974	72.02
824.152	57.68
824.329	123.22
824.507	119.12
824.685	96.6
824.863	147.8
825.04	168.27
825.218	139.6
825.396	115.03
825.574	6.49
825.751	76.12
825.929	104.79
826.107	90.45
826.284	69.97
826.462	158.03
826.639	59.73
826.817	51.54
826.994	139.6
827.172	47.44
827.349	188.75
827.527	98.64
827.704	149.84
827.882	131.41
828.059	104.79
828.237	129.36
828.414	98.64
828.591	37.2
828.769	170.32
828.946	33.11
829.124	110.93
829.301	82.26
829.478	98.64
829.655	90.45
829.833	100.69
830.01	61.78
830.187	137.56
830.364	94.55
830.542	110.93
830.719	182.61
830.896	117.08
831.073	78.16
831.25	112.98
831.427	174.42
831.604	65.88
831.782	104.79
831.959	153.94
832.136	139.6
832.313	29.01
832.49	94.55
832.667	78.16
832.844	55.64
833.021	61.78
833.198	100.69
833.374	94.55
833.551	82.26
833.728	135.51
833.905	74.07
834.082	108.88
834.259	102.74
834.436	106.84
834.612	41.3
834.789	82.26
834.966	147.8
835.143	117.08
835.319	106.84
835.496	139.6
835.673	14.68
835.85	69.97
836.026	78.16
836.203	59.73
836.38	18.77
836.556	49.49
836.733	96.6
836.909	96.6
837.086	-32.43
837.262	72.02
837.439	67.92
837.616	178.51
837.792	158.03
837.968	59.73
838.145	22.87
838.321	112.98
838.498	145.75
838.674	94.55
838.851	22.87
839.027	76.12
839.203	106.84
839.38	127.32
839.556	72.02
839.732	121.17
839.909	80.21
840.085	98.64
840.261	65.88
840.437	74.07
840.614	65.88
840.79	92.5
840.966	65.88
841.142	84.31
841.318	82.26
841.494	63.83
841.671	72.02
841.847	20.82
842.023	53.59
842.199	74.07
842.375	94.55
842.551	51.54
842.727	8.53
842.903	92.5
843.079	94.55
843.255	69.97
843.431	94.55
843.607	76.12
843.783	-3.75
843.959	94.55
844.134	98.64
844.31	22.87
844.486	4.44
844.662	61.78
844.838	45.4
845.013	45.4
845.189	131.41
845.365	47.44
845.541	78.16
845.716	115.03
845.892	74.07
846.068	6.49
846.244	45.4
846.419	65.88
846.595	61.78
846.77	102.74
846.946	-16.04
847.122	90.45
847.297	51.54
847.473	96.6
847.648	72.02
847.824	53.59
847.999	53.59
848.175	61.78
848.35	61.78
848.526	119.12
848.701	61.78
848.876	102.74
849.052	51.54
849.227	45.4
849.403	6.49
849.578	45.4
849.753	45.4
849.929	31.06
850.104	24.92
850.279	24.92
850.454	47.44
850.63	65.88
850.805	41.3
850.98	96.6
851.155	39.25
851.33	57.68
851.505	55.64
851.681	98.64
851.856	102.74
852.031	59.73
852.206	26.96
852.381	20.82
852.556	86.36
852.731	65.88
852.906	74.07
853.081	39.25
853.256	72.02
853.431	63.83
853.606	4.44
853.781	29.01
853.956	8.53
854.131	33.11
854.305	59.73
854.48	-30.38
854.655	86.36
854.83	78.16
855.005	57.68
855.18	35.16
855.354	78.16
855.529	26.96
855.704	29.01
855.879	10.58
856.053	0.34
856.228	86.36
856.403	4.44
856.577	72.02
856.752	-1.71
856.926	57.68
857.101	115.03
857.276	-50.86
857.45	90.45
857.625	47.44
857.799	8.53
857.974	24.92
858.148	67.92
858.323	112.98
858.497	92.5
858.672	55.64
858.846	6.49
859.02	119.12
859.195	57.68
859.369	37.2
859.543	-9.9
859.718	47.44
859.892	86.36
860.066	51.54
860.241	22.87
860.415	76.12
860.589	-1.71
860.763	49.49
860.938	45.4
861.112	24.92
861.286	-30.38
861.46	63.83
861.634	6.49
861.808	29.01
861.982	-28.33
862.157	65.88
862.331	35.16
862.505	8.53
862.679	57.68
862.853	29.01
863.027	-7.85
863.201	26.96
863.375	37.2
863.549	117.08
863.722	86.36
863.896	104.79
864.07	-22.19
864.244	8.53
864.418	22.87
864.592	45.4
864.766	41.3
864.939	22.87
865.113	37.2
865.287	59.73
865.461	-30.38
865.634	78.16
865.808	16.73
865.982	26.96
866.156	49.49
866.329	47.44
866.503	100.69
866.676	88.4
866.85	39.25
867.024	51.54
867.197	4.44
867.371	63.83
867.544	-24.23
867.718	84.31
867.891	33.11
868.065	10.58
868.238	39.25
868.412	10.58
868.585	8.53
868.759	90.45
868.932	29.01
869.105	22.87
869.279	14.68
869.452	53.59
869.625	-22.19
869.799	59.73
869.972	-18.09
870.145	22.87
870.319	86.36
870.492	61.78
870.665	16.73
870.838	-16.04
871.011	82.26
871.185	24.92
871.358	-24.23
871.531	-32.43
871.704	35.16
871.877	24.92
872.05	26.96
872.223	49.49
872.396	61.78
872.569	51.54
872.742	53.59
872.915	45.4
873.088	41.3
873.261	-59.05
873.434	41.3
873.607	18.77
873.78	57.68
873.953	29.01
874.126	53.59
874.299	49.49
874.471	22.87
874.644	67.92
874.817	61.78
874.99	24.92
875.163	59.73
875.335	86.36
875.508	61.78
875.681	55.64
875.853	117.08
876.026	37.2
876.199	22.87
876.371	49.49
876.544	39.25
876.717	14.68
876.889	-3.75
877.062	65.88
877.234	45.4
877.407	2.39
877.579	0.34
877.752	-44.71
877.924	43.35
878.097	84.31
878.269	33.11
878.442	4.44
878.614	33.11
878.786	6.49
878.959	-20.14
879.131	-3.75
879.303	-30.38
879.476	33.11
879.648	96.6
879.82	47.44
879.993	-13.99
880.165	10.58
880.337	37.2
880.509	8.53
880.681	29.01
880.854	12.63
881.026	49.49
881.198	74.07
881.37	-5.8
881.542	6.49
881.714	-7.85
881.886	-24.23
882.058	69.97
882.23	4.44
882.402	8.53
882.574	12.63
882.746	4.44
882.918	94.55
883.09	0.34
883.262	24.92
883.434	-46.76
883.606	18.77
883.778	-34.47
883.95	100.69
884.122	41.3
884.293	43.35
884.465	69.97
884.637	72.02
884.809	-11.95
884.98	55.64
885.152	0.34
885.324	49.49
885.496	24.92
885.667	14.68
885.839	-13.99
886.011	133.46
886.182	24.92
886.354	35.16
886.525	12.63
886.697	67.92
886.869	22.87
887.04	26.96
887.212	24.92
887.383	39.25
887.555	-11.95
887.726	12.63
887.897	-50.86
888.069	37.2
888.24	-1.71
888.412	86.36
888.583	12.63
888.754	-50.86
888.926	29.01
889.097	115.03
889.268	-3.75
889.44	39.25
889.611	86.36
889.782	-54.95
889.953	-1.71
890.125	45.4
890.296	0.34
890.467	10.58
890.638	41.3
890.809	39.25
890.98	-52.91
891.151	6.49
891.323	39.25
891.494	43.35
891.665	16.73
891.836	-36.52
892.007	-9.9
892.178	10.58
892.349	-26.28
892.52	59.73
892.691	-3.75
892.862	-3.75
893.032	-28.33
893.203	0.34
893.374	31.06
893.545	112.98
893.716	-7.85
893.887	16.73
894.057	22.87
894.228	-1.71
894.399	6.49
894.57	29.01
894.74	26.96
894.911	33.11
895.082	-9.9
895.253	22.87
895.423	24.92
895.594	74.07
895.764	-20.14
895.935	39.25
896.106	57.68
896.276	55.64
896.447	0.34
896.617	49.49
896.788	-7.85
896.958	49.49
897.129	67.92
897.299	22.87
897.47	31.06
897.64	2.39
897.81	92.5
897.981	4.44
898.151	-40.62
898.322	35.16
898.492	4.44
898.662	47.44
898.832	41.3
899.003	-36.52
899.173	-42.67
899.343	12.63
899.513	-59.05
