Data from USB4F104151__247__11-11-36-996.txt Node

Date: Wed Mar 12 11:11:37 EDT 2025
User: louis
Spectrometer: USB4F10415
Trigger mode: 4
Integration Time (sec): 2.000000E-2
Scans to average: 1
Electric dark correction enabled: true
Nonlinearity correction enabled: false
Boxcar width: 0
XAxis mode: Wavelengths
Number of Pixels in Spectrum: 3648
>>>>>Begin Spectral Data<<<<<
178.204	-93.87
178.424	-93.87
178.644	-93.87
178.864	-122.54
179.084	-34.47
179.304	22.87
179.524	18.77
179.744	63.83
179.964	0.34
180.184	12.63
180.404	-22.19
180.624	6.49
180.844	16.73
181.064	29.01
181.283	-104.11
181.503	-16.04
181.723	-28.33
181.943	-75.43
182.163	-44.71
182.383	-44.71
182.602	82.26
182.822	4.44
183.042	-1.71
183.262	-28.33
183.482	63.83
183.701	29.01
183.921	24.92
184.141	10.58
184.361	12.63
184.58	43.35
184.8	-11.95
185.02	4.44
185.239	-7.85
185.459	8.53
185.679	-24.23
185.898	-75.43
186.118	-9.9
186.338	41.3
186.557	49.49
186.777	-48.81
186.997	-11.95
187.216	12.63
187.436	29.01
187.655	-48.81
187.875	12.63
188.095	-20.14
188.314	-38.57
188.534	-20.14
188.753	16.73
188.973	18.77
189.192	33.11
189.412	-13.99
189.631	-26.28
189.851	-1.71
190.07	-1.71
190.29	-52.91
190.509	29.01
190.729	51.54
190.948	-9.9
191.168	61.78
191.387	41.3
191.607	4.44
191.826	-7.85
192.045	31.06
192.265	6.49
192.484	-26.28
192.704	35.16
192.923	-79.53
193.142	22.87
193.362	37.2
193.581	-46.76
193.8	-67.24
194.02	-3.75
194.239	57.68
194.458	26.96
194.678	6.49
194.897	-75.43
195.116	29.01
195.335	-57
195.555	4.44
195.774	16.73
195.993	16.73
196.212	-18.09
196.432	-38.57
196.651	41.3
196.87	33.11
197.089	51.54
197.308	-11.95
197.528	14.68
197.747	-61.1
197.966	26.96
198.185	45.4
198.404	-65.19
198.623	-26.28
198.842	26.96
199.062	-75.43
199.281	39.25
199.5	2.39
199.719	41.3
199.938	53.59
200.157	0.34
200.376	14.68
200.595	37.2
200.814	-54.95
201.033	20.82
201.252	-46.76
201.471	0.34
201.69	18.77
201.909	-77.48
202.128	43.35
202.347	8.53
202.566	-13.99
202.785	-28.33
203.004	37.2
203.223	12.63
203.442	-1.71
203.661	-18.09
203.879	45.4
204.098	35.16
204.317	-42.67
204.536	37.2
204.755	59.73
204.974	-5.8
205.193	6.49
205.411	49.49
205.63	10.58
205.849	-32.43
206.068	-13.99
206.287	61.78
206.505	-3.75
206.724	49.49
206.943	74.07
207.162	-52.91
207.381	-65.19
207.599	35.16
207.818	39.25
208.037	-1.71
208.255	-26.28
208.474	8.53
208.693	26.96
208.911	26.96
209.13	31.06
209.349	47.44
209.567	14.68
209.786	63.83
210.005	51.54
210.223	43.35
210.442	-50.86
210.661	45.4
210.879	6.49
211.098	26.96
211.316	-7.85
211.535	47.44
211.753	-7.85
211.972	14.68
212.191	-44.71
212.409	-36.52
212.628	-75.43
212.846	-18.09
213.065	18.77
213.283	29.01
213.502	22.87
213.72	26.96
213.938	20.82
214.157	41.3
214.375	45.4
214.594	29.01
214.812	43.35
215.031	24.92
215.249	0.34
215.467	26.96
215.686	-50.86
215.904	43.35
216.122	14.68
216.341	55.64
216.559	-3.75
216.778	47.44
216.996	-1.71
217.214	-16.04
217.432	-26.28
217.651	2.39
217.869	-22.19
218.087	-5.8
218.306	-1.71
218.524	55.64
218.742	10.58
218.96	14.68
219.179	45.4
219.397	2.39
219.615	74.07
219.833	57.68
220.051	-36.52
220.27	29.01
220.488	59.73
220.706	-89.77
220.924	39.25
221.142	72.02
221.36	47.44
221.578	4.44
221.796	-1.71
222.015	-54.95
222.233	-9.9
222.451	31.06
222.669	-9.9
222.887	22.87
223.105	8.53
223.323	22.87
223.541	-24.23
223.759	47.44
223.977	26.96
224.195	22.87
224.413	6.49
224.631	45.4
224.849	31.06
225.067	59.73
225.285	2.39
225.503	55.64
225.721	-69.29
225.939	10.58
226.157	41.3
226.375	37.2
226.592	-11.95
226.81	53.59
227.028	45.4
227.246	20.82
227.464	-20.14
227.682	57.68
227.9	51.54
228.117	8.53
228.335	47.44
228.553	53.59
228.771	-5.8
228.989	-7.85
229.206	4.44
229.424	-5.8
229.642	-67.24
229.86	-7.85
230.077	49.49
230.295	12.63
230.513	51.54
230.731	47.44
230.948	37.2
231.166	24.92
231.384	-75.43
231.601	-16.04
231.819	78.16
232.037	-48.81
232.254	-59.05
232.472	14.68
232.689	39.25
232.907	78.16
233.125	-11.95
233.342	-5.8
233.56	-18.09
233.777	12.63
233.995	-42.67
234.213	41.3
234.43	-1.71
234.648	74.07
234.865	18.77
235.083	129.36
235.3	-63.15
235.518	76.12
235.735	0.34
235.953	22.87
236.17	18.77
236.388	10.58
236.605	-36.52
236.822	43.35
237.04	55.64
237.257	-28.33
237.475	-5.8
237.692	0.34
237.909	-26.28
238.127	37.2
238.344	-11.95
238.562	14.68
238.779	-42.67
238.996	16.73
239.214	18.77
239.431	31.06
239.648	51.54
239.865	31.06
240.083	43.35
240.3	-13.99
240.517	2.39
240.735	-20.14
240.952	-11.95
241.169	20.82
241.386	-20.14
241.603	-18.09
241.821	-30.38
242.038	41.3
242.255	135.51
242.472	-26.28
242.689	-1.71
242.907	63.83
243.124	-73.39
243.341	39.25
243.558	37.2
243.775	-97.96
243.992	-28.33
244.209	6.49
244.426	65.88
244.643	33.11
244.86	-22.19
245.078	37.2
245.295	47.44
245.512	12.63
245.729	0.34
245.946	-52.91
246.163	14.68
246.38	-46.76
246.597	-18.09
246.814	55.64
247.031	6.49
247.248	-22.19
247.464	0.34
247.681	6.49
247.898	-1.71
248.115	-11.95
248.332	-79.53
248.549	76.12
248.766	8.53
248.983	43.35
249.2	51.54
249.417	41.3
249.633	-7.85
249.85	43.35
250.067	-5.8
250.284	-24.23
250.501	67.92
250.717	2.39
250.934	-11.95
251.151	37.2
251.368	-61.1
251.585	14.68
251.801	45.4
252.018	-54.95
252.235	-32.43
252.451	-5.8
252.668	-28.33
252.885	78.16
253.102	72.02
253.318	67.92
253.535	-18.09
253.752	10.58
253.968	-1.71
254.185	-16.04
254.401	-1.71
254.618	55.64
254.835	26.96
255.051	53.59
255.268	-18.09
255.484	-36.52
255.701	-57
255.917	80.21
256.134	-40.62
256.351	18.77
256.567	-20.14
256.784	2.39
257	14.68
257.217	37.2
257.433	33.11
257.65	-13.99
257.866	6.49
258.082	8.53
258.299	55.64
258.515	82.26
258.732	39.25
258.948	-48.81
259.165	-1.71
259.381	-18.09
259.597	57.68
259.814	90.45
260.03	-18.09
260.246	2.39
260.463	47.44
260.679	-38.57
260.895	67.92
261.112	6.49
261.328	-65.19
261.544	12.63
261.761	74.07
261.977	39.25
262.193	-36.52
262.409	0.34
262.626	35.16
262.842	22.87
263.058	26.96
263.274	47.44
263.49	-54.95
263.707	-11.95
263.923	22.87
264.139	2.39
264.355	10.58
264.571	112.98
264.787	-48.81
265.004	12.63
265.22	2.39
265.436	35.16
265.652	-18.09
265.868	2.39
266.084	35.16
266.3	65.88
266.516	51.54
266.732	31.06
266.948	26.96
267.164	-26.28
267.38	-1.71
267.596	-16.04
267.812	63.83
268.028	-26.28
268.244	82.26
268.46	2.39
268.676	-11.95
268.892	22.87
269.108	8.53
269.324	10.58
269.54	72.02
269.756	4.44
269.972	-38.57
270.188	-52.91
270.403	31.06
270.619	-18.09
270.835	69.97
271.051	-22.19
271.267	-9.9
271.483	-42.67
271.698	6.49
271.914	4.44
272.13	35.16
272.346	39.25
272.562	-11.95
272.777	92.5
272.993	6.49
273.209	-5.8
273.425	51.54
273.64	6.49
273.856	31.06
274.072	-5.8
274.287	45.4
274.503	2.39
274.719	61.78
274.934	55.64
275.15	-18.09
275.366	92.5
275.581	-36.52
275.797	59.73
276.012	-13.99
276.228	2.39
276.444	2.39
276.659	39.25
276.875	67.92
277.09	-5.8
277.306	-48.81
277.521	2.39
277.737	49.49
277.952	55.64
278.168	57.68
278.383	47.44
278.599	18.77
278.814	76.12
279.03	-11.95
279.245	-18.09
279.461	-5.8
279.676	4.44
279.892	-75.43
280.107	16.73
280.322	31.06
280.538	-9.9
280.753	24.92
280.969	8.53
281.184	-38.57
281.399	57.68
281.615	51.54
281.83	-13.99
282.045	-18.09
282.26	61.78
282.476	14.68
282.691	47.44
282.906	8.53
283.122	26.96
283.337	-24.23
283.552	29.01
283.767	-34.47
283.983	37.2
284.198	-26.28
284.413	37.2
284.628	-50.86
284.843	45.4
285.058	-38.57
285.274	26.96
285.489	14.68
285.704	-40.62
285.919	-3.75
286.134	51.54
286.349	35.16
286.564	2.39
286.779	20.82
286.995	49.49
287.21	-61.1
287.425	67.92
287.64	22.87
287.855	-24.23
288.07	2.39
288.285	0.34
288.5	80.21
288.715	31.06
288.93	-87.72
289.145	0.34
289.36	18.77
289.575	-7.85
289.79	33.11
290.004	45.4
290.219	90.45
290.434	-1.71
290.649	16.73
290.864	53.59
291.079	-50.86
291.294	-1.71
291.509	12.63
291.724	61.78
291.938	-18.09
292.153	10.58
292.368	-3.75
292.583	24.92
292.798	102.74
293.012	61.78
293.227	-20.14
293.442	55.64
293.657	26.96
293.871	-1.71
294.086	-9.9
294.301	24.92
294.516	22.87
294.73	31.06
294.945	49.49
295.16	-38.57
295.374	-11.95
295.589	65.88
295.804	-30.38
296.018	33.11
296.233	86.36
296.447	20.82
296.662	39.25
296.877	29.01
297.091	18.77
297.306	14.68
297.52	31.06
297.735	51.54
297.949	26.96
298.164	-50.86
298.378	26.96
298.593	-52.91
298.807	-18.09
299.022	0.34
299.236	14.68
299.451	-83.63
299.665	12.63
299.88	-16.04
300.094	24.92
300.309	37.2
300.523	-22.19
300.737	-26.28
300.952	-3.75
301.166	53.59
301.381	76.12
301.595	-18.09
301.809	35.16
302.024	-44.71
302.238	-44.71
302.452	0.34
302.667	47.44
302.881	59.73
303.095	20.82
303.309	35.16
303.524	-1.71
303.738	-9.9
303.952	-1.71
304.166	78.16
304.381	-5.8
304.595	-26.28
304.809	6.49
305.023	37.2
305.237	29.01
305.452	6.49
305.666	22.87
305.88	29.01
306.094	39.25
306.308	31.06
306.522	104.79
306.736	-1.71
306.95	24.92
307.164	26.96
307.379	26.96
307.593	35.16
307.807	4.44
308.021	4.44
308.235	63.83
308.449	69.97
308.663	72.02
308.877	41.3
309.091	59.73
309.305	47.44
309.519	12.63
309.733	31.06
309.947	-9.9
310.161	-7.85
310.374	-22.19
310.588	41.3
310.802	-32.43
311.016	2.39
311.23	18.77
311.444	39.25
311.658	26.96
311.872	31.06
312.085	6.49
312.299	31.06
312.513	31.06
312.727	31.06
312.941	-11.95
313.154	29.01
313.368	80.21
313.582	-32.43
313.796	-32.43
314.009	-34.47
314.223	-30.38
314.437	-9.9
314.651	74.07
314.864	63.83
315.078	35.16
315.292	16.73
315.505	-100.01
315.719	26.96
315.933	-7.85
316.146	47.44
316.36	45.4
316.573	16.73
316.787	-40.62
317.001	45.4
317.214	14.68
317.428	6.49
317.641	-28.33
317.855	53.59
318.068	65.88
318.282	-18.09
318.495	-7.85
318.709	76.12
318.922	-24.23
319.136	2.39
319.349	-5.8
319.563	-67.24
319.776	59.73
319.99	12.63
320.203	43.35
320.417	45.4
320.63	-11.95
320.843	92.5
321.057	35.16
321.27	4.44
321.483	-38.57
321.697	102.74
321.91	26.96
322.124	72.02
322.337	-67.24
322.55	20.82
322.763	-3.75
322.977	37.2
323.19	-54.95
323.403	-18.09
323.617	59.73
323.83	20.82
324.043	65.88
324.256	63.83
324.469	22.87
324.683	53.59
324.896	35.16
325.109	43.35
325.322	-87.72
325.535	22.87
325.748	2.39
325.962	10.58
326.175	-38.57
326.388	67.92
326.601	33.11
326.814	61.78
327.027	35.16
327.24	6.49
327.453	88.4
327.666	6.49
327.879	72.02
328.092	-11.95
328.305	8.53
328.518	4.44
328.731	59.73
328.944	16.73
329.157	29.01
329.37	22.87
329.583	14.68
329.796	63.83
330.009	16.73
330.222	65.88
330.435	90.45
330.648	74.07
330.861	10.58
331.073	2.39
331.286	59.73
331.499	90.45
331.712	-34.47
331.925	65.88
332.138	-38.57
332.35	24.92
332.563	45.4
332.776	14.68
332.989	-40.62
333.202	35.16
333.414	100.69
333.627	112.98
333.84	94.55
334.053	2.39
334.265	43.35
334.478	20.82
334.691	31.06
334.903	-7.85
335.116	0.34
335.329	53.59
335.541	63.83
335.754	72.02
335.966	-28.33
336.179	43.35
336.392	37.2
336.604	-52.91
336.817	47.44
337.029	65.88
337.242	16.73
337.454	45.4
337.667	-16.04
337.88	18.77
338.092	-24.23
338.305	39.25
338.517	37.2
338.729	55.64
338.942	31.06
339.154	-22.19
339.367	18.77
339.579	49.49
339.792	-110.25
340.004	10.58
340.217	63.83
340.429	12.63
340.641	-52.91
340.854	-61.1
341.066	49.49
341.278	-24.23
341.491	37.2
341.703	10.58
341.915	47.44
342.128	92.5
342.34	8.53
342.552	69.97
342.764	39.25
342.977	31.06
343.189	39.25
343.401	63.83
343.613	39.25
343.826	61.78
344.038	-57
344.25	-16.04
344.462	41.3
344.674	29.01
344.886	10.58
345.099	37.2
345.311	12.63
345.523	35.16
345.735	-38.57
345.947	-24.23
346.159	-28.33
346.371	43.35
346.583	-46.76
346.795	55.64
347.007	47.44
347.219	-91.82
347.431	22.87
347.643	31.06
347.855	24.92
348.067	65.88
348.279	-5.8
348.491	90.45
348.703	53.59
348.915	33.11
349.127	-22.19
349.339	4.44
349.551	-28.33
349.763	-36.52
349.975	135.51
350.187	80.21
350.399	67.92
350.61	-20.14
350.822	37.2
351.034	55.64
351.246	67.92
351.458	74.07
351.669	31.06
351.881	49.49
352.093	12.63
352.305	10.58
352.517	106.84
352.728	100.69
352.94	-5.8
353.152	24.92
353.363	20.82
353.575	-28.33
353.787	72.02
353.999	-16.04
354.21	53.59
354.422	2.39
354.633	14.68
354.845	22.87
355.057	39.25
355.268	53.59
355.48	43.35
355.692	47.44
355.903	-26.28
356.115	84.31
356.326	10.58
356.538	-3.75
356.749	37.2
356.961	57.68
357.172	31.06
357.384	20.82
357.595	72.02
357.807	29.01
358.018	33.11
358.23	39.25
358.441	53.59
358.653	31.06
358.864	-30.38
359.075	-7.85
359.287	22.87
359.498	63.83
359.709	45.4
359.921	-16.04
360.132	88.4
360.344	20.82
360.555	-22.19
360.766	4.44
360.977	-26.28
361.189	-20.14
361.4	63.83
361.611	37.2
361.823	37.2
362.034	43.35
362.245	-71.34
362.456	65.88
362.667	74.07
362.879	-1.71
363.09	31.06
363.301	125.27
363.512	65.88
363.723	121.17
363.935	18.77
364.146	86.36
364.357	-9.9
364.568	20.82
364.779	43.35
364.99	72.02
365.201	4.44
365.412	65.88
365.623	-11.95
365.834	-1.71
366.045	10.58
366.256	96.6
366.467	29.01
366.678	-24.23
366.889	2.39
367.1	-71.34
367.311	43.35
367.522	16.73
367.733	12.63
367.944	72.02
368.155	-36.52
368.366	57.68
368.577	45.4
368.788	84.31
368.999	55.64
369.209	14.68
369.42	24.92
369.631	84.31
369.842	20.82
370.053	12.63
370.264	39.25
370.474	4.44
370.685	53.59
370.896	43.35
371.107	-1.71
371.317	86.36
371.528	10.58
371.739	96.6
371.95	22.87
372.16	39.25
372.371	-40.62
372.582	12.63
372.792	47.44
373.003	37.2
373.214	-16.04
373.424	74.07
373.635	-18.09
373.846	51.54
374.056	35.16
374.267	106.84
374.477	55.64
374.688	-32.43
374.898	61.78
375.109	-26.28
375.319	72.02
375.53	22.87
375.74	-7.85
375.951	33.11
376.161	82.26
376.372	35.16
376.582	41.3
376.793	14.68
377.003	-38.57
377.214	18.77
377.424	43.35
377.635	49.49
377.845	10.58
378.055	22.87
378.266	57.68
378.476	53.59
378.686	55.64
378.897	8.53
379.107	35.16
379.317	29.01
379.528	45.4
379.738	-9.9
379.948	35.16
380.158	53.59
380.369	72.02
380.579	14.68
380.789	-38.57
380.999	59.73
381.21	2.39
381.42	82.26
381.63	-34.47
381.84	104.79
382.05	0.34
382.261	84.31
382.471	41.3
382.681	0.34
382.891	-3.75
383.101	35.16
383.311	14.68
383.521	49.49
383.731	6.49
383.941	20.82
384.151	12.63
384.361	-18.09
384.571	41.3
384.781	0.34
384.991	86.36
385.201	20.82
385.411	61.78
385.621	31.06
385.831	84.31
386.041	47.44
386.251	14.68
386.461	86.36
386.671	31.06
386.881	16.73
387.091	22.87
387.301	90.45
387.511	-1.71
387.72	26.96
387.93	-13.99
388.14	12.63
388.35	65.88
388.56	41.3
388.769	133.46
388.979	94.55
389.189	119.12
389.399	67.92
389.609	78.16
389.818	72.02
390.028	0.34
390.238	31.06
390.447	78.16
390.657	49.49
390.867	10.58
391.076	123.22
391.286	33.11
391.496	22.87
391.705	-16.04
391.915	76.12
392.125	-1.71
392.334	-13.99
392.544	6.49
392.753	76.12
392.963	51.54
393.172	33.11
393.382	61.78
393.591	43.35
393.801	33.11
394.01	96.6
394.22	86.36
394.429	45.4
394.639	53.59
394.848	153.94
395.058	6.49
395.267	69.97
395.477	74.07
395.686	43.35
395.895	145.75
396.105	96.6
396.314	63.83
396.524	119.12
396.733	59.73
396.942	135.51
397.152	112.98
397.361	51.54
397.57	82.26
397.78	53.59
397.989	22.87
398.198	176.47
398.407	41.3
398.617	39.25
398.826	86.36
399.035	88.4
399.244	137.56
399.453	141.65
399.663	135.51
399.872	139.6
400.081	49.49
400.29	149.84
400.499	43.35
400.708	106.84
400.917	67.92
401.127	76.12
401.336	57.68
401.545	117.08
401.754	155.99
401.963	92.5
402.172	72.02
402.381	76.12
402.59	115.03
402.799	129.36
403.008	115.03
403.217	102.74
403.426	84.31
403.635	131.41
403.844	129.36
404.053	127.32
404.262	88.4
404.471	151.89
404.68	102.74
404.888	172.37
405.097	141.65
405.306	88.4
405.515	102.74
405.724	205.14
405.933	219.47
406.142	131.41
406.35	168.27
406.559	350.54
406.768	170.32
406.977	207.19
407.185	248.15
407.394	201.04
407.603	205.14
407.812	270.67
408.02	174.42
408.229	274.77
408.438	278.87
408.646	256.34
408.855	227.67
409.064	268.63
409.272	280.91
409.481	346.45
409.69	364.88
409.898	282.96
410.107	342.35
410.315	366.93
410.524	348.5
410.733	309.58
410.941	385.36
411.15	432.46
411.358	401.74
411.567	463.18
411.775	463.18
411.984	432.46
412.192	457.04
412.401	473.42
412.609	395.6
412.818	416.08
413.026	559.44
413.234	559.44
413.443	584.01
413.651	614.73
413.86	575.82
414.068	661.84
414.276	674.12
414.485	618.83
414.693	635.21
414.901	708.94
415.11	692.55
415.318	725.32
415.526	747.85
415.734	827.72
415.943	811.34
416.151	889.16
416.359	915.78
416.567	942.41
416.776	1005.89
416.984	981.32
417.192	1020.23
417.4	1014.09
417.608	1091.91
417.817	1112.39
418.025	1145.16
418.233	1237.31
418.441	1210.69
418.649	1337.66
418.857	1384.77
419.065	1403.2
419.273	1364.29
419.481	1419.58
419.689	1644.86
419.897	1446.21
420.105	1634.62
420.313	1673.53
420.521	1675.58
420.729	1814.84
420.937	1761.59
421.145	1714.49
421.353	1947.96
421.561	2134.32
421.769	2140.47
421.977	2189.62
422.185	2122.04
422.393	2353.46
422.601	2488.62
422.809	2404.66
423.017	2505.01
423.224	2525.49
423.432	2666.8
423.64	2705.71
423.848	3076.39
424.056	2877.74
424.263	3035.43
424.471	3117.35
424.679	3172.64
424.887	3260.71
425.094	3459.36
425.302	3311.91
425.51	3569.95
425.718	3735.84
425.925	3772.7
426.133	3782.94
426.341	4112.66
426.548	4243.73
426.756	4202.77
426.964	4260.12
427.171	4540.69
427.379	4602.13
427.586	4696.33
427.794	4915.47
428.001	5050.63
428.209	5251.33
428.417	5134.6
428.624	5710.08
428.832	5714.17
429.039	5587.2
429.247	5515.52
429.454	6160.63
429.662	6527.22
429.869	6097.14
430.076	6519.03
430.284	6467.83
430.491	6619.38
430.699	7110.89
430.906	7002.35
431.114	6975.72
431.321	7366.88
431.528	7516.39
431.736	8012
431.943	8141.02
432.15	8057.05
432.358	8120.54
432.565	8523.99
432.772	8497.36
432.979	8935.63
433.187	9302.22
433.394	9291.98
433.601	9877.69
433.808	9879.74
434.016	9765.06
434.223	10318.01
434.43	10815.66
434.637	10641.59
434.844	11161.77
435.052	11413.67
435.259	11253.93
435.466	11464.87
435.673	11403.43
435.88	12079.26
436.087	12624.02
436.294	12824.72
436.501	12400.79
436.708	12689.56
436.915	13131.92
437.122	13959.3
437.329	13889.67
437.537	14207.1
437.743	14565.5
437.95	14121.09
438.157	14977.14
438.364	15597.67
438.571	15450.22
438.778	15659.11
438.985	16965.71
439.192	16371.8
439.399	16840.79
439.606	16468.06
439.813	17467.47
440.02	18167.87
440.227	17924.16
440.433	17915.97
440.64	18583.61
440.847	18565.18
441.054	19017.78
441.261	20097.06
441.467	19943.46
441.674	20455.45
441.881	20776.98
442.088	20822.04
442.294	20389.92
442.501	21487.63
442.708	21745.67
442.914	22775.8
443.121	23717.87
443.328	23183.35
443.534	24281.06
443.741	23760.87
443.948	23619.56
444.154	25360.34
444.361	25278.42
444.568	25753.55
444.774	25307.09
444.981	25386.96
445.187	26075.08
445.394	27817.9
445.6	26959.8
445.807	29329.3
446.013	28358.56
446.22	28956.57
446.426	30281.61
446.633	30496.64
446.839	31215.48
447.046	29773.71
447.252	31821.68
447.459	31688.56
447.665	31424.37
447.871	32780.13
448.078	34090.83
448.284	32296.81
448.491	33382.23
448.697	34623.3
448.903	35262.27
449.11	35508.02
449.316	34848.58
449.522	35530.55
449.728	36003.63
449.935	36577.06
450.141	36978.47
450.347	37396.25
450.553	36380.46
450.76	36861.73
450.966	37949.2
451.172	37502.75
451.378	38203.15
451.584	37318.43
451.791	38360.84
451.997	38283.02
452.203	38805.25
452.409	38983.43
452.615	38747.91
452.821	37357.34
453.027	36892.45
453.233	38874.88
453.44	37267.23
453.646	37717.78
453.852	37676.82
454.058	38360.84
454.264	37140.25
454.47	37959.44
454.676	37199.65
454.882	38016.79
455.088	34488.14
455.294	35202.88
455.5	36020.02
455.705	36597.54
455.911	35028.8
456.117	34316.11
456.323	33662.8
456.529	31922.03
456.735	33220.44
456.941	32147.31
457.147	31965.04
457.352	30826.37
457.558	30396.29
457.764	30353.29
457.97	29912.97
458.176	29161.37
458.381	29403.03
458.587	28045.23
458.793	27690.93
458.999	26619.84
459.204	28415.91
459.41	27717.55
459.616	25853.9
459.821	25808.84
460.027	25759.69
460.233	25427.92
460.438	24053.73
460.644	24029.16
460.85	23039.99
461.055	22611.96
461.261	22419.46
461.466	21037.08
461.672	20324.38
461.878	21450.77
462.083	20422.69
462.289	19978.28
462.494	19671.08
462.7	18849.85
462.905	18518.07
463.111	19159.09
463.316	19198
463.522	18784.31
463.727	18831.41
463.932	18681.91
464.138	18319.42
464.343	18436.16
464.549	18016.32
464.754	18749.5
464.959	18556.99
465.165	18294.85
465.37	17846.34
465.575	17117.26
465.781	17678.41
465.986	18022.47
466.191	17514.57
466.397	16986.19
466.602	16148.57
466.807	16906.32
467.012	16808.02
467.218	16744.53
467.423	16312.41
467.628	16719.96
467.833	17457.23
468.038	16824.4
468.244	16080.99
468.449	16945.23
468.654	16150.62
468.859	16195.68
469.064	16115.81
469.269	15548.52
469.474	15902.82
469.679	15736.93
469.885	15202.41
470.09	15806.56
470.295	15538.28
470.5	15118.45
470.705	15054.96
470.91	14631.03
471.115	14723.19
471.32	14827.64
471.525	14657.65
471.73	14395.51
471.935	14571.64
472.139	13990.02
472.344	13967.49
472.549	13899.91
472.754	13797.51
472.959	13363.34
473.164	13326.47
473.369	12896.4
473.574	13568.13
473.778	13494.41
473.983	13181.07
474.188	13199.5
474.393	12681.36
474.598	12572.82
474.802	12376.22
475.007	12404.89
475.212	12390.55
475.417	11964.57
475.621	12083.36
475.826	12157.08
476.031	11862.18
476.235	11616.42
476.44	11853.98
476.645	11428.01
476.849	11622.56
477.054	11337.9
477.259	11202.73
477.463	11233.45
477.668	10956.97
477.872	11063.47
478.077	10905.77
478.282	10776.75
478.486	10381.49
478.691	10469.56
478.895	10543.28
479.1	10514.61
479.304	10561.72
479.509	10277.05
479.713	10133.69
479.918	10043.58
480.122	10117.31
480.326	9967.81
480.531	10123.45
480.735	9949.37
480.94	9939.13
481.144	10301.62
481.348	9633.99
481.553	9754.82
481.757	9715.91
481.961	9627.84
482.166	9803.97
482.37	9625.79
482.574	9509.06
482.778	9539.78
482.983	9830.59
483.187	9576.64
483.391	9644.23
483.595	9666.75
483.8	9398.47
484.004	9502.92
484.208	9816.26
484.412	9668.8
484.616	9552.07
484.821	9607.36
485.025	9601.22
485.229	9736.38
485.433	9730.24
485.637	9728.19
485.841	9533.64
486.045	9396.42
486.249	9472.2
486.453	9498.82
486.657	9531.59
486.861	9676.99
487.065	9296.07
487.269	9646.27
487.473	9527.49
487.677	9840.83
487.881	9830.59
488.085	9593.03
488.289	9599.17
488.493	9560.26
488.697	9834.69
488.901	9697.47
489.105	9720
489.309	9623.75
489.512	9783.49
489.716	9769.15
489.92	9545.92
490.124	9652.42
490.328	9877.69
490.531	9818.3
490.735	9785.54
490.939	10143.93
491.143	9867.45
491.346	9863.36
491.55	10199.23
491.754	10152.12
491.958	10244.28
492.161	10047.68
492.365	10074.3
492.569	10000.57
492.772	10199.23
492.976	10279.1
493.18	10365.11
493.383	10496.18
493.587	10430.65
493.79	10561.72
493.994	10340.54
494.197	10547.38
494.401	10842.29
494.605	10682.55
494.808	10946.73
495.012	10965.17
495.215	11004.08
495.419	10920.11
495.622	11004.08
495.825	11131.05
496.029	11086
496.232	11514.02
496.436	11247.79
496.639	11540.65
496.843	11761.83
497.046	11800.74
497.249	12122.27
497.453	11878.56
497.656	12296.35
497.859	12157.08
498.063	12290.2
498.266	12669.08
498.469	12630.16
498.673	12486.81
498.876	12791.95
499.079	12732.56
499.282	12918.93
499.485	13080.72
499.689	13318.28
499.892	13416.58
500.095	13484.17
500.298	13717.64
500.501	13525.13
500.705	14024.83
500.908	14160
501.111	14293.12
501.314	14577.78
501.517	14557.3
501.72	14846.07
501.923	14805.11
502.126	14993.52
502.329	15351.92
502.532	15403.11
502.735	15530.09
502.938	15923.3
503.141	15888.48
503.344	15911.01
503.547	15915.11
503.75	16244.83
503.953	16660.57
504.156	16658.52
504.359	16984.15
504.562	16922.71
504.765	17211.47
504.968	17637.45
505.17	17639.5
505.373	17383.5
505.576	17924.16
505.779	18135.1
505.982	18165.82
506.185	18511.93
506.387	18589.75
506.59	18638.9
506.793	19054.64
506.996	19118.13
507.198	19513.39
507.401	19445.8
507.604	19800.1
507.807	20052
508.009	20156.45
508.212	20498.46
508.415	20711.45
508.617	20647.96
508.82	20977.69
509.022	20912.15
509.225	21561.36
509.428	21522.44
509.63	21850.12
509.833	21882.89
510.035	22521.85
510.238	22231.04
510.44	22413.31
510.643	23113.72
510.845	22974.45
511.048	23076.85
511.25	23449.58
511.453	23556.08
511.655	24373.22
511.858	23775.21
512.06	24115.17
512.262	24508.38
512.465	24573.92
512.667	24750.04
512.87	25155.54
513.072	25339.86
513.274	25800.65
513.477	25915.34
513.679	26163.14
513.881	26415.04
514.084	26775.48
514.286	26838.97
514.488	26816.44
514.69	27852.72
514.893	27545.52
515.095	27713.45
515.297	28106.66
515.499	28041.13
515.701	28321.7
515.904	28852.13
516.106	28940.19
516.308	29257.62
516.51	29802.38
516.712	29403.03
516.914	30021.52
517.116	30439.3
517.318	30328.71
517.52	30607.23
517.722	30693.25
517.925	31197.05
518.127	31756.14
518.329	31401.85
518.531	31416.18
518.733	32003.95
518.935	32520.04
519.136	32124.78
519.338	32868.19
519.54	32960.35
519.742	33630.04
519.944	33175.39
520.146	34017.1
520.348	33924.94
520.55	34039.63
520.752	34322.25
520.954	35020.61
521.155	34670.4
521.357	35161.92
521.559	35278.65
521.761	35833.65
521.963	35647.29
522.164	35925.81
522.366	36118.32
522.568	36587.3
522.77	36663.08
522.971	37234.46
523.173	37162.78
523.375	37457.69
523.576	37543.7
523.778	37347.1
523.98	37981.97
524.181	38504.2
524.383	38092.56
524.584	38567.69
524.786	38420.24
524.988	38964.99
525.189	39317.25
525.391	39128.83
525.592	39653.11
525.794	39493.37
525.995	39837.43
526.197	39620.34
526.398	39612.15
526.6	39868.15
526.801	40650.47
527.003	40421.1
527.204	40466.16
527.406	40812.26
527.607	40648.43
527.808	41244.38
528.01	40476.4
528.211	40828.65
528.412	41709.27
528.614	41596.63
528.815	41586.39
529.016	41948.89
529.218	41428.7
529.419	41815.77
529.62	41809.62
529.822	41582.3
530.023	41797.34
530.224	42237.65
530.425	42319.57
530.626	42217.17
530.828	41653.98
531.029	42917.57
531.23	42450.64
531.431	42168.02
531.632	42368.72
531.833	42389.2
532.035	42688.2
532.236	42794.7
532.437	42833.61
532.638	42778.31
532.839	42909.38
533.04	42524.36
533.241	42596.04
533.442	43364.03
533.643	42829.51
533.844	42845.9
534.045	43144.9
534.246	42700.49
534.447	43212.48
534.648	43032.26
534.849	43167.43
535.05	42397.39
535.251	42745.55
535.451	42661.58
535.652	42989.25
535.853	43208.39
536.054	43065.03
536.255	43179.71
536.456	42530.51
536.657	43632.32
536.857	42915.53
537.058	42989.25
537.259	43237.06
537.46	43355.84
537.66	42974.92
537.861	43255.49
538.062	42602.19
538.263	43071.17
538.463	42567.37
538.664	42485.45
538.865	42862.28
539.065	43237.06
539.266	42708.68
539.466	43204.29
539.667	42413.77
539.868	43343.55
540.068	43187.91
540.269	42778.31
540.469	43282.11
540.67	42974.92
540.87	42893
541.071	43214.53
541.271	43007.69
541.472	43146.95
541.672	42444.49
541.873	42663.63
542.073	42710.73
542.274	43028.16
542.474	42598.09
542.675	42669.77
542.875	42972.87
543.075	42868.42
543.276	42415.82
543.476	43036.36
543.676	42452.69
543.877	42667.72
544.077	42852.04
544.277	42356.43
544.478	42272.46
544.678	42968.77
544.878	42761.93
545.078	42770.12
545.279	42645.19
545.479	42450.64
545.679	42690.25
545.879	42385.1
546.079	42436.3
546.28	42571.47
546.48	42299.09
546.68	42870.47
546.88	42880.71
547.08	42563.28
547.28	42870.47
547.48	42311.38
547.68	42624.71
547.88	42763.98
548.081	42378.96
548.281	42168.02
548.481	42227.41
548.681	42309.33
548.881	42542.8
549.081	42624.71
549.28	42129.11
549.48	42483.41
549.68	42049.24
549.88	42811.08
550.08	42114.77
550.28	42612.43
550.48	42329.81
550.68	42682.06
550.88	41885.4
551.08	42479.31
551.279	42090.2
551.479	41752.28
551.679	42462.93
551.879	41922.26
552.079	42362.57
552.278	42223.31
552.478	41967.32
552.678	42006.23
552.878	42364.62
553.077	41799.38
553.277	41778.9
553.477	42090.2
553.676	41926.36
553.876	41856.73
554.076	41742.04
554.275	41746.14
554.475	41733.85
554.674	41774.81
554.874	41682.65
555.074	41440.99
555.273	41789.14
555.473	42157.78
555.672	41647.83
555.872	41647.83
556.071	41668.31
556.271	41758.42
556.47	41506.52
556.67	41289.44
556.869	41156.32
557.068	41230.05
557.268	40963.81
557.467	41236.19
557.667	41119.46
557.866	41520.86
558.065	41041.64
558.265	40826.6
558.464	40627.95
558.663	41035.49
558.863	40750.82
559.062	41283.3
559.261	40177.39
559.461	41348.83
559.66	40312.56
559.859	41027.3
560.058	40019.7
560.258	40374
560.457	39991.03
560.656	40650.47
560.855	40146.67
561.054	40300.27
561.253	39988.98
561.453	40132.34
561.652	40199.92
561.851	40206.06
562.05	40146.67
562.249	39655.16
562.448	40255.22
562.647	39939.83
562.846	40109.81
563.045	40007.41
563.244	39692.02
563.443	39804.66
563.642	38997.76
563.841	39300.86
564.04	39091.97
564.239	39311.1
564.438	39335.68
564.637	39526.14
564.836	39614.2
565.035	38969.09
565.234	39120.64
565.432	38840.07
565.631	39171.84
565.83	39139.07
566.029	38530.83
566.228	38254.35
566.427	38545.16
566.625	38385.42
566.824	37752.6
567.023	38557.45
567.222	37451.55
567.42	38465.29
567.619	38049.55
567.818	38047.5
568.016	37617.43
568.215	38123.28
568.414	37527.32
568.612	37977.87
568.811	37619.48
569.01	37656.34
569.208	36742.95
569.407	37623.58
569.605	36937.51
569.804	37394.2
570.002	36994.85
570.201	37275.42
570.4	37080.86
570.598	36622.12
570.797	36624.17
570.995	36941.6
571.193	35919.67
571.392	36675.37
571.59	36364.07
571.789	36476.71
571.987	36280.11
572.186	36347.69
572.384	36505.38
572.582	36071.21
572.781	36437.8
572.979	35553.08
573.177	35870.51
573.376	36155.18
573.574	35452.73
573.772	35708.72
573.971	35845.94
574.169	35104.57
574.367	35051.33
574.565	35413.82
574.763	34957.12
574.962	35028.8
575.16	34484.04
575.358	35028.8
575.556	34324.3
575.754	35012.42
575.952	34340.68
576.151	34555.72
576.349	34094.93
576.547	34172.75
576.745	34557.77
576.943	34230.09
577.141	34056.01
577.339	34221.9
577.537	34049.87
577.735	34000.72
577.933	33331.03
578.131	33824.59
578.329	33748.82
578.527	33763.15
578.725	33300.31
578.923	33472.34
579.121	33124.19
579.319	32874.34
579.516	33193.82
579.714	33429.34
579.912	33075.04
580.11	32786.27
580.308	33079.13
580.506	32917.34
580.704	32186.22
580.901	32870.24
581.099	32872.29
581.297	32405.35
581.495	32153.45
581.692	32458.6
581.89	32071.53
582.088	32565.09
582.285	31942.51
582.483	32341.86
582.681	31852.4
582.878	31807.34
583.076	31397.75
583.274	32001.9
583.471	31342.46
583.669	31653.75
583.866	31465.33
584.064	31991.66
584.262	31145.85
584.459	31383.41
584.657	31088.51
584.854	31235.96
585.052	30648.19
585.249	30887.81
585.447	31145.85
585.644	30873.47
585.841	30281.61
586.039	30818.18
586.236	30510.98
586.434	30674.82
586.631	30283.66
586.828	29939.6
587.026	30300.04
587.223	30009.23
587.42	29806.48
587.618	30216.07
587.815	29718.42
588.012	29634.45
588.21	29556.63
588.407	30005.13
588.604	29185.94
588.801	29228.95
588.999	29593.49
589.196	29187.99
589.393	29208.47
589.59	28829.6
589.787	28774.3
589.984	28651.42
590.182	28753.82
590.379	28716.96
590.576	28944.28
590.773	28237.73
590.97	28215.21
591.167	28413.86
591.364	28336.04
591.561	28614.56
591.758	28014.51
591.955	28032.94
592.152	28475.3
592.349	27719.6
592.546	28057.51
592.743	28180.39
592.94	27475.89
593.137	27795.37
593.334	27781.04
593.531	27086.78
593.727	27522.99
593.924	27443.12
594.121	27213.75
594.318	27426.74
594.515	27013.05
594.712	27219.89
594.908	26836.92
595.105	27160.5
595.302	26894.27
595.499	26836.92
595.696	26822.59
595.892	26517.44
596.089	26767.29
596.286	26224.58
596.482	26517.44
596.679	26243.01
596.876	26501.06
597.072	26050.5
597.269	26259.4
597.466	25792.46
597.662	25778.12
597.859	25927.63
598.055	26087.37
598.252	25700.3
598.448	25403.35
598.645	25532.37
598.841	25333.71
599.038	25491.41
599.234	25389.01
599.431	25051.1
599.627	24977.37
599.824	25221.08
600.02	24889.31
600.217	25159.64
600.413	24956.89
600.609	24870.87
600.806	24948.7
601.002	24829.91
601.198	24358.88
601.395	24358.88
601.591	24330.21
601.787	24369.12
601.984	23965.67
602.18	24473.57
602.376	24164.32
602.572	24010.73
602.769	23762.92
602.965	24129.51
603.161	23994.34
603.357	23758.83
603.553	23556.08
603.75	23705.58
603.946	23570.41
604.142	23660.52
604.338	23117.81
604.534	23840.75
604.73	23302.13
604.926	22902.78
605.122	23304.18
605.318	23283.7
605.514	22863.86
605.71	22853.62
605.906	22693.88
606.102	22571
606.298	22962.17
606.494	22941.69
606.69	22642.68
606.886	22632.44
607.082	22310.91
607.278	22732.79
607.474	22175.75
607.67	22323.2
607.866	22042.63
608.062	22290.43
608.257	22360.06
608.453	22669.31
608.649	22226.95
608.845	21958.66
609.041	22122.5
609.236	21835.78
609.432	21866.5
609.628	21663.75
609.824	21622.8
610.019	21936.13
610.215	21817.35
610.411	21860.36
610.606	21686.28
610.802	21790.73
610.998	21665.8
611.193	21555.21
611.389	21405.71
611.584	21307.41
611.78	21215.25
611.976	21116.95
612.171	21444.62
612.367	21288.98
612.562	21282.83
612.758	20856.86
612.953	20772.89
613.149	21225.49
613.344	20963.35
613.539	20977.69
613.735	21102.61
613.93	20830.23
614.126	20998.16
614.321	21049.36
614.517	20729.88
614.712	20576.28
614.907	20787.22
615.103	20709.4
615.298	20189.22
615.493	21172.24
615.688	20510.75
615.884	20750.36
616.079	20553.76
616.274	20619.29
616.47	20643.87
616.665	20320.29
616.86	20340.77
617.055	20236.32
617.25	19957.8
617.445	20342.81
617.641	19714.09
617.836	20275.23
618.031	19771.43
618.226	20385.82
618.421	19796.01
618.616	20183.07
618.811	19511.34
619.006	20011.04
619.201	19605.55
619.396	19789.86
619.591	19374.13
619.786	19732.52
619.981	19165.23
620.176	19064.88
620.371	19320.88
620.566	19130.42
620.761	19068.98
620.956	19408.94
621.151	18749.5
621.346	18911.28
621.541	18706.49
621.735	18671.67
621.93	18513.98
622.125	18446.4
622.32	18286.65
622.515	18346.05
622.709	18217.02
622.904	18260.03
623.099	17862.72
623.294	18210.88
623.488	17832.01
623.683	17922.12
623.878	17471.56
624.072	17598.54
624.267	17467.47
624.462	17356.88
624.656	17199.18
624.851	17309.77
625.046	17100.88
625.24	16912.47
625.435	16961.62
625.629	16891.99
625.824	16701.53
626.018	16801.88
626.213	16433.24
626.407	16496.73
626.602	16420.95
626.796	16275.55
626.991	16298.08
627.185	16468.06
627.38	16158.81
627.574	16195.68
627.768	15808.61
627.963	15708.26
628.157	15913.06
628.352	15538.28
628.546	15550.57
628.74	15792.23
628.935	15261.8
629.129	15247.47
629.323	14964.85
629.517	15267.95
629.712	14932.08
629.906	14960.75
630.1	14717.04
630.294	14712.95
630.489	14741.62
630.683	14715
630.877	14387.32
631.071	14788.72
631.265	14565.5
631.459	14348.41
631.653	14338.17
631.848	14196.86
632.042	14229.63
632.236	14381.18
632.43	13975.68
632.624	13957.25
632.818	13928.58
633.012	13736.07
633.206	13488.26
633.4	13721.73
633.594	13656.2
633.788	13561.99
633.982	13512.84
634.176	13328.52
634.369	13168.78
634.563	13111.44
634.757	13260.94
634.951	13217.93
635.145	13101.2
635.339	12880.02
635.533	12771.47
635.726	12656.79
635.92	12810.39
636.114	12675.22
636.308	12597.4
636.501	12578.97
636.695	12525.72
636.889	12449.94
637.083	12464.28
637.276	12085.4
637.47	12058.78
637.664	12077.21
637.857	12294.3
638.051	11968.67
638.244	12042.4
638.438	12040.35
638.632	11735.2
638.825	11704.48
639.019	11628.71
639.212	11511.97
639.406	11409.58
639.599	11471.01
639.793	11407.53
639.986	11327.66
640.18	11489.45
640.373	11264.17
640.567	11036.84
640.76	11253.93
640.954	11235.5
641.147	11106.48
641.34	11104.43
641.534	10946.73
641.727	10991.79
641.92	10860.72
642.114	10948.78
642.307	10926.25
642.5	10746.03
642.694	10592.44
642.887	10592.44
643.08	10614.96
643.273	10313.91
643.467	10309.82
643.66	10309.82
643.853	10541.24
644.046	10150.07
644.239	10092.73
644.432	10055.87
644.626	10033.34
644.819	9922.75
645.012	10049.72
645.205	9869.5
645.398	10025.15
645.591	9904.32
645.784	9861.31
645.977	9531.59
646.17	9773.25
646.363	9693.38
646.556	9472.2
646.749	9476.29
646.942	9693.38
647.135	9087.18
647.328	9271.5
647.521	9294.02
647.714	9513.16
647.907	9193.67
648.099	9193.67
648.292	9228.49
648.485	9087.18
648.678	9042.12
648.871	9050.32
649.064	8902.86
649.256	8956.11
649.449	9035.98
649.642	8612.05
649.835	8681.68
650.027	8800.46
650.22	8632.53
650.413	8509.65
650.605	8526.04
650.798	8607.95
650.991	8468.69
651.183	8413.4
651.376	8120.54
651.568	8515.8
651.761	8204.5
651.954	8335.57
652.146	8190.17
652.339	8267.99
652.531	8267.99
652.724	7942.36
652.916	7905.5
653.109	8028.38
653.301	7936.22
653.494	8007.9
653.686	7688.42
653.879	8001.76
654.071	7979.23
654.263	7719.14
654.456	7698.66
654.648	7657.7
654.84	7424.23
655.033	7594.21
655.225	7669.98
655.417	7543.01
655.61	7649.5
655.802	7557.35
655.994	7391.46
656.186	7338.21
656.379	7184.62
656.571	7291.11
656.763	7219.43
656.955	7145.7
657.148	7074.03
657.34	7225.58
657.532	7059.69
657.724	7069.93
657.916	6971.63
658.108	7063.79
658.3	7008.49
658.492	7123.18
658.684	6973.67
658.876	7076.07
659.068	6738.16
659.26	6803.69
659.452	6674.67
659.644	6951.15
659.836	6627.57
660.028	6775.02
660.22	6621.42
660.412	6521.07
660.604	6461.68
660.796	6545.65
660.988	6666.48
661.18	6295.8
661.372	6416.63
661.563	6500.59
661.755	6263.03
661.947	6412.53
662.139	6447.35
662.331	6297.85
662.522	6220.02
662.714	6215.93
662.906	6125.82
663.097	6119.67
663.289	6004.99
663.481	6127.86
663.673	6004.99
663.864	6000.89
664.056	6011.13
664.247	5996.79
664.439	5957.88
664.631	5900.54
664.822	5857.53
665.014	5832.96
665.205	5755.13
665.397	5660.93
665.588	5818.62
665.78	5705.98
665.971	5779.71
666.163	5560.58
666.354	5562.62
666.546	5695.74
666.737	5589.25
666.929	5445.89
667.12	5458.18
667.311	5509.38
667.503	5337.35
667.694	5404.93
667.885	5378.31
668.077	5464.32
668.268	5310.72
668.459	5384.45
668.651	5280
668.842	5304.58
669.033	5165.32
669.224	5173.51
669.416	5296.39
669.607	5218.57
669.798	5200.13
669.989	5220.61
670.18	5089.54
670.371	5083.4
670.563	5009.67
670.754	5062.92
670.945	4890.89
671.136	5050.63
671.327	4923.66
671.518	4966.67
671.709	4970.76
671.9	4888.84
672.091	4831.5
672.282	4907.27
672.473	4849.93
672.664	4765.96
672.855	4768.01
673.046	4706.57
673.237	4737.29
673.428	4790.54
673.619	4804.88
673.809	4700.43
674	4645.13
674.191	4600.08
674.382	4651.28
674.573	4610.32
674.764	4776.2
674.954	4458.77
675.145	4487.44
675.336	4407.57
675.527	4434.19
675.717	4575.5
675.908	4393.23
676.099	4382.99
676.289	4481.3
676.48	4428.05
676.671	4481.3
676.861	4505.87
677.052	4339.99
677.243	4319.51
677.433	4368.66
677.624	4436.24
677.814	4342.04
678.005	4378.9
678.195	4243.73
678.386	4282.64
678.576	4202.77
678.767	4210.97
678.957	4319.51
679.148	4225.3
679.338	4145.43
679.529	3995.93
679.719	4114.71
679.909	4149.53
680.1	4221.2
680.29	4233.49
680.481	4196.63
680.671	4098.33
680.861	4022.55
681.052	4081.94
681.242	3983.64
681.432	4073.75
681.622	4047.13
681.813	3893.53
682.003	4030.74
682.193	3922.2
682.383	3891.48
682.573	3899.67
682.764	4024.6
682.954	3952.92
683.144	3985.69
683.334	3827.99
683.524	3983.64
683.714	4083.99
683.904	3920.15
684.094	3873.05
684.284	3756.32
684.474	3938.59
684.664	3750.17
684.854	3914.01
685.044	3918.11
685.234	3707.16
685.424	3787.04
685.614	3827.99
685.804	3778.84
685.994	3690.78
686.184	3678.49
686.374	3846.43
686.564	3598.62
686.753	3608.86
686.943	3639.58
687.133	3641.63
687.323	3692.83
687.513	3713.31
687.702	3617.05
687.892	3590.43
688.082	3641.63
688.272	3508.51
688.461	3627.29
688.651	3604.77
688.841	3543.33
689.03	3453.22
689.22	3483.94
689.41	3438.88
689.599	3346.72
689.789	3447.07
689.979	3322.15
690.168	3457.31
690.358	3416.35
690.547	3301.67
690.737	3445.02
690.926	3264.8
691.116	3316
691.305	3172.64
691.495	3205.41
691.684	3211.56
691.874	3354.91
692.063	3303.71
692.252	3232.04
692.442	3299.62
692.631	3297.57
692.82	3143.97
693.01	3109.16
693.199	3229.99
693.388	3100.97
693.578	3143.97
693.767	3148.07
693.956	3135.78
694.146	3217.7
694.335	3004.71
694.524	3055.91
694.713	3078.44
694.902	3021.1
695.092	3019.05
695.281	3000.62
695.47	2986.28
695.659	2973.99
695.848	3051.81
696.037	2984.23
696.226	3035.43
696.415	2943.27
696.604	2914.6
696.793	2941.22
696.982	2969.9
697.171	2871.59
697.36	2910.5
697.549	2879.79
697.738	2834.73
697.927	2920.74
698.116	2869.55
698.305	2877.74
698.494	2894.12
698.683	2814.25
698.872	2732.33
699.061	2814.25
699.25	2855.21
699.438	2855.21
699.627	2752.81
699.816	2806.06
700.005	2834.73
700.193	2793.77
700.382	2910.5
700.571	2926.89
700.76	2861.35
700.948	2836.78
701.137	2890.03
701.326	2791.72
701.514	2750.76
701.703	2820.39
701.892	2644.27
702.08	2781.48
702.269	2664.75
702.457	2834.73
702.646	2687.28
702.834	2695.47
703.023	2695.47
703.212	2787.63
703.4	2763.05
703.589	2593.07
703.777	2748.72
703.965	2697.52
704.154	2664.75
704.342	2693.42
704.531	2701.61
704.719	2693.42
704.907	2728.24
705.096	2674.99
705.284	2664.75
705.472	2666.8
705.661	2672.94
705.849	2636.08
706.037	2572.59
706.226	2586.93
706.414	2713.9
706.602	2666.8
706.79	2611.5
706.979	2619.69
707.167	2613.55
707.355	2646.32
707.543	2797.87
707.731	2670.89
707.919	2705.71
708.107	2527.53
708.296	2736.43
708.484	2574.64
708.672	2611.5
708.86	2634.03
709.048	2664.75
709.236	2554.16
709.424	2636.08
709.612	2646.32
709.8	2582.83
709.988	2670.89
710.176	2767.15
710.364	2658.6
710.551	2638.13
710.739	2562.35
710.927	2666.8
711.115	2652.46
711.303	2586.93
711.491	2670.89
711.679	2613.55
711.866	2648.36
712.054	2533.68
712.242	2574.64
712.43	2674.99
712.617	2603.31
712.805	2464.05
712.993	2562.35
713.181	2451.76
713.368	2615.6
713.556	2513.2
713.744	2449.71
713.931	2658.6
714.119	2494.77
714.306	2498.86
714.494	2523.44
714.682	2494.77
714.869	2519.34
715.057	2595.12
715.244	2519.34
715.432	2531.63
715.619	2609.45
715.807	2529.58
715.994	2566.45
716.182	2513.2
716.369	2472.24
716.556	2492.72
716.744	2494.77
716.931	2466.1
717.119	2627.89
717.306	2509.1
717.493	2548.01
717.681	2582.83
717.868	2507.06
718.055	2519.34
718.242	2494.77
718.43	2484.53
718.617	2582.83
718.804	2482.48
718.991	2578.73
719.179	2421.04
719.366	2601.26
719.553	2660.65
719.74	2476.34
719.927	2578.73
720.114	2455.86
720.301	2525.49
720.488	2431.28
720.676	2509.1
720.863	2595.12
721.05	2457.9
721.237	2529.58
721.424	2396.46
721.611	2486.58
721.798	2470.19
721.985	2375.99
722.172	2390.32
722.358	2564.4
722.545	2320.69
722.732	2496.82
722.919	2578.73
723.106	2509.1
723.293	2441.52
723.48	2382.13
723.667	2459.95
723.853	2433.33
724.04	2464.05
724.227	2357.55
724.414	2498.86
724.6	2619.69
724.787	2488.62
724.974	2337.07
725.161	2330.93
725.347	2505.01
725.534	2502.96
725.72	2371.89
725.907	2474.29
726.094	2459.95
726.28	2455.86
726.467	2298.16
726.653	2369.84
726.84	2529.58
727.027	2414.9
727.213	2451.76
727.4	2457.9
727.586	2457.9
727.773	2470.19
727.959	2369.84
728.145	2502.96
728.332	2492.72
728.518	2468.14
728.705	2451.76
728.891	2472.24
729.077	2421.04
729.264	2470.19
729.45	2539.82
729.636	2369.84
729.823	2537.77
730.009	2390.32
730.195	2519.34
730.382	2502.96
730.568	2480.43
730.754	2435.38
730.94	2351.41
731.126	2447.66
731.313	2521.39
731.499	2462
731.685	2451.76
731.871	2445.62
732.057	2427.18
732.243	2386.22
732.429	2459.95
732.615	2400.56
732.801	2425.14
732.987	2431.28
733.173	2445.62
733.359	2425.14
733.545	2330.93
733.731	2380.08
733.917	2406.7
734.103	2390.32
734.289	2425.14
734.475	2498.86
734.661	2470.19
734.847	2380.08
735.033	2398.51
735.219	2474.29
735.404	2398.51
735.59	2285.87
735.776	2392.37
735.962	2410.8
736.148	2390.32
736.333	2269.49
736.519	2398.51
736.705	2308.4
736.89	2308.4
737.076	2404.66
737.262	2279.73
737.447	2218.29
737.633	2347.31
737.819	2339.12
738.004	2310.45
738.19	2296.11
738.375	2279.73
738.561	2412.85
738.747	2244.92
738.932	2281.78
739.118	2390.32
739.303	2249.01
739.489	2275.63
739.674	2318.64
739.859	2378.03
740.045	2224.44
740.23	2339.12
740.416	2287.92
740.601	2322.74
740.786	2287.92
740.972	2236.72
741.157	2240.82
741.342	2050.36
741.528	2224.44
741.713	2189.62
741.898	2249.01
742.084	2173.24
742.269	2310.45
742.454	2246.96
742.639	2261.3
742.824	2187.57
743.01	2183.48
743.195	2269.49
743.38	2140.47
743.565	2146.61
743.75	2140.47
743.935	2226.48
744.12	2091.32
744.305	2046.26
744.49	2058.55
744.675	2099.51
744.86	2193.72
745.045	2083.13
745.23	2128.18
745.415	2074.93
745.6	2056.5
745.785	2085.17
745.97	2113.85
746.155	2003.25
746.34	1984.82
746.525	2009.4
746.71	1999.16
746.895	1907
747.079	2029.88
747.264	2048.31
747.449	1904.95
747.634	1999.16
747.819	1921.34
748.003	1976.63
748.188	1831.23
748.373	1966.39
748.557	1972.54
748.742	1960.25
748.927	1882.42
749.111	1915.19
749.296	1866.04
749.481	1925.43
749.665	1841.47
749.85	1927.48
750.034	1833.27
750.219	1890.62
750.404	1800.51
750.588	1800.51
750.773	1706.3
750.957	1792.31
751.141	1657.15
751.326	1767.74
751.51	1630.52
751.695	1704.25
751.879	1612.09
752.064	1722.68
752.248	1595.71
752.432	1644.86
752.617	1632.57
752.801	1648.96
752.985	1612.09
753.17	1626.43
753.354	1626.43
753.538	1569.09
753.722	1526.08
753.907	1628.48
754.091	1542.46
754.275	1651
754.459	1456.45
754.643	1454.4
754.828	1376.58
755.012	1454.4
755.196	1397.06
755.38	1468.73
755.564	1493.31
755.748	1466.69
755.932	1485.12
756.116	1448.26
756.3	1409.34
756.484	1405.25
756.668	1466.69
756.852	1472.83
757.036	1425.73
757.22	1409.34
757.404	1425.73
757.588	1474.88
757.772	1370.43
757.956	1390.91
758.14	1280.32
758.323	1399.1
758.507	1282.37
758.691	1288.51
758.875	1339.71
759.059	1343.81
759.242	1263.94
759.426	1311.04
759.61	1360.19
759.794	1198.4
759.977	1304.9
760.161	1419.58
760.345	1298.75
760.528	1270.08
760.712	1225.03
760.895	1298.75
761.079	1192.26
761.263	1151.3
761.446	1241.41
761.63	1165.64
761.813	1259.84
761.997	1192.26
762.18	1194.31
762.364	1157.44
762.547	1102.15
762.731	1163.59
762.914	1179.97
763.098	1075.52
763.281	1126.72
763.464	1157.44
763.648	1161.54
763.831	1134.92
764.015	1071.43
764.198	1136.96
764.381	995.65
764.564	1118.53
764.748	1112.39
764.931	1057.09
765.114	1057.09
765.297	1145.16
765.481	1046.85
765.664	1118.53
765.847	1020.23
766.03	1040.71
766.213	1120.58
766.397	1169.73
766.58	991.56
766.763	1157.44
766.946	1022.28
767.129	1046.85
767.312	1112.39
767.495	966.98
767.678	989.51
767.861	1042.76
768.044	956.74
768.227	1061.19
768.41	1055.05
768.593	1001.8
768.776	1034.57
768.959	1030.47
769.142	1005.89
769.324	981.32
769.507	919.88
769.69	952.65
769.873	1014.09
770.056	1026.37
770.239	956.74
770.421	989.51
770.604	995.65
770.787	928.07
770.97	928.07
771.152	1009.99
771.335	897.35
771.518	944.45
771.7	909.64
771.883	919.88
772.066	913.74
772.248	856.39
772.431	868.68
772.613	899.4
772.796	874.82
772.978	1005.89
773.161	815.43
773.343	823.62
773.526	837.96
773.708	837.96
773.891	911.69
774.073	739.66
774.256	940.36
774.438	889.16
774.621	858.44
774.803	944.45
774.985	762.19
775.168	792.91
775.35	940.36
775.532	768.33
775.715	708.94
775.897	846.15
776.079	780.62
776.261	760.14
776.444	741.71
776.626	684.36
776.808	766.28
776.99	715.08
777.173	887.11
777.355	733.51
777.537	786.76
777.719	764.23
777.901	686.41
778.083	801.1
778.265	678.22
778.447	694.6
778.629	686.41
778.811	637.26
778.993	657.74
779.175	727.37
779.357	694.6
779.539	653.64
779.721	770.38
779.903	764.23
780.085	690.51
780.267	651.6
780.449	653.64
780.631	643.4
780.812	723.27
780.994	670.03
781.176	633.16
781.358	608.59
781.54	549.2
781.721	586.06
781.903	620.88
782.085	506.19
782.267	530.77
782.448	524.62
782.63	672.08
782.812	500.05
782.993	610.64
783.175	547.15
783.357	536.91
783.538	629.07
783.72	522.57
783.901	602.44
784.083	549.2
784.264	514.38
784.446	559.44
784.627	549.2
784.809	553.29
784.99	442.7
785.172	575.82
785.353	514.38
785.535	385.36
785.716	528.72
785.897	510.29
786.079	559.44
786.26	520.53
786.441	512.33
786.623	393.55
786.804	485.71
786.985	491.85
787.167	491.85
787.348	483.66
787.529	483.66
787.71	420.17
787.891	493.9
788.073	432.46
788.254	393.55
788.435	471.37
788.616	508.24
788.797	373.07
788.978	457.04
789.159	375.12
789.34	500.05
789.522	395.6
789.703	379.22
789.884	391.5
790.065	428.37
790.246	381.26
790.427	436.56
790.607	430.41
790.788	436.56
790.969	342.35
791.15	409.94
791.331	301.39
791.512	371.02
791.693	342.35
791.874	346.45
792.054	346.45
792.235	397.65
792.416	371.02
792.597	420.17
792.778	334.16
792.958	399.7
793.139	391.5
793.32	336.21
793.5	381.26
793.681	381.26
793.862	430.41
794.042	344.4
794.223	346.45
794.404	358.74
794.584	325.97
794.765	328.02
794.945	416.08
795.126	239.95
795.306	354.64
795.487	389.46
795.667	268.63
795.848	297.3
796.028	342.35
796.209	319.82
796.389	260.43
796.57	248.15
796.75	278.87
796.93	297.3
797.111	297.3
797.291	268.63
797.471	231.76
797.652	313.68
797.832	274.77
798.012	237.91
798.192	209.23
798.373	270.67
798.553	313.68
798.733	311.63
798.913	354.64
799.093	340.3
799.274	252.24
799.454	266.58
799.634	274.77
799.814	360.78
799.994	328.02
800.174	285.01
800.354	332.11
800.534	221.52
800.714	315.73
800.894	227.67
801.074	305.49
801.254	319.82
801.434	262.48
801.614	260.43
801.794	278.87
801.974	592.2
802.154	186.71
802.334	215.38
802.514	239.95
802.693	174.42
802.873	162.13
803.053	196.95
803.233	215.38
803.413	203.09
803.592	133.46
803.772	184.66
803.952	164.18
804.131	264.53
804.311	254.29
804.491	313.68
804.67	168.27
804.85	192.85
805.03	301.39
805.209	174.42
805.389	237.91
805.568	280.91
805.748	239.95
805.928	172.37
806.107	198.99
806.287	235.86
806.466	213.33
806.646	203.09
806.825	149.84
807.004	256.34
807.184	221.52
807.363	237.91
807.543	227.67
807.722	194.9
807.901	174.42
808.081	250.19
808.26	135.51
808.439	205.14
808.619	201.04
808.798	133.46
808.977	203.09
809.156	176.47
809.336	211.28
809.515	225.62
809.694	155.99
809.873	135.51
810.052	151.89
810.231	221.52
810.411	164.18
810.59	137.56
810.769	164.18
810.948	147.8
811.127	106.84
811.306	178.51
811.485	198.99
811.664	274.77
811.843	231.76
812.022	270.67
812.201	119.12
812.38	139.6
812.559	121.17
812.737	192.85
812.916	129.36
813.095	139.6
813.274	217.43
813.453	166.23
813.632	133.46
813.811	190.8
813.989	98.64
814.168	143.7
814.347	164.18
814.526	166.23
814.704	139.6
814.883	127.32
815.062	108.88
815.24	151.89
815.419	198.99
815.598	158.03
815.776	104.79
815.955	96.6
816.133	69.97
816.312	84.31
816.49	168.27
816.669	147.8
816.847	176.47
817.026	133.46
817.204	125.27
817.383	176.47
817.561	166.23
817.74	151.89
817.918	188.75
818.097	18.77
818.275	69.97
818.453	172.37
818.632	149.84
818.81	143.7
818.988	69.97
819.167	149.84
819.345	96.6
819.523	108.88
819.701	127.32
819.879	125.27
820.058	72.02
820.236	123.22
820.414	137.56
820.592	129.36
820.77	90.45
820.948	67.92
821.127	69.97
821.305	164.18
821.483	125.27
821.661	174.42
821.839	92.5
822.017	123.22
822.195	119.12
822.373	133.46
822.551	69.97
822.729	196.95
822.907	198.99
823.085	117.08
823.262	131.41
823.44	129.36
823.618	20.82
823.796	112.98
823.974	82.26
824.152	94.55
824.329	35.16
824.507	129.36
824.685	127.32
824.863	92.5
825.04	63.83
825.218	133.46
825.396	139.6
825.574	127.32
825.751	67.92
825.929	196.95
826.107	110.93
826.284	72.02
826.462	51.54
826.639	127.32
826.817	76.12
826.994	164.18
827.172	59.73
827.349	100.69
827.527	82.26
827.704	170.32
827.882	6.49
828.059	104.79
828.237	147.8
828.414	67.92
828.591	104.79
828.769	129.36
828.946	76.12
829.124	86.36
829.301	37.2
829.478	47.44
829.655	72.02
829.833	51.54
830.01	-3.75
830.187	51.54
830.364	14.68
830.542	143.7
830.719	106.84
830.896	61.78
831.073	106.84
831.25	96.6
831.427	78.16
831.604	123.22
831.782	72.02
831.959	76.12
832.136	90.45
832.313	76.12
832.49	31.06
832.667	164.18
832.844	69.97
833.021	141.65
833.198	37.2
833.374	121.17
833.551	82.26
833.728	78.16
833.905	106.84
834.082	29.01
834.259	82.26
834.436	127.32
834.612	31.06
834.789	84.31
834.966	86.36
835.143	88.4
835.319	94.55
835.496	110.93
835.673	35.16
835.85	102.74
836.026	29.01
836.203	63.83
836.38	121.17
836.556	80.21
836.733	33.11
836.909	43.35
837.086	24.92
837.262	51.54
837.439	61.78
837.616	6.49
837.792	10.58
837.968	49.49
838.145	8.53
838.321	-32.43
838.498	84.31
838.674	-44.71
838.851	12.63
839.027	72.02
839.203	78.16
839.38	22.87
839.556	49.49
839.732	22.87
839.909	112.98
840.085	72.02
840.261	26.96
840.437	49.49
840.614	59.73
840.79	104.79
840.966	86.36
841.142	47.44
841.318	47.44
841.494	33.11
841.671	90.45
841.847	63.83
842.023	47.44
842.199	-50.86
842.375	33.11
842.551	29.01
842.727	45.4
842.903	63.83
843.079	45.4
843.255	100.69
843.431	16.73
843.607	10.58
843.783	35.16
843.959	86.36
844.134	6.49
844.31	74.07
844.486	26.96
844.662	55.64
844.838	-1.71
845.013	96.6
845.189	22.87
845.365	55.64
845.541	4.44
845.716	16.73
845.892	129.36
846.068	102.74
846.244	-22.19
846.419	63.83
846.595	39.25
846.77	41.3
846.946	29.01
847.122	76.12
847.297	8.53
847.473	98.64
847.648	-26.28
847.824	2.39
847.999	16.73
848.175	35.16
848.35	69.97
848.526	92.5
848.701	10.58
848.876	74.07
849.052	-5.8
849.227	88.4
849.403	14.68
849.578	0.34
849.753	47.44
849.929	18.77
850.104	51.54
850.279	24.92
850.454	2.39
850.63	31.06
850.805	45.4
850.98	16.73
851.155	0.34
851.33	14.68
851.505	47.44
851.681	45.4
851.856	41.3
852.031	29.01
852.206	-61.1
852.381	-1.71
852.556	45.4
852.731	10.58
852.906	45.4
853.081	8.53
853.256	69.97
853.431	0.34
853.606	-3.75
853.781	16.73
853.956	16.73
854.131	16.73
854.305	14.68
854.48	33.11
854.655	0.34
854.83	53.59
855.005	-7.85
855.18	61.78
855.354	37.2
855.529	61.78
855.704	12.63
855.879	49.49
856.053	18.77
856.228	6.49
856.403	102.74
856.577	65.88
856.752	-26.28
856.926	12.63
857.101	10.58
857.276	51.54
857.45	-5.8
857.625	-46.76
857.799	-7.85
857.974	65.88
858.148	-52.91
858.323	26.96
858.497	12.63
858.672	-22.19
858.846	53.59
859.02	22.87
859.195	43.35
859.369	-26.28
859.543	-73.39
859.718	-18.09
859.892	41.3
860.066	-3.75
860.241	-38.57
860.415	-16.04
860.589	-7.85
860.763	10.58
860.938	-3.75
861.112	45.4
861.286	0.34
861.46	41.3
861.634	102.74
861.808	67.92
861.982	6.49
862.157	26.96
862.331	-28.33
862.505	6.49
862.679	-5.8
862.853	-5.8
863.027	-22.19
863.201	-57
863.375	45.4
863.549	6.49
863.722	10.58
863.896	-20.14
864.07	-26.28
864.244	84.31
864.418	-13.99
864.592	20.82
864.766	-9.9
864.939	-1.71
865.113	20.82
865.287	24.92
865.461	-65.19
865.634	-7.85
865.808	-5.8
865.982	45.4
866.156	12.63
866.329	39.25
866.503	-13.99
866.676	-1.71
866.85	2.39
867.024	16.73
867.197	12.63
867.371	80.21
867.544	10.58
867.718	-9.9
867.891	57.68
868.065	-44.71
868.238	24.92
868.412	59.73
868.585	55.64
868.759	14.68
868.932	-34.47
869.105	-102.06
869.279	6.49
869.452	26.96
869.625	2.39
869.799	4.44
869.972	-28.33
870.145	145.75
870.319	-52.91
870.492	41.3
870.665	18.77
870.838	6.49
871.011	-79.53
871.185	-36.52
871.358	8.53
871.531	35.16
871.704	6.49
871.877	26.96
872.05	-7.85
872.223	-13.99
872.396	51.54
872.569	20.82
872.742	-65.19
872.915	31.06
873.088	76.12
873.261	10.58
873.434	-16.04
873.607	-32.43
873.78	24.92
873.953	-46.76
874.126	-5.8
874.299	26.96
874.471	18.77
874.644	16.73
874.817	-7.85
874.99	55.64
875.163	-77.48
875.335	53.59
875.508	-7.85
875.681	-9.9
875.853	18.77
876.026	14.68
876.199	24.92
876.371	24.92
876.544	6.49
876.717	37.2
876.889	37.2
877.062	0.34
877.234	94.55
877.407	6.49
877.579	-13.99
877.752	-18.09
877.924	33.11
878.097	45.4
878.269	20.82
878.442	-5.8
878.614	-13.99
878.786	-36.52
878.959	31.06
879.131	-18.09
879.303	31.06
879.476	-18.09
879.648	-32.43
879.82	26.96
879.993	-46.76
880.165	-1.71
880.337	-50.86
880.509	-22.19
880.681	49.49
880.854	-32.43
881.026	-1.71
881.198	20.82
881.37	-7.85
881.542	-9.9
881.714	2.39
881.886	67.92
882.058	49.49
882.23	-36.52
882.402	-3.75
882.574	6.49
882.746	2.39
882.918	2.39
883.09	12.63
883.262	-20.14
883.434	-42.67
883.606	-34.47
883.778	67.92
883.95	43.35
884.122	-65.19
884.293	10.58
884.465	16.73
884.637	37.2
884.809	20.82
884.98	12.63
885.152	-1.71
885.324	55.64
885.496	-22.19
885.667	-38.57
885.839	-1.71
886.011	49.49
886.182	41.3
886.354	33.11
886.525	-28.33
886.697	51.54
886.869	-16.04
887.04	-18.09
887.212	-5.8
887.383	10.58
887.555	-9.9
887.726	55.64
887.897	-118.44
888.069	12.63
888.24	49.49
888.412	-54.95
888.583	-36.52
888.754	69.97
888.926	4.44
889.097	-26.28
889.268	-42.67
889.44	-42.67
889.611	-73.39
889.782	-26.28
889.953	-87.72
890.125	22.87
890.296	-52.91
890.467	8.53
890.638	-3.75
890.809	82.26
890.98	-1.71
891.151	94.55
891.323	41.3
891.494	-5.8
891.665	18.77
891.836	37.2
892.007	35.16
892.178	33.11
892.349	4.44
892.52	55.64
892.691	2.39
892.862	-34.47
893.032	-67.24
893.203	-24.23
893.374	14.68
893.545	-28.33
893.716	-44.71
893.887	55.64
894.057	-16.04
894.228	-24.23
894.399	-59.05
894.57	2.39
894.74	18.77
894.911	6.49
895.082	-16.04
895.253	-34.47
895.423	10.58
895.594	26.96
895.764	20.82
895.935	-95.91
896.106	-1.71
896.276	2.39
896.447	6.49
896.617	-22.19
896.788	-28.33
896.958	-28.33
897.129	-81.58
897.299	0.34
897.47	74.07
897.64	22.87
897.81	10.58
897.981	49.49
898.151	-34.47
898.322	20.82
898.492	10.58
898.662	37.2
898.832	12.63
899.003	59.73
899.173	-20.14
899.343	2.39
899.513	-59.05
