Data from USB4F104151__224__11-10-53-054.txt Node

Date: Wed Mar 12 11:10:53 EDT 2025
User: louis
Spectrometer: USB4F10415
Trigger mode: 4
Integration Time (sec): 2.000000E-2
Scans to average: 1
Electric dark correction enabled: true
Nonlinearity correction enabled: false
Boxcar width: 0
XAxis mode: Wavelengths
Number of Pixels in Spectrum: 3648
>>>>>Begin Spectral Data<<<<<
178.204	-13.31
178.424	-13.31
178.644	-13.31
178.864	-136.19
179.084	-84.99
179.304	-48.13
179.524	11.26
179.744	41.98
179.964	46.08
180.184	11.26
180.404	-15.36
180.624	11.26
180.844	7.17
181.064	-29.7
181.283	-48.13
181.503	-52.22
181.723	64.51
181.943	-44.03
182.163	33.79
182.383	-13.31
182.602	15.36
182.822	-9.22
183.042	-5.12
183.262	-7.17
183.482	9.22
183.701	23.55
183.921	-23.55
184.141	-17.41
184.361	44.03
184.58	-5.12
184.8	-9.22
185.02	-17.41
185.239	11.26
185.459	15.36
185.679	52.22
185.898	-52.22
186.118	33.79
186.338	-39.94
186.557	5.12
186.777	-37.89
186.997	29.7
187.216	23.55
187.436	-21.5
187.655	-27.65
187.875	31.74
188.095	-48.13
188.314	39.94
188.534	15.36
188.753	-19.46
188.973	13.31
189.192	7.17
189.412	39.94
189.631	33.79
189.851	-11.26
190.07	70.65
190.29	11.26
190.509	52.22
190.729	-41.98
190.948	35.84
191.168	44.03
191.387	11.26
191.607	5.12
191.826	-15.36
192.045	21.5
192.265	-11.26
192.484	7.17
192.704	-46.08
192.923	-39.94
193.142	44.03
193.362	11.26
193.581	60.42
193.8	29.7
194.02	-19.46
194.239	27.65
194.458	33.79
194.678	-58.37
194.897	-68.61
195.116	-33.79
195.335	15.36
195.555	-37.89
195.774	-21.5
195.993	-5.12
196.212	-33.79
196.432	-21.5
196.651	-13.31
196.87	-72.7
197.089	44.03
197.308	-29.7
197.528	66.56
197.747	9.22
197.966	15.36
198.185	31.74
198.404	27.65
198.623	11.26
198.842	27.65
199.062	-9.22
199.281	3.07
199.5	44.03
199.719	39.94
199.938	89.09
200.157	99.33
200.376	89.09
200.595	-1.02
200.814	76.8
201.033	-5.12
201.252	84.99
201.471	-23.55
201.69	29.7
201.909	72.7
202.128	46.08
202.347	99.33
202.566	37.89
202.785	56.32
203.004	-25.6
203.223	-21.5
203.442	11.26
203.661	17.41
203.879	-9.22
204.098	72.7
204.317	-60.42
204.536	52.22
204.755	-7.17
204.974	39.94
205.193	48.13
205.411	58.37
205.63	7.17
205.849	-76.8
206.068	19.46
206.287	37.89
206.505	41.98
206.724	60.42
206.943	21.5
207.162	-17.41
207.381	1.02
207.599	-3.07
207.818	-21.5
208.037	52.22
208.255	-41.98
208.474	39.94
208.693	39.94
208.911	13.31
209.13	19.46
209.349	-25.6
209.567	-15.36
209.786	93.18
210.005	-74.75
210.223	35.84
210.442	27.65
210.661	1.02
210.879	21.5
211.098	13.31
211.316	58.37
211.535	-11.26
211.753	-37.89
211.972	84.99
212.191	33.79
212.409	-17.41
212.628	35.84
212.846	17.41
213.065	-50.18
213.283	80.89
213.502	29.7
213.72	-17.41
213.938	11.26
214.157	23.55
214.375	21.5
214.594	-87.04
214.812	33.79
215.031	-23.55
215.249	-35.84
215.467	-41.98
215.686	-37.89
215.904	44.03
216.122	-39.94
216.341	1.02
216.559	68.61
216.778	-1.02
216.996	3.07
217.214	-9.22
217.432	9.22
217.651	-33.79
217.869	-27.65
218.087	64.51
218.306	33.79
218.524	15.36
218.742	27.65
218.96	-31.74
219.179	-19.46
219.397	54.27
219.615	44.03
219.833	19.46
220.051	-13.31
220.27	23.55
220.488	-72.7
220.706	97.28
220.924	-50.18
221.142	-48.13
221.36	27.65
221.578	-1.02
221.796	-11.26
222.015	11.26
222.233	91.13
222.451	3.07
222.669	13.31
222.887	101.37
223.105	54.27
223.323	-33.79
223.541	19.46
223.759	19.46
223.977	31.74
224.195	54.27
224.413	-35.84
224.631	62.46
224.849	17.41
225.067	25.6
225.285	-39.94
225.503	-33.79
225.721	-21.5
225.939	-27.65
226.157	-82.94
226.375	33.79
226.592	56.32
226.81	15.36
227.028	29.7
227.246	1.02
227.464	-76.8
227.682	11.26
227.9	44.03
228.117	15.36
228.335	-9.22
228.553	1.02
228.771	66.56
228.989	3.07
229.206	62.46
229.424	35.84
229.642	-19.46
229.86	11.26
230.077	-58.37
230.295	-3.07
230.513	60.42
230.731	41.98
230.948	31.74
231.166	66.56
231.384	-23.55
231.601	39.94
231.819	-31.74
232.037	35.84
232.254	-1.02
232.472	64.51
232.689	37.89
232.907	3.07
233.125	52.22
233.342	-3.07
233.56	23.55
233.777	46.08
233.995	-1.02
234.213	48.13
234.43	35.84
234.648	-54.27
234.865	-17.41
235.083	72.7
235.3	-11.26
235.518	64.51
235.735	27.65
235.953	56.32
236.17	-31.74
236.388	-15.36
236.605	-11.26
236.822	105.47
237.04	31.74
237.257	25.6
237.475	7.17
237.692	21.5
237.909	66.56
238.127	-56.32
238.344	-27.65
238.562	11.26
238.779	-9.22
238.996	-21.5
239.214	68.61
239.431	60.42
239.648	48.13
239.865	111.61
240.083	48.13
240.3	66.56
240.517	66.56
240.735	29.7
240.952	-9.22
241.169	113.66
241.386	-35.84
241.603	5.12
241.821	-37.89
242.038	52.22
242.255	5.12
242.472	-11.26
242.689	9.22
242.907	84.99
243.124	-11.26
243.341	-19.46
243.558	-5.12
243.775	-54.27
243.992	-29.7
244.209	1.02
244.426	-17.41
244.643	25.6
244.86	-54.27
245.078	60.42
245.295	-48.13
245.512	9.22
245.729	56.32
245.946	-21.5
246.163	-17.41
246.38	44.03
246.597	-19.46
246.814	1.02
247.031	-7.17
247.248	80.89
247.464	-25.6
247.681	-13.31
247.898	-13.31
248.115	-1.02
248.332	15.36
248.549	27.65
248.766	-21.5
248.983	25.6
249.2	17.41
249.417	39.94
249.633	-5.12
249.85	52.22
250.067	58.37
250.284	-5.12
250.501	-7.17
250.717	46.08
250.934	13.31
251.151	41.98
251.368	37.89
251.585	44.03
251.801	37.89
252.018	113.66
252.235	56.32
252.451	-17.41
252.668	19.46
252.885	39.94
253.102	7.17
253.318	103.42
253.535	21.5
253.752	13.31
253.968	-11.26
254.185	-41.98
254.401	15.36
254.618	54.27
254.835	-117.76
255.051	50.18
255.268	54.27
255.484	72.7
255.701	7.17
255.917	39.94
256.134	-87.04
256.351	-13.31
256.567	3.07
256.784	29.7
257	-21.5
257.217	23.55
257.433	-13.31
257.65	70.65
257.866	-27.65
258.082	-5.12
258.299	-23.55
258.515	52.22
258.732	-19.46
258.948	-17.41
259.165	1.02
259.381	-105.47
259.597	15.36
259.814	5.12
260.03	11.26
260.246	-7.17
260.463	56.32
260.679	-21.5
260.895	21.5
261.112	-31.74
261.328	54.27
261.544	54.27
261.761	72.7
261.977	29.7
262.193	-13.31
262.409	84.99
262.626	7.17
262.842	-9.22
263.058	27.65
263.274	21.5
263.49	-68.61
263.707	-15.36
263.923	-5.12
264.139	-39.94
264.355	82.94
264.571	13.31
264.787	7.17
265.004	27.65
265.22	1.02
265.436	60.42
265.652	80.89
265.868	52.22
266.084	7.17
266.3	13.31
266.516	-11.26
266.732	-25.6
266.948	-48.13
267.164	11.26
267.38	1.02
267.596	31.74
267.812	87.04
268.028	64.51
268.244	66.56
268.46	-52.22
268.676	17.41
268.892	56.32
269.108	-9.22
269.324	-7.17
269.54	-37.89
269.756	54.27
269.972	-64.51
270.188	46.08
270.403	15.36
270.619	-48.13
270.835	48.13
271.051	-107.52
271.267	9.22
271.483	39.94
271.698	21.5
271.914	7.17
272.13	3.07
272.346	5.12
272.562	39.94
272.777	60.42
272.993	-21.5
273.209	-25.6
273.425	-13.31
273.64	-33.79
273.856	35.84
274.072	17.41
274.287	-39.94
274.503	11.26
274.719	39.94
274.934	37.89
275.15	-23.55
275.366	19.46
275.581	27.65
275.797	37.89
276.012	19.46
276.228	29.7
276.444	33.79
276.659	15.36
276.875	17.41
277.09	46.08
277.306	1.02
277.521	37.89
277.737	21.5
277.952	68.61
278.168	3.07
278.383	3.07
278.599	9.22
278.814	64.51
279.03	-13.31
279.245	78.85
279.461	-66.56
279.676	76.8
279.892	-25.6
280.107	19.46
280.322	-19.46
280.538	-23.55
280.753	13.31
280.969	62.46
281.184	48.13
281.399	50.18
281.615	87.04
281.83	5.12
282.045	23.55
282.26	-27.65
282.476	13.31
282.691	29.7
282.906	-23.55
283.122	60.42
283.337	-54.27
283.552	48.13
283.767	-25.6
283.983	7.17
284.198	13.31
284.413	-62.46
284.628	-7.17
284.843	19.46
285.058	-1.02
285.274	9.22
285.489	9.22
285.704	29.7
285.919	5.12
286.134	60.42
286.349	-15.36
286.564	-5.12
286.779	-29.7
286.995	-13.31
287.21	-21.5
287.425	60.42
287.64	-82.94
287.855	39.94
288.07	-15.36
288.285	7.17
288.5	31.74
288.715	7.17
288.93	68.61
289.145	44.03
289.36	64.51
289.575	3.07
289.79	54.27
290.004	13.31
290.219	25.6
290.434	-19.46
290.649	91.13
290.864	31.74
291.079	82.94
291.294	9.22
291.509	27.65
291.724	39.94
291.938	41.98
292.153	17.41
292.368	11.26
292.583	48.13
292.798	-50.18
293.012	44.03
293.227	29.7
293.442	23.55
293.657	-15.36
293.871	41.98
294.086	62.46
294.301	56.32
294.516	5.12
294.73	-7.17
294.945	-27.65
295.16	58.37
295.374	64.51
295.589	-15.36
295.804	-41.98
296.018	-17.41
296.233	-17.41
296.447	7.17
296.662	19.46
296.877	39.94
297.091	-11.26
297.306	11.26
297.52	-23.55
297.735	33.79
297.949	80.89
298.164	23.55
298.378	3.07
298.593	-13.31
298.807	-15.36
299.022	-17.41
299.236	-25.6
299.451	52.22
299.665	76.8
299.88	-13.31
300.094	84.99
300.309	-13.31
300.523	31.74
300.737	-17.41
300.952	-21.5
301.166	111.61
301.381	-46.08
301.595	48.13
301.809	29.7
302.024	-1.02
302.238	-62.46
302.452	56.32
302.667	33.79
302.881	25.6
303.095	70.65
303.309	3.07
303.524	17.41
303.738	15.36
303.952	-66.56
304.166	56.32
304.381	23.55
304.595	19.46
304.809	-17.41
305.023	-23.55
305.237	1.02
305.452	-29.7
305.666	39.94
305.88	23.55
306.094	27.65
306.308	-5.12
306.522	50.18
306.736	5.12
306.95	9.22
307.164	-21.5
307.379	-23.55
307.593	-11.26
307.807	41.98
308.021	70.65
308.235	17.41
308.449	-19.46
308.663	29.7
308.877	56.32
309.091	-1.02
309.305	46.08
309.519	-11.26
309.733	-19.46
309.947	-41.98
310.161	39.94
310.374	-21.5
310.588	82.94
310.802	11.26
311.016	-17.41
311.23	60.42
311.444	44.03
311.658	3.07
311.872	105.47
312.085	37.89
312.299	-5.12
312.513	-7.17
312.727	11.26
312.941	7.17
313.154	107.52
313.368	-33.79
313.582	70.65
313.796	15.36
314.009	35.84
314.223	-5.12
314.437	-21.5
314.651	60.42
314.864	-9.22
315.078	-17.41
315.292	-41.98
315.505	31.74
315.719	5.12
315.933	-19.46
316.146	-111.61
316.36	-3.07
316.573	27.65
316.787	5.12
317.001	41.98
317.214	-19.46
317.428	23.55
317.641	-62.46
317.855	19.46
318.068	17.41
318.282	9.22
318.495	84.99
318.709	44.03
318.922	-39.94
319.136	-25.6
319.349	29.7
319.563	35.84
319.776	48.13
319.99	37.89
320.203	72.7
320.417	-17.41
320.63	17.41
320.843	66.56
321.057	-13.31
321.27	82.94
321.483	44.03
321.697	-7.17
321.91	41.98
322.124	17.41
322.337	46.08
322.55	27.65
322.763	15.36
322.977	60.42
323.19	11.26
323.403	3.07
323.617	11.26
323.83	64.51
324.043	19.46
324.256	37.89
324.469	-11.26
324.683	56.32
324.896	15.36
325.109	25.6
325.322	-9.22
325.535	-29.7
325.748	3.07
325.962	39.94
326.175	5.12
326.388	50.18
326.601	76.8
326.814	-5.12
327.027	39.94
327.24	70.65
327.453	27.65
327.666	70.65
327.879	44.03
328.092	21.5
328.305	50.18
328.518	35.84
328.731	-68.61
328.944	27.65
329.157	11.26
329.37	25.6
329.583	82.94
329.796	56.32
330.009	-84.99
330.222	78.85
330.435	31.74
330.648	52.22
330.861	15.36
331.073	-9.22
331.286	-19.46
331.499	-17.41
331.712	-54.27
331.925	21.5
332.138	29.7
332.35	48.13
332.563	37.89
332.776	-19.46
332.989	41.98
333.202	1.02
333.414	23.55
333.627	54.27
333.84	-5.12
334.053	3.07
334.265	33.79
334.478	33.79
334.691	27.65
334.903	44.03
335.116	-7.17
335.329	70.65
335.541	89.09
335.754	29.7
335.966	3.07
336.179	9.22
336.392	-3.07
336.604	3.07
336.817	117.76
337.029	41.98
337.242	19.46
337.454	-9.22
337.667	37.89
337.88	84.99
338.092	33.79
338.305	25.6
338.517	11.26
338.729	54.27
338.942	44.03
339.154	52.22
339.367	19.46
339.579	60.42
339.792	89.09
340.004	52.22
340.217	9.22
340.429	66.56
340.641	-29.7
340.854	48.13
341.066	31.74
341.278	17.41
341.491	-13.31
341.703	78.85
341.915	3.07
342.128	41.98
342.34	76.8
342.552	52.22
342.764	25.6
342.977	54.27
343.189	19.46
343.401	56.32
343.613	-46.08
343.826	1.02
344.038	23.55
344.25	15.36
344.462	-25.6
344.674	27.65
344.886	21.5
345.099	21.5
345.311	-17.41
345.523	41.98
345.735	-54.27
345.947	84.99
346.159	1.02
346.371	62.46
346.583	7.17
346.795	80.89
347.007	50.18
347.219	21.5
347.431	27.65
347.643	35.84
347.855	-17.41
348.067	62.46
348.279	-1.02
348.491	-23.55
348.703	56.32
348.915	50.18
349.127	5.12
349.339	-19.46
349.551	56.32
349.763	15.36
349.975	-17.41
350.187	1.02
350.399	-11.26
350.61	19.46
350.822	-33.79
351.034	17.41
351.246	-29.7
351.458	-46.08
351.669	52.22
351.881	80.89
352.093	58.37
352.305	50.18
352.517	-5.12
352.728	72.7
352.94	52.22
353.152	29.7
353.363	3.07
353.575	-25.6
353.787	76.8
353.999	-7.17
354.21	50.18
354.422	-5.12
354.633	39.94
354.845	-3.07
355.057	7.17
355.268	39.94
355.48	-39.94
355.692	31.74
355.903	-27.65
356.115	39.94
356.326	-11.26
356.538	58.37
356.749	-13.31
356.961	19.46
357.172	-29.7
357.384	27.65
357.595	68.61
357.807	33.79
358.018	29.7
358.23	17.41
358.441	25.6
358.653	87.04
358.864	17.41
359.075	5.12
359.287	19.46
359.498	82.94
359.709	33.79
359.921	-19.46
360.132	76.8
360.344	48.13
360.555	80.89
360.766	37.89
360.977	-7.17
361.189	25.6
361.4	-17.41
361.611	33.79
361.823	19.46
362.034	19.46
362.245	15.36
362.456	19.46
362.667	-31.74
362.879	11.26
363.09	31.74
363.301	3.07
363.512	48.13
363.723	72.7
363.935	13.31
364.146	56.32
364.357	72.7
364.568	60.42
364.779	-41.98
364.99	68.61
365.201	-31.74
365.412	19.46
365.623	23.55
365.834	52.22
366.045	89.09
366.256	107.52
366.467	7.17
366.678	72.7
366.889	84.99
367.1	11.26
367.311	23.55
367.522	-35.84
367.733	72.7
367.944	58.37
368.155	-29.7
368.366	97.28
368.577	64.51
368.788	50.18
368.999	-35.84
369.209	1.02
369.42	84.99
369.631	76.8
369.842	25.6
370.053	64.51
370.264	99.33
370.474	5.12
370.685	-13.31
370.896	68.61
371.107	78.85
371.317	46.08
371.528	-19.46
371.739	23.55
371.95	60.42
372.16	29.7
372.371	-7.17
372.582	80.89
372.792	58.37
373.003	58.37
373.214	7.17
373.424	78.85
373.635	31.74
373.846	113.66
374.056	25.6
374.267	-13.31
374.477	15.36
374.688	9.22
374.898	50.18
375.109	35.84
375.319	-1.02
375.53	84.99
375.74	-3.07
375.951	-19.46
376.161	72.7
376.372	74.75
376.582	-9.22
376.793	50.18
377.003	15.36
377.214	-7.17
377.424	-13.31
377.635	-9.22
377.845	-3.07
378.055	119.81
378.266	31.74
378.476	25.6
378.686	19.46
378.897	35.84
379.107	33.79
379.317	99.33
379.528	64.51
379.738	56.32
379.948	-54.27
380.158	35.84
380.369	66.56
380.579	33.79
380.789	-13.31
380.999	134.14
381.21	-7.17
381.42	29.7
381.63	29.7
381.84	21.5
382.05	-44.03
382.261	31.74
382.471	5.12
382.681	21.5
382.891	105.47
383.101	60.42
383.311	-3.07
383.521	46.08
383.731	15.36
383.941	33.79
384.151	33.79
384.361	64.51
384.571	31.74
384.781	25.6
384.991	15.36
385.201	60.42
385.411	101.37
385.621	15.36
385.831	27.65
386.041	1.02
386.251	23.55
386.461	60.42
386.671	54.27
386.881	-5.12
387.091	52.22
387.301	64.51
387.511	35.84
387.72	56.32
387.93	52.22
388.14	-3.07
388.35	72.7
388.56	48.13
388.769	-21.5
388.979	19.46
389.189	27.65
389.399	50.18
389.609	56.32
389.818	56.32
390.028	29.7
390.238	46.08
390.447	-46.08
390.657	27.65
390.867	60.42
391.076	11.26
391.286	54.27
391.496	37.89
391.705	58.37
391.915	39.94
392.125	-1.02
392.334	33.79
392.544	60.42
392.753	23.55
392.963	-1.02
393.172	140.29
393.382	95.23
393.591	72.7
393.801	29.7
394.01	-9.22
394.22	21.5
394.429	82.94
394.639	9.22
394.848	35.84
395.058	56.32
395.267	84.99
395.477	105.47
395.686	99.33
395.895	99.33
396.105	109.57
396.314	11.26
396.524	39.94
396.733	64.51
396.942	62.46
397.152	56.32
397.361	87.04
397.57	48.13
397.78	93.18
397.989	48.13
398.198	54.27
398.407	25.6
398.617	105.47
398.826	52.22
399.035	97.28
399.244	109.57
399.453	109.57
399.663	72.7
399.872	103.42
400.081	89.09
400.29	123.9
400.499	41.98
400.708	119.81
400.917	27.65
401.127	197.63
401.336	76.8
401.545	173.05
401.754	58.37
401.963	154.62
402.172	60.42
402.381	80.89
402.59	140.29
402.799	119.81
403.008	91.13
403.217	125.95
403.426	128
403.635	84.99
403.844	179.2
404.053	72.7
404.262	160.77
404.471	121.85
404.68	95.23
404.888	70.65
405.097	48.13
405.306	101.37
405.515	68.61
405.724	72.7
405.933	93.18
406.142	132.09
406.35	56.32
406.559	23.55
406.768	109.57
406.977	117.76
407.185	154.62
407.394	171.01
407.603	76.8
407.812	162.81
408.02	166.91
408.229	195.58
408.438	97.28
408.646	150.53
408.855	150.53
409.064	154.62
409.272	195.58
409.481	181.25
409.69	222.2
409.898	130.05
410.107	232.44
410.315	166.91
410.524	187.39
410.733	214.01
410.941	254.97
411.15	259.07
411.358	312.32
411.567	238.59
411.775	230.4
411.984	267.26
412.192	351.23
412.401	349.18
412.609	306.17
412.818	361.47
413.026	396.28
413.234	383.99
413.443	320.51
413.651	390.14
413.86	390.14
414.068	392.19
414.276	410.62
414.485	441.34
414.693	449.53
414.901	547.83
415.11	484.34
415.318	541.69
415.526	459.77
415.734	660.47
415.943	558.07
416.151	535.54
416.359	635.89
416.567	656.37
416.776	658.42
416.984	764.92
417.192	631.8
417.4	672.76
417.608	689.14
417.817	709.62
418.025	795.64
418.233	826.36
418.441	764.92
418.649	857.07
418.857	912.37
419.065	969.71
419.273	877.55
419.481	984.05
419.689	979.95
419.897	1020.91
420.105	1149.93
420.313	1143.79
420.521	1154.03
420.729	1260.52
420.937	1252.33
421.145	1250.28
421.353	1293.29
421.561	1301.48
421.769	1426.41
421.977	1524.71
422.185	1510.38
422.393	1559.53
422.601	1653.73
422.809	1637.35
423.017	1723.37
423.224	1590.25
423.432	1743.85
423.64	1833.96
423.848	2028.51
424.056	1928.16
424.263	2055.14
424.471	2061.28
424.679	2200.54
424.887	2278.37
425.094	2243.55
425.302	2307.04
425.51	2417.63
425.718	2391
425.925	2448.35
426.133	2647
426.341	2728.92
426.548	2819.03
426.756	2847.7
426.964	2876.37
427.171	3120.08
427.379	3206.1
427.586	3222.48
427.794	3230.67
428.001	3400.65
428.209	3507.15
428.417	3478.47
428.624	3873.73
428.832	3748.81
429.039	3601.35
429.247	3777.48
429.454	4148.16
429.662	4285.37
429.869	4027.33
430.076	4467.64
430.284	4246.46
430.491	4512.7
430.699	4643.77
430.906	4793.27
431.114	4606.91
431.321	4838.33
431.528	4934.58
431.736	5272.5
431.943	5538.73
432.15	5508.01
432.358	5432.24
432.565	5925.8
432.772	5764.01
432.979	6091.68
433.187	6079.4
433.394	6146.98
433.601	6433.69
433.808	6615.96
434.016	6538.14
434.223	6753.18
434.43	7211.92
434.637	7054.23
434.844	7510.93
435.052	7748.49
435.259	7705.48
435.466	7752.59
435.673	7594.89
435.88	8061.83
436.087	8383.36
436.294	8569.73
436.501	8289.15
436.708	8534.91
436.915	8842.11
437.122	9315.19
437.329	9257.84
437.537	9411.44
437.743	9511.79
437.95	9702.25
438.157	10074.98
438.364	10453.86
438.571	10208.1
438.778	10607.45
438.985	11328.34
439.192	10998.62
439.399	11121.49
439.606	10982.23
439.813	11613.01
440.02	12319.56
440.227	12127.05
440.433	12010.31
440.64	12352.32
440.847	12258.12
441.054	12481.35
441.261	13445.94
441.467	13323.06
441.674	13652.78
441.881	13927.21
442.088	13857.58
442.294	13630.26
442.501	14113.58
442.708	14523.17
442.914	14869.28
443.121	15594.26
443.328	15096.6
443.534	16173.83
443.741	16014.09
443.948	15692.56
444.154	16941.82
444.361	16487.17
444.568	16519.94
444.774	16771.84
444.981	17195.77
445.187	17523.44
445.394	18213.61
445.6	17986.29
445.807	19892.94
446.013	18893.54
446.22	19086.04
446.426	19745.49
446.633	20237
446.839	20910.78
447.046	20134.6
447.252	20773.57
447.459	21234.36
447.665	20882.11
447.871	21654.2
448.078	22704.81
448.284	21547.7
448.491	22160.05
448.697	23179.93
448.903	23487.13
449.11	23581.34
449.316	23368.35
449.522	23519.9
449.728	24269.45
449.935	24064.66
450.141	24322.7
450.347	24904.32
450.553	24341.13
450.76	24261.26
450.966	25260.67
451.172	24656.52
451.378	25262.72
451.584	24980.1
451.791	25352.83
451.997	25240.19
452.203	26063.47
452.409	25762.42
452.615	25922.16
452.821	24779.4
453.027	24228.49
453.233	25469.56
453.44	24715.91
453.646	24990.34
453.852	25092.74
454.058	25451.13
454.264	24765.06
454.47	25178.75
454.676	24586.89
454.882	25166.46
455.088	23167.65
455.294	23493.27
455.5	23669.4
455.705	23808.66
455.911	22964.9
456.117	22358.7
456.323	22211.25
456.529	21226.17
456.735	22246.06
456.941	21480.12
457.147	21037.76
457.352	20468.42
457.558	20237
457.764	20198.09
457.97	19823.31
458.176	19276.51
458.381	19407.58
458.587	18594.53
458.793	18404.07
458.999	17607.41
459.204	18543.33
459.41	18295.53
459.616	16902.91
459.821	16927.49
460.027	16847.61
460.233	16655.11
460.438	15811.34
460.644	15821.58
460.85	15162.14
461.055	15026.97
461.261	14918.43
461.466	13849.39
461.672	13237.05
461.878	14461.73
462.083	13605.68
462.289	13163.32
462.494	13206.33
462.7	12301.12
462.905	12043.08
463.111	12757.82
463.316	12624.7
463.522	12424
463.727	12372.8
463.932	12116.81
464.138	12133.19
464.343	12272.45
464.549	12028.74
464.754	12129.09
464.959	12188.49
465.165	12075.85
465.37	11457.36
465.575	11377.49
465.781	11864.91
465.986	11725.65
466.191	11393.87
466.397	11178.84
466.602	10701.66
466.807	11160.41
467.012	11025.24
467.218	10890.07
467.423	10822.49
467.628	10855.26
467.833	11359.06
468.038	10896.22
468.244	10650.46
468.449	11209.56
468.654	10738.52
468.859	10750.81
469.064	10423.14
469.269	10279.78
469.474	10306.4
469.679	10347.36
469.885	10124.13
470.09	10439.52
470.295	10173.28
470.5	9943.91
470.705	9888.62
470.91	9868.14
471.115	9556.85
471.32	9722.73
471.525	9728.88
471.73	9577.33
471.935	9413.49
472.139	9186.16
472.344	9284.47
472.549	8911.74
472.754	9108.34
472.959	8932.22
473.164	8590.2
473.369	8555.39
473.574	9007.99
473.778	8905.59
473.983	8768.38
474.188	8606.59
474.393	8231.81
474.598	8524.67
474.802	8303.49
475.007	8221.57
475.212	8252.29
475.417	7998.34
475.621	7826.31
475.826	7891.85
476.031	7908.23
476.235	7611.28
476.44	7889.8
476.645	7404.43
476.849	7748.49
477.054	7682.95
477.259	7410.57
477.463	7168.91
477.668	7216.02
477.872	7240.59
478.077	7105.43
478.282	7019.41
478.486	6927.25
478.691	7093.14
478.895	6937.49
479.1	6814.62
479.304	6833.05
479.509	6501.28
479.713	6718.36
479.918	6699.93
480.122	6536.09
480.326	6771.61
480.531	6736.79
480.735	6525.85
480.94	6529.95
481.144	6738.84
481.348	6302.62
481.553	6505.37
481.757	6335.39
481.961	6415.26
482.166	6497.18
482.37	6583.2
482.574	6327.2
482.778	6355.87
482.983	6511.52
483.187	6433.69
483.391	6353.82
483.595	6357.92
483.8	6228.9
484.004	6458.27
484.208	6458.27
484.412	6323.1
484.616	6497.18
484.821	6362.01
485.025	6327.2
485.229	6327.2
485.433	6265.76
485.637	6355.87
485.841	6204.32
486.045	6366.11
486.249	6486.94
486.453	6452.13
486.657	6255.52
486.861	6411.17
487.065	6263.71
487.269	6544.28
487.473	6202.27
487.677	6347.68
487.881	6466.46
488.085	6296.48
488.289	6491.04
488.493	6220.71
488.697	6392.73
488.901	6319.01
489.105	6613.92
489.309	6421.41
489.512	6364.06
489.716	6390.69
489.92	6247.33
490.124	6265.76
490.328	6345.63
490.531	6511.52
490.735	6448.03
490.939	6478.75
491.143	6595.48
491.346	6411.17
491.55	6548.38
491.754	6611.87
491.958	6720.41
492.161	6757.27
492.365	6773.66
492.569	6450.08
492.772	6730.65
492.976	6876.06
493.18	6831
493.383	6857.62
493.587	6790.04
493.79	6978.45
493.994	6798.23
494.197	6884.25
494.401	7033.75
494.605	7031.7
494.808	7087
495.012	7304.08
495.215	7353.23
495.419	7383.95
495.622	7193.49
495.825	7383.95
496.029	7230.35
496.232	7498.64
496.436	7535.5
496.639	7842.7
496.843	7670.67
497.046	7867.27
497.249	7934.85
497.453	8055.69
497.656	7945.09
497.859	7965.57
498.063	8092.55
498.266	8022.92
498.469	8297.35
498.673	8309.63
498.876	8457.09
499.079	8541.05
499.282	8395.65
499.485	8682.36
499.689	8848.25
499.892	8878.97
500.095	9042.81
500.298	9003.89
500.501	8950.65
500.705	9333.62
500.908	9524.08
501.111	9554.8
501.314	9263.99
501.517	9741.16
501.72	9767.79
501.923	9624.43
502.126	9843.56
502.329	9982.82
502.532	10158.95
502.735	10220.39
502.938	10193.76
503.141	10396.51
503.344	10580.83
503.547	10484.58
503.75	10793.82
503.953	10953.56
504.156	10961.75
504.359	11180.89
504.562	11334.48
504.765	11408.21
504.968	11451.22
505.17	11641.68
505.373	11457.36
505.576	11729.74
505.779	11995.98
505.982	11977.55
506.185	12196.68
506.387	12249.93
506.59	12454.72
506.793	12680
506.996	12571.46
507.198	13005.63
507.401	12927.8
507.604	13075.26
507.807	13648.69
508.009	13417.27
508.212	13679.41
508.415	13759.28
508.617	13939.5
508.82	14199.59
509.022	13878.06
509.225	14392.1
509.428	14465.83
509.63	14445.35
509.833	14572.32
510.035	15145.75
510.238	14777.12
510.44	15104.79
510.643	15104.79
510.845	15293.21
511.048	15393.56
511.25	15674.13
511.453	15575.83
511.655	16257.8
511.858	15864.59
512.06	16161.55
512.262	16390.92
512.465	16300.81
512.667	16841.47
512.87	16847.61
513.072	16997.12
513.274	17285.88
513.477	17425.14
513.679	17572.6
513.881	17781.49
514.084	18121.45
514.286	18141.93
514.488	18227.95
514.69	18645.73
514.893	18598.63
515.095	18678.5
515.297	18936.54
515.499	18834.14
515.701	19229.4
515.904	19405.53
516.106	19370.71
516.308	19700.44
516.51	19829.46
516.712	20042.45
516.914	20237
517.116	20609.73
517.318	20636.36
517.52	20675.27
517.722	20740.8
517.925	21088.96
518.127	21410.49
518.329	21287.61
518.531	21287.61
518.733	21811.89
518.935	22071.98
519.136	22055.6
519.338	22629.03
519.54	22473.39
519.742	22739.62
519.944	22948.51
520.146	23390.88
520.348	23286.43
520.55	23270.04
520.752	23444.12
520.954	24107.66
521.155	23718.55
521.357	24271.5
521.559	24322.7
521.761	24867.46
521.963	24408.72
522.164	24887.94
522.366	24969.86
522.568	24857.22
522.77	25590.39
522.971	25655.93
523.173	25614.97
523.375	25563.77
523.576	25707.13
523.778	25959.03
523.98	26364.53
524.181	26313.33
524.383	26595.95
524.584	26786.41
524.786	26739.3
524.988	26813.03
525.189	27275.87
525.391	27468.38
525.592	27300.45
525.794	27775.58
525.995	27320.93
526.197	27710.04
526.398	27664.99
526.6	27851.35
526.801	27834.97
527.003	28205.65
527.204	28469.84
527.406	28643.91
527.607	28398.16
527.808	28635.72
528.01	28213.84
528.211	28660.3
528.412	29102.66
528.614	28893.77
528.815	29180.48
529.016	29080.13
529.218	28770.89
529.419	29231.68
529.62	29454.91
529.822	29311.55
530.023	29723.19
530.224	29524.54
530.425	29667.9
530.626	29227.59
530.828	29303.36
531.029	30317.11
531.23	29725.24
531.431	29471.29
531.632	29798.97
531.833	30040.63
532.035	29618.75
532.236	30319.15
532.437	29975.09
532.638	30028.34
532.839	29950.52
533.04	30183.99
533.241	29764.15
533.442	30560.81
533.643	30173.75
533.844	30175.8
534.045	30163.51
534.246	30263.86
534.447	30716.46
534.648	30261.81
534.849	30585.39
535.05	30071.35
535.251	30130.74
535.451	30257.71
535.652	30470.7
535.853	30138.93
536.054	30552.62
536.255	30364.21
536.456	30179.89
536.657	30874.15
536.857	30050.87
537.058	30599.73
537.259	30710.32
537.46	30816.81
537.66	30280.24
537.861	30587.44
538.062	30495.28
538.263	30734.89
538.463	30020.15
538.664	30130.74
538.865	30370.35
539.065	30493.23
539.266	30069.3
539.466	30773.8
539.667	30167.6
539.868	30589.49
540.068	30292.53
540.269	30442.03
540.469	30462.51
540.67	30253.62
540.87	30396.98
541.071	30093.88
541.271	30648.88
541.472	30241.33
541.672	30298.67
541.873	30118.45
542.073	29909.56
542.274	30741.03
542.474	30446.13
542.675	30151.22
542.875	30929.45
543.075	30161.46
543.276	30112.31
543.476	30452.27
543.676	30411.31
543.877	30157.36
544.077	30329.39
544.277	30413.36
544.478	30124.6
544.678	30562.86
544.878	30390.83
545.078	30374.45
545.279	29858.36
545.479	29868.6
545.679	30382.64
545.879	30382.64
546.079	30274.1
546.28	30005.81
546.48	30128.69
546.68	30243.38
546.88	30495.28
547.08	30069.3
547.28	29692.47
547.48	30147.12
547.68	30116.4
547.88	29835.83
548.081	30001.72
548.281	30151.22
548.481	30009.91
548.681	30265.91
548.881	30059.06
549.081	30104.12
549.28	30333.49
549.48	30085.68
549.68	29948.47
549.88	30548.53
550.08	30161.46
550.28	30024.25
550.48	29848.12
550.68	30298.67
550.88	29874.74
551.08	29903.42
551.279	30171.7
551.479	29837.88
551.679	30175.8
551.879	29809.21
552.079	30216.75
552.278	29831.74
552.478	30102.07
552.678	30001.72
552.878	30054.97
553.077	29925.94
553.277	29661.76
553.477	30210.61
553.676	29659.71
553.876	29766.2
554.076	29942.33
554.275	29760.06
554.475	29430.33
554.674	29858.36
554.874	29600.32
555.074	29731.39
555.273	29479.49
555.473	29504.06
555.672	29352.51
555.872	29545.02
556.071	29770.3
556.271	29768.25
556.47	29051.46
556.67	29170.24
556.869	29055.56
557.068	29278.79
557.268	29082.18
557.467	28967.49
557.667	29315.65
557.866	29008.45
558.065	29147.72
558.265	29123.14
558.464	28996.17
558.663	28895.82
558.863	28629.58
559.062	29047.36
559.261	28445.26
559.461	28791.37
559.66	28523.08
559.859	28686.92
560.058	28346.96
560.258	28471.89
560.457	28242.51
560.656	28453.45
560.855	28232.27
561.054	28512.84
561.253	28240.47
561.453	28428.88
561.652	28443.21
561.851	28674.63
562.05	27976.28
562.249	28101.2
562.448	28338.77
562.647	27902.55
562.846	28121.68
563.045	28050
563.244	27585.12
563.443	28043.86
563.642	27679.32
563.841	27863.64
564.04	27566.68
564.239	27759.19
564.438	27746.9
564.637	27628.12
564.836	27402.85
565.035	27247.2
565.234	27578.97
565.432	27214.43
565.631	27089.51
565.83	27525.72
566.029	26931.81
566.228	27179.62
566.427	27050.6
566.625	27089.51
566.824	26346.09
567.023	26980.96
567.222	26352.24
567.42	26874.47
567.619	26528.36
567.818	26614.38
568.016	26374.77
568.215	26679.91
568.414	26364.53
568.612	26700.39
568.811	26317.42
569.01	26100.34
569.208	25725.56
569.407	26108.53
569.605	25877.11
569.804	26335.85
570.002	25946.74
570.201	25852.53
570.4	25363.07
570.598	25543.29
570.797	25655.93
570.995	25397.88
571.193	25006.72
571.392	25451.13
571.59	24998.53
571.789	25373.31
571.987	25010.82
572.186	25348.73
572.384	24871.56
572.582	24885.89
572.781	25195.14
572.979	24930.95
573.177	24705.67
573.376	24629.9
573.574	24459.91
573.772	24652.42
573.971	24083.09
574.169	24064.66
574.367	24203.92
574.565	24466.06
574.763	24328.84
574.962	23857.81
575.16	23628.44
575.358	24197.77
575.556	23663.25
575.754	24504.97
575.952	23722.65
576.151	23855.76
576.349	23538.33
576.547	23626.39
576.745	23440.03
576.943	23782.04
577.141	23270.04
577.339	23890.58
577.537	23192.22
577.735	23216.8
577.933	23110.3
578.131	23265.95
578.329	22889.12
578.527	22737.57
578.725	23085.73
578.923	23136.93
579.121	22831.78
579.319	22586.02
579.516	23009.95
579.714	22719.14
579.912	22475.43
580.11	22543.02
580.308	22602.41
580.506	22262.44
580.704	22008.5
580.901	22088.37
581.099	22213.29
581.297	22178.48
581.495	21828.27
581.692	22162.09
581.89	22006.45
582.088	22164.14
582.285	21856.95
582.483	21988.02
582.681	21639.86
582.878	21435.06
583.076	21519.03
583.274	21594.81
583.471	21453.5
583.669	21420.73
583.866	21357.24
584.064	21326.52
584.262	21068.48
584.459	21127.87
584.657	21091.01
584.854	21303.99
585.052	20939.46
585.249	20814.53
585.447	20828.87
585.644	20587.21
585.841	20486.86
586.039	20906.69
586.236	20671.17
586.434	20615.88
586.631	20497.1
586.828	20689.6
587.026	20429.51
587.223	20454.09
587.42	20253.39
587.618	20409.03
587.815	20071.12
588.012	19995.34
588.21	19968.72
588.407	20048.59
588.604	19880.66
588.801	19819.22
588.999	19782.35
589.196	19696.34
589.393	19815.12
589.59	19473.11
589.787	19407.58
589.984	19413.72
590.182	19335.9
590.379	19432.15
590.576	19319.51
590.773	19235.55
590.97	19213.02
591.167	19352.28
591.364	18864.86
591.561	18969.31
591.758	18871.01
591.955	18973.41
592.152	19112.67
592.349	18907.87
592.546	19059.42
592.743	18754.27
592.94	18483.94
593.137	18524.9
593.334	18750.18
593.531	18225.9
593.727	18510.57
593.924	18533.09
594.121	18033.39
594.318	18459.37
594.515	18291.43
594.712	18375.4
594.908	18193.13
595.105	18123.5
595.302	17904.37
595.499	18111.21
595.696	17986.29
595.892	17959.66
596.089	17808.11
596.286	17847.02
596.482	17746.67
596.679	17677.04
596.876	17761.01
597.072	17601.27
597.269	17742.58
597.466	17468.15
597.662	17484.53
597.859	17472.25
598.055	17197.82
598.252	17308.41
598.448	17031.93
598.645	17128.19
598.841	16995.07
599.038	16976.64
599.234	17048.32
599.431	17185.53
599.627	16777.98
599.824	16894.72
600.02	16458.5
600.217	16599.81
600.413	16507.65
600.609	16362.25
600.806	16409.35
601.002	16653.06
601.198	16349.96
601.395	16407.3
601.591	16435.97
601.787	16519.94
601.984	16093.96
602.18	16532.23
602.376	16145.16
602.572	16083.72
602.769	15954.7
602.965	15997.71
603.161	16233.22
603.357	15823.63
603.553	15962.89
603.75	15966.99
603.946	15876.88
604.142	16069.39
604.338	15729.42
604.534	15489.81
604.73	15493.91
604.926	15749.9
605.122	15569.68
605.318	15405.84
605.514	15178.52
605.71	15495.96
605.906	15311.64
606.102	15315.73
606.298	15301.4
606.494	15088.41
606.69	15145.75
606.886	15076.12
607.082	15090.46
607.278	15094.55
607.474	14824.22
607.67	14975.77
607.866	14768.93
608.062	14949.15
608.257	14744.35
608.453	14678.82
608.649	14986.01
608.845	14555.94
609.041	14416.68
609.236	14662.43
609.432	14617.38
609.628	14408.48
609.824	14629.66
610.019	14435.11
610.215	14490.4
610.411	14367.52
610.606	14277.41
610.802	14680.86
610.998	14338.85
611.193	14390.05
611.389	14211.88
611.584	14177.06
611.78	14254.89
611.976	14263.08
612.171	14052.14
612.367	14050.09
612.562	14058.28
612.758	13802.29
612.953	13986.6
613.149	14156.58
613.344	13976.36
613.539	14064.43
613.735	13914.92
613.93	13783.85
614.126	14023.47
614.321	13722.41
614.517	13890.35
614.712	13675.31
614.907	13689.65
615.103	13568.82
615.298	13538.1
615.493	13867.82
615.688	13458.23
615.884	14140.2
616.079	13521.71
616.274	13517.62
616.47	13517.62
616.665	13284.15
616.86	13480.75
617.055	13665.07
617.25	13443.89
617.445	13378.36
617.641	13175.61
617.836	13278.01
618.031	12993.34
618.226	13241.14
618.421	13054.78
618.616	13118.26
618.811	12784.44
619.006	13171.51
619.201	12933.95
619.396	12985.15
619.591	12632.9
619.786	12987.19
619.981	12591.94
620.176	12870.46
620.371	12761.92
620.566	12567.36
620.761	12561.22
620.956	12251.97
621.151	12170.05
621.346	12473.15
621.541	12213.06
621.735	12598.08
621.93	12133.19
622.125	12143.43
622.32	11979.59
622.515	11998.02
622.709	11907.91
622.904	11854.67
623.099	11766.6
623.294	11709.26
623.488	11664.21
623.683	11832.14
623.878	11422.55
624.072	11553.62
624.267	11643.73
624.462	11473.74
624.656	11404.11
624.851	11445.07
625.046	11174.74
625.24	11154.26
625.435	11176.79
625.629	11062.1
625.824	11123.54
626.018	10906.46
626.213	10783.58
626.407	10857.31
626.602	10705.76
626.796	10718.04
626.991	10812.25
627.185	10466.14
627.38	10685.28
627.574	10398.56
627.768	10586.97
627.963	10390.37
628.157	10373.99
628.352	10343.27
628.546	10089.32
628.74	10363.75
628.935	10113.89
629.129	10011.5
629.323	10169.19
629.517	9982.82
629.712	9915.24
629.906	10011.5
630.1	9829.23
630.294	9708.4
630.489	9769.83
630.683	9737.07
630.877	9278.32
631.071	9429.87
631.265	9724.78
631.459	9491.31
631.653	9378.67
631.848	9276.27
632.042	9149.3
632.236	9280.37
632.43	9214.84
632.624	9237.36
632.818	9233.27
633.012	9020.28
633.206	9071.48
633.4	9132.92
633.594	8764.28
633.788	8852.34
633.982	8850.3
634.176	8889.21
634.369	8653.69
634.563	8735.61
634.757	8686.46
634.951	8641.4
635.145	8674.17
635.339	8559.49
635.533	8393.6
635.726	8407.94
635.92	8237.95
636.114	8399.74
636.308	8285.06
636.501	8395.65
636.695	8235.91
636.889	8096.64
637.083	8074.12
637.276	8051.59
637.47	8100.74
637.664	7998.34
637.857	7994.25
638.051	8078.21
638.244	7936.9
638.438	7955.33
638.632	7836.55
638.825	7621.52
639.019	7738.25
639.212	7682.95
639.406	7553.93
639.599	7504.78
639.793	7711.63
639.986	7283.6
640.18	7541.64
640.373	7467.92
640.567	7185.3
640.76	7525.26
640.954	7199.63
641.147	7087
641.34	7267.22
641.534	7338.9
641.727	7130
641.92	7132.05
642.114	7150.48
642.307	7039.89
642.5	7084.95
642.694	6937.49
642.887	6992.79
643.08	6931.35
643.273	6890.39
643.467	6790.04
643.66	6767.51
643.853	6648.73
644.046	6675.35
644.239	6708.12
644.432	6456.22
644.626	6652.83
644.819	6515.61
645.012	6607.77
645.205	6435.74
645.398	6372.25
645.591	6480.8
645.784	6204.32
645.977	6425.5
646.17	6290.34
646.363	6280.1
646.556	6140.83
646.749	6079.4
646.942	6282.14
647.135	6149.03
647.328	6439.84
647.521	6009.76
647.714	6087.59
647.907	6144.93
648.099	6030.24
648.292	5923.75
648.485	5858.21
648.678	5858.21
648.871	5919.65
649.064	5788.58
649.256	5837.73
649.449	5843.88
649.642	5743.53
649.835	5639.08
650.027	5653.42
650.22	5708.71
650.413	5671.85
650.605	5579.69
650.798	5680.04
650.991	5630.89
651.183	5587.88
651.376	5331.89
651.568	5364.65
651.761	5424.05
651.954	5538.73
652.146	5534.64
652.339	5303.22
652.531	5469.1
652.724	5249.97
652.916	5151.67
653.109	5299.12
653.301	5286.83
653.494	5129.14
653.686	5122.99
653.879	5241.78
654.071	5059.51
654.263	5116.85
654.456	5143.47
654.648	5079.99
654.84	4940.72
655.033	4963.25
655.225	4940.72
655.417	4903.86
655.61	4897.72
655.802	4907.96
655.994	4830.13
656.186	4860.85
656.379	4735.93
656.571	4629.43
656.763	4682.68
656.955	4742.07
657.148	4608.95
657.34	4672.44
657.532	4549.56
657.724	4504.51
657.916	4500.41
658.108	4621.24
658.3	4615.1
658.492	4557.75
658.684	4348.86
658.876	4348.86
659.068	4426.68
659.26	4381.63
659.452	4293.57
659.644	4527.03
659.836	4398.01
660.028	4291.52
660.22	4340.67
660.412	4398.01
660.604	4258.75
660.796	4246.46
660.988	4170.69
661.18	4144.06
661.372	4084.67
661.563	4172.74
661.755	4197.31
661.947	4178.88
662.139	4148.16
662.331	4004.8
662.522	3963.84
662.714	4084.67
662.906	3986.37
663.097	4033.47
663.289	3775.43
663.481	4053.95
663.673	3961.8
663.864	4006.85
664.056	3863.49
664.247	3832.77
664.439	3765.19
664.631	3836.87
664.822	3861.45
665.014	3800.01
665.205	3716.04
665.397	3818.44
665.588	3810.25
665.78	3795.91
665.971	3744.71
666.163	3652.55
666.354	3789.77
666.546	3640.26
666.737	3689.42
666.929	3644.36
667.12	3601.35
667.311	3748.81
667.503	3546.06
667.694	3572.68
667.885	3595.21
668.077	3468.24
668.268	3470.28
668.459	3529.67
668.651	3482.57
668.842	3496.91
669.033	3392.46
669.224	3445.71
669.416	3498.95
669.607	3490.76
669.798	3492.81
669.989	3425.23
670.18	3202
670.371	3404.75
670.563	3271.63
670.754	3251.15
670.945	3265.49
671.136	3374.03
671.327	3234.77
671.518	3179.47
671.709	3177.42
671.9	3115.98
672.091	3320.78
672.282	3247.05
672.473	3165.14
672.664	3265.49
672.855	3048.4
673.046	3152.85
673.237	3208.14
673.428	3070.93
673.619	3097.55
673.809	3087.31
674	3050.45
674.191	3062.74
674.382	3144.66
674.573	3017.68
674.764	3040.21
674.954	3072.98
675.145	3111.89
675.336	3083.22
675.527	2976.72
675.717	3111.89
675.908	3054.55
676.099	2982.87
676.289	3007.44
676.48	3005.39
676.671	3107.79
676.861	2943.96
677.052	2919.38
677.243	2991.06
677.433	2855.89
677.624	2933.72
677.814	3009.49
678.005	2794.45
678.195	2882.52
678.386	2935.76
678.576	2878.42
678.767	3042.26
678.957	2886.61
679.148	2714.58
679.338	2878.42
679.529	2874.32
679.719	2851.8
679.909	2878.42
680.1	2755.54
680.29	2960.34
680.481	2806.74
680.671	2784.21
680.861	2751.45
681.052	2804.69
681.242	2778.07
681.432	2812.89
681.622	2763.73
681.813	2823.12
682.003	2921.43
682.193	2718.68
682.383	2804.69
682.573	2769.88
682.764	2759.64
682.954	2726.87
683.144	2728.92
683.334	2886.61
683.524	2728.92
683.714	2739.16
683.904	2671.58
684.094	2661.34
684.284	2653.14
684.474	2855.89
684.664	2745.3
684.854	2661.34
685.044	2626.52
685.234	2575.32
685.424	2696.15
685.614	2687.96
685.804	2638.81
685.994	2714.58
686.184	2583.51
686.374	2546.65
686.564	2517.98
686.753	2603.99
686.943	2603.99
687.133	2505.69
687.323	2616.28
687.513	2554.84
687.702	2587.61
687.892	2524.12
688.082	2560.98
688.272	2700.25
688.461	2462.68
688.651	2616.28
688.841	2460.63
689.03	2456.54
689.22	2456.54
689.41	2450.39
689.599	2429.91
689.789	2415.58
689.979	2423.77
690.168	2403.29
690.358	2374.62
690.547	2403.29
690.737	2395.1
690.926	2307.04
691.116	2309.08
691.305	2313.18
691.495	2296.8
691.684	2339.8
691.874	2411.48
692.063	2317.28
692.252	2343.9
692.442	2317.28
692.631	2288.61
692.82	2249.69
693.01	2218.97
693.199	2253.79
693.388	2202.59
693.578	2223.07
693.767	2249.69
693.956	2268.13
694.146	2186.21
694.335	2274.27
694.524	2210.78
694.713	2137.06
694.902	2135.01
695.092	2208.73
695.281	2124.77
695.47	2204.64
695.659	2196.45
695.848	2114.53
696.037	2200.54
696.226	2073.57
696.415	2171.87
696.604	2067.42
696.793	2157.54
696.982	2112.48
697.171	2173.92
697.36	2034.66
697.549	2225.12
697.738	2067.42
697.927	2040.8
698.116	2046.94
698.305	2071.52
698.494	2106.34
698.683	2122.72
698.872	2071.52
699.061	2167.77
699.25	2100.19
699.438	2081.76
699.627	2055.14
699.816	2157.54
700.005	2020.32
700.193	2042.85
700.382	2071.52
700.571	2239.45
700.76	2048.99
700.948	2057.18
701.137	2032.61
701.326	2098.14
701.514	2012.13
701.703	2008.03
701.892	2040.8
702.08	2112.48
702.269	2038.75
702.457	2001.89
702.646	2018.27
702.834	1989.6
703.023	2063.33
703.212	2030.56
703.4	2089.95
703.589	1950.69
703.777	2159.58
703.965	2079.71
704.154	2022.37
704.342	2051.04
704.531	2005.99
704.719	2003.94
704.907	1987.55
705.096	2012.13
705.284	2042.85
705.472	2063.33
705.661	2046.94
705.849	1973.22
706.037	2124.77
706.226	2008.03
706.414	2022.37
706.602	2053.09
706.79	2067.42
706.979	1948.64
707.167	2022.37
707.355	1944.55
707.543	1942.5
707.731	2106.34
707.919	1958.88
708.107	2022.37
708.296	1975.27
708.484	2038.75
708.672	1948.64
708.86	2030.56
709.048	2005.99
709.236	2055.14
709.424	1942.5
709.612	2034.66
709.8	1993.7
709.988	1881.06
710.176	2116.58
710.364	1995.75
710.551	1999.84
710.739	1913.83
710.927	1962.98
711.115	2122.72
711.303	1940.45
711.491	1919.97
711.679	2069.47
711.866	1993.7
712.054	2026.47
712.242	1954.79
712.43	1969.12
712.617	2008.03
712.805	1983.46
712.993	1926.11
713.181	2016.23
713.368	2051.04
713.556	2059.23
713.744	1979.36
713.931	2003.94
714.119	1893.35
714.306	1893.35
714.494	1977.31
714.682	1950.69
714.869	1983.46
715.057	2001.89
715.244	1909.73
715.432	2055.14
715.619	1956.83
715.807	2016.23
715.994	1942.5
716.182	1975.27
716.369	2030.56
716.556	2042.85
716.744	1995.75
716.931	1960.93
717.119	1934.31
717.306	2018.27
717.493	2040.8
717.681	2069.47
717.868	2048.99
718.055	1973.22
718.242	2028.51
718.43	2055.14
718.617	2010.08
718.804	1989.6
718.991	2034.66
719.179	1946.59
719.366	1895.4
719.553	1960.93
719.74	1981.41
719.927	1911.78
720.114	1883.11
720.301	1977.31
720.488	1956.83
720.676	2020.32
720.863	2053.09
721.05	1993.7
721.237	2020.32
721.424	2038.75
721.611	1915.87
721.798	1973.22
721.985	2014.18
722.172	2042.85
722.358	1938.4
722.545	1975.27
722.732	2005.99
722.919	1979.36
723.106	2001.89
723.293	1856.48
723.48	1942.5
723.667	1954.79
723.853	2001.89
724.04	1999.84
724.227	1944.55
724.414	1917.92
724.6	1942.5
724.787	2003.94
724.974	1979.36
725.161	2014.18
725.347	1870.82
725.534	1911.78
725.72	2032.61
725.907	1922.02
726.094	2024.42
726.28	1944.55
726.467	1891.3
726.653	1866.72
726.84	1987.55
727.027	2003.94
727.213	2020.32
727.4	2026.47
727.586	1840.1
727.773	1999.84
727.959	1999.84
728.145	1985.51
728.332	1936.35
728.518	1889.25
728.705	2030.56
728.891	1979.36
729.077	1993.7
729.264	1973.22
729.45	1932.26
729.636	1870.82
729.823	1815.52
730.009	1885.16
730.195	2005.99
730.382	1995.75
730.568	2005.99
730.754	1944.55
730.94	1952.74
731.126	1993.7
731.313	1960.93
731.499	2012.13
731.685	1938.4
731.871	1952.74
732.057	2026.47
732.243	2020.32
732.429	1956.83
732.615	2012.13
732.801	1946.59
732.987	1973.22
733.173	1909.73
733.359	2020.32
733.545	1858.53
733.731	1956.83
733.917	1993.7
734.103	1958.88
734.289	1958.88
734.475	1991.65
734.661	1879.01
734.847	1897.44
735.033	1915.87
735.219	1879.01
735.404	1911.78
735.59	1907.68
735.776	1879.01
735.962	1893.35
736.148	1975.27
736.333	1946.59
736.519	1838.05
736.705	1881.06
736.89	1850.34
737.076	1817.57
737.262	1876.96
737.447	1942.5
737.633	1911.78
737.819	1967.07
738.004	1934.31
738.19	1844.2
738.375	1850.34
738.561	1903.59
738.747	1872.87
738.932	1815.52
739.118	1934.31
739.303	1852.39
739.489	1813.48
739.674	1782.76
739.859	1850.34
740.045	1893.35
740.23	1768.42
740.416	1836
740.601	1821.67
740.786	1821.67
740.972	1797.09
741.157	1817.57
741.342	1672.17
741.528	1809.38
741.713	1788.9
741.898	1868.77
742.084	1881.06
742.269	1743.85
742.454	1833.96
742.639	1813.48
742.824	1745.89
743.01	1868.77
743.195	1858.53
743.38	1680.36
743.565	1762.28
743.75	1745.89
743.935	1606.63
744.12	1819.62
744.305	1719.27
744.49	1717.22
744.675	1643.49
744.86	1713.13
745.045	1608.68
745.23	1749.99
745.415	1758.18
745.6	1651.69
745.785	1745.89
745.97	1690.6
746.155	1739.75
746.34	1690.6
746.525	1643.49
746.71	1641.45
746.895	1627.11
747.079	1588.2
747.264	1522.66
747.449	1737.7
747.634	1520.62
747.819	1629.16
748.003	1565.67
748.188	1582.06
748.373	1653.73
748.557	1537
748.742	1577.96
748.927	1502.19
749.111	1522.66
749.296	1491.95
749.481	1475.56
749.665	1461.23
749.85	1448.94
750.034	1508.33
750.219	1448.94
750.404	1467.37
750.588	1354.73
750.773	1412.07
750.957	1364.97
751.141	1428.46
751.326	1432.55
751.51	1342.44
751.695	1352.68
751.879	1397.74
752.064	1340.4
752.248	1371.12
752.432	1364.97
752.617	1309.68
752.801	1448.94
752.985	1412.07
753.17	1350.64
753.354	1281
753.538	1338.35
753.722	1369.07
753.907	1299.44
754.091	1240.05
754.275	1201.13
754.459	1354.73
754.643	1244.14
754.828	1338.35
755.012	1244.14
755.196	1192.94
755.38	1246.19
755.564	1182.7
755.748	1170.41
755.932	1221.61
756.116	1264.62
756.3	1156.08
756.484	1127.41
756.668	1246.19
756.852	1162.22
757.036	1223.66
757.22	1070.06
757.404	1199.09
757.588	1088.5
757.772	1029.1
757.956	1025.01
758.14	1117.17
758.323	1037.3
758.507	1100.78
758.691	1061.87
758.875	1090.54
759.059	1102.83
759.242	953.33
759.426	1057.78
759.61	969.71
759.794	1035.25
759.977	1029.1
760.161	1047.54
760.345	1000.43
760.528	1059.82
760.712	943.09
760.895	984.05
761.079	1065.97
761.263	986.1
761.446	994.29
761.63	920.56
761.813	951.28
761.997	988.14
762.18	967.67
762.364	988.14
762.547	938.99
762.731	1012.72
762.914	869.36
763.098	869.36
763.281	936.95
763.464	830.45
763.648	947.19
763.831	850.93
764.015	912.37
764.198	934.9
764.381	941.04
764.564	922.61
764.748	875.51
764.931	898.03
765.114	867.31
765.297	916.47
765.481	836.6
765.664	799.73
765.847	838.64
766.03	881.65
766.213	832.5
766.397	850.93
766.58	773.11
766.763	898.03
766.946	828.4
767.129	855.03
767.312	848.88
767.495	867.31
767.678	820.21
767.861	867.31
768.044	791.54
768.227	785.4
768.41	834.55
768.593	764.92
768.776	818.16
768.959	795.64
769.142	848.88
769.324	736.24
769.507	793.59
769.69	795.64
769.873	750.58
770.056	814.07
770.239	865.27
770.421	668.66
770.604	828.4
770.787	748.53
770.97	779.25
771.152	836.6
771.335	828.4
771.518	818.16
771.7	756.72
771.883	732.15
772.066	723.96
772.248	764.92
772.431	723.96
772.613	699.38
772.796	742.39
772.978	736.24
773.161	730.1
773.343	736.24
773.526	605.17
773.708	713.72
773.891	736.24
774.073	750.58
774.256	619.51
774.438	766.96
774.621	656.37
774.803	654.33
774.985	605.17
775.168	748.53
775.35	648.18
775.532	676.85
775.715	644.09
775.897	664.57
776.079	627.7
776.261	625.65
776.444	613.37
776.626	656.37
776.808	582.65
776.99	611.32
777.173	519.16
777.355	670.71
777.537	599.03
777.719	660.47
777.901	545.78
778.083	513.02
778.265	594.93
778.447	644.09
778.629	523.26
778.811	515.06
778.993	547.83
779.175	553.98
779.357	496.63
779.539	549.88
779.721	502.78
779.903	525.3
780.085	539.64
780.267	607.22
780.449	613.37
780.631	568.31
780.812	494.58
780.994	490.49
781.176	549.88
781.358	490.49
781.54	443.39
781.721	515.06
781.903	429.05
782.085	474.1
782.267	541.69
782.448	424.95
782.63	547.83
782.812	484.34
782.993	482.3
783.175	545.78
783.357	445.43
783.538	482.3
783.72	486.39
783.901	345.08
784.083	457.72
784.264	422.91
784.446	396.28
784.627	443.39
784.809	429.05
784.99	314.36
785.172	433.15
785.353	467.96
785.535	416.76
785.716	328.7
785.897	388.09
786.079	345.08
786.26	457.72
786.441	336.89
786.623	369.66
786.804	336.89
786.985	359.42
787.167	338.94
787.348	412.67
787.529	328.7
787.71	322.56
787.891	377.85
788.073	338.94
788.254	371.71
788.435	330.75
788.616	414.71
788.797	295.93
788.978	373.75
789.159	365.56
789.34	390.14
789.522	267.26
789.703	363.51
789.884	353.27
790.065	357.37
790.246	332.79
790.427	373.75
790.607	398.33
790.788	365.56
790.969	297.98
791.15	371.71
791.331	316.41
791.512	318.46
791.693	289.79
791.874	312.32
792.054	367.61
792.235	285.69
792.416	259.07
792.597	279.55
792.778	340.99
792.958	269.31
793.139	302.08
793.32	326.65
793.5	302.08
793.681	359.42
793.862	257.02
794.042	244.73
794.223	246.78
794.404	236.54
794.584	277.5
794.765	302.08
794.945	295.93
795.126	287.74
795.306	293.88
795.487	273.4
795.667	207.87
795.848	304.12
796.028	193.53
796.209	246.78
796.389	244.73
796.57	218.11
796.75	291.84
796.93	312.32
797.111	203.77
797.291	279.55
797.471	275.45
797.652	244.73
797.832	214.01
798.012	242.68
798.192	173.05
798.373	236.54
798.553	179.2
798.733	226.3
798.913	257.02
799.093	119.81
799.274	211.96
799.454	248.83
799.634	195.58
799.814	322.56
799.994	267.26
800.174	218.11
800.354	205.82
800.534	197.63
800.714	232.44
800.894	152.57
801.074	175.1
801.254	179.2
801.434	205.82
801.614	201.72
801.794	162.81
801.974	582.65
802.154	193.53
802.334	197.63
802.514	234.49
802.693	203.77
802.873	168.96
803.053	134.14
803.233	224.25
803.413	156.67
803.592	175.1
803.772	152.57
803.952	191.49
804.131	105.47
804.311	187.39
804.491	224.25
804.67	171.01
804.85	189.44
805.03	193.53
805.209	230.4
805.389	158.72
805.568	183.29
805.748	173.05
805.928	191.49
806.107	150.53
806.287	238.59
806.466	168.96
806.646	113.66
806.825	189.44
807.004	148.48
807.184	175.1
807.363	187.39
807.543	181.25
807.722	168.96
807.901	183.29
808.081	154.62
808.26	111.61
808.439	134.14
808.619	160.77
808.798	166.91
808.977	166.91
809.156	173.05
809.336	187.39
809.515	177.15
809.694	107.52
809.873	148.48
810.052	156.67
810.231	150.53
810.411	128
810.59	177.15
810.769	142.33
810.948	152.57
811.127	136.19
811.306	111.61
811.485	134.14
811.664	125.95
811.843	166.91
812.022	60.42
812.201	132.09
812.38	136.19
812.559	166.91
812.737	162.81
812.916	154.62
813.095	152.57
813.274	185.34
813.453	132.09
813.632	113.66
813.811	101.37
813.989	107.52
814.168	103.42
814.347	97.28
814.526	76.8
814.704	121.85
814.883	119.81
815.062	160.77
815.24	46.08
815.419	123.9
815.598	105.47
815.776	134.14
815.955	72.7
816.133	80.89
816.312	207.87
816.49	156.67
816.669	123.9
816.847	128
817.026	103.42
817.204	138.24
817.383	78.85
817.561	134.14
817.74	113.66
817.918	39.94
818.097	128
818.275	117.76
818.453	103.42
818.632	84.99
818.81	87.04
818.988	107.52
819.167	91.13
819.345	109.57
819.523	103.42
819.701	72.7
819.879	134.14
820.058	160.77
820.236	101.37
820.414	105.47
820.592	138.24
820.77	-1.02
820.948	119.81
821.127	134.14
821.305	99.33
821.483	78.85
821.661	115.71
821.839	121.85
822.017	76.8
822.195	93.18
822.373	132.09
822.551	39.94
822.729	128
822.907	72.7
823.085	84.99
823.262	99.33
823.44	132.09
823.618	31.74
823.796	44.03
823.974	95.23
824.152	50.18
824.329	105.47
824.507	93.18
824.685	117.76
824.863	52.22
825.04	72.7
825.218	39.94
825.396	78.85
825.574	72.7
825.751	80.89
825.929	31.74
826.107	89.09
826.284	144.38
826.462	146.43
826.639	64.51
826.817	48.13
826.994	13.31
827.172	89.09
827.349	84.99
827.527	134.14
827.704	41.98
827.882	97.28
828.059	78.85
828.237	25.6
828.414	109.57
828.591	101.37
828.769	68.61
828.946	68.61
829.124	37.89
829.301	109.57
829.478	33.79
829.655	60.42
829.833	31.74
830.01	78.85
830.187	60.42
830.364	50.18
830.542	52.22
830.719	64.51
830.896	91.13
831.073	66.56
831.25	66.56
831.427	39.94
831.604	21.5
831.782	13.31
831.959	44.03
832.136	25.6
832.313	52.22
832.49	23.55
832.667	62.46
832.844	68.61
833.021	78.85
833.198	95.23
833.374	9.22
833.551	74.75
833.728	107.52
833.905	95.23
834.082	62.46
834.259	7.17
834.436	89.09
834.612	37.89
834.789	74.75
834.966	46.08
835.143	93.18
835.319	68.61
835.496	105.47
835.673	82.94
835.85	74.75
836.026	132.09
836.203	113.66
836.38	11.26
836.556	84.99
836.733	113.66
836.909	66.56
837.086	58.37
837.262	84.99
837.439	-5.12
837.616	35.84
837.792	19.46
837.968	23.55
838.145	68.61
838.321	-15.36
838.498	113.66
838.674	50.18
838.851	72.7
839.027	72.7
839.203	74.75
839.38	60.42
839.556	25.6
839.732	-5.12
839.909	78.85
840.085	113.66
840.261	37.89
840.437	82.94
840.614	-25.6
840.79	99.33
840.966	27.65
841.142	52.22
841.318	-19.46
841.494	99.33
841.671	-17.41
841.847	93.18
842.023	66.56
842.199	31.74
842.375	23.55
842.551	-62.46
842.727	-17.41
842.903	87.04
843.079	9.22
843.255	37.89
843.431	3.07
843.607	138.24
843.783	58.37
843.959	56.32
844.134	33.79
844.31	60.42
844.486	23.55
844.662	5.12
844.838	-15.36
845.013	56.32
845.189	31.74
845.365	50.18
845.541	-1.02
845.716	15.36
845.892	48.13
846.068	1.02
846.244	95.23
846.419	64.51
846.595	-17.41
846.77	89.09
846.946	76.8
847.122	7.17
847.297	50.18
847.473	87.04
847.648	52.22
847.824	11.26
847.999	-5.12
848.175	17.41
848.35	48.13
848.526	21.5
848.701	33.79
848.876	11.26
849.052	37.89
849.227	11.26
849.403	52.22
849.578	3.07
849.753	56.32
849.929	5.12
850.104	25.6
850.279	58.37
850.454	76.8
850.63	-13.31
850.805	9.22
850.98	31.74
851.155	19.46
851.33	11.26
851.505	37.89
851.681	33.79
851.856	23.55
852.031	56.32
852.206	9.22
852.381	-1.02
852.556	-74.75
852.731	23.55
852.906	46.08
853.081	-13.31
853.256	44.03
853.431	46.08
853.606	-29.7
853.781	-1.02
853.956	64.51
854.131	91.13
854.305	-9.22
854.48	107.52
854.655	101.37
854.83	-19.46
855.005	76.8
855.18	3.07
855.354	33.79
855.529	29.7
855.704	35.84
855.879	-50.18
856.053	-13.31
856.228	33.79
856.403	-52.22
856.577	93.18
856.752	-13.31
856.926	33.79
857.101	-5.12
857.276	-41.98
857.45	56.32
857.625	-37.89
857.799	-7.17
857.974	-25.6
858.148	-35.84
858.323	39.94
858.497	68.61
858.672	39.94
858.846	3.07
859.02	9.22
859.195	-31.74
859.369	-39.94
859.543	-25.6
859.718	-15.36
859.892	23.55
860.066	-9.22
860.241	-39.94
860.415	33.79
860.589	17.41
860.763	-9.22
860.938	48.13
861.112	29.7
861.286	50.18
861.46	37.89
861.634	-54.27
861.808	-9.22
861.982	-35.84
862.157	-56.32
862.331	-1.02
862.505	-9.22
862.679	-11.26
862.853	-17.41
863.027	-1.02
863.201	54.27
863.375	-56.32
863.549	-29.7
863.722	5.12
863.896	33.79
864.07	3.07
864.244	70.65
864.418	89.09
864.592	13.31
864.766	44.03
864.939	-44.03
865.113	-72.7
865.287	35.84
865.461	1.02
865.634	35.84
865.808	-46.08
865.982	-11.26
866.156	13.31
866.329	9.22
866.503	-9.22
866.676	58.37
866.85	-9.22
867.024	-54.27
867.197	76.8
867.371	-27.65
867.544	50.18
867.718	-19.46
867.891	39.94
868.065	-35.84
868.238	52.22
868.412	74.75
868.585	11.26
868.759	-3.07
868.932	39.94
869.105	1.02
869.279	19.46
869.452	-19.46
869.625	5.12
869.799	7.17
869.972	52.22
870.145	58.37
870.319	56.32
870.492	9.22
870.665	-9.22
870.838	39.94
871.011	5.12
871.185	-1.02
871.358	41.98
871.531	-13.31
871.704	-13.31
871.877	54.27
872.05	-7.17
872.223	15.36
872.396	33.79
872.569	-9.22
872.742	-19.46
872.915	-17.41
873.088	-19.46
873.261	21.5
873.434	72.7
873.607	-11.26
873.78	76.8
873.953	-50.18
874.126	41.98
874.299	-15.36
874.471	-31.74
874.644	19.46
874.817	39.94
874.99	72.7
875.163	31.74
875.335	56.32
875.508	-46.08
875.681	15.36
875.853	37.89
876.026	64.51
876.199	-1.02
876.371	89.09
876.544	-46.08
876.717	68.61
876.889	-21.5
877.062	31.74
877.234	-5.12
877.407	27.65
877.579	27.65
877.752	7.17
877.924	-19.46
878.097	62.46
878.269	-91.13
878.442	25.6
878.614	72.7
878.786	27.65
878.959	-31.74
879.131	-5.12
879.303	-33.79
879.476	17.41
879.648	-11.26
879.82	64.51
879.993	-7.17
880.165	5.12
880.337	-1.02
880.509	5.12
880.681	-56.32
880.854	-54.27
881.026	-29.7
881.198	39.94
881.37	48.13
881.542	58.37
881.714	11.26
881.886	-39.94
882.058	-46.08
882.23	72.7
882.402	27.65
882.574	35.84
882.746	29.7
882.918	-15.36
883.09	-48.13
883.262	-9.22
883.434	19.46
883.606	-21.5
883.778	-17.41
883.95	91.13
884.122	-44.03
884.293	29.7
884.465	5.12
884.637	56.32
884.809	91.13
884.98	-50.18
885.152	23.55
885.324	97.28
885.496	13.31
885.667	-1.02
885.839	27.65
886.011	80.89
886.182	1.02
886.354	-9.22
886.525	3.07
886.697	29.7
886.869	15.36
887.04	37.89
887.212	33.79
887.383	5.12
887.555	13.31
887.726	-9.22
887.897	19.46
888.069	5.12
888.24	29.7
888.412	9.22
888.583	23.55
888.754	-41.98
888.926	25.6
889.097	11.26
889.268	-97.28
889.44	-39.94
889.611	1.02
889.782	-13.31
889.953	5.12
890.125	-11.26
890.296	1.02
890.467	19.46
890.638	-25.6
890.809	31.74
890.98	-44.03
891.151	72.7
891.323	-1.02
891.494	-9.22
891.665	-23.55
891.836	3.07
892.007	-41.98
892.178	39.94
892.349	19.46
892.52	-29.7
892.691	-7.17
892.862	-15.36
893.032	-23.55
893.203	19.46
893.374	-54.27
893.545	11.26
893.716	5.12
893.887	1.02
894.057	-48.13
894.228	111.61
894.399	35.84
894.57	33.79
894.74	25.6
894.911	52.22
895.082	-46.08
895.253	15.36
895.423	48.13
895.594	-1.02
895.764	-9.22
895.935	3.07
896.106	-17.41
896.276	-13.31
896.447	9.22
896.617	52.22
896.788	-44.03
896.958	13.31
897.129	-13.31
897.299	-11.26
897.47	9.22
897.64	39.94
897.81	9.22
897.981	11.26
898.151	46.08
898.322	-5.12
898.492	-7.17
898.662	13.31
898.832	1.02
899.003	23.55
899.173	72.7
899.343	17.41
899.513	5.12
