Data from USB4F104151__133__11-07-48-174.txt Node

Date: Wed Mar 12 11:07:48 EDT 2025
User: louis
Spectrometer: USB4F10415
Trigger mode: 4
Integration Time (sec): 2.000000E-2
Scans to average: 1
Electric dark correction enabled: true
Nonlinearity correction enabled: false
Boxcar width: 0
XAxis mode: Wavelengths
Number of Pixels in Spectrum: 3648
>>>>>Begin Spectral Data<<<<<
178.204	-46.93
178.424	-46.93
178.644	-46.93
178.864	-87.89
179.084	-40.79
179.304	37.03
179.524	-28.5
179.744	14.51
179.964	-1.88
180.184	-44.88
180.404	14.51
180.624	30.89
180.844	-16.21
181.064	51.37
181.283	20.65
181.503	-55.12
181.723	-22.36
181.943	-26.45
182.163	18.6
182.383	24.75
182.602	98.47
182.822	-51.03
183.042	55.47
183.262	-24.4
183.482	49.32
183.701	12.46
183.921	63.66
184.141	-28.5
184.361	65.71
184.58	22.7
184.8	71.85
185.02	8.36
185.239	43.18
185.459	63.66
185.679	39.08
185.898	8.36
186.118	55.47
186.338	69.8
186.557	37.03
186.777	0.17
186.997	16.55
187.216	30.89
187.436	41.13
187.655	28.84
187.875	-18.26
188.095	32.94
188.314	-10.07
188.534	47.27
188.753	-18.26
188.973	82.09
189.192	59.56
189.412	2.22
189.631	6.31
189.851	61.61
190.07	18.6
190.29	-14.17
190.509	43.18
190.729	-18.26
190.948	37.03
191.168	157.86
191.387	106.67
191.607	8.36
191.826	43.18
192.045	-10.07
192.265	4.27
192.484	73.9
192.704	41.13
192.923	22.7
193.142	69.8
193.362	47.27
193.581	2.22
193.8	80.04
194.02	80.04
194.239	-10.07
194.458	-20.31
194.678	-59.22
194.897	71.85
195.116	37.03
195.335	30.89
195.555	22.7
195.774	-20.31
195.993	49.32
196.212	22.7
196.432	-18.26
196.651	18.6
196.87	32.94
197.089	37.03
197.308	-14.17
197.528	82.09
197.747	0.17
197.966	24.75
198.185	57.51
198.404	77.99
198.623	-42.84
198.842	108.71
199.062	10.41
199.281	20.65
199.5	39.08
199.719	22.7
199.938	20.65
200.157	63.66
200.376	86.19
200.595	69.8
200.814	-42.84
201.033	32.94
201.252	51.37
201.471	18.6
201.69	4.27
201.909	-18.26
202.128	-16.21
202.347	20.65
202.566	-10.07
202.785	-32.6
203.004	-8.02
203.223	92.33
203.442	8.36
203.661	4.27
203.879	-1.88
204.098	57.51
204.317	-1.88
204.536	34.99
204.755	34.99
204.974	30.89
205.193	63.66
205.411	67.75
205.63	69.8
205.849	47.27
206.068	59.56
206.287	22.7
206.505	8.36
206.724	14.51
206.943	51.37
207.162	30.89
207.381	47.27
207.599	24.75
207.818	16.55
208.037	10.41
208.255	37.03
208.474	34.99
208.693	-10.07
208.911	34.99
209.13	71.85
209.349	22.7
209.567	77.99
209.786	51.37
210.005	-40.79
210.223	32.94
210.442	10.41
210.661	24.75
210.879	75.95
211.098	69.8
211.316	-1.88
211.535	67.75
211.753	-28.5
211.972	22.7
212.191	110.76
212.409	-14.17
212.628	26.79
212.846	16.55
213.065	45.23
213.283	63.66
213.502	32.94
213.72	-16.21
213.938	80.04
214.157	22.7
214.375	47.27
214.594	41.13
214.812	16.55
215.031	106.67
215.249	30.89
215.467	80.04
215.686	14.51
215.904	4.27
216.122	8.36
216.341	51.37
216.559	24.75
216.778	-26.45
216.996	43.18
217.214	24.75
217.432	-8.02
217.651	10.41
217.869	2.22
218.087	4.27
218.306	-14.17
218.524	-14.17
218.742	-3.93
218.96	104.62
219.179	-3.93
219.397	41.13
219.615	28.84
219.833	88.23
220.051	-34.64
220.27	94.38
220.488	98.47
220.706	57.51
220.924	86.19
221.142	20.65
221.36	-12.12
221.578	14.51
221.796	-8.02
222.015	20.65
222.233	22.7
222.451	51.37
222.669	4.27
222.887	43.18
223.105	14.51
223.323	51.37
223.541	28.84
223.759	26.79
223.977	49.32
224.195	-5.97
224.413	39.08
224.631	-5.97
224.849	34.99
225.067	26.79
225.285	-1.88
225.503	-10.07
225.721	-53.08
225.939	-3.93
226.157	69.8
226.375	47.27
226.592	18.6
226.81	49.32
227.028	32.94
227.246	129.19
227.464	4.27
227.682	-14.17
227.9	69.8
228.117	75.95
228.335	34.99
228.553	37.03
228.771	16.55
228.989	45.23
229.206	39.08
229.424	14.51
229.642	-24.4
229.86	-5.97
230.077	110.76
230.295	61.61
230.513	-8.02
230.731	16.55
230.948	88.23
231.166	88.23
231.384	22.7
231.601	4.27
231.819	55.47
232.037	92.33
232.254	51.37
232.472	-3.93
232.689	16.55
232.907	-8.02
233.125	30.89
233.342	-16.21
233.56	55.47
233.777	2.22
233.995	12.46
234.213	75.95
234.43	14.51
234.648	10.41
234.865	34.99
235.083	24.75
235.3	28.84
235.518	39.08
235.735	0.17
235.953	55.47
236.17	77.99
236.388	-18.26
236.605	8.36
236.822	82.09
237.04	67.75
237.257	20.65
237.475	55.47
237.692	26.79
237.909	47.27
238.127	55.47
238.344	12.46
238.562	34.99
238.779	-1.88
238.996	49.32
239.214	2.22
239.431	14.51
239.648	-5.97
239.865	30.89
240.083	59.56
240.3	28.84
240.517	43.18
240.735	47.27
240.952	55.47
241.169	94.38
241.386	63.66
241.603	49.32
241.821	18.6
242.038	63.66
242.255	63.66
242.472	18.6
242.689	75.95
242.907	39.08
243.124	104.62
243.341	-14.17
243.558	67.75
243.775	2.22
243.992	-32.6
244.209	61.61
244.426	108.71
244.643	32.94
244.86	-5.97
245.078	61.61
245.295	71.85
245.512	32.94
245.729	6.31
245.946	14.51
246.163	-24.4
246.38	-10.07
246.597	61.61
246.814	26.79
247.031	2.22
247.248	30.89
247.464	26.79
247.681	-46.93
247.898	-30.55
248.115	2.22
248.332	37.03
248.549	77.99
248.766	39.08
248.983	12.46
249.2	57.51
249.417	26.79
249.633	-14.17
249.85	65.71
250.067	32.94
250.284	20.65
250.501	18.6
250.717	63.66
250.934	59.56
251.151	-59.22
251.368	43.18
251.585	-51.03
251.801	-22.36
252.018	-20.31
252.235	28.84
252.451	-3.93
252.668	6.31
252.885	53.42
253.102	55.47
253.318	0.17
253.535	14.51
253.752	22.7
253.968	-53.08
254.185	18.6
254.401	92.33
254.618	71.85
254.835	22.7
255.051	43.18
255.268	-10.07
255.484	0.17
255.701	71.85
255.917	88.23
256.134	20.65
256.351	-8.02
256.567	-30.55
256.784	-14.17
257	-3.93
257.217	71.85
257.433	53.42
257.65	57.51
257.866	18.6
258.082	16.55
258.299	84.14
258.515	82.09
258.732	16.55
258.948	-8.02
259.165	-26.45
259.381	20.65
259.597	20.65
259.814	8.36
260.03	49.32
260.246	55.47
260.463	86.19
260.679	34.99
260.895	34.99
261.112	69.8
261.328	80.04
261.544	4.27
261.761	63.66
261.977	4.27
262.193	4.27
262.409	47.27
262.626	12.46
262.842	82.09
263.058	-1.88
263.274	110.76
263.49	8.36
263.707	45.23
263.923	24.75
264.139	-1.88
264.355	96.43
264.571	-20.31
264.787	55.47
265.004	-3.93
265.22	-1.88
265.436	69.8
265.652	18.6
265.868	55.47
266.084	22.7
266.3	32.94
266.516	20.65
266.732	98.47
266.948	104.62
267.164	-8.02
267.38	30.89
267.596	34.99
267.812	86.19
268.028	51.37
268.244	-36.69
268.46	49.32
268.676	6.31
268.892	61.61
269.108	59.56
269.324	73.9
269.54	61.61
269.756	73.9
269.972	-1.88
270.188	43.18
270.403	14.51
270.619	18.6
270.835	-18.26
271.051	69.8
271.267	-10.07
271.483	73.9
271.698	45.23
271.914	84.14
272.13	20.65
272.346	4.27
272.562	22.7
272.777	30.89
272.993	77.99
273.209	51.37
273.425	14.51
273.64	16.55
273.856	6.31
274.072	-57.17
274.287	57.51
274.503	24.75
274.719	4.27
274.934	6.31
275.15	20.65
275.366	8.36
275.581	-8.02
275.797	4.27
276.012	-10.07
276.228	88.23
276.444	4.27
276.659	12.46
276.875	-8.02
277.09	41.13
277.306	-3.93
277.521	41.13
277.737	12.46
277.952	77.99
278.168	28.84
278.383	-14.17
278.599	22.7
278.814	37.03
279.03	6.31
279.245	57.51
279.461	2.22
279.676	75.95
279.892	30.89
280.107	10.41
280.322	10.41
280.538	45.23
280.753	22.7
280.969	53.42
281.184	47.27
281.399	51.37
281.615	18.6
281.83	143.53
282.045	59.56
282.26	41.13
282.476	80.04
282.691	34.99
282.906	14.51
283.122	8.36
283.337	-18.26
283.552	71.85
283.767	34.99
283.983	37.03
284.198	53.42
284.413	-22.36
284.628	-14.17
284.843	84.14
285.058	-5.97
285.274	4.27
285.489	30.89
285.704	43.18
285.919	6.31
286.134	-46.93
286.349	6.31
286.564	82.09
286.779	69.8
286.995	-10.07
287.21	34.99
287.425	55.47
287.64	41.13
287.855	69.8
288.07	26.79
288.285	-8.02
288.5	14.51
288.715	-1.88
288.93	2.22
289.145	55.47
289.36	37.03
289.575	-1.88
289.79	6.31
290.004	14.51
290.219	57.51
290.434	55.47
290.649	34.99
290.864	24.75
291.079	-44.88
291.294	77.99
291.509	63.66
291.724	20.65
291.938	55.47
292.153	104.62
292.368	4.27
292.583	39.08
292.798	57.51
293.012	63.66
293.227	69.8
293.442	0.17
293.657	32.94
293.871	88.23
294.086	8.36
294.301	141.48
294.516	45.23
294.73	10.41
294.945	67.75
295.16	14.51
295.374	102.57
295.589	6.31
295.804	16.55
296.018	10.41
296.233	57.51
296.447	55.47
296.662	6.31
296.877	20.65
297.091	2.22
297.306	34.99
297.52	6.31
297.735	88.23
297.949	4.27
298.164	67.75
298.378	28.84
298.593	69.8
298.807	-14.17
299.022	14.51
299.236	34.99
299.451	82.09
299.665	67.75
299.88	-30.55
300.094	34.99
300.309	86.19
300.523	24.75
300.737	10.41
300.952	30.89
301.166	16.55
301.381	-53.08
301.595	8.36
301.809	-32.6
302.024	71.85
302.238	22.7
302.452	39.08
302.667	-42.84
302.881	98.47
303.095	34.99
303.309	-10.07
303.524	-1.88
303.738	43.18
303.952	-20.31
304.166	67.75
304.381	30.89
304.595	12.46
304.809	47.27
305.023	45.23
305.237	10.41
305.452	34.99
305.666	14.51
305.88	82.09
306.094	61.61
306.308	61.61
306.522	-20.31
306.736	92.33
306.95	26.79
307.164	26.79
307.379	37.03
307.593	2.22
307.807	55.47
308.021	34.99
308.235	57.51
308.449	16.55
308.663	47.27
308.877	69.8
309.091	18.6
309.305	55.47
309.519	-5.97
309.733	16.55
309.947	34.99
310.161	45.23
310.374	47.27
310.588	45.23
310.802	45.23
311.016	47.27
311.23	47.27
311.444	41.13
311.658	94.38
311.872	8.36
312.085	43.18
312.299	96.43
312.513	96.43
312.727	45.23
312.941	4.27
313.154	53.42
313.368	22.7
313.582	67.75
313.796	30.89
314.009	39.08
314.223	53.42
314.437	43.18
314.651	-32.6
314.864	51.37
315.078	-75.6
315.292	53.42
315.505	-42.84
315.719	28.84
315.933	8.36
316.146	16.55
316.36	12.46
316.573	149.67
316.787	86.19
317.001	34.99
317.214	55.47
317.428	2.22
317.641	-67.41
317.855	-3.93
318.068	80.04
318.282	-1.88
318.495	37.03
318.709	4.27
318.922	-12.12
319.136	116.9
319.349	108.71
319.563	22.7
319.776	22.7
319.99	65.71
320.203	18.6
320.417	55.47
320.63	55.47
320.843	75.95
321.057	39.08
321.27	22.7
321.483	10.41
321.697	80.04
321.91	2.22
322.124	53.42
322.337	-16.21
322.55	59.56
322.763	39.08
322.977	61.61
323.19	-61.27
323.403	26.79
323.617	10.41
323.83	92.33
324.043	16.55
324.256	6.31
324.469	-10.07
324.683	41.13
324.896	67.75
325.109	53.42
325.322	-14.17
325.535	45.23
325.748	30.89
325.962	39.08
326.175	92.33
326.388	98.47
326.601	8.36
326.814	-32.6
327.027	39.08
327.24	102.57
327.453	34.99
327.666	61.61
327.879	55.47
328.092	39.08
328.305	22.7
328.518	57.51
328.731	14.51
328.944	57.51
329.157	32.94
329.37	104.62
329.583	30.89
329.796	53.42
330.009	2.22
330.222	47.27
330.435	77.99
330.648	6.31
330.861	-5.97
331.073	-10.07
331.286	2.22
331.499	57.51
331.712	45.23
331.925	0.17
332.138	-8.02
332.35	30.89
332.563	39.08
332.776	53.42
332.989	6.31
333.202	47.27
333.414	37.03
333.627	2.22
333.84	14.51
334.053	8.36
334.265	51.37
334.478	90.28
334.691	37.03
334.903	67.75
335.116	14.51
335.329	28.84
335.541	37.03
335.754	94.38
335.966	51.37
336.179	43.18
336.392	34.99
336.604	-8.02
336.817	32.94
337.029	-12.12
337.242	67.75
337.454	69.8
337.667	2.22
337.88	61.61
338.092	6.31
338.305	30.89
338.517	30.89
338.729	90.28
338.942	61.61
339.154	43.18
339.367	-48.98
339.579	-1.88
339.792	-26.45
340.004	102.57
340.217	28.84
340.429	114.86
340.641	30.89
340.854	26.79
341.066	-42.84
341.278	22.7
341.491	22.7
341.703	86.19
341.915	-71.51
342.128	2.22
342.34	112.81
342.552	-12.12
342.764	18.6
342.977	108.71
343.189	61.61
343.401	37.03
343.613	-18.26
343.826	34.99
344.038	49.32
344.25	108.71
344.462	-3.93
344.674	86.19
344.886	80.04
345.099	104.62
345.311	75.95
345.523	73.9
345.735	2.22
345.947	37.03
346.159	67.75
346.371	61.61
346.583	-10.07
346.795	61.61
347.007	108.71
347.219	65.71
347.431	-42.84
347.643	90.28
347.855	-5.97
348.067	110.76
348.279	-20.31
348.491	16.55
348.703	39.08
348.915	67.75
349.127	14.51
349.339	22.7
349.551	6.31
349.763	51.37
349.975	51.37
350.187	63.66
350.399	53.42
350.61	37.03
350.822	-20.31
351.034	-28.5
351.246	18.6
351.458	77.99
351.669	24.75
351.881	39.08
352.093	34.99
352.305	22.7
352.517	14.51
352.728	96.43
352.94	80.04
353.152	37.03
353.363	43.18
353.575	30.89
353.787	55.47
353.999	-5.97
354.21	129.19
354.422	10.41
354.633	55.47
354.845	75.95
355.057	57.51
355.268	49.32
355.48	63.66
355.692	28.84
355.903	94.38
356.115	39.08
356.326	6.31
356.538	102.57
356.749	41.13
356.961	80.04
357.172	26.79
357.384	41.13
357.595	92.33
357.807	22.7
358.018	63.66
358.23	94.38
358.441	32.94
358.653	2.22
358.864	112.81
359.075	32.94
359.287	67.75
359.498	84.14
359.709	-24.4
359.921	51.37
360.132	14.51
360.344	12.46
360.555	61.61
360.766	26.79
360.977	37.03
361.189	127.14
361.4	10.41
361.611	-14.17
361.823	20.65
362.034	75.95
362.245	-24.4
362.456	53.42
362.667	20.65
362.879	47.27
363.09	63.66
363.301	84.14
363.512	59.56
363.723	45.23
363.935	51.37
364.146	80.04
364.357	14.51
364.568	-8.02
364.779	-1.88
364.99	102.57
365.201	80.04
365.412	53.42
365.623	41.13
365.834	-5.97
366.045	75.95
366.256	-1.88
366.467	-3.93
366.678	125.1
366.889	80.04
367.1	43.18
367.311	30.89
367.522	14.51
367.733	53.42
367.944	53.42
368.155	59.56
368.366	100.52
368.577	6.31
368.788	24.75
368.999	-3.93
369.209	28.84
369.42	67.75
369.631	51.37
369.842	-34.64
370.053	45.23
370.264	-3.93
370.474	69.8
370.685	10.41
370.896	53.42
371.107	-12.12
371.317	61.61
371.528	-40.79
371.739	14.51
371.95	6.31
372.16	4.27
372.371	30.89
372.582	-14.17
372.792	-22.36
373.003	55.47
373.214	16.55
373.424	53.42
373.635	96.43
373.846	63.66
374.056	49.32
374.267	-3.93
374.477	86.19
374.688	20.65
374.898	22.7
375.109	88.23
375.319	80.04
375.53	43.18
375.74	57.51
375.951	96.43
376.161	20.65
376.372	73.9
376.582	65.71
376.793	102.57
377.003	59.56
377.214	-24.4
377.424	82.09
377.635	88.23
377.845	37.03
378.055	59.56
378.266	4.27
378.476	108.71
378.686	14.51
378.897	43.18
379.107	20.65
379.317	108.71
379.528	30.89
379.738	16.55
379.948	-26.45
380.158	71.85
380.369	49.32
380.579	110.76
380.789	32.94
380.999	104.62
381.21	49.32
381.42	51.37
381.63	77.99
381.84	114.86
382.05	18.6
382.261	59.56
382.471	57.51
382.681	32.94
382.891	180.39
383.101	39.08
383.311	18.6
383.521	112.81
383.731	112.81
383.941	147.62
384.151	14.51
384.361	51.37
384.571	104.62
384.781	104.62
384.991	92.33
385.201	69.8
385.411	123.05
385.621	96.43
385.831	82.09
386.041	59.56
386.251	67.75
386.461	28.84
386.671	59.56
386.881	57.51
387.091	55.47
387.301	67.75
387.511	10.41
387.72	39.08
387.93	-28.5
388.14	92.33
388.35	71.85
388.56	67.75
388.769	39.08
388.979	-42.84
389.189	34.99
389.399	102.57
389.609	61.61
389.818	12.46
390.028	-20.31
390.238	96.43
390.447	69.8
390.657	8.36
390.867	80.04
391.076	24.75
391.286	24.75
391.496	59.56
391.705	-42.84
391.915	112.81
392.125	39.08
392.334	67.75
392.544	61.61
392.753	69.8
392.963	24.75
393.172	24.75
393.382	98.47
393.591	94.38
393.801	77.99
394.01	90.28
394.22	80.04
394.429	45.23
394.639	55.47
394.848	59.56
395.058	121
395.267	86.19
395.477	114.86
395.686	75.95
395.895	53.42
396.105	125.1
396.314	121
396.524	166.06
396.733	57.51
396.942	110.76
397.152	84.14
397.361	18.6
397.57	67.75
397.78	127.14
397.989	75.95
398.198	147.62
398.407	75.95
398.617	110.76
398.826	84.14
399.035	39.08
399.244	143.53
399.453	41.13
399.663	18.6
399.872	88.23
400.081	16.55
400.29	110.76
400.499	18.6
400.708	114.86
400.917	69.8
401.127	96.43
401.336	80.04
401.545	129.19
401.754	96.43
401.963	80.04
402.172	96.43
402.381	80.04
402.59	139.43
402.799	84.14
403.008	106.67
403.217	32.94
403.426	121
403.635	71.85
403.844	16.55
404.053	172.2
404.262	143.53
404.471	106.67
404.68	129.19
404.888	96.43
405.097	129.19
405.306	41.13
405.515	172.2
405.724	106.67
405.933	159.91
406.142	149.67
406.35	127.14
406.559	131.24
406.768	196.78
406.977	217.26
407.185	118.95
407.394	127.14
407.603	133.29
407.812	176.3
408.02	192.68
408.229	178.34
408.438	258.21
408.646	159.91
408.855	153.77
409.064	200.87
409.272	243.88
409.481	252.07
409.69	159.91
409.898	245.93
410.107	231.59
410.315	297.13
410.524	301.22
410.733	270.5
410.941	239.78
411.15	256.17
411.358	243.88
411.567	266.41
411.775	317.61
411.984	286.89
412.192	327.85
412.401	338.09
412.609	299.17
412.818	364.71
413.026	358.57
413.234	346.28
413.443	278.69
413.651	426.15
413.86	391.33
414.068	489.64
414.276	397.48
414.485	489.64
414.693	450.72
414.901	526.5
415.11	501.92
415.318	555.17
415.526	516.26
415.734	503.97
415.943	563.36
416.151	587.94
416.359	610.47
416.567	655.52
416.776	678.05
416.984	698.53
417.192	770.21
417.4	743.58
417.608	747.68
417.817	788.64
418.025	778.4
418.233	927.9
418.441	858.27
418.649	913.56
418.857	964.76
419.065	985.24
419.273	895.13
419.481	1196.18
419.689	1097.88
419.897	1120.41
420.105	1200.28
420.313	1153.18
420.521	1134.75
420.729	1177.75
420.937	1286.3
421.145	1366.17
421.353	1398.93
421.561	1441.94
421.769	1525.91
421.977	1534.1
422.185	1509.52
422.393	1570.96
422.601	1753.23
422.809	1788.05
423.017	1654.93
423.224	1742.99
423.432	1837.2
423.64	1908.88
423.848	1953.93
424.056	2044.04
424.263	2105.48
424.471	2101.39
424.679	2218.12
424.887	2259.08
425.094	2502.79
425.302	2289.8
425.51	2488.45
425.718	2496.64
425.925	2537.6
426.133	2506.88
426.341	2803.84
426.548	2943.1
426.756	3002.49
426.964	2967.68
427.171	3160.19
427.379	3289.21
427.586	3303.54
427.794	3434.61
428.001	3545.2
428.209	3596.4
428.417	3674.23
428.624	3967.09
428.832	3969.13
429.039	4063.34
429.247	3928.17
429.454	4343.91
429.662	4610.15
429.869	4163.69
430.076	4579.43
430.284	4550.76
430.491	4782.18
430.699	4831.33
430.906	4986.97
431.114	5003.36
431.321	5144.67
431.528	5290.07
431.736	5484.63
431.943	5662.8
432.15	5738.58
432.358	5671
432.565	6053.97
432.772	5988.43
432.979	6346.83
433.187	6559.81
433.394	6490.18
433.601	6873.15
433.808	6875.2
434.016	6901.83
434.223	7252.03
434.43	7587.89
434.637	7555.13
434.844	7903.28
435.052	8110.13
435.259	7983.15
435.466	8269.87
435.673	7997.49
435.88	8699.94
436.087	9119.78
436.294	9064.48
436.501	8751.14
436.708	8908.83
436.915	9279.52
437.122	9750.55
437.329	9619.48
437.537	10104.85
437.743	10246.16
437.95	10149.9
438.157	10512.39
438.364	10874.88
438.571	11051.01
438.778	11022.34
438.985	12046.32
439.192	11448.32
439.399	11821.05
439.606	11614.2
439.813	12271.6
440.02	13015.01
440.227	12806.12
440.433	12638.19
440.64	13150.18
440.847	13103.07
441.054	13289.44
441.261	14450.64
441.467	14010.32
441.674	14579.66
441.881	14831.56
442.088	14903.24
442.294	14604.24
442.501	14954.44
442.708	15429.57
442.914	15984.57
443.121	16443.31
443.328	16195.51
443.534	17358.75
443.741	16859.05
443.948	16422.83
444.154	18065.3
444.361	17737.63
444.568	17788.83
444.774	18083.73
444.981	18012.06
445.187	18800.52
445.394	19431.3
445.6	19423.11
445.807	20916.08
446.013	20201.33
446.22	20371.32
446.426	21245.8
446.633	21485.41
446.839	21940.06
447.046	21268.33
447.252	22546.26
447.459	22523.73
447.665	22198.1
447.871	23560
448.078	24024.89
448.284	23088.97
448.491	23826.24
448.697	24653.62
448.903	25196.33
449.11	25155.37
449.316	24457.01
449.522	24946.48
449.728	25898.78
449.935	26058.53
450.141	26042.14
450.347	26500.89
450.553	25552.68
450.76	25976.61
450.966	27029.26
451.172	27025.17
451.378	27434.76
451.584	26722.07
451.791	27453.19
451.997	26967.82
452.203	27739.91
452.409	27492.1
452.615	27731.72
452.821	26558.23
453.027	26433.3
453.233	27590.41
453.44	26449.69
453.646	26869.52
453.852	27395.85
454.058	27205.39
454.264	26380.06
454.47	27182.86
454.676	26552.09
454.882	27225.87
455.088	24950.57
455.294	25102.12
455.5	25591.59
455.705	26023.71
455.911	24725.3
456.117	24381.24
456.323	23887.68
456.529	22644.56
456.735	23449.41
456.941	23283.53
457.147	23043.92
457.352	21925.72
457.558	21577.57
457.764	22052.7
457.97	21448.55
458.176	20928.36
458.381	21002.09
458.587	19705.73
458.793	19967.87
458.999	18868.11
459.204	20354.93
459.41	19652.48
459.616	18474.9
459.821	18136.98
460.027	18536.34
460.233	17975.19
460.438	17223.59
460.644	17156
460.85	16326.58
461.055	16265.14
461.261	16361.39
461.466	14989.25
461.672	14624.72
461.878	15452.09
462.083	14323.66
462.289	14282.7
462.494	14251.99
462.7	13707.23
462.905	13092.83
463.111	13490.14
463.316	13780.95
463.522	13471.71
463.727	13629.4
463.932	13578.2
464.138	13228
464.343	13537.24
464.549	12871.65
464.754	13481.95
464.959	13309.92
465.165	13082.6
465.37	12922.85
465.575	12230.64
465.781	12873.7
465.986	12793.83
466.191	12314.61
466.397	12259.31
466.602	11663.35
466.807	12257.26
467.012	12226.54
467.218	11872.25
467.423	11806.71
467.628	11886.58
467.833	12562.41
468.038	11911.16
468.244	11608.06
468.449	12175.34
468.654	11689.98
468.859	11573.24
469.064	11669.5
469.269	11206.66
469.474	11104.26
469.679	11493.37
469.885	11057.15
470.09	11192.32
470.295	11270.14
470.5	10962.95
470.705	10971.14
470.91	10541.07
471.115	10584.07
471.32	10731.53
471.525	10627.08
471.73	10430.48
471.935	10455.05
472.139	10098.7
472.344	10209.29
472.549	10133.52
472.754	10164.24
472.959	9695.25
473.164	9562.14
473.369	9488.41
473.574	9771.03
473.778	9672.73
473.983	9525.27
474.188	9746.45
474.393	9199.65
474.598	9408.54
474.802	9357.34
475.007	9023.52
475.212	9025.57
475.417	8742.95
475.621	8724.52
475.826	8697.89
476.031	8478.76
476.235	8591.4
476.44	8566.82
476.645	8431.66
476.849	8271.92
477.054	8284.2
477.259	8116.27
477.463	8255.53
477.668	7919.67
477.872	8253.48
478.077	7852.08
478.282	7878.71
478.486	7680.05
478.691	7671.86
478.895	7811.12
479.1	7639.09
479.304	7589.94
479.509	7352.38
479.713	7532.6
479.918	7475.26
480.122	7325.75
480.326	7383.1
480.531	7510.07
480.735	7403.58
480.94	7221.31
481.144	7548.98
481.348	7151.68
481.553	7323.71
481.757	7014.46
481.961	7174.21
482.166	7204.92
482.37	7104.57
482.574	6998.08
482.778	6950.98
482.983	7393.34
483.187	7100.48
483.391	7290.94
483.595	7149.63
483.8	6965.31
484.004	7063.61
484.208	7268.41
484.412	7075.9
484.616	7186.49
484.821	7137.34
485.025	7227.45
485.229	7151.68
485.433	7071.81
485.637	7215.16
485.841	7151.68
486.045	7198.78
486.249	7198.78
486.453	7145.53
486.657	6926.4
486.861	7133.25
487.065	6950.98
487.269	7080
487.473	6993.98
487.677	7118.91
487.881	7282.75
488.085	7131.2
488.289	7127.1
488.493	7258.17
488.697	7288.89
488.901	7243.84
489.105	7053.38
489.309	7368.76
489.512	7174.21
489.716	7149.63
489.92	7352.38
490.124	7256.12
490.328	7548.98
490.531	7229.5
490.735	7364.67
490.939	7505.98
491.143	7274.56
491.346	7262.27
491.55	7485.5
491.754	7450.68
491.958	7508.02
492.161	7620.66
492.365	7583.8
492.569	7608.37
492.772	7544.89
492.976	7651.38
493.18	7622.71
493.383	7761.97
493.587	7706.68
493.79	7899.19
493.994	7931.95
494.197	7899.19
494.401	8146.99
494.605	8140.85
494.808	8116.27
495.012	8194.09
495.215	8124.46
495.419	8362.03
495.622	8173.61
495.825	8314.92
496.029	8351.79
496.232	8562.73
496.436	8396.84
496.639	8820.77
496.843	8615.98
497.046	8828.96
497.249	8982.56
497.453	8927.27
497.656	9150.5
497.859	9019.43
498.063	9105.44
498.266	9406.49
498.469	9297.95
498.673	9394.2
498.876	9517.08
499.079	9730.07
499.282	9547.8
499.485	10000.4
499.689	9922.58
499.892	10067.99
500.095	10192.91
500.298	10422.28
500.501	10274.83
500.705	10475.53
500.908	10565.64
501.111	10874.88
501.314	11067.39
501.517	11042.82
501.72	11272.19
501.923	11038.72
502.126	11440.12
502.329	11640.83
502.532	11634.68
502.735	11945.97
502.938	12025.84
503.141	11945.97
503.344	12183.54
503.547	11991.03
503.75	12210.16
503.953	12470.25
504.156	12648.43
504.359	12797.93
504.562	12906.47
504.765	12980.2
504.968	13377.5
505.17	13217.76
505.373	13369.31
505.576	13561.82
505.779	13844.44
505.982	14047.19
506.185	14346.19
506.387	14231.51
506.59	14284.75
506.793	14485.45
506.996	14479.31
507.198	14925.77
507.401	14790.6
507.604	14931.91
507.807	15488.96
508.009	15339.46
508.212	15837.11
508.415	16039.86
508.617	15869.88
508.82	16183.22
509.022	16089.01
509.225	16588.72
509.428	16396.21
509.63	16949.16
509.833	16670.64
510.035	17282.98
510.238	17221.54
510.44	17168.29
510.643	17772.44
510.845	17868.7
511.048	17794.97
511.25	18055.06
511.453	18065.3
511.655	18868.11
511.858	18401.17
512.06	18456.47
512.262	18950.03
512.465	19023.75
512.667	19515.26
512.87	19474.31
513.072	19654.53
513.274	19974.01
513.477	20076.41
513.679	20205.43
513.881	20414.32
514.084	20645.74
514.286	20670.32
514.488	20868.97
514.69	21239.65
514.893	21657.44
515.095	21731.17
515.297	21833.57
515.499	21915.48
515.701	21956.44
515.904	22687.57
516.106	22376.28
516.308	23148.36
516.51	22937.42
516.712	22818.64
516.914	23365.45
517.116	23830.34
517.318	23697.22
517.52	23822.14
517.722	24223.55
517.925	24305.46
518.127	24715.06
518.329	24788.78
518.531	24936.24
518.733	25335.59
518.935	25515.81
519.136	25300.78
519.338	26013.47
519.54	26021.66
519.742	26611.48
519.944	26371.86
520.146	26740.5
520.348	26887.95
520.55	27340.55
520.752	27148.04
520.954	27604.74
521.155	27578.12
521.357	28090.11
521.559	28098.3
521.761	28589.81
521.963	28471.03
522.164	28716.79
522.366	28727.03
522.568	29110
522.77	29421.29
522.971	29640.42
523.173	29499.11
523.375	29769.44
523.576	29699.81
523.778	29818.6
523.98	30392.03
524.181	30504.67
524.383	30326.49
524.584	30858.96
524.786	31164.11
524.988	30942.93
525.189	31436.49
525.391	31592.14
525.592	31833.8
525.794	31829.7
525.995	32050.88
526.197	31764.17
526.398	31993.54
526.6	32513.72
526.801	32589.5
527.003	32945.84
527.204	32773.81
527.406	32878.26
527.607	32831.16
527.808	33408.68
528.01	32736.95
528.211	32986.8
528.412	33605.29
528.614	33351.34
528.815	33693.35
529.016	34061.99
529.218	33496.75
529.419	33875.62
529.62	33943.2
529.822	34053.8
530.023	33885.86
530.224	33840.81
530.425	33992.36
530.626	34012.84
530.828	34229.92
531.029	34852.5
531.23	34307.74
531.431	34209.44
531.632	35024.53
531.833	35045.01
532.035	34766.49
532.236	34987.67
532.437	35139.22
532.638	34614.94
532.839	34928.28
533.04	34897.56
533.241	34834.07
533.442	35331.73
533.643	34829.98
533.844	35145.36
534.045	35208.85
534.246	35090.07
534.447	35368.59
534.648	35163.79
534.849	35499.66
535.05	35081.88
535.251	35417.74
535.451	35487.37
535.652	35591.82
535.853	35225.23
536.054	35307.15
536.255	35217.04
536.456	34983.57
536.657	36052.61
536.857	35249.81
537.058	34750.1
537.259	35356.3
537.46	35315.34
537.66	35606.16
537.861	35438.22
538.062	35290.77
538.263	35368.59
538.463	35483.28
538.664	35589.77
538.865	35960.45
539.065	35434.13
539.266	34838.17
539.466	35618.44
539.667	34797.21
539.868	35763.85
540.068	35802.76
540.269	35108.5
540.469	35643.02
540.67	35225.23
540.87	35290.77
541.071	35722.89
541.271	35589.77
541.472	35548.81
541.672	35202.71
541.873	35120.79
542.073	34676.38
542.274	35724.94
542.474	35032.72
542.675	35417.74
542.875	35311.25
543.075	35370.64
543.276	34811.54
543.476	35561.1
543.676	35255.95
543.877	35454.61
544.077	35221.14
544.277	35243.66
544.478	35423.89
544.678	35550.86
544.878	35589.77
545.078	35237.52
545.279	35266.19
545.479	35450.51
545.679	35391.12
545.879	35319.44
546.079	35047.06
546.28	35346.06
546.48	35124.88
546.68	35409.55
546.88	35421.84
547.08	35458.7
547.28	34899.61
547.48	35065.49
547.68	35202.71
547.88	34909.85
548.081	35518.09
548.281	35409.55
548.481	35198.61
548.681	35477.13
548.881	35432.08
549.081	35290.77
549.28	35120.79
549.48	35225.23
549.68	35325.58
549.88	35440.27
550.08	34954.9
550.28	35186.32
550.48	35186.32
550.68	35339.92
550.88	34862.74
551.08	35169.94
551.279	35290.77
551.479	34965.14
551.679	35331.73
551.879	35174.03
552.079	35149.46
552.278	35114.64
552.478	34864.79
552.678	35210.9
552.878	35470.99
553.077	35124.88
553.277	35192.47
553.477	35245.71
553.676	35085.97
553.876	34999.96
554.076	34926.23
554.275	34848.41
554.475	34627.23
554.674	35051.16
554.874	35073.68
555.074	34633.37
555.273	34903.7
555.473	34909.85
555.672	34670.23
555.872	34735.77
556.071	34719.38
556.271	35124.88
556.47	34598.55
556.67	34481.82
556.869	34627.23
557.068	34786.97
557.268	34485.92
557.467	34514.59
557.667	34516.64
557.866	34295.46
558.065	34533.02
558.265	34137.76
558.464	34057.89
558.663	34582.17
558.863	33889.96
559.062	34213.54
559.261	33863.33
559.461	34551.45
559.66	33562.28
559.859	33844.9
560.058	34188.96
560.258	34160.29
560.457	33605.29
560.656	34078.37
560.855	34191.01
561.054	34055.84
561.253	33691.3
561.453	33775.27
561.652	33771.18
561.851	34086.56
562.05	33537.71
562.249	33173.17
562.448	33547.95
562.647	33384.11
562.846	33175.22
563.045	33070.77
563.244	33103.54
563.443	33562.28
563.642	33003.19
563.841	33140.4
564.04	32911.03
564.239	33179.31
564.438	32956.08
564.637	32997.04
564.836	32958.13
565.035	32489.15
565.234	32702.14
565.432	32466.62
565.631	32270.01
565.83	32665.27
566.029	32399.04
566.228	32333.5
566.427	32356.03
566.625	32253.63
566.824	31964.87
567.023	32059.07
567.222	31805.13
567.42	32059.07
567.619	31725.25
567.818	31573.7
568.016	31379.15
568.215	32188.1
568.414	31557.32
568.612	31942.34
568.811	31594.18
569.01	31774.41
569.208	31289.04
569.407	31653.58
569.605	31039.19
569.804	31559.37
570.002	30615.26
570.201	31121.1
570.4	30990.03
570.598	30930.64
570.797	30932.69
570.995	30858.96
571.193	30713.56
571.392	30822.1
571.59	30379.74
571.789	30662.36
571.987	30222.05
572.186	30234.33
572.384	30314.2
572.582	30250.72
572.781	30152.41
572.979	29763.3
573.177	30004.96
573.376	30283.48
573.574	29720.29
573.772	30070.5
573.971	29769.44
574.169	29193.97
574.367	29599.46
574.565	29642.47
574.763	29495.02
574.962	29396.71
575.16	28903.15
575.358	29521.64
575.556	28985.07
575.754	29576.94
575.952	28847.86
576.151	29347.56
576.349	28587.77
576.547	28962.54
576.745	29058.8
576.943	28710.64
577.141	28751.6
577.339	28872.43
577.537	28352.25
577.735	28331.77
577.933	28423.93
578.131	28518.14
578.329	27948.8
578.527	28278.52
578.725	28129.02
578.923	28112.64
579.121	27766.53
579.319	28184.32
579.516	27987.71
579.714	28145.41
579.912	27719.43
580.11	27703.04
580.308	27598.6
580.506	27811.59
580.704	27295.5
580.901	27836.16
581.099	27420.42
581.297	27303.69
581.495	27055.89
581.692	27252.49
581.89	26808.08
582.088	27434.76
582.285	27029.26
582.483	27191.05
582.681	27027.21
582.878	26605.33
583.076	26636.05
583.274	26914.58
583.471	26459.93
583.669	26513.17
583.866	26404.63
584.064	26394.39
584.262	25941.79
584.459	26357.53
584.657	26441.5
584.854	26201.88
585.052	25706.27
585.249	26115.87
585.447	26025.76
585.644	25329.45
585.841	25808.67
586.039	25636.64
586.236	25315.11
586.434	25603.88
586.631	25302.82
586.828	25538.34
587.026	25571.11
587.223	25597.73
587.42	25130.8
587.618	25464.61
587.815	25046.83
588.012	24969.01
588.21	24686.39
588.407	25057.07
588.604	24835.89
588.801	24860.46
588.999	24719.15
589.196	24586.04
589.393	24762.16
589.59	24557.36
589.787	24362.81
589.984	24338.23
590.182	24303.42
590.379	24258.36
590.576	24334.14
590.773	24446.77
590.97	23967.55
591.167	24100.67
591.364	23433.03
591.561	23979.84
591.758	23656.26
591.955	23719.74
592.152	24129.34
592.349	23658.31
592.546	23627.59
592.743	23592.77
592.94	23261
593.137	23498.56
593.334	23291.72
593.531	23310.15
593.727	23359.3
593.924	23439.17
594.121	23164.75
594.318	23117.64
594.515	22941.52
594.712	23226.18
594.908	22867.79
595.105	22624.08
595.302	22658.9
595.499	22947.66
595.696	22601.55
595.892	22648.66
596.089	22472.53
596.286	22636.37
596.482	22318.93
596.679	22380.37
596.876	22298.45
597.072	22142.81
597.269	22091.61
597.466	21921.63
597.662	21968.73
597.859	21757.79
598.055	21905.24
598.252	22038.36
598.448	21405.54
598.645	21567.33
598.841	21452.64
599.038	21655.39
599.234	21565.28
599.431	21491.55
599.627	21059.43
599.824	21704.54
600.02	21174.12
600.217	21491.55
600.413	21002.09
600.609	20787.05
600.806	20973.42
601.002	21346.15
601.198	21010.28
601.395	20858.73
601.591	20606.83
601.787	20780.91
601.984	20510.58
602.18	20649.84
602.376	20778.86
602.572	20508.53
602.769	20232.05
602.965	20268.92
603.161	20301.68
603.357	20211.57
603.553	20250.49
603.75	20117.37
603.946	19996.54
604.142	20172.66
604.338	19918.71
604.534	20275.06
604.73	19582.85
604.926	19781.5
605.122	20006.78
605.318	19654.53
605.514	19521.41
605.71	19543.94
605.906	19539.84
606.102	19611.52
606.298	19679.1
606.494	19464.07
606.69	19298.18
606.886	19607.42
607.082	18997.13
607.278	19568.51
607.474	19048.33
607.67	19146.63
607.866	19093.38
608.062	19234.69
608.257	18767.76
608.453	19181.45
608.649	19062.66
608.845	19003.27
609.041	18790.28
609.236	18909.07
609.432	18907.02
609.628	18923.4
609.824	18741.13
610.019	18747.28
610.215	18739.08
610.411	18667.41
610.606	18343.83
610.802	18782.09
610.998	18493.33
611.193	18550.67
611.389	18382.74
611.584	18587.54
611.78	18177.94
611.976	18395.03
612.171	18522
612.367	18136.98
612.562	18173.85
612.758	17842.07
612.953	18057.11
613.149	18263.96
613.344	17790.88
613.539	18481.04
613.735	17928.09
613.93	17926.04
614.126	18007.96
614.321	18122.65
614.517	18167.7
614.712	17840.03
614.907	17768.35
615.103	18059.16
615.298	17518.5
615.493	18102.17
615.688	17674.14
615.884	18083.73
616.079	17489.82
616.274	17889.18
616.47	17602.46
616.665	17866.65
616.86	17426.34
617.055	17561.5
617.25	17393.57
617.445	17500.06
617.641	17256.36
617.836	17547.17
618.031	17110.95
618.226	17448.86
618.421	17092.52
618.616	17446.82
618.811	17067.94
619.006	17379.23
619.201	16852.91
619.396	17008.55
619.591	16850.86
619.786	16803.75
619.981	16547.76
620.176	16832.43
620.371	16543.66
620.566	16627.63
620.761	16379.82
620.956	16560.05
621.151	16361.39
621.346	16408.5
621.541	16072.63
621.735	16193.46
621.93	15953.85
622.125	16158.64
622.32	15794.11
622.515	15777.72
622.709	15894.46
622.904	15669.18
623.099	15939.51
623.294	15613.88
623.488	15468.48
623.683	15568.83
623.878	15343.55
624.072	15398.85
624.267	15302.59
624.462	14931.91
624.656	15120.32
624.851	14833.61
625.046	14907.34
625.24	14772.17
625.435	14618.57
625.629	14682.06
625.824	14694.35
626.018	14610.38
626.213	14321.62
626.407	14389.2
626.602	14217.17
626.796	14436.3
626.991	14372.82
627.185	14024.66
627.38	14090.2
627.574	13889.49
627.768	14006.23
627.963	13567.96
628.157	13778.9
628.352	13893.59
628.546	13660.12
628.74	13674.46
628.935	13584.35
629.129	13404.13
629.323	13369.31
629.517	13574.11
629.712	13121.51
629.906	13236.19
630.1	12967.91
630.294	13166.56
630.489	12967.91
630.683	12969.96
630.877	12697.58
631.071	12636.14
631.265	12625.9
631.459	12474.35
631.653	12773.35
631.848	12560.36
632.042	12396.53
632.236	12421.1
632.43	12394.48
632.624	12308.46
632.818	12308.46
633.012	12064.75
633.206	12214.26
633.4	12072.95
633.594	11900.92
633.788	11874.29
633.982	11841.53
634.176	11665.4
634.369	11630.59
634.563	11706.36
634.757	11470.84
634.951	11511.8
635.145	11579.39
635.339	11403.26
635.533	11393.02
635.726	11294.72
635.92	11188.22
636.114	11288.57
636.308	10987.52
636.501	11180.03
636.695	10999.81
636.889	11016.19
637.083	11014.15
637.276	10711.05
637.47	10766.34
637.664	10803.21
637.857	10743.81
638.051	10760.2
638.244	10602.5
638.438	10752.01
638.632	10395.66
638.825	10508.3
639.019	10289.17
639.212	10268.69
639.406	10287.12
639.599	10059.79
639.793	10156.05
639.986	10110.99
640.18	10131.47
640.373	10147.86
640.567	9941.01
640.76	9785.37
640.954	9799.7
641.147	9793.56
641.34	9844.76
641.534	9705.49
641.727	9719.83
641.92	9689.11
642.114	9504.79
642.307	9572.38
642.5	9508.89
642.694	9568.28
642.887	9449.5
643.08	9377.82
643.273	9377.82
643.467	9269.28
643.66	9041.95
643.853	9170.97
644.046	8990.75
644.239	9054.24
644.432	8931.36
644.626	8882.21
644.819	8845.35
645.012	8988.71
645.205	8847.4
645.398	8878.12
645.591	8798.24
645.784	8615.98
645.977	8646.69
646.17	8661.03
646.363	8556.58
646.556	8474.67
646.749	8615.98
646.942	8517.67
647.135	8388.65
647.328	8263.72
647.521	8425.51
647.714	8394.79
647.907	8273.96
648.099	7985.2
648.292	8169.52
648.485	8060.98
648.678	7897.14
648.871	8155.18
649.064	7987.25
649.256	8024.11
649.449	7807.03
649.642	7802.93
649.835	7655.48
650.027	7716.92
650.22	7870.51
650.413	7706.68
650.605	7770.16
650.798	7573.56
650.991	7821.36
651.183	7637.05
651.376	7561.27
651.568	7536.7
651.761	7422.01
651.954	7462.97
652.146	7477.3
652.339	7309.37
652.531	7403.58
652.724	7184.45
652.916	7094.33
653.109	7043.14
653.301	7088.19
653.494	6907.97
653.686	7016.51
653.879	6934.59
654.071	7092.29
654.263	7053.38
654.456	6895.68
654.648	6791.24
654.84	6783.04
655.033	6793.28
655.225	6729.8
655.417	6789.19
655.61	6844.48
655.802	6699.08
655.994	6715.46
656.186	6602.82
656.379	6674.5
656.571	6594.63
656.763	6375.5
656.955	6387.79
657.148	6492.23
657.34	6529.1
657.532	6367.31
657.724	6146.12
657.916	6387.79
658.108	6481.99
658.3	6381.64
658.492	6172.75
658.684	6129.74
658.876	6062.16
659.068	6172.75
659.26	6197.32
659.452	6287.43
659.644	6105.17
659.836	5967.95
660.028	6072.4
660.22	6113.36
660.412	5959.76
660.604	5900.37
660.796	5943.38
660.988	5855.31
661.18	5867.6
661.372	5709.91
661.563	5941.33
661.755	5722.2
661.947	5666.9
662.139	5761.11
662.331	5535.83
662.522	5556.31
662.714	5560.41
662.906	5515.35
663.097	5683.28
663.289	5609.56
663.481	5380.18
663.673	5470.3
663.864	5511.25
664.056	5386.33
664.247	5451.86
664.439	5193.82
664.631	5271.64
664.822	5380.18
665.014	5331.03
665.205	5300.31
665.397	5236.83
665.588	5216.35
665.78	5265.5
665.971	4991.07
666.163	5197.92
666.354	5072.99
666.546	5171.29
666.737	4874.34
666.929	5054.56
667.12	5163.1
667.311	5032.03
667.503	5058.65
667.694	4997.21
667.885	4937.82
668.077	4845.66
668.268	4831.33
668.459	4765.79
668.651	4819.04
668.842	4724.83
669.033	4786.27
669.224	4816.99
669.416	4735.07
669.607	4681.83
669.798	4620.39
669.989	4702.31
670.18	4722.79
670.371	4618.34
670.563	4640.87
670.754	4550.76
670.945	4606.05
671.136	4704.35
671.327	4460.65
671.518	4651.11
671.709	4597.86
671.9	4634.72
672.091	4585.57
672.282	4386.92
672.473	4452.45
672.664	4386.92
672.855	4360.3
673.046	4425.83
673.237	4403.3
673.428	4321.38
673.619	4307.05
673.809	4305
674	4335.72
674.191	4325.48
674.382	4245.61
674.573	4159.6
674.764	4161.64
674.954	4255.85
675.145	4130.92
675.336	4206.7
675.527	4204.65
675.717	4239.47
675.908	4092.01
676.099	4225.13
676.289	4157.55
676.48	4067.44
676.671	4089.96
676.861	4188.27
677.052	4083.82
677.243	4016.24
677.433	4085.87
677.624	4044.91
677.814	3989.61
678.005	3987.57
678.195	4026.48
678.386	4012.14
678.576	3901.55
678.767	3885.17
678.957	4003.95
679.148	3977.33
679.338	3993.71
679.529	4065.39
679.719	3967.09
679.909	3987.57
680.1	3868.78
680.29	3842.16
680.481	3872.88
680.671	3805.3
680.861	3876.98
681.052	3766.39
681.242	3995.76
681.432	3856.5
681.622	3823.73
681.813	3770.48
682.003	3752.05
682.193	3680.37
682.383	3790.96
682.573	3672.18
682.764	3616.88
682.954	3772.53
683.144	3700.85
683.334	3563.64
683.524	3623.03
683.714	3659.89
683.904	3651.7
684.094	3719.28
684.284	3635.32
684.474	3645.56
684.664	3706.99
684.854	3547.25
685.044	3485.81
685.234	3541.11
685.424	3633.27
685.614	3442.81
685.804	3520.63
685.994	3666.03
686.184	3643.51
686.374	3532.92
686.564	3557.49
686.753	3446.9
686.943	3545.2
687.133	3391.61
687.323	3457.14
687.513	3455.09
687.702	3528.82
687.892	3371.13
688.082	3328.12
688.272	3303.54
688.461	3203.19
688.651	3295.35
688.841	3332.22
689.03	3432.57
689.22	3281.02
689.41	3334.26
689.599	3326.07
689.789	3217.53
689.979	3266.68
690.168	3229.82
690.358	3244.15
690.547	3180.67
690.737	3268.73
690.926	3266.68
691.116	3209.34
691.305	3158.14
691.495	3143.8
691.684	3098.75
691.874	3158.14
692.063	3096.7
692.252	3178.62
692.442	3252.35
692.631	3117.18
692.82	3113.08
693.01	3111.04
693.199	3022.97
693.388	3037.31
693.578	3047.55
693.767	3012.73
693.956	3059.84
694.146	2994.3
694.335	3074.17
694.524	3012.73
694.713	3018.88
694.902	3084.41
695.092	3129.47
695.281	2865.28
695.47	2832.51
695.659	2961.53
695.848	2920.57
696.037	2963.58
696.226	2918.53
696.415	2924.67
696.604	3078.27
696.793	2932.86
696.982	2977.92
697.171	2887.81
697.36	2965.63
697.549	2801.79
697.738	2744.45
697.927	2812.03
698.116	2869.37
698.305	2832.51
698.494	2701.44
698.683	2908.29
698.872	2832.51
699.061	2891.9
699.25	2807.94
699.438	2844.8
699.627	3006.59
699.816	2840.7
700.005	2783.36
700.193	2879.61
700.382	2902.14
700.571	2857.09
700.76	2848.9
700.948	2787.46
701.137	2809.98
701.326	2896
701.514	2789.5
701.703	2783.36
701.892	2812.03
702.08	2787.46
702.269	2865.28
702.457	2781.31
702.646	2799.74
702.834	2740.35
703.023	2859.14
703.212	2801.79
703.4	2871.42
703.589	2707.59
703.777	2941.05
703.965	2687.11
704.154	2758.78
704.342	2769.02
704.531	2807.94
704.719	2668.67
704.907	2818.18
705.096	2705.54
705.284	2742.4
705.472	2732.16
705.661	2783.36
705.849	2715.78
706.037	2732.16
706.226	2750.59
706.414	2750.59
706.602	2680.96
706.79	2703.49
706.979	2754.69
707.167	2758.78
707.355	2613.38
707.543	2760.83
707.731	2771.07
707.919	2627.71
708.107	2721.92
708.296	2615.43
708.484	2664.58
708.672	2601.09
708.86	2766.98
709.048	2621.57
709.236	2578.56
709.424	2842.75
709.612	2691.2
709.8	2728.07
709.988	2644.1
710.176	2656.39
710.364	2580.61
710.551	2617.47
710.739	2629.76
710.927	2785.41
711.115	2597
711.303	2576.52
711.491	2660.48
711.679	2549.89
711.866	2717.83
712.054	2652.29
712.242	2699.39
712.43	2629.76
712.617	2564.23
712.805	2726.02
712.993	2547.84
713.181	2545.8
713.368	2627.71
713.556	2627.71
713.744	2586.76
713.931	2586.76
714.119	2474.12
714.306	2701.44
714.494	2697.35
714.682	2517.12
714.869	2588.8
715.057	2642.05
715.244	2578.56
715.432	2553.99
715.619	2615.43
715.807	2564.23
715.994	2537.6
716.182	2594.95
716.369	2553.99
716.556	2521.22
716.744	2617.47
716.931	2605.19
717.119	2683.01
717.306	2480.26
717.493	2566.28
717.681	2502.79
717.868	2549.89
718.055	2504.84
718.242	2498.69
718.43	2609.28
718.617	2574.47
718.804	2590.85
718.991	2615.43
719.179	2533.51
719.366	2437.25
719.553	2461.83
719.74	2560.13
719.927	2510.98
720.114	2564.23
720.301	2513.03
720.488	2480.26
720.676	2396.29
720.863	2365.57
721.05	2420.87
721.237	2410.63
721.424	2580.61
721.611	2568.32
721.798	2463.88
721.985	2416.77
722.172	2439.3
722.358	2367.62
722.545	2480.26
722.732	2410.63
722.919	2568.32
723.106	2392.2
723.293	2369.67
723.48	2441.35
723.667	2400.39
723.853	2384.01
724.04	2297.99
724.227	2365.57
724.414	2490.5
724.6	2439.3
724.787	2445.45
724.974	2533.51
725.161	2375.81
725.347	2334.86
725.534	2455.69
725.72	2357.38
725.907	2422.92
726.094	2539.65
726.28	2476.16
726.467	2449.54
726.653	2318.47
726.84	2513.03
727.027	2470.02
727.213	2396.29
727.4	2369.67
727.586	2347.14
727.773	2347.14
727.959	2478.21
728.145	2324.62
728.332	2304.14
728.518	2453.64
728.705	2330.76
728.891	2394.25
729.077	2506.88
729.264	2390.15
729.45	2355.33
729.636	2472.07
729.823	2361.48
730.009	2422.92
730.195	2295.94
730.382	2486.4
730.568	2414.73
730.754	2467.97
730.94	2191.5
731.126	2295.94
731.313	2418.82
731.499	2345.09
731.685	2390.15
731.871	2345.09
732.057	2326.66
732.243	2367.62
732.429	2336.9
732.615	2240.65
732.801	2461.83
732.987	2240.65
733.173	2396.29
733.359	2328.71
733.545	2291.85
733.731	2334.86
733.917	2361.48
734.103	2433.16
734.289	2320.52
734.475	2279.56
734.661	2297.99
734.847	2459.78
735.033	2246.79
735.219	2259.08
735.404	2324.62
735.59	2265.22
735.776	2154.63
735.962	2353.29
736.148	2318.47
736.333	2259.08
736.519	2310.28
736.705	2238.6
736.89	2261.13
737.076	2365.57
737.262	2295.94
737.447	2338.95
737.633	2201.74
737.819	2246.79
738.004	2228.36
738.19	2218.12
738.375	2224.26
738.561	2277.51
738.747	2197.64
738.932	2181.26
739.118	2142.35
739.303	2218.12
739.489	2267.27
739.674	2162.83
739.859	2181.26
740.045	2271.37
740.23	2275.46
740.416	2236.55
740.601	2134.15
740.786	2240.65
740.972	2171.02
741.157	2181.26
741.342	2154.63
741.528	2138.25
741.713	2144.39
741.898	2195.59
742.084	2078.86
742.269	2134.15
742.454	2205.83
742.639	2121.87
742.824	2115.72
743.01	2103.43
743.195	2052.24
743.38	2072.72
743.565	2058.38
743.75	2027.66
743.935	2037.9
744.12	1970.32
744.305	2097.29
744.49	1984.65
744.675	2085
744.86	2003.08
745.045	2048.14
745.23	1904.78
745.415	1994.89
745.6	2013.32
745.785	1910.93
745.97	1949.84
746.155	1898.64
746.34	1982.6
746.525	1976.46
746.71	1933.45
746.895	1951.88
747.079	1837.2
747.264	1781.9
747.449	1876.11
747.634	1831.05
747.819	1851.53
748.003	1872.01
748.188	1829.01
748.373	1781.9
748.557	1845.39
748.742	1861.77
748.927	1659.03
749.111	1652.88
749.296	1693.84
749.481	1763.47
749.665	1702.03
749.85	1800.34
750.034	1742.99
750.219	1734.8
750.404	1712.27
750.588	1777.81
750.773	1652.88
750.957	1677.46
751.141	1716.37
751.326	1661.07
751.51	1581.2
751.695	1620.11
751.879	1579.15
752.064	1644.69
752.248	1656.98
752.432	1656.98
752.617	1544.34
752.801	1542.29
752.985	1613.97
753.17	1491.09
753.354	1622.16
753.538	1570.96
753.722	1450.13
753.907	1532.05
754.091	1464.47
754.275	1405.08
754.459	1415.32
754.643	1378.45
754.828	1487
755.012	1439.89
755.196	1388.69
755.38	1464.47
755.564	1487
755.748	1317.01
755.932	1302.68
756.116	1378.45
756.3	1403.03
756.484	1335.45
756.668	1345.69
756.852	1292.44
757.036	1267.86
757.22	1372.31
757.404	1284.25
757.588	1265.82
757.772	1298.58
757.956	1300.63
758.14	1263.77
758.323	1222.81
758.507	1259.67
758.691	1198.23
758.875	1259.67
759.059	1282.2
759.242	1253.53
759.426	1167.51
759.61	1208.47
759.794	1190.04
759.977	1200.28
760.161	1243.29
760.345	1151.13
760.528	1216.66
760.712	1253.53
760.895	1149.08
761.079	1075.35
761.263	1140.89
761.446	1196.18
761.63	1179.8
761.813	1108.12
761.997	1130.65
762.18	1048.73
762.364	1046.68
762.547	1087.64
762.731	1075.35
762.914	999.58
763.098	1048.73
763.281	1089.69
763.464	1003.68
763.648	1183.9
763.831	968.86
764.015	1040.54
764.198	1046.68
764.381	1071.26
764.564	989.34
764.748	1013.92
764.931	1116.31
765.114	1036.44
765.297	1075.35
765.481	1161.37
765.664	1069.21
765.847	997.53
766.03	925.85
766.213	997.53
766.397	1013.92
766.58	1009.82
766.763	1028.25
766.946	981.15
767.129	1061.02
767.312	934.04
767.495	977.05
767.678	927.9
767.861	936.09
768.044	919.71
768.227	868.51
768.41	893.09
768.593	903.32
768.776	958.62
768.959	979.1
769.142	1038.49
769.324	983.2
769.507	921.76
769.69	905.37
769.873	903.32
770.056	876.7
770.239	907.42
770.421	886.94
770.604	911.52
770.787	903.32
770.97	850.08
771.152	899.23
771.335	886.94
771.518	917.66
771.7	848.03
771.883	862.37
772.066	807.07
772.248	843.93
772.431	866.46
772.613	825.5
772.796	780.45
772.978	866.46
773.161	938.14
773.343	827.55
773.526	839.84
773.708	786.59
773.891	833.69
774.073	811.17
774.256	841.89
774.438	815.26
774.621	805.02
774.803	829.6
774.985	731.3
775.168	788.64
775.35	766.11
775.532	753.82
775.715	714.91
775.897	743.58
776.079	759.97
776.261	698.53
776.444	757.92
776.626	766.11
776.808	669.86
776.99	714.91
777.173	802.97
777.355	653.47
777.537	669.86
777.719	784.54
777.901	592.03
778.083	643.23
778.265	719.01
778.447	739.49
778.629	589.99
778.811	567.46
778.993	678.05
779.175	667.81
779.357	632.99
779.539	616.61
779.721	651.42
779.903	714.91
780.085	604.32
780.267	620.71
780.449	569.51
780.631	628.9
780.812	555.17
780.994	512.16
781.176	583.84
781.358	592.03
781.54	536.74
781.721	589.99
781.903	581.79
782.085	598.18
782.267	561.31
782.448	585.89
782.63	501.92
782.812	514.21
782.993	569.51
783.175	551.07
783.357	567.46
783.538	514.21
783.72	514.21
783.901	585.89
784.083	473.25
784.264	422.05
784.446	559.27
784.627	420
784.809	592.03
784.99	471.2
785.172	471.2
785.353	503.97
785.535	514.21
785.716	489.64
785.897	471.2
786.079	374.95
786.26	493.73
786.441	440.48
786.623	467.11
786.804	549.03
786.985	409.76
787.167	497.83
787.348	452.77
787.529	424.1
787.71	411.81
787.891	448.68
788.073	465.06
788.254	405.67
788.435	387.24
788.616	374.95
788.797	401.57
788.978	424.1
789.159	374.95
789.34	381.09
789.522	426.15
789.703	342.18
789.884	352.42
790.065	360.61
790.246	456.87
790.427	463.01
790.607	424.1
790.788	440.48
790.969	358.57
791.15	321.7
791.331	413.86
791.512	379.04
791.693	379.04
791.874	393.38
792.054	370.85
792.235	428.2
792.416	377
792.597	356.52
792.778	409.76
792.958	325.8
793.139	397.48
793.32	333.99
793.5	338.09
793.681	311.46
793.862	333.99
794.042	370.85
794.223	282.79
794.404	270.5
794.584	331.94
794.765	282.79
794.945	307.37
795.126	305.32
795.306	325.8
795.487	329.89
795.667	358.57
795.848	403.62
796.028	329.89
796.209	362.66
796.389	368.81
796.57	329.89
796.75	395.43
796.93	264.36
797.111	274.6
797.291	231.59
797.471	276.65
797.652	288.93
797.832	288.93
798.012	295.08
798.192	309.41
798.373	293.03
798.553	243.88
798.733	305.32
798.913	239.78
799.093	252.07
799.274	200.87
799.454	319.65
799.634	293.03
799.814	362.66
799.994	207.02
800.174	264.36
800.354	250.02
800.534	223.4
800.714	219.3
800.894	327.85
801.074	211.11
801.254	166.06
801.434	235.69
801.614	239.78
801.794	211.11
801.974	508.07
802.154	192.68
802.334	227.5
802.514	204.97
802.693	239.78
802.873	204.97
803.053	217.26
803.233	274.6
803.413	180.39
803.592	188.58
803.772	245.93
803.952	243.88
804.131	229.54
804.311	264.36
804.491	278.69
804.67	180.39
804.85	262.31
805.03	260.26
805.209	213.16
805.389	227.5
805.568	274.6
805.748	241.83
805.928	215.21
806.107	235.69
806.287	247.97
806.466	213.16
806.646	219.3
806.825	256.17
807.004	209.06
807.184	204.97
807.363	235.69
807.543	264.36
807.722	223.4
807.901	131.24
808.081	225.45
808.26	209.06
808.439	198.82
808.619	172.2
808.798	196.78
808.977	211.11
809.156	166.06
809.336	270.5
809.515	227.5
809.694	229.54
809.873	182.44
810.052	227.5
810.231	215.21
810.411	159.91
810.59	239.78
810.769	133.29
810.948	157.86
811.127	166.06
811.306	182.44
811.485	254.12
811.664	96.43
811.843	157.86
812.022	155.82
812.201	155.82
812.38	180.39
812.559	247.97
812.737	213.16
812.916	153.77
813.095	196.78
813.274	112.81
813.453	168.1
813.632	153.77
813.811	143.53
813.989	90.28
814.168	172.2
814.347	139.43
814.526	137.38
814.704	143.53
814.883	153.77
815.062	141.48
815.24	176.3
815.419	180.39
815.598	151.72
815.776	217.26
815.955	182.44
816.133	168.1
816.312	184.49
816.49	96.43
816.669	204.97
816.847	172.2
817.026	98.47
817.204	108.71
817.383	133.29
817.561	151.72
817.74	223.4
817.918	153.77
818.097	129.19
818.275	73.9
818.453	198.82
818.632	125.1
818.81	153.77
818.988	73.9
819.167	73.9
819.345	121
819.523	166.06
819.701	104.62
819.879	77.99
820.058	108.71
820.236	139.43
820.414	80.04
820.592	149.67
820.77	96.43
820.948	106.67
821.127	100.52
821.305	123.05
821.483	100.52
821.661	84.14
821.839	75.95
822.017	61.61
822.195	102.57
822.373	200.87
822.551	161.96
822.729	221.35
822.907	137.38
823.085	82.09
823.262	200.87
823.44	108.71
823.618	112.81
823.796	57.51
823.974	59.56
824.152	153.77
824.329	71.85
824.507	114.86
824.685	141.48
824.863	125.1
825.04	137.38
825.218	137.38
825.396	100.52
825.574	143.53
825.751	116.9
825.929	149.67
826.107	100.52
826.284	20.65
826.462	110.76
826.639	61.61
826.817	77.99
826.994	116.9
827.172	110.76
827.349	102.57
827.527	149.67
827.704	96.43
827.882	59.56
828.059	182.44
828.237	77.99
828.414	112.81
828.591	53.42
828.769	116.9
828.946	127.14
829.124	131.24
829.301	94.38
829.478	59.56
829.655	71.85
829.833	116.9
830.01	75.95
830.187	94.38
830.364	145.58
830.542	188.58
830.719	121
830.896	116.9
831.073	102.57
831.25	172.2
831.427	96.43
831.604	121
831.782	34.99
831.959	86.19
832.136	63.66
832.313	75.95
832.49	170.15
832.667	69.8
832.844	86.19
833.021	121
833.198	110.76
833.374	24.75
833.551	65.71
833.728	108.71
833.905	135.34
834.082	24.75
834.259	67.75
834.436	131.24
834.612	82.09
834.789	102.57
834.966	118.95
835.143	131.24
835.319	110.76
835.496	69.8
835.673	100.52
835.85	73.9
836.026	88.23
836.203	100.52
836.38	82.09
836.556	51.37
836.733	26.79
836.909	184.49
837.086	102.57
837.262	14.51
837.439	98.47
837.616	59.56
837.792	63.66
837.968	98.47
838.145	59.56
838.321	43.18
838.498	51.37
838.674	118.95
838.851	28.84
839.027	14.51
839.203	37.03
839.38	84.14
839.556	88.23
839.732	59.56
839.909	41.13
840.085	98.47
840.261	57.51
840.437	77.99
840.614	86.19
840.79	139.43
840.966	53.42
841.142	10.41
841.318	43.18
841.494	75.95
841.671	34.99
841.847	28.84
842.023	-28.5
842.199	75.95
842.375	65.71
842.551	43.18
842.727	49.32
842.903	88.23
843.079	75.95
843.255	69.8
843.431	30.89
843.607	100.52
843.783	37.03
843.959	32.94
844.134	149.67
844.31	121
844.486	57.51
844.662	2.22
844.838	45.23
845.013	73.9
845.189	114.86
845.365	121
845.541	16.55
845.716	75.95
845.892	47.27
846.068	24.75
846.244	47.27
846.419	86.19
846.595	14.51
846.77	12.46
846.946	39.08
847.122	10.41
847.297	49.32
847.473	139.43
847.648	6.31
847.824	59.56
847.999	84.14
848.175	53.42
848.35	73.9
848.526	69.8
848.701	73.9
848.876	24.75
849.052	77.99
849.227	53.42
849.403	45.23
849.578	57.51
849.753	34.99
849.929	88.23
850.104	57.51
850.279	20.65
850.454	55.47
850.63	61.61
850.805	22.7
850.98	114.86
851.155	2.22
851.33	80.04
851.505	92.33
851.681	127.14
851.856	67.75
852.031	39.08
852.206	22.7
852.381	34.99
852.556	53.42
852.731	41.13
852.906	14.51
853.081	24.75
853.256	57.51
853.431	34.99
853.606	77.99
853.781	30.89
853.956	16.55
854.131	61.61
854.305	39.08
854.48	37.03
854.655	45.23
854.83	-16.21
855.005	-32.6
855.18	39.08
855.354	-26.45
855.529	39.08
855.704	75.95
855.879	14.51
856.053	-16.21
856.228	-12.12
856.403	37.03
856.577	34.99
856.752	39.08
856.926	16.55
857.101	-22.36
857.276	-3.93
857.45	28.84
857.625	49.32
857.799	10.41
857.974	39.08
858.148	-69.46
858.323	45.23
858.497	135.34
858.672	-3.93
858.846	-32.6
859.02	43.18
859.195	88.23
859.369	8.36
859.543	37.03
859.718	71.85
859.892	16.55
860.066	-32.6
860.241	34.99
860.415	10.41
860.589	14.51
860.763	55.47
860.938	77.99
861.112	55.47
861.286	39.08
861.46	24.75
861.634	16.55
861.808	67.75
861.982	63.66
862.157	45.23
862.331	12.46
862.505	28.84
862.679	22.7
862.853	-30.55
863.027	32.94
863.201	57.51
863.375	-26.45
863.549	51.37
863.722	-28.5
863.896	28.84
864.07	8.36
864.244	47.27
864.418	20.65
864.592	77.99
864.766	-42.84
864.939	80.04
865.113	37.03
865.287	-1.88
865.461	6.31
865.634	-24.4
865.808	4.27
865.982	10.41
866.156	30.89
866.329	0.17
866.503	110.76
866.676	30.89
866.85	67.75
867.024	18.6
867.197	22.7
867.371	63.66
867.544	10.41
867.718	32.94
867.891	39.08
868.065	-26.45
868.238	34.99
868.412	88.23
868.585	34.99
868.759	61.61
868.932	61.61
869.105	-42.84
869.279	47.27
869.452	37.03
869.625	-18.26
869.799	-1.88
869.972	73.9
870.145	82.09
870.319	43.18
870.492	-40.79
870.665	28.84
870.838	-3.93
871.011	32.94
871.185	10.41
871.358	45.23
871.531	18.6
871.704	28.84
871.877	34.99
872.05	51.37
872.223	12.46
872.396	-20.31
872.569	43.18
872.742	20.65
872.915	34.99
873.088	8.36
873.261	43.18
873.434	4.27
873.607	67.75
873.78	84.14
873.953	18.6
874.126	47.27
874.299	67.75
874.471	-28.5
874.644	-5.97
874.817	-73.56
874.99	26.79
875.163	39.08
875.335	37.03
875.508	24.75
875.681	90.28
875.853	59.56
876.026	45.23
876.199	-10.07
876.371	-8.02
876.544	43.18
876.717	-16.21
876.889	32.94
877.062	47.27
877.234	-1.88
877.407	-28.5
877.579	45.23
877.752	53.42
877.924	-8.02
878.097	51.37
878.269	55.47
878.442	-20.31
878.614	2.22
878.786	16.55
878.959	37.03
879.131	43.18
879.303	-8.02
879.476	73.9
879.648	14.51
879.82	2.22
879.993	32.94
880.165	6.31
880.337	22.7
880.509	-55.12
880.681	-24.4
880.854	45.23
881.026	-3.93
881.198	129.19
881.37	12.46
881.542	41.13
881.714	14.51
881.886	-1.88
882.058	30.89
882.23	28.84
882.402	-12.12
882.574	37.03
882.746	16.55
882.918	24.75
883.09	69.8
883.262	-3.93
883.434	-34.64
883.606	22.7
883.778	22.7
883.95	39.08
884.122	39.08
884.293	-16.21
884.465	73.9
884.637	147.62
884.809	20.65
884.98	0.17
885.152	59.56
885.324	110.76
885.496	59.56
885.667	-5.97
885.839	-24.4
886.011	24.75
886.182	2.22
886.354	14.51
886.525	59.56
886.697	20.65
886.869	18.6
887.04	4.27
887.212	41.13
887.383	47.27
887.555	-14.17
887.726	51.37
887.897	-10.07
888.069	18.6
888.24	-42.84
888.412	12.46
888.583	-36.69
888.754	6.31
888.926	49.32
889.097	4.27
889.268	-44.88
889.44	28.84
889.611	-40.79
889.782	-1.88
889.953	47.27
890.125	-42.84
890.296	-10.07
890.467	14.51
890.638	47.27
890.809	26.79
890.98	55.47
891.151	51.37
891.323	69.8
891.494	57.51
891.665	-5.97
891.836	-48.98
892.007	45.23
892.178	-12.12
892.349	84.14
892.52	59.56
892.691	-22.36
892.862	-18.26
893.032	57.51
893.203	-24.4
893.374	16.55
893.545	45.23
893.716	-57.17
893.887	30.89
894.057	-14.17
894.228	8.36
894.399	34.99
894.57	-22.36
894.74	26.79
894.911	26.79
895.082	10.41
895.253	92.33
895.423	-20.31
895.594	73.9
895.764	18.6
895.935	4.27
896.106	84.14
896.276	22.7
896.447	4.27
896.617	8.36
896.788	-28.5
896.958	18.6
897.129	-28.5
897.299	-18.26
897.47	14.51
897.64	49.32
897.81	34.99
897.981	14.51
898.151	28.84
898.322	49.32
898.492	12.46
898.662	30.89
898.832	-12.12
899.003	14.51
899.173	-12.12
899.343	71.85
899.513	4.27
