Data from USB4F104151__109__11-07-14-498.txt Node

Date: Wed Mar 12 11:07:14 EDT 2025
User: louis
Spectrometer: USB4F10415
Trigger mode: 4
Integration Time (sec): 2.000000E-2
Scans to average: 1
Electric dark correction enabled: true
Nonlinearity correction enabled: false
Boxcar width: 0
XAxis mode: Wavelengths
Number of Pixels in Spectrum: 3648
>>>>>Begin Spectral Data<<<<<
178.204	-116.05
178.424	-116.05
178.644	-116.05
178.864	-103.76
179.084	-85.33
179.304	4.78
179.524	62.12
179.744	62.12
179.964	8.87
180.184	-66.9
180.404	8.87
180.624	62.12
180.844	-40.28
181.064	-36.18
181.283	-19.8
181.503	-5.46
181.723	-40.28
181.943	-17.75
182.163	-5.46
182.383	10.92
182.602	37.55
182.822	-11.61
183.042	2.73
183.262	47.79
183.482	8.87
183.701	21.16
183.921	29.35
184.141	12.97
184.361	10.92
184.58	21.16
184.8	76.46
185.02	15.02
185.239	23.21
185.459	55.98
185.679	21.16
185.898	-13.65
186.118	49.83
186.338	0.68
186.557	64.17
186.777	4.78
186.997	-36.18
187.216	25.26
187.436	98.99
187.655	39.59
187.875	58.03
188.095	-19.8
188.314	33.45
188.534	15.02
188.753	39.59
188.973	111.27
189.192	4.78
189.412	58.03
189.631	-13.65
189.851	-7.51
190.07	45.74
190.29	-48.47
190.509	25.26
190.729	-56.66
190.948	62.12
191.168	86.7
191.387	53.93
191.607	4.78
191.826	21.16
192.045	-66.9
192.265	-11.61
192.484	25.26
192.704	-13.65
192.923	-1.37
193.142	8.87
193.362	-66.9
193.581	144.04
193.8	-1.37
194.02	60.07
194.239	-3.41
194.458	-7.51
194.678	49.83
194.897	-25.94
195.116	45.74
195.335	60.07
195.555	41.64
195.774	-11.61
195.993	37.55
196.212	25.26
196.432	-58.71
196.651	-5.46
196.87	60.07
197.089	58.03
197.308	15.02
197.528	70.31
197.747	-44.37
197.966	29.35
198.185	66.22
198.404	84.65
198.623	4.78
198.842	86.7
199.062	-3.41
199.281	12.97
199.5	-9.56
199.719	41.64
199.938	15.02
200.157	33.45
200.376	43.69
200.595	12.97
200.814	0.68
201.033	39.59
201.252	33.45
201.471	23.21
201.69	72.36
201.909	64.17
202.128	25.26
202.347	17.07
202.566	-27.99
202.785	90.79
203.004	-11.61
203.223	117.42
203.442	35.5
203.661	-42.32
203.879	33.45
204.098	10.92
204.317	17.07
204.536	17.07
204.755	0.68
204.974	84.65
205.193	-11.61
205.411	51.88
205.63	-5.46
205.849	19.11
206.068	64.17
206.287	-32.08
206.505	2.73
206.724	62.12
206.943	21.16
207.162	31.4
207.381	12.97
207.599	64.17
207.818	62.12
208.037	-40.28
208.255	51.88
208.474	-1.37
208.693	31.4
208.911	-3.41
209.13	55.98
209.349	64.17
209.567	53.93
209.786	12.97
210.005	-27.99
210.223	27.31
210.442	-27.99
210.661	12.97
210.879	-44.37
211.098	31.4
211.316	51.88
211.535	72.36
211.753	-7.51
211.972	-64.85
212.191	25.26
212.409	47.79
212.628	17.07
212.846	4.78
213.065	2.73
213.283	107.18
213.502	33.45
213.72	10.92
213.938	41.64
214.157	19.11
214.375	78.51
214.594	27.31
214.812	62.12
215.031	-9.56
215.249	-38.23
215.467	-3.41
215.686	49.83
215.904	25.26
216.122	4.78
216.341	-27.99
216.559	27.31
216.778	6.83
216.996	25.26
217.214	10.92
217.432	64.17
217.651	8.87
217.869	-17.75
218.087	8.87
218.306	10.92
218.524	60.07
218.742	82.6
218.96	39.59
219.179	41.64
219.397	41.64
219.615	29.35
219.833	58.03
220.051	86.7
220.27	-15.7
220.488	-30.04
220.706	10.92
220.924	12.97
221.142	-15.7
221.36	-38.23
221.578	53.93
221.796	55.98
222.015	35.5
222.233	-19.8
222.451	51.88
222.669	23.21
222.887	31.4
223.105	37.55
223.323	70.31
223.541	2.73
223.759	60.07
223.977	-17.75
224.195	25.26
224.413	49.83
224.631	37.55
224.849	-38.23
225.067	98.99
225.285	4.78
225.503	-5.46
225.721	0.68
225.939	82.6
226.157	31.4
226.375	45.74
226.592	0.68
226.81	19.11
227.028	21.16
227.246	17.07
227.464	10.92
227.682	62.12
227.9	31.4
228.117	8.87
228.335	-5.46
228.553	78.51
228.771	4.78
228.989	17.07
229.206	-64.85
229.424	82.6
229.642	41.64
229.86	-11.61
230.077	58.03
230.295	31.4
230.513	41.64
230.731	55.98
230.948	39.59
231.166	39.59
231.384	-11.61
231.601	74.41
231.819	96.94
232.037	-25.94
232.254	-23.89
232.472	33.45
232.689	-66.9
232.907	43.69
233.125	37.55
233.342	92.84
233.56	-1.37
233.777	-54.61
233.995	64.17
234.213	-7.51
234.43	-9.56
234.648	-32.08
234.865	68.27
235.083	19.11
235.3	21.16
235.518	-64.85
235.735	64.17
235.953	64.17
236.17	-3.41
236.388	35.5
236.605	19.11
236.822	62.12
237.04	62.12
237.257	-7.51
237.475	31.4
237.692	17.07
237.909	82.6
238.127	-48.47
238.344	90.79
238.562	47.79
238.779	12.97
238.996	-1.37
239.214	-40.28
239.431	47.79
239.648	41.64
239.865	31.4
240.083	43.69
240.3	39.59
240.517	-21.85
240.735	45.74
240.952	51.88
241.169	6.83
241.386	53.93
241.603	25.26
241.821	31.4
242.038	64.17
242.255	47.79
242.472	-64.85
242.689	82.6
242.907	78.51
243.124	17.07
243.341	72.36
243.558	-23.89
243.775	47.79
243.992	41.64
244.209	8.87
244.426	-32.08
244.643	45.74
244.86	19.11
245.078	21.16
245.295	0.68
245.512	-1.37
245.729	-64.85
245.946	49.83
246.163	55.98
246.38	0.68
246.597	-30.04
246.814	47.79
247.031	47.79
247.248	45.74
247.464	43.69
247.681	21.16
247.898	39.59
248.115	-1.37
248.332	10.92
248.549	-7.51
248.766	64.17
248.983	43.69
249.2	-1.37
249.417	86.7
249.633	25.26
249.85	29.35
250.067	21.16
250.284	45.74
250.501	35.5
250.717	10.92
250.934	0.68
251.151	41.64
251.368	-21.85
251.585	17.07
251.801	-48.47
252.018	-23.89
252.235	115.37
252.451	31.4
252.668	12.97
252.885	27.31
253.102	37.55
253.318	68.27
253.535	-60.76
253.752	23.21
253.968	25.26
254.185	43.69
254.401	47.79
254.618	41.64
254.835	62.12
255.051	66.22
255.268	84.65
255.484	58.03
255.701	27.31
255.917	33.45
256.134	41.64
256.351	-46.42
256.567	-9.56
256.784	41.64
257	-19.8
257.217	96.94
257.433	6.83
257.65	10.92
257.866	-19.8
258.082	78.51
258.299	-13.65
258.515	45.74
258.732	6.83
258.948	74.41
259.165	0.68
259.381	25.26
259.597	-42.32
259.814	68.27
260.03	60.07
260.246	25.26
260.463	8.87
260.679	8.87
260.895	-11.61
261.112	23.21
261.328	96.94
261.544	90.79
261.761	41.64
261.977	0.68
262.193	-27.99
262.409	70.31
262.626	76.46
262.842	43.69
263.058	29.35
263.274	82.6
263.49	64.17
263.707	0.68
263.923	58.03
264.139	74.41
264.355	2.73
264.571	111.27
264.787	94.89
265.004	119.46
265.22	109.22
265.436	47.79
265.652	49.83
265.868	49.83
266.084	0.68
266.3	62.12
266.516	51.88
266.732	47.79
266.948	12.97
267.164	-9.56
267.38	41.64
267.596	29.35
267.812	27.31
268.028	47.79
268.244	-23.89
268.46	-54.61
268.676	33.45
268.892	78.51
269.108	37.55
269.324	88.75
269.54	-11.61
269.756	51.88
269.972	-5.46
270.188	8.87
270.403	98.99
270.619	-21.85
270.835	29.35
271.051	25.26
271.267	33.45
271.483	-1.37
271.698	-50.52
271.914	43.69
272.13	15.02
272.346	6.83
272.562	-1.37
272.777	29.35
272.993	35.5
273.209	23.21
273.425	10.92
273.64	41.64
273.856	41.64
274.072	-11.61
274.287	111.27
274.503	92.84
274.719	72.36
274.934	121.51
275.15	15.02
275.366	-27.99
275.581	39.59
275.797	10.92
276.012	-23.89
276.228	-7.51
276.444	-42.32
276.659	78.51
276.875	37.55
277.09	62.12
277.306	-7.51
277.521	4.78
277.737	70.31
277.952	58.03
278.168	58.03
278.383	-17.75
278.599	-13.65
278.814	41.64
279.03	39.59
279.245	51.88
279.461	35.5
279.676	109.22
279.892	53.93
280.107	-34.13
280.322	43.69
280.538	80.55
280.753	41.64
280.969	70.31
281.184	55.98
281.399	82.6
281.615	49.83
281.83	-19.8
282.045	-40.28
282.26	25.26
282.476	33.45
282.691	15.02
282.906	62.12
283.122	-27.99
283.337	27.31
283.552	55.98
283.767	35.5
283.983	58.03
284.198	51.88
284.413	60.07
284.628	17.07
284.843	-1.37
285.058	49.83
285.274	-1.37
285.489	21.16
285.704	55.98
285.919	29.35
286.134	72.36
286.349	27.31
286.564	76.46
286.779	41.64
286.995	39.59
287.21	-11.61
287.425	4.78
287.64	21.16
287.855	55.98
288.07	55.98
288.285	53.93
288.5	33.45
288.715	129.7
288.93	-30.04
289.145	21.16
289.36	21.16
289.575	80.55
289.79	8.87
290.004	111.27
290.219	49.83
290.434	-17.75
290.649	8.87
290.864	31.4
291.079	25.26
291.294	66.22
291.509	66.22
291.724	31.4
291.938	58.03
292.153	123.56
292.368	27.31
292.583	21.16
292.798	19.11
293.012	51.88
293.227	62.12
293.442	-32.08
293.657	-30.04
293.871	70.31
294.086	37.55
294.301	29.35
294.516	88.75
294.73	17.07
294.945	55.98
295.16	15.02
295.374	6.83
295.589	64.17
295.804	-19.8
296.018	35.5
296.233	-21.85
296.447	10.92
296.662	-9.56
296.877	33.45
297.091	148.14
297.306	-7.51
297.52	19.11
297.735	80.55
297.949	64.17
298.164	37.55
298.378	17.07
298.593	60.07
298.807	31.4
299.022	12.97
299.236	-34.13
299.451	-7.51
299.665	70.31
299.88	51.88
300.094	31.4
300.309	98.99
300.523	96.94
300.737	27.31
300.952	41.64
301.166	92.84
301.381	-11.61
301.595	12.97
301.809	35.5
302.024	82.6
302.238	33.45
302.452	12.97
302.667	31.4
302.881	10.92
303.095	74.41
303.309	15.02
303.524	23.21
303.738	43.69
303.952	31.4
304.166	19.11
304.381	27.31
304.595	76.46
304.809	-11.61
305.023	-5.46
305.237	-13.65
305.452	-17.75
305.666	92.84
305.88	113.32
306.094	33.45
306.308	49.83
306.522	139.94
306.736	19.11
306.95	82.6
307.164	66.22
307.379	66.22
307.593	49.83
307.807	66.22
308.021	4.78
308.235	103.08
308.449	51.88
308.663	88.75
308.877	76.46
309.091	-5.46
309.305	49.83
309.519	-36.18
309.733	101.03
309.947	37.55
310.161	129.7
310.374	21.16
310.588	92.84
310.802	-11.61
311.016	25.26
311.23	47.79
311.444	-68.95
311.658	25.26
311.872	72.36
312.085	107.18
312.299	62.12
312.513	37.55
312.727	62.12
312.941	25.26
313.154	8.87
313.368	45.74
313.582	70.31
313.796	70.31
314.009	4.78
314.223	33.45
314.437	0.68
314.651	8.87
314.864	-15.7
315.078	33.45
315.292	109.22
315.505	35.5
315.719	113.32
315.933	35.5
316.146	21.16
316.36	15.02
316.573	21.16
316.787	21.16
317.001	84.65
317.214	-21.85
317.428	12.97
317.641	-13.65
317.855	66.22
318.068	80.55
318.282	39.59
318.495	74.41
318.709	45.74
318.922	94.89
319.136	23.21
319.349	62.12
319.563	74.41
319.776	76.46
319.99	-5.46
320.203	47.79
320.417	41.64
320.63	-3.41
320.843	0.68
321.057	47.79
321.27	25.26
321.483	-32.08
321.697	92.84
321.91	31.4
322.124	31.4
322.337	2.73
322.55	-38.23
322.763	27.31
322.977	109.22
323.19	10.92
323.403	-40.28
323.617	21.16
323.83	47.79
324.043	-36.18
324.256	82.6
324.469	62.12
324.683	25.26
324.896	-34.13
325.109	39.59
325.322	45.74
325.535	117.42
325.748	41.64
325.962	-36.18
326.175	27.31
326.388	66.22
326.601	68.27
326.814	74.41
327.027	25.26
327.24	131.75
327.453	51.88
327.666	55.98
327.879	12.97
328.092	49.83
328.305	55.98
328.518	12.97
328.731	8.87
328.944	-3.41
329.157	58.03
329.37	76.46
329.583	82.6
329.796	25.26
330.009	-91.48
330.222	-27.99
330.435	41.64
330.648	-56.66
330.861	43.69
331.073	88.75
331.286	27.31
331.499	45.74
331.712	29.35
331.925	76.46
332.138	17.07
332.35	31.4
332.563	4.78
332.776	23.21
332.989	37.55
333.202	45.74
333.414	43.69
333.627	25.26
333.84	21.16
334.053	45.74
334.265	-13.65
334.478	92.84
334.691	41.64
334.903	64.17
335.116	43.69
335.329	68.27
335.541	66.22
335.754	76.46
335.966	62.12
336.179	25.26
336.392	33.45
336.604	55.98
336.817	23.21
337.029	82.6
337.242	12.97
337.454	25.26
337.667	-15.7
337.88	27.31
338.092	35.5
338.305	39.59
338.517	10.92
338.729	33.45
338.942	10.92
339.154	37.55
339.367	94.89
339.579	78.51
339.792	33.45
340.004	10.92
340.217	-77.14
340.429	12.97
340.641	43.69
340.854	82.6
341.066	29.35
341.278	66.22
341.491	60.07
341.703	47.79
341.915	-13.65
342.128	31.4
342.34	64.17
342.552	39.59
342.764	47.79
342.977	-1.37
343.189	76.46
343.401	6.83
343.613	8.87
343.826	62.12
344.038	35.5
344.25	45.74
344.462	82.6
344.674	70.31
344.886	119.46
345.099	55.98
345.311	2.73
345.523	51.88
345.735	68.27
345.947	60.07
346.159	-48.47
346.371	78.51
346.583	31.4
346.795	58.03
347.007	117.42
347.219	84.65
347.431	41.64
347.643	41.64
347.855	41.64
348.067	51.88
348.279	27.31
348.491	12.97
348.703	45.74
348.915	-3.41
349.127	-21.85
349.339	82.6
349.551	70.31
349.763	17.07
349.975	19.11
350.187	80.55
350.399	78.51
350.61	64.17
350.822	76.46
351.034	78.51
351.246	74.41
351.458	4.78
351.669	72.36
351.881	68.27
352.093	-15.7
352.305	2.73
352.517	66.22
352.728	-11.61
352.94	55.98
353.152	82.6
353.363	-27.99
353.575	78.51
353.787	103.08
353.999	74.41
354.21	55.98
354.422	74.41
354.633	8.87
354.845	27.31
355.057	70.31
355.268	60.07
355.48	-11.61
355.692	-11.61
355.903	25.26
356.115	37.55
356.326	6.83
356.538	86.7
356.749	33.45
356.961	45.74
357.172	25.26
357.384	123.56
357.595	33.45
357.807	35.5
358.018	-42.32
358.23	88.75
358.441	39.59
358.653	-56.66
358.864	92.84
359.075	55.98
359.287	21.16
359.498	80.55
359.709	66.22
359.921	37.55
360.132	-7.51
360.344	47.79
360.555	-3.41
360.766	62.12
360.977	76.46
361.189	70.31
361.4	53.93
361.611	10.92
361.823	86.7
362.034	43.69
362.245	68.27
362.456	53.93
362.667	60.07
362.879	53.93
363.09	60.07
363.301	-3.41
363.512	80.55
363.723	6.83
363.935	-5.46
364.146	-36.18
364.357	55.98
364.568	49.83
364.779	51.88
364.99	103.08
365.201	10.92
365.412	43.69
365.623	31.4
365.834	148.14
366.045	43.69
366.256	49.83
366.467	8.87
366.678	23.21
366.889	66.22
367.1	39.59
367.311	133.8
367.522	68.27
367.733	53.93
367.944	55.98
368.155	41.64
368.366	121.51
368.577	25.26
368.788	51.88
368.999	6.83
369.209	60.07
369.42	74.41
369.631	92.84
369.842	39.59
370.053	31.4
370.264	43.69
370.474	94.89
370.685	25.26
370.896	47.79
371.107	131.75
371.317	133.8
371.528	101.03
371.739	78.51
371.95	33.45
372.16	86.7
372.371	41.64
372.582	94.89
372.792	58.03
373.003	49.83
373.214	58.03
373.424	107.18
373.635	33.45
373.846	76.46
374.056	51.88
374.267	76.46
374.477	62.12
374.688	78.51
374.898	121.51
375.109	96.94
375.319	96.94
375.53	-9.56
375.74	92.84
375.951	90.79
376.161	76.46
376.372	82.6
376.582	66.22
376.793	41.64
377.003	6.83
377.214	39.59
377.424	88.75
377.635	64.17
377.845	-7.51
378.055	45.74
378.266	62.12
378.476	47.79
378.686	2.73
378.897	53.93
379.107	84.65
379.317	47.79
379.528	31.4
379.738	90.79
379.948	76.46
380.158	150.18
380.369	25.26
380.579	8.87
380.789	49.83
380.999	58.03
381.21	105.13
381.42	66.22
381.63	43.69
381.84	94.89
382.05	53.93
382.261	-5.46
382.471	115.37
382.681	74.41
382.891	51.88
383.101	62.12
383.311	31.4
383.521	55.98
383.731	70.31
383.941	127.66
384.151	86.7
384.361	84.65
384.571	35.5
384.781	6.83
384.991	41.64
385.201	121.51
385.411	41.64
385.621	66.22
385.831	96.94
386.041	-9.56
386.251	45.74
386.461	31.4
386.671	64.17
386.881	76.46
387.091	-1.37
387.301	117.42
387.511	-17.75
387.72	96.94
387.93	74.41
388.14	39.59
388.35	45.74
388.56	43.69
388.769	80.55
388.979	72.36
389.189	39.59
389.399	88.75
389.609	66.22
389.818	105.13
390.028	58.03
390.238	76.46
390.447	105.13
390.657	144.04
390.867	103.08
391.076	37.55
391.286	90.79
391.496	51.88
391.705	123.56
391.915	109.22
392.125	66.22
392.334	60.07
392.544	27.31
392.753	88.75
392.963	113.32
393.172	41.64
393.382	39.59
393.591	76.46
393.801	74.41
394.01	131.75
394.22	139.94
394.429	82.6
394.639	49.83
394.848	76.46
395.058	82.6
395.267	21.16
395.477	101.03
395.686	107.18
395.895	53.93
396.105	90.79
396.314	86.7
396.524	66.22
396.733	146.09
396.942	98.99
397.152	158.38
397.361	125.61
397.57	121.51
397.78	139.94
397.989	82.6
398.198	166.57
398.407	156.33
398.617	139.94
398.826	103.08
399.035	152.23
399.244	78.51
399.453	154.28
399.663	168.62
399.872	166.57
400.081	76.46
400.29	117.42
400.499	125.61
400.708	189.1
400.917	101.03
401.127	53.93
401.336	82.6
401.545	209.58
401.754	191.14
401.963	225.96
402.172	129.7
402.381	144.04
402.59	125.61
402.799	166.57
403.008	223.91
403.217	158.38
403.426	154.28
403.635	113.32
403.844	238.25
404.053	148.14
404.262	172.71
404.471	209.58
404.68	119.46
404.888	119.46
405.097	172.71
405.306	223.91
405.515	166.57
405.724	193.19
405.933	201.38
406.142	260.77
406.35	240.29
406.559	234.15
406.768	223.91
406.977	266.92
407.185	271.01
407.394	236.2
407.603	215.72
407.812	248.49
408.02	291.49
408.229	279.21
408.438	277.16
408.646	330.41
408.855	277.16
409.064	373.41
409.272	307.88
409.481	354.98
409.69	324.26
409.898	387.75
410.107	352.93
410.315	410.28
410.524	400.04
410.733	438.95
410.941	492.2
411.15	434.85
411.358	445.09
411.567	522.91
411.775	531.11
411.984	506.53
412.192	529.06
412.401	557.73
412.609	613.03
412.818	672.42
413.026	719.52
413.234	658.08
413.443	680.61
413.651	676.51
413.86	766.62
414.068	813.73
414.276	762.53
414.485	811.68
414.693	809.63
414.901	836.25
415.11	856.73
415.318	928.41
415.526	893.6
415.734	942.75
415.943	1039
416.151	1079.96
416.359	952.99
416.567	1112.73
416.776	1141.4
416.984	1161.88
417.192	1297.05
417.4	1239.7
417.608	1338.01
417.817	1370.77
418.025	1514.13
418.233	1497.75
418.441	1413.78
418.649	1632.91
418.857	1710.74
419.065	1757.84
419.273	1530.52
419.481	1745.55
419.689	1874.57
419.897	1929.87
420.105	2026.12
420.313	2060.94
420.521	2144.91
420.729	2052.75
420.937	2163.34
421.145	2292.36
421.353	2507.4
421.561	2632.32
421.769	2529.92
421.977	2658.95
422.185	2595.46
422.393	2828.93
422.601	3031.68
422.809	3060.35
423.017	3152.51
423.224	3127.93
423.432	3295.86
423.64	3281.53
423.848	3582.58
424.056	3641.97
424.263	3705.46
424.471	3695.22
424.679	3826.29
424.887	4063.85
425.094	4137.58
425.302	4076.14
425.51	4446.82
425.718	4473.45
425.925	4438.63
426.133	4663.91
426.341	5130.84
426.548	5126.75
426.756	5165.66
426.964	5315.16
427.171	5552.73
427.379	5749.33
427.586	5732.95
427.794	5886.54
428.001	6261.32
428.209	6525.51
428.417	6586.95
428.624	6730.31
428.832	6937.15
429.039	6699.59
429.247	6840.9
429.454	7459.38
429.662	7954.99
429.869	7404.09
430.076	7922.23
430.284	7721.52
430.491	8157.74
430.699	8667.69
430.906	8462.89
431.114	8737.32
431.321	8978.98
431.528	9429.53
431.736	9861.65
431.943	10068.5
432.15	9806.36
432.358	10088.98
432.565	10670.6
432.772	10541.58
432.979	11209.22
433.187	11391.48
433.394	11551.23
433.601	11983.35
433.808	12194.29
434.016	12282.35
434.223	12571.11
434.43	13494.75
434.637	12913.13
434.844	13865.43
435.052	14279.12
435.259	14082.52
435.466	14162.39
435.673	14119.38
435.88	14838.22
436.087	15999.41
436.294	15780.28
436.501	15714.75
436.708	15643.07
436.915	16222.64
437.122	17050.02
437.329	17125.8
437.537	17353.12
437.743	17732
437.95	17602.97
438.157	18553.23
438.364	19384.71
438.571	19116.42
438.778	19220.87
438.985	21109.1
439.192	20218.23
439.399	20996.46
439.606	20519.28
439.813	21610.85
440.02	22944.08
440.227	22528.34
440.433	22442.32
440.64	23417.16
440.847	22923.6
441.054	23675.2
441.261	25010.48
441.467	24592.69
441.674	25336.1
441.881	26132.76
442.088	26013.98
442.294	25956.64
442.501	26568.98
442.708	26913.04
442.914	28170.49
443.121	29233.39
443.328	28588.28
443.534	30810.32
443.741	29581.54
443.948	29128.94
444.154	31342.8
444.361	31054.03
444.568	31434.96
444.774	31340.75
444.981	31590.6
445.187	32907.44
445.394	33939.62
445.6	33904.81
445.807	36984.95
446.013	35256.46
446.22	35731.59
446.426	37343.34
446.633	37709.93
446.839	39069.78
447.046	36710.52
447.252	39450.7
447.459	39358.55
447.665	39008.34
447.871	40810.56
448.078	42653.73
448.284	40345.67
448.491	41652.27
448.697	43517.97
448.903	43735.06
449.11	43939.85
449.316	43216.92
449.522	43614.23
449.728	44990.46
449.935	45289.46
450.141	45039.61
450.347	46180.33
450.553	44853.25
450.76	45389.81
450.966	46821.34
451.172	46303.21
451.378	47493.08
451.584	46239.72
451.791	47058.91
451.997	47345.62
452.203	48132.04
452.409	48158.67
452.615	47910.86
452.821	46108.65
453.027	45662.19
453.233	47908.82
453.44	45860.85
453.646	46438.37
453.852	46985.18
454.058	47341.53
454.264	45916.14
454.47	46745.57
454.676	45473.78
454.882	47196.12
455.088	43288.6
455.294	43782.16
455.5	44439.56
455.705	44621.83
455.911	42936.35
456.117	42027.05
456.323	41580.59
456.529	39516.24
456.735	40796.22
456.941	39387.22
457.147	39094.36
457.352	38312.03
457.558	37521.52
457.764	37529.71
457.97	37169.27
458.176	36638.84
458.381	36489.34
458.587	34646.17
458.793	34140.32
458.999	32508.09
459.204	34859.16
459.41	34326.69
459.616	31914.18
459.821	31738.05
460.027	31578.31
460.233	30951.63
460.438	29599.97
460.644	29741.28
460.85	28338.43
461.055	28156.16
461.261	28012.8
461.466	26112.28
461.672	25377.06
461.878	26997.01
462.083	25235.75
462.289	24604.98
462.494	24598.84
462.7	23736.64
462.905	22708.56
463.111	23640.39
463.316	23673.15
463.522	23492.93
463.727	23675.2
463.932	22956.36
464.138	23028.04
464.343	23175.5
464.549	22335.83
464.754	23378.25
464.959	23241.03
465.165	22739.28
465.37	21983.58
465.575	21492.07
465.781	22290.77
465.986	22464.85
466.191	21737.82
466.397	21008.75
466.602	20476.27
466.807	20707.69
467.012	20947.31
467.218	20736.37
467.423	20445.55
467.628	20652.4
467.833	21571.94
468.038	20625.78
468.244	20117.88
468.449	20908.4
468.654	20193.65
468.859	20328.82
469.064	19972.47
469.269	19538.3
469.474	19450.24
469.679	19728.77
469.885	19124.61
470.09	19257.73
470.295	19327.36
470.5	18928.01
470.705	18999.69
470.91	18325.91
471.115	18153.88
471.32	18643.34
471.525	18227.6
471.73	17924.51
471.935	18119.06
472.139	17512.86
472.344	17557.92
472.549	17406.37
472.754	17486.24
472.959	16857.51
473.164	16417.2
473.369	16216.5
473.574	16841.13
473.778	16685.48
473.983	16589.23
474.188	16480.69
474.393	15546.81
474.598	16202.16
474.802	15520.19
475.007	15774.14
475.212	15692.22
475.417	15000.01
475.621	14805.45
475.826	15008.2
476.031	14770.63
476.235	14449.1
476.44	14807.5
476.645	14416.33
476.849	14551.5
477.054	14318.03
477.259	14115.28
477.463	14289.36
477.668	13707.74
477.872	13822.42
478.077	13533.66
478.282	13294.05
478.486	13251.04
478.691	13300.19
478.895	13042.15
479.1	13392.35
479.304	13138.4
479.509	12614.12
479.713	12773.86
479.918	12669.42
480.122	12710.38
480.326	12499.44
480.531	12718.57
480.735	12515.82
480.94	12456.43
481.144	13044.2
481.348	12333.55
481.553	12462.57
481.757	12141.04
481.961	12200.43
482.166	12478.96
482.37	12194.29
482.574	12014.07
482.778	12024.31
482.983	12335.6
483.187	12274.16
483.391	12071.41
483.595	12323.31
483.8	11956.72
484.004	12069.36
484.208	12354.03
484.412	12108.27
484.616	12132.85
484.821	12481
485.025	12136.95
485.229	12517.87
485.433	12143.09
485.637	12124.66
485.841	12120.56
486.045	12093.94
486.249	12214.77
486.453	12134.9
486.657	12481
486.861	12247.54
487.065	11835.89
487.269	11942.39
487.473	11958.77
487.677	12308.97
487.881	12249.58
488.085	12145.14
488.289	12216.82
488.493	12059.12
488.697	12308.97
488.901	12225.01
489.105	12130.8
489.309	12259.82
489.512	12245.49
489.716	12358.13
489.92	12483.05
490.124	12007.92
490.328	12575.21
490.531	12399.09
490.735	12665.32
490.939	12556.78
491.143	12415.47
491.346	12345.84
491.55	12657.13
491.754	12628.46
491.958	12718.57
492.161	12702.18
492.365	12896.74
492.569	12933.61
492.772	12884.45
492.976	13001.19
493.18	13013.48
493.383	13251.04
493.587	13255.14
493.79	13367.77
493.994	13302.24
494.197	13382.11
494.401	13527.52
494.605	13652.44
494.808	13652.44
495.012	13677.02
495.215	13769.18
495.419	14070.23
495.622	13986.26
495.825	14289.36
496.029	14354.9
496.232	14381.52
496.436	14608.84
496.639	14907.85
496.843	14586.32
497.046	15112.64
497.249	15065.54
497.453	15239.62
497.656	15524.29
497.859	15342.02
498.063	15522.24
498.266	15933.88
498.469	15866.3
498.673	16161.2
498.876	16359.86
499.079	16523.69
499.282	16535.98
499.485	16839.08
499.689	16832.94
499.892	17119.65
500.095	17054.12
500.298	17611.17
500.501	17609.12
500.705	17869.21
500.908	18045.34
501.111	18002.33
501.314	18344.34
501.517	18801.04
501.72	19011.98
501.923	18643.34
502.126	19372.42
502.329	19343.75
502.532	19515.78
502.735	19736.96
502.938	20085.11
503.141	20085.11
503.344	20461.94
503.547	20719.98
503.75	20982.12
503.953	21074.28
504.156	21295.46
504.359	21455.2
504.562	21801.31
504.765	22290.77
504.968	22554.96
505.17	22399.32
505.373	22395.22
505.576	22870.35
505.779	22907.21
505.982	23056.71
506.185	23773.5
506.387	23791.94
506.59	24195.39
506.793	24783.15
506.996	24574.26
507.198	25049.39
507.401	25149.74
507.604	25411.88
507.807	25936.16
508.009	26190.11
508.212	26079.52
508.415	26630.42
508.617	27015.44
508.82	27035.92
509.022	27056.4
509.225	27670.79
509.428	27912.45
509.63	27918.59
509.833	28035.33
510.035	28680.44
510.238	28442.87
510.44	29167.85
510.643	29298.92
510.845	29624.55
511.048	29761.76
511.25	30011.62
511.453	30329.05
511.655	31353.04
511.858	30709.97
512.06	30884.05
512.262	31414.48
512.465	31488.2
512.667	31992
512.87	32671.93
513.072	32524.47
513.274	32848.05
513.477	33708.2
513.679	33697.96
513.881	34001.06
514.084	34179.23
514.286	34396.32
514.488	34752.66
514.69	35358.86
514.893	35549.32
515.095	35694.73
515.297	36180.1
515.499	36432
515.701	37283.95
515.904	36919.42
516.106	37472.37
516.308	37705.84
516.51	38027.37
516.712	38586.46
516.914	39055.45
517.116	39315.54
517.318	39522.38
517.52	39440.46
517.722	39770.19
517.925	39790.67
518.127	40659.01
518.329	40900.67
518.531	41199.67
518.733	41435.19
518.935	41695.28
519.136	42182.69
519.338	42592.29
519.54	42268.71
519.742	43337.75
519.944	43266.07
520.146	44128.27
520.348	44189.7
520.55	44429.32
520.752	44322.82
520.954	45410.29
521.155	44896.25
521.357	45805.55
521.559	45977.58
521.761	46591.97
521.963	46700.51
522.164	46700.51
522.366	47103.96
522.568	47425.49
522.77	47720.4
522.971	48271.31
523.173	48015.31
523.375	48351.18
523.576	48601.03
523.778	48461.77
523.98	49153.98
524.181	49403.83
524.383	49489.85
524.584	50053.04
524.786	49907.63
524.988	50106.29
525.189	50651.05
525.391	50882.47
525.592	50968.48
525.794	51066.78
525.995	51521.43
526.197	51449.75
526.398	51330.97
526.6	52086.67
526.801	52027.28
527.003	52594.57
527.204	52346.76
527.406	53286.78
527.607	52586.38
527.808	53426.04
528.01	52578.18
528.211	52889.48
528.412	53831.54
528.614	53348.22
528.815	53993.33
529.016	53954.42
529.218	53981.04
529.419	53935.99
529.62	53962.61
529.822	53993.33
530.023	54454.12
530.224	54441.84
530.425	54196.08
530.626	54071.15
530.828	54292.33
531.029	55410.53
531.23	54593.39
531.431	54445.93
531.632	54695.78
531.833	55197.54
532.035	54470.51
532.236	55224.16
532.437	55248.74
532.638	54701.93
532.839	55447.39
533.04	55586.65
533.241	54802.28
533.442	56110.93
533.643	55519.07
533.844	55609.18
534.045	55310.17
534.246	55134.05
534.447	55678.81
534.648	55091.04
534.849	55363.42
535.05	54959.97
535.251	55705.43
535.451	55375.71
535.652	55379.81
535.853	55277.41
536.054	55701.34
536.255	55725.91
536.456	55400.29
536.657	55914.33
536.857	55502.68
537.058	55455.58
537.259	56579.92
537.46	55637.85
537.66	55396.19
537.861	55973.72
538.062	55412.57
538.263	55730.01
538.463	55338.85
538.664	55517.02
538.865	56168.27
539.065	55727.96
539.266	55322.46
539.466	55863.13
539.667	55076.71
539.868	55986
540.068	55689.05
540.269	55412.57
540.469	55844.69
540.67	55228.26
540.87	55560.03
541.071	55578.46
541.271	55480.16
541.472	55732.06
541.672	55508.83
541.873	54957.92
542.073	54777.7
542.274	55650.14
542.474	55101.28
542.675	55218.02
542.875	55543.64
543.075	55433.05
543.276	54876.01
543.476	55811.93
543.676	54601.58
543.877	55474.01
544.077	55340.89
544.277	55201.63
544.478	55177.06
544.678	55451.48
544.878	54933.35
545.078	55265.12
545.279	54767.46
545.479	54916.96
545.679	55172.96
545.879	55437.15
546.079	54994.79
546.28	55222.11
546.48	54804.33
546.68	55043.94
546.88	54759.27
547.08	54857.57
547.28	55072.61
547.48	54757.22
547.68	55240.54
547.88	54429.55
548.081	55461.72
548.281	55121.76
548.481	54996.84
548.681	55482.2
548.881	54703.98
549.081	55166.82
549.28	54323.05
549.48	55035.75
549.68	54622.06
549.88	54873.96
550.08	54511.47
550.28	54953.83
550.48	54519.66
550.68	55185.25
550.88	54488.94
551.08	54630.25
551.279	54818.66
551.479	53901.17
551.679	54726.5
551.879	54888.29
552.079	55086.95
552.278	54222.7
552.478	54337.39
552.678	54607.72
552.878	54837.09
553.077	54507.37
553.277	53727.09
553.477	54781.8
553.676	54533.99
553.876	54597.48
554.076	53995.38
554.275	53985.14
554.475	53708.66
554.674	54663.02
554.874	54413.16
555.074	54122.35
555.273	54183.79
555.473	54749.03
555.672	54030.19
555.872	54134.64
556.071	54282.09
556.271	54407.02
556.47	53348.22
556.67	53575.55
556.869	53831.54
557.068	53737.33
557.268	53172.1
557.467	53763.96
557.667	53751.67
557.866	53458.81
558.065	53462.91
558.265	53061.5
558.464	53151.62
558.663	53829.49
558.863	52918.15
559.062	53733.24
559.261	52551.56
559.461	53368.7
559.66	52375.44
559.859	53417.85
560.058	52787.08
560.258	52938.63
560.457	52471.69
560.656	52971.39
560.855	52408.2
561.054	52443.02
561.253	52350.86
561.453	52193.17
561.652	52357
561.851	52545.42
562.05	52066.19
562.249	52270.99
562.448	52117.39
562.647	51670.93
562.846	52344.72
563.045	52146.06
563.244	51273.63
563.443	52326.28
563.642	51416.99
563.841	51318.68
564.04	51343.26
564.239	51759
564.438	50948
564.637	51009.44
564.836	51419.03
565.035	50712.48
565.234	51322.78
565.432	50812.84
565.631	50034.61
565.83	50644.9
566.029	50657.19
566.228	50280.36
566.427	50266.03
566.625	50278.32
566.824	49606.58
567.023	50319.27
567.222	49207.23
567.42	50427.82
567.619	49543.09
567.818	49612.73
568.016	49256.38
568.215	49698.74
568.414	49418.17
568.612	49586.1
568.811	49366.97
569.01	49110.97
569.208	48719.81
569.407	49323.96
569.605	48512.97
569.804	49022.91
570.002	48734.15
570.201	48734.15
570.4	48484.29
570.598	48281.55
570.797	48113.61
570.995	48160.72
571.193	47976.4
571.392	48330.7
571.59	47290.33
571.789	48033.74
571.987	47988.69
572.186	47790.03
572.384	47132.64
572.582	47667.16
572.781	47259.61
572.979	47173.59
573.177	47460.31
573.376	47015.9
573.574	46807.01
573.772	47306.71
573.971	46008.3
574.169	46278.63
574.367	45742.06
574.565	46864.35
574.763	45592.56
574.962	45828.08
575.16	45619.19
575.358	46135.27
575.556	45316.09
575.754	45727.73
575.952	44931.07
576.151	45496.31
576.349	45187.07
576.547	44955.64
576.745	45019.13
576.943	45271.03
577.141	44890.11
577.339	45047.8
577.537	44660.74
577.735	44472.32
577.933	43874.32
578.131	44494.85
578.329	44083.21
578.527	43989
578.725	43804.69
578.923	44128.27
579.121	43632.66
579.319	44204.04
579.516	43575.31
579.714	43995.15
579.912	43401.24
580.11	43599.89
580.308	43690
580.506	42997.79
580.704	42319.91
580.901	42811.42
581.099	43386.9
581.297	42723.36
581.495	42209.32
581.692	42885.15
581.89	42248.23
582.088	42612.77
582.285	42178.6
582.483	42643.49
582.681	42465.31
582.878	42121.26
583.076	41654.32
583.274	42068.01
583.471	41396.28
583.669	41371.7
583.866	41222.2
584.064	41736.24
584.262	40968.25
584.459	41396.28
584.657	40865.85
584.854	41218.1
585.052	40689.73
585.249	40607.81
585.447	40921.15
585.644	40538.18
585.841	40439.87
586.039	40474.69
586.236	40108.1
586.434	40372.29
586.631	40065.1
586.828	39878.73
587.026	39950.41
587.223	39565.39
587.42	39415.89
587.618	39790.67
587.815	39067.73
588.012	39211.09
588.21	39178.32
588.407	39250
588.604	38867.03
588.801	38709.34
588.999	38834.27
589.196	38406.24
589.393	38604.89
589.59	38637.66
589.787	38418.53
589.984	38217.83
590.182	37861.48
590.379	38295.65
590.576	37484.65
590.773	37843.05
590.97	37595.24
591.167	37943.4
591.364	37410.93
591.561	37298.29
591.758	36880.5
591.955	37175.41
592.152	37392.5
592.349	37027.96
592.546	37179.51
592.743	37070.96
592.94	36133
593.137	36868.22
593.334	36798.59
593.531	36311.17
593.727	36388.99
593.924	36464.77
594.121	35817.61
594.318	35973.25
594.515	36055.17
594.712	36077.7
594.908	35889.29
595.105	35768.46
595.302	35432.59
595.499	35664.01
595.696	35168.4
595.892	35121.3
596.089	35172.5
596.286	35391.63
596.482	34810.01
596.679	34726.04
596.876	34984.08
597.072	34660.51
597.269	34533.53
597.466	33943.72
597.662	34285.73
597.859	34121.89
598.055	34345.12
598.252	33792.17
598.448	34031.78
598.645	34035.88
598.841	33505.45
599.038	33855.65
599.234	33468.59
599.431	33224.88
599.627	33341.61
599.824	33644.71
600.02	33239.22
600.217	33288.37
600.413	33194.16
600.609	32979.12
600.806	32862.39
601.002	33208.5
601.198	32528.57
601.395	32420.03
601.591	32096.45
601.787	32571.58
601.984	32204.99
602.18	32508.09
602.376	32020.67
602.572	31893.7
602.769	32266.43
602.965	31590.6
603.161	32055.49
603.357	31402.19
603.553	31299.79
603.75	31539.4
603.946	31320.27
604.142	31377.61
604.338	30824.66
604.534	31486.15
604.73	30533.85
604.926	30871.76
605.122	30834.9
605.318	30959.83
605.514	30757.08
605.71	30400.73
605.906	30490.84
606.102	30617.82
606.298	30109.92
606.494	30427.35
606.69	30136.54
606.886	30607.58
607.082	29974.75
607.278	30048.48
607.474	29655.27
607.67	29915.36
607.866	29616.36
608.062	30028
608.257	29481.19
608.453	29853.92
608.649	29634.79
608.845	29071.6
609.041	29362.41
609.236	29743.33
609.432	29182.19
609.628	29169.9
609.824	29083.89
610.019	28797.17
610.215	29090.03
610.411	29255.92
610.606	28758.26
610.802	29077.74
610.998	28909.81
611.193	28836.08
611.389	28766.45
611.584	28498.17
611.78	28324.09
611.976	28403.96
612.171	28457.21
612.367	28811.51
612.562	28549.37
612.758	28039.42
612.953	28076.29
613.149	28651.77
613.344	27816.19
613.539	28895.47
613.735	28279.04
613.93	28383.48
614.126	27912.45
614.321	28274.94
614.517	27996.42
614.712	27840.77
614.907	27873.54
615.103	27867.39
615.298	27828.48
615.493	28174.59
615.688	27318.54
615.884	28367.1
616.079	27220.24
616.274	27627.78
616.47	27422.98
616.665	27373.83
616.86	27326.73
617.055	27205.9
617.25	27289.87
617.445	27357.45
617.641	26626.32
617.836	26851.6
618.031	26513.69
618.226	27257.1
618.421	26734.87
618.616	27031.82
618.811	26310.94
619.006	27171.08
619.201	26183.96
619.396	26394.9
619.591	26261.79
619.786	26538.26
619.981	25991.45
620.176	26128.67
620.371	25680.16
620.566	25979.17
620.761	25825.57
620.956	26079.52
621.151	25610.53
621.346	25295.14
621.541	25301.29
621.735	25499.94
621.93	24813.87
622.125	24797.49
622.32	24404.28
622.515	24805.68
622.709	24449.33
622.904	24400.18
623.099	24432.95
623.294	24508.72
623.488	24115.51
623.683	24125.75
623.878	23888.19
624.072	23812.42
624.267	23562.56
624.462	23261.51
624.656	23341.38
624.851	23507.27
625.046	23177.54
625.24	22847.82
625.435	23132.49
625.629	22776.14
625.824	22647.12
626.018	22659.41
626.213	22323.54
626.407	22380.89
626.602	22018.39
626.796	22073.69
626.991	22073.69
627.185	21696.86
627.38	21672.29
627.574	21600.61
627.768	21440.87
627.963	21469.54
628.157	21068.14
628.352	21352.8
628.546	21010.79
628.74	21191.02
628.935	20812.14
629.129	20906.35
629.323	20515.19
629.517	20707.69
629.712	20607.34
629.906	20525.43
630.1	19927.42
630.294	20261.24
630.489	20191.61
630.683	20197.75
630.877	19646.85
631.071	19720.57
631.265	19501.44
631.459	19513.73
631.653	19499.39
631.848	19181.96
632.042	19097.99
632.236	19444.1
632.43	18651.53
632.624	18934.15
632.818	18590.1
633.012	18676.11
633.206	18540.94
633.4	18612.62
633.594	18317.72
633.788	18438.55
633.982	18325.91
634.176	18227.6
634.369	17985.94
634.563	18006.42
634.757	17797.53
634.951	17949.08
635.145	17783.2
635.339	18008.47
635.533	17598.88
635.726	17584.54
635.92	17170.85
636.114	17430.94
636.308	17361.31
636.501	17312.16
636.695	17129.89
636.889	16871.85
637.083	16980.39
637.276	16615.85
637.47	16800.17
637.664	16482.74
637.857	16310.71
638.051	16427.44
638.244	16239.03
638.438	16345.52
638.632	16067
638.825	16415.15
639.019	16050.61
639.212	15976.89
639.406	16007.61
639.599	15589.82
639.793	15927.74
639.986	15434.18
640.18	15505.85
640.373	15499.71
640.567	15393.22
640.76	15573.44
640.954	15331.78
641.147	15223.23
641.34	15126.98
641.534	14957
641.727	15036.87
641.92	14875.08
642.114	14993.86
642.307	15038.92
642.5	14647.76
642.694	14434.77
642.887	14455.25
643.08	14471.63
643.273	14504.4
643.467	14553.55
643.66	14088.66
643.853	14195.15
644.046	14031.32
644.239	13914.58
644.432	13781.46
644.626	13847
644.819	13767.13
645.012	13591
645.205	13681.11
645.398	13484.51
645.591	13359.58
645.784	13486.56
645.977	13281.76
646.17	13287.9
646.363	13296.1
646.556	13048.29
646.749	13187.55
646.942	13066.72
647.135	12777.96
647.328	12888.55
647.521	12866.02
647.714	12659.18
647.907	12804.58
648.099	12696.04
648.292	12388.85
648.485	12507.63
648.678	12337.65
648.871	12388.85
649.064	12370.41
649.256	12331.5
649.449	12206.58
649.642	12057.07
649.835	12141.04
650.027	11915.76
650.22	11858.42
650.413	11753.98
650.605	11799.03
650.798	11706.87
650.991	11684.34
651.183	11637.24
651.376	11592.19
651.568	11579.9
651.761	11420.16
651.954	11491.84
652.146	11338.24
652.339	11272.7
652.531	11104.77
652.724	11252.22
652.916	10910.21
653.109	11028.99
653.301	11069.95
653.494	11035.14
653.686	10850.82
653.879	10762.76
654.071	10818.05
654.263	10793.48
654.456	10727.94
654.648	10648.07
654.84	10713.61
655.033	10394.12
655.225	10285.58
655.417	10416.65
655.61	10236.43
655.802	10248.72
655.994	10299.92
656.186	10129.94
656.379	10162.7
656.571	10052.11
656.763	9787.93
656.955	9820.69
657.148	9847.32
657.34	9882.13
657.532	9654.81
657.724	9886.23
657.916	9914.9
658.108	9605.66
658.3	9703.96
658.492	9619.99
658.684	9368.09
658.876	9361.95
659.068	9462.3
659.26	9294.36
659.452	9314.84
659.644	9294.36
659.836	9073.18
660.028	9214.49
660.22	8925.73
660.412	9073.18
660.604	8915.49
660.796	9011.75
660.988	9069.09
661.18	8876.58
661.372	8806.95
661.563	8718.89
661.755	8780.32
661.947	8790.56
662.139	8518.18
662.331	8634.92
662.522	8602.15
662.714	8448.55
662.906	8557.1
663.097	8315.44
663.289	8317.48
663.481	8309.29
663.673	8399.4
663.864	8239.66
664.056	8172.08
664.247	8233.52
664.439	8178.22
664.631	8192.56
664.822	7985.71
665.014	7731.76
665.205	7998
665.397	7911.99
665.588	7905.84
665.78	8055.34
665.971	7709.24
666.163	7819.83
666.354	7774.77
666.546	7856.69
666.737	7719.48
666.929	7537.21
667.12	7555.64
667.311	7610.93
667.503	7498.3
667.694	7453.24
667.885	7379.51
668.077	7309.88
668.268	7270.97
668.459	7381.56
668.651	7199.29
668.842	7416.38
669.033	7373.37
669.224	7092.8
669.416	7277.12
669.607	7291.45
669.798	7021.12
669.989	7043.65
670.18	6939.2
670.371	7324.22
670.563	7014.98
670.754	6945.34
670.945	6947.39
671.136	6941.25
671.327	6806.08
671.518	6869.57
671.709	6734.4
671.9	6937.15
672.091	6675.01
672.282	6847.04
672.473	6543.94
672.664	6810.18
672.855	6586.95
673.046	6578.76
673.237	6550.09
673.428	6597.19
673.619	6550.09
673.809	6457.93
674	6412.87
674.191	6472.26
674.382	6629.96
674.573	6410.82
674.764	6390.35
674.954	6242.89
675.145	6140.49
675.336	6287.95
675.527	6402.63
675.717	6203.98
675.908	6042.19
676.099	6240.84
676.289	6240.84
676.48	6105.68
676.671	5962.32
676.861	6113.87
677.052	6111.82
677.243	5904.98
677.433	6031.95
677.624	6058.57
677.814	5855.83
678.005	5941.84
678.195	5892.69
678.386	5945.94
678.576	5821.01
678.767	5904.98
678.957	5761.62
679.148	5792.34
679.338	5759.57
679.529	5677.65
679.719	5839.44
679.909	5796.43
680.1	5591.64
680.29	5681.75
680.481	5565.01
680.671	5788.24
680.861	5479
681.052	5515.86
681.242	5495.38
681.432	5712.47
681.622	5567.06
681.813	5542.49
682.003	5618.26
682.193	5538.39
682.383	5474.9
682.573	5446.23
682.764	5290.59
682.954	5538.39
683.144	5413.46
683.334	5374.55
683.524	5300.83
683.714	5237.34
683.904	5339.74
684.094	5372.5
684.284	5272.15
684.474	5325.4
684.664	5192.28
684.854	5272.15
685.044	5157.47
685.234	5171.8
685.424	5190.24
685.614	5202.52
685.804	5186.14
685.994	5175.9
686.184	5155.42
686.374	5249.63
686.564	4993.63
686.753	5061.21
686.943	4899.42
687.133	4973.15
687.323	4899.42
687.513	4825.7
687.702	5007.97
687.892	4866.66
688.082	4897.38
688.272	5059.17
688.461	4803.17
688.651	4979.29
688.841	4604.52
689.03	4876.9
689.22	4690.53
689.41	4729.44
689.599	4694.63
689.789	4735.59
689.979	4807.27
690.168	4756.07
690.358	4631.14
690.547	4829.79
690.737	4700.77
690.926	4584.04
691.116	4514.41
691.305	4661.86
691.495	4452.97
691.684	4491.88
691.874	4559.46
692.063	4534.89
692.252	4512.36
692.442	4407.91
692.631	4383.34
692.82	4285.03
693.01	4319.85
693.199	4379.24
693.388	4297.32
693.578	4332.14
693.767	4315.75
693.956	4272.75
694.146	4215.4
694.335	4268.65
694.524	4145.77
694.713	4291.18
694.902	4186.73
695.092	4207.21
695.281	4088.43
695.47	4164.2
695.659	4301.42
695.848	4184.68
696.037	4096.62
696.226	4225.64
696.415	4117.1
696.604	4207.21
696.793	4147.82
696.982	3924.59
697.171	4119.15
697.36	4108.91
697.549	3904.11
697.738	3932.78
697.927	3924.59
698.116	3965.55
698.305	4035.18
698.494	4051.56
698.683	4043.37
698.872	4092.52
699.061	3994.22
699.25	3940.97
699.438	3887.73
699.627	3924.59
699.816	3875.44
700.005	3943.02
700.193	4024.94
700.382	4074.09
700.571	4035.18
700.76	4006.51
700.948	3830.38
701.137	3893.87
701.326	3883.63
701.514	3801.71
701.703	3861.1
701.892	3793.52
702.08	3789.42
702.269	3945.07
702.457	3900.02
702.646	3781.23
702.834	3897.97
703.023	3637.88
703.212	3775.09
703.4	3854.96
703.589	3756.66
703.777	3805.81
703.965	3709.55
704.154	3844.72
704.342	3891.82
704.531	3721.84
704.719	3732.08
704.907	3811.95
705.096	3697.27
705.284	3625.59
705.472	3854.96
705.661	3732.08
705.849	3746.42
706.037	3543.67
706.226	3689.07
706.414	3748.47
706.602	3607.16
706.79	3711.6
706.979	3707.51
707.167	3652.21
707.355	3658.35
707.543	3652.21
707.731	3709.55
707.919	3629.68
708.107	3598.96
708.296	3558
708.484	3631.73
708.672	3639.92
708.86	3678.83
709.048	3687.03
709.236	3512.95
709.424	3570.29
709.612	3510.9
709.8	3633.78
709.988	3674.74
710.176	3623.54
710.364	3590.77
710.551	3576.44
710.739	3531.38
710.927	3660.4
711.115	3539.57
711.303	3590.77
711.491	3652.21
711.679	3433.08
711.866	3576.44
712.054	3590.77
712.242	3512.95
712.43	3512.95
712.617	3584.63
712.805	3445.37
712.993	3578.48
713.181	3394.17
713.368	3428.98
713.556	3539.57
713.744	3414.65
713.931	3478.13
714.119	3502.71
714.306	3617.4
714.494	3519.09
714.682	3385.97
714.869	3316.34
715.057	3428.98
715.244	3338.87
715.432	3580.53
715.619	3279.48
715.807	3463.8
715.994	3404.41
716.182	3463.8
716.369	3385.97
716.556	3406.45
716.744	3447.41
716.931	3357.3
717.119	3312.25
717.306	3340.92
717.493	3324.54
717.681	3359.35
717.868	3447.41
718.055	3326.58
718.242	3277.43
718.43	3306.1
718.617	3357.3
718.804	3322.49
718.991	3220.09
719.179	3211.9
719.366	3252.86
719.553	3408.5
719.74	3222.14
719.927	3428.98
720.114	3244.67
720.301	3308.15
720.488	3334.78
720.676	3295.86
720.863	3185.27
721.05	3218.04
721.237	3328.63
721.424	3236.47
721.611	3220.09
721.798	3314.3
721.985	3244.67
722.172	3160.7
722.358	3199.61
722.545	3082.88
722.732	3107.45
722.919	3240.57
723.106	3338.87
723.293	3048.06
723.48	3091.07
723.667	3213.95
723.853	3179.13
724.04	3240.57
724.227	3035.77
724.414	3050.11
724.6	3140.22
724.787	3078.78
724.974	3082.88
725.161	3017.34
725.347	2957.95
725.534	3113.6
725.72	3101.31
725.907	3097.21
726.094	3043.96
726.28	3164.79
726.467	3097.21
726.653	3138.17
726.84	3121.79
727.027	3113.6
727.213	3023.48
727.4	3222.14
727.586	3029.63
727.773	3019.39
727.959	3168.89
728.145	2914.94
728.332	3066.49
728.518	2962.05
728.705	3170.94
728.891	3029.63
729.077	3021.44
729.264	3035.77
729.45	2980.48
729.636	3029.63
729.823	2990.72
730.009	3058.3
730.195	2876.03
730.382	3056.25
730.568	2960
730.754	2921.09
730.94	2990.72
731.126	3109.5
731.313	3070.59
731.499	3027.58
731.685	3007.1
731.871	2861.69
732.057	2851.46
732.243	2869.89
732.429	2927.23
732.615	2908.8
732.801	2880.13
732.987	2982.53
733.173	2835.07
733.359	3039.87
733.545	2912.89
733.731	2828.93
733.917	2912.89
734.103	2882.17
734.289	2910.85
734.475	2855.55
734.661	3011.2
734.847	3068.54
735.033	2824.83
735.219	2974.33
735.404	2800.26
735.59	2820.74
735.776	2941.57
735.962	2843.26
736.148	2865.79
736.333	2859.65
736.519	2828.93
736.705	2888.32
736.89	2830.98
737.076	2978.43
737.262	2880.13
737.447	2775.68
737.633	2810.5
737.819	2841.22
738.004	2765.44
738.19	2800.26
738.375	2749.06
738.561	2800.26
738.747	2845.31
738.932	2751.1
739.118	2804.35
739.303	2839.17
739.489	2792.06
739.674	2759.3
739.859	2665.09
740.045	2726.53
740.23	2740.86
740.416	2609.79
740.601	2765.44
740.786	2738.82
740.972	2603.65
741.157	2650.75
741.342	2712.19
741.528	2785.92
741.713	2701.95
741.898	2626.18
742.084	2652.8
742.269	2523.78
742.454	2632.32
742.639	2687.62
742.824	2521.73
743.01	2525.83
743.195	2593.41
743.38	2417.29
743.565	2544.26
743.75	2472.58
743.935	2466.44
744.12	2599.55
744.305	2464.39
744.49	2521.73
744.675	2454.15
744.86	2536.07
745.045	2439.81
745.23	2445.96
745.415	2376.33
745.6	2321.03
745.785	2310.79
745.97	2286.22
746.155	2355.85
746.34	2327.18
746.525	2388.61
746.71	2372.23
746.895	2392.71
747.079	2265.74
747.264	2245.26
747.449	2306.7
747.634	2278.02
747.819	2255.5
748.003	2214.54
748.188	2286.22
748.373	2226.82
748.557	2103.95
748.742	2167.43
748.927	2192.01
749.111	2200.2
749.296	2048.65
749.481	2144.91
749.665	2079.37
749.85	2116.23
750.034	2085.51
750.219	1983.12
750.404	1999.5
750.588	2099.85
750.773	2030.22
750.957	2118.28
751.141	2005.64
751.326	2003.6
751.51	2005.64
751.695	2060.94
751.879	1901.2
752.064	2044.56
752.248	1899.15
752.432	1868.43
752.617	1856.14
752.801	1985.16
752.985	1958.54
753.17	1864.33
753.354	1899.15
753.538	1778.32
753.722	1839.76
753.907	1845.9
754.091	1733.26
754.275	1770.13
754.459	1778.32
754.643	1806.99
754.828	1712.78
755.012	1739.41
755.196	1786.51
755.38	1686.16
755.564	1661.59
755.748	1821.33
755.932	1665.68
756.116	1712.78
756.3	1686.16
756.484	1637.01
756.668	1618.58
756.852	1626.77
757.036	1579.67
757.22	1610.39
757.404	1583.76
757.588	1594
757.772	1530.52
757.956	1680.02
758.14	1602.19
758.323	1544.85
758.507	1587.86
758.691	1430.16
758.875	1514.13
759.059	1573.52
759.242	1467.03
759.426	1503.89
759.61	1481.36
759.794	1493.65
759.977	1510.04
760.161	1473.17
760.345	1434.26
760.528	1391.25
760.712	1491.6
760.895	1374.87
761.079	1360.53
761.263	1360.53
761.446	1397.4
761.63	1399.45
761.813	1393.3
761.997	1321.62
762.18	1407.64
762.364	1364.63
762.547	1368.73
762.731	1335.96
762.914	1409.69
763.098	1350.29
763.281	1329.81
763.464	1430.16
763.648	1307.29
763.831	1456.79
764.015	1280.66
764.198	1303.19
764.381	1249.94
764.564	1270.42
764.748	1270.42
764.931	1292.95
765.114	1231.51
765.297	1292.95
765.481	1282.71
765.664	1223.32
765.847	1219.22
766.03	1243.8
766.213	1241.75
766.397	1266.33
766.58	1225.37
766.763	1258.14
766.946	1178.26
767.129	1254.04
767.312	1223.32
767.495	1241.75
767.678	1208.98
767.861	1247.9
768.044	1188.5
768.227	1270.42
768.41	1139.35
768.593	1108.63
768.776	1258.14
768.959	1153.69
769.142	1196.7
769.324	1067.67
769.507	1102.49
769.69	1174.17
769.873	1100.44
770.056	1225.37
770.239	1075.87
770.421	1206.94
770.604	1110.68
770.787	993.95
770.97	1086.11
771.152	1098.39
771.335	1077.91
771.518	1071.77
771.7	1118.87
771.883	1118.87
772.066	1108.63
772.248	981.66
772.431	1067.67
772.613	1137.31
772.796	1041.05
772.978	965.28
773.161	1079.96
773.343	965.28
773.526	1014.43
773.708	1002.14
773.891	985.76
774.073	996
774.256	985.76
774.438	1053.34
774.621	963.23
774.803	1020.57
774.985	936.6
775.168	946.84
775.35	875.17
775.532	1051.29
775.715	932.51
775.897	1063.58
776.079	948.89
776.261	862.88
776.444	856.73
776.626	975.52
776.808	940.7
776.99	877.21
777.173	842.4
777.355	946.84
777.537	877.21
777.719	840.35
777.901	883.36
778.083	807.58
778.265	869.02
778.447	823.97
778.629	817.82
778.811	750.24
778.993	850.59
779.175	819.87
779.357	787.1
779.539	828.06
779.721	819.87
779.903	828.06
780.085	754.34
780.267	744.1
780.449	746.14
780.631	748.19
780.812	729.76
780.994	707.23
781.176	729.76
781.358	746.14
781.54	750.24
781.721	795.29
781.903	746.14
782.085	721.57
782.267	662.18
782.448	744.1
782.63	676.51
782.812	725.66
782.993	692.9
783.175	637.6
783.357	623.27
783.538	719.52
783.72	541.35
783.901	647.84
784.083	645.79
784.264	567.97
784.446	514.72
784.627	621.22
784.809	637.6
784.99	588.45
785.172	572.07
785.353	557.73
785.535	582.31
785.716	615.07
785.897	547.49
786.079	623.27
786.26	608.93
786.441	635.55
786.623	608.93
786.804	574.11
786.985	524.96
787.167	516.77
787.348	516.77
787.529	610.98
787.71	563.87
787.891	527.01
788.073	539.3
788.254	453.28
788.435	531.11
788.616	531.11
788.797	453.28
788.978	516.77
789.159	522.91
789.34	443.04
789.522	459.43
789.703	492.2
789.884	604.83
790.065	484
790.246	457.38
790.427	492.2
790.607	496.29
790.788	467.62
790.969	559.78
791.15	516.77
791.331	447.14
791.512	434.85
791.693	469.67
791.874	447.14
792.054	479.91
792.235	510.63
792.416	463.52
792.597	406.18
792.778	490.15
792.958	395.94
793.139	387.75
793.32	459.43
793.5	426.66
793.681	463.52
793.862	422.56
794.042	406.18
794.223	426.66
794.404	436.9
794.584	397.99
794.765	400.04
794.945	348.84
795.126	424.61
795.306	352.93
795.487	363.17
795.667	465.57
795.848	418.47
796.028	371.36
796.209	326.31
796.389	379.56
796.57	367.27
796.75	369.32
796.93	369.32
797.111	305.83
797.291	369.32
797.471	359.08
797.652	305.83
797.832	299.69
798.012	311.97
798.192	311.97
798.373	393.89
798.553	348.84
798.733	367.27
798.913	293.54
799.093	330.41
799.274	324.26
799.454	289.45
799.634	299.69
799.814	303.78
799.994	309.93
800.174	352.93
800.354	295.59
800.534	271.01
800.714	307.88
800.894	328.36
801.074	236.2
801.254	254.63
801.434	334.5
801.614	330.41
801.794	359.08
801.974	596.64
802.154	271.01
802.334	254.63
802.514	299.69
802.693	283.3
802.873	211.62
803.053	291.49
803.233	340.65
803.413	273.06
803.592	213.67
803.772	273.06
803.952	283.3
804.131	281.25
804.311	283.3
804.491	279.21
804.67	256.68
804.85	293.54
805.03	254.63
805.209	221.86
805.389	240.29
805.568	275.11
805.748	189.1
805.928	223.91
806.107	250.53
806.287	213.67
806.466	266.92
806.646	201.38
806.825	213.67
807.004	219.82
807.184	307.88
807.363	246.44
807.543	273.06
807.722	248.49
807.901	266.92
808.081	223.91
808.26	279.21
808.439	244.39
808.619	238.25
808.798	291.49
808.977	207.53
809.156	234.15
809.336	228.01
809.515	178.86
809.694	172.71
809.873	262.82
810.052	228.01
810.231	228.01
810.411	139.94
810.59	236.2
810.769	266.92
810.948	252.58
811.127	162.47
811.306	189.1
811.485	180.9
811.664	260.77
811.843	228.01
812.022	215.72
812.201	223.91
812.38	217.77
812.559	250.53
812.737	303.78
812.916	193.19
813.095	193.19
813.274	148.14
813.453	211.62
813.632	139.94
813.811	279.21
813.989	203.43
814.168	207.53
814.347	205.48
814.526	213.67
814.704	174.76
814.883	234.15
815.062	119.46
815.24	195.24
815.419	162.47
815.598	115.37
815.776	180.9
815.955	217.77
816.133	107.18
816.312	178.86
816.49	131.75
816.669	256.68
816.847	168.62
817.026	156.33
817.204	62.12
817.383	168.62
817.561	197.29
817.74	185
817.918	137.9
818.097	193.19
818.275	166.57
818.453	185
818.632	197.29
818.81	162.47
818.988	164.52
819.167	131.75
819.345	156.33
819.523	115.37
819.701	225.96
819.879	135.85
820.058	158.38
820.236	174.76
820.414	156.33
820.592	127.66
820.77	156.33
820.948	135.85
821.127	82.6
821.305	238.25
821.483	125.61
821.661	146.09
821.839	129.7
822.017	168.62
822.195	180.9
822.373	148.14
822.551	105.13
822.729	182.95
822.907	168.62
823.085	146.09
823.262	146.09
823.44	141.99
823.618	185
823.796	86.7
823.974	103.08
824.152	168.62
824.329	162.47
824.507	113.32
824.685	101.03
824.863	152.23
825.04	107.18
825.218	160.42
825.396	98.99
825.574	158.38
825.751	156.33
825.929	141.99
826.107	180.9
826.284	49.83
826.462	137.9
826.639	39.59
826.817	64.17
826.994	123.56
827.172	70.31
827.349	168.62
827.527	154.28
827.704	94.89
827.882	123.56
828.059	176.81
828.237	66.22
828.414	84.65
828.591	98.99
828.769	105.13
828.946	115.37
829.124	164.52
829.301	58.03
829.478	90.79
829.655	98.99
829.833	105.13
830.01	88.75
830.187	88.75
830.364	45.74
830.542	121.51
830.719	82.6
830.896	148.14
831.073	66.22
831.25	101.03
831.427	72.36
831.604	164.52
831.782	78.51
831.959	113.32
832.136	35.5
832.313	90.79
832.49	96.94
832.667	127.66
832.844	111.27
833.021	148.14
833.198	17.07
833.374	74.41
833.551	55.98
833.728	62.12
833.905	105.13
834.082	60.07
834.259	121.51
834.436	137.9
834.612	66.22
834.789	58.03
834.966	123.56
835.143	135.85
835.319	10.92
835.496	17.07
835.673	94.89
835.85	117.42
836.026	78.51
836.203	84.65
836.38	72.36
836.556	76.46
836.733	86.7
836.909	170.66
837.086	66.22
837.262	27.31
837.439	113.32
837.616	19.11
837.792	25.26
837.968	107.18
838.145	25.26
838.321	113.32
838.498	131.75
838.674	92.84
838.851	78.51
839.027	86.7
839.203	10.92
839.38	103.08
839.556	43.69
839.732	78.51
839.909	25.26
840.085	98.99
840.261	66.22
840.437	117.42
840.614	53.93
840.79	105.13
840.966	55.98
841.142	25.26
841.318	107.18
841.494	127.66
841.671	90.79
841.847	35.5
842.023	133.8
842.199	76.46
842.375	82.6
842.551	74.41
842.727	109.22
842.903	33.45
843.079	90.79
843.255	115.37
843.431	111.27
843.607	88.75
843.783	33.45
843.959	31.4
844.134	139.94
844.31	105.13
844.486	49.83
844.662	66.22
844.838	45.74
845.013	127.66
845.189	76.46
845.365	86.7
845.541	66.22
845.716	66.22
845.892	88.75
846.068	47.79
846.244	64.17
846.419	113.32
846.595	37.55
846.77	86.7
846.946	84.65
847.122	62.12
847.297	90.79
847.473	131.75
847.648	-52.56
847.824	86.7
847.999	15.02
848.175	53.93
848.35	15.02
848.526	78.51
848.701	88.75
848.876	55.98
849.052	-1.37
849.227	94.89
849.403	60.07
849.578	66.22
849.753	74.41
849.929	51.88
850.104	96.94
850.279	-15.7
850.454	117.42
850.63	70.31
850.805	62.12
850.98	39.59
851.155	35.5
851.33	86.7
851.505	-27.99
851.681	41.64
851.856	64.17
852.031	84.65
852.206	49.83
852.381	88.75
852.556	8.87
852.731	103.08
852.906	62.12
853.081	107.18
853.256	49.83
853.431	96.94
853.606	8.87
853.781	58.03
853.956	6.83
854.131	33.45
854.305	55.98
854.48	43.69
854.655	-60.76
854.83	-27.99
855.005	64.17
855.18	4.78
855.354	-1.37
855.529	115.37
855.704	64.17
855.879	80.55
856.053	33.45
856.228	117.42
856.403	4.78
856.577	45.74
856.752	10.92
856.926	41.64
857.101	-38.23
857.276	80.55
857.45	41.64
857.625	27.31
857.799	-3.41
857.974	35.5
858.148	55.98
858.323	90.79
858.497	12.97
858.672	10.92
858.846	8.87
859.02	17.07
859.195	51.88
859.369	33.45
859.543	8.87
859.718	78.51
859.892	-7.51
860.066	-3.41
860.241	-27.99
860.415	25.26
860.589	66.22
860.763	64.17
860.938	41.64
861.112	-32.08
861.286	2.73
861.46	33.45
861.634	19.11
861.808	21.16
861.982	10.92
862.157	-40.28
862.331	-40.28
862.505	4.78
862.679	25.26
862.853	64.17
863.027	27.31
863.201	98.99
863.375	39.59
863.549	-13.65
863.722	62.12
863.896	96.94
864.07	0.68
864.244	49.83
864.418	23.21
864.592	25.26
864.766	41.64
864.939	98.99
865.113	-7.51
865.287	29.35
865.461	-11.61
865.634	12.97
865.808	27.31
865.982	-23.89
866.156	-15.7
866.329	64.17
866.503	72.36
866.676	103.08
866.85	-34.13
867.024	47.79
867.197	-81.24
867.371	51.88
867.544	78.51
867.718	-9.56
867.891	55.98
868.065	-3.41
868.238	19.11
868.412	53.93
868.585	-7.51
868.759	-105.81
868.932	19.11
869.105	-93.52
869.279	62.12
869.452	-7.51
869.625	17.07
869.799	-3.41
869.972	29.35
870.145	2.73
870.319	84.65
870.492	92.84
870.665	70.31
870.838	-27.99
871.011	31.4
871.185	51.88
871.358	43.69
871.531	51.88
871.704	-56.66
871.877	-64.85
872.05	-73.04
872.223	25.26
872.396	19.11
872.569	6.83
872.742	23.21
872.915	8.87
873.088	37.55
873.261	37.55
873.434	41.64
873.607	-23.89
873.78	19.11
873.953	-34.13
874.126	-17.75
874.299	37.55
874.471	58.03
874.644	-36.18
874.817	2.73
874.99	19.11
875.163	-44.37
875.335	2.73
875.508	43.69
875.681	37.55
875.853	-25.94
876.026	41.64
876.199	37.55
876.371	70.31
876.544	17.07
876.717	-38.23
876.889	-46.42
877.062	37.55
877.234	6.83
877.407	-13.65
877.579	37.55
877.752	55.98
877.924	15.02
878.097	70.31
878.269	-34.13
878.442	-17.75
878.614	53.93
878.786	-48.47
878.959	-46.42
879.131	6.83
879.303	33.45
879.476	31.4
879.648	17.07
879.82	125.61
879.993	-1.37
880.165	-11.61
880.337	49.83
880.509	-83.28
880.681	-83.28
880.854	15.02
881.026	35.5
881.198	0.68
881.37	-7.51
881.542	29.35
881.714	62.12
881.886	47.79
882.058	49.83
882.23	15.02
882.402	21.16
882.574	80.55
882.746	19.11
882.918	21.16
883.09	33.45
883.262	-9.56
883.434	-44.37
883.606	-1.37
883.778	33.45
883.95	33.45
884.122	29.35
884.293	80.55
884.465	68.27
884.637	23.21
884.809	12.97
884.98	-23.89
885.152	47.79
885.324	76.46
885.496	-15.7
885.667	33.45
885.839	-3.41
886.011	-17.75
886.182	-15.7
886.354	39.59
886.525	-38.23
886.697	-25.94
886.869	-48.47
887.04	-38.23
887.212	2.73
887.383	8.87
887.555	53.93
887.726	35.5
887.897	17.07
888.069	-32.08
888.24	15.02
888.412	17.07
888.583	-83.28
888.754	29.35
888.926	-25.94
889.097	25.26
889.268	45.74
889.44	66.22
889.611	-73.04
889.782	-62.8
889.953	27.31
890.125	21.16
890.296	-11.61
890.467	0.68
890.638	-19.8
890.809	-109.91
890.98	-42.32
891.151	6.83
891.323	-19.8
891.494	6.83
891.665	-17.75
891.836	-5.46
892.007	82.6
892.178	35.5
892.349	-52.56
892.52	4.78
892.691	-13.65
892.862	-3.41
893.032	-17.75
893.203	-38.23
893.374	21.16
893.545	78.51
893.716	-32.08
893.887	-1.37
894.057	35.5
894.228	41.64
894.399	-34.13
894.57	29.35
894.74	31.4
894.911	-3.41
895.082	23.21
895.253	25.26
895.423	-7.51
895.594	49.83
895.764	74.41
895.935	-9.56
896.106	64.17
896.276	25.26
896.447	-23.89
896.617	31.4
896.788	-77.14
896.958	-44.37
897.129	29.35
897.299	-11.61
897.47	43.69
897.64	27.31
897.81	-54.61
897.981	-48.47
898.151	62.12
898.322	8.87
898.492	31.4
898.662	-19.8
898.832	-3.41
899.003	15.02
899.173	-1.37
899.343	-64.85
899.513	-13.65
