Data from USB4F104151__45__11-05-30-397.txt Node

Date: Wed Mar 12 11:05:30 EDT 2025
User: louis
Spectrometer: USB4F10415
Trigger mode: 4
Integration Time (sec): 2.000000E-2
Scans to average: 1
Electric dark correction enabled: true
Nonlinearity correction enabled: false
Boxcar width: 0
XAxis mode: Wavelengths
Number of Pixels in Spectrum: 3648
>>>>>Begin Spectral Data<<<<<
178.204	-18.77
178.424	-18.77
178.644	-18.77
178.864	-47.44
179.084	1.71
179.304	9.9
179.524	30.38
179.744	-84.31
179.964	48.81
180.184	-43.35
180.404	18.09
180.624	22.19
180.844	-8.53
181.064	-2.39
181.283	-2.39
181.503	-6.49
181.723	18.09
181.943	28.33
182.163	104.11
182.383	-0.34
182.602	77.48
182.822	108.2
183.042	1.71
183.262	38.57
183.482	97.96
183.701	24.23
183.921	81.58
184.141	73.39
184.361	65.19
184.58	-10.58
184.8	52.91
185.02	3.75
185.239	100.01
185.459	95.91
185.679	63.15
185.898	63.15
186.118	50.86
186.338	112.3
186.557	50.86
186.777	-24.92
186.997	30.38
187.216	5.8
187.436	97.96
187.655	100.01
187.875	46.76
188.095	44.71
188.314	87.72
188.534	128.68
188.753	30.38
188.973	65.19
189.192	59.05
189.412	30.38
189.631	22.19
189.851	5.8
190.07	30.38
190.29	13.99
190.509	13.99
190.729	87.72
190.948	50.86
191.168	102.06
191.387	11.95
191.607	16.04
191.826	79.53
192.045	50.86
192.265	87.72
192.484	52.91
192.704	91.82
192.923	73.39
193.142	61.1
193.362	18.09
193.581	110.25
193.8	44.71
194.02	63.15
194.239	46.76
194.458	75.43
194.678	44.71
194.897	38.57
195.116	46.76
195.335	26.28
195.555	36.52
195.774	-4.44
195.993	61.1
196.212	42.67
196.432	13.99
196.651	50.86
196.87	20.14
197.089	50.86
197.308	28.33
197.528	18.09
197.747	57
197.966	126.63
198.185	71.34
198.404	-2.39
198.623	20.14
198.842	118.44
199.062	77.48
199.281	57
199.5	30.38
199.719	5.8
199.938	44.71
200.157	52.91
200.376	46.76
200.595	120.49
200.814	52.91
201.033	71.34
201.252	50.86
201.471	57
201.69	-12.63
201.909	30.38
202.128	13.99
202.347	75.43
202.566	59.05
202.785	81.58
203.004	-10.58
203.223	67.24
203.442	42.67
203.661	5.8
203.879	20.14
204.098	46.76
204.317	-10.58
204.536	73.39
204.755	36.52
204.974	-8.53
205.193	57
205.411	100.01
205.63	20.14
205.849	44.71
206.068	44.71
206.287	114.34
206.505	30.38
206.724	77.48
206.943	36.52
207.162	67.24
207.381	42.67
207.599	34.47
207.818	-18.77
208.037	38.57
208.255	34.47
208.474	104.11
208.693	79.53
208.911	32.43
209.13	46.76
209.349	67.24
209.567	106.15
209.786	63.15
210.005	50.86
210.223	116.39
210.442	1.71
210.661	79.53
210.879	13.99
211.098	61.1
211.316	-22.87
211.535	22.19
211.753	20.14
211.972	16.04
212.191	44.71
212.409	9.9
212.628	87.72
212.846	5.8
213.065	87.72
213.283	36.52
213.502	11.95
213.72	83.63
213.938	85.67
214.157	36.52
214.375	26.28
214.594	57
214.812	46.76
215.031	108.2
215.249	30.38
215.467	79.53
215.686	63.15
215.904	69.29
216.122	71.34
216.341	85.67
216.559	46.76
216.778	85.67
216.996	28.33
217.214	24.23
217.432	24.23
217.651	57
217.869	-37.2
218.087	59.05
218.306	11.95
218.524	89.77
218.742	112.3
218.96	83.63
219.179	36.52
219.397	118.44
219.615	44.71
219.833	112.3
220.051	5.8
220.27	79.53
220.488	22.19
220.706	22.19
220.924	-2.39
221.142	67.24
221.36	57
221.578	61.1
221.796	73.39
222.015	67.24
222.233	102.06
222.451	54.95
222.669	18.09
222.887	95.91
223.105	13.99
223.323	59.05
223.541	28.33
223.759	11.95
223.977	40.62
224.195	69.29
224.413	85.67
224.631	122.54
224.849	48.81
225.067	38.57
225.285	46.76
225.503	83.63
225.721	54.95
225.939	18.09
226.157	50.86
226.375	100.01
226.592	63.15
226.81	11.95
227.028	20.14
227.246	95.91
227.464	65.19
227.682	75.43
227.9	-0.34
228.117	77.48
228.335	-22.87
228.553	38.57
228.771	91.82
228.989	26.28
229.206	28.33
229.424	30.38
229.642	59.05
229.86	34.47
230.077	52.91
230.295	38.57
230.513	24.23
230.731	112.3
230.948	124.58
231.166	97.96
231.384	-2.39
231.601	81.58
231.819	106.15
232.037	20.14
232.254	44.71
232.472	106.15
232.689	63.15
232.907	-6.49
233.125	77.48
233.342	34.47
233.56	89.77
233.777	79.53
233.995	-0.34
234.213	100.01
234.43	65.19
234.648	46.76
234.865	102.06
235.083	89.77
235.3	67.24
235.518	42.67
235.735	97.96
235.953	46.76
236.17	59.05
236.388	32.43
236.605	26.28
236.822	155.3
237.04	38.57
237.257	75.43
237.475	28.33
237.692	42.67
237.909	54.95
238.127	67.24
238.344	130.73
238.562	-43.35
238.779	5.8
238.996	20.14
239.214	89.77
239.431	140.97
239.648	9.9
239.865	81.58
240.083	44.71
240.3	61.1
240.517	59.05
240.735	18.09
240.952	134.82
241.169	63.15
241.386	32.43
241.603	-10.58
241.821	116.39
242.038	120.49
242.255	9.9
242.472	63.15
242.689	44.71
242.907	40.62
243.124	-12.63
243.341	81.58
243.558	48.81
243.775	46.76
243.992	13.99
244.209	-2.39
244.426	79.53
244.643	89.77
244.86	52.91
245.078	26.28
245.295	54.95
245.512	79.53
245.729	63.15
245.946	61.1
246.163	50.86
246.38	50.86
246.597	95.91
246.814	9.9
247.031	52.91
247.248	71.34
247.464	106.15
247.681	85.67
247.898	57
248.115	104.11
248.332	73.39
248.549	18.09
248.766	3.75
248.983	87.72
249.2	85.67
249.417	75.43
249.633	134.82
249.85	52.91
250.067	95.91
250.284	83.63
250.501	91.82
250.717	50.86
250.934	65.19
251.151	59.05
251.368	108.2
251.585	87.72
251.801	38.57
252.018	26.28
252.235	57
252.451	59.05
252.668	69.29
252.885	140.97
253.102	42.67
253.318	34.47
253.535	83.63
253.752	5.8
253.968	57
254.185	93.87
254.401	50.86
254.618	120.49
254.835	-22.87
255.051	128.68
255.268	28.33
255.484	52.91
255.701	44.71
255.917	83.63
256.134	44.71
256.351	65.19
256.567	1.71
256.784	46.76
257	-10.58
257.217	87.72
257.433	44.71
257.65	50.86
257.866	36.52
258.082	42.67
258.299	20.14
258.515	30.38
258.732	63.15
258.948	-14.68
259.165	73.39
259.381	83.63
259.597	-2.39
259.814	3.75
260.03	20.14
260.246	100.01
260.463	59.05
260.679	100.01
260.895	83.63
261.112	100.01
261.328	63.15
261.544	30.38
261.761	104.11
261.977	83.63
262.193	30.38
262.409	87.72
262.626	65.19
262.842	13.99
263.058	9.9
263.274	7.85
263.49	54.95
263.707	20.14
263.923	52.91
264.139	34.47
264.355	26.28
264.571	73.39
264.787	26.28
265.004	48.81
265.22	97.96
265.436	44.71
265.652	63.15
265.868	79.53
266.084	38.57
266.3	32.43
266.516	28.33
266.732	79.53
266.948	24.23
267.164	46.76
267.38	91.82
267.596	75.43
267.812	110.25
268.028	104.11
268.244	79.53
268.46	83.63
268.676	87.72
268.892	97.96
269.108	-2.39
269.324	38.57
269.54	16.04
269.756	112.3
269.972	-8.53
270.188	118.44
270.403	50.86
270.619	67.24
270.835	48.81
271.051	85.67
271.267	20.14
271.483	13.99
271.698	34.47
271.914	22.19
272.13	52.91
272.346	71.34
272.562	57
272.777	102.06
272.993	87.72
273.209	59.05
273.425	1.71
273.64	-8.53
273.856	61.1
274.072	20.14
274.287	46.76
274.503	61.1
274.719	116.39
274.934	-6.49
275.15	-16.73
275.366	75.43
275.581	65.19
275.797	30.38
276.012	57
276.228	42.67
276.444	102.06
276.659	-49.49
276.875	-22.87
277.09	54.95
277.306	34.47
277.521	38.57
277.737	46.76
277.952	54.95
278.168	-14.68
278.383	93.87
278.599	1.71
278.814	5.8
279.03	77.48
279.245	93.87
279.461	40.62
279.676	28.33
279.892	87.72
280.107	3.75
280.322	89.77
280.538	52.91
280.753	38.57
280.969	108.2
281.184	106.15
281.399	104.11
281.615	20.14
281.83	69.29
282.045	73.39
282.26	67.24
282.476	46.76
282.691	112.3
282.906	54.95
283.122	28.33
283.337	54.95
283.552	32.43
283.767	93.87
283.983	30.38
284.198	54.95
284.413	87.72
284.628	5.8
284.843	65.19
285.058	30.38
285.274	54.95
285.489	46.76
285.704	34.47
285.919	22.19
286.134	3.75
286.349	50.86
286.564	75.43
286.779	30.38
286.995	42.67
287.21	52.91
287.425	108.2
287.64	63.15
287.855	71.34
288.07	59.05
288.285	48.81
288.5	-55.64
288.715	114.34
288.93	30.38
289.145	38.57
289.36	57
289.575	40.62
289.79	52.91
290.004	61.1
290.219	71.34
290.434	11.95
290.649	3.75
290.864	73.39
291.079	28.33
291.294	52.91
291.509	48.81
291.724	36.52
291.938	69.29
292.153	71.34
292.368	36.52
292.583	89.77
292.798	87.72
293.012	97.96
293.227	20.14
293.442	52.91
293.657	85.67
293.871	42.67
294.086	57
294.301	36.52
294.516	118.44
294.73	42.67
294.945	46.76
295.16	89.77
295.374	48.81
295.589	85.67
295.804	50.86
296.018	136.87
296.233	77.48
296.447	89.77
296.662	-10.58
296.877	106.15
297.091	77.48
297.306	22.19
297.52	59.05
297.735	13.99
297.949	91.82
298.164	26.28
298.378	22.19
298.593	67.24
298.807	61.1
299.022	79.53
299.236	143.02
299.451	50.86
299.665	71.34
299.88	52.91
300.094	100.01
300.309	63.15
300.523	69.29
300.737	36.52
300.952	132.78
301.166	89.77
301.381	44.71
301.595	46.76
301.809	50.86
302.024	112.3
302.238	50.86
302.452	67.24
302.667	48.81
302.881	36.52
303.095	28.33
303.309	112.3
303.524	-12.63
303.738	67.24
303.952	32.43
304.166	34.47
304.381	18.09
304.595	67.24
304.809	52.91
305.023	52.91
305.237	54.95
305.452	59.05
305.666	16.04
305.88	57
306.094	30.38
306.308	52.91
306.522	22.19
306.736	75.43
306.95	-2.39
307.164	151.21
307.379	104.11
307.593	122.54
307.807	112.3
308.021	42.67
308.235	73.39
308.449	-72.02
308.663	46.76
308.877	16.04
309.091	69.29
309.305	13.99
309.519	44.71
309.733	40.62
309.947	24.23
310.161	67.24
310.374	40.62
310.588	71.34
310.802	52.91
311.016	3.75
311.23	106.15
311.444	104.11
311.658	89.77
311.872	77.48
312.085	153.26
312.299	40.62
312.513	67.24
312.727	54.95
312.941	59.05
313.154	22.19
313.368	59.05
313.582	63.15
313.796	69.29
314.009	-45.4
314.223	83.63
314.437	59.05
314.651	-6.49
314.864	50.86
315.078	54.95
315.292	102.06
315.505	67.24
315.719	67.24
315.933	116.39
316.146	65.19
316.36	-4.44
316.573	22.19
316.787	63.15
317.001	95.91
317.214	71.34
317.428	46.76
317.641	42.67
317.855	122.54
318.068	28.33
318.282	65.19
318.495	50.86
318.709	59.05
318.922	124.58
319.136	38.57
319.349	54.95
319.563	79.53
319.776	46.76
319.99	57
320.203	63.15
320.417	50.86
320.63	9.9
320.843	124.58
321.057	26.28
321.27	85.67
321.483	120.49
321.697	108.2
321.91	20.14
322.124	85.67
322.337	50.86
322.55	67.24
322.763	44.71
322.977	85.67
323.19	124.58
323.403	57
323.617	48.81
323.83	65.19
324.043	1.71
324.256	112.3
324.469	44.71
324.683	32.43
324.896	9.9
325.109	63.15
325.322	34.47
325.535	38.57
325.748	147.11
325.962	104.11
326.175	155.3
326.388	61.1
326.601	104.11
326.814	67.24
327.027	-47.44
327.24	79.53
327.453	7.85
327.666	130.73
327.879	87.72
328.092	95.91
328.305	48.81
328.518	116.39
328.731	-24.92
328.944	13.99
329.157	71.34
329.37	65.19
329.583	79.53
329.796	83.63
330.009	36.52
330.222	52.91
330.435	112.3
330.648	91.82
330.861	34.47
331.073	67.24
331.286	120.49
331.499	93.87
331.712	59.05
331.925	28.33
332.138	87.72
332.35	24.23
332.563	59.05
332.776	116.39
332.989	30.38
333.202	79.53
333.414	102.06
333.627	65.19
333.84	71.34
334.053	34.47
334.265	-6.49
334.478	89.77
334.691	38.57
334.903	85.67
335.116	106.15
335.329	44.71
335.541	104.11
335.754	11.95
335.966	38.57
336.179	89.77
336.392	-4.44
336.604	87.72
336.817	30.38
337.029	122.54
337.242	54.95
337.454	132.78
337.667	77.48
337.88	50.86
338.092	11.95
338.305	22.19
338.517	-45.4
338.729	-33.11
338.942	-10.58
339.154	50.86
339.367	44.71
339.579	106.15
339.792	61.1
340.004	9.9
340.217	85.67
340.429	42.67
340.641	40.62
340.854	145.06
341.066	81.58
341.278	54.95
341.491	136.87
341.703	57
341.915	26.28
342.128	36.52
342.34	11.95
342.552	89.77
342.764	83.63
342.977	20.14
343.189	50.86
343.401	71.34
343.613	30.38
343.826	16.04
344.038	83.63
344.25	48.81
344.462	36.52
344.674	106.15
344.886	-57.68
345.099	63.15
345.311	40.62
345.523	48.81
345.735	48.81
345.947	83.63
346.159	83.63
346.371	85.67
346.583	69.29
346.795	95.91
347.007	-26.96
347.219	87.72
347.431	20.14
347.643	75.43
347.855	13.99
348.067	110.25
348.279	18.09
348.491	77.48
348.703	-10.58
348.915	26.28
349.127	116.39
349.339	132.78
349.551	54.95
349.763	38.57
349.975	93.87
350.187	32.43
350.399	28.33
350.61	20.14
350.822	-16.73
351.034	54.95
351.246	79.53
351.458	46.76
351.669	104.11
351.881	57
352.093	163.5
352.305	112.3
352.517	97.96
352.728	59.05
352.94	18.09
353.152	100.01
353.363	118.44
353.575	140.97
353.787	20.14
353.999	91.82
354.21	34.47
354.422	57
354.633	54.95
354.845	126.63
355.057	54.95
355.268	91.82
355.48	50.86
355.692	65.19
355.903	3.75
356.115	54.95
356.326	7.85
356.538	67.24
356.749	102.06
356.961	136.87
357.172	71.34
357.384	34.47
357.595	91.82
357.807	87.72
358.018	-14.68
358.23	97.96
358.441	91.82
358.653	102.06
358.864	22.19
359.075	116.39
359.287	50.86
359.498	112.3
359.709	108.2
359.921	116.39
360.132	116.39
360.344	30.38
360.555	42.67
360.766	73.39
360.977	118.44
361.189	97.96
361.4	71.34
361.611	91.82
361.823	52.91
362.034	81.58
362.245	36.52
362.456	61.1
362.667	124.58
362.879	118.44
363.09	106.15
363.301	63.15
363.512	97.96
363.723	32.43
363.935	61.1
364.146	128.68
364.357	59.05
364.568	57
364.779	32.43
364.99	118.44
365.201	91.82
365.412	89.77
365.623	11.95
365.834	95.91
366.045	46.76
366.256	194.22
366.467	63.15
366.678	71.34
366.889	57
367.1	128.68
367.311	112.3
367.522	85.67
367.733	110.25
367.944	22.19
368.155	38.57
368.366	40.62
368.577	87.72
368.788	32.43
368.999	79.53
369.209	67.24
369.42	140.97
369.631	149.16
369.842	-53.59
370.053	71.34
370.264	67.24
370.474	59.05
370.685	97.96
370.896	67.24
371.107	192.17
371.317	44.71
371.528	81.58
371.739	120.49
371.95	73.39
372.16	95.91
372.371	73.39
372.582	24.23
372.792	85.67
373.003	114.34
373.214	108.2
373.424	100.01
373.635	38.57
373.846	65.19
374.056	63.15
374.267	32.43
374.477	165.54
374.688	63.15
374.898	126.63
375.109	69.29
375.319	128.68
375.53	32.43
375.74	50.86
375.951	36.52
376.161	40.62
376.372	87.72
376.582	42.67
376.793	91.82
377.003	26.28
377.214	42.67
377.424	-2.39
377.635	124.58
377.845	116.39
378.055	116.39
378.266	40.62
378.476	36.52
378.686	120.49
378.897	54.95
379.107	73.39
379.317	118.44
379.528	42.67
379.738	114.34
379.948	79.53
380.158	57
380.369	67.24
380.579	87.72
380.789	87.72
380.999	87.72
381.21	54.95
381.42	81.58
381.63	50.86
381.84	50.86
382.05	71.34
382.261	83.63
382.471	91.82
382.681	46.76
382.891	140.97
383.101	83.63
383.311	61.1
383.521	114.34
383.731	110.25
383.941	69.29
384.151	50.86
384.361	50.86
384.571	120.49
384.781	81.58
384.991	116.39
385.201	157.35
385.411	59.05
385.621	32.43
385.831	69.29
386.041	124.58
386.251	11.95
386.461	87.72
386.671	61.1
386.881	36.52
387.091	95.91
387.301	87.72
387.511	20.14
387.72	104.11
387.93	71.34
388.14	46.76
388.35	163.5
388.56	61.1
388.769	126.63
388.979	75.43
389.189	30.38
389.399	26.28
389.609	75.43
389.818	87.72
390.028	5.8
390.238	108.2
390.447	136.87
390.657	106.15
390.867	95.91
391.076	128.68
391.286	106.15
391.496	77.48
391.705	102.06
391.915	48.81
392.125	71.34
392.334	50.86
392.544	112.3
392.753	104.11
392.963	38.57
393.172	40.62
393.382	75.43
393.591	71.34
393.801	93.87
394.01	145.06
394.22	118.44
394.429	116.39
394.639	149.16
394.848	59.05
395.058	85.67
395.267	122.54
395.477	124.58
395.686	108.2
395.895	194.22
396.105	140.97
396.314	134.82
396.524	77.48
396.733	145.06
396.942	110.25
397.152	138.92
397.361	167.59
397.57	183.98
397.78	26.28
397.989	46.76
398.198	147.11
398.407	11.95
398.617	186.02
398.826	116.39
399.035	118.44
399.244	153.26
399.453	145.06
399.663	140.97
399.872	147.11
400.081	110.25
400.29	159.4
400.499	95.91
400.708	91.82
400.917	145.06
401.127	134.82
401.336	100.01
401.545	116.39
401.754	198.31
401.963	85.67
402.172	95.91
402.381	206.5
402.59	120.49
402.799	69.29
403.008	171.69
403.217	134.82
403.426	222.89
403.635	186.02
403.844	79.53
404.053	149.16
404.262	134.82
404.471	167.59
404.68	134.82
404.888	196.26
405.097	145.06
405.306	132.78
405.515	190.12
405.724	145.06
405.933	186.02
406.142	269.99
406.35	196.26
406.559	151.21
406.768	226.98
406.977	255.65
407.185	210.6
407.394	237.22
407.603	194.22
407.812	198.31
408.02	198.31
408.229	272.04
408.438	257.7
408.646	171.69
408.855	183.98
409.064	235.18
409.272	278.18
409.481	302.76
409.69	233.13
409.898	237.22
410.107	306.85
410.315	245.41
410.524	319.14
410.733	376.48
410.941	231.08
411.15	327.33
411.358	362.15
411.567	450.21
411.775	259.75
411.984	331.43
412.192	442.02
412.401	362.15
412.609	394.92
412.818	413.35
413.026	528.03
413.234	495.27
413.443	464.55
413.651	444.07
413.86	554.66
414.068	538.27
414.276	587.43
414.485	482.98
414.693	556.71
414.901	589.47
415.11	603.81
415.318	556.71
415.526	657.06
415.734	675.49
415.943	698.02
416.151	745.12
416.359	773.79
416.567	921.24
416.776	806.56
416.984	837.28
417.192	857.76
417.4	861.85
417.608	894.62
417.817	874.14
418.025	949.92
418.233	982.68
418.441	1044.12
418.649	1060.51
418.857	1103.51
419.065	1140.38
419.273	1140.38
419.481	1146.52
419.689	1248.92
419.897	1240.73
420.105	1271.45
420.313	1371.8
420.521	1455.76
420.729	1449.62
420.937	1431.19
421.145	1529.49
421.353	1535.64
421.561	1635.99
421.769	1734.29
421.977	1703.57
422.185	1746.58
422.393	1885.84
422.601	2021
422.809	2008.72
423.017	1957.52
423.224	2078.35
423.432	2201.23
423.64	2121.35
423.848	2358.92
424.056	2389.64
424.263	2449.03
424.471	2514.56
424.679	2498.18
424.887	2784.9
425.094	2672.26
425.302	2776.7
425.51	2909.82
425.718	3018.36
425.925	3012.22
426.133	3083.9
426.341	3180.15
426.548	3360.38
426.756	3456.63
426.964	3462.77
427.171	3745.39
427.379	3870.32
427.586	3815.02
427.794	3874.42
428.001	4107.88
428.209	4314.73
428.417	4175.47
428.624	4607.59
428.832	4621.92
429.039	4378.22
429.247	4525.67
429.454	4916.83
429.662	5238.36
429.869	4882.02
430.076	5293.66
430.284	5154.4
430.491	5584.47
430.699	5680.72
430.906	5609.05
431.114	5705.3
431.321	5768.79
431.528	6043.21
431.736	6415.94
431.943	6813.25
432.15	6327.88
432.358	6721.09
432.565	6749.76
432.772	6854.21
432.979	7317.05
433.187	7343.67
433.394	7224.89
433.601	7956.02
433.808	7982.64
434.016	7802.42
434.223	8283.69
434.43	8726.05
434.637	8642.09
434.844	8943.14
435.052	9137.7
435.259	9336.35
435.466	9446.94
435.673	9332.25
435.88	9797.14
436.087	10376.72
436.294	10423.82
436.501	10108.43
436.708	10315.28
436.915	10776.07
437.122	10948.1
437.329	11343.36
437.537	11331.07
437.743	11668.98
437.95	11572.73
438.157	12129.78
438.364	12738.02
438.571	12522.99
438.778	12686.83
438.985	13850.07
439.192	13286.88
439.399	13684.19
439.606	13319.65
439.813	14185.94
440.02	14763.47
440.227	14587.34
440.433	14620.11
440.64	15115.72
440.847	15076.8
441.054	15433.15
441.261	16459.18
441.467	16324.02
441.674	16491.95
441.881	17104.29
442.088	17094.05
442.294	16903.59
442.501	17634.72
442.708	17659.29
442.914	18501.01
443.121	19070.34
443.328	18564.5
443.534	19903.87
443.741	19533.18
443.948	19180.93
444.154	20432.24
444.361	20477.3
444.568	20591.98
444.774	20792.69
444.981	20618.61
445.187	21546.34
445.394	22312.28
445.6	22195.54
445.807	24345.91
446.013	23168.33
446.22	23563.59
446.426	24552.76
446.633	25066.8
446.839	25302.31
447.046	24452.41
447.252	25816.35
447.459	25976.09
447.665	25709.86
447.871	26821.91
448.078	27817.22
448.284	26582.29
448.491	27421.96
448.697	28638.45
448.903	29052.14
449.11	28888.31
449.316	28290.3
449.522	28826.87
449.728	29977.83
449.935	29977.83
450.141	29744.36
450.347	30524.63
450.553	29598.95
450.76	29803.75
450.966	30788.82
451.172	30616.79
451.378	31235.28
451.584	30674.13
451.791	31325.39
451.997	31093.97
452.203	31421.64
452.409	31802.57
452.615	31315.15
452.821	30364.89
453.027	29809.89
453.233	31384.78
453.44	30227.68
453.646	30702.81
453.852	30866.64
454.058	31145.17
454.264	29859.04
454.47	30696.66
454.676	30168.29
454.882	31048.91
455.088	28142.85
455.294	28579.06
455.5	29086.96
455.705	29375.72
455.911	27688.2
456.117	27368.71
456.323	27278.6
456.529	25611.56
456.735	26547.48
456.941	25894.18
457.147	25707.81
457.352	24818.99
457.558	24581.43
457.764	24603.96
457.97	23967.04
458.176	23508.29
458.381	23553.35
458.587	22541.65
458.793	22345.05
458.999	21257.57
459.204	22644.05
459.41	22386.01
459.616	20700.53
459.821	20839.79
460.027	20643.18
460.233	20209.01
460.438	19088.78
460.644	19578.24
460.85	18783.63
461.055	18050.46
461.261	18181.53
461.466	16985.51
461.672	16068.02
461.878	17534.37
462.083	16170.42
462.289	16039.35
462.494	15924.66
462.7	15201.73
462.905	14796.23
463.111	15244.74
463.316	15412.67
463.522	15074.76
463.727	15019.46
463.932	15019.46
464.138	14839.24
464.343	15173.06
464.549	14478.8
464.754	14960.07
464.959	14992.84
465.165	15087.04
465.37	13831.64
465.575	13716.95
465.781	14038.48
465.986	14253.52
466.191	13854.17
466.397	13340.13
466.602	12813.8
466.807	13411.81
467.012	13499.87
467.218	13329.89
467.423	13139.43
467.628	13381.09
467.833	13950.42
468.038	13440.48
468.244	12948.97
468.449	13432.29
468.654	13374.94
468.859	12664.3
469.064	12963.3
469.269	12531.18
469.474	12473.84
469.679	12965.35
469.885	12137.97
470.09	12391.92
470.295	12457.45
470.5	12054
470.705	12209.65
470.91	11933.17
471.115	11808.25
471.32	11894.26
471.525	11873.78
471.73	11623.93
471.935	11566.59
472.139	11122.18
472.344	11286.01
472.549	11183.62
472.754	11206.14
472.959	11036.16
473.164	10491.4
473.369	10485.26
473.574	10673.67
473.778	10993.15
473.983	10507.79
474.188	10681.86
474.393	10231.31
474.598	10182.16
474.802	10104.34
475.007	10329.61
475.212	10055.19
475.417	9487.9
475.621	9739.8
475.826	9600.54
476.031	9653.78
476.235	9405.98
476.44	9553.43
476.645	9229.85
476.849	9373.21
477.054	9088.54
477.259	8906.27
477.463	9096.74
477.668	8734.25
477.872	9029.15
478.077	8773.16
478.282	8744.49
478.486	8603.18
478.691	8541.74
478.895	8750.63
479.1	8420.91
479.304	8390.19
479.509	8220.21
479.713	8314.41
479.918	8234.54
480.122	8209.97
480.326	8064.56
480.531	8109.61
480.735	8013.36
480.94	8017.46
481.144	8238.64
481.348	7747.12
481.553	7962.16
481.757	7704.12
481.961	7896.63
482.166	8027.7
482.37	7884.34
482.574	7880.24
482.778	7890.48
482.983	7994.93
483.187	7786.04
483.391	8054.32
483.595	7810.61
483.8	7753.27
484.004	7833.14
484.208	7874.1
484.412	7820.85
484.616	7702.07
484.821	7870
485.025	7607.86
485.229	7689.78
485.433	7595.57
485.637	7640.63
485.841	7915.06
486.045	7865.91
486.249	7808.56
486.453	7769.65
486.657	7697.97
486.861	7910.96
487.065	7749.17
487.269	7675.45
487.473	7548.47
487.677	7843.38
487.881	7804.47
488.085	7757.36
488.289	7796.28
488.493	7687.73
488.697	8111.66
488.901	7872.05
489.105	7913.01
489.309	7865.91
489.512	7831.09
489.716	7970.35
489.92	7884.34
490.124	7994.93
490.328	8023.6
490.531	7990.83
490.735	8074.8
490.939	8214.06
491.143	7968.31
491.346	8150.57
491.55	7988.78
491.754	8236.59
491.958	8230.45
492.161	8113.71
492.365	8449.58
492.569	8300.08
492.772	8250.92
492.976	8488.49
493.18	8338.99
493.383	8474.15
493.587	8465.96
493.79	8609.32
493.994	8396.33
494.197	8629.8
494.401	8713.77
494.605	8697.38
494.808	8912.42
495.012	8881.7
495.215	9039.39
495.419	8910.37
495.622	9147.94
495.825	8998.43
496.029	9100.83
496.232	9379.36
496.436	9485.85
496.639	9539.1
496.843	9475.61
497.046	9549.34
497.249	9758.23
497.453	9817.62
497.656	9977.36
497.859	9971.22
498.063	10022.42
498.266	10622.47
498.469	10419.72
498.673	10368.52
498.876	10610.18
499.079	10642.95
499.282	10499.59
499.485	10860.04
499.689	10962.44
499.892	11337.21
500.095	11173.38
500.298	11382.27
500.501	11384.32
500.705	11599.35
500.908	11619.83
501.111	11949.56
501.314	11720.18
501.517	11980.28
501.72	12137.97
501.923	12209.65
502.126	12367.34
502.329	12639.72
502.532	12654.06
502.735	12903.91
502.938	13198.82
503.141	13002.21
503.344	13276.64
503.547	13452.77
503.75	13649.37
503.953	13800.92
504.156	13997.53
504.359	14022.1
504.562	14274
504.765	14257.62
504.968	14405.07
505.17	14478.8
505.373	14802.38
505.576	15191.49
505.779	14966.21
505.982	15263.17
506.185	15504.83
506.387	15545.79
506.59	15773.11
506.793	16195
506.996	15865.27
507.198	16637.36
507.401	16379.31
507.604	16553.39
507.807	16903.59
508.009	16852.39
508.212	17186.21
508.415	17366.43
508.617	17339.81
508.82	17724.83
509.022	17536.42
509.225	17989.02
509.428	18115.99
509.63	18267.54
509.833	18376.08
510.035	18998.66
510.238	18584.98
510.44	19119.49
510.643	19244.42
510.845	19815.8
511.048	19674.49
511.25	19764.61
511.453	20053.37
511.655	20428.15
511.858	20104.57
512.06	20624.75
512.262	20882.8
512.465	20831.6
512.667	21208.42
512.87	21548.39
513.072	21413.22
513.274	21796.19
513.477	22326.61
513.679	22103.39
513.881	22515.03
514.084	22689.1
514.286	22809.93
514.488	22848.85
514.69	23919.93
514.893	23948.61
515.095	23899.45
515.297	24124.73
515.499	24137.02
515.701	24909.1
515.904	25097.52
516.106	24882.48
516.308	25019.69
516.51	25648.42
516.712	25478.44
516.914	25789.73
517.116	26006.81
517.318	26645.78
517.52	26432.79
517.722	26623.25
517.925	26989.84
518.127	27553.03
518.329	27421.96
518.531	27272.46
518.733	27917.57
518.935	28253.44
519.136	28298.49
519.338	28728.56
519.54	28882.16
519.742	28980.46
519.944	29103.34
520.146	29871.33
520.348	30063.84
520.55	29895.91
520.752	30289.12
520.954	30440.67
521.155	30383.32
521.357	31216.85
521.559	31620.3
521.761	31784.13
521.963	31638.73
522.164	31923.4
522.366	32253.12
522.568	32484.54
522.77	32668.86
522.971	33178.8
523.173	32828.6
523.375	33283.25
523.576	33483.95
523.778	33354.93
523.98	33954.98
524.181	34090.15
524.383	34020.52
524.584	34552.99
524.786	34583.71
524.988	34589.85
525.189	34751.64
525.391	35153.04
525.592	35241.1
525.794	35474.57
525.995	35662.99
526.197	35531.92
526.398	35908.74
526.6	36260.99
526.801	36144.26
527.003	36338.82
527.204	36314.24
527.406	36807.8
527.607	36883.58
527.808	37059.7
528.01	36365.44
528.211	37188.72
528.412	37710.96
528.614	37676.14
528.815	37375.09
529.016	38141.03
529.218	37459.06
529.419	37846.12
529.62	37946.47
529.822	37796.97
530.023	38083.69
530.224	38349.92
530.425	38272.1
530.626	37825.64
530.828	38157.41
531.029	39185.49
531.23	38138.98
531.431	38607.97
531.632	38671.45
531.833	38661.21
532.035	38976.6
532.236	38945.88
532.437	39195.73
532.638	38653.02
532.839	39234.64
533.04	39466.06
533.241	38771.8
533.442	39382.1
533.643	39373.91
533.844	39242.84
534.045	39408.72
534.246	39369.81
534.447	39476.3
534.648	39167.06
534.849	39347.28
535.05	39066.71
535.251	39248.98
535.451	39398.48
535.652	39695.44
535.853	39234.64
536.054	39208.02
536.255	39824.46
536.456	39396.43
536.657	40070.22
536.857	39724.11
537.058	39451.73
537.259	39894.09
537.46	39746.64
537.66	39713.87
537.861	39924.81
538.062	39640.14
538.263	39947.34
538.463	39255.12
538.664	39722.06
538.865	39803.98
539.065	39844.94
539.266	39052.37
539.466	39771.21
539.667	39308.37
539.868	39892.04
540.068	39271.51
540.269	39441.49
540.469	39498.83
540.67	39279.7
540.87	39724.11
541.071	39349.33
541.271	39400.53
541.472	39816.27
541.672	39554.13
541.873	39562.32
542.073	39263.32
542.274	39605.33
542.474	39429.2
542.675	39431.25
542.875	39711.82
543.075	39369.81
543.276	38984.79
543.476	40186.95
543.676	39296.08
543.877	39717.96
544.077	39558.22
544.277	39275.6
544.478	39386.19
544.678	39869.51
544.878	39879.75
545.078	39642.19
545.279	39302.23
545.479	39087.19
545.679	39498.83
545.879	39011.42
546.079	39492.69
546.28	39185.49
546.48	38898.78
546.68	38952.02
546.88	39697.48
547.08	39472.21
547.28	38757.47
547.48	39083.09
547.68	39242.84
547.88	38784.09
548.081	39197.78
548.281	39119.96
548.481	39048.28
548.681	39750.73
548.881	39634
549.081	39208.02
549.28	39212.12
549.48	39492.69
549.68	39296.08
549.88	39889.99
550.08	38925.4
550.28	39466.06
550.48	38997.08
550.68	39586.89
550.88	39005.27
551.08	39244.88
551.279	39437.39
551.479	39275.6
551.679	39132.25
551.879	39035.99
552.079	39435.34
552.278	39083.09
552.478	39152.73
552.678	39019.61
552.878	39138.39
553.077	38806.62
553.277	38593.63
553.477	38943.83
553.676	38906.97
553.876	38720.6
554.076	38589.53
554.275	38960.22
554.475	38411.36
554.674	38890.59
554.874	39103.57
555.074	38843.48
555.273	38769.76
555.473	38992.98
555.672	38724.7
555.872	38700.12
556.071	38184.04
556.271	38902.87
556.47	38605.92
556.67	38149.22
556.869	38452.32
557.068	38747.23
557.268	38253.67
557.467	37944.42
557.667	38190.18
557.866	38120.55
558.065	38075.49
558.265	37540.97
558.464	37688.43
558.663	38177.89
558.863	37379.18
559.062	38012.01
559.261	37682.28
559.461	38067.3
559.66	37391.47
559.859	37401.71
560.058	37540.97
560.258	37459.06
560.457	37489.77
560.656	37688.43
560.855	37039.22
561.054	37264.5
561.253	36967.54
561.453	37170.29
561.652	37184.63
561.851	37338.22
562.05	37082.23
562.249	36750.46
562.448	37270.64
562.647	36908.15
562.846	36539.52
563.045	36871.29
563.244	36471.93
563.443	36838.52
563.642	36260.99
563.841	36406.4
564.04	36420.73
564.239	36514.94
564.438	36027.52
564.637	36271.23
564.836	35812.49
565.035	35558.54
565.234	36160.64
565.432	35808.39
565.631	35648.65
565.83	35722.38
566.029	35466.38
566.228	35368.08
566.427	35212.43
566.625	35167.38
566.824	35112.08
567.023	35265.68
567.222	34712.73
567.42	35183.76
567.619	35341.46
567.818	34749.59
568.016	34921.62
568.215	35146.9
568.414	34215.07
568.612	35077.27
568.811	34419.87
569.01	34475.16
569.208	34122.91
569.407	34260.13
569.605	34041
569.804	34245.79
570.002	33760.42
570.201	33672.36
570.4	33406.12
570.598	33602.73
570.797	33434.8
570.995	33825.96
571.193	33217.71
571.392	33776.81
571.59	33053.87
571.789	33103.03
571.987	32761.01
572.186	32896.18
572.384	32537.79
572.582	32744.63
572.781	33033.39
572.979	32373.95
573.177	32652.47
573.376	32656.57
573.574	32138.43
573.772	32400.57
573.971	32324.8
574.169	32177.34
574.367	32031.94
574.565	32132.29
574.763	31767.75
574.962	31487.18
575.16	31194.32
575.358	31739.08
575.556	31151.31
575.754	31751.37
575.952	31218.89
576.151	31304.91
576.349	31018.19
576.547	30977.23
576.745	31114.45
576.943	31077.58
577.141	30889.17
577.339	31288.53
577.537	30846.16
577.735	31026.39
577.933	30526.68
578.131	30610.65
578.329	30199.01
578.527	30059.74
578.725	30164.19
578.923	30409.95
579.121	29918.43
579.319	30059.74
579.516	29983.97
579.714	29965.54
579.912	29805.8
580.11	29707.49
580.308	29764.84
580.506	29648.1
580.704	28906.74
580.901	29510.89
581.099	29619.43
581.297	29445.35
581.495	29246.7
581.692	29193.45
581.89	28939.51
582.088	28861.68
582.285	28708.08
582.483	28847.35
582.681	28841.2
582.878	28990.7
583.076	27866.37
583.274	28986.61
583.471	28349.69
583.669	28214.52
583.866	27979.01
584.064	28611.83
584.262	27952.38
584.459	28206.33
584.657	27972.86
584.854	28085.5
585.052	27575.56
585.249	27991.3
585.447	27743.49
585.644	27487.5
585.841	27942.14
586.039	27643.14
586.236	27086.09
586.434	27202.83
586.631	27227.4
586.828	27163.92
587.026	26774.8
587.223	26934.54
587.42	26918.16
587.618	27135.24
587.815	26760.47
588.012	26703.12
588.21	26832.15
588.407	26664.21
588.604	26490.13
588.801	25912.61
588.999	26385.69
589.196	26199.32
589.393	26209.56
589.59	26002.72
589.787	25902.37
589.984	25785.63
590.182	25638.18
590.379	25851.17
590.576	25820.45
590.773	25500.97
590.97	25464.1
591.167	25582.88
591.364	25292.07
591.561	25312.55
591.758	25433.38
591.955	25036.08
592.152	25228.59
592.349	25077.04
592.546	25161
592.743	24812.85
592.94	24501.56
593.137	24978.73
593.334	24902.96
593.531	24540.47
593.727	24595.76
593.924	24575.28
594.121	24446.26
594.318	24421.69
594.515	24042.81
594.712	24302.9
594.908	24446.26
595.105	24042.81
595.302	24145.21
595.499	24018.24
595.696	24040.76
595.892	23614.79
596.089	23973.18
596.286	23815.49
596.482	23627.07
596.679	23504.2
596.876	23688.51
597.072	23516.48
597.269	23321.93
597.466	23137.61
597.662	23340.36
597.859	23493.96
598.055	23223.62
598.252	22918.48
598.448	23117.13
598.645	23117.13
598.841	22379.86
599.038	22885.71
599.234	22789.45
599.431	22529.36
599.627	22781.26
599.824	22289.75
600.02	22191.45
600.217	22400.34
600.413	22173.02
600.609	21984.6
600.806	22109.53
601.002	22197.59
601.198	22291.8
601.395	21994.84
601.591	22027.61
601.787	22050.14
601.984	21536.1
602.18	21949.79
602.376	21646.69
602.572	21529.95
602.769	21374.31
602.965	21566.82
603.161	21691.74
603.357	21075.31
603.553	21206.38
603.75	21130.6
603.946	21386.6
604.142	21112.17
604.338	20794.73
604.534	21046.63
604.73	20759.92
604.926	20948.33
605.122	20743.53
605.318	20526.45
605.514	20561.26
605.71	20446.58
605.906	20573.55
606.102	20286.84
606.298	20581.74
606.494	20301.17
606.69	20424.05
606.886	20508.02
607.082	20057.46
607.278	20190.58
607.474	19842.43
607.67	19842.43
607.866	19662.21
608.062	20178.29
608.257	19778.94
608.453	20172.15
608.649	19783.04
608.845	19584.38
609.041	19524.99
609.236	19529.09
609.432	19535.23
609.628	19723.65
609.824	19312
610.019	19383.68
610.215	19619.2
610.411	19408.26
610.606	19264.9
610.802	19383.68
610.998	19074.44
611.193	19275.14
611.389	19105.16
611.584	19176.84
611.78	19066.25
611.976	19146.12
612.171	19051.91
612.367	18980.23
612.562	18865.55
612.758	18748.81
612.953	18767.24
613.149	18826.64
613.344	18568.59
613.539	18951.56
613.735	18857.35
613.93	18654.61
614.126	18675.09
614.321	18773.39
614.517	18666.89
614.712	18699.66
614.907	18455.95
615.103	18636.17
615.298	18357.65
615.493	18474.38
615.688	18376.08
615.884	18527.63
616.079	18279.83
616.274	18431.38
616.47	18189.72
616.665	18396.56
616.86	18017.69
617.055	18253.2
617.25	18304.4
617.445	18234.77
617.641	17733.02
617.836	17757.6
618.031	17925.53
618.226	18115.99
618.421	17673.63
618.616	17816.99
618.811	17434.02
619.006	17663.39
619.201	17450.4
619.396	17548.7
619.591	17311.14
619.786	17593.76
619.981	17221.03
620.176	17411.49
620.371	16868.78
620.566	16897.45
620.761	17001.9
620.956	16960.94
621.151	16745.9
621.346	16709.04
621.541	16668.08
621.735	16967.08
621.93	16522.67
622.125	16442.8
622.32	16330.16
622.515	16145.84
622.709	16197.04
622.904	16039.35
623.099	16012.73
623.294	16238
623.488	15936.95
623.683	15924.66
623.878	15640
624.072	15654.33
624.267	15775.16
624.462	15586.75
624.656	15517.12
624.851	15406.53
625.046	15351.23
625.24	15261.12
625.435	15058.37
625.629	14792.14
625.824	15093.19
626.018	14972.36
626.213	14554.57
626.407	14843.34
626.602	14650.83
626.796	14740.94
626.991	14415.31
627.185	14290.38
627.38	14323.15
627.574	14210.51
627.768	14144.98
627.963	14308.82
628.157	13977.05
628.352	14116.31
628.546	13899.22
628.74	14058.96
628.935	13600.22
629.129	13841.88
629.323	13479.39
629.517	13645.27
629.712	13628.89
629.906	13372.89
630.1	13204.96
630.294	13395.42
630.489	13157.86
630.683	13303.26
630.877	12961.25
631.071	13055.46
631.265	13045.22
631.459	12908.01
631.653	12772.84
631.848	12703.21
632.042	12701.16
632.236	12649.96
632.43	12459.5
632.624	12449.26
632.818	12406.25
633.012	12221.94
633.206	12346.86
633.4	12281.33
633.594	12170.74
633.788	12242.42
633.982	12088.82
634.176	12183.02
634.369	11845.11
634.563	11752.95
634.757	11836.92
634.951	11884.02
635.145	11861.49
635.339	11687.42
635.533	11511.29
635.726	11568.63
635.92	11382.27
636.114	11507.2
636.308	11537.91
636.501	11261.44
636.695	11202.05
636.889	11073.03
637.083	10982.92
637.276	10952.2
637.47	10884.61
637.664	10941.96
637.857	10901
638.051	10921.48
638.244	10819.08
638.438	10581.51
638.632	10860.04
638.825	10481.16
639.019	10501.64
639.212	10233.36
639.406	10321.42
639.599	10456.59
639.793	10466.83
639.986	10145.3
640.18	10253.84
640.373	10300.94
640.567	10087.95
640.76	10167.82
640.954	9936.4
641.147	9899.54
641.34	9860.63
641.534	9897.49
641.727	9836.05
641.92	9727.51
642.114	9522.71
642.307	9647.64
642.5	9635.35
642.694	9424.41
642.887	9455.13
643.08	9586.2
643.273	9367.07
643.467	9348.64
643.66	9276.96
643.853	9217.57
644.046	9020.96
644.239	9152.03
644.432	9176.61
644.626	9121.31
644.819	9098.78
645.012	8920.61
645.205	9020.96
645.398	8898.08
645.591	8861.22
645.784	8771.11
645.977	8672.81
646.17	8685.09
646.363	8621.61
646.556	8402.47
646.749	8584.74
646.942	8443.43
647.135	8570.41
647.328	8543.78
647.521	8502.82
647.714	8283.69
647.907	8287.79
648.099	8234.54
648.292	8222.25
648.485	8164.91
648.678	8220.21
648.871	7974.45
649.064	7984.69
649.256	8078.9
649.449	7913.01
649.642	7925.3
649.835	7908.91
650.027	7882.29
650.22	7726.64
650.413	7730.74
650.605	7601.72
650.798	7693.88
650.991	7593.53
651.183	7804.47
651.376	7593.53
651.568	7534.14
651.761	7464.5
651.954	7343.67
652.146	7597.62
652.339	7519.8
652.531	7435.83
652.724	7210.56
652.916	7093.82
653.109	7255.61
653.301	7231.04
653.494	7218.75
653.686	6882.88
653.879	7300.67
654.071	6919.75
654.263	7188.03
654.456	6936.13
654.648	6960.7
654.84	6872.64
655.033	6723.14
655.225	6870.59
655.417	6635.08
655.61	6780.48
655.802	6747.72
655.994	6741.57
656.186	6690.37
656.379	6567.49
656.571	6567.49
656.763	6719.04
656.955	6499.91
657.148	6422.09
657.34	6471.24
657.532	6327.88
657.724	6237.77
657.916	6311.5
658.108	6317.64
658.3	6215.24
658.492	6368.84
658.684	6149.71
658.876	6260.3
659.068	6053.45
659.26	6010.45
659.452	6055.5
659.644	5983.82
659.836	6096.46
660.028	6006.35
660.22	6028.88
660.412	5944.91
660.604	6002.26
660.796	5994.06
660.988	5815.89
661.18	5893.71
661.372	5809.75
661.563	5725.78
661.755	5494.36
661.947	5764.69
662.139	5762.64
662.331	5611.09
662.522	5543.51
662.714	5586.52
662.906	5654.1
663.097	5545.56
663.289	5568.09
663.481	5574.23
663.673	5506.65
663.864	5269.08
664.056	5326.43
664.247	5385.82
664.439	5205.6
664.631	5346.91
664.822	5437.02
665.014	5283.42
665.205	5176.92
665.397	5195.36
665.588	5256.79
665.78	5254.75
665.971	4965.98
666.163	5115.48
666.354	5170.78
666.546	5099.1
666.737	5066.33
666.929	4890.21
667.12	5123.68
667.311	4941.41
667.503	4908.64
667.694	4931.17
667.885	4884.06
668.077	4818.53
668.268	4937.31
668.459	4882.02
668.651	4920.93
668.842	4826.72
669.033	4726.37
669.224	4834.91
669.416	4777.57
669.607	4728.42
669.798	4771.43
669.989	4660.84
670.18	4746.85
670.371	4671.08
670.563	4619.88
670.754	4709.99
670.945	4564.58
671.136	4638.31
671.327	4499.05
671.518	4615.78
671.709	4636.26
671.9	4492.9
672.091	4417.13
672.282	4552.29
672.473	4363.88
672.664	4542.05
672.855	4255.34
673.046	4456.04
673.237	4466.28
673.428	4544.1
673.619	4142.7
673.809	4312.68
674	4306.54
674.191	4281.96
674.382	4499.05
674.573	4241
674.764	4130.41
674.954	4304.49
675.145	4183.66
675.336	4218.47
675.527	4202.09
675.717	4204.14
675.908	4263.53
676.099	4220.52
676.289	4247.15
676.48	4175.47
676.671	4025.97
676.861	4107.88
677.052	4064.88
677.243	3993.2
677.433	4136.56
677.624	4101.74
677.814	4073.07
678.005	4050.54
678.195	4236.91
678.386	3974.77
678.576	3874.42
678.767	3944.05
678.957	3911.28
679.148	4013.68
679.338	4013.68
679.529	4009.58
679.719	3954.29
679.909	4003.44
680.1	4085.36
680.29	3868.27
680.481	4028.01
680.671	3831.41
680.861	3831.41
681.052	3858.03
681.242	3882.61
681.432	3831.41
681.622	3782.26
681.813	3913.33
682.003	3913.33
682.193	3702.39
682.383	3747.44
682.573	3735.15
682.764	3810.93
682.954	3782.26
683.144	3790.45
683.334	3841.65
683.524	3741.3
683.714	3790.45
683.904	3698.29
684.094	3726.96
684.284	3767.92
684.474	3786.35
684.664	3731.06
684.854	3712.63
685.044	3602.04
685.234	3634.8
685.424	3704.43
685.614	3759.73
685.804	3704.43
685.994	3585.65
686.184	3595.89
686.374	3645.04
686.564	3546.74
686.753	3597.94
686.943	3624.56
687.133	3630.71
687.323	3581.56
687.513	3661.43
687.702	3606.13
687.892	3599.99
688.082	3530.36
688.272	3530.36
688.461	3544.69
688.651	3559.03
688.841	3462.77
689.03	3298.94
689.22	3333.75
689.41	3270.26
689.599	3450.49
689.789	3464.82
689.979	3372.66
690.168	3300.98
690.358	3350.14
690.547	3294.84
690.737	3237.5
690.926	3341.94
691.116	3243.64
691.305	3372.66
691.495	3303.03
691.684	3382.9
691.874	3202.68
692.063	3264.12
692.252	3210.87
692.442	3186.3
692.631	3135.1
692.82	3214.97
693.01	3135.1
693.199	3145.34
693.388	3094.14
693.578	3171.96
693.767	3214.97
693.956	3153.53
694.146	3032.7
694.335	3241.59
694.524	3110.52
694.713	3161.72
694.902	3018.36
695.092	3042.94
695.281	3079.8
695.47	3073.66
695.659	3053.18
695.848	3028.6
696.037	3116.67
696.226	3067.52
696.415	3030.65
696.604	3126.91
696.793	3016.32
696.982	2983.55
697.171	3131
697.36	3032.7
697.549	3024.51
697.738	2999.93
697.927	2856.58
698.116	3065.47
698.305	2922.11
698.494	2946.69
698.683	2954.88
698.872	3004.03
699.061	2934.4
699.25	2860.67
699.438	2817.66
699.627	2954.88
699.816	2977.41
700.005	2926.21
700.193	3116.67
700.382	2956.93
700.571	2926.21
700.76	2961.02
700.948	2920.06
701.137	2944.64
701.326	2977.41
701.514	2991.74
701.703	2885.25
701.892	2823.81
702.08	3042.94
702.269	3049.08
702.457	2991.74
702.646	2897.53
702.834	2920.06
703.023	2838.14
703.212	2889.34
703.4	3004.03
703.589	2924.16
703.777	2905.73
703.965	3010.17
704.154	2893.44
704.342	2881.15
704.531	2860.67
704.719	2905.73
704.907	2901.63
705.096	2920.06
705.284	2983.55
705.472	2852.48
705.661	2815.62
705.849	3030.65
706.037	2981.5
706.226	2780.8
706.414	2940.54
706.602	2905.73
706.79	2829.95
706.979	2829.95
707.167	2832
707.355	2838.14
707.543	2911.87
707.731	2897.53
707.919	2889.34
708.107	2768.51
708.296	2862.72
708.484	2887.29
708.672	2760.32
708.86	2768.51
709.048	2858.62
709.236	2971.26
709.424	2827.9
709.612	2801.28
709.8	2829.95
709.988	2778.75
710.176	2860.67
710.364	2750.08
710.551	2805.38
710.739	2987.65
710.927	2801.28
711.115	2729.6
711.303	2770.56
711.491	2899.58
711.679	2897.53
711.866	2875.01
712.054	2952.83
712.242	2832
712.43	2948.73
712.617	2842.24
712.805	2723.46
712.993	2813.57
713.181	2676.35
713.368	2940.54
713.556	2858.62
713.744	2848.38
713.931	2920.06
714.119	2795.14
714.306	2852.48
714.494	2707.07
714.682	2737.79
714.869	2795.14
715.057	2803.33
715.244	2707.07
715.432	2956.93
715.619	2809.47
715.807	2793.09
715.994	2686.59
716.182	2772.61
716.369	2739.84
716.556	2823.81
716.744	2752.13
716.931	2815.62
717.119	2879.1
717.306	2885.25
717.493	2776.7
717.681	2864.77
717.868	2780.8
718.055	2838.14
718.242	2858.62
718.43	2809.47
718.617	2850.43
718.804	2762.37
718.991	2834.05
719.179	2840.19
719.366	2741.89
719.553	2686.59
719.74	2743.94
719.927	2770.56
720.114	2698.88
720.301	2729.6
720.488	2745.98
720.676	2834.05
720.863	2848.38
721.05	2848.38
721.237	2709.12
721.424	2764.42
721.611	2819.71
721.798	2709.12
721.985	2770.56
722.172	2723.46
722.358	2727.55
722.545	2807.42
722.732	2782.85
722.919	2743.94
723.106	2721.41
723.293	2778.75
723.48	2672.26
723.667	2770.56
723.853	2721.41
724.04	2750.08
724.227	2756.22
724.414	2731.65
724.6	2713.22
724.787	2641.54
724.974	2745.98
725.161	2702.98
725.347	2754.18
725.534	2797.18
725.72	2737.79
725.907	2707.07
726.094	2811.52
726.28	2686.59
726.467	2743.94
726.653	2788.99
726.84	2737.79
727.027	2709.12
727.213	2668.16
727.4	2815.62
727.586	2666.11
727.773	2696.83
727.959	2743.94
728.145	2756.22
728.332	2627.2
728.518	2762.37
728.705	2684.55
728.891	2633.35
729.077	2688.64
729.264	2631.3
729.45	2631.3
729.636	2686.59
729.823	2594.44
730.009	2735.74
730.195	2653.83
730.382	2600.58
730.568	2655.87
730.754	2807.42
730.94	2707.07
731.126	2666.11
731.313	2797.18
731.499	2705.03
731.685	2748.03
731.871	2668.16
732.057	2731.65
732.243	2696.83
732.429	2707.07
732.615	2662.02
732.801	2668.16
732.987	2659.97
733.173	2571.91
733.359	2610.82
733.545	2723.46
733.731	2639.49
733.917	2688.64
734.103	2676.35
734.289	2563.72
734.475	2512.52
734.661	2653.83
734.847	2692.74
735.033	2612.87
735.219	2705.03
735.404	2731.65
735.59	2631.3
735.776	2494.08
735.962	2614.91
736.148	2565.76
736.333	2664.07
736.519	2659.97
736.705	2608.77
736.89	2741.89
737.076	2690.69
737.262	2539.14
737.447	2649.73
737.633	2524.8
737.819	2662.02
738.004	2578.05
738.19	2602.63
738.375	2596.48
738.561	2651.78
738.747	2614.91
738.932	2508.42
739.118	2639.49
739.303	2545.28
739.489	2469.51
739.674	2494.08
739.859	2520.71
740.045	2498.18
740.23	2533
740.416	2514.56
740.601	2444.93
740.786	2469.51
740.972	2455.17
741.157	2533
741.342	2455.17
741.528	2623.11
741.713	2350.73
741.898	2391.69
742.084	2317.96
742.269	2422.41
742.454	2358.92
742.639	2418.31
742.824	2459.27
743.01	2479.75
743.195	2414.21
743.38	2303.62
743.565	2430.6
743.75	2326.15
743.935	2264.71
744.12	2387.59
744.305	2422.41
744.49	2330.25
744.675	2246.28
744.86	2295.43
745.045	2281.1
745.23	2274.95
745.415	2088.59
745.6	2227.85
745.785	2311.82
745.97	2184.84
746.155	2270.86
746.34	2270.86
746.525	2250.38
746.71	2190.99
746.895	2178.7
747.079	2268.81
747.264	2076.3
747.449	2252.42
747.634	2100.87
747.819	2131.59
748.003	2092.68
748.188	2090.63
748.373	2121.35
748.557	2076.3
748.742	2061.96
748.927	2043.53
749.111	1984.14
749.296	2092.68
749.481	2031.24
749.665	2016.91
749.85	1959.56
750.034	1922.7
750.219	1889.93
750.404	1947.28
750.588	1879.69
750.773	1906.32
750.957	1961.61
751.141	1838.73
751.326	1791.63
751.51	1855.12
751.695	1916.56
751.879	1830.54
752.064	1824.4
752.248	1910.41
752.432	1863.31
752.617	1982.09
752.801	1836.69
752.985	1699.47
753.17	1648.27
753.354	1787.54
753.538	1711.76
753.722	1660.56
753.907	1750.67
754.091	1707.66
754.275	1717.9
754.459	1697.42
754.643	1652.37
754.828	1662.61
755.012	1609.36
755.196	1619.6
755.38	1570.45
755.564	1578.64
755.748	1664.66
755.932	1517.2
756.116	1683.09
756.3	1574.55
756.484	1545.88
756.668	1578.64
756.852	1601.17
757.036	1468.05
757.22	1410.71
757.404	1468.05
757.588	1457.81
757.772	1447.57
757.956	1603.22
758.14	1412.76
758.323	1568.4
758.507	1416.85
758.691	1377.94
758.875	1484.44
759.059	1482.39
759.242	1373.85
759.426	1502.87
759.61	1418.9
759.794	1519.25
759.977	1449.62
760.161	1392.28
760.345	1375.89
760.528	1334.93
760.712	1347.22
760.895	1349.27
761.079	1394.33
761.263	1357.46
761.446	1353.37
761.63	1336.98
761.813	1263.26
761.997	1273.5
762.18	1293.97
762.364	1246.87
762.547	1318.55
762.731	1226.39
762.914	1224.34
763.098	1232.54
763.281	1306.26
763.464	1156.76
763.648	1183.38
763.831	1214.1
764.015	1218.2
764.198	1248.92
764.381	1261.21
764.564	1199.77
764.748	1326.74
764.931	1199.77
765.114	1232.54
765.297	1197.72
765.481	1128.09
765.664	1189.53
765.847	1253.02
766.03	1142.43
766.213	1119.9
766.397	1203.86
766.58	1154.71
766.763	1152.67
766.946	1144.47
767.129	1189.53
767.312	1056.41
767.495	1181.34
767.678	1164.95
767.861	1128.09
768.044	1097.37
768.227	1164.95
768.41	1037.98
768.593	1160.86
768.776	1068.7
768.959	1015.45
769.142	1132.19
769.324	1111.71
769.507	1087.13
769.69	1119.9
769.873	1031.83
770.056	1085.08
770.239	1087.13
770.421	1123.99
770.604	1029.79
770.787	1146.52
770.97	1019.55
771.152	1017.5
771.335	1001.12
771.518	992.92
771.7	949.92
771.883	974.49
772.066	1021.6
772.248	1029.79
772.431	1003.16
772.613	1107.61
772.796	964.25
772.978	939.68
773.161	992.92
773.343	962.2
773.526	917.15
773.708	917.15
773.891	927.39
774.073	919.2
774.256	1009.31
774.438	958.11
774.621	990.88
774.803	902.81
774.985	810.65
775.168	900.76
775.35	868
775.532	876.19
775.715	857.76
775.897	890.53
776.079	870.05
776.261	908.96
776.444	788.13
776.626	900.76
776.808	843.42
776.99	824.99
777.173	876.19
777.355	829.09
777.537	790.17
777.719	730.78
777.901	851.61
778.083	691.87
778.265	767.65
778.447	759.46
778.629	708.26
778.811	679.58
778.993	757.41
779.175	751.26
779.357	753.31
779.539	712.35
779.721	671.39
779.903	724.64
780.085	775.84
780.267	720.54
780.449	771.74
780.631	726.69
780.812	661.15
780.994	722.59
781.176	700.06
781.358	784.03
781.54	644.77
781.721	673.44
781.903	685.73
782.085	650.91
782.267	665.25
782.448	775.84
782.63	562.85
782.812	638.62
782.993	663.2
783.175	675.49
783.357	595.62
783.538	650.91
783.72	665.25
783.901	657.06
784.083	657.06
784.264	593.57
784.446	618.15
784.627	538.27
784.809	605.86
784.99	560.8
785.172	542.37
785.353	624.29
785.535	622.24
785.716	558.75
785.897	577.19
786.079	544.42
786.26	528.03
786.441	562.85
786.623	528.03
786.804	485.03
786.985	538.27
787.167	495.27
787.348	548.51
787.529	480.93
787.71	454.31
787.891	515.75
788.073	534.18
788.254	442.02
788.435	521.89
788.616	480.93
788.797	454.31
788.978	458.4
789.159	489.12
789.34	472.74
789.522	497.32
789.703	472.74
789.884	515.75
790.065	452.26
790.246	444.07
790.427	482.98
790.607	495.27
790.788	472.74
790.969	464.55
791.15	439.97
791.331	423.59
791.512	419.49
791.693	493.22
791.874	439.97
792.054	448.16
792.235	386.72
792.416	493.22
792.597	323.24
792.778	374.44
792.958	450.21
793.139	411.3
793.32	366.25
793.5	253.61
793.681	478.88
793.862	405.16
794.042	452.26
794.223	399.01
794.404	362.15
794.584	425.64
794.765	464.55
794.945	415.4
795.126	343.72
795.306	362.15
795.487	392.87
795.667	399.01
795.848	310.95
796.028	360.1
796.209	378.53
796.389	433.83
796.57	339.62
796.75	376.48
796.93	384.68
797.111	288.42
797.291	374.44
797.471	386.72
797.652	298.66
797.832	319.14
798.012	315.05
798.192	392.87
798.373	294.57
798.553	257.7
798.733	413.35
798.913	325.29
799.093	292.52
799.274	376.48
799.454	448.16
799.634	356.01
799.814	349.86
799.994	300.71
800.174	392.87
800.354	409.25
800.534	370.34
800.714	370.34
800.894	300.71
801.074	237.22
801.254	356.01
801.434	343.72
801.614	317.09
801.794	353.96
801.974	749.22
802.154	294.57
802.334	353.96
802.514	243.37
802.693	288.42
802.873	325.29
803.053	278.18
803.233	296.61
803.413	243.37
803.592	188.07
803.772	196.26
803.952	341.67
804.131	204.46
804.311	339.62
804.491	292.52
804.67	196.26
804.85	237.22
805.03	286.37
805.209	315.05
805.389	237.22
805.568	315.05
805.748	284.33
805.928	325.29
806.107	214.7
806.287	226.98
806.466	274.09
806.646	235.18
806.825	239.27
807.004	317.09
807.184	253.61
807.363	300.71
807.543	263.85
807.722	329.38
807.901	212.65
808.081	251.56
808.26	226.98
808.439	280.23
808.619	194.22
808.798	310.95
808.977	241.32
809.156	243.37
809.336	218.79
809.515	249.51
809.694	157.35
809.873	186.02
810.052	196.26
810.231	323.24
810.411	272.04
810.59	265.89
810.769	235.18
810.948	190.12
811.127	177.83
811.306	194.22
811.485	198.31
811.664	282.28
811.843	259.75
812.022	216.74
812.201	173.74
812.38	222.89
812.559	210.6
812.737	216.74
812.916	231.08
813.095	167.59
813.274	186.02
813.453	245.41
813.632	218.79
813.811	231.08
813.989	132.78
814.168	231.08
814.347	183.98
814.526	192.17
814.704	208.55
814.883	249.51
815.062	177.83
815.24	253.61
815.419	202.41
815.598	235.18
815.776	194.22
815.955	257.7
816.133	116.39
816.312	179.88
816.49	241.32
816.669	259.75
816.847	206.5
817.026	183.98
817.204	204.46
817.383	151.21
817.561	173.74
817.74	134.82
817.918	175.78
818.097	214.7
818.275	218.79
818.453	136.87
818.632	169.64
818.81	218.79
818.988	218.79
819.167	165.54
819.345	159.4
819.523	171.69
819.701	175.78
819.879	153.26
820.058	214.7
820.236	91.82
820.414	155.3
820.592	149.16
820.77	245.41
820.948	161.45
821.127	126.63
821.305	206.5
821.483	183.98
821.661	226.98
821.839	173.74
822.017	124.58
822.195	163.5
822.373	159.4
822.551	190.12
822.729	157.35
822.907	186.02
823.085	153.26
823.262	200.36
823.44	163.5
823.618	169.64
823.796	122.54
823.974	138.92
824.152	52.91
824.329	239.27
824.507	112.3
824.685	198.31
824.863	163.5
825.04	97.96
825.218	218.79
825.396	122.54
825.574	120.49
825.751	163.5
825.929	145.06
826.107	46.76
826.284	163.5
826.462	151.21
826.639	126.63
826.817	126.63
826.994	122.54
827.172	102.06
827.349	165.54
827.527	100.01
827.704	104.11
827.882	67.24
828.059	169.64
828.237	112.3
828.414	179.88
828.591	124.58
828.769	104.11
828.946	36.52
829.124	95.91
829.301	102.06
829.478	116.39
829.655	79.53
829.833	202.41
830.01	159.4
830.187	128.68
830.364	122.54
830.542	159.4
830.719	89.77
830.896	181.93
831.073	124.58
831.25	93.87
831.427	167.59
831.604	69.29
831.782	9.9
831.959	89.77
832.136	161.45
832.313	57
832.49	91.82
832.667	177.83
832.844	147.11
833.021	134.82
833.198	102.06
833.374	116.39
833.551	91.82
833.728	134.82
833.905	108.2
834.082	165.54
834.259	116.39
834.436	112.3
834.612	136.87
834.789	112.3
834.966	136.87
835.143	93.87
835.319	100.01
835.496	177.83
835.673	136.87
835.85	61.1
836.026	120.49
836.203	181.93
836.38	73.39
836.556	54.95
836.733	161.45
836.909	183.98
837.086	161.45
837.262	102.06
837.439	50.86
837.616	93.87
837.792	108.2
837.968	218.79
838.145	93.87
838.321	100.01
838.498	100.01
838.674	95.91
838.851	149.16
839.027	108.2
839.203	118.44
839.38	118.44
839.556	136.87
839.732	91.82
839.909	63.15
840.085	155.3
840.261	116.39
840.437	106.15
840.614	59.05
840.79	192.17
840.966	153.26
841.142	44.71
841.318	108.2
841.494	118.44
841.671	128.68
841.847	108.2
842.023	89.77
842.199	100.01
842.375	75.43
842.551	83.63
842.727	95.91
842.903	95.91
843.079	112.3
843.255	104.11
843.431	71.34
843.607	22.19
843.783	24.23
843.959	122.54
844.134	18.09
844.31	91.82
844.486	77.48
844.662	71.34
844.838	93.87
845.013	196.26
845.189	63.15
845.365	46.76
845.541	50.86
845.716	143.02
845.892	93.87
846.068	124.58
846.244	79.53
846.419	91.82
846.595	120.49
846.77	38.57
846.946	132.78
847.122	120.49
847.297	54.95
847.473	226.98
847.648	73.39
847.824	79.53
847.999	71.34
848.175	-14.68
848.35	83.63
848.526	122.54
848.701	59.05
848.876	97.96
849.052	54.95
849.227	95.91
849.403	93.87
849.578	79.53
849.753	87.72
849.929	81.58
850.104	79.53
850.279	102.06
850.454	34.47
850.63	48.81
850.805	61.1
850.98	175.78
851.155	32.43
851.33	71.34
851.505	24.23
851.681	42.67
851.856	91.82
852.031	69.29
852.206	110.25
852.381	-14.68
852.556	104.11
852.731	85.67
852.906	50.86
853.081	108.2
853.256	143.02
853.431	97.96
853.606	-10.58
853.781	100.01
853.956	34.47
854.131	116.39
854.305	24.23
854.48	71.34
854.655	44.71
854.83	67.24
855.005	30.38
855.18	44.71
855.354	42.67
855.529	59.05
855.704	50.86
855.879	71.34
856.053	38.57
856.228	93.87
856.403	3.75
856.577	106.15
856.752	114.34
856.926	104.11
857.101	42.67
857.276	16.04
857.45	106.15
857.625	83.63
857.799	69.29
857.974	22.19
858.148	38.57
858.323	38.57
858.497	5.8
858.672	40.62
858.846	67.24
859.02	36.52
859.195	-0.34
859.369	18.09
859.543	61.1
859.718	44.71
859.892	93.87
860.066	50.86
860.241	26.28
860.415	145.06
860.589	-10.58
860.763	65.19
860.938	81.58
861.112	128.68
861.286	75.43
861.46	52.91
861.634	63.15
861.808	40.62
861.982	18.09
862.157	59.05
862.331	63.15
862.505	71.34
862.679	16.04
862.853	85.67
863.027	32.43
863.201	112.3
863.375	77.48
863.549	44.71
863.722	5.8
863.896	91.82
864.07	18.09
864.244	91.82
864.418	38.57
864.592	89.77
864.766	77.48
864.939	42.67
865.113	32.43
865.287	71.34
865.461	22.19
865.634	97.96
865.808	32.43
865.982	46.76
866.156	9.9
866.329	24.23
866.503	102.06
866.676	52.91
866.85	13.99
867.024	108.2
867.197	79.53
867.371	108.2
867.544	46.76
867.718	32.43
867.891	13.99
868.065	18.09
868.238	79.53
868.412	73.39
868.585	61.1
868.759	122.54
868.932	-26.96
869.105	-8.53
869.279	65.19
869.452	95.91
869.625	42.67
869.799	120.49
869.972	9.9
870.145	63.15
870.319	44.71
870.492	42.67
870.665	36.52
870.838	13.99
871.011	65.19
871.185	-18.77
871.358	32.43
871.531	42.67
871.704	28.33
871.877	87.72
872.05	102.06
872.223	79.53
872.396	9.9
872.569	57
872.742	3.75
872.915	57
873.088	-24.92
873.261	-6.49
873.434	42.67
873.607	11.95
873.78	126.63
873.953	44.71
874.126	16.04
874.299	-35.16
874.471	5.8
874.644	36.52
874.817	44.71
874.99	16.04
875.163	-2.39
875.335	77.48
875.508	50.86
875.681	34.47
875.853	65.19
876.026	-8.53
876.199	16.04
876.371	69.29
876.544	57
876.717	18.09
876.889	46.76
877.062	85.67
877.234	-22.87
877.407	-0.34
877.579	38.57
877.752	52.91
877.924	-51.54
878.097	38.57
878.269	9.9
878.442	50.86
878.614	11.95
878.786	50.86
878.959	-14.68
879.131	28.33
879.303	1.71
879.476	5.8
879.648	73.39
879.82	40.62
879.993	61.1
880.165	3.75
880.337	46.76
880.509	50.86
880.681	30.38
880.854	5.8
881.026	52.91
881.198	157.35
881.37	-2.39
881.542	67.24
881.714	57
881.886	71.34
882.058	36.52
882.23	26.28
882.402	5.8
882.574	28.33
882.746	54.95
882.918	114.34
883.09	65.19
883.262	42.67
883.434	-33.11
883.606	38.57
883.778	-31.06
883.95	85.67
884.122	-63.83
884.293	48.81
884.465	16.04
884.637	63.15
884.809	44.71
884.98	26.28
885.152	24.23
885.324	46.76
885.496	38.57
885.667	50.86
885.839	52.91
886.011	61.1
886.182	11.95
886.354	85.67
886.525	13.99
886.697	65.19
886.869	-20.82
887.04	77.48
887.212	24.23
887.383	16.04
887.555	24.23
887.726	79.53
887.897	67.24
888.069	-24.92
888.24	91.82
888.412	20.14
888.583	75.43
888.754	1.71
888.926	-0.34
889.097	52.91
889.268	13.99
889.44	5.8
889.611	57
889.782	50.86
889.953	38.57
890.125	36.52
890.296	65.19
890.467	59.05
890.638	13.99
890.809	-31.06
890.98	-4.44
891.151	-4.44
891.323	22.19
891.494	67.24
891.665	9.9
891.836	32.43
892.007	-14.68
892.178	50.86
892.349	11.95
892.52	26.28
892.691	-4.44
892.862	61.1
893.032	-2.39
893.203	13.99
893.374	1.71
893.545	50.86
893.716	89.77
893.887	61.1
894.057	77.48
894.228	116.39
894.399	-12.63
894.57	85.67
894.74	52.91
894.911	54.95
895.082	79.53
895.253	59.05
895.423	46.76
895.594	44.71
895.764	46.76
895.935	30.38
896.106	5.8
896.276	20.14
896.447	87.72
896.617	18.09
896.788	-4.44
896.958	57
897.129	-0.34
897.299	30.38
897.47	13.99
897.64	87.72
897.81	42.67
897.981	-22.87
898.151	-35.16
898.322	38.57
898.492	34.47
898.662	-14.68
898.832	85.67
899.003	-14.68
899.173	75.43
899.343	-82.26
899.513	130.73
