Data from USB4F104151__231__11-11-00-813.txt Node

Date: Wed Mar 12 11:11:00 EDT 2025
User: louis
Spectrometer: USB4F10415
Trigger mode: 4
Integration Time (sec): 2.000000E-2
Scans to average: 1
Electric dark correction enabled: true
Nonlinearity correction enabled: false
Boxcar width: 0
XAxis mode: Wavelengths
Number of Pixels in Spectrum: 3648
>>>>>Begin Spectral Data<<<<<
178.204	-11.43
178.424	-11.43
178.644	-11.43
178.864	-29.87
179.084	-93.35
179.304	-33.96
179.524	4.95
179.744	17.24
179.964	11.09
180.184	25.43
180.404	-21.67
180.624	31.57
180.844	0.85
181.064	-9.39
181.283	27.48
181.503	-1.19
181.723	-52.39
181.943	70.48
182.163	97.11
182.383	-1.19
182.602	131.92
182.822	80.72
183.042	13.14
183.262	21.33
183.482	29.52
183.701	4.95
183.921	-29.87
184.141	-1.19
184.361	72.53
184.58	-9.39
184.8	58.2
185.02	21.33
185.239	60.24
185.459	-9.39
185.679	103.25
185.898	74.58
186.118	29.52
186.338	-15.53
186.557	2.9
186.777	4.95
186.997	-25.77
187.216	7
187.436	52.05
187.655	25.43
187.875	-3.24
188.095	2.9
188.314	56.15
188.534	33.62
188.753	17.24
188.973	84.82
189.192	58.2
189.412	43.86
189.631	9.05
189.851	56.15
190.07	7
190.29	-21.67
190.509	21.33
190.729	-23.72
190.948	97.11
191.168	107.35
191.387	56.15
191.607	-21.67
191.826	-19.63
192.045	66.39
192.265	-25.77
192.484	90.96
192.704	11.09
192.923	4.95
193.142	138.07
193.362	2.9
193.581	43.86
193.8	47.96
194.02	47.96
194.239	17.24
194.458	41.81
194.678	-19.63
194.897	21.33
195.116	47.96
195.335	23.38
195.555	2.9
195.774	11.09
195.993	127.83
196.212	-15.53
196.432	19.29
196.651	82.77
196.87	-25.77
197.089	105.3
197.308	50
197.528	15.19
197.747	-42.15
197.966	2.9
198.185	35.67
198.404	19.29
198.623	-1.19
198.842	111.44
199.062	68.44
199.281	66.39
199.5	31.57
199.719	15.19
199.938	66.39
200.157	82.77
200.376	39.76
200.595	7
200.814	-29.87
201.033	50
201.252	86.87
201.471	41.81
201.69	-7.34
201.909	66.39
202.128	45.91
202.347	41.81
202.566	52.05
202.785	52.05
203.004	15.19
203.223	72.53
203.442	50
203.661	9.05
203.879	17.24
204.098	82.77
204.317	-85.16
204.536	64.34
204.755	-40.11
204.974	-1.19
205.193	138.07
205.411	125.78
205.63	45.91
205.849	29.52
206.068	-11.43
206.287	66.39
206.505	27.48
206.724	60.24
206.943	52.05
207.162	-11.43
207.381	35.67
207.599	9.05
207.818	25.43
208.037	37.72
208.255	-9.39
208.474	64.34
208.693	68.44
208.911	66.39
209.13	50
209.349	76.63
209.567	17.24
209.786	45.91
210.005	80.72
210.223	21.33
210.442	-23.72
210.661	41.81
210.879	72.53
211.098	23.38
211.316	21.33
211.535	58.2
211.753	17.24
211.972	31.57
212.191	-3.24
212.409	-44.2
212.628	17.24
212.846	0.85
213.065	15.19
213.283	52.05
213.502	23.38
213.72	-17.58
213.938	58.2
214.157	56.15
214.375	13.14
214.594	43.86
214.812	41.81
215.031	-1.19
215.249	-50.35
215.467	101.2
215.686	27.48
215.904	78.68
216.122	31.57
216.341	37.72
216.559	25.43
216.778	-19.63
216.996	43.86
217.214	56.15
217.432	41.81
217.651	-17.58
217.869	7
218.087	15.19
218.306	-3.24
218.524	27.48
218.742	58.2
218.96	-15.53
219.179	23.38
219.397	62.29
219.615	19.29
219.833	-25.77
220.051	62.29
220.27	54.1
220.488	54.1
220.706	66.39
220.924	60.24
221.142	76.63
221.36	52.05
221.578	47.96
221.796	7
222.015	72.53
222.233	41.81
222.451	99.16
222.669	19.29
222.887	-25.77
223.105	29.52
223.323	70.48
223.541	-60.59
223.759	68.44
223.977	11.09
224.195	41.81
224.413	54.1
224.631	62.29
224.849	47.96
225.067	62.29
225.285	45.91
225.503	21.33
225.721	45.91
225.939	-3.24
226.157	117.59
226.375	72.53
226.592	-11.43
226.81	54.1
227.028	31.57
227.246	76.63
227.464	47.96
227.682	-5.29
227.9	60.24
228.117	52.05
228.335	131.92
228.553	7
228.771	29.52
228.989	29.52
229.206	35.67
229.424	56.15
229.642	41.81
229.86	2.9
230.077	60.24
230.295	-38.06
230.513	39.76
230.731	50
230.948	41.81
231.166	68.44
231.384	-9.39
231.601	23.38
231.819	97.11
232.037	56.15
232.254	64.34
232.472	62.29
232.689	11.09
232.907	82.77
233.125	70.48
233.342	78.68
233.56	-21.67
233.777	21.33
233.995	35.67
234.213	74.58
234.43	109.4
234.648	27.48
234.865	35.67
235.083	56.15
235.3	-36.01
235.518	45.91
235.735	115.54
235.953	4.95
236.17	25.43
236.388	37.72
236.605	95.06
236.822	84.82
237.04	31.57
237.257	-9.39
237.475	23.38
237.692	84.82
237.909	-27.82
238.127	7
238.344	35.67
238.562	11.09
238.779	-5.29
238.996	-54.44
239.214	-27.82
239.431	103.25
239.648	62.29
239.865	60.24
240.083	31.57
240.3	21.33
240.517	-13.48
240.735	-11.43
240.952	13.14
241.169	58.2
241.386	-17.58
241.603	11.09
241.821	31.57
242.038	88.92
242.255	66.39
242.472	-13.48
242.689	50
242.907	47.96
243.124	60.24
243.341	23.38
243.558	31.57
243.775	52.05
243.992	47.96
244.209	21.33
244.426	43.86
244.643	68.44
244.86	17.24
245.078	74.58
245.295	47.96
245.512	68.44
245.729	19.29
245.946	27.48
246.163	17.24
246.38	-42.15
246.597	58.2
246.814	17.24
247.031	7
247.248	54.1
247.464	50
247.681	86.87
247.898	27.48
248.115	13.14
248.332	31.57
248.549	54.1
248.766	82.77
248.983	19.29
249.2	19.29
249.417	54.1
249.633	-72.87
249.85	-9.39
250.067	33.62
250.284	-17.58
250.501	86.87
250.717	43.86
250.934	97.11
251.151	76.63
251.368	25.43
251.585	-15.53
251.801	105.3
252.018	35.67
252.235	-19.63
252.451	68.44
252.668	31.57
252.885	0.85
253.102	4.95
253.318	23.38
253.535	90.96
253.752	45.91
253.968	2.9
254.185	37.72
254.401	21.33
254.618	50
254.835	35.67
255.051	43.86
255.268	90.96
255.484	37.72
255.701	0.85
255.917	45.91
256.134	-9.39
256.351	15.19
256.567	52.05
256.784	45.91
257	-27.82
257.217	60.24
257.433	43.86
257.65	88.92
257.866	76.63
258.082	27.48
258.299	4.95
258.515	-1.19
258.732	19.29
258.948	37.72
259.165	7
259.381	-15.53
259.597	103.25
259.814	56.15
260.03	43.86
260.246	78.68
260.463	88.92
260.679	45.91
260.895	52.05
261.112	66.39
261.328	76.63
261.544	68.44
261.761	74.58
261.977	23.38
262.193	41.81
262.409	21.33
262.626	7
262.842	54.1
263.058	56.15
263.274	52.05
263.49	88.92
263.707	43.86
263.923	56.15
264.139	27.48
264.355	74.58
264.571	41.81
264.787	2.9
265.004	105.3
265.22	31.57
265.436	-40.11
265.652	-58.54
265.868	70.48
266.084	47.96
266.3	50
266.516	52.05
266.732	25.43
266.948	72.53
267.164	50
267.38	21.33
267.596	72.53
267.812	115.54
268.028	21.33
268.244	4.95
268.46	54.1
268.676	47.96
268.892	19.29
269.108	84.82
269.324	-33.96
269.54	37.72
269.756	7
269.972	25.43
270.188	60.24
270.403	31.57
270.619	-7.34
270.835	47.96
271.051	19.29
271.267	-1.19
271.483	25.43
271.698	21.33
271.914	31.57
272.13	-40.11
272.346	-9.39
272.562	0.85
272.777	84.82
272.993	31.57
273.209	-13.48
273.425	109.4
273.64	66.39
273.856	35.67
274.072	13.14
274.287	31.57
274.503	133.97
274.719	45.91
274.934	86.87
275.15	50
275.366	13.14
275.581	7
275.797	80.72
276.012	-60.59
276.228	52.05
276.444	-33.96
276.659	80.72
276.875	-1.19
277.09	152.4
277.306	37.72
277.521	54.1
277.737	37.72
277.952	-17.58
278.168	27.48
278.383	27.48
278.599	179.03
278.814	19.29
279.03	27.48
279.245	72.53
279.461	0.85
279.676	-15.53
279.892	39.76
280.107	76.63
280.322	31.57
280.538	-5.29
280.753	21.33
280.969	54.1
281.184	47.96
281.399	133.97
281.615	-5.29
281.83	-21.67
282.045	-11.43
282.26	72.53
282.476	-21.67
282.691	119.64
282.906	33.62
283.122	39.76
283.337	23.38
283.552	-9.39
283.767	0.85
283.983	-5.29
284.198	4.95
284.413	62.29
284.628	41.81
284.843	52.05
285.058	50
285.274	52.05
285.489	66.39
285.704	52.05
285.919	88.92
286.134	45.91
286.349	15.19
286.564	37.72
286.779	88.92
286.995	7
287.21	27.48
287.425	-9.39
287.64	58.2
287.855	70.48
288.07	35.67
288.285	64.34
288.5	70.48
288.715	82.77
288.93	43.86
289.145	82.77
289.36	-15.53
289.575	47.96
289.79	7
290.004	-64.68
290.219	23.38
290.434	101.2
290.649	23.38
290.864	-9.39
291.079	58.2
291.294	41.81
291.509	45.91
291.724	35.67
291.938	29.52
292.153	25.43
292.368	7
292.583	17.24
292.798	62.29
293.012	35.67
293.227	78.68
293.442	23.38
293.657	50
293.871	-42.15
294.086	93.01
294.301	115.54
294.516	2.9
294.73	62.29
294.945	-13.48
295.16	2.9
295.374	113.49
295.589	41.81
295.804	39.76
296.018	45.91
296.233	86.87
296.447	60.24
296.662	47.96
296.877	101.2
297.091	35.67
297.306	58.2
297.52	21.33
297.735	56.15
297.949	72.53
298.164	47.96
298.378	58.2
298.593	15.19
298.807	54.1
299.022	62.29
299.236	86.87
299.451	47.96
299.665	-21.67
299.88	-1.19
300.094	64.34
300.309	99.16
300.523	99.16
300.737	0.85
300.952	50
301.166	50
301.381	109.4
301.595	15.19
301.809	52.05
302.024	68.44
302.238	68.44
302.452	68.44
302.667	47.96
302.881	35.67
303.095	52.05
303.309	17.24
303.524	17.24
303.738	47.96
303.952	29.52
304.166	25.43
304.381	11.09
304.595	60.24
304.809	33.62
305.023	93.01
305.237	4.95
305.452	105.3
305.666	88.92
305.88	19.29
306.094	54.1
306.308	33.62
306.522	0.85
306.736	62.29
306.95	54.1
307.164	17.24
307.379	-5.29
307.593	29.52
307.807	35.67
308.021	70.48
308.235	45.91
308.449	45.91
308.663	37.72
308.877	74.58
309.091	80.72
309.305	64.34
309.519	2.9
309.733	146.26
309.947	2.9
310.161	47.96
310.374	37.72
310.588	45.91
310.802	60.24
311.016	25.43
311.23	27.48
311.444	62.29
311.658	39.76
311.872	68.44
312.085	105.3
312.299	78.68
312.513	19.29
312.727	107.35
312.941	-21.67
313.154	95.06
313.368	58.2
313.582	-15.53
313.796	31.57
314.009	66.39
314.223	113.49
314.437	93.01
314.651	35.67
314.864	29.52
315.078	66.39
315.292	0.85
315.505	54.1
315.719	-11.43
315.933	19.29
316.146	7
316.36	78.68
316.573	41.81
316.787	-17.58
317.001	62.29
317.214	21.33
317.428	115.54
317.641	-23.72
317.855	27.48
318.068	43.86
318.282	109.4
318.495	80.72
318.709	95.06
318.922	66.39
319.136	62.29
319.349	74.58
319.563	39.76
319.776	66.39
319.99	45.91
320.203	17.24
320.417	23.38
320.63	84.82
320.843	111.44
321.057	43.86
321.27	54.1
321.483	29.52
321.697	-25.77
321.91	47.96
322.124	29.52
322.337	158.55
322.55	29.52
322.763	86.87
322.977	27.48
323.19	23.38
323.403	43.86
323.617	88.92
323.83	52.05
324.043	52.05
324.256	47.96
324.469	66.39
324.683	37.72
324.896	19.29
325.109	95.06
325.322	11.09
325.535	72.53
325.748	72.53
325.962	-9.39
326.175	86.87
326.388	29.52
326.601	27.48
326.814	-9.39
327.027	27.48
327.24	127.83
327.453	0.85
327.666	2.9
327.879	35.67
328.092	27.48
328.305	60.24
328.518	-5.29
328.731	-13.48
328.944	105.3
329.157	56.15
329.37	33.62
329.583	47.96
329.796	74.58
330.009	35.67
330.222	58.2
330.435	109.4
330.648	50
330.861	9.05
331.073	2.9
331.286	84.82
331.499	9.05
331.712	117.59
331.925	99.16
332.138	9.05
332.35	45.91
332.563	-23.72
332.776	39.76
332.989	35.67
333.202	15.19
333.414	41.81
333.627	23.38
333.84	19.29
334.053	41.81
334.265	31.57
334.478	11.09
334.691	17.24
334.903	11.09
335.116	-15.53
335.329	52.05
335.541	113.49
335.754	74.58
335.966	13.14
336.179	90.96
336.392	70.48
336.604	39.76
336.817	33.62
337.029	54.1
337.242	-3.24
337.454	64.34
337.667	11.09
337.88	82.77
338.092	41.81
338.305	27.48
338.517	115.54
338.729	45.91
338.942	119.64
339.154	60.24
339.367	25.43
339.579	43.86
339.792	-13.48
340.004	76.63
340.217	-3.24
340.429	101.2
340.641	33.62
340.854	101.2
341.066	47.96
341.278	-5.29
341.491	47.96
341.703	58.2
341.915	-15.53
342.128	23.38
342.34	50
342.552	35.67
342.764	52.05
342.977	11.09
343.189	82.77
343.401	-9.39
343.613	-1.19
343.826	25.43
344.038	29.52
344.25	29.52
344.462	62.29
344.674	45.91
344.886	47.96
345.099	11.09
345.311	47.96
345.523	58.2
345.735	0.85
345.947	88.92
346.159	11.09
346.371	62.29
346.583	33.62
346.795	50
347.007	74.58
347.219	84.82
347.431	82.77
347.643	23.38
347.855	72.53
348.067	174.93
348.279	45.91
348.491	43.86
348.703	82.77
348.915	-29.87
349.127	21.33
349.339	39.76
349.551	19.29
349.763	39.76
349.975	60.24
350.187	113.49
350.399	45.91
350.61	29.52
350.822	0.85
351.034	7
351.246	56.15
351.458	105.3
351.669	-19.63
351.881	72.53
352.093	29.52
352.305	80.72
352.517	47.96
352.728	29.52
352.94	74.58
353.152	66.39
353.363	27.48
353.575	31.57
353.787	84.82
353.999	27.48
354.21	99.16
354.422	4.95
354.633	105.3
354.845	-27.82
355.057	7
355.268	19.29
355.48	90.96
355.692	101.2
355.903	7
356.115	-23.72
356.326	4.95
356.538	-1.19
356.749	88.92
356.961	99.16
357.172	-13.48
357.384	21.33
357.595	90.96
357.807	29.52
358.018	-48.3
358.23	9.05
358.441	80.72
358.653	60.24
358.864	39.76
359.075	43.86
359.287	82.77
359.498	97.11
359.709	60.24
359.921	70.48
360.132	-7.34
360.344	56.15
360.555	84.82
360.766	58.2
360.977	11.09
361.189	109.4
361.4	41.81
361.611	66.39
361.823	109.4
362.034	11.09
362.245	74.58
362.456	17.24
362.667	52.05
362.879	4.95
363.09	99.16
363.301	78.68
363.512	-48.3
363.723	82.77
363.935	35.67
364.146	52.05
364.357	80.72
364.568	95.06
364.779	-36.01
364.99	76.63
365.201	-66.73
365.412	21.33
365.623	54.1
365.834	17.24
366.045	93.01
366.256	58.2
366.467	4.95
366.678	-3.24
366.889	97.11
367.1	115.54
367.311	39.76
367.522	-13.48
367.733	78.68
367.944	70.48
368.155	13.14
368.366	52.05
368.577	58.2
368.788	136.02
368.999	39.76
369.209	95.06
369.42	115.54
369.631	72.53
369.842	142.16
370.053	66.39
370.264	60.24
370.474	93.01
370.685	0.85
370.896	35.67
371.107	29.52
371.317	66.39
371.528	35.67
371.739	86.87
371.95	-11.43
372.16	84.82
372.371	113.49
372.582	-11.43
372.792	23.38
373.003	64.34
373.214	60.24
373.424	84.82
373.635	39.76
373.846	15.19
374.056	11.09
374.267	101.2
374.477	119.64
374.688	23.38
374.898	82.77
375.109	33.62
375.319	47.96
375.53	74.58
375.74	62.29
375.951	97.11
376.161	88.92
376.372	64.34
376.582	39.76
376.793	80.72
377.003	90.96
377.214	131.92
377.424	-13.48
377.635	76.63
377.845	47.96
378.055	60.24
378.266	15.19
378.476	84.82
378.686	101.2
378.897	54.1
379.107	95.06
379.317	60.24
379.528	119.64
379.738	11.09
379.948	31.57
380.158	7
380.369	45.91
380.579	93.01
380.789	66.39
380.999	41.81
381.21	88.92
381.42	103.25
381.63	62.29
381.84	101.2
382.05	-19.63
382.261	60.24
382.471	56.15
382.681	-3.24
382.891	41.81
383.101	88.92
383.311	-21.67
383.521	21.33
383.731	11.09
383.941	68.44
384.151	33.62
384.361	78.68
384.571	117.59
384.781	93.01
384.991	93.01
385.201	27.48
385.411	66.39
385.621	146.26
385.831	52.05
386.041	74.58
386.251	13.14
386.461	97.11
386.671	72.53
386.881	74.58
387.091	56.15
387.301	13.14
387.511	39.76
387.72	125.78
387.93	56.15
388.14	72.53
388.35	-13.48
388.56	117.59
388.769	74.58
388.979	52.05
389.189	181.07
389.399	105.3
389.609	23.38
389.818	58.2
390.028	56.15
390.238	105.3
390.447	-42.15
390.657	31.57
390.867	84.82
391.076	43.86
391.286	74.58
391.496	119.64
391.705	90.96
391.915	21.33
392.125	125.78
392.334	97.11
392.544	70.48
392.753	88.92
392.963	74.58
393.172	86.87
393.382	31.57
393.591	111.44
393.801	72.53
394.01	95.06
394.22	78.68
394.429	99.16
394.639	64.34
394.848	144.21
395.058	82.77
395.267	45.91
395.477	133.97
395.686	37.72
395.895	162.64
396.105	60.24
396.314	127.83
396.524	45.91
396.733	15.19
396.942	58.2
397.152	93.01
397.361	133.97
397.57	54.1
397.78	105.3
397.989	113.49
398.198	203.6
398.407	136.02
398.617	107.35
398.826	181.07
399.035	152.4
399.244	103.25
399.453	33.62
399.663	144.21
399.872	144.21
400.081	41.81
400.29	125.78
400.499	142.16
400.708	191.31
400.917	133.97
401.127	74.58
401.336	93.01
401.545	154.45
401.754	105.3
401.963	119.64
402.172	103.25
402.381	41.81
402.59	76.63
402.799	121.68
403.008	150.36
403.217	80.72
403.426	90.96
403.635	138.07
403.844	107.35
404.053	181.07
404.262	127.83
404.471	121.68
404.68	199.51
404.888	187.22
405.097	111.44
405.306	144.21
405.515	140.12
405.724	199.51
405.933	111.44
406.142	115.54
406.35	207.7
406.559	176.98
406.768	197.46
406.977	215.89
407.185	211.79
407.394	228.18
407.603	215.89
407.812	197.46
408.02	123.73
408.229	191.31
408.438	226.13
408.646	222.03
408.855	213.84
409.064	252.75
409.272	226.13
409.481	336.72
409.69	314.19
409.898	236.37
410.107	277.33
410.315	252.75
410.524	332.62
410.733	340.82
410.941	299.86
411.15	336.72
411.358	373.58
411.567	422.73
411.775	369.49
411.984	299.86
412.192	389.97
412.401	416.59
412.609	465.74
412.818	449.36
413.026	445.26
413.234	453.45
413.443	484.17
413.651	484.17
413.86	539.47
414.068	547.66
414.276	543.57
414.485	566.09
414.693	631.63
414.901	674.64
415.11	693.07
415.318	682.83
415.526	697.16
415.734	648.01
415.943	746.31
416.151	756.55
416.359	748.36
416.567	766.79
416.776	867.14
416.984	957.25
417.192	865.1
417.4	873.29
417.608	873.29
417.817	977.73
418.025	934.73
418.233	1084.23
418.441	1039.17
418.649	1123.14
418.857	1207.11
419.065	1215.3
419.273	1194.82
419.481	1227.59
419.689	1311.55
419.897	1356.61
420.105	1395.52
420.313	1465.15
420.521	1403.71
420.729	1497.92
420.937	1481.53
421.145	1616.7
421.353	1688.38
421.561	1868.6
421.769	1856.31
421.977	1889.08
422.185	1919.8
422.393	2020.15
422.601	2091.83
422.809	2167.6
423.017	2104.12
423.224	2251.57
423.432	2233.14
423.64	2210.61
423.848	2599.73
424.056	2495.28
424.263	2698.03
424.471	2585.39
424.679	2708.27
424.887	2874.15
425.094	3066.66
425.302	2923.3
425.51	2990.89
425.718	3179.3
425.925	3146.53
426.133	3220.26
426.341	3490.59
426.548	3523.36
426.756	3535.65
426.964	3724.06
427.171	3867.42
427.379	3904.28
427.586	4012.82
427.794	4053.78
428.001	4442.9
428.209	4418.32
428.417	4502.29
428.624	4668.17
428.832	4746
429.039	4758.28
429.247	4813.58
429.454	5098.25
429.662	5530.37
429.869	5137.16
430.076	5546.75
430.284	5407.49
430.491	5647.1
430.699	6109.94
430.906	5829.37
431.114	5856
431.321	6404.85
431.528	6370.04
431.736	6765.29
431.943	7142.12
432.15	7054.06
432.358	6888.17
432.565	7475.94
432.772	7301.86
432.979	7619.3
433.187	7830.24
433.394	7817.95
433.601	8495.83
433.808	8594.13
434.016	8229.59
434.223	8749.78
434.43	9237.19
434.637	8923.85
434.844	9323.21
435.052	9626.31
435.259	9716.42
435.466	9845.44
435.673	9593.54
435.88	10379.96
436.087	11078.32
436.294	10887.86
436.501	10605.24
436.708	10586.8
436.915	11340.46
437.122	11676.32
437.329	11586.21
437.537	11868.83
437.743	12200.6
437.95	12186.27
438.157	12671.64
438.364	13058.7
438.571	12984.98
438.778	13312.65
438.985	14600.82
439.192	14021.25
439.399	14180.99
439.606	14129.79
439.813	14830.2
440.02	15594.09
440.227	15258.22
440.433	15313.52
440.64	15790.69
440.847	15481.45
441.054	16091.74
441.261	16855.64
441.467	16704.09
441.674	17476.17
441.881	17975.88
442.088	17726.02
442.294	17603.14
442.501	18180.67
442.708	18348.61
442.914	19204.66
443.121	19900.97
443.328	19431.98
443.534	20718.11
443.741	20189.73
443.948	19946.02
444.154	21420.56
444.361	21293.58
444.568	21537.29
444.774	21336.59
444.981	22014.47
445.187	22258.18
445.394	23126.52
445.6	23017.97
445.807	25045.46
446.013	23935.46
446.22	24508.9
446.426	25395.67
446.633	25313.75
446.839	26311.11
447.046	25563.6
447.252	26698.17
447.459	26802.62
447.665	26362.31
447.871	27851.18
448.078	28844.45
448.284	27460.02
448.491	28436.9
448.697	29432.21
448.903	30183.82
449.11	29532.56
449.316	29243.8
449.522	29694.35
449.728	30724.48
449.935	30523.78
450.141	30833.02
450.347	31646.07
450.553	30378.37
450.76	30990.72
450.966	32053.61
451.172	31486.32
451.378	32307.56
451.584	31822.19
451.791	32276.84
451.997	32162.15
452.203	32964.96
452.409	32901.47
452.615	32612.71
452.821	31357.3
453.027	30720.38
453.233	32588.13
453.44	31125.88
453.646	31789.42
453.852	31836.53
454.058	31893.87
454.264	30966.14
454.47	31838.58
454.676	31086.97
454.882	32311.66
455.088	29102.49
455.294	29626.77
455.5	30128.52
455.705	30044.55
455.911	29333.91
456.117	28692.9
456.323	28406.18
456.529	26583.49
456.735	27996.59
456.941	27455.92
457.147	26524.1
457.352	25913.8
457.558	25336.27
457.764	25489.87
457.97	24924.63
458.176	24336.87
458.381	24586.72
458.587	22985.21
458.793	23265.78
458.999	22245.89
459.204	23712.24
459.41	22766.07
459.616	21520.91
459.821	21545.48
460.027	21420.56
460.233	20828.7
460.438	20165.15
460.644	20222.5
460.85	19421.74
461.055	18752.06
461.261	18954.8
461.466	17496.65
461.672	17037.91
461.878	18301.5
462.083	16736.85
462.289	16800.34
462.494	16446.04
462.7	15778.4
462.905	15413.87
463.111	15952.48
463.316	15997.54
463.522	15573.61
463.727	15610.47
463.932	15579.75
464.138	15307.37
464.343	15563.37
464.549	15151.73
464.754	15401.58
464.959	15514.22
465.165	15340.14
465.37	14772.85
465.575	14467.7
465.781	14854.77
465.986	14850.67
466.191	14338.68
466.397	13963.9
466.602	13595.27
466.807	13943.42
467.012	14078.59
467.218	14070.4
467.423	13783.68
467.628	13957.76
467.833	14584.44
468.038	14000.77
468.244	13501.06
468.449	14082.69
468.654	13562.5
468.859	13560.45
469.064	13441.67
469.269	12950.16
469.474	13007.5
469.679	13122.19
469.885	12769.94
470.09	12987.02
470.295	12919.44
470.5	12597.91
470.705	12552.85
470.91	12346.01
471.115	11999.9
471.32	12659.35
471.525	12309.15
471.73	11971.23
471.935	11985.57
472.139	11508.39
472.344	11745.95
472.549	11776.67
472.754	11502.25
472.959	11410.09
473.164	11111.08
473.369	10867.38
473.574	11299.5
473.778	11059.88
473.983	11041.45
474.188	11004.59
474.393	10615.48
474.598	10601.14
474.802	10451.64
475.007	10502.84
475.212	10302.14
475.417	9949.89
475.621	9962.17
475.826	10078.91
476.031	10130.11
476.235	9509.57
476.44	9857.73
476.645	9646.79
476.849	9607.87
477.054	9749.18
477.259	9468.61
477.463	9185.99
477.668	9245.38
477.872	9169.61
478.077	9079.5
478.282	8704.72
478.486	8981.2
478.691	8882.89
478.895	8725.2
479.1	8717.01
479.304	8475.35
479.509	8420.05
479.713	8516.31
479.918	8366.81
480.122	8348.37
480.326	8551.12
480.531	8354.52
480.735	7971.55
480.94	8241.88
481.144	8579.79
481.348	7957.21
481.553	8387.29
481.757	8119
481.961	8217.3
482.166	8258.26
482.37	8129.24
482.574	7842.53
482.778	7865.05
482.983	8100.57
483.187	8090.33
483.391	8252.12
483.595	8016.6
483.8	7940.83
484.004	7953.12
484.208	8135.39
484.412	8096.47
484.616	8051.42
484.821	8129.24
485.025	7817.95
485.229	8020.7
485.433	7969.5
485.637	8153.82
485.841	7903.96
486.045	7895.77
486.249	8086.23
486.453	7881.44
486.657	8035.03
486.861	8032.99
487.065	7813.85
487.269	8018.65
487.473	8053.47
487.677	7893.72
487.881	8137.43
488.085	7883.49
488.289	8100.57
488.493	8037.08
488.697	8096.47
488.901	8110.81
489.105	8155.86
489.309	8159.96
489.512	8084.19
489.716	8190.68
489.92	7957.21
490.124	8241.88
490.328	8254.17
490.531	8129.24
490.735	8282.84
490.939	8315.61
491.143	8174.3
491.346	8291.03
491.55	8282.84
491.754	8331.99
491.958	8446.68
492.161	8258.26
492.365	8362.71
492.569	8471.25
492.772	8506.07
492.976	8561.36
493.18	8624.85
493.383	8930
493.587	8792.78
493.79	8676.05
493.994	8778.45
494.197	8717.01
494.401	8995.53
494.605	8872.65
494.808	8991.44
495.012	9149.13
495.215	8995.53
495.419	9216.71
495.622	9235.14
495.825	9202.38
496.029	9333.45
496.232	9624.26
496.436	9657.03
496.639	9802.43
496.843	9554.63
497.046	9910.97
497.249	9974.46
497.453	9982.65
497.656	10195.64
497.859	10195.64
498.063	10154.68
498.266	10205.88
498.469	10429.11
498.673	10459.83
498.876	10650.29
499.079	10570.42
499.282	10631.86
499.485	10879.66
499.689	11274.92
499.892	11115.18
500.095	11195.05
500.298	11455.14
500.501	11346.6
500.705	11784.87
500.908	11866.78
501.111	11815.59
501.314	11969.18
501.517	12180.12
501.72	12188.32
501.923	12104.35
502.126	12685.97
502.329	12624.53
502.532	12743.31
502.735	12786.32
502.938	13118.09
503.141	13173.39
503.344	13419.14
503.547	13415.05
503.75	13748.87
503.953	14047.87
504.156	13988.48
504.359	13861.51
504.562	14101.12
504.765	14613.11
504.968	14801.52
505.17	14504.57
505.373	14854.77
505.576	15096.43
505.779	15086.19
505.982	15094.38
506.185	15596.14
506.387	15506.02
506.59	15633
506.793	16134.75
506.996	15905.38
507.198	16628.31
507.401	16265.82
507.604	16527.96
507.807	16953.94
508.009	16974.42
508.212	17033.81
508.415	17480.27
508.617	17330.76
508.82	17508.94
509.022	17396.3
509.225	18029.12
509.428	18106.95
509.63	18174.53
509.833	18231.87
510.035	18694.71
510.238	18549.31
510.44	18967.09
510.643	19165.74
510.845	19094.07
511.048	19178.03
511.25	19563.05
511.453	19812.9
511.655	20374.05
511.858	19808.81
512.06	20447.77
512.262	20509.21
512.465	20580.89
512.667	20759.06
512.87	21428.75
513.072	21314.06
513.274	21537.29
513.477	21959.17
513.679	22192.64
513.881	22520.32
514.084	22288.9
514.286	22405.63
514.488	22536.7
514.69	23636.46
514.893	23083.51
515.095	23276.02
515.297	23894.5
515.499	23376.37
515.701	23871.98
515.904	23972.33
516.106	24263.14
516.308	24639.97
516.51	24926.68
516.712	24826.33
516.914	24961.5
517.116	25606.61
517.318	25631.18
517.52	25579.98
517.722	25965
517.925	26005.96
518.127	26745.28
518.329	26726.85
518.531	26501.57
518.733	27187.64
518.935	27386.29
519.136	27521.46
519.338	27503.03
519.54	28076.46
519.742	27992.49
519.944	28320.17
520.146	28815.77
520.348	28791.2
520.55	29049.24
520.752	29143.45
520.954	30099.85
521.155	29401.49
521.357	30036.36
521.559	30185.86
521.761	30484.87
521.963	30460.29
522.164	30849.41
522.366	31009.15
522.568	31005.05
522.77	31441.27
522.971	32000.37
523.173	31590.77
523.375	31768.94
523.576	31746.42
523.778	31910.25
523.98	32100.72
524.181	32928.09
524.383	32440.68
524.584	33053.02
524.786	33245.53
524.988	32956.77
525.189	33593.68
525.391	33345.88
525.592	33904.98
525.794	33542.49
525.995	33923.41
526.197	33929.55
526.398	34242.89
526.6	34316.62
526.801	34566.47
527.003	34724.16
527.204	34644.29
527.406	35012.93
527.607	34797.89
527.808	35522.87
528.01	34867.52
528.211	35160.38
528.412	35899.7
528.614	35508.54
528.815	35477.82
529.016	36110.64
529.218	35961.14
529.419	35832.11
529.62	35825.97
529.822	35957.04
530.023	35989.81
530.224	35739.96
530.425	35920.18
530.626	35799.35
530.828	35828.02
531.029	36725.03
531.23	36221.23
531.431	36307.24
531.632	36581.67
531.833	36331.82
532.035	36520.23
532.236	36553
532.437	36905.25
532.638	36346.15
532.839	36833.57
533.04	37015.84
533.241	36366.63
533.442	37083.42
533.643	37181.73
533.844	37073.18
534.045	37024.03
534.246	36548.9
534.447	37282.08
534.648	36659.49
534.849	36942.11
535.05	36471.08
535.251	37112.1
535.451	36948.26
535.652	37271.84
535.853	37009.7
536.054	37122.33
536.255	37146.91
536.456	36395.31
536.657	37591.32
536.857	36772.13
537.058	37079.33
537.259	37237.02
537.46	37138.72
537.66	36929.83
537.861	37355.8
538.062	36981.03
538.263	37216.54
538.463	37077.28
538.664	36884.77
538.865	37245.21
539.065	37378.33
539.266	36927.78
539.466	37339.42
539.667	36960.55
539.868	37325.08
540.068	36655.4
540.269	36946.21
540.469	37327.13
540.67	36802.85
540.87	36872.48
541.071	37017.89
541.271	37058.85
541.472	37089.57
541.672	36536.62
541.873	36698.41
542.073	36641.06
542.274	37105.95
542.474	36614.44
542.675	36399.4
542.875	37349.66
543.075	36741.41
543.276	36423.98
543.476	37212.45
543.676	36450.6
543.877	36995.36
544.077	36763.94
544.277	36491.56
544.478	36780.32
544.678	36630.82
544.878	36458.79
545.078	36911.39
545.279	36667.69
545.479	36946.21
545.679	36978.98
545.879	36577.58
546.079	36509.99
546.28	36452.65
546.48	36393.26
546.68	36665.64
546.88	36753.7
547.08	36876.58
547.28	36452.65
547.48	36417.83
547.68	36645.16
547.88	36348.2
548.081	36755.75
548.281	36712.74
548.481	36372.78
548.681	36352.3
548.881	36528.42
549.081	36536.62
549.28	36542.76
549.48	36602.15
549.68	36442.41
549.88	36720.93
550.08	36364.59
550.28	36397.35
550.48	36094.25
550.68	36800.8
550.88	36071.73
551.08	36368.68
551.279	36509.99
551.479	35825.97
551.679	36155.69
551.879	35950.9
552.079	36331.82
552.278	36077.87
552.478	36155.69
552.678	36284.72
552.878	36405.55
553.077	36016.43
553.277	35756.34
553.477	36643.11
553.676	36178.22
553.876	36045.1
554.076	35682.61
554.275	35975.47
554.475	35660.09
554.674	36163.89
554.874	35789.11
555.074	35623.22
555.273	35660.09
555.473	35828.02
555.672	35348.79
555.872	35625.27
556.071	35731.76
556.271	35875.12
556.47	35836.21
556.67	35287.35
556.869	35604.79
557.068	35709.24
557.268	35162.43
557.467	35139.9
557.667	35576.12
557.866	35057.98
558.065	35434.81
558.265	35002.69
558.464	34791.75
558.663	35699
558.863	34623.81
559.062	35451.19
559.261	34822.47
559.461	35205.44
559.66	34382.15
559.859	34756.93
560.058	34529.61
560.258	34396.49
560.457	34236.75
560.656	34758.98
560.855	34672.96
561.054	34928.96
561.253	34224.46
561.453	34556.23
561.652	34214.22
561.851	34406.73
562.05	34396.49
562.249	34023.76
562.448	34015.57
562.647	33841.49
562.846	33954.13
563.045	34144.59
563.244	33526.1
563.443	33956.18
563.642	33493.33
563.841	33720.66
564.04	33528.15
564.239	33782.1
564.438	33245.53
564.637	33343.83
564.836	33515.86
565.035	33147.23
565.234	33079.64
565.432	32997.73
565.631	32856.42
565.83	33151.32
566.029	32584.04
566.228	32878.94
566.427	32780.64
566.625	32532.84
566.824	32407.91
567.023	32502.12
567.222	31854.96
567.42	32541.03
567.619	32264.55
567.818	32102.76
568.016	31594.87
568.215	32364.9
568.414	31910.25
568.612	32235.88
568.811	32018.8
569.01	31326.58
569.208	31277.43
569.407	31584.63
569.605	31162.75
569.804	31631.73
570.002	31109.5
570.201	31418.74
570.4	30943.61
570.598	30767.49
570.797	30531.97
570.995	30824.83
571.193	30316.93
571.392	30939.52
571.59	30448
571.789	30867.84
571.987	30597.51
572.186	30247.3
572.384	30226.82
572.582	30263.69
572.781	30247.3
572.979	29743.5
573.177	29866.38
573.376	29948.3
573.574	29815.18
573.772	29929.87
573.971	29534.61
574.169	29563.28
574.367	29524.37
574.565	29526.42
574.763	29344.15
574.962	29387.16
575.16	29239.7
575.358	29094.3
575.556	28770.72
575.754	29002.14
575.952	28649.89
576.151	29131.16
576.349	28228.01
576.547	28598.69
576.745	28645.79
576.943	28367.27
577.141	28008.87
577.339	28559.78
577.537	28316.07
577.735	28176.81
577.933	27931.05
578.131	28187.05
578.329	28047.79
578.527	27877.8
578.725	27695.53
578.923	27910.57
579.121	27527.6
579.319	27806.13
579.516	27933.1
579.714	27257.27
579.912	27472.31
580.11	27079.1
580.308	26995.13
580.506	27316.66
580.704	26999.23
580.901	26950.07
581.099	27242.93
581.297	26743.23
581.495	26745.28
581.692	26931.64
581.89	26286.53
582.088	26544.58
582.285	26456.51
582.483	26773.95
582.681	26622.4
582.878	26157.51
583.076	25903.56
583.274	26237.38
583.471	25782.73
583.669	26057.16
583.866	25647.57
584.064	25946.57
584.262	25838.03
584.459	25731.53
584.657	25520.59
584.854	25940.43
585.052	25223.64
585.249	25575.89
585.447	25405.91
585.644	25496.02
585.841	25186.77
586.039	25278.93
586.236	25090.52
586.434	25162.2
586.631	24603.1
586.828	24777.18
587.026	24994.26
587.223	24793.56
587.42	24586.72
587.618	24631.77
587.815	24263.14
588.012	24326.63
588.21	24031.72
588.407	24388.07
588.604	24340.96
588.801	24103.4
588.999	24138.21
589.196	23996.9
589.393	24127.97
589.59	23626.22
589.787	23796.2
589.984	23669.23
590.182	23480.82
590.379	23679.47
590.576	23427.57
590.773	23544.3
590.97	23052.79
591.167	23241.2
591.364	22925.82
591.561	23300.59
591.758	23110.13
591.955	22985.21
592.152	23165.43
592.349	22702.59
592.546	22929.91
592.743	23097.84
592.94	22538.75
593.137	22770.17
593.334	22729.21
593.531	22065.67
593.727	22471.17
593.924	22274.56
594.121	22182.4
594.318	22508.03
594.515	21963.27
594.712	22235.65
594.908	21928.45
595.105	22125.06
595.302	21572.11
595.499	21770.76
595.696	22080
595.892	21602.83
596.089	21989.89
596.286	21981.7
596.482	21594.64
596.679	21547.53
596.876	21621.26
597.072	21373.46
597.269	21424.65
597.466	21049.88
597.662	21248.53
597.859	21107.22
598.055	21213.71
598.252	20836.89
598.448	21033.49
598.645	21008.92
598.841	20707.87
599.038	20589.08
599.234	20556.32
599.431	20582.94
599.627	20537.88
599.824	20849.18
600.02	20333.09
600.217	20515.36
600.413	20460.06
600.609	20148.77
600.806	20204.07
601.002	20191.78
601.198	20029.99
601.395	20142.63
601.591	20238.88
601.787	20066.85
601.984	19755.56
602.18	20017.7
602.376	19440.17
602.572	19587.63
602.769	19673.64
602.965	19534.38
603.161	19421.74
603.357	19341.87
603.553	19225.14
603.75	19380.78
603.946	19003.96
604.142	19161.65
604.338	18723.38
604.534	19001.91
604.73	18848.31
604.926	18575.93
605.122	18866.74
605.318	18838.07
605.514	18719.29
605.71	18735.67
605.906	18547.26
606.102	18410.04
606.298	18713.14
606.494	18180.67
606.69	18455.1
606.886	18336.32
607.082	17994.31
607.278	18414.14
607.474	18158.14
607.67	18297.41
607.866	17877.57
608.062	18408
608.257	18170.43
608.453	17990.21
608.649	17893.96
608.845	18041.41
609.041	18049.6
609.236	17918.53
609.432	17797.7
609.628	17834.57
609.824	17414.73
610.019	17537.61
610.215	17584.71
610.411	17494.6
610.606	17381.96
610.802	17390.16
610.998	17216.08
611.193	17379.92
611.389	17298
611.584	17199.69
611.78	17078.86
611.976	17252.94
612.171	17341
612.367	17291.85
612.562	17101.39
612.758	16767.57
612.953	17119.82
613.149	17125.97
613.344	17097.3
613.539	17209.93
613.735	16953.94
613.93	16882.26
614.126	16624.22
614.321	16822.87
614.517	16912.98
614.712	16558.68
614.907	16648.79
615.103	16763.48
615.298	16636.5
615.493	16654.94
615.688	16216.67
615.884	16699.99
616.079	16433.75
616.274	16400.99
616.47	16224.86
616.665	16331.36
616.86	16022.11
617.055	16228.96
617.25	16300.64
617.445	16521.82
617.641	15942.24
617.836	16235.1
618.031	15948.39
618.226	16132.7
618.421	15768.16
618.616	16032.35
618.811	15686.25
619.006	16048.74
619.201	15594.09
619.396	15784.55
619.591	15473.26
619.786	15768.16
619.981	15274.6
620.176	15454.83
620.371	15342.19
620.566	15166.06
620.761	15137.39
620.956	15104.62
621.151	14895.73
621.346	15362.67
621.541	14879.35
621.735	15002.22
621.93	14590.58
622.125	14887.54
622.32	14563.96
622.515	14656.12
622.709	14596.73
622.904	14541.43
623.099	14314.11
623.294	14361.21
623.488	14201.47
623.683	14197.37
623.878	13972.1
624.072	14047.87
624.267	14195.32
624.462	14131.84
624.656	13740.68
624.851	13857.41
625.046	13640.33
625.24	13611.65
625.435	13601.41
625.629	13585.03
625.824	13402.76
626.018	13417.1
626.213	12841.62
626.407	13265.55
626.602	13128.33
626.796	12991.12
626.991	12898.96
627.185	13025.93
627.38	12786.32
627.574	12733.08
627.768	12690.07
627.963	12655.25
628.157	12550.81
628.352	12724.88
628.546	12393.11
628.74	12356.25
628.935	12327.58
629.129	12368.54
629.323	12130.97
629.517	12083.87
629.712	12010.14
629.906	11981.47
630.1	11680.42
630.294	11786.91
630.489	11768.48
630.683	11856.54
630.877	11524.77
631.071	11657.89
631.265	11516.58
631.459	11369.13
631.653	11293.35
631.848	11283.11
632.042	11477.67
632.236	11279.02
632.43	11092.65
632.624	11246.25
632.818	11082.41
633.012	10902.19
633.206	10941.1
633.4	10971.82
633.594	10568.37
633.788	10807.98
633.982	10683.06
634.176	10726.07
634.369	10615.48
634.563	10635.96
634.757	10564.28
634.951	10324.66
635.145	10437.3
635.339	10592.95
635.533	10105.53
635.726	10152.63
635.92	10011.32
636.114	10175.16
636.308	10017.47
636.501	9978.56
636.695	10009.28
636.889	9898.69
637.083	9886.4
637.276	9824.96
637.47	9624.26
637.664	9640.64
637.857	9595.59
638.051	9788.1
638.244	9630.4
638.438	9605.83
638.632	9478.85
638.825	9333.45
639.019	9306.82
639.212	9286.34
639.406	9237.19
639.599	9149.13
639.793	9153.23
639.986	8932.05
640.18	9013.96
640.373	9024.2
640.567	8880.85
640.76	8794.83
640.954	8813.26
641.147	8694.48
641.34	8772.3
641.534	8659.67
641.727	8739.54
641.92	8510.16
642.114	8522.45
642.307	8721.1
642.5	8372.95
642.694	8379.09
642.887	8514.26
643.08	8493.78
643.273	8393.43
643.467	8262.36
643.66	8346.33
643.853	8067.8
644.046	7936.73
644.239	8411.86
644.432	7955.16
644.626	8088.28
644.819	7850.72
645.012	7953.12
645.205	7895.77
645.398	7766.75
645.591	7699.17
645.784	7738.08
645.977	7639.78
646.17	7772.89
646.363	7553.76
646.556	7465.7
646.749	7510.75
646.942	7664.35
647.135	7332.58
647.328	7432.93
647.521	7475.94
647.714	7275.24
647.907	7209.7
648.099	7332.58
648.292	7252.71
648.485	7367.4
648.678	7258.85
648.871	7178.98
649.064	6922.99
649.256	7224.04
649.449	6839.02
649.642	6976.23
649.835	6963.95
650.027	6857.45
650.22	6722.29
650.413	6697.71
650.605	6796.01
650.798	6660.85
650.991	6642.42
651.183	6712.05
651.376	6626.03
651.568	6691.57
651.761	6497.01
651.954	6544.11
652.146	6347.51
652.339	6525.68
652.531	6425.33
652.724	6431.48
652.916	6257.4
653.109	6210.29
653.301	6339.32
653.494	6429.43
653.686	6152.95
653.879	6308.6
654.071	6136.57
654.263	6116.09
654.456	6122.23
654.648	6007.55
654.84	5899
655.033	5921.53
655.225	5970.68
655.417	5825.28
655.61	5858.04
655.802	5870.33
655.994	5778.17
656.186	5819.13
656.379	5753.6
656.571	5899
656.763	5632.77
656.955	5735.17
657.148	5763.84
657.34	5552.9
657.532	5573.38
657.724	5468.93
657.916	5638.91
658.108	5530.37
658.3	5516.03
658.492	5483.27
658.684	5446.4
658.876	5559.04
659.068	5362.44
659.26	5350.15
659.452	5106.44
659.644	5331.72
659.836	5192.45
660.028	5255.94
660.22	5176.07
660.412	5155.59
660.604	5102.34
660.796	5106.44
660.988	5004.04
661.18	5049.1
661.372	5008.14
661.563	4967.18
661.755	4936.46
661.947	5010.18
662.139	4938.51
662.331	4805.39
662.522	4786.96
662.714	4832.01
662.906	4926.22
663.097	4709.13
663.289	4762.38
663.481	4645.65
663.673	4707.09
663.864	4729.61
664.056	4684.56
664.247	4686.61
664.439	4633.36
664.631	4758.28
664.822	4696.85
665.014	4610.83
665.205	4563.73
665.397	4565.78
665.588	4549.39
665.78	4547.34
665.971	4469.52
666.163	4494.1
666.354	4354.83
666.546	4422.42
666.737	4395.79
666.929	4408.08
667.12	4236.05
667.311	4254.48
667.503	4139.8
667.694	4223.76
667.885	4205.33
668.077	4254.48
668.268	4279.06
668.459	4338.45
668.651	4129.56
668.842	4086.55
669.033	4229.91
669.224	4139.8
669.416	4274.96
669.607	4188.95
669.798	4107.03
669.989	4229.91
670.18	4023.06
670.371	3992.34
670.563	3984.15
670.754	4010.78
670.945	3832.6
671.136	3904.28
671.327	4037.4
671.518	3869.47
671.709	3873.56
671.9	3939.1
672.091	3824.41
672.282	3826.46
672.473	3912.47
672.664	3824.41
672.855	4027.16
673.046	3820.32
673.237	3838.75
673.428	3709.72
673.619	3668.77
673.809	3685.15
674	3853.08
674.191	3703.58
674.382	3599.13
674.573	3783.45
674.764	3668.77
674.954	3646.24
675.145	3595.04
675.336	3586.85
675.527	3521.31
675.717	3601.18
675.908	3728.16
676.099	3617.57
676.289	3566.37
676.48	3443.49
676.671	3523.36
676.861	3584.8
677.052	3408.67
677.243	3480.35
677.433	3463.97
677.624	3427.11
677.814	3570.46
678.005	3396.39
678.195	3496.74
678.386	3416.87
678.576	3418.91
678.767	3279.65
678.957	3425.06
679.148	3388.19
679.338	3334.95
679.529	3351.33
679.719	3351.33
679.909	3357.47
680.1	3212.07
680.29	3334.95
680.481	3248.93
680.671	3271.46
680.861	3244.84
681.052	3246.88
681.242	3242.79
681.432	3423.01
681.622	3255.08
681.813	3306.27
682.003	3224.36
682.193	3246.88
682.383	3183.4
682.573	3105.57
682.764	3230.5
682.954	3263.27
683.144	3255.08
683.334	3150.63
683.524	3226.4
683.714	3212.07
683.904	3140.39
684.094	3230.5
684.284	3052.33
684.474	3207.97
684.664	3142.44
684.854	3156.77
685.044	3097.38
685.234	2968.36
685.424	3095.33
685.614	3107.62
685.804	3076.9
685.994	3009.32
686.184	3126.05
686.374	3046.18
686.564	3054.37
686.753	3066.66
686.943	2933.54
687.133	3025.7
687.323	2972.46
687.513	2894.63
687.702	2915.11
687.892	2968.36
688.082	2874.15
688.272	2962.22
688.461	2788.14
688.651	2857.77
688.841	2884.39
689.03	2796.33
689.22	2841.39
689.41	3019.56
689.599	2845.48
689.789	2796.33
689.979	2845.48
690.168	2810.67
690.358	2757.42
690.547	2849.58
690.737	2732.84
690.926	2747.18
691.116	2759.47
691.305	2800.43
691.495	2681.64
691.684	2622.25
691.874	2583.34
692.063	2644.78
692.252	2724.65
692.442	2650.92
692.631	2585.39
692.82	2677.55
693.01	2573.1
693.199	2603.82
693.388	2628.4
693.578	2542.38
693.767	2677.55
693.956	2513.71
694.146	2521.9
694.335	2503.47
694.524	2511.66
694.713	2554.67
694.902	2521.9
695.092	2499.38
695.281	2450.22
695.47	2579.25
695.659	2497.33
695.848	2468.66
696.037	2427.7
696.226	2460.46
696.415	2478.9
696.604	2544.43
696.793	2489.14
696.982	2517.81
697.171	2482.99
697.36	2519.85
697.549	2386.74
697.738	2310.96
697.927	2401.07
698.116	2489.14
698.305	2489.14
698.494	2458.42
698.683	2435.89
698.872	2394.93
699.061	2392.88
699.25	2413.36
699.438	2458.42
699.627	2509.62
699.816	2362.16
700.005	2345.78
700.193	2437.94
700.382	2366.26
700.571	2356.02
700.76	2452.27
700.948	2452.27
701.137	2466.61
701.326	2364.21
701.514	2435.89
701.703	2413.36
701.892	2276.15
702.08	2327.35
702.269	2415.41
702.457	2384.69
702.646	2423.6
702.834	2315.06
703.023	2349.87
703.212	2331.44
703.4	2421.55
703.589	2413.36
703.777	2411.31
703.965	2296.63
704.154	2310.96
704.342	2349.87
704.531	2296.63
704.719	2300.72
704.907	2235.19
705.096	2388.78
705.284	2390.83
705.472	2331.44
705.661	2382.64
705.849	2374.45
706.037	2345.78
706.226	2333.49
706.414	2329.39
706.602	2296.63
706.79	2313.01
706.979	2274.1
707.167	2202.42
707.355	2329.39
707.543	2356.02
707.731	2274.1
707.919	2409.26
708.107	2302.77
708.296	2411.31
708.484	2288.43
708.672	2331.44
708.86	2339.63
709.048	2313.01
709.236	2487.09
709.424	2253.62
709.612	2427.7
709.8	2247.48
709.988	2284.34
710.176	2331.44
710.364	2333.49
710.551	2347.83
710.739	2257.71
710.927	2229.04
711.115	2282.29
711.303	2231.09
711.491	2175.8
711.679	2321.2
711.866	2300.72
712.054	2263.86
712.242	2265.91
712.43	2310.96
712.617	2249.52
712.805	2276.15
712.993	2294.58
713.181	2382.64
713.368	2247.48
713.556	2265.91
713.744	2321.2
713.931	2382.64
714.119	2214.71
714.306	2235.19
714.494	2235.19
714.682	2255.67
714.869	2249.52
715.057	2302.77
715.244	2288.43
715.432	2253.62
715.619	2296.63
715.807	2218.8
715.994	2227
716.182	2421.55
716.369	2222.9
716.556	2368.31
716.744	2251.57
716.931	2210.61
717.119	2270
717.306	2294.58
717.493	2267.95
717.681	2329.39
717.868	2245.43
718.055	2286.39
718.242	2341.68
718.43	2343.73
718.617	2343.73
718.804	2278.19
718.991	2204.47
719.179	2237.24
719.366	2210.61
719.553	2272.05
719.74	2313.01
719.927	2374.45
720.114	2155.32
720.301	2280.24
720.488	2245.43
720.676	2220.85
720.863	2251.57
721.05	2341.68
721.237	2276.15
721.424	2171.7
721.611	2229.04
721.798	2237.24
721.985	2370.35
722.172	2194.23
722.358	2202.42
722.545	2229.04
722.732	2272.05
722.919	2274.1
723.106	2274.1
723.293	2216.76
723.48	2370.35
723.667	2276.15
723.853	2237.24
724.04	2237.24
724.227	2278.19
724.414	2315.06
724.6	2263.86
724.787	2218.8
724.974	2165.56
725.161	2319.15
725.347	2097.97
725.534	2161.46
725.72	2190.13
725.907	2239.28
726.094	2208.56
726.28	2210.61
726.467	2206.52
726.653	2235.19
726.84	2276.15
727.027	2227
727.213	2206.52
727.4	2284.34
727.586	2206.52
727.773	2165.56
727.959	2128.69
728.145	2347.83
728.332	2274.1
728.518	2257.71
728.705	2171.7
728.891	2292.53
729.077	2321.2
729.264	2229.04
729.45	2186.04
729.636	2249.52
729.823	2130.74
730.009	2220.85
730.195	2163.51
730.382	2321.2
730.568	2173.75
730.754	2208.56
730.94	2243.38
731.126	2233.14
731.313	2104.12
731.499	2304.82
731.685	2200.37
731.871	2071.35
732.057	2106.17
732.243	2267.95
732.429	2186.04
732.615	2212.66
732.801	2112.31
732.987	2163.51
733.173	2165.56
733.359	2208.56
733.545	2165.56
733.731	2173.75
733.917	2227
734.103	2163.51
734.289	2253.62
734.475	2171.7
734.661	2198.32
734.847	2288.43
735.033	2183.99
735.219	2216.76
735.404	2161.46
735.59	2151.22
735.776	2169.65
735.962	2186.04
736.148	2227
736.333	2177.84
736.519	2153.27
736.705	2159.41
736.89	2200.37
737.076	2290.48
737.262	2069.3
737.447	2128.69
737.633	2161.46
737.819	2081.59
738.004	2136.88
738.19	2038.58
738.375	2093.88
738.561	2143.03
738.747	2087.73
738.932	2048.82
739.118	2059.06
739.303	2190.13
739.489	2134.84
739.674	2136.88
739.859	2077.49
740.045	2161.46
740.23	2040.63
740.416	1997.62
740.601	2102.07
740.786	2001.72
740.972	2089.78
741.157	2069.3
741.342	2014.01
741.528	2136.88
741.713	2003.77
741.898	2059.06
742.084	1971
742.269	1950.52
742.454	1964.86
742.639	2005.81
742.824	1942.33
743.01	2026.29
743.195	2026.29
743.38	1864.5
743.565	1948.47
743.75	2011.96
743.935	1895.22
744.12	1940.28
744.305	1921.85
744.49	1930.04
744.675	1882.94
744.86	1862.46
745.045	1932.09
745.23	1770.3
745.415	1739.58
745.6	1901.37
745.785	1770.3
745.97	1913.66
746.155	1760.06
746.34	1819.45
746.525	1821.5
746.71	1917.75
746.895	1766.2
747.079	1704.76
747.264	1784.63
747.449	1821.5
747.634	1862.46
747.819	1758.01
748.003	1708.86
748.188	1768.25
748.373	1747.77
748.557	1715
748.742	1680.19
748.927	1686.33
749.111	1653.56
749.296	1743.67
749.481	1579.84
749.665	1721.15
749.85	1721.15
750.034	1583.93
750.219	1567.55
750.404	1622.84
750.588	1585.98
750.773	1678.14
750.957	1626.94
751.141	1610.56
751.326	1540.93
751.51	1551.17
751.695	1485.63
751.879	1600.32
752.064	1493.82
752.248	1596.22
752.432	1561.41
752.617	1530.69
752.801	1581.89
752.985	1534.78
753.17	1432.38
753.354	1512.25
753.538	1487.68
753.722	1389.38
753.907	1426.24
754.091	1372.99
754.275	1372.99
754.459	1401.66
754.643	1397.57
754.828	1452.86
755.012	1346.37
755.196	1338.18
755.38	1299.27
755.564	1340.22
755.748	1303.36
755.932	1282.88
756.116	1332.03
756.3	1438.53
756.484	1350.46
756.668	1413.95
756.852	1248.07
757.036	1282.88
757.22	1223.49
757.404	1297.22
757.588	1313.6
757.772	1264.45
757.956	1252.16
758.14	1293.12
758.323	1280.83
758.507	1229.63
758.691	1162.05
758.875	1309.51
759.059	1225.54
759.242	1162.05
759.426	1278.79
759.61	1143.62
759.794	1157.96
759.977	1166.15
760.161	1184.58
760.345	1129.28
760.528	1133.38
760.712	1098.56
760.895	1133.38
761.079	1114.95
761.263	1114.95
761.446	1151.81
761.63	1016.65
761.813	1078.08
761.997	1121.09
762.18	1141.57
762.364	1035.08
762.547	1020.74
762.731	1014.6
762.914	1092.42
763.098	1057.61
763.281	1012.55
763.464	955.21
763.648	1014.6
763.831	1098.56
764.015	1067.85
764.198	1082.18
764.381	1026.89
764.564	1035.08
764.748	1106.76
764.931	940.87
765.114	1018.69
765.297	1127.24
765.481	1059.65
765.664	1037.13
765.847	951.11
766.03	1059.65
766.213	961.35
766.397	852.81
766.58	901.96
766.763	1022.79
766.946	967.49
767.129	883.53
767.312	959.3
767.495	922.44
767.678	869.19
767.861	969.54
768.044	932.68
768.227	901.96
768.41	928.58
768.593	973.64
768.776	908.1
768.959	959.3
769.142	969.54
769.324	926.54
769.507	975.69
769.69	852.81
769.873	910.15
770.056	852.81
770.239	830.28
770.421	826.18
770.604	908.1
770.787	830.28
770.97	904.01
771.152	791.37
771.335	793.42
771.518	836.42
771.7	840.52
771.883	881.48
772.066	846.66
772.248	820.04
772.431	752.46
772.613	688.97
772.796	785.23
772.978	895.82
773.161	858.95
773.343	783.18
773.526	824.14
773.708	795.47
773.891	820.04
774.073	750.41
774.256	777.03
774.438	815.94
774.621	670.54
774.803	772.94
774.985	783.18
775.168	715.59
775.35	791.37
775.532	805.71
775.715	695.11
775.897	699.21
776.079	672.59
776.261	695.11
776.444	756.55
776.626	699.21
776.808	688.97
776.99	619.34
777.173	625.48
777.355	738.12
777.537	666.44
777.719	623.44
777.901	684.87
778.083	547.66
778.265	643.92
778.447	684.87
778.629	668.49
778.811	633.68
778.993	666.44
779.175	609.1
779.357	645.96
779.539	654.16
779.721	607.05
779.903	576.33
780.085	596.81
780.267	586.57
780.449	594.76
780.631	605
780.812	502.61
780.994	635.72
781.176	568.14
781.358	639.82
781.54	510.8
781.721	609.1
781.903	586.57
782.085	531.28
782.267	582.48
782.448	562
782.63	611.15
782.812	543.57
782.993	523.09
783.175	562
783.357	527.18
783.538	580.43
783.72	508.75
783.901	486.22
784.083	449.36
784.264	543.57
784.446	518.99
784.627	426.83
784.809	549.71
784.99	529.23
785.172	435.02
785.353	580.43
785.535	437.07
785.716	521.04
785.897	439.12
786.079	471.89
786.26	410.45
786.441	471.89
786.623	510.8
786.804	467.79
786.985	478.03
787.167	428.88
787.348	387.92
787.529	404.3
787.71	404.3
787.891	373.58
788.073	469.84
788.254	394.06
788.435	336.72
788.616	445.26
788.797	336.72
788.978	365.39
789.159	437.07
789.34	461.65
789.522	351.06
789.703	432.97
789.884	346.96
790.065	357.2
790.246	389.97
790.427	426.83
790.607	428.88
790.788	361.3
790.969	394.06
791.15	459.6
791.331	322.38
791.512	465.74
791.693	365.39
791.874	375.63
792.054	404.3
792.235	363.34
792.416	322.38
792.597	383.82
792.778	326.48
792.958	277.33
793.139	355.15
793.32	320.34
793.5	332.62
793.681	324.43
793.862	322.38
794.042	314.19
794.223	387.92
794.404	289.62
794.584	320.34
794.765	240.47
794.945	324.43
795.126	363.34
795.306	324.43
795.487	383.82
795.667	387.92
795.848	318.29
796.028	320.34
796.209	357.2
796.389	346.96
796.57	310.1
796.75	252.75
796.93	287.57
797.111	238.42
797.291	303.95
797.471	367.44
797.652	248.66
797.832	258.9
798.012	351.06
798.192	236.37
798.373	279.38
798.553	222.03
798.733	256.85
798.913	248.66
799.093	232.27
799.274	291.66
799.454	322.38
799.634	336.72
799.814	303.95
799.994	248.66
800.174	277.33
800.354	289.62
800.534	291.66
800.714	240.47
800.894	205.65
801.074	244.56
801.254	211.79
801.434	346.96
801.614	248.66
801.794	203.6
801.974	609.1
802.154	203.6
802.334	250.71
802.514	226.13
802.693	250.71
802.873	222.03
803.053	228.18
803.233	228.18
803.413	256.85
803.592	252.75
803.772	244.56
803.952	271.19
804.131	230.23
804.311	217.94
804.491	203.6
804.67	224.08
804.85	185.17
805.03	183.12
805.209	215.89
805.389	129.88
805.568	222.03
805.748	109.4
805.928	236.37
806.107	205.65
806.287	303.95
806.466	310.1
806.646	273.23
806.825	187.22
807.004	283.47
807.184	197.46
807.363	222.03
807.543	138.07
807.722	164.69
807.901	260.95
808.081	181.07
808.26	219.99
808.439	164.69
808.619	281.43
808.798	195.41
808.977	207.7
809.156	215.89
809.336	170.83
809.515	197.46
809.694	181.07
809.873	174.93
810.052	181.07
810.231	273.23
810.411	129.88
810.59	142.16
810.769	140.12
810.948	183.12
811.127	88.92
811.306	201.55
811.485	207.7
811.664	189.27
811.843	166.74
812.022	172.88
812.201	125.78
812.38	121.68
812.559	168.79
812.737	164.69
812.916	158.55
813.095	158.55
813.274	148.31
813.453	162.64
813.632	172.88
813.811	158.55
813.989	144.21
814.168	99.16
814.347	131.92
814.526	176.98
814.704	269.14
814.883	187.22
815.062	191.31
815.24	129.88
815.419	195.41
815.598	88.92
815.776	133.97
815.955	105.3
816.133	101.2
816.312	172.88
816.49	103.25
816.669	109.4
816.847	138.07
817.026	211.79
817.204	129.88
817.383	138.07
817.561	97.11
817.74	123.73
817.918	172.88
818.097	162.64
818.275	150.36
818.453	162.64
818.632	191.31
818.81	113.49
818.988	136.02
819.167	146.26
819.345	181.07
819.523	148.31
819.701	117.59
819.879	133.97
820.058	133.97
820.236	205.65
820.414	72.53
820.592	66.39
820.77	164.69
820.948	148.31
821.127	193.36
821.305	97.11
821.483	82.77
821.661	181.07
821.839	154.45
822.017	43.86
822.195	158.55
822.373	150.36
822.551	107.35
822.729	136.02
822.907	119.64
823.085	133.97
823.262	82.77
823.44	68.44
823.618	125.78
823.796	121.68
823.974	101.2
824.152	148.31
824.329	119.64
824.507	168.79
824.685	117.59
824.863	101.2
825.04	174.93
825.218	152.4
825.396	88.92
825.574	80.72
825.751	109.4
825.929	70.48
826.107	105.3
826.284	66.39
826.462	150.36
826.639	95.06
826.817	95.06
826.994	121.68
827.172	76.63
827.349	123.73
827.527	64.34
827.704	146.26
827.882	131.92
828.059	107.35
828.237	97.11
828.414	82.77
828.591	103.25
828.769	138.07
828.946	88.92
829.124	136.02
829.301	154.45
829.478	84.82
829.655	23.38
829.833	105.3
830.01	17.24
830.187	168.79
830.364	115.54
830.542	115.54
830.719	97.11
830.896	62.29
831.073	68.44
831.25	123.73
831.427	156.5
831.604	101.2
831.782	60.24
831.959	58.2
832.136	54.1
832.313	23.38
832.49	80.72
832.667	66.39
832.844	68.44
833.021	111.44
833.198	37.72
833.374	152.4
833.551	105.3
833.728	47.96
833.905	52.05
834.082	19.29
834.259	168.79
834.436	105.3
834.612	88.92
834.789	86.87
834.966	133.97
835.143	136.02
835.319	156.5
835.496	105.3
835.673	117.59
835.85	99.16
836.026	52.05
836.203	144.21
836.38	80.72
836.556	101.2
836.733	39.76
836.909	88.92
837.086	107.35
837.262	82.77
837.439	52.05
837.616	35.67
837.792	117.59
837.968	97.11
838.145	2.9
838.321	101.2
838.498	84.82
838.674	111.44
838.851	23.38
839.027	129.88
839.203	107.35
839.38	160.59
839.556	121.68
839.732	80.72
839.909	70.48
840.085	23.38
840.261	13.14
840.437	99.16
840.614	72.53
840.79	185.17
840.966	101.2
841.142	144.21
841.318	74.58
841.494	52.05
841.671	50
841.847	11.09
842.023	-9.39
842.199	162.64
842.375	101.2
842.551	52.05
842.727	45.91
842.903	158.55
843.079	45.91
843.255	88.92
843.431	90.96
843.607	80.72
843.783	19.29
843.959	88.92
844.134	-19.63
844.31	80.72
844.486	64.34
844.662	19.29
844.838	140.12
845.013	95.06
845.189	-13.48
845.365	101.2
845.541	101.2
845.716	101.2
845.892	25.43
846.068	0.85
846.244	-38.06
846.419	70.48
846.595	58.2
846.77	80.72
846.946	64.34
847.122	17.24
847.297	64.34
847.473	76.63
847.648	-3.24
847.824	64.34
847.999	52.05
848.175	76.63
848.35	56.15
848.526	86.87
848.701	39.76
848.876	70.48
849.052	2.9
849.227	52.05
849.403	72.53
849.578	101.2
849.753	125.78
849.929	82.77
850.104	-5.29
850.279	115.54
850.454	84.82
850.63	127.83
850.805	4.95
850.98	62.29
851.155	64.34
851.33	17.24
851.505	37.72
851.681	58.2
851.856	129.88
852.031	80.72
852.206	31.57
852.381	68.44
852.556	7
852.731	37.72
852.906	76.63
853.081	35.67
853.256	119.64
853.431	58.2
853.606	-38.06
853.781	-13.48
853.956	56.15
854.131	95.06
854.305	25.43
854.48	66.39
854.655	-13.48
854.83	88.92
855.005	31.57
855.18	11.09
855.354	-17.58
855.529	41.81
855.704	25.43
855.879	13.14
856.053	76.63
856.228	80.72
856.403	31.57
856.577	-27.82
856.752	88.92
856.926	45.91
857.101	72.53
857.276	-5.29
857.45	35.67
857.625	66.39
857.799	37.72
857.974	37.72
858.148	7
858.323	37.72
858.497	70.48
858.672	-25.77
858.846	2.9
859.02	43.86
859.195	21.33
859.369	31.57
859.543	88.92
859.718	-1.19
859.892	17.24
860.066	72.53
860.241	2.9
860.415	-13.48
860.589	47.96
860.763	74.58
860.938	-7.34
861.112	72.53
861.286	-21.67
861.46	125.78
861.634	29.52
861.808	7
861.982	23.38
862.157	0.85
862.331	-21.67
862.505	84.82
862.679	-38.06
862.853	-38.06
863.027	-19.63
863.201	84.82
863.375	43.86
863.549	56.15
863.722	62.29
863.896	50
864.07	-25.77
864.244	68.44
864.418	33.62
864.592	-1.19
864.766	13.14
864.939	23.38
865.113	9.05
865.287	93.01
865.461	15.19
865.634	125.78
865.808	-1.19
865.982	0.85
866.156	37.72
866.329	27.48
866.503	-33.96
866.676	27.48
866.85	45.91
867.024	11.09
867.197	11.09
867.371	9.05
867.544	-44.2
867.718	0.85
867.891	52.05
868.065	86.87
868.238	27.48
868.412	11.09
868.585	-3.24
868.759	-17.58
868.932	29.52
869.105	9.05
869.279	72.53
869.452	19.29
869.625	66.39
869.799	45.91
869.972	39.76
870.145	33.62
870.319	41.81
870.492	52.05
870.665	0.85
870.838	-31.91
871.011	-13.48
871.185	93.01
871.358	11.09
871.531	45.91
871.704	43.86
871.877	58.2
872.05	7
872.223	-42.15
872.396	9.05
872.569	43.86
872.742	-27.82
872.915	23.38
873.088	60.24
873.261	23.38
873.434	29.52
873.607	4.95
873.78	-7.34
873.953	37.72
874.126	13.14
874.299	37.72
874.471	33.62
874.644	-23.72
874.817	82.77
874.99	15.19
875.163	-40.11
875.335	-48.3
875.508	35.67
875.681	2.9
875.853	21.33
876.026	-25.77
876.199	-79.02
876.371	68.44
876.544	45.91
876.717	166.74
876.889	-7.34
877.062	0.85
877.234	72.53
877.407	25.43
877.579	70.48
877.752	-33.96
877.924	15.19
878.097	33.62
878.269	93.01
878.442	50
878.614	68.44
878.786	37.72
878.959	-9.39
879.131	-36.01
879.303	-64.68
879.476	47.96
879.648	70.48
879.82	0.85
879.993	4.95
880.165	-9.39
880.337	54.1
880.509	-29.87
880.681	-27.82
880.854	62.29
881.026	29.52
881.198	97.11
881.37	56.15
881.542	21.33
881.714	-52.39
881.886	70.48
882.058	-17.58
882.23	-11.43
882.402	50
882.574	33.62
882.746	62.29
882.918	66.39
883.09	15.19
883.262	23.38
883.434	27.48
883.606	39.76
883.778	4.95
883.95	99.16
884.122	31.57
884.293	70.48
884.465	15.19
884.637	101.2
884.809	50
884.98	41.81
885.152	-68.78
885.324	68.44
885.496	17.24
885.667	9.05
885.839	93.01
886.011	-7.34
886.182	66.39
886.354	82.77
886.525	4.95
886.697	39.76
886.869	35.67
887.04	76.63
887.212	45.91
887.383	29.52
887.555	-19.63
887.726	62.29
887.897	-13.48
888.069	47.96
888.24	103.25
888.412	-9.39
888.583	29.52
888.754	-3.24
888.926	-3.24
889.097	84.82
889.268	4.95
889.44	86.87
889.611	-48.3
889.782	-15.53
889.953	-42.15
890.125	113.49
890.296	23.38
890.467	68.44
890.638	-21.67
890.809	56.15
890.98	0.85
891.151	-50.35
891.323	39.76
891.494	7
891.665	-46.25
891.836	43.86
892.007	47.96
892.178	13.14
892.349	39.76
892.52	-5.29
892.691	7
892.862	-13.48
893.032	-91.31
893.203	31.57
893.374	37.72
893.545	54.1
893.716	52.05
893.887	19.29
894.057	-48.3
894.228	45.91
894.399	31.57
894.57	35.67
894.74	-40.11
894.911	56.15
895.082	33.62
895.253	25.43
895.423	25.43
895.594	19.29
895.764	0.85
895.935	21.33
896.106	17.24
896.276	23.38
896.447	-15.53
896.617	25.43
896.788	-48.3
896.958	-7.34
897.129	-1.19
897.299	-52.39
897.47	-29.87
897.64	-9.39
897.81	13.14
897.981	64.34
898.151	-38.06
898.322	13.14
898.492	-7.34
898.662	7
898.832	9.05
899.003	-21.67
899.173	43.86
899.343	56.15
899.513	-5.29
