Data from USB4F104151__176__11-09-24-644.txt Node

Date: Wed Mar 12 11:09:24 EDT 2025
User: louis
Spectrometer: USB4F10415
Trigger mode: 4
Integration Time (sec): 2.000000E-2
Scans to average: 1
Electric dark correction enabled: true
Nonlinearity correction enabled: false
Boxcar width: 0
XAxis mode: Wavelengths
Number of Pixels in Spectrum: 3648
>>>>>Begin Spectral Data<<<<<
178.204	-15.87
178.424	-15.87
178.644	-15.87
178.864	-58.88
179.084	-40.45
179.304	20.99
179.524	-50.69
179.744	-15.87
179.964	41.47
180.184	12.8
180.404	-36.35
180.624	53.76
180.844	-19.97
181.064	-52.74
181.283	59.9
181.503	-11.78
181.723	-1.54
181.943	35.33
182.163	39.42
182.383	68.09
182.602	55.81
182.822	59.9
183.042	70.14
183.262	39.42
183.482	190.97
183.701	14.85
183.921	4.61
184.141	84.48
184.361	37.38
184.58	16.9
184.8	107.01
185.02	-24.06
185.239	88.57
185.459	10.75
185.679	100.86
185.898	8.7
186.118	43.52
186.338	4.61
186.557	53.76
186.777	25.09
186.997	-1.54
187.216	-9.73
187.436	18.94
187.655	78.33
187.875	31.23
188.095	-1.54
188.314	98.81
188.534	154.11
188.753	49.66
188.973	129.53
189.192	31.23
189.412	47.62
189.631	53.76
189.851	51.71
190.07	109.05
190.29	49.66
190.509	82.43
190.729	78.33
190.948	76.29
191.168	109.05
191.387	94.72
191.607	-7.68
191.826	94.72
192.045	33.28
192.265	53.76
192.484	-1.54
192.704	27.14
192.923	-67.07
193.142	90.62
193.362	64
193.581	25.09
193.8	82.43
194.02	18.94
194.239	-24.06
194.458	84.48
194.678	33.28
194.897	35.33
195.116	31.23
195.335	20.99
195.555	-42.5
195.774	102.91
195.993	102.91
196.212	10.75
196.432	64
196.651	57.86
196.87	33.28
197.089	-13.82
197.308	72.19
197.528	8.7
197.747	45.57
197.966	25.09
198.185	168.45
198.404	-17.92
198.623	18.94
198.842	37.38
199.062	23.04
199.281	121.34
199.5	16.9
199.719	39.42
199.938	107.01
200.157	14.85
200.376	31.23
200.595	66.05
200.814	-7.68
201.033	98.81
201.252	96.77
201.471	86.53
201.69	70.14
201.909	72.19
202.128	64
202.347	0.51
202.566	35.33
202.785	2.56
203.004	37.38
203.223	96.77
203.442	59.9
203.661	-24.06
203.879	-5.63
204.098	100.86
204.317	23.04
204.536	55.81
204.755	31.23
204.974	64
205.193	39.42
205.411	129.53
205.63	55.81
205.849	2.56
206.068	-11.78
206.287	90.62
206.505	74.24
206.724	43.52
206.943	96.77
207.162	-1.54
207.381	10.75
207.599	51.71
207.818	29.18
208.037	59.9
208.255	31.23
208.474	-7.68
208.693	45.57
208.911	-13.82
209.13	57.86
209.349	76.29
209.567	64
209.786	76.29
210.005	-26.11
210.223	27.14
210.442	86.53
210.661	96.77
210.879	107.01
211.098	102.91
211.316	33.28
211.535	86.53
211.753	14.85
211.972	84.48
212.191	25.09
212.409	14.85
212.628	37.38
212.846	70.14
213.065	84.48
213.283	82.43
213.502	96.77
213.72	76.29
213.938	35.33
214.157	57.86
214.375	8.7
214.594	41.47
214.812	49.66
215.031	25.09
215.249	53.76
215.467	29.18
215.686	64
215.904	76.29
216.122	76.29
216.341	-15.87
216.559	6.66
216.778	61.95
216.996	96.77
217.214	47.62
217.432	27.14
217.651	-22.02
217.869	66.05
218.087	0.51
218.306	37.38
218.524	4.61
218.742	49.66
218.96	100.86
219.179	45.57
219.397	57.86
219.615	61.95
219.833	-1.54
220.051	49.66
220.27	102.91
220.488	107.01
220.706	59.9
220.924	139.77
221.142	-1.54
221.36	0.51
221.578	88.57
221.796	47.62
222.015	27.14
222.233	55.81
222.451	59.9
222.669	-1.54
222.887	74.24
223.105	6.66
223.323	51.71
223.541	33.28
223.759	61.95
223.977	-26.11
224.195	121.34
224.413	43.52
224.631	70.14
224.849	20.99
225.067	104.96
225.285	57.86
225.503	72.19
225.721	-50.69
225.939	74.24
226.157	55.81
226.375	72.19
226.592	61.95
226.81	92.67
227.028	64
227.246	107.01
227.464	-13.82
227.682	66.05
227.9	51.71
228.117	70.14
228.335	37.38
228.553	49.66
228.771	104.96
228.989	4.61
229.206	84.48
229.424	72.19
229.642	-24.06
229.86	115.2
230.077	31.23
230.295	23.04
230.513	23.04
230.731	102.91
230.948	61.95
231.166	37.38
231.384	70.14
231.601	102.91
231.819	78.33
232.037	78.33
232.254	-13.82
232.472	35.33
232.689	-1.54
232.907	-17.92
233.125	-7.68
233.342	41.47
233.56	61.95
233.777	29.18
233.995	-1.54
234.213	68.09
234.43	64
234.648	-42.5
234.865	86.53
235.083	12.8
235.3	102.91
235.518	82.43
235.735	61.95
235.953	53.76
236.17	-9.73
236.388	-9.73
236.605	70.14
236.822	98.81
237.04	37.38
237.257	84.48
237.475	10.75
237.692	16.9
237.909	57.86
238.127	51.71
238.344	53.76
238.562	84.48
238.779	-7.68
238.996	41.47
239.214	51.71
239.431	115.2
239.648	-15.87
239.865	20.99
240.083	31.23
240.3	25.09
240.517	23.04
240.735	78.33
240.952	41.47
241.169	66.05
241.386	-7.68
241.603	18.94
241.821	-1.54
242.038	82.43
242.255	86.53
242.472	4.61
242.689	10.75
242.907	117.25
243.124	37.38
243.341	55.81
243.558	80.38
243.775	41.47
243.992	43.52
244.209	33.28
244.426	115.2
244.643	45.57
244.86	57.86
245.078	115.2
245.295	45.57
245.512	84.48
245.729	6.66
245.946	96.77
246.163	20.99
246.38	12.8
246.597	82.43
246.814	39.42
247.031	57.86
247.248	137.73
247.464	78.33
247.681	-30.21
247.898	47.62
248.115	41.47
248.332	18.94
248.549	109.05
248.766	68.09
248.983	43.52
249.2	78.33
249.417	111.1
249.633	12.8
249.85	111.1
250.067	72.19
250.284	74.24
250.501	29.18
250.717	41.47
250.934	41.47
251.151	57.86
251.368	59.9
251.585	107.01
251.801	29.18
252.018	47.62
252.235	6.66
252.451	47.62
252.668	8.7
252.885	86.53
253.102	104.96
253.318	-26.11
253.535	12.8
253.752	16.9
253.968	35.33
254.185	88.57
254.401	-32.26
254.618	-15.87
254.835	111.1
255.051	68.09
255.268	82.43
255.484	47.62
255.701	4.61
255.917	66.05
256.134	8.7
256.351	113.15
256.567	41.47
256.784	70.14
257	76.29
257.217	35.33
257.433	100.86
257.65	96.77
257.866	8.7
258.082	2.56
258.299	98.81
258.515	0.51
258.732	43.52
258.948	72.19
259.165	51.71
259.381	-1.54
259.597	31.23
259.814	59.9
260.03	-7.68
260.246	49.66
260.463	47.62
260.679	90.62
260.895	4.61
261.112	37.38
261.328	29.18
261.544	-3.58
261.761	51.71
261.977	37.38
262.193	-1.54
262.409	-3.58
262.626	92.67
262.842	86.53
263.058	25.09
263.274	143.87
263.49	53.76
263.707	84.48
263.923	35.33
264.139	61.95
264.355	96.77
264.571	61.95
264.787	66.05
265.004	27.14
265.22	-19.97
265.436	2.56
265.652	31.23
265.868	39.42
266.084	55.81
266.3	100.86
266.516	-24.06
266.732	12.8
266.948	47.62
267.164	45.57
267.38	-13.82
267.596	-7.68
267.812	74.24
268.028	-24.06
268.244	12.8
268.46	8.7
268.676	78.33
268.892	70.14
269.108	66.05
269.324	20.99
269.54	25.09
269.756	74.24
269.972	16.9
270.188	-1.54
270.403	31.23
270.619	66.05
270.835	53.76
271.051	37.38
271.267	45.57
271.483	139.77
271.698	70.14
271.914	76.29
272.13	27.14
272.346	158.21
272.562	41.47
272.777	76.29
272.993	29.18
273.209	29.18
273.425	64
273.64	61.95
273.856	125.44
274.072	43.52
274.287	84.48
274.503	45.57
274.719	80.38
274.934	57.86
275.15	-15.87
275.366	102.91
275.581	27.14
275.797	29.18
276.012	29.18
276.228	23.04
276.444	98.81
276.659	53.76
276.875	94.72
277.09	119.29
277.306	-1.54
277.521	92.67
277.737	39.42
277.952	66.05
278.168	47.62
278.383	59.9
278.599	29.18
278.814	59.9
279.03	86.53
279.245	135.68
279.461	-30.21
279.676	96.77
279.892	55.81
280.107	100.86
280.322	-15.87
280.538	23.04
280.753	104.96
280.969	29.18
281.184	25.09
281.399	82.43
281.615	55.81
281.83	82.43
282.045	49.66
282.26	-7.68
282.476	14.85
282.691	25.09
282.906	-1.54
283.122	78.33
283.337	37.38
283.552	74.24
283.767	6.66
283.983	59.9
284.198	37.38
284.413	92.67
284.628	20.99
284.843	45.57
285.058	74.24
285.274	-1.54
285.489	27.14
285.704	12.8
285.919	-19.97
286.134	78.33
286.349	72.19
286.564	43.52
286.779	78.33
286.995	37.38
287.21	102.91
287.425	33.28
287.64	20.99
287.855	51.71
288.07	29.18
288.285	107.01
288.5	113.15
288.715	121.34
288.93	104.96
289.145	-22.02
289.36	8.7
289.575	20.99
289.79	137.73
290.004	39.42
290.219	90.62
290.434	74.24
290.649	53.76
290.864	27.14
291.079	43.52
291.294	6.66
291.509	45.57
291.724	86.53
291.938	88.57
292.153	98.81
292.368	25.09
292.583	14.85
292.798	-28.16
293.012	14.85
293.227	33.28
293.442	49.66
293.657	10.75
293.871	-3.58
294.086	129.53
294.301	82.43
294.516	57.86
294.73	47.62
294.945	25.09
295.16	80.38
295.374	90.62
295.589	92.67
295.804	57.86
296.018	0.51
296.233	102.91
296.447	6.66
296.662	4.61
296.877	84.48
297.091	20.99
297.306	8.7
297.52	45.57
297.735	51.71
297.949	37.38
298.164	16.9
298.378	49.66
298.593	70.14
298.807	45.57
299.022	31.23
299.236	92.67
299.451	-60.93
299.665	59.9
299.88	-22.02
300.094	0.51
300.309	31.23
300.523	66.05
300.737	98.81
300.952	33.28
301.166	43.52
301.381	-11.78
301.595	43.52
301.809	76.29
302.024	-1.54
302.238	33.28
302.452	33.28
302.667	31.23
302.881	51.71
303.095	131.58
303.309	139.77
303.524	43.52
303.738	10.75
303.952	47.62
304.166	70.14
304.381	43.52
304.595	100.86
304.809	-9.73
305.023	61.95
305.237	121.34
305.452	14.85
305.666	41.47
305.88	8.7
306.094	47.62
306.308	100.86
306.522	135.68
306.736	100.86
306.95	41.47
307.164	4.61
307.379	66.05
307.593	55.81
307.807	12.8
308.021	66.05
308.235	-15.87
308.449	-9.73
308.663	68.09
308.877	88.57
309.091	49.66
309.305	70.14
309.519	-15.87
309.733	41.47
309.947	-28.16
310.161	49.66
310.374	14.85
310.588	172.54
310.802	-44.54
311.016	80.38
311.23	39.42
311.444	55.81
311.658	64
311.872	66.05
312.085	86.53
312.299	84.48
312.513	104.96
312.727	88.57
312.941	78.33
313.154	59.9
313.368	16.9
313.582	16.9
313.796	90.62
314.009	51.71
314.223	16.9
314.437	76.29
314.651	53.76
314.864	41.47
315.078	33.28
315.292	49.66
315.505	80.38
315.719	55.81
315.933	41.47
316.146	109.05
316.36	57.86
316.573	70.14
316.787	0.51
317.001	47.62
317.214	16.9
317.428	88.57
317.641	0.51
317.855	47.62
318.068	31.23
318.282	53.76
318.495	117.25
318.709	84.48
318.922	96.77
319.136	53.76
319.349	41.47
319.563	33.28
319.776	31.23
319.99	-15.87
320.203	94.72
320.417	45.57
320.63	20.99
320.843	102.91
321.057	88.57
321.27	12.8
321.483	61.95
321.697	80.38
321.91	66.05
322.124	29.18
322.337	-3.58
322.55	25.09
322.763	45.57
322.977	10.75
323.19	-3.58
323.403	61.95
323.617	-15.87
323.83	100.86
324.043	59.9
324.256	51.71
324.469	39.42
324.683	53.76
324.896	82.43
325.109	-1.54
325.322	68.09
325.535	53.76
325.748	109.05
325.962	18.94
326.175	53.76
326.388	88.57
326.601	117.25
326.814	92.67
327.027	27.14
327.24	47.62
327.453	-17.92
327.666	29.18
327.879	90.62
328.092	98.81
328.305	96.77
328.518	39.42
328.731	31.23
328.944	76.29
329.157	-15.87
329.37	-17.92
329.583	70.14
329.796	61.95
330.009	45.57
330.222	86.53
330.435	41.47
330.648	147.97
330.861	37.38
331.073	31.23
331.286	88.57
331.499	4.61
331.712	8.7
331.925	141.82
332.138	14.85
332.35	107.01
332.563	-22.02
332.776	49.66
332.989	45.57
333.202	61.95
333.414	23.04
333.627	45.57
333.84	125.44
334.053	10.75
334.265	33.28
334.478	49.66
334.691	82.43
334.903	0.51
335.116	12.8
335.329	47.62
335.541	6.66
335.754	125.44
335.966	57.86
336.179	133.63
336.392	23.04
336.604	45.57
336.817	109.05
337.029	31.23
337.242	64
337.454	76.29
337.667	64
337.88	86.53
338.092	25.09
338.305	74.24
338.517	-9.73
338.729	47.62
338.942	160.25
339.154	53.76
339.367	-34.3
339.579	57.86
339.792	27.14
340.004	66.05
340.217	14.85
340.429	12.8
340.641	-5.63
340.854	-3.58
341.066	76.29
341.278	6.66
341.491	20.99
341.703	41.47
341.915	-17.92
342.128	107.01
342.34	16.9
342.552	45.57
342.764	20.99
342.977	-9.73
343.189	61.95
343.401	59.9
343.613	12.8
343.826	61.95
344.038	0.51
344.25	162.3
344.462	37.38
344.674	-22.02
344.886	20.99
345.099	33.28
345.311	25.09
345.523	-22.02
345.735	27.14
345.947	29.18
346.159	86.53
346.371	68.09
346.583	109.05
346.795	78.33
347.007	121.34
347.219	0.51
347.431	107.01
347.643	25.09
347.855	51.71
348.067	68.09
348.279	27.14
348.491	39.42
348.703	82.43
348.915	14.85
349.127	80.38
349.339	-3.58
349.551	55.81
349.763	80.38
349.975	119.29
350.187	94.72
350.399	2.56
350.61	102.91
350.822	55.81
351.034	76.29
351.246	98.81
351.458	-3.58
351.669	53.76
351.881	37.38
352.093	127.49
352.305	72.19
352.517	66.05
352.728	98.81
352.94	107.01
353.152	35.33
353.363	-1.54
353.575	45.57
353.787	41.47
353.999	74.24
354.21	66.05
354.422	76.29
354.633	51.71
354.845	20.99
355.057	0.51
355.268	20.99
355.48	31.23
355.692	102.91
355.903	158.21
356.115	45.57
356.326	-56.83
356.538	-5.63
356.749	55.81
356.961	39.42
357.172	84.48
357.384	45.57
357.595	133.63
357.807	90.62
358.018	76.29
358.23	57.86
358.441	98.81
358.653	47.62
358.864	-3.58
359.075	18.94
359.287	49.66
359.498	113.15
359.709	57.86
359.921	80.38
360.132	74.24
360.344	92.67
360.555	57.86
360.766	109.05
360.977	23.04
361.189	41.47
361.4	25.09
361.611	70.14
361.823	55.81
362.034	107.01
362.245	16.9
362.456	70.14
362.667	-15.87
362.879	72.19
363.09	64
363.301	55.81
363.512	64
363.723	64
363.935	41.47
364.146	66.05
364.357	94.72
364.568	98.81
364.779	25.09
364.99	80.38
365.201	37.38
365.412	78.33
365.623	23.04
365.834	35.33
366.045	29.18
366.256	53.76
366.467	51.71
366.678	12.8
366.889	31.23
367.1	61.95
367.311	53.76
367.522	33.28
367.733	-7.68
367.944	109.05
368.155	8.7
368.366	139.77
368.577	49.66
368.788	82.43
368.999	47.62
369.209	8.7
369.42	55.81
369.631	100.86
369.842	115.2
370.053	41.47
370.264	57.86
370.474	27.14
370.685	51.71
370.896	61.95
371.107	107.01
371.317	98.81
371.528	-1.54
371.739	76.29
371.95	94.72
372.16	10.75
372.371	68.09
372.582	98.81
372.792	61.95
373.003	25.09
373.214	35.33
373.424	51.71
373.635	111.1
373.846	68.09
374.056	-15.87
374.267	115.2
374.477	14.85
374.688	53.76
374.898	113.15
375.109	35.33
375.319	94.72
375.53	41.47
375.74	78.33
375.951	47.62
376.161	72.19
376.372	57.86
376.582	27.14
376.793	61.95
377.003	94.72
377.214	53.76
377.424	70.14
377.635	25.09
377.845	4.61
378.055	96.77
378.266	-69.12
378.476	64
378.686	92.67
378.897	72.19
379.107	74.24
379.317	68.09
379.528	82.43
379.738	74.24
379.948	61.95
380.158	43.52
380.369	141.82
380.579	143.87
380.789	64
380.999	98.81
381.21	70.14
381.42	59.9
381.63	6.66
381.84	193.02
382.05	121.34
382.261	78.33
382.471	78.33
382.681	20.99
382.891	25.09
383.101	76.29
383.311	-93.69
383.521	43.52
383.731	14.85
383.941	117.25
384.151	43.52
384.361	107.01
384.571	70.14
384.781	135.68
384.991	66.05
385.201	37.38
385.411	88.57
385.621	113.15
385.831	45.57
386.041	74.24
386.251	82.43
386.461	64
386.671	64
386.881	53.76
387.091	49.66
387.301	74.24
387.511	47.62
387.72	70.14
387.93	51.71
388.14	57.86
388.35	86.53
388.56	25.09
388.769	45.57
388.979	57.86
389.189	57.86
389.399	70.14
389.609	115.2
389.818	82.43
390.028	33.28
390.238	121.34
390.447	57.86
390.657	111.1
390.867	109.05
391.076	68.09
391.286	61.95
391.496	111.1
391.705	12.8
391.915	160.25
392.125	86.53
392.334	111.1
392.544	88.57
392.753	98.81
392.963	33.28
393.172	88.57
393.382	53.76
393.591	104.96
393.801	59.9
394.01	100.86
394.22	96.77
394.429	98.81
394.639	119.29
394.848	68.09
395.058	70.14
395.267	119.29
395.477	133.63
395.686	76.29
395.895	86.53
396.105	205.31
396.314	109.05
396.524	107.01
396.733	102.91
396.942	162.3
397.152	211.45
397.361	33.28
397.57	135.68
397.78	102.91
397.989	111.1
398.198	127.49
398.407	119.29
398.617	80.38
398.826	66.05
399.035	70.14
399.244	123.39
399.453	29.18
399.663	121.34
399.872	98.81
400.081	74.24
400.29	152.06
400.499	109.05
400.708	164.35
400.917	168.45
401.127	119.29
401.336	133.63
401.545	135.68
401.754	100.86
401.963	100.86
402.172	102.91
402.381	80.38
402.59	20.99
402.799	117.25
403.008	162.3
403.217	76.29
403.426	195.07
403.635	104.96
403.844	78.33
404.053	98.81
404.262	135.68
404.471	172.54
404.68	143.87
404.888	117.25
405.097	170.49
405.306	123.39
405.515	160.25
405.724	141.82
405.933	102.91
406.142	223.74
406.35	123.39
406.559	190.97
406.768	193.02
406.977	98.81
407.185	137.73
407.394	125.44
407.603	195.07
407.812	215.55
408.02	209.4
408.229	152.06
408.438	176.64
408.646	170.49
408.855	190.97
409.064	188.93
409.272	190.97
409.481	328.19
409.69	223.74
409.898	197.12
410.107	283.13
410.315	270.84
410.524	262.65
410.733	266.75
410.941	244.22
411.15	324.09
411.358	305.66
411.567	371.19
411.775	270.84
411.984	320
412.192	420.35
412.401	389.63
412.609	342.52
412.818	369.15
413.026	375.29
413.234	383.48
413.443	451.07
413.651	436.73
413.86	438.78
414.068	492.02
414.276	496.12
414.485	436.73
414.693	487.93
414.901	504.31
415.11	569.85
415.318	545.27
415.526	532.98
415.734	627.19
415.943	616.95
416.151	625.14
416.359	614.9
416.567	651.77
416.776	705.01
416.984	711.16
417.192	707.06
417.4	659.96
417.608	698.87
417.817	868.85
418.025	852.47
418.233	895.47
418.441	860.66
418.649	879.09
418.857	1008.11
419.065	889.33
419.273	1014.26
419.481	1085.94
419.689	1057.26
419.897	1090.03
420.105	1178.09
420.313	1145.33
420.521	1174
420.729	1257.96
420.937	1262.06
421.145	1229.29
421.353	1434.09
421.561	1421.8
421.769	1503.72
421.977	1470.95
422.185	1456.62
422.393	1575.4
422.601	1769.96
422.809	1702.37
423.017	1806.82
423.224	1923.55
423.432	1831.4
423.64	1860.07
423.848	1966.56
424.056	2030.05
424.263	2124.26
424.471	2142.69
424.679	2085.34
424.887	2240.99
425.094	2388.44
425.302	2357.72
425.51	2472.41
425.718	2503.13
425.925	2511.32
426.133	2722.26
426.341	2703.83
426.548	2832.85
426.756	2849.24
426.964	2894.29
427.171	3082.7
427.379	3131.86
427.586	3213.77
427.794	3334.61
428.001	3473.87
428.209	3615.18
428.417	3486.15
428.624	3807.69
428.832	3803.59
429.039	3662.28
429.247	3858.89
429.454	4211.14
429.662	4411.84
429.869	4108.74
430.076	4399.55
430.284	4223.42
430.491	4518.33
430.699	4710.84
430.906	4792.76
431.114	4704.7
431.321	4925.88
431.528	5132.72
431.736	5323.18
431.943	5767.59
432.15	5523.88
432.358	5613.99
432.565	5853.61
432.772	6027.68
432.979	6125.99
433.187	6308.26
433.394	6322.59
433.601	6844.82
433.808	6799.77
434.016	6736.28
434.223	6955.41
434.43	7461.26
434.637	7340.43
434.844	7803.27
435.052	7790.99
435.259	7717.26
435.466	7766.41
435.673	7799.18
435.88	8280.45
436.087	8657.28
436.294	8888.7
436.501	8524.16
436.708	8800.63
436.915	8911.22
437.122	9466.22
437.329	9425.26
437.537	9734.51
437.743	9746.8
437.95	9771.37
438.157	10088.81
438.364	10598.75
438.571	10502.5
438.778	10711.39
438.985	11567.44
439.192	11000.15
439.399	11524.43
439.606	11413.84
439.813	11782.48
440.02	12624.19
440.227	12464.45
440.433	12493.12
440.64	12835.13
440.847	12544.32
441.054	12994.87
441.261	13859.12
441.467	13650.22
441.674	13762.86
441.881	14487.84
442.088	14448.93
442.294	14313.77
442.501	14477.6
442.708	14792.99
442.914	15438.1
443.121	16390.41
443.328	15837.45
443.534	16593.15
443.741	16265.48
443.948	16138.51
444.154	17060.09
444.361	17174.78
444.568	17191.16
444.774	17355
444.981	17498.36
445.187	17936.62
445.394	18692.32
445.6	18727.14
445.807	20445.38
446.013	19501.27
446.22	19726.55
446.426	20173
446.633	20848.83
446.839	21317.82
447.046	20498.63
447.252	21401.79
447.459	21541.05
447.665	21518.52
447.871	22376.62
448.078	23365.79
448.284	22321.32
448.491	22937.76
448.697	23634.07
448.903	24373.39
449.11	24135.82
449.316	23634.07
449.522	24395.92
449.728	24662.15
449.935	25161.86
450.141	25333.89
450.347	25679.99
450.553	24885.38
450.76	24916.1
450.966	25675.9
451.172	25421.95
451.378	26232.94
451.584	25878.65
451.791	26462.32
451.997	26247.28
452.203	26820.71
452.409	26857.57
452.615	26636.39
452.821	25733.24
453.027	25348.22
453.233	26265.71
453.44	25452.67
453.646	25829.49
453.852	26034.29
454.058	26364.01
454.264	25446.52
454.47	26097.78
454.676	25454.72
454.882	26159.22
455.088	23857.3
455.294	24287.37
455.5	24959.11
455.705	24965.25
455.911	23916.69
456.117	23492.76
456.323	23249.05
456.529	22007.98
456.735	22704.29
456.941	22290.6
457.147	21999.79
457.352	21254.33
457.558	20924.61
457.764	21024.96
457.97	20603.08
458.176	20025.55
458.381	20375.75
458.587	18890.98
458.793	19335.38
458.999	18350.31
459.204	19540.18
459.41	19030.24
459.616	17684.72
459.821	18006.25
460.027	17567.99
460.233	17475.83
460.438	16488.71
460.644	16863.49
460.85	15972.62
461.055	15372.57
461.261	15599.89
461.466	14657.82
461.672	14096.68
461.878	14999.84
462.083	14096.68
462.289	13820.21
462.494	13723.95
462.7	13214.01
462.905	12833.08
463.111	13089.08
463.316	13246.77
463.522	12824.89
463.727	12964.15
463.932	12978.49
464.138	12638.53
464.343	12689.73
464.549	12290.37
464.754	12915
464.959	12742.97
465.165	12599.62
465.37	12009.8
465.575	11880.78
465.781	12173.64
465.986	12577.09
466.191	11768.14
466.397	11575.63
466.602	11032.92
466.807	11444.56
467.012	11536.72
467.218	11295.06
467.423	11155.8
467.628	11295.06
467.833	11854.16
468.038	11411.79
468.244	11022.68
468.449	11534.67
468.654	11250
468.859	11059.54
469.064	11059.54
469.269	10656.09
469.474	10776.92
469.679	10742.11
469.885	10592.61
470.09	10774.88
470.295	10506.59
470.5	10320.23
470.705	10406.24
470.91	10080.61
471.115	9994.6
471.32	10271.08
471.525	10168.68
471.73	9859.43
471.935	9879.91
472.139	9654.64
472.344	9615.73
472.549	9580.91
472.754	9550.19
472.959	9365.87
473.164	9218.42
473.369	9093.49
473.574	9208.18
473.778	9224.56
473.983	9257.33
474.188	8935.8
474.393	8599.93
474.598	8642.94
474.802	8585.6
475.007	8546.69
475.212	8487.29
475.417	8477.05
475.621	8386.94
475.826	8407.42
476.031	8313.22
476.235	8102.28
476.44	8358.27
476.645	7973.25
476.849	7920.01
477.054	7829.9
477.259	7934.34
477.463	7895.43
477.668	7623.05
477.872	7704.97
478.077	7555.47
478.282	7244.18
478.486	7514.51
478.691	7358.86
478.895	7455.12
479.1	7324.05
479.304	7229.84
479.509	7068.05
479.713	7006.61
479.918	7152.02
480.122	6996.37
480.326	7133.59
480.531	7149.97
480.735	6848.92
480.94	6846.87
481.144	7061.91
481.348	6672.79
481.553	6801.82
481.757	6807.96
481.961	6828.44
482.166	6701.47
482.37	6834.58
482.574	6590.88
482.778	6680.99
482.983	6830.49
483.187	6707.61
483.391	6709.66
483.595	6597.02
483.8	6678.94
484.004	6660.51
484.208	6842.78
484.412	6519.2
484.616	6599.07
484.821	6642.07
485.025	6609.31
485.229	6748.57
485.433	6650.27
485.637	6603.16
485.841	6668.7
486.045	6767
486.249	6601.12
486.453	6644.12
486.657	6580.64
486.861	6660.51
487.065	6474.14
487.269	6664.6
487.473	6511
487.677	6680.99
487.881	6799.77
488.085	6545.82
488.289	6795.67
488.493	6672.79
488.697	6594.97
488.901	6783.38
489.105	6799.77
489.309	6742.43
489.512	6906.26
489.716	6666.65
489.92	6574.49
490.124	6668.7
490.328	6889.88
490.531	6756.76
490.735	6721.95
490.939	6863.26
491.143	6955.41
491.346	6721.95
491.55	7045.52
491.754	6916.5
491.958	6910.36
492.161	7031.19
492.365	7000.47
492.569	7088.53
492.772	7061.91
492.976	7190.93
493.18	7197.07
493.383	7190.93
493.587	7367.06
493.79	7457.17
493.994	7176.59
494.197	7125.4
494.401	7274.9
494.605	7377.3
494.808	7401.87
495.012	7481.74
495.215	7618.96
495.419	7575.95
495.622	7487.89
495.825	7795.08
496.029	7637.39
496.232	7885.19
496.436	7741.83
496.639	8079.75
496.843	8001.93
497.046	8165.76
497.249	8241.54
497.453	8231.3
497.656	8247.68
497.859	8501.63
498.063	8571.26
498.266	8540.54
498.469	8532.35
498.673	8642.94
498.876	8872.31
499.079	8911.22
499.282	8825.21
499.485	9126.26
499.689	9247.09
499.892	9179.51
500.095	9312.63
500.298	9621.87
500.501	9542
500.705	9847.15
500.908	9931.11
501.111	9800.04
501.314	9937.26
501.517	10101.09
501.72	10142.05
501.923	10137.96
502.126	10293.6
502.329	10838.36
502.532	10623.33
502.735	10692.96
502.938	10817.88
503.141	11108.69
503.344	11325.78
503.547	11143.51
503.75	11178.33
503.953	11667.79
504.156	11688.27
504.359	11544.91
504.562	11743.56
504.765	11936.07
504.968	12079.43
505.17	12292.42
505.373	12292.42
505.576	12308.8
505.779	12644.67
505.982	12753.21
506.185	13025.59
506.387	13039.93
506.59	13095.22
506.793	13488.43
506.996	13338.93
507.198	13713.71
507.401	13695.28
507.604	13570.35
507.807	14213.42
508.009	14158.12
508.212	14311.72
508.415	14401.83
508.617	14590.24
508.82	14567.71
509.022	14541.09
509.225	14926.11
509.428	15008.03
509.63	15440.15
509.833	15206.68
510.035	15509.78
510.238	15685.9
510.44	15821.07
510.643	15845.65
510.845	16036.11
511.048	15982.86
511.25	16271.62
511.453	16697.6
511.655	16863.49
511.858	16836.86
512.06	17082.62
512.262	17266.94
512.465	17420.53
512.667	17654
512.87	17750.26
513.072	17776.88
513.274	17905.9
513.477	18256.11
513.679	18383.08
513.881	18481.38
514.084	18684.13
514.286	18919.65
514.488	18979.04
514.69	19542.23
514.893	19339.48
515.095	19482.84
515.297	19753.17
515.499	20187.34
515.701	20107.47
515.904	20525.25
516.106	20660.42
516.308	20631.75
516.51	20955.33
516.712	20811.97
516.914	20943.04
517.116	21491.9
517.318	21526.71
517.52	21375.16
517.722	21856.43
517.925	22188.21
518.127	22411.43
518.329	22483.11
518.531	22296.75
518.733	22626.47
518.935	22966.43
519.136	22821.03
519.338	23650.46
519.54	23449.75
519.742	23554.2
519.944	23722.13
520.146	24453.26
520.348	24420.49
520.55	24885.38
520.752	24651.91
520.954	24922.24
521.155	25053.31
521.357	25073.79
521.559	25311.36
521.761	25817.21
521.963	25772.15
522.164	26103.92
522.366	25995.38
522.568	26359.92
522.77	26445.93
522.971	26746.98
523.173	27005.03
523.375	26988.64
523.576	27021.41
523.778	27277.41
523.98	27474.01
524.181	27707.48
524.383	27936.85
524.584	28231.76
524.786	28244.05
524.988	27994.2
525.189	28424.27
525.391	28649.55
525.592	28504.14
525.794	28852.3
525.995	29050.95
526.197	28633.16
526.398	28913.73
526.6	29085.76
526.801	29429.82
527.003	29694.01
527.204	29667.39
527.406	30021.69
527.607	29616.19
527.808	29995.06
528.01	29646.91
528.211	29976.63
528.412	30554.16
528.614	30521.39
528.815	30023.73
529.016	30609.45
529.218	30609.45
529.419	30507.05
529.62	30685.23
529.822	30775.34
530.023	30910.5
530.224	31008.81
530.425	30750.76
530.626	30912.55
530.828	30715.95
531.029	31604.77
531.23	31211.56
531.431	31211.56
531.632	31383.59
531.833	31498.27
532.035	31582.24
532.236	31395.87
532.437	31686.68
532.638	31295.52
532.839	31377.44
533.04	31565.85
533.241	31207.46
533.442	31895.58
533.643	31391.78
533.844	31641.63
534.045	31739.93
534.246	31445.02
534.447	31801.37
534.648	31856.67
534.849	31545.37
535.05	31574.05
535.251	31830.04
535.451	31875.1
535.652	31914.01
535.853	31518.75
536.054	31979.54
536.255	31866.91
536.456	31469.6
536.657	32317.46
536.857	31827.99
537.058	31907.87
537.259	31963.16
537.46	31868.95
537.66	31690.78
537.861	32022.55
538.062	31428.64
538.263	32325.65
538.463	31770.65
538.664	31619.1
538.865	31850.52
539.065	32065.56
539.266	31572
539.466	31864.86
539.667	31852.57
539.868	32055.32
540.068	31723.55
540.269	31987.74
540.469	31893.53
540.67	31948.82
540.87	31797.27
541.071	31815.71
541.271	32116.76
541.472	31864.86
541.672	31930.39
541.873	31793.18
542.073	31137.83
542.274	31864.86
542.474	31911.96
542.675	31508.51
542.875	32069.65
543.075	32034.84
543.276	31438.88
543.476	32036.89
543.676	31688.73
543.877	31680.54
544.077	31592.48
544.277	31662.11
544.478	31596.57
544.678	32108.57
544.878	31592.48
545.078	31713.31
545.279	31649.82
545.479	31250.47
545.679	31737.88
545.879	31703.07
546.079	31508.51
546.28	31569.95
546.48	31068.2
546.68	31725.6
546.88	31733.79
547.08	31211.56
547.28	31352.87
547.48	31221.8
547.68	31514.66
547.88	31299.62
548.081	31592.48
548.281	31748.12
548.481	31270.95
548.681	31500.32
548.881	31535.13
549.081	31447.07
549.28	31336.48
549.48	31844.38
549.68	31330.34
549.88	31754.27
550.08	31291.43
550.28	31528.99
550.48	31354.91
550.68	31733.79
550.88	31094.82
551.08	31707.16
551.279	31084.58
551.479	31088.68
551.679	31053.86
551.879	31223.84
552.079	31299.62
552.278	31442.98
552.478	31275.04
552.678	31262.75
552.878	31526.94
553.077	31256.61
553.277	31197.22
553.477	31866.91
553.676	31057.96
553.876	31236.13
554.076	31186.98
554.275	31076.39
554.475	30844.97
554.674	31033.38
554.874	30859.31
555.074	30914.6
555.273	31193.12
555.473	31342.63
555.672	30722.09
555.872	30922.79
556.071	31002.66
556.271	31162.4
556.47	30894.12
556.67	30384.18
556.869	30591.02
557.068	30842.92
557.268	30599.21
557.467	30734.38
557.667	30677.04
557.866	30533.68
558.065	30388.27
558.265	30388.27
558.464	30240.82
558.663	30650.41
558.863	30056.5
559.062	30513.2
559.261	29866.04
559.461	30343.22
559.66	29841.46
559.859	30236.72
560.058	29927.48
560.258	30091.32
560.457	29399.1
560.656	30097.46
560.855	29802.55
561.054	29878.33
561.253	29460.54
561.453	30191.67
561.652	29638.72
561.851	29536.32
562.05	29534.27
562.249	29182.02
562.448	29845.56
562.647	29476.93
562.846	29429.82
563.045	29374.53
563.244	29098.05
563.443	29433.92
563.642	28897.35
563.841	29050.95
564.04	28885.06
564.239	29114.44
564.438	28778.57
564.637	29048.9
564.836	28940.36
565.035	28889.16
565.234	28606.54
565.432	28774.47
565.631	28571.72
565.83	28659.79
566.029	28258.38
566.228	28528.72
566.427	28289.1
566.625	27983.96
566.824	27856.98
567.023	28266.58
567.222	28151.89
567.42	28522.57
567.619	27863.13
567.818	27977.81
568.016	27701.34
568.215	27979.86
568.414	27977.81
568.612	27521.12
568.811	27150.43
569.01	27510.88
569.208	27357.28
569.407	27320.42
569.605	26953.83
569.804	27371.61
570.002	26968.16
570.201	27050.08
570.4	27019.36
570.598	27211.87
570.797	26648.68
570.995	26857.57
571.193	26607.72
571.392	26931.3
571.59	26400.88
571.789	26474.6
571.987	26374.25
572.186	26398.83
572.384	26175.6
572.582	26382.45
572.781	26118.26
572.979	25942.13
573.177	25845.88
573.376	26093.68
573.574	25649.27
573.772	25735.29
573.971	25694.33
574.169	25587.83
574.367	25413.76
574.565	25518.2
574.763	25405.56
574.962	25503.87
575.16	25354.37
575.358	25290.88
575.556	24950.92
575.754	25354.37
575.952	24916.1
576.151	25124.99
576.349	24780.93
576.547	24866.95
576.745	24703.11
576.943	24893.57
577.141	24643.72
577.339	24610.95
577.537	24535.18
577.735	24580.23
577.933	24170.64
578.131	24561.8
578.329	24180.88
578.527	24119.44
578.725	24223.89
578.923	24662.15
579.121	23885.97
579.319	23967.89
579.516	24207.5
579.714	23982.23
579.912	23789.72
580.11	23566.49
580.308	23404.7
580.506	23726.23
580.704	23191.71
580.901	23527.58
581.099	23656.6
581.297	23373.98
581.495	23093.41
581.692	23484.57
581.89	23050.4
582.088	23236.77
582.285	23154.85
582.483	23253.15
582.681	23044.26
582.878	22911.14
583.076	22429.87
583.274	23044.26
583.471	22626.47
583.669	22843.56
583.866	22423.72
584.064	22739.11
584.262	22296.75
584.459	22657.19
584.657	22257.84
584.854	22278.32
585.052	22048.94
585.249	21885.11
585.447	22057.14
585.644	21598.39
585.841	21795
586.039	22200.49
586.236	21737.65
586.434	22069.42
586.631	21651.64
586.828	21733.56
587.026	21407.93
587.223	21569.72
587.42	21176.51
587.618	21399.74
587.815	21352.63
588.012	21272.76
588.21	21067.97
588.407	21240
588.604	21231.8
588.801	20732.1
588.999	20834.5
589.196	20875.46
589.393	20717.76
589.59	20605.13
589.787	20738.24
589.984	20680.9
590.182	20601.03
590.379	20685
590.576	20379.85
590.773	20213.96
590.97	20080.85
591.167	20512.97
591.364	19949.78
591.561	20232.4
591.758	19955.92
591.955	20248.78
592.152	20465.86
592.349	20072.65
592.546	20070.61
592.743	19874
592.94	19507.41
593.137	19919.06
593.334	19878.1
593.531	19495.13
593.727	19411.16
593.924	19835.09
594.121	19243.23
594.318	19409.11
594.515	19370.2
594.712	19382.49
594.908	19335.38
595.105	19175.64
595.302	19011.81
595.499	19089.63
595.696	19085.53
595.892	18864.35
596.089	18639.08
596.286	18987.23
596.482	18966.75
596.679	18841.82
596.876	19069.15
597.072	18512.1
597.269	18665.7
597.466	18397.42
597.662	18335.98
597.859	18624.74
598.055	18266.35
598.252	18331.88
598.448	18356.46
598.645	18227.43
598.841	18024.68
599.038	18213.1
599.234	17959.15
599.431	17993.97
599.627	18092.27
599.824	17914.09
600.02	17721.59
600.217	17787.12
600.413	17721.59
600.609	17494.26
600.806	17611
601.002	17531.12
601.198	17107.19
601.395	17479.93
601.591	17076.48
601.787	17410.29
601.984	17316.09
602.18	17283.32
602.376	17277.18
602.572	17103.1
602.769	17105.15
602.965	16947.45
603.161	16898.3
603.357	16689.41
603.553	16701.7
603.75	16677.12
603.946	16691.46
604.142	16808.19
604.338	16423.17
604.534	16529.67
604.73	16453.89
604.926	16234.76
605.122	16691.46
605.318	16531.72
605.514	16124.17
605.71	16089.35
605.906	16253.19
606.102	16101.64
606.298	16228.62
606.494	16158.99
606.69	16083.21
606.886	16130.31
607.082	15986.96
607.278	15784.21
607.474	15681.81
607.67	15911.18
607.866	15642.9
608.062	15831.31
608.257	15737.1
608.453	15808.78
608.649	15741.2
608.845	15515.92
609.041	15468.82
609.236	15667.47
609.432	15663.38
609.628	15374.61
609.824	15368.47
610.019	15229.21
610.215	15257.88
610.411	15345.94
610.606	15210.78
610.802	15294.74
610.998	15393.05
611.193	15221.02
611.389	15364.37
611.584	15159.58
611.78	15143.19
611.976	15216.92
612.171	15063.32
612.367	14868.77
612.562	14985.5
612.758	14643.49
612.953	14842.14
613.149	14975.26
613.344	14506.27
613.539	14856.48
613.735	14899.48
613.93	14848.29
614.126	14715.17
614.321	15044.89
614.517	14493.99
614.712	14754.08
614.907	14483.75
615.103	14559.52
615.298	14711.07
615.493	14657.82
615.688	14289.19
615.884	14647.58
616.079	14338.34
616.274	14604.58
616.47	14539.04
616.665	14387.49
616.86	14340.39
617.055	14303.53
617.25	14395.68
617.445	14375.2
617.641	13877.55
617.836	14264.61
618.031	14016.81
618.226	14143.78
618.421	13818.16
618.616	13926.7
618.811	13762.86
619.006	13818.16
619.201	13601.07
619.396	13859.12
619.591	13441.33
619.786	13617.46
619.981	13416.76
620.176	13504.82
620.371	13566.26
620.566	13570.35
620.761	13328.69
620.956	13465.91
621.151	13044.02
621.346	13304.12
621.541	13218.1
621.735	13205.81
621.93	13027.64
622.125	12982.59
622.32	13089.08
622.515	12798.27
622.709	12804.41
622.904	12849.47
623.099	12468.55
623.294	12773.69
623.488	12478.79
623.683	12691.77
623.878	12400.96
624.072	12448.07
624.267	12153.16
624.462	12335.43
624.656	12173.64
624.851	12028.23
625.046	12007.75
625.24	12052.81
625.435	11807.05
625.629	11784.52
625.824	11997.51
626.018	11796.81
626.213	11272.53
626.407	11430.23
626.602	11450.71
626.796	11567.44
626.991	11516.24
627.185	11295.06
627.38	11460.95
627.574	11323.73
627.768	11090.26
627.963	11120.98
628.157	11028.82
628.352	11071.83
628.546	10840.41
628.74	11055.45
628.935	10846.55
629.129	10932.57
629.323	10639.71
629.517	10520.93
629.712	10731.87
629.906	10418.53
630.1	10533.22
630.294	10465.63
630.489	10299.75
630.683	10381.67
630.877	10252.64
631.071	10326.37
631.265	10283.36
631.459	10002.79
631.653	9877.87
631.848	10013.03
632.042	10135.91
632.236	9914.73
632.43	9765.23
632.624	10004.84
632.818	9810.28
633.012	9730.41
633.206	9673.07
633.4	9740.65
633.594	9445.74
633.788	9406.83
633.982	9703.79
634.176	9718.12
634.369	9120.12
634.563	9318.77
634.757	9214.32
634.951	9238.9
635.145	9206.13
635.339	9277.81
635.533	9023.86
635.726	9073.01
635.92	9079.16
636.114	8960.38
636.308	8907.13
636.501	8853.88
636.695	8731
636.889	8831.35
637.083	8671.61
637.276	8681.85
637.47	8610.17
637.664	8671.61
637.857	8370.56
638.051	8530.3
638.244	8438.14
638.438	8503.68
638.632	8176
638.825	8245.63
639.019	8253.83
639.212	8108.42
639.406	8171.91
639.599	8302.98
639.793	8335.74
639.986	8051.08
640.18	8051.08
640.373	8073.6
640.567	7922.06
640.76	7793.03
640.954	7684.49
641.147	7715.21
641.34	7655.82
641.534	7813.51
641.727	7532.94
641.92	7639.44
642.114	7680.39
642.307	7594.38
642.5	7541.13
642.694	7393.68
642.887	7297.42
643.08	7418.25
643.273	7328.14
643.467	7201.17
643.66	7156.11
643.853	7278.99
644.046	7238.03
644.239	7266.71
644.432	7178.64
644.626	7086.48
644.819	7023
645.012	7014.8
645.205	7025.04
645.398	6943.13
645.591	6853.02
645.784	6873.5
645.977	6812.06
646.17	6818.2
646.363	6846.87
646.556	6627.74
646.749	6683.03
646.942	6719.9
647.135	6726.04
647.328	6392.22
647.521	6592.92
647.714	6422.94
647.907	6402.46
648.099	6461.85
648.292	6414.75
648.485	6355.36
648.678	6429.09
648.871	6226.34
649.064	6089.12
649.256	6224.29
649.449	6103.46
649.642	6156.71
649.835	6064.55
650.027	6205.86
650.22	6148.51
650.413	5927.33
650.605	5913
650.798	5994.92
650.991	6017.44
651.183	6009.25
651.376	5888.42
651.568	5814.7
651.761	5833.13
651.954	5771.69
652.146	5697.96
652.339	5808.55
652.531	5564.84
652.724	5634.47
652.916	5568.94
653.109	5644.71
653.301	5534.12
653.494	5548.46
653.686	5480.88
653.879	5560.75
654.071	5585.32
654.263	5341.61
654.456	5394.86
654.648	5419.44
654.84	5353.9
655.033	5462.44
655.225	5351.85
655.417	5300.66
655.61	5214.64
655.802	5323.18
655.994	5087.67
656.186	5271.98
656.379	5116.34
656.571	5288.37
656.763	5214.64
656.955	5030.32
657.148	5015.99
657.34	4962.74
657.532	4958.64
657.724	4915.64
657.916	4878.77
658.108	4897.21
658.3	4848.05
658.492	4872.63
658.684	4886.97
658.876	4762.04
659.068	4827.57
659.26	4690.36
659.452	4833.72
659.644	4637.11
659.836	4690.36
660.028	4624.83
660.22	4590.01
660.412	4510.14
660.604	4555.19
660.796	4561.34
660.988	4655.54
661.18	4514.24
661.372	4444.6
661.563	4430.27
661.755	4420.03
661.947	4444.6
662.139	4346.3
662.331	4381.12
662.522	4284.86
662.714	4362.69
662.906	4354.49
663.097	4155.84
663.289	4342.21
663.481	4268.48
663.673	4223.42
663.864	4164.03
664.056	4276.67
664.247	4098.5
664.439	4086.21
664.631	4047.3
664.822	4082.11
665.014	4067.78
665.205	4116.93
665.397	3959.24
665.588	3975.62
665.78	4004.29
665.971	3918.28
666.163	3959.24
666.354	3844.55
666.546	3856.84
666.737	3973.57
666.929	3832.26
667.12	3729.86
667.311	3760.58
667.503	3893.7
667.694	3858.89
667.885	3742.15
668.077	3676.62
668.268	3740.1
668.459	3652.04
668.651	3643.85
668.842	3582.41
669.033	3649.99
669.224	3547.59
669.416	3643.85
669.607	3707.34
669.798	3516.87
669.989	3654.09
670.18	3484.11
670.371	3568.07
670.563	3555.79
670.754	3678.66
670.945	3514.83
671.136	3469.77
671.327	3404.24
671.518	3426.76
671.709	3299.79
671.9	3412.43
672.091	3383.76
672.282	3539.4
672.473	3367.37
672.664	3375.56
672.855	3336.65
673.046	3217.87
673.237	3307.98
673.428	3279.31
673.619	3236.3
673.809	3215.82
674	3209.68
674.191	3422.67
674.382	3258.83
674.573	3162.58
674.764	3140.05
674.954	3164.62
675.145	3201.49
675.336	3162.58
675.527	3072.47
675.717	3051.99
675.908	3172.82
676.099	3082.7
676.289	3127.76
676.48	3078.61
676.671	2935.25
676.861	3027.41
677.052	2769.37
677.243	2929.11
677.433	3006.93
677.624	2994.64
677.814	2990.55
678.005	3056.08
678.195	3094.99
678.386	2970.07
678.576	2908.63
678.767	2933.2
678.957	3047.89
679.148	2892.24
679.338	2957.78
679.529	2912.72
679.719	2855.38
679.909	2890.2
680.1	2800.09
680.29	2947.54
680.481	2994.64
680.671	2746.84
680.861	2900.44
681.052	2703.83
681.242	2810.33
681.432	2863.57
681.622	2736.6
681.813	2773.46
682.003	2767.32
682.193	2722.26
682.383	2775.51
682.573	2714.07
682.764	2628.06
682.954	2693.59
683.144	2941.4
683.334	2722.26
683.524	2681.3
683.714	2681.3
683.904	2607.58
684.094	2652.63
684.284	2673.11
684.474	2576.86
684.664	2699.73
684.854	2695.64
685.044	2679.26
685.234	2646.49
685.424	2564.57
685.614	2519.51
685.804	2669.02
685.994	2535.9
686.184	2671.06
686.374	2443.74
686.564	2519.51
686.753	2507.23
686.943	2601.43
687.133	2515.42
687.323	2562.52
687.513	2636.25
687.702	2413.02
687.892	2474.46
688.082	2474.46
688.272	2390.49
688.461	2476.51
688.651	2402.78
688.841	2456.03
689.03	2462.17
689.22	2376.16
689.41	2349.53
689.599	2324.96
689.789	2367.96
689.979	2347.48
690.168	2286.05
690.358	2443.74
690.547	2314.72
690.737	2339.29
690.926	2185.69
691.116	2169.31
691.305	2224.61
691.495	2300.38
691.684	2253.28
691.874	2193.89
692.063	2279.9
692.252	2353.63
692.442	2195.93
692.631	2275.81
692.82	2193.89
693.01	2275.81
693.199	2146.78
693.388	2177.5
693.578	2171.36
693.767	2255.33
693.956	2169.31
694.146	2216.41
694.335	2177.5
694.524	2179.55
694.713	2183.65
694.902	2107.87
695.092	2079.2
695.281	2083.3
695.47	2132.45
695.659	2140.64
695.848	2142.69
696.037	2101.73
696.226	2136.54
696.415	2148.83
696.604	2159.07
696.793	2017.76
696.982	2054.62
697.171	2171.36
697.36	2218.46
697.549	2101.73
697.738	2079.2
697.927	2126.3
698.116	2140.64
698.305	1972.71
698.494	2030.05
698.683	1972.71
698.872	2204.13
699.061	2179.55
699.25	2066.91
699.438	2171.36
699.627	2136.54
699.816	2150.88
700.005	2040.29
700.193	2142.69
700.382	2101.73
700.571	2099.68
700.76	2044.38
700.948	1948.13
701.137	2097.63
701.326	1997.28
701.514	2028
701.703	2062.82
701.892	1995.23
702.08	2079.2
702.269	2134.5
702.457	2173.41
702.646	2048.48
702.834	1954.27
703.023	2114.02
703.212	2169.31
703.4	2021.86
703.589	2017.76
703.777	2118.11
703.965	2064.86
704.154	2038.24
704.342	2052.58
704.531	2060.77
704.719	2052.58
704.907	2095.58
705.096	1987.04
705.284	2052.58
705.472	2122.21
705.661	2005.47
705.849	2073.06
706.037	2062.82
706.226	2095.58
706.414	2017.76
706.602	1999.33
706.79	2030.05
706.979	1966.56
707.167	2079.2
707.355	2030.05
707.543	2079.2
707.731	2071.01
707.919	1892.84
708.107	1974.75
708.296	2062.82
708.484	2048.48
708.672	2017.76
708.86	1991.14
709.048	1886.69
709.236	2044.38
709.424	2034.14
709.612	1982.95
709.8	2068.96
709.988	2007.52
710.176	2062.82
710.364	1984.99
710.551	1984.99
710.739	2132.45
710.927	2130.4
711.115	2003.43
711.303	1978.85
711.491	1999.33
711.679	1825.25
711.866	2013.67
712.054	1972.71
712.242	2152.93
712.43	2167.26
712.617	1970.66
712.805	2134.5
712.993	1950.18
713.181	2003.43
713.368	1987.04
713.556	2034.14
713.744	1855.97
713.931	2005.47
714.119	2003.43
714.306	2120.16
714.494	1991.14
714.682	1976.8
714.869	1978.85
715.057	1909.22
715.244	2087.39
715.432	1991.14
715.619	2050.53
715.807	2040.29
715.994	1964.51
716.182	2019.81
716.369	1937.89
716.556	2015.71
716.744	2023.91
716.931	1862.12
717.119	2040.29
717.306	1937.89
717.493	1937.89
717.681	1980.9
717.868	1993.19
718.055	1954.27
718.242	1987.04
718.43	1995.23
718.617	2054.62
718.804	1958.37
718.991	2021.86
719.179	1923.55
719.366	1880.55
719.553	2009.57
719.74	1999.33
719.927	1972.71
720.114	2017.76
720.301	1925.6
720.488	1784.29
720.676	1917.41
720.863	1931.75
721.05	1960.42
721.237	1898.98
721.424	1929.7
721.611	1946.08
721.798	1982.95
721.985	1952.23
722.172	1825.25
722.358	1919.46
722.545	1901.03
722.732	1901.03
722.919	1806.82
723.106	2116.06
723.293	1858.02
723.48	2003.43
723.667	1872.36
723.853	1849.83
724.04	1950.18
724.227	1851.88
724.414	1933.79
724.6	1864.16
724.787	1925.6
724.974	1946.08
725.161	1995.23
725.347	1892.84
725.534	1872.36
725.72	1835.49
725.907	1939.94
726.094	1788.39
726.28	1860.07
726.467	1882.6
726.653	1917.41
726.84	1898.98
727.027	1989.09
727.213	1829.35
727.4	1966.56
727.586	1950.18
727.773	1946.08
727.959	1888.74
728.145	1917.41
728.332	1913.31
728.518	1911.27
728.705	1901.03
728.891	1804.77
729.077	1778.15
729.264	1937.89
729.45	1931.75
729.636	1804.77
729.823	1743.33
730.009	1892.84
730.195	1860.07
730.382	1737.19
730.568	1845.73
730.754	1933.79
730.94	1864.16
731.126	1862.12
731.313	1894.88
731.499	1784.29
731.685	1800.68
731.871	1833.44
732.057	1827.3
732.243	1835.49
732.429	1982.95
732.615	1810.92
732.801	1870.31
732.987	1958.37
733.173	1860.07
733.359	1827.3
733.545	1823.2
733.731	1774.05
733.917	1825.25
734.103	1960.42
734.289	1860.07
734.475	1855.97
734.661	1860.07
734.847	1821.16
735.033	1765.86
735.219	1845.73
735.404	1741.29
735.59	1774.05
735.776	1905.12
735.962	1763.81
736.148	1819.11
736.333	1757.67
736.519	1718.76
736.705	1718.76
736.89	1776.1
737.076	1751.53
737.262	1632.74
737.447	1724.9
737.633	1716.71
737.819	1743.33
738.004	1761.77
738.19	1790.44
738.375	1692.13
738.561	1737.19
738.747	1745.38
738.932	1784.29
739.118	1655.27
739.303	1675.75
739.489	1708.52
739.674	1810.92
739.859	1720.81
740.045	1675.75
740.23	1772
740.416	1628.65
740.601	1700.33
740.786	1753.57
740.972	1698.28
741.157	1753.57
741.342	1628.65
741.528	1683.94
741.713	1663.46
741.898	1671.65
742.084	1722.85
742.269	1737.19
742.454	1688.04
742.639	1599.98
742.824	1634.79
743.01	1647.08
743.195	1632.74
743.38	1675.75
743.565	1733.09
743.75	1597.93
743.935	1540.58
744.12	1638.89
744.305	1604.07
744.49	1585.64
744.675	1565.16
744.86	1491.43
745.045	1565.16
745.23	1561.06
745.415	1497.58
745.6	1538.54
745.785	1473
745.97	1569.26
746.155	1585.64
746.34	1610.22
746.525	1386.99
746.71	1522.15
746.895	1489.39
747.079	1499.63
747.264	1452.52
747.449	1429.99
747.634	1466.86
747.819	1479.15
748.003	1419.75
748.188	1358.32
748.373	1354.22
748.557	1380.84
748.742	1403.37
748.927	1354.22
749.111	1368.56
749.296	1438.19
749.481	1364.46
749.665	1292.78
749.85	1370.6
750.034	1350.12
750.219	1303.02
750.404	1325.55
750.588	1372.65
750.773	1327.6
750.957	1274.35
751.141	1239.53
751.326	1262.06
751.51	1202.67
751.695	1339.88
751.879	1253.87
752.064	1290.73
752.248	1133.04
752.432	1309.16
752.617	1223.15
752.801	1223.15
752.985	1090.03
753.17	1221.1
753.354	1200.62
753.538	1298.92
753.722	1098.22
753.907	1214.96
754.091	1069.55
754.275	1219.05
754.459	1143.28
754.643	1225.2
754.828	1169.9
755.012	1171.95
755.196	1118.7
755.38	1075.7
755.564	1206.77
755.748	1051.12
755.932	1110.51
756.116	1151.47
756.3	1143.28
756.484	989.68
756.668	1094.13
756.852	1053.17
757.036	985.58
757.22	1006.06
757.404	936.43
757.588	1067.5
757.772	1059.31
757.956	1022.45
758.14	1130.99
758.323	989.68
758.507	993.78
758.691	1018.35
758.875	997.87
759.059	936.43
759.242	1042.93
759.426	1122.8
759.61	999.92
759.794	1028.59
759.977	979.44
760.161	958.96
760.345	983.54
760.528	985.58
760.712	872.95
760.895	911.86
761.079	901.62
761.263	901.62
761.446	911.86
761.63	858.61
761.813	911.86
761.997	866.8
762.18	954.87
762.364	866.8
762.547	850.42
762.731	879.09
762.914	788.98
763.098	829.94
763.281	834.04
763.464	782.84
763.648	961.01
763.831	887.28
764.015	821.75
764.198	864.75
764.381	774.64
764.564	829.94
764.748	782.84
764.931	807.41
765.114	801.27
765.297	860.66
765.481	807.41
765.664	768.5
765.847	737.78
766.03	768.5
766.213	729.59
766.397	844.28
766.58	838.13
766.763	879.09
766.946	809.46
767.129	709.11
767.312	791.03
767.495	782.84
767.678	786.93
767.861	885.23
768.044	786.93
768.227	823.8
768.41	672.25
768.593	834.04
768.776	766.45
768.959	739.83
769.142	803.32
769.324	758.26
769.507	799.22
769.69	723.44
769.873	877.04
770.056	752.12
770.239	811.51
770.421	795.12
770.604	797.17
770.787	766.45
770.97	788.98
771.152	711.16
771.335	721.4
771.518	692.73
771.7	709.11
771.883	745.97
772.066	707.06
772.248	713.21
772.431	764.4
772.613	692.73
772.796	655.86
772.978	725.49
773.161	651.77
773.343	682.49
773.526	680.44
773.708	643.57
773.891	707.06
774.073	643.57
774.256	606.71
774.438	715.25
774.621	582.14
774.803	659.96
774.985	633.33
775.168	614.9
775.35	670.2
775.532	592.37
775.715	643.57
775.897	612.85
776.079	563.7
776.261	641.53
776.444	592.37
776.626	578.04
776.808	551.42
776.99	627.19
777.173	649.72
777.355	619
777.537	580.09
777.719	524.79
777.901	641.53
778.083	567.8
778.265	541.18
778.447	571.9
778.629	522.74
778.811	489.98
778.993	606.71
779.175	553.46
779.357	584.18
779.539	528.89
779.721	549.37
779.903	530.94
780.085	520.7
780.267	571.9
780.449	551.42
780.631	498.17
780.812	575.99
780.994	500.22
781.176	436.73
781.358	426.49
781.54	528.89
781.721	426.49
781.903	471.54
782.085	510.46
782.267	475.64
782.448	524.79
782.63	489.98
782.812	543.22
782.993	516.6
783.175	475.64
783.357	385.53
783.538	543.22
783.72	473.59
783.901	479.74
784.083	516.6
784.264	416.25
784.446	463.35
784.627	371.19
784.809	418.3
784.99	459.26
785.172	430.59
785.353	420.35
785.535	416.25
785.716	449.02
785.897	420.35
786.079	438.78
786.26	371.19
786.441	418.3
786.623	373.24
786.804	418.3
786.985	356.86
787.167	393.72
787.348	363
787.529	424.44
787.71	356.86
787.891	383.48
788.073	332.28
788.254	350.71
788.435	391.67
788.616	330.23
788.797	309.76
788.978	369.15
789.159	256.51
789.34	340.47
789.522	350.71
789.703	307.71
789.884	381.43
790.065	291.32
790.246	356.86
790.427	336.38
790.607	371.19
790.788	377.34
790.969	219.64
791.15	367.1
791.331	274.94
791.512	348.67
791.693	315.9
791.874	250.36
792.054	266.75
792.235	315.9
792.416	274.94
792.597	262.65
792.778	324.09
792.958	336.38
793.139	307.71
793.32	317.95
793.5	336.38
793.681	305.66
793.862	219.64
794.042	293.37
794.223	240.12
794.404	326.14
794.584	299.52
794.765	281.08
794.945	266.75
795.126	299.52
795.306	346.62
795.487	289.28
795.667	262.65
795.848	233.98
796.028	311.8
796.209	248.32
796.389	231.93
796.57	291.32
796.75	233.98
796.93	266.75
797.111	229.88
797.291	311.8
797.471	281.08
797.652	197.12
797.832	244.22
798.012	309.76
798.192	236.03
798.373	256.51
798.553	250.36
798.733	221.69
798.913	174.59
799.093	203.26
799.274	246.27
799.454	223.74
799.634	281.08
799.814	295.42
799.994	246.27
800.174	217.6
800.354	184.83
800.534	221.69
800.714	180.73
800.894	248.32
801.074	188.93
801.254	258.56
801.434	170.49
801.614	176.64
801.794	262.65
801.974	610.81
802.154	246.27
802.334	303.61
802.514	168.45
802.693	176.64
802.873	168.45
803.053	248.32
803.233	209.4
803.413	205.31
803.592	199.16
803.772	168.45
803.952	178.69
804.131	256.51
804.311	217.6
804.491	219.64
804.67	176.64
804.85	113.15
805.03	168.45
805.209	201.21
805.389	213.5
805.568	231.93
805.748	174.59
805.928	154.11
806.107	111.1
806.287	180.73
806.466	199.16
806.646	184.83
806.825	178.69
807.004	219.64
807.184	256.51
807.363	119.29
807.543	223.74
807.722	172.54
807.901	293.37
808.081	211.45
808.26	84.48
808.439	133.63
808.619	229.88
808.798	221.69
808.977	231.93
809.156	201.21
809.336	150.01
809.515	150.01
809.694	135.68
809.873	133.63
810.052	293.37
810.231	145.92
810.411	94.72
810.59	156.16
810.769	166.4
810.948	238.08
811.127	100.86
811.306	135.68
811.485	147.97
811.664	184.83
811.843	127.49
812.022	193.02
812.201	248.32
812.38	166.4
812.559	123.39
812.737	174.59
812.916	119.29
813.095	119.29
813.274	147.97
813.453	158.21
813.632	178.69
813.811	176.64
813.989	141.82
814.168	209.4
814.347	139.77
814.526	156.16
814.704	188.93
814.883	238.08
815.062	102.91
815.24	119.29
815.419	129.53
815.598	207.36
815.776	111.1
815.955	164.35
816.133	174.59
816.312	90.62
816.49	156.16
816.669	229.88
816.847	211.45
817.026	125.44
817.204	104.96
817.383	147.97
817.561	137.73
817.74	129.53
817.918	150.01
818.097	59.9
818.275	76.29
818.453	180.73
818.632	139.77
818.81	135.68
818.988	137.73
819.167	70.14
819.345	121.34
819.523	117.25
819.701	182.78
819.879	154.11
820.058	102.91
820.236	96.77
820.414	78.33
820.592	94.72
820.77	158.21
820.948	154.11
821.127	180.73
821.305	111.1
821.483	158.21
821.661	160.25
821.839	164.35
822.017	98.81
822.195	57.86
822.373	150.01
822.551	139.77
822.729	147.97
822.907	98.81
823.085	156.16
823.262	170.49
823.44	160.25
823.618	133.63
823.796	129.53
823.974	76.29
824.152	123.39
824.329	94.72
824.507	150.01
824.685	119.29
824.863	113.15
825.04	152.06
825.218	121.34
825.396	164.35
825.574	51.71
825.751	107.01
825.929	180.73
826.107	162.3
826.284	111.1
826.462	70.14
826.639	55.81
826.817	39.42
826.994	139.77
827.172	90.62
827.349	82.43
827.527	158.21
827.704	66.05
827.882	90.62
828.059	152.06
828.237	102.91
828.414	98.81
828.591	53.76
828.769	137.73
828.946	-17.92
829.124	121.34
829.301	86.53
829.478	119.29
829.655	29.18
829.833	74.24
830.01	92.67
830.187	139.77
830.364	137.73
830.542	104.96
830.719	182.78
830.896	94.72
831.073	66.05
831.25	6.66
831.427	100.86
831.604	88.57
831.782	78.33
831.959	139.77
832.136	33.28
832.313	98.81
832.49	145.92
832.667	72.19
832.844	109.05
833.021	107.01
833.198	141.82
833.374	82.43
833.551	115.2
833.728	80.38
833.905	115.2
834.082	64
834.259	76.29
834.436	66.05
834.612	39.42
834.789	43.52
834.966	96.77
835.143	57.86
835.319	57.86
835.496	94.72
835.673	57.86
835.85	98.81
836.026	111.1
836.203	88.57
836.38	8.7
836.556	80.38
836.733	111.1
836.909	49.66
837.086	84.48
837.262	49.66
837.439	35.33
837.616	41.47
837.792	41.47
837.968	92.67
838.145	82.43
838.321	51.71
838.498	6.66
838.674	143.87
838.851	76.29
839.027	2.56
839.203	59.9
839.38	66.05
839.556	14.85
839.732	74.24
839.909	70.14
840.085	88.57
840.261	90.62
840.437	47.62
840.614	49.66
840.79	94.72
840.966	78.33
841.142	82.43
841.318	39.42
841.494	107.01
841.671	70.14
841.847	84.48
842.023	82.43
842.199	127.49
842.375	55.81
842.551	-7.68
842.727	68.09
842.903	82.43
843.079	10.75
843.255	76.29
843.431	78.33
843.607	68.09
843.783	80.38
843.959	115.2
844.134	25.09
844.31	70.14
844.486	4.61
844.662	23.04
844.838	82.43
845.013	100.86
845.189	41.47
845.365	43.52
845.541	43.52
845.716	49.66
845.892	20.99
846.068	64
846.244	51.71
846.419	37.38
846.595	41.47
846.77	35.33
846.946	135.68
847.122	64
847.297	70.14
847.473	86.53
847.648	31.23
847.824	123.39
847.999	8.7
848.175	33.28
848.35	49.66
848.526	51.71
848.701	33.28
848.876	86.53
849.052	53.76
849.227	61.95
849.403	94.72
849.578	80.38
849.753	94.72
849.929	96.77
850.104	90.62
850.279	66.05
850.454	70.14
850.63	59.9
850.805	111.1
850.98	25.09
851.155	-9.73
851.33	82.43
851.505	80.38
851.681	27.14
851.856	23.04
852.031	129.53
852.206	-13.82
852.381	98.81
852.556	29.18
852.731	-13.82
852.906	12.8
853.081	55.81
853.256	139.77
853.431	66.05
853.606	-7.68
853.781	45.57
853.956	59.9
854.131	80.38
854.305	45.57
854.48	117.25
854.655	-44.54
854.83	23.04
855.005	29.18
855.18	88.57
855.354	16.9
855.529	66.05
855.704	70.14
855.879	-11.78
856.053	31.23
856.228	76.29
856.403	109.05
856.577	86.53
856.752	45.57
856.926	-44.54
857.101	100.86
857.276	86.53
857.45	127.49
857.625	31.23
857.799	-1.54
857.974	96.77
858.148	18.94
858.323	76.29
858.497	25.09
858.672	-1.54
858.846	4.61
859.02	70.14
859.195	41.47
859.369	37.38
859.543	-7.68
859.718	74.24
859.892	111.1
860.066	8.7
860.241	47.62
860.415	64
860.589	74.24
860.763	25.09
860.938	-17.92
861.112	45.57
861.286	72.19
861.46	129.53
861.634	61.95
861.808	6.66
861.982	25.09
862.157	86.53
862.331	82.43
862.505	82.43
862.679	39.42
862.853	84.48
863.027	41.47
863.201	109.05
863.375	-62.98
863.549	86.53
863.722	37.38
863.896	74.24
864.07	53.76
864.244	90.62
864.418	104.96
864.592	18.94
864.766	33.28
864.939	10.75
865.113	39.42
865.287	88.57
865.461	25.09
865.634	84.48
865.808	16.9
865.982	35.33
866.156	-7.68
866.329	47.62
866.503	10.75
866.676	82.43
866.85	53.76
867.024	-11.78
867.197	98.81
867.371	23.04
867.544	88.57
867.718	25.09
867.891	66.05
868.065	18.94
868.238	10.75
868.412	70.14
868.585	72.19
868.759	59.9
868.932	-34.3
869.105	135.68
869.279	51.71
869.452	31.23
869.625	49.66
869.799	35.33
869.972	33.28
870.145	66.05
870.319	23.04
870.492	41.47
870.665	47.62
870.838	61.95
871.011	8.7
871.185	57.86
871.358	18.94
871.531	35.33
871.704	37.38
871.877	59.9
872.05	72.19
872.223	0.51
872.396	-1.54
872.569	-11.78
872.742	2.56
872.915	82.43
873.088	72.19
873.261	43.52
873.434	64
873.607	-36.35
873.78	-17.92
873.953	41.47
874.126	51.71
874.299	92.67
874.471	66.05
874.644	-7.68
874.817	104.96
874.99	59.9
875.163	29.18
875.335	72.19
875.508	-28.16
875.681	-5.63
875.853	-22.02
876.026	-19.97
876.199	-11.78
876.371	156.16
876.544	-9.73
876.717	74.24
876.889	47.62
877.062	8.7
877.234	-22.02
877.407	16.9
877.579	82.43
877.752	94.72
877.924	82.43
878.097	74.24
878.269	18.94
878.442	-22.02
878.614	41.47
878.786	74.24
878.959	49.66
879.131	88.57
879.303	12.8
879.476	55.81
879.648	61.95
879.82	18.94
879.993	16.9
880.165	16.9
880.337	-3.58
880.509	96.77
880.681	8.7
880.854	47.62
881.026	14.85
881.198	80.38
881.37	53.76
881.542	31.23
881.714	18.94
881.886	43.52
882.058	39.42
882.23	55.81
882.402	4.61
882.574	45.57
882.746	41.47
882.918	98.81
883.09	-13.82
883.262	92.67
883.434	29.18
883.606	10.75
883.778	2.56
883.95	-38.4
884.122	20.99
884.293	39.42
884.465	-7.68
884.637	94.72
884.809	41.47
884.98	74.24
885.152	23.04
885.324	35.33
885.496	-22.02
885.667	100.86
885.839	-19.97
886.011	61.95
886.182	41.47
886.354	64
886.525	37.38
886.697	23.04
886.869	78.33
887.04	-22.02
887.212	37.38
887.383	27.14
887.555	64
887.726	-19.97
887.897	47.62
888.069	45.57
888.24	2.56
888.412	115.2
888.583	18.94
888.754	49.66
888.926	-24.06
889.097	8.7
889.268	20.99
889.44	16.9
889.611	66.05
889.782	0.51
889.953	-24.06
890.125	78.33
890.296	49.66
890.467	53.76
890.638	-19.97
890.809	45.57
890.98	18.94
891.151	90.62
891.323	-5.63
891.494	53.76
891.665	61.95
891.836	102.91
892.007	29.18
892.178	-24.06
892.349	8.7
892.52	25.09
892.691	23.04
892.862	4.61
893.032	47.62
893.203	-44.54
893.374	55.81
893.545	57.86
893.716	20.99
893.887	57.86
894.057	-3.58
894.228	-34.3
894.399	37.38
894.57	70.14
894.74	-24.06
894.911	-24.06
895.082	8.7
895.253	-5.63
895.423	-15.87
895.594	10.75
895.764	45.57
895.935	59.9
896.106	31.23
896.276	78.33
896.447	-1.54
896.617	94.72
896.788	35.33
896.958	18.94
897.129	0.51
897.299	80.38
897.47	86.53
897.64	53.76
897.81	23.04
897.981	31.23
898.151	41.47
898.322	-13.82
898.492	37.38
898.662	72.19
898.832	49.66
899.003	23.04
899.173	25.09
899.343	70.14
899.513	-40.45
