Data from USB4F104151__289__11-12-59-100.txt Node

Date: Wed Mar 12 11:12:59 EDT 2025
User: louis
Spectrometer: USB4F10415
Trigger mode: 4
Integration Time (sec): 2.000000E-2
Scans to average: 1
Electric dark correction enabled: true
Nonlinearity correction enabled: false
Boxcar width: 0
XAxis mode: Wavelengths
Number of Pixels in Spectrum: 3648
>>>>>Begin Spectral Data<<<<<
178.204	-121.34
178.424	-121.34
178.644	-121.34
178.864	-41.47
179.084	-49.66
179.304	-0.51
179.524	-20.99
179.744	15.87
179.964	26.11
180.184	-72.19
180.404	26.11
180.624	13.82
180.844	42.5
181.064	-82.43
181.283	-23.04
181.503	9.73
181.723	65.02
181.943	1.54
182.163	-8.7
182.383	1.54
182.602	19.97
182.822	15.87
183.042	32.26
183.262	17.92
183.482	22.02
183.701	42.5
183.921	30.21
184.141	-6.66
184.361	-20.99
184.58	-0.51
184.8	58.88
185.02	-39.42
185.239	81.41
185.459	24.06
185.679	26.11
185.898	15.87
186.118	48.64
186.338	38.4
186.557	42.5
186.777	69.12
186.997	89.6
187.216	54.78
187.436	73.21
187.655	52.74
187.875	38.4
188.095	-55.81
188.314	42.5
188.534	128.51
188.753	77.31
188.973	5.63
189.192	-2.56
189.412	-2.56
189.631	26.11
189.851	36.35
190.07	60.93
190.29	36.35
190.509	32.26
190.729	11.78
190.948	30.21
191.168	87.55
191.387	112.13
191.607	40.45
191.826	34.3
192.045	30.21
192.265	5.63
192.484	34.3
192.704	-6.66
192.923	-14.85
193.142	50.69
193.362	11.78
193.581	52.74
193.8	9.73
194.02	36.35
194.239	-0.51
194.458	73.21
194.678	54.78
194.897	44.54
195.116	-31.23
195.335	24.06
195.555	15.87
195.774	42.5
195.993	1.54
196.212	-8.7
196.432	28.16
196.651	26.11
196.87	5.63
197.089	99.84
197.308	-0.51
197.528	1.54
197.747	1.54
197.966	54.78
198.185	58.88
198.404	99.84
198.623	-12.8
198.842	65.02
199.062	75.26
199.281	24.06
199.5	17.92
199.719	36.35
199.938	-8.7
200.157	81.41
200.376	7.68
200.595	38.4
200.814	-0.51
201.033	-59.9
201.252	71.17
201.471	87.55
201.69	60.93
201.909	42.5
202.128	-4.61
202.347	30.21
202.566	-27.14
202.785	3.58
203.004	24.06
203.223	13.82
203.442	93.69
203.661	-2.56
203.879	22.02
204.098	67.07
204.317	56.83
204.536	36.35
204.755	85.5
204.974	42.5
205.193	32.26
205.411	69.12
205.63	26.11
205.849	28.16
206.068	79.36
206.287	15.87
206.505	56.83
206.724	34.3
206.943	56.83
207.162	67.07
207.381	19.97
207.599	50.69
207.818	34.3
208.037	9.73
208.255	15.87
208.474	50.69
208.693	15.87
208.911	52.74
209.13	1.54
209.349	28.16
209.567	105.98
209.786	58.88
210.005	22.02
210.223	3.58
210.442	-51.71
210.661	17.92
210.879	32.26
211.098	26.11
211.316	26.11
211.535	-8.7
211.753	40.45
211.972	48.64
212.191	30.21
212.409	87.55
212.628	81.41
212.846	28.16
213.065	32.26
213.283	5.63
213.502	28.16
213.72	73.21
213.938	48.64
214.157	3.58
214.375	17.92
214.594	7.68
214.812	62.98
215.031	85.5
215.249	83.45
215.467	81.41
215.686	34.3
215.904	58.88
216.122	97.79
216.341	97.79
216.559	-6.66
216.778	128.51
216.996	91.65
217.214	67.07
217.432	-31.23
217.651	36.35
217.869	32.26
218.087	-18.94
218.306	13.82
218.524	11.78
218.742	30.21
218.96	11.78
219.179	-27.14
219.397	19.97
219.615	13.82
219.833	136.7
220.051	-27.14
220.27	3.58
220.488	71.17
220.706	-41.47
220.924	-23.04
221.142	13.82
221.36	40.45
221.578	36.35
221.796	42.5
222.015	1.54
222.233	24.06
222.451	-16.9
222.669	28.16
222.887	65.02
223.105	-31.23
223.323	65.02
223.541	50.69
223.759	38.4
223.977	67.07
224.195	132.61
224.413	122.37
224.631	52.74
224.849	71.17
225.067	99.84
225.285	5.63
225.503	95.74
225.721	22.02
225.939	48.64
226.157	-6.66
226.375	22.02
226.592	-10.75
226.81	5.63
227.028	112.13
227.246	120.32
227.464	19.97
227.682	-23.04
227.9	7.68
228.117	-18.94
228.335	54.78
228.553	87.55
228.771	30.21
228.989	42.5
229.206	7.68
229.424	60.93
229.642	69.12
229.86	17.92
230.077	50.69
230.295	60.93
230.513	75.26
230.731	79.36
230.948	42.5
231.166	50.69
231.384	15.87
231.601	56.83
231.819	19.97
232.037	85.5
232.254	-6.66
232.472	42.5
232.689	60.93
232.907	40.45
233.125	5.63
233.342	-59.9
233.56	36.35
233.777	124.41
233.995	-23.04
234.213	19.97
234.43	26.11
234.648	79.36
234.865	-35.33
235.083	-10.75
235.3	54.78
235.518	46.59
235.735	81.41
235.953	103.93
236.17	103.93
236.388	91.65
236.605	38.4
236.822	1.54
237.04	42.5
237.257	-10.75
237.475	13.82
237.692	75.26
237.909	22.02
238.127	15.87
238.344	42.5
238.562	83.45
238.779	-6.66
238.996	44.54
239.214	48.64
239.431	52.74
239.648	46.59
239.865	-10.75
240.083	69.12
240.3	73.21
240.517	7.68
240.735	52.74
240.952	73.21
241.169	116.22
241.386	62.98
241.603	58.88
241.821	42.5
242.038	46.59
242.255	52.74
242.472	-33.28
242.689	40.45
242.907	32.26
243.124	95.74
243.341	9.73
243.558	38.4
243.775	60.93
243.992	5.63
244.209	-10.75
244.426	50.69
244.643	52.74
244.86	-4.61
245.078	44.54
245.295	52.74
245.512	77.31
245.729	11.78
245.946	-14.85
246.163	38.4
246.38	85.5
246.597	28.16
246.814	60.93
247.031	34.3
247.248	58.88
247.464	32.26
247.681	-12.8
247.898	13.82
248.115	105.98
248.332	11.78
248.549	50.69
248.766	15.87
248.983	-0.51
249.2	13.82
249.417	69.12
249.633	-33.28
249.85	-6.66
250.067	19.97
250.284	71.17
250.501	38.4
250.717	34.3
250.934	-43.52
251.151	54.78
251.368	-27.14
251.585	62.98
251.801	28.16
252.018	-8.7
252.235	87.55
252.451	38.4
252.668	-4.61
252.885	60.93
253.102	-2.56
253.318	132.61
253.535	5.63
253.752	50.69
253.968	1.54
254.185	13.82
254.401	116.22
254.618	71.17
254.835	3.58
255.051	48.64
255.268	67.07
255.484	71.17
255.701	54.78
255.917	112.13
256.134	54.78
256.351	50.69
256.567	69.12
256.784	65.02
257	-2.56
257.217	-2.56
257.433	-2.56
257.65	9.73
257.866	-0.51
258.082	-80.38
258.299	-6.66
258.515	48.64
258.732	75.26
258.948	62.98
259.165	13.82
259.381	42.5
259.597	34.3
259.814	87.55
260.03	5.63
260.246	73.21
260.463	99.84
260.679	71.17
260.895	28.16
261.112	73.21
261.328	40.45
261.544	-45.57
261.761	42.5
261.977	-4.61
262.193	103.93
262.409	85.5
262.626	3.58
262.842	26.11
263.058	44.54
263.274	32.26
263.49	58.88
263.707	-12.8
263.923	22.02
264.139	26.11
264.355	-25.09
264.571	5.63
264.787	40.45
265.004	7.68
265.22	-33.28
265.436	-6.66
265.652	38.4
265.868	15.87
266.084	89.6
266.3	46.59
266.516	-45.57
266.732	11.78
266.948	52.74
267.164	124.41
267.38	46.59
267.596	142.85
267.812	93.69
268.028	5.63
268.244	50.69
268.46	5.63
268.676	26.11
268.892	89.6
269.108	-0.51
269.324	3.58
269.54	-43.52
269.756	42.5
269.972	-18.94
270.188	79.36
270.403	19.97
270.619	67.07
270.835	85.5
271.051	93.69
271.267	3.58
271.483	26.11
271.698	136.7
271.914	75.26
272.13	91.65
272.346	54.78
272.562	11.78
272.777	15.87
272.993	-8.7
273.209	42.5
273.425	1.54
273.64	-16.9
273.856	71.17
274.072	13.82
274.287	28.16
274.503	26.11
274.719	42.5
274.934	5.63
275.15	46.59
275.366	22.02
275.581	40.45
275.797	13.82
276.012	30.21
276.228	48.64
276.444	71.17
276.659	9.73
276.875	38.4
277.09	36.35
277.306	60.93
277.521	71.17
277.737	65.02
277.952	-39.42
278.168	-4.61
278.383	52.74
278.599	-20.99
278.814	24.06
279.03	52.74
279.245	87.55
279.461	3.58
279.676	48.64
279.892	-2.56
280.107	44.54
280.322	9.73
280.538	118.27
280.753	62.98
280.969	42.5
281.184	1.54
281.399	75.26
281.615	58.88
281.83	28.16
282.045	-25.09
282.26	54.78
282.476	-80.38
282.691	62.98
282.906	79.36
283.122	71.17
283.337	110.08
283.552	83.45
283.767	40.45
283.983	26.11
284.198	11.78
284.413	62.98
284.628	3.58
284.843	28.16
285.058	-10.75
285.274	75.26
285.489	-6.66
285.704	77.31
285.919	-59.9
286.134	85.5
286.349	56.83
286.564	60.93
286.779	114.17
286.995	97.79
287.21	87.55
287.425	48.64
287.64	97.79
287.855	17.92
288.07	79.36
288.285	30.21
288.5	87.55
288.715	5.63
288.93	67.07
289.145	30.21
289.36	108.03
289.575	-8.7
289.79	54.78
290.004	24.06
290.219	40.45
290.434	110.08
290.649	-31.23
290.864	-0.51
291.079	46.59
291.294	71.17
291.509	36.35
291.724	73.21
291.938	-23.04
292.153	-14.85
292.368	-6.66
292.583	-10.75
292.798	142.85
293.012	50.69
293.227	17.92
293.442	58.88
293.657	73.21
293.871	52.74
294.086	62.98
294.301	79.36
294.516	54.78
294.73	11.78
294.945	60.93
295.16	58.88
295.374	103.93
295.589	11.78
295.804	44.54
296.018	54.78
296.233	110.08
296.447	9.73
296.662	71.17
296.877	108.03
297.091	13.82
297.306	83.45
297.52	1.54
297.735	30.21
297.949	122.37
298.164	62.98
298.378	26.11
298.593	58.88
298.807	56.83
299.022	65.02
299.236	83.45
299.451	13.82
299.665	26.11
299.88	62.98
300.094	44.54
300.309	30.21
300.523	40.45
300.737	1.54
300.952	13.82
301.166	28.16
301.381	7.68
301.595	54.78
301.809	17.92
302.024	13.82
302.238	71.17
302.452	69.12
302.667	15.87
302.881	75.26
303.095	24.06
303.309	83.45
303.524	26.11
303.738	71.17
303.952	36.35
304.166	22.02
304.381	-2.56
304.595	17.92
304.809	1.54
305.023	32.26
305.237	50.69
305.452	24.06
305.666	7.68
305.88	-12.8
306.094	77.31
306.308	-37.38
306.522	40.45
306.736	120.32
306.95	48.64
307.164	-0.51
307.379	85.5
307.593	22.02
307.807	91.65
308.021	81.41
308.235	17.92
308.449	40.45
308.663	87.55
308.877	71.17
309.091	7.68
309.305	5.63
309.519	-0.51
309.733	93.69
309.947	24.06
310.161	91.65
310.374	73.21
310.588	99.84
310.802	42.5
311.016	19.97
311.23	24.06
311.444	128.51
311.658	9.73
311.872	13.82
312.085	22.02
312.299	99.84
312.513	87.55
312.727	32.26
312.941	-8.7
313.154	26.11
313.368	30.21
313.582	38.4
313.796	54.78
314.009	60.93
314.223	-18.94
314.437	110.08
314.651	58.88
314.864	46.59
315.078	50.69
315.292	95.74
315.505	-47.62
315.719	89.6
315.933	-35.33
316.146	30.21
316.36	-12.8
316.573	42.5
316.787	67.07
317.001	46.59
317.214	-8.7
317.428	-20.99
317.641	32.26
317.855	30.21
318.068	54.78
318.282	48.64
318.495	79.36
318.709	138.75
318.922	26.11
319.136	67.07
319.349	19.97
319.563	54.78
319.776	-39.42
319.99	28.16
320.203	108.03
320.417	-18.94
320.63	50.69
320.843	91.65
321.057	38.4
321.27	26.11
321.483	44.54
321.697	132.61
321.91	67.07
322.124	46.59
322.337	52.74
322.55	71.17
322.763	-18.94
322.977	-0.51
323.19	54.78
323.403	15.87
323.617	-14.85
323.83	50.69
324.043	91.65
324.256	15.87
324.469	-4.61
324.683	-33.28
324.896	81.41
325.109	89.6
325.322	73.21
325.535	50.69
325.748	73.21
325.962	69.12
326.175	24.06
326.388	58.88
326.601	81.41
326.814	17.92
327.027	50.69
327.24	81.41
327.453	9.73
327.666	7.68
327.879	28.16
328.092	50.69
328.305	89.6
328.518	40.45
328.731	-4.61
328.944	15.87
329.157	9.73
329.37	38.4
329.583	44.54
329.796	75.26
330.009	132.61
330.222	62.98
330.435	116.22
330.648	50.69
330.861	71.17
331.073	142.85
331.286	75.26
331.499	13.82
331.712	17.92
331.925	5.63
332.138	26.11
332.35	89.6
332.563	30.21
332.776	93.69
332.989	34.3
333.202	71.17
333.414	146.94
333.627	26.11
333.84	50.69
334.053	93.69
334.265	-23.04
334.478	36.35
334.691	79.36
334.903	52.74
335.116	13.82
335.329	75.26
335.541	50.69
335.754	114.17
335.966	11.78
336.179	79.36
336.392	58.88
336.604	58.88
336.817	44.54
337.029	1.54
337.242	81.41
337.454	28.16
337.667	56.83
337.88	36.35
338.092	24.06
338.305	99.84
338.517	116.22
338.729	140.8
338.942	126.46
339.154	1.54
339.367	22.02
339.579	87.55
339.792	50.69
340.004	22.02
340.217	50.69
340.429	67.07
340.641	71.17
340.854	32.26
341.066	34.3
341.278	99.84
341.491	58.88
341.703	79.36
341.915	83.45
342.128	22.02
342.34	36.35
342.552	34.3
342.764	-20.99
342.977	26.11
343.189	67.07
343.401	101.89
343.613	26.11
343.826	44.54
344.038	28.16
344.25	62.98
344.462	38.4
344.674	93.69
344.886	71.17
345.099	-23.04
345.311	26.11
345.523	48.64
345.735	50.69
345.947	101.89
346.159	-16.9
346.371	50.69
346.583	7.68
346.795	85.5
347.007	46.59
347.219	42.5
347.431	81.41
347.643	32.26
347.855	19.97
348.067	163.33
348.279	79.36
348.491	38.4
348.703	54.78
348.915	144.89
349.127	46.59
349.339	85.5
349.551	9.73
349.763	81.41
349.975	110.08
350.187	67.07
350.399	15.87
350.61	83.45
350.822	62.98
351.034	54.78
351.246	1.54
351.458	81.41
351.669	73.21
351.881	65.02
352.093	11.78
352.305	40.45
352.517	46.59
352.728	65.02
352.94	50.69
353.152	163.33
353.363	11.78
353.575	52.74
353.787	3.58
353.999	52.74
354.21	38.4
354.422	36.35
354.633	13.82
354.845	58.88
355.057	-10.75
355.268	93.69
355.48	50.69
355.692	71.17
355.903	19.97
356.115	67.07
356.326	42.5
356.538	28.16
356.749	103.93
356.961	44.54
357.172	30.21
357.384	46.59
357.595	69.12
357.807	36.35
358.018	79.36
358.23	13.82
358.441	26.11
358.653	34.3
358.864	46.59
359.075	77.31
359.287	110.08
359.498	71.17
359.709	3.58
359.921	65.02
360.132	46.59
360.344	83.45
360.555	69.12
360.766	83.45
360.977	67.07
361.189	118.27
361.4	58.88
361.611	73.21
361.823	22.02
362.034	46.59
362.245	54.78
362.456	65.02
362.667	105.98
362.879	11.78
363.09	40.45
363.301	-8.7
363.512	28.16
363.723	77.31
363.935	54.78
364.146	101.89
364.357	99.84
364.568	22.02
364.779	34.3
364.99	89.6
365.201	97.79
365.412	103.93
365.623	67.07
365.834	48.64
366.045	44.54
366.256	73.21
366.467	3.58
366.678	-23.04
366.889	7.68
367.1	52.74
367.311	30.21
367.522	50.69
367.733	155.13
367.944	97.79
368.155	19.97
368.366	32.26
368.577	81.41
368.788	79.36
368.999	7.68
369.209	75.26
369.42	101.89
369.631	116.22
369.842	17.92
370.053	-43.52
370.264	97.79
370.474	-14.85
370.685	54.78
370.896	89.6
371.107	-2.56
371.317	120.32
371.528	46.59
371.739	93.69
371.95	140.8
372.16	54.78
372.371	-20.99
372.582	91.65
372.792	22.02
373.003	50.69
373.214	46.59
373.424	181.76
373.635	7.68
373.846	101.89
374.056	50.69
374.267	101.89
374.477	118.27
374.688	62.98
374.898	15.87
375.109	189.95
375.319	65.02
375.53	77.31
375.74	93.69
375.951	73.21
376.161	130.56
376.372	81.41
376.582	89.6
376.793	81.41
377.003	-23.04
377.214	24.06
377.424	97.79
377.635	85.5
377.845	9.73
378.055	17.92
378.266	46.59
378.476	75.26
378.686	24.06
378.897	108.03
379.107	5.63
379.317	83.45
379.528	56.83
379.738	54.78
379.948	56.83
380.158	161.28
380.369	54.78
380.579	34.3
380.789	58.88
380.999	120.32
381.21	9.73
381.42	65.02
381.63	42.5
381.84	71.17
382.05	91.65
382.261	65.02
382.471	71.17
382.681	50.69
382.891	105.98
383.101	60.93
383.311	69.12
383.521	44.54
383.731	99.84
383.941	60.93
384.151	69.12
384.361	42.5
384.571	38.4
384.781	79.36
384.991	116.22
385.201	99.84
385.411	54.78
385.621	50.69
385.831	153.09
386.041	19.97
386.251	58.88
386.461	103.93
386.671	-27.14
386.881	67.07
387.091	52.74
387.301	87.55
387.511	101.89
387.72	116.22
387.93	11.78
388.14	44.54
388.35	91.65
388.56	56.83
388.769	99.84
388.979	40.45
389.189	83.45
389.399	46.59
389.609	73.21
389.818	89.6
390.028	42.5
390.238	144.89
390.447	95.74
390.657	93.69
390.867	44.54
391.076	13.82
391.286	67.07
391.496	44.54
391.705	148.99
391.915	60.93
392.125	26.11
392.334	87.55
392.544	116.22
392.753	22.02
392.963	73.21
393.172	85.5
393.382	89.6
393.591	58.88
393.801	112.13
394.01	87.55
394.22	128.51
394.429	67.07
394.639	69.12
394.848	85.5
395.058	26.11
395.267	67.07
395.477	34.3
395.686	128.51
395.895	85.5
396.105	153.09
396.314	126.46
396.524	75.26
396.733	69.12
396.942	116.22
397.152	120.32
397.361	161.28
397.57	93.69
397.78	161.28
397.989	79.36
398.198	206.33
398.407	132.61
398.617	128.51
398.826	110.08
399.035	65.02
399.244	153.09
399.453	134.65
399.663	128.51
399.872	126.46
400.081	95.74
400.29	99.84
400.499	136.7
400.708	99.84
400.917	30.21
401.127	91.65
401.336	132.61
401.545	140.8
401.754	138.75
401.963	101.89
402.172	79.36
402.381	126.46
402.59	155.13
402.799	165.37
403.008	58.88
403.217	142.85
403.426	148.99
403.635	75.26
403.844	118.27
404.053	103.93
404.262	179.71
404.471	196.09
404.68	128.51
404.888	161.28
405.097	181.76
405.306	151.04
405.515	87.55
405.724	148.99
405.933	177.66
406.142	128.51
406.35	181.76
406.559	232.96
406.768	206.33
406.977	159.23
407.185	204.28
407.394	175.61
407.603	220.67
407.812	286.2
408.02	179.71
408.229	245.24
408.438	212.48
408.646	155.13
408.855	280.06
409.064	251.39
409.272	337.4
409.481	286.2
409.69	222.72
409.898	298.49
410.107	333.31
410.315	357.88
410.524	359.93
410.733	368.12
410.941	288.25
411.15	292.35
411.358	357.88
411.567	482.81
411.775	372.22
411.984	423.42
412.192	353.79
412.401	497.14
412.609	513.53
412.818	454.14
413.026	536.06
413.234	550.39
413.443	507.38
413.651	554.49
413.86	583.16
414.068	620.02
414.276	609.78
414.485	677.37
414.693	663.03
414.901	685.56
415.11	800.24
415.318	734.71
415.526	747
415.734	742.9
415.943	826.87
416.151	790
416.359	880.11
416.567	873.97
416.776	919.03
416.984	904.69
417.192	892.4
417.4	1025.52
417.608	935.41
417.817	1058.29
418.025	1240.56
418.233	1115.63
418.441	1201.65
418.649	1224.17
418.857	1230.32
419.065	1375.72
419.273	1283.56
419.481	1342.96
419.689	1381.87
419.897	1533.42
420.105	1510.89
420.313	1512.94
420.521	1709.54
420.729	1560.04
420.937	1701.35
421.145	1783.27
421.353	1889.76
421.561	1926.63
421.769	2008.55
421.977	2106.85
422.185	2055.65
422.393	2127.33
422.601	2289.12
422.809	2301.4
423.017	2285.02
423.224	2397.66
423.432	2534.87
423.64	2385.37
423.848	2778.58
424.056	2680.28
424.263	2831.83
424.471	2952.66
424.679	2913.75
424.887	3050.96
425.094	3247.57
425.302	3153.36
425.51	3380.68
425.718	3372.49
425.925	3319.25
426.133	3620.3
426.341	3673.54
426.548	3945.92
426.756	3909.06
426.964	3952.07
427.171	4273.6
427.379	4310.46
427.586	4416.96
427.794	4521.4
428.001	4658.62
428.209	4924.85
428.417	4826.55
428.624	5215.66
428.832	5328.3
429.039	5076.4
429.247	5135.79
429.454	5748.14
429.662	5944.74
429.869	5592.49
430.076	6043.04
430.284	5782.95
430.491	6253.98
430.699	6577.56
430.906	6321.57
431.114	6536.6
431.321	6831.51
431.528	6938.01
431.736	7239.06
431.943	7767.43
432.15	7656.84
432.358	7511.44
432.565	8115.59
432.772	8091.01
432.979	8402.3
433.187	8490.37
433.394	8865.14
433.601	8990.07
433.808	9094.52
434.016	8992.12
434.223	9319.79
434.43	10147.17
434.637	9956.71
434.844	10685.79
435.052	10683.74
435.259	10577.25
435.466	10653.02
435.673	10524
435.88	11310.42
436.087	11810.12
436.294	11838.8
436.501	11541.84
436.708	11681.1
436.915	12219.72
437.122	12815.68
437.329	12772.67
437.537	13243.7
437.743	13311.28
437.95	13321.52
438.157	13759.79
438.364	14394.66
438.571	14146.86
438.778	14404.9
438.985	15754.51
439.192	15254.81
439.399	15496.47
439.606	15263
439.813	16438.53
440.02	17104.12
440.227	16751.87
440.433	16844.03
440.64	17280.25
440.847	17022.2
441.054	17505.52
441.261	18986.21
441.467	18558.18
441.674	18957.53
441.881	19582.17
442.088	19447
442.294	19492.05
442.501	19778.77
442.708	20112.59
442.914	21083.33
443.121	21843.12
443.328	21335.23
443.534	22787.24
443.741	22211.76
443.948	21826.74
444.154	23538.84
444.361	23452.83
444.568	23637.14
444.774	23233.69
444.981	24050.83
445.187	24392.84
445.394	25484.41
445.6	25062.53
445.807	27810.9
446.013	26471.53
446.22	26877.03
446.426	28019.8
446.633	28124.24
446.839	29127.75
447.046	27907.16
447.252	29398.08
447.459	29326.4
447.665	28978.25
447.871	30475.31
448.078	31245.35
448.284	30387.25
448.491	31114.28
448.697	32326.67
448.903	32652.3
449.11	32687.12
449.316	31917.08
449.522	32877.58
449.728	33897.47
449.935	34059.26
450.141	33661.95
450.347	34571.25
450.553	33504.26
450.76	33977.34
450.966	34876.4
451.172	34874.35
451.378	35611.62
451.584	34774
451.791	35701.73
451.997	35517.41
452.203	35890.14
452.409	35810.27
452.615	35728.35
452.821	34769.9
453.027	34405.36
453.233	36017.11
453.44	34462.71
453.646	34700.27
453.852	35218.41
454.058	35582.95
454.264	34472.95
454.47	35118.06
454.676	34305.01
454.882	35345.38
455.088	32156.69
455.294	32830.48
455.5	33106.95
455.705	33774.59
455.911	32093.21
456.117	31507.49
456.323	30975.02
456.529	29324.35
456.735	30571.57
456.941	29754.43
457.147	29242.43
457.352	28351.57
457.558	28099.67
457.764	27909.21
457.97	27700.31
458.176	26913.89
458.381	27085.92
458.587	25793.65
458.793	25805.94
458.999	24392.84
459.204	26092.66
459.41	25650.3
459.616	23624.86
459.821	23717.01
460.027	23702.68
460.233	23114.91
460.438	22035.63
460.644	22357.16
460.85	21281.98
461.055	20962.5
461.261	20886.72
461.466	19242.2
461.672	18472.17
461.878	20030.67
462.083	18871.52
462.289	18476.26
462.494	18248.94
462.7	17624.31
462.905	16968.96
463.111	17794.29
463.316	17794.29
463.522	17200.38
463.727	17399.03
463.932	17442.04
464.138	17214.71
464.343	17274.1
464.549	16710.91
464.754	17401.08
464.959	17018.11
465.165	16844.03
465.37	16270.6
465.575	15621.39
465.781	16461.06
465.986	16674.05
466.191	15897.87
466.397	15605.01
466.602	14845.21
466.807	15353.11
467.012	15650.07
467.218	15697.17
467.423	15086.87
467.628	15224.09
467.833	15731.98
468.038	15424.79
468.244	14753.05
468.449	15553.81
468.654	15023.39
468.859	14822.69
469.064	14759.2
469.269	14345.51
469.474	14261.54
469.679	14517.54
469.885	14062.89
470.09	14490.91
470.295	14232.87
470.5	13745.45
470.705	14091.56
470.91	13473.07
471.115	13567.28
471.32	13804.85
471.525	13651.25
471.73	13327.67
471.935	13342
472.139	12977.47
472.344	12936.51
472.549	12946.75
472.754	12678.46
472.959	12324.16
473.164	12186.95
473.369	11978.06
473.574	12750.14
473.778	12248.39
473.983	12162.37
474.188	12066.12
474.393	11590.99
474.598	11752.78
474.802	11496.78
475.007	11478.35
475.212	11406.67
475.417	10927.45
475.621	11289.94
475.826	11226.45
476.031	11097.43
476.235	10954.07
476.44	10870.11
476.645	10585.44
476.849	10681.69
477.054	10524
477.259	10526.05
477.463	10153.32
477.668	10095.97
477.872	10345.83
478.077	9868.65
478.282	10036.58
478.486	9606.51
478.691	9821.55
478.895	9839.98
479.1	9637.23
479.304	9719.15
479.509	9207.16
479.713	9651.56
479.918	9301.36
480.122	9188.72
480.326	9368.95
480.531	9305.46
480.735	9252.21
480.94	9139.57
481.144	9518.45
481.348	8914.3
481.553	9090.42
481.757	8729.98
481.961	9162.1
482.166	9184.63
482.37	8940.92
482.574	8963.45
482.778	8869.24
482.983	9090.42
483.187	8910.2
483.391	8979.83
483.595	8846.71
483.8	8777.08
484.004	8842.62
484.208	9082.23
484.412	8975.74
484.616	9266.55
484.821	8869.24
485.025	8621.44
485.229	8983.93
485.433	8988.02
485.637	8953.21
485.841	8910.2
486.045	8934.78
486.249	8918.39
486.453	8863.1
486.657	8871.29
486.861	9037.17
487.065	8660.35
487.269	9045.37
487.473	8842.62
487.677	8910.2
487.881	9061.75
488.085	8734.07
488.289	8961.4
488.493	9010.55
488.697	8844.67
488.901	8902.01
489.105	9012.6
489.309	9180.53
489.512	8969.59
489.716	9119.09
489.92	9028.98
490.124	8994.17
490.328	9141.62
490.531	9139.57
490.735	9244.02
490.939	9133.43
491.143	9231.73
491.346	9115
491.55	9190.77
491.754	9536.88
491.958	9467.25
492.161	9276.79
492.365	9448.82
492.569	9387.38
492.772	9397.62
492.976	9370.99
493.18	9696.62
493.383	9846.12
493.587	9727.34
493.79	9770.35
493.994	9667.95
494.197	9682.28
494.401	9848.17
494.605	9854.31
494.808	10110.31
495.012	9930.09
495.215	10200.42
495.419	10233.19
495.622	10333.54
495.825	10446.18
496.029	10151.27
496.232	10349.92
496.436	10503.52
496.639	10833.24
496.843	10581.34
497.046	10886.49
497.249	10945.88
497.453	11029.85
497.656	11283.8
497.859	11261.27
498.063	11126.1
498.266	11664.72
498.469	11642.19
498.673	11717.97
498.876	11937.1
499.079	12035.4
499.282	11965.77
499.485	12328.26
499.689	12469.57
499.892	12690.75
500.095	12596.54
500.298	12776.77
500.501	12498.24
500.705	13129.02
500.908	13014.33
501.111	13030.71
501.314	13444.4
501.517	13264.18
501.72	13796.65
501.923	13641.01
502.126	13737.26
502.329	14177.58
502.532	14128.42
502.735	14378.28
502.938	14544.16
503.141	14757.15
503.344	14710.05
503.547	15054.11
503.75	15088.92
503.953	15361.3
504.156	15537.43
504.359	15713.55
504.562	15596.82
504.765	16221.45
504.968	16033.04
505.17	16170.25
505.373	16307.46
505.576	16606.47
505.779	16772.35
505.982	16764.16
506.185	17270.01
506.387	16850.17
506.59	17538.29
506.793	17890.54
506.996	17491.19
507.198	18035.95
507.401	18195.69
507.604	18588.9
507.807	18730.21
508.009	18705.63
508.212	18736.35
508.415	19297.5
508.617	19375.32
508.82	19350.74
509.022	19389.66
509.225	19997.9
509.428	20114.64
509.63	20174.03
509.833	20341.96
510.035	20653.25
510.238	20475.08
510.44	20776.13
510.643	21066.94
510.845	21365.95
511.048	21273.79
511.25	21746.87
511.453	21812.4
511.655	22752.42
511.858	22078.64
512.06	22428.84
512.262	22527.14
512.465	22613.16
512.667	23219.36
512.87	23231.65
513.072	23442.59
513.274	23766.17
513.477	24198.29
513.679	24130.7
513.881	24444.04
514.084	24583.3
514.286	24562.83
514.488	24865.92
514.69	25625.72
514.893	25412.73
515.095	25529.47
515.297	25877.62
515.499	26346.61
515.701	26258.54
515.904	26754.15
516.106	26680.42
516.308	26838.12
516.51	27188.32
516.712	27133.03
516.914	27442.27
517.116	27825.24
517.318	27876.44
517.52	28107.86
517.722	28484.69
517.925	28560.46
518.127	29125.7
518.329	29070.4
518.531	28769.35
518.733	29529.15
518.935	29922.36
519.136	30032.95
519.338	30542.89
519.54	30526.51
519.742	30796.84
519.944	30772.27
520.146	31239.2
520.348	31390.75
520.55	31624.22
520.752	31798.3
520.954	32234.52
521.155	31953.94
521.357	32242.71
521.559	32353.3
521.761	33264.64
521.963	32988.17
522.164	33199.11
522.366	33371.14
522.568	33616.9
522.77	33502.21
522.971	34315.25
523.173	33823.74
523.375	34085.88
523.576	34251.77
523.778	34384.88
523.98	34814.96
524.181	34866.16
524.383	35025.9
524.584	35564.51
524.786	35365.86
524.988	35437.54
525.189	35556.32
525.391	35955.68
525.592	36170.71
525.794	36342.74
525.995	36719.57
526.197	36375.51
526.398	36539.35
526.6	36588.5
526.801	37131.21
527.003	36965.32
527.204	36905.93
527.406	37501.89
527.607	37577.67
527.808	37800.9
528.01	36950.99
528.211	37436.36
528.412	38407.09
528.614	37983.16
528.815	38009.79
529.016	38214.58
529.218	37845.95
529.419	38144.95
529.62	38271.93
529.822	38106.04
530.023	38433.72
530.224	37940.16
530.425	38067.13
530.626	38343.61
530.828	37901.25
531.029	39160.75
531.23	38212.54
531.431	38587.32
531.632	38775.73
531.833	38849.46
532.035	38370.23
532.236	38673.33
532.437	39109.55
532.638	38730.67
532.839	39119.79
533.04	38914.99
533.241	38278.07
533.442	39297.96
533.643	39082.92
533.844	39160.75
534.045	39158.7
534.246	38665.14
534.447	39404.45
534.648	38671.28
534.849	39025.58
535.05	38931.37
535.251	39136.17
535.451	38783.92
535.652	38708.15
535.853	38949.81
536.054	39267.24
536.255	38702
536.456	38562.74
536.657	39576.48
536.857	38841.26
537.058	38534.07
537.259	38888.37
537.46	38982.57
537.66	39175.08
537.861	38994.86
538.062	39213.99
538.263	39340.97
538.463	39082.92
538.664	38472.63
538.865	38986.67
539.065	39316.39
539.266	38720.43
539.466	39283.62
539.667	38816.69
539.868	39373.74
540.068	38767.54
540.269	39181.23
540.469	39021.48
540.67	39029.68
540.87	39234.47
541.071	38949.81
541.271	38939.57
541.472	38747.06
541.672	38736.82
541.873	38710.19
542.073	38480.82
542.274	39113.64
542.474	38706.1
542.675	38536.12
542.875	39164.84
543.075	38632.37
543.276	38501.3
543.476	38998.96
543.676	38286.26
543.877	38794.16
544.077	38992.81
544.277	38790.06
544.478	38734.77
544.678	38878.13
544.878	38532.02
545.078	38783.92
545.279	38945.71
545.479	38362.04
545.679	38824.88
545.879	38704.05
546.079	38577.08
546.28	38671.28
546.48	38058.94
546.68	38781.87
546.88	38515.64
547.08	38820.78
547.28	38161.34
547.48	38005.69
547.68	38695.86
547.88	38103.99
548.081	38560.69
548.281	38362.04
548.481	38063.04
548.681	38800.3
548.881	38460.34
549.081	38523.83
549.28	38036.41
549.48	38781.87
549.68	38308.79
549.88	39220.14
550.08	37991.36
550.28	38589.36
550.48	37917.63
550.68	38575.03
550.88	38071.23
551.08	38200.25
551.279	37972.92
551.479	37788.61
551.679	38011.84
551.879	38138.81
552.079	38339.51
552.278	37891.01
552.478	38161.34
552.678	37850.05
552.878	38411.19
553.077	38284.22
553.277	37997.5
553.477	38421.43
553.676	38265.78
553.876	37874.62
554.076	37727.17
554.275	37702.59
554.475	37657.54
554.674	38058.94
554.874	37979.07
555.074	37792.7
555.273	37731.26
555.473	37780.42
555.672	37182.41
555.872	37833.66
556.071	37671.87
556.271	37929.92
556.47	37295.05
556.67	37528.52
556.869	37557.19
557.068	37391.3
557.268	37512.13
557.467	37354.44
557.667	37479.36
557.866	37342.15
558.065	36883.41
558.265	37264.33
558.464	37004.24
558.663	37495.75
558.863	37120.97
559.062	37538.76
559.261	37118.92
559.461	37415.88
559.66	36746.19
559.859	37012.43
560.058	36522.96
560.258	36897.74
560.457	36309.97
560.656	36828.11
560.855	36830.16
561.054	36772.81
561.253	36510.67
561.453	36588.5
561.652	36787.15
561.851	36944.84
562.05	36510.67
562.249	36359.13
562.448	36236.25
562.647	36522.96
562.846	36088.79
563.045	36563.92
563.244	35996.63
563.443	36637.65
563.642	35838.94
563.841	36279.25
564.04	35763.17
564.239	36178.9
564.438	35437.54
564.637	35961.82
564.836	35871.71
565.035	35417.06
565.234	35705.82
565.432	35902.43
565.631	35230.69
565.83	35601.38
566.029	35146.73
566.228	35027.95
566.427	35167.21
566.625	34757.61
566.824	34298.87
567.023	35275.75
567.222	34714.61
567.42	35093.48
567.619	34894.83
567.818	34792.43
568.016	34565.1
568.215	34941.93
568.414	34624.5
568.612	34716.65
568.811	34227.19
569.01	34423.79
569.208	33938.43
569.407	34110.46
569.605	33928.19
569.804	34425.84
570.002	33963
570.201	34446.32
570.4	33659.9
570.598	33915.9
570.797	33422.34
570.995	33668.09
571.193	33438.72
571.392	33754.11
571.59	33313.8
571.789	33287.17
571.987	33168.39
572.186	33342.47
572.384	32889.87
572.582	33620.99
572.781	33227.78
572.979	32750.6
573.177	32953.35
573.376	32861.19
573.574	33016.84
573.772	32945.16
573.971	32459.79
574.169	32455.7
574.367	32310.29
574.565	32789.52
574.763	31996.95
574.962	32310.29
575.16	32017.43
575.358	31884.31
575.556	31583.26
575.754	32420.88
575.952	31577.12
576.151	31865.88
576.349	31386.66
576.547	31333.41
576.745	31665.18
576.943	31523.87
577.141	31480.86
577.339	31568.93
577.537	31265.83
577.735	31409.18
577.933	30995.5
578.131	31077.41
578.329	30774.31
578.527	30815.27
578.725	30942.25
578.923	30999.59
579.121	30762.03
579.319	30518.32
579.516	30891.05
579.714	31079.46
579.912	30592.05
580.11	30577.71
580.308	30432.3
580.506	30432.3
580.704	29840.44
580.901	30362.67
581.099	30319.67
581.297	29680.7
581.495	29832.25
581.692	29652.03
581.89	29738.04
582.088	29936.7
582.285	29602.88
582.483	30010.42
582.681	29473.85
582.878	29424.7
583.076	29158.47
583.274	29469.76
583.471	28994.63
583.669	29387.84
583.866	29051.97
584.064	29219.91
584.262	28922.95
584.459	29156.42
584.657	28599.37
584.854	28990.53
585.052	28322.9
585.249	28537.93
585.447	28157.01
585.644	28261.46
585.841	28435.53
586.039	28695.63
586.236	28091.48
586.434	28015.7
586.631	28132.43
586.828	28116.05
587.026	28077.14
587.223	28036.18
587.42	27776.09
587.618	27921.49
587.815	27778.14
588.012	27726.94
588.21	27206.75
588.407	27673.69
588.604	27280.48
588.801	26754.15
588.999	27206.75
589.196	27020.39
589.393	27157.6
589.59	27063.4
589.787	26668.14
589.984	26762.34
590.182	26549.35
590.379	26539.12
590.576	26836.07
590.773	26647.66
590.97	26236.02
591.167	26582.12
591.364	25982.07
591.561	25971.83
591.758	25871.48
591.955	25846.9
592.152	26061.94
592.349	25959.54
592.546	25863.29
592.743	25920.63
592.94	25234.56
593.137	25945.2
593.334	25705.59
593.531	25339.01
593.727	25730.17
593.924	25494.65
594.121	25234.56
594.318	25431.16
594.515	25076.87
594.712	25621.63
594.908	25109.63
595.105	24870.02
595.302	24992.9
595.499	24910.98
595.696	24870.02
595.892	24581.26
596.089	24769.67
596.286	24677.51
596.482	24466.57
596.679	24562.83
596.876	24587.4
597.072	24308.88
597.269	24167.57
597.466	24226.96
597.662	24087.7
597.859	24265.87
598.055	24353.93
598.252	24016.02
598.448	23645.34
598.645	23825.56
598.841	23504.03
599.038	23594.14
599.234	23549.08
599.431	23250.08
599.627	23346.33
599.824	23604.38
600.02	23174.3
600.217	23184.54
600.413	23112.86
600.609	23059.62
600.806	22969.51
601.002	23032.99
601.198	22836.39
601.395	22623.4
601.591	22434.99
601.787	22506.66
601.984	22625.45
602.18	22475.95
602.376	22744.23
602.572	22148.27
602.769	22385.83
602.965	22017.2
603.161	22330.54
603.357	22103.21
603.553	22037.68
603.75	22135.98
603.946	21918.9
604.142	21779.64
604.338	21761.2
604.534	21806.26
604.73	21689.53
604.926	21390.52
605.122	21421.24
605.318	21753.01
605.514	21349.56
605.71	21439.67
605.906	21218.49
606.102	21130.43
606.298	21183.68
606.494	21271.74
606.69	21103.81
606.886	21324.99
607.082	20786.37
607.278	21075.13
607.474	20708.55
607.67	20864.19
607.866	21005.5
608.062	20989.12
608.257	20731.08
608.453	20952.26
608.649	20788.42
608.845	20577.48
609.041	20591.81
609.236	20495.56
609.432	20372.68
609.628	20499.66
609.824	20325.58
610.019	20294.86
610.215	20624.58
610.411	20395.21
610.606	20235.47
610.802	20450.5
610.998	20161.74
611.193	20176.08
611.389	19858.64
611.584	19967.18
611.78	20133.07
611.976	19850.45
612.171	19825.87
612.367	19549.4
612.562	19750.1
612.758	19698.9
612.953	19698.9
613.149	19795.15
613.344	19332.31
613.539	19956.94
613.735	19649.75
613.93	19698.9
614.126	19248.35
614.321	19713.24
614.517	19463.38
614.712	19403.99
614.907	19080.41
615.103	19354.84
615.298	19289.31
615.493	19447
615.688	19277.02
615.884	19422.42
616.079	19002.59
616.274	19324.12
616.47	19004.64
616.665	19285.21
616.86	19160.28
617.055	19008.73
617.25	18932.96
617.445	19360.98
617.641	18646.24
617.836	18869.47
618.031	18400.49
618.226	18611.43
618.421	18457.83
618.616	18646.24
618.811	18443.49
619.006	18650.34
619.201	18453.73
619.396	18572.52
619.591	18099.44
619.786	18259.18
619.981	17937.65
620.176	18357.48
620.371	17843.44
620.566	18023.66
620.761	17878.26
620.956	17913.07
621.151	17798.38
621.346	17960.17
621.541	17356.02
621.735	17786.1
621.93	17046.78
622.125	17272.06
622.32	17118.46
622.515	16975.1
622.709	17028.35
622.904	16925.95
623.099	16956.67
623.294	16700.67
623.488	16655.62
623.683	16606.47
623.878	16495.88
624.072	16631.04
624.267	16485.64
624.462	16192.78
624.656	16114.95
624.851	16463.11
625.046	16047.37
625.24	15795.47
625.435	15867.15
625.629	15832.33
625.824	15635.73
626.018	15805.71
626.213	15320.34
626.407	15623.44
626.602	15222.04
626.796	15258.9
626.991	15205.66
627.185	15197.46
627.38	14957.85
627.574	15029.53
627.768	14892.32
627.963	14609.7
628.157	14576.93
628.352	14585.12
628.546	14515.49
628.74	14765.34
628.935	14241.06
629.129	14503.2
629.323	14206.25
629.517	14466.34
629.712	14263.59
629.906	14122.28
630.1	13770.03
630.294	13716.78
630.489	13606.19
630.683	14038.31
630.877	13577.52
631.071	13575.47
631.265	13509.94
631.459	13296.95
631.653	13362.48
631.848	13317.43
632.042	13520.18
632.236	13264.18
632.43	13073.72
632.624	13245.75
632.818	13008.19
633.012	12866.88
633.206	12920.12
633.4	12877.12
633.594	12670.27
633.788	12496.19
633.982	12948.79
634.176	12715.33
634.369	12592.45
634.563	12363.08
634.757	12168.52
634.951	12440.9
635.145	12539.2
635.339	12307.78
635.533	12023.11
635.726	12033.35
635.92	12008.78
636.114	11922.76
636.308	11855.18
636.501	11836.75
636.695	11826.51
636.889	11646.29
637.083	11523.41
637.276	11427.15
637.47	11556.18
637.664	11437.39
637.857	11447.63
638.051	11328.85
638.244	11404.63
638.438	11228.5
638.632	11146.58
638.825	10878.3
639.019	11021.66
639.212	10816.86
639.406	10861.91
639.599	10693.98
639.793	10845.53
639.986	10743.13
640.18	10702.17
640.373	10466.66
640.567	10417.51
640.76	10450.27
640.954	10511.71
641.147	10495.33
641.34	10159.46
641.534	10136.93
641.727	10087.78
641.92	10392.93
642.114	10392.93
642.307	10055.01
642.5	10233.19
642.694	9866.6
642.887	9813.35
643.08	9885.03
643.273	9819.5
643.467	9741.68
643.66	9973.1
643.853	9717.1
644.046	9557.36
644.239	9452.91
644.432	9762.16
644.626	9538.93
644.819	9334.13
645.012	9483.63
645.205	9227.64
645.398	9430.38
645.591	9196.92
645.784	9168.24
645.977	9094.52
646.17	9250.16
646.363	9166.2
646.556	8897.91
646.749	9008.5
646.942	9125.24
647.135	8836.47
647.328	8803.71
647.521	8787.32
647.714	8611.2
647.907	8715.64
648.099	8697.21
648.292	8545.66
648.485	8615.29
648.678	8541.57
648.871	8451.46
649.064	8437.12
649.256	8355.2
649.449	8347.01
649.642	8263.04
649.835	8088.96
650.027	8174.98
650.22	8275.33
650.413	8062.34
650.605	8076.68
650.798	8080.77
650.991	7988.61
651.183	8011.14
651.376	7937.41
651.568	8015.24
651.761	7830.92
651.954	7789.96
652.146	7609.74
652.339	7683.47
652.531	7503.25
652.724	7517.58
652.916	7265.68
653.109	7585.16
653.301	7320.98
653.494	7556.49
653.686	7527.82
653.879	7515.53
654.071	7253.39
654.263	7552.4
654.456	7378.32
654.648	7230.87
654.84	7224.72
655.033	7120.28
655.225	7169.43
655.417	7017.88
655.61	7107.99
655.802	7194
655.994	7003.54
656.186	7218.58
656.379	7034.26
656.571	7056.79
656.763	6884.76
656.955	6636.95
657.148	6968.73
657.34	6714.78
657.532	6729.11
657.724	6690.2
657.916	6643.1
658.108	6712.73
658.3	6514.08
658.492	6634.91
658.684	6579.61
658.876	6473.12
659.068	6458.78
659.26	6362.53
659.452	6495.64
659.644	6321.57
659.836	6313.38
660.028	6340
660.22	6036.9
660.412	6176.16
660.604	6036.9
660.796	6182.31
660.988	6172.07
661.18	6112.67
661.372	6016.42
661.563	6069.67
661.755	5866.92
661.947	5991.84
662.139	5842.34
662.331	5924.26
662.522	5684.65
662.714	5825.96
662.906	5868.97
663.097	5828.01
663.289	5598.63
663.481	5647.79
663.673	5586.35
663.864	5768.62
664.056	5553.58
664.247	5504.43
664.439	5520.81
664.631	5586.35
664.822	5496.24
665.014	5508.52
665.205	5449.13
665.397	5481.9
665.588	5363.12
665.78	5295.54
665.971	5334.45
666.163	5455.28
666.354	5359.02
666.546	5168.56
666.737	4935.09
666.929	5100.98
667.12	5244.34
667.311	5121.46
667.503	5098.93
667.694	5164.47
667.885	5230
668.077	5088.69
668.268	5127.6
668.459	5129.65
668.651	5074.35
668.842	4869.56
669.033	4988.34
669.224	4949.43
669.416	5070.26
669.607	5033.4
669.798	4906.42
669.989	4961.72
670.18	4791.73
670.371	4748.73
670.563	4605.37
670.754	4865.46
670.945	4779.45
671.136	4758.97
671.327	4668.86
671.518	4597.18
671.709	4695.48
671.9	4722.1
672.091	4591.03
672.282	4554.17
672.473	4502.97
672.664	4660.66
672.855	4367.81
673.046	4441.53
673.237	4560.31
673.428	4521.4
673.619	4572.6
673.809	4412.86
674	4584.89
674.191	4482.49
674.382	4398.52
674.573	4484.54
674.764	4306.37
674.954	4392.38
675.145	4392.38
675.336	4265.41
675.527	4302.27
675.717	4328.89
675.908	4193.73
676.099	4371.9
676.289	4212.16
676.48	4142.53
676.671	4068.8
676.861	4206.02
677.052	4087.23
677.243	4066.75
677.433	4203.97
677.624	4160.96
677.814	4056.51
678.005	4076.99
678.195	4115.91
678.386	4085.19
678.576	3954.12
678.767	4128.19
678.957	3890.63
679.148	4126.15
679.338	4066.75
679.529	4224.45
679.719	4013.51
679.909	4031.94
680.1	4027.84
680.29	3849.67
680.481	4054.47
680.671	3843.53
680.861	3943.88
681.052	3876.29
681.242	3970.5
681.432	3821
681.622	3909.06
681.813	3925.44
682.003	3765.7
682.193	3794.37
682.383	3825.09
682.573	3648.97
682.764	3677.64
682.954	3765.7
683.144	3722.7
683.334	3767.75
683.524	3749.32
683.714	3757.51
683.904	3780.04
684.094	3677.64
684.284	3685.83
684.474	3784.13
684.664	3679.69
684.854	3638.73
685.044	3587.53
685.234	3599.82
685.424	3728.84
685.614	3464.65
685.804	3546.57
685.994	3474.89
686.184	3487.18
686.374	3581.39
686.564	3501.51
686.753	3470.8
686.943	3472.84
687.133	3583.43
687.323	3558.86
687.513	3429.84
687.702	3612.1
687.892	3464.65
688.082	3442.12
688.272	3497.42
688.461	3352.01
688.651	3372.49
688.841	3337.68
689.03	3208.66
689.22	3259.85
689.41	3243.47
689.599	3259.85
689.789	3366.35
689.979	3249.61
690.168	3382.73
690.358	3274.19
690.547	3218.89
690.737	3229.13
690.926	3130.83
691.116	3171.79
691.305	3261.9
691.495	3106.26
691.684	3159.5
691.874	3184.08
692.063	3040.72
692.252	3018.19
692.442	3169.74
692.631	3128.78
692.82	3083.73
693.01	2952.66
693.199	3091.92
693.388	2971.09
693.578	2981.33
693.767	2995.67
693.956	2985.43
694.146	2973.14
694.335	2895.32
694.524	2774.49
694.713	2858.45
694.902	2858.45
695.092	2819.54
695.281	2774.49
695.47	2825.68
695.659	2870.74
695.848	2821.59
696.037	2823.64
696.226	2872.79
696.415	2878.93
696.604	2792.92
696.793	2743.77
696.982	2799.06
697.171	2819.54
697.36	2770.39
697.549	2809.3
697.738	2672.09
697.927	2696.66
698.116	2735.57
698.305	2840.02
698.494	2692.57
698.683	2811.35
698.872	2610.65
699.061	2555.35
699.25	2618.84
699.438	2649.56
699.627	2612.7
699.816	2604.5
700.005	2688.47
700.193	2694.61
700.382	2751.96
700.571	2547.16
700.76	2614.74
700.948	2653.66
701.137	2610.65
701.326	2536.92
701.514	2616.79
701.703	2504.15
701.892	2504.15
702.08	2635.22
702.269	2577.88
702.457	2489.82
702.646	2584.02
702.834	2563.54
703.023	2448.86
703.212	2416.09
703.4	2631.13
703.589	2504.15
703.777	2459.1
703.965	2450.91
704.154	2446.81
704.342	2452.95
704.531	2495.96
704.719	2383.32
704.907	2614.74
705.096	2516.44
705.284	2409.95
705.472	2452.95
705.661	2483.67
705.849	2581.98
706.037	2549.21
706.226	2407.9
706.414	2448.86
706.602	2366.94
706.79	2463.19
706.979	2555.35
707.167	2524.63
707.355	2506.2
707.543	2516.44
707.731	2434.52
707.919	2332.12
708.107	2430.43
708.296	2436.57
708.484	2416.09
708.672	2397.66
708.86	2350.56
709.048	2467.29
709.236	2321.88
709.424	2352.6
709.612	2434.52
709.8	2371.04
709.988	2301.4
710.176	2434.52
710.364	2442.71
710.551	2448.86
710.739	2332.12
710.927	2448.86
711.115	2330.08
711.303	2325.98
711.491	2385.37
711.679	2250.21
711.866	2330.08
712.054	2399.71
712.242	2360.8
712.43	2416.09
712.617	2325.98
712.805	2325.98
712.993	2334.17
713.181	2436.57
713.368	2362.84
713.556	2348.51
713.744	2358.75
713.931	2344.41
714.119	2338.27
714.306	2373.08
714.494	2282.97
714.682	2377.18
714.869	2293.21
715.057	2467.29
715.244	2407.9
715.432	2264.54
715.619	2319.84
715.807	2340.32
715.994	2424.28
716.182	2362.84
716.369	2377.18
716.556	2358.75
716.744	2223.58
716.931	2379.23
717.119	2307.55
717.306	2315.74
717.493	2377.18
717.681	2360.8
717.868	2354.65
718.055	2250.21
718.242	2379.23
718.43	2311.64
718.617	2203.1
718.804	2291.17
718.991	2285.02
719.179	2291.17
719.366	2305.5
719.553	2233.82
719.74	2373.08
719.927	2354.65
720.114	2293.21
720.301	2360.8
720.488	2340.32
720.676	2299.36
720.863	2352.6
721.05	2336.22
721.237	2340.32
721.424	2371.04
721.611	2358.75
721.798	2254.3
721.985	2307.55
722.172	2285.02
722.358	2237.92
722.545	2344.41
722.732	2311.64
722.919	2403.8
723.106	2362.84
723.293	2291.17
723.48	2407.9
723.667	2219.49
723.853	2276.83
724.04	2328.03
724.227	2282.97
724.414	2352.6
724.6	2328.03
724.787	2252.25
724.974	2340.32
725.161	2301.4
725.347	2217.44
725.534	2282.97
725.72	2231.77
725.907	2309.6
726.094	2471.39
726.28	2373.08
726.467	2393.56
726.653	2336.22
726.84	2297.31
727.027	2340.32
727.213	2227.68
727.4	2291.17
727.586	2325.98
727.773	2264.54
727.959	2332.12
728.145	2258.4
728.332	2348.51
728.518	2262.49
728.705	2346.46
728.891	2348.51
729.077	2358.75
729.264	2373.08
729.45	2403.8
729.636	2446.81
729.823	2272.73
730.009	2352.6
730.195	2338.27
730.382	2352.6
730.568	2328.03
730.754	2334.17
730.94	2342.36
731.126	2414.04
731.313	2340.32
731.499	2293.21
731.685	2307.55
731.871	2485.72
732.057	2305.5
732.243	2362.84
732.429	2368.99
732.615	2389.47
732.801	2358.75
732.987	2430.43
733.173	2381.28
733.359	2475.48
733.545	2336.22
733.731	2291.17
733.917	2311.64
734.103	2338.27
734.289	2354.65
734.475	2375.13
734.661	2436.57
734.847	2368.99
735.033	2215.39
735.219	2235.87
735.404	2340.32
735.59	2356.7
735.776	2368.99
735.962	2455
736.148	2463.19
736.333	2405.85
736.519	2258.4
736.705	2299.36
736.89	2368.99
737.076	2328.03
737.262	2377.18
737.447	2229.73
737.633	2295.26
737.819	2366.94
738.004	2270.69
738.19	2383.32
738.375	2348.51
738.561	2432.47
738.747	2166.24
738.932	2336.22
739.118	2231.77
739.303	2401.76
739.489	2309.6
739.674	2305.5
739.859	2233.82
740.045	2311.64
740.23	2268.64
740.416	2303.45
740.601	2280.93
740.786	2303.45
740.972	2301.4
741.157	2119.14
741.342	2280.93
741.528	2311.64
741.713	2246.11
741.898	2199.01
742.084	2172.38
742.269	2272.73
742.454	2244.06
742.639	2143.71
742.824	2160.1
743.01	2227.68
743.195	2213.34
743.38	2270.69
743.565	2121.18
743.75	2250.21
743.935	2129.38
744.12	2239.97
744.305	2135.52
744.49	2090.46
744.675	2160.1
744.86	2008.55
745.045	2264.54
745.23	2045.41
745.415	2143.71
745.6	2112.99
745.785	1992.16
745.97	2151.9
746.155	2082.27
746.34	2115.04
746.525	2069.98
746.71	2112.99
746.895	1981.92
747.079	2082.27
747.264	1940.96
747.449	1981.92
747.634	2008.55
747.819	1967.59
748.003	1955.3
748.188	1885.67
748.373	1957.35
748.557	1926.63
748.742	1824.23
748.927	1938.91
749.111	1986.02
749.296	1988.07
749.481	1922.53
749.665	1936.87
749.85	1838.56
750.034	1887.72
750.219	1818.08
750.404	1826.28
750.588	1766.89
750.773	1807.84
750.957	1791.46
751.141	1818.08
751.326	1723.88
751.51	1750.5
751.695	1719.78
751.879	1654.25
752.064	1811.94
752.248	1727.97
752.432	1787.36
752.617	1701.35
752.801	1615.34
752.985	1668.58
753.17	1697.25
753.354	1732.07
753.538	1717.73
753.722	1646.05
753.907	1660.39
754.091	1551.85
754.275	1666.53
754.459	1590.76
754.643	1545.7
754.828	1566.18
755.012	1584.62
755.196	1506.79
755.38	1527.27
755.564	1529.32
755.748	1476.07
755.932	1410.54
756.116	1496.55
756.3	1533.42
756.484	1566.18
756.668	1484.27
756.852	1443.31
757.036	1392.11
757.22	1404.39
757.404	1459.69
757.588	1404.39
757.772	1451.5
757.956	1406.44
758.14	1316.33
758.323	1385.96
758.507	1426.92
758.691	1400.3
758.875	1345
759.059	1426.92
759.242	1349.1
759.426	1357.29
759.61	1263.08
759.794	1345
759.977	1328.62
760.161	1291.76
760.345	1299.95
760.528	1271.28
760.712	1299.95
760.895	1254.89
761.079	1258.99
761.263	1320.43
761.446	1287.66
761.63	1285.61
761.813	1195.5
761.997	1177.07
762.18	1166.83
762.364	1302
762.547	1172.97
762.731	1205.74
762.914	1267.18
763.098	1170.93
763.281	1197.55
763.464	1226.22
763.648	1275.37
763.831	1113.58
764.015	1172.97
764.198	1160.69
764.381	1230.32
764.564	1121.77
764.748	1205.74
764.931	1119.73
765.114	1170.93
765.297	1168.88
765.481	1144.3
765.664	1066.48
765.847	1136.11
766.03	1017.33
766.213	1097.2
766.397	1148.4
766.58	1082.86
766.763	1129.97
766.946	1164.78
767.129	1025.52
767.312	1101.3
767.495	1066.48
767.678	1050.1
767.861	1111.54
768.044	1029.62
768.227	1154.54
768.41	1066.48
768.593	1064.43
768.776	1148.4
768.959	1046
769.142	1093.1
769.324	941.55
769.507	1123.82
769.69	1017.33
769.873	919.03
770.056	1144.3
770.239	1000.94
770.421	1025.52
770.604	988.66
770.787	1119.73
770.97	1027.57
771.152	1009.14
771.335	966.13
771.518	947.7
771.7	1039.86
771.883	953.84
772.066	951.79
772.248	902.64
772.431	986.61
772.613	945.65
772.796	955.89
772.978	1029.62
773.161	974.32
773.343	998.9
773.526	865.78
773.708	919.03
773.891	871.92
774.073	851.44
774.256	843.25
774.438	878.07
774.621	949.75
774.803	863.73
774.985	927.22
775.168	941.55
775.35	830.96
775.532	814.58
775.715	882.16
775.897	837.11
776.079	820.72
776.261	828.92
776.444	783.86
776.626	822.77
776.808	812.53
776.99	736.76
777.173	771.57
777.355	724.47
777.537	804.34
777.719	800.24
777.901	794.1
778.083	794.1
778.265	736.76
778.447	767.48
778.629	703.99
778.811	720.37
778.993	747
779.175	841.2
779.357	878.07
779.539	706.04
779.721	816.63
779.903	687.61
780.085	671.22
780.267	609.78
780.449	648.69
780.631	677.37
780.812	689.65
780.994	695.8
781.176	669.17
781.358	650.74
781.54	603.64
781.721	675.32
781.903	669.17
782.085	634.36
782.267	685.56
782.448	611.83
782.63	599.54
782.812	644.6
782.993	658.93
783.175	622.07
783.357	626.17
783.538	622.07
783.72	628.21
783.901	558.58
784.083	640.5
784.264	579.06
784.446	552.44
784.627	529.91
784.809	640.5
784.99	572.92
785.172	491
785.353	536.06
785.535	472.57
785.716	591.35
785.897	493.05
786.079	523.77
786.26	574.97
786.441	538.1
786.623	513.53
786.804	456.19
786.985	566.78
787.167	542.2
787.348	529.91
787.529	513.53
787.71	515.58
787.891	505.34
788.073	499.19
788.254	431.61
788.435	458.23
788.616	611.83
788.797	513.53
788.978	388.6
789.159	431.61
789.34	357.88
789.522	368.12
789.703	417.27
789.884	476.66
790.065	562.68
790.246	433.66
790.427	404.99
790.607	407.03
790.788	452.09
790.969	396.79
791.15	425.47
791.331	402.94
791.512	464.38
791.693	386.55
791.874	404.99
792.054	476.66
792.235	462.33
792.416	409.08
792.597	357.88
792.778	427.51
792.958	390.65
793.139	447.99
793.32	423.42
793.5	378.36
793.681	390.65
793.862	431.61
794.042	345.59
794.223	376.31
794.404	374.27
794.584	478.71
794.765	355.83
794.945	390.65
795.126	370.17
795.306	310.78
795.487	402.94
795.667	415.23
795.848	376.31
796.028	433.66
796.209	425.47
796.389	282.11
796.57	308.73
796.75	388.6
796.93	292.35
797.111	323.07
797.291	353.79
797.471	300.54
797.652	312.83
797.832	318.97
798.012	374.27
798.192	292.35
798.373	304.64
798.553	327.16
798.733	349.69
798.913	345.59
799.093	267.77
799.274	245.24
799.454	259.58
799.634	232.96
799.814	220.67
799.994	288.25
800.174	298.49
800.354	263.68
800.534	220.67
800.714	306.68
800.894	267.77
801.074	259.58
801.254	259.58
801.434	280.06
801.614	259.58
801.794	284.16
801.974	744.95
802.154	280.06
802.334	321.02
802.514	316.92
802.693	308.73
802.873	245.24
803.053	327.16
803.233	232.96
803.413	308.73
803.592	243.2
803.772	271.87
803.952	312.83
804.131	192
804.311	271.87
804.491	247.29
804.67	239.1
804.85	185.85
805.03	300.54
805.209	331.26
805.389	259.58
805.568	273.92
805.748	278.01
805.928	243.2
806.107	243.2
806.287	243.2
806.466	243.2
806.646	267.77
806.825	251.39
807.004	144.89
807.184	286.2
807.363	230.91
807.543	196.09
807.722	230.91
807.901	245.24
808.081	255.48
808.26	239.1
808.439	280.06
808.619	226.81
808.798	243.2
808.977	165.37
809.156	214.52
809.336	173.57
809.515	214.52
809.694	235
809.873	189.95
810.052	183.81
810.231	173.57
810.411	325.12
810.59	204.28
810.769	216.57
810.948	206.33
811.127	235
811.306	214.52
811.485	146.94
811.664	196.09
811.843	161.28
812.022	194.05
812.201	210.43
812.38	183.81
812.559	214.52
812.737	120.32
812.916	206.33
813.095	220.67
813.274	247.29
813.453	224.76
813.632	189.95
813.811	206.33
813.989	163.33
814.168	148.99
814.347	128.51
814.526	173.57
814.704	179.71
814.883	269.82
815.062	183.81
815.24	196.09
815.419	165.37
815.598	153.09
815.776	192
815.955	222.72
816.133	214.52
816.312	138.75
816.49	124.41
816.669	159.23
816.847	161.28
817.026	165.37
817.204	175.61
817.383	153.09
817.561	120.32
817.74	118.27
817.918	173.57
818.097	134.65
818.275	140.8
818.453	142.85
818.632	220.67
818.81	220.67
818.988	157.18
819.167	155.13
819.345	216.57
819.523	153.09
819.701	169.47
819.879	148.99
820.058	101.89
820.236	198.14
820.414	73.21
820.592	118.27
820.77	50.69
820.948	198.14
821.127	122.37
821.305	153.09
821.483	161.28
821.661	165.37
821.839	128.51
822.017	110.08
822.195	157.18
822.373	144.89
822.551	112.13
822.729	204.28
822.907	71.17
823.085	118.27
823.262	148.99
823.44	142.85
823.618	83.45
823.796	157.18
823.974	148.99
824.152	159.23
824.329	124.41
824.507	181.76
824.685	134.65
824.863	95.74
825.04	105.98
825.218	130.56
825.396	144.89
825.574	89.6
825.751	224.76
825.929	169.47
826.107	112.13
826.284	192
826.462	126.46
826.639	101.89
826.817	54.78
826.994	97.79
827.172	103.93
827.349	126.46
827.527	146.94
827.704	148.99
827.882	134.65
828.059	48.64
828.237	175.61
828.414	122.37
828.591	30.21
828.769	17.92
828.946	73.21
829.124	134.65
829.301	34.3
829.478	228.86
829.655	103.93
829.833	134.65
830.01	124.41
830.187	144.89
830.364	13.82
830.542	95.74
830.719	153.09
830.896	153.09
831.073	97.79
831.25	136.7
831.427	87.55
831.604	132.61
831.782	97.79
831.959	89.6
832.136	105.98
832.313	69.12
832.49	93.69
832.667	99.84
832.844	108.03
833.021	108.03
833.198	126.46
833.374	173.57
833.551	114.17
833.728	108.03
833.905	179.71
834.082	202.24
834.259	97.79
834.436	112.13
834.612	114.17
834.789	126.46
834.966	97.79
835.143	136.7
835.319	148.99
835.496	144.89
835.673	116.22
835.85	77.31
836.026	83.45
836.203	46.59
836.38	48.64
836.556	91.65
836.733	15.87
836.909	116.22
837.086	71.17
837.262	28.16
837.439	110.08
837.616	69.12
837.792	95.74
837.968	114.17
838.145	-2.56
838.321	58.88
838.498	50.69
838.674	77.31
838.851	69.12
839.027	91.65
839.203	75.26
839.38	101.89
839.556	73.21
839.732	50.69
839.909	42.5
840.085	128.51
840.261	65.02
840.437	71.17
840.614	36.35
840.79	101.89
840.966	138.75
841.142	62.98
841.318	42.5
841.494	157.18
841.671	103.93
841.847	24.06
842.023	87.55
842.199	75.26
842.375	97.79
842.551	112.13
842.727	42.5
842.903	73.21
843.079	75.26
843.255	132.61
843.431	161.28
843.607	124.41
843.783	77.31
843.959	71.17
844.134	87.55
844.31	108.03
844.486	114.17
844.662	144.89
844.838	9.73
845.013	179.71
845.189	11.78
845.365	110.08
845.541	65.02
845.716	126.46
845.892	103.93
846.068	58.88
846.244	71.17
846.419	108.03
846.595	24.06
846.77	69.12
846.946	54.78
847.122	56.83
847.297	56.83
847.473	151.04
847.648	28.16
847.824	30.21
847.999	46.59
848.175	22.02
848.35	28.16
848.526	75.26
848.701	71.17
848.876	110.08
849.052	116.22
849.227	34.3
849.403	67.07
849.578	69.12
849.753	56.83
849.929	93.69
850.104	15.87
850.279	87.55
850.454	67.07
850.63	112.13
850.805	97.79
850.98	83.45
851.155	73.21
851.33	91.65
851.505	22.02
851.681	54.78
851.856	46.59
852.031	50.69
852.206	79.36
852.381	101.89
852.556	67.07
852.731	50.69
852.906	75.26
853.081	32.26
853.256	30.21
853.431	54.78
853.606	67.07
853.781	30.21
853.956	-8.7
854.131	83.45
854.305	50.69
854.48	38.4
854.655	75.26
854.83	71.17
855.005	34.3
855.18	91.65
855.354	-2.56
855.529	7.68
855.704	34.3
855.879	54.78
856.053	15.87
856.228	95.74
856.403	-2.56
856.577	46.59
856.752	-41.47
856.926	69.12
857.101	26.11
857.276	52.74
857.45	5.63
857.625	73.21
857.799	67.07
857.974	-0.51
858.148	24.06
858.323	-33.28
858.497	3.58
858.672	79.36
858.846	24.06
859.02	52.74
859.195	24.06
859.369	54.78
859.543	93.69
859.718	58.88
859.892	-18.94
860.066	1.54
860.241	9.73
860.415	65.02
860.589	-14.85
860.763	42.5
860.938	75.26
861.112	83.45
861.286	34.3
861.46	24.06
861.634	36.35
861.808	46.59
861.982	17.92
862.157	-14.85
862.331	15.87
862.505	56.83
862.679	1.54
862.853	50.69
863.027	44.54
863.201	38.4
863.375	79.36
863.549	48.64
863.722	81.41
863.896	40.45
864.07	13.82
864.244	69.12
864.418	11.78
864.592	24.06
864.766	-12.8
864.939	48.64
865.113	13.82
865.287	26.11
865.461	13.82
865.634	24.06
865.808	-31.23
865.982	73.21
866.156	19.97
866.329	36.35
866.503	28.16
866.676	62.98
866.85	40.45
867.024	-4.61
867.197	93.69
867.371	36.35
867.544	81.41
867.718	48.64
867.891	-43.52
868.065	1.54
868.238	62.98
868.412	32.26
868.585	22.02
868.759	54.78
868.932	77.31
869.105	32.26
869.279	1.54
869.452	46.59
869.625	77.31
869.799	1.54
869.972	-51.71
870.145	-4.61
870.319	17.92
870.492	34.3
870.665	28.16
870.838	50.69
871.011	-70.14
871.185	46.59
871.358	-0.51
871.531	-25.09
871.704	-51.71
871.877	93.69
872.05	42.5
872.223	3.58
872.396	9.73
872.569	34.3
872.742	17.92
872.915	22.02
873.088	-33.28
873.261	13.82
873.434	48.64
873.607	30.21
873.78	60.93
873.953	28.16
874.126	32.26
874.299	32.26
874.471	22.02
874.644	69.12
874.817	-6.66
874.99	83.45
875.163	-100.86
875.335	34.3
875.508	-33.28
875.681	65.02
875.853	34.3
876.026	50.69
876.199	17.92
876.371	58.88
876.544	32.26
876.717	105.98
876.889	75.26
877.062	32.26
877.234	9.73
877.407	7.68
877.579	67.07
877.752	62.98
877.924	75.26
878.097	87.55
878.269	112.13
878.442	40.45
878.614	-0.51
878.786	-2.56
878.959	24.06
879.131	-100.86
879.303	-57.86
879.476	13.82
879.648	34.3
879.82	-29.18
879.993	36.35
880.165	36.35
880.337	-0.51
880.509	48.64
880.681	28.16
880.854	11.78
881.026	34.3
881.198	60.93
881.37	9.73
881.542	28.16
881.714	71.17
881.886	87.55
882.058	-25.09
882.23	44.54
882.402	7.68
882.574	13.82
882.746	58.88
882.918	46.59
883.09	58.88
883.262	1.54
883.434	44.54
883.606	-18.94
883.778	13.82
883.95	75.26
884.122	11.78
884.293	52.74
884.465	58.88
884.637	60.93
884.809	15.87
884.98	85.5
885.152	87.55
885.324	50.69
885.496	40.45
885.667	28.16
885.839	65.02
886.011	38.4
886.182	-6.66
886.354	79.36
886.525	34.3
886.697	44.54
886.869	67.07
887.04	36.35
887.212	38.4
887.383	60.93
887.555	56.83
887.726	46.59
887.897	22.02
888.069	69.12
888.24	-18.94
888.412	9.73
888.583	-37.38
888.754	130.56
888.926	-10.75
889.097	79.36
889.268	-23.04
889.44	48.64
889.611	34.3
889.782	83.45
889.953	46.59
890.125	34.3
890.296	42.5
890.467	52.74
890.638	22.02
890.809	-18.94
890.98	50.69
891.151	15.87
891.323	65.02
891.494	89.6
891.665	26.11
891.836	15.87
892.007	15.87
892.178	26.11
892.349	15.87
892.52	3.58
892.691	7.68
892.862	38.4
893.032	75.26
893.203	28.16
893.374	48.64
893.545	17.92
893.716	-0.51
893.887	40.45
894.057	-14.85
894.228	13.82
894.399	-6.66
894.57	-12.8
894.74	69.12
894.911	24.06
895.082	-4.61
895.253	-6.66
895.423	58.88
895.594	34.3
895.764	1.54
895.935	11.78
896.106	-12.8
896.276	-0.51
896.447	-16.9
896.617	34.3
896.788	17.92
896.958	67.07
897.129	19.97
897.299	62.98
897.47	15.87
897.64	60.93
897.81	-10.75
897.981	87.55
898.151	67.07
898.322	34.3
898.492	-29.18
898.662	32.26
898.832	22.02
899.003	36.35
899.173	120.32
899.343	15.87
899.513	-31.23
