Data from USB4F104151__116__11-07-23-597.txt Node

Date: Wed Mar 12 11:07:23 EDT 2025
User: louis
Spectrometer: USB4F10415
Trigger mode: 4
Integration Time (sec): 2.000000E-2
Scans to average: 1
Electric dark correction enabled: true
Nonlinearity correction enabled: false
Boxcar width: 0
XAxis mode: Wavelengths
Number of Pixels in Spectrum: 3648
>>>>>Begin Spectral Data<<<<<
178.204	-47.79
178.424	-47.79
178.644	-47.79
178.864	-78.51
179.084	-66.22
179.304	-62.12
179.524	23.89
179.744	17.75
179.964	5.46
180.184	3.41
180.404	21.84
180.624	-33.45
180.844	71
181.064	-43.69
181.283	30.04
181.503	19.8
181.723	-53.93
181.943	-103.08
182.163	34.13
182.383	83.28
182.602	23.89
182.822	87.38
183.042	68.95
183.262	93.52
183.482	66.9
183.701	38.23
183.921	128.34
184.141	5.46
184.361	105.81
184.58	32.08
184.8	15.7
185.02	54.61
185.239	68.95
185.459	30.04
185.679	68.95
185.898	-21.16
186.118	23.89
186.338	50.52
186.557	27.99
186.777	-27.31
186.997	46.42
187.216	44.37
187.436	124.24
187.655	5.46
187.875	48.47
188.095	27.99
188.314	87.38
188.534	50.52
188.753	52.56
188.973	79.19
189.192	73.04
189.412	-19.11
189.631	32.08
189.851	40.28
190.07	-41.64
190.29	38.23
190.509	-15.02
190.729	62.8
190.948	103.76
191.168	107.86
191.387	58.71
191.607	56.66
191.826	56.66
192.045	17.75
192.265	42.32
192.484	42.32
192.704	27.99
192.923	3.41
193.142	71
193.362	56.66
193.581	83.28
193.8	126.29
194.02	27.99
194.239	60.76
194.458	32.08
194.678	75.09
194.897	44.37
195.116	-60.07
195.335	-12.97
195.555	95.57
195.774	77.14
195.993	64.85
196.212	85.33
196.432	19.8
196.651	62.8
196.87	27.99
197.089	152.91
197.308	13.65
197.528	103.76
197.747	25.94
197.966	7.51
198.185	38.23
198.404	42.32
198.623	34.13
198.842	21.84
199.062	52.56
199.281	36.18
199.5	99.67
199.719	-31.4
199.938	-60.07
200.157	128.34
200.376	103.76
200.595	56.66
200.814	71
201.033	89.43
201.252	44.37
201.471	34.13
201.69	25.94
201.909	21.84
202.128	27.99
202.347	-96.94
202.566	-8.87
202.785	-45.74
203.004	9.56
203.223	62.8
203.442	122.2
203.661	-43.69
203.879	9.56
204.098	68.95
204.317	-23.21
204.536	134.48
204.755	83.28
204.974	1.37
205.193	-72.36
205.411	148.82
205.63	107.86
205.849	79.19
206.068	58.71
206.287	-2.73
206.505	81.24
206.724	73.04
206.943	105.81
207.162	9.56
207.381	87.38
207.599	107.86
207.818	56.66
208.037	73.04
208.255	48.47
208.474	118.1
208.693	71
208.911	25.94
209.13	95.57
209.349	56.66
209.567	34.13
209.786	34.13
210.005	42.32
210.223	42.32
210.442	-27.31
210.661	56.66
210.879	62.8
211.098	85.33
211.316	27.99
211.535	40.28
211.753	40.28
211.972	122.2
212.191	58.71
212.409	34.13
212.628	50.52
212.846	19.8
213.065	-35.5
213.283	79.19
213.502	38.23
213.72	89.43
213.938	66.9
214.157	3.41
214.375	48.47
214.594	9.56
214.812	111.96
215.031	-25.26
215.249	42.32
215.467	25.94
215.686	79.19
215.904	-51.88
216.122	3.41
216.341	25.94
216.559	13.65
216.778	62.8
216.996	62.8
217.214	7.51
217.432	-31.4
217.651	5.46
217.869	17.75
218.087	38.23
218.306	97.62
218.524	5.46
218.742	50.52
218.96	83.28
219.179	19.8
219.397	23.89
219.615	44.37
219.833	54.61
220.051	40.28
220.27	83.28
220.488	15.7
220.706	91.48
220.924	89.43
221.142	83.28
221.36	15.7
221.578	83.28
221.796	54.61
222.015	34.13
222.233	95.57
222.451	75.09
222.669	-27.31
222.887	89.43
223.105	32.08
223.323	48.47
223.541	7.51
223.759	109.91
223.977	9.56
224.195	95.57
224.413	99.67
224.631	7.51
224.849	42.32
225.067	48.47
225.285	-12.97
225.503	58.71
225.721	50.52
225.939	64.85
226.157	56.66
226.375	120.15
226.592	-2.73
226.81	11.61
227.028	-12.97
227.246	93.52
227.464	-12.97
227.682	44.37
227.9	77.14
228.117	30.04
228.335	42.32
228.553	52.56
228.771	19.8
228.989	68.95
229.206	62.8
229.424	5.46
229.642	32.08
229.86	89.43
230.077	46.42
230.295	13.65
230.513	83.28
230.731	116.05
230.948	42.32
231.166	128.34
231.384	97.62
231.601	95.57
231.819	42.32
232.037	38.23
232.254	-8.87
232.472	87.38
232.689	54.61
232.907	-10.92
233.125	25.94
233.342	42.32
233.56	25.94
233.777	58.71
233.995	-4.78
234.213	134.48
234.43	71
234.648	68.95
234.865	15.7
235.083	32.08
235.3	71
235.518	15.7
235.735	66.9
235.953	30.04
236.17	71
236.388	58.71
236.605	-47.79
236.822	58.71
237.04	77.14
237.257	19.8
237.475	71
237.692	83.28
237.909	21.84
238.127	46.42
238.344	19.8
238.562	40.28
238.779	79.19
238.996	19.8
239.214	83.28
239.431	116.05
239.648	34.13
239.865	101.72
240.083	118.1
240.3	25.94
240.517	21.84
240.735	42.32
240.952	58.71
241.169	50.52
241.386	13.65
241.603	54.61
241.821	44.37
242.038	17.75
242.255	77.14
242.472	11.61
242.689	66.9
242.907	21.84
243.124	116.05
243.341	48.47
243.558	46.42
243.775	-8.87
243.992	19.8
244.209	64.85
244.426	66.9
244.643	68.95
244.86	15.7
245.078	64.85
245.295	66.9
245.512	42.32
245.729	30.04
245.946	91.48
246.163	44.37
246.38	30.04
246.597	71
246.814	42.32
247.031	-8.87
247.248	-6.83
247.464	-21.16
247.681	66.9
247.898	111.96
248.115	58.71
248.332	-33.45
248.549	114
248.766	66.9
248.983	62.8
249.2	128.34
249.417	38.23
249.633	-19.11
249.85	132.44
250.067	5.46
250.284	46.42
250.501	50.52
250.717	77.14
250.934	46.42
251.151	54.61
251.368	64.85
251.585	52.56
251.801	68.95
252.018	30.04
252.235	91.48
252.451	25.94
252.668	36.18
252.885	124.24
253.102	50.52
253.318	103.76
253.535	15.7
253.752	52.56
253.968	62.8
254.185	60.76
254.401	5.46
254.618	25.94
254.835	13.65
255.051	56.66
255.268	58.71
255.484	54.61
255.701	83.28
255.917	5.46
256.134	79.19
256.351	124.24
256.567	58.71
256.784	48.47
257	15.7
257.217	62.8
257.433	109.91
257.65	64.85
257.866	38.23
258.082	-33.45
258.299	21.84
258.515	52.56
258.732	58.71
258.948	50.52
259.165	-35.5
259.381	25.94
259.597	38.23
259.814	91.48
260.03	50.52
260.246	5.46
260.463	56.66
260.679	114
260.895	3.41
261.112	54.61
261.328	27.99
261.544	38.23
261.761	75.09
261.977	38.23
262.193	66.9
262.409	109.91
262.626	56.66
262.842	25.94
263.058	23.89
263.274	44.37
263.49	52.56
263.707	89.43
263.923	50.52
264.139	-25.26
264.355	36.18
264.571	163.15
264.787	7.51
265.004	46.42
265.22	27.99
265.436	36.18
265.652	56.66
265.868	38.23
266.084	44.37
266.3	34.13
266.516	-17.07
266.732	116.05
266.948	73.04
267.164	50.52
267.38	114
267.596	44.37
267.812	52.56
268.028	142.68
268.244	-0.68
268.46	95.57
268.676	9.56
268.892	48.47
269.108	77.14
269.324	54.61
269.54	34.13
269.756	42.32
269.972	50.52
270.188	75.09
270.403	87.38
270.619	44.37
270.835	83.28
271.051	93.52
271.267	95.57
271.483	30.04
271.698	79.19
271.914	44.37
272.13	62.8
272.346	68.95
272.562	54.61
272.777	200.02
272.993	19.8
273.209	101.72
273.425	34.13
273.64	-0.68
273.856	85.33
274.072	34.13
274.287	52.56
274.503	83.28
274.719	9.56
274.934	44.37
275.15	27.99
275.366	87.38
275.581	21.84
275.797	48.47
276.012	138.58
276.228	-21.16
276.444	75.09
276.659	107.86
276.875	30.04
277.09	87.38
277.306	89.43
277.521	109.91
277.737	87.38
277.952	54.61
278.168	30.04
278.383	-2.73
278.599	103.76
278.814	17.75
279.03	91.48
279.245	124.24
279.461	46.42
279.676	111.96
279.892	5.46
280.107	60.76
280.322	58.71
280.538	118.1
280.753	60.76
280.969	50.52
281.184	19.8
281.399	71
281.615	34.13
281.83	64.85
282.045	-35.5
282.26	79.19
282.476	48.47
282.691	50.52
282.906	64.85
283.122	95.57
283.337	27.99
283.552	5.46
283.767	3.41
283.983	56.66
284.198	48.47
284.413	107.86
284.628	1.37
284.843	3.41
285.058	68.95
285.274	52.56
285.489	50.52
285.704	58.71
285.919	60.76
286.134	52.56
286.349	36.18
286.564	1.37
286.779	85.33
286.995	73.04
287.21	5.46
287.425	81.24
287.64	-0.68
287.855	32.08
288.07	11.61
288.285	13.65
288.5	36.18
288.715	60.76
288.93	54.61
289.145	40.28
289.36	91.48
289.575	95.57
289.79	-19.11
290.004	9.56
290.219	99.67
290.434	71
290.649	54.61
290.864	11.61
291.079	79.19
291.294	19.8
291.509	36.18
291.724	27.99
291.938	54.61
292.153	75.09
292.368	40.28
292.583	66.9
292.798	44.37
293.012	27.99
293.227	60.76
293.442	-12.97
293.657	46.42
293.871	58.71
294.086	15.7
294.301	103.76
294.516	38.23
294.73	95.57
294.945	68.95
295.16	52.56
295.374	48.47
295.589	58.71
295.804	97.62
296.018	58.71
296.233	23.89
296.447	77.14
296.662	87.38
296.877	109.91
297.091	93.52
297.306	-6.83
297.52	19.8
297.735	87.38
297.949	83.28
298.164	122.2
298.378	17.75
298.593	134.48
298.807	-21.16
299.022	122.2
299.236	38.23
299.451	116.05
299.665	38.23
299.88	-8.87
300.094	50.52
300.309	44.37
300.523	23.89
300.737	68.95
300.952	44.37
301.166	68.95
301.381	15.7
301.595	50.52
301.809	58.71
302.024	48.47
302.238	68.95
302.452	144.72
302.667	19.8
302.881	99.67
303.095	46.42
303.309	1.37
303.524	52.56
303.738	38.23
303.952	109.91
304.166	87.38
304.381	91.48
304.595	73.04
304.809	58.71
305.023	91.48
305.237	50.52
305.452	27.99
305.666	62.8
305.88	83.28
306.094	109.91
306.308	21.84
306.522	21.84
306.736	81.24
306.95	68.95
307.164	-27.31
307.379	21.84
307.593	73.04
307.807	134.48
308.021	107.86
308.235	54.61
308.449	21.84
308.663	-0.68
308.877	73.04
309.091	-31.4
309.305	42.32
309.519	46.42
309.733	68.95
309.947	42.32
310.161	34.13
310.374	91.48
310.588	105.81
310.802	58.71
311.016	75.09
311.23	15.7
311.444	95.57
311.658	68.95
311.872	99.67
312.085	134.48
312.299	75.09
312.513	40.28
312.727	114
312.941	124.24
313.154	103.76
313.368	36.18
313.582	105.81
313.796	-6.83
314.009	66.9
314.223	103.76
314.437	44.37
314.651	62.8
314.864	44.37
315.078	56.66
315.292	17.75
315.505	50.52
315.719	66.9
315.933	46.42
316.146	-15.02
316.36	21.84
316.573	89.43
316.787	62.8
317.001	73.04
317.214	46.42
317.428	95.57
317.641	-2.73
317.855	105.81
318.068	85.33
318.282	56.66
318.495	50.52
318.709	81.24
318.922	62.8
319.136	120.15
319.349	68.95
319.563	38.23
319.776	87.38
319.99	1.37
320.203	25.94
320.417	15.7
320.63	42.32
320.843	62.8
321.057	116.05
321.27	71
321.483	44.37
321.697	77.14
321.91	71
322.124	60.76
322.337	60.76
322.55	40.28
322.763	128.34
322.977	66.9
323.19	54.61
323.403	91.48
323.617	161.11
323.83	46.42
324.043	75.09
324.256	66.9
324.469	50.52
324.683	101.72
324.896	50.52
325.109	42.32
325.322	34.13
325.535	21.84
325.748	21.84
325.962	50.52
326.175	68.95
326.388	34.13
326.601	75.09
326.814	95.57
327.027	48.47
327.24	105.81
327.453	-19.11
327.666	109.91
327.879	79.19
328.092	185.68
328.305	83.28
328.518	42.32
328.731	11.61
328.944	17.75
329.157	89.43
329.37	75.09
329.583	118.1
329.796	89.43
330.009	93.52
330.222	58.71
330.435	62.8
330.648	75.09
330.861	21.84
331.073	122.2
331.286	54.61
331.499	30.04
331.712	-25.26
331.925	48.47
332.138	34.13
332.35	130.39
332.563	85.33
332.776	114
332.989	44.37
333.202	42.32
333.414	85.33
333.627	48.47
333.84	58.71
334.053	62.8
334.265	58.71
334.478	52.56
334.691	62.8
334.903	87.38
335.116	9.56
335.329	64.85
335.541	89.43
335.754	120.15
335.966	99.67
336.179	42.32
336.392	27.99
336.604	87.38
336.817	83.28
337.029	128.34
337.242	46.42
337.454	48.47
337.667	64.85
337.88	77.14
338.092	87.38
338.305	93.52
338.517	50.52
338.729	79.19
338.942	32.08
339.154	-27.31
339.367	-41.64
339.579	60.76
339.792	25.94
340.004	152.91
340.217	60.76
340.429	71
340.641	91.48
340.854	101.72
341.066	103.76
341.278	3.41
341.491	79.19
341.703	54.61
341.915	48.47
342.128	38.23
342.34	105.81
342.552	36.18
342.764	71
342.977	42.32
343.189	36.18
343.401	101.72
343.613	50.52
343.826	21.84
344.038	48.47
344.25	95.57
344.462	77.14
344.674	38.23
344.886	116.05
345.099	66.9
345.311	62.8
345.523	50.52
345.735	27.99
345.947	128.34
346.159	42.32
346.371	79.19
346.583	99.67
346.795	54.61
347.007	144.72
347.219	9.56
347.431	60.76
347.643	130.39
347.855	19.8
348.067	68.95
348.279	40.28
348.491	52.56
348.703	64.85
348.915	46.42
349.127	68.95
349.339	-4.78
349.551	120.15
349.763	56.66
349.975	-0.68
350.187	73.04
350.399	146.77
350.61	54.61
350.822	64.85
351.034	91.48
351.246	126.29
351.458	111.96
351.669	89.43
351.881	126.29
352.093	105.81
352.305	79.19
352.517	77.14
352.728	87.38
352.94	-17.07
353.152	93.52
353.363	105.81
353.575	15.7
353.787	77.14
353.999	103.76
354.21	165.2
354.422	66.9
354.633	71
354.845	81.24
355.057	62.8
355.268	87.38
355.48	54.61
355.692	52.56
355.903	87.38
356.115	81.24
356.326	120.15
356.538	81.24
356.749	21.84
356.961	107.86
357.172	13.65
357.384	-10.92
357.595	171.35
357.807	116.05
358.018	-0.68
358.23	81.24
358.441	83.28
358.653	32.08
358.864	21.84
359.075	56.66
359.287	114
359.498	21.84
359.709	79.19
359.921	95.57
360.132	60.76
360.344	107.86
360.555	52.56
360.766	-12.97
360.977	66.9
361.189	87.38
361.4	124.24
361.611	54.61
361.823	126.29
362.034	56.66
362.245	25.94
362.456	54.61
362.667	79.19
362.879	40.28
363.09	91.48
363.301	91.48
363.512	73.04
363.723	60.76
363.935	38.23
364.146	118.1
364.357	34.13
364.568	99.67
364.779	50.52
364.99	130.39
365.201	93.52
365.412	81.24
365.623	81.24
365.834	71
366.045	107.86
366.256	120.15
366.467	15.7
366.678	109.91
366.889	79.19
367.1	140.63
367.311	44.37
367.522	83.28
367.733	-2.73
367.944	81.24
368.155	81.24
368.366	30.04
368.577	44.37
368.788	77.14
368.999	95.57
369.209	116.05
369.42	85.33
369.631	154.96
369.842	101.72
370.053	124.24
370.264	58.71
370.474	77.14
370.685	23.89
370.896	36.18
371.107	91.48
371.317	95.57
371.528	54.61
371.739	60.76
371.95	52.56
372.16	58.71
372.371	81.24
372.582	105.81
372.792	161.11
373.003	23.89
373.214	79.19
373.424	91.48
373.635	40.28
373.846	97.62
374.056	62.8
374.267	75.09
374.477	62.8
374.688	130.39
374.898	50.52
375.109	99.67
375.319	60.76
375.53	140.63
375.74	68.95
375.951	79.19
376.161	132.44
376.372	75.09
376.582	46.42
376.793	79.19
377.003	32.08
377.214	68.95
377.424	89.43
377.635	152.91
377.845	99.67
378.055	169.3
378.266	62.8
378.476	91.48
378.686	154.96
378.897	36.18
379.107	75.09
379.317	83.28
379.528	36.18
379.738	95.57
379.948	13.65
380.158	95.57
380.369	134.48
380.579	77.14
380.789	79.19
380.999	144.72
381.21	111.96
381.42	83.28
381.63	68.95
381.84	144.72
382.05	87.38
382.261	109.91
382.471	27.99
382.681	142.68
382.891	150.87
383.101	126.29
383.311	52.56
383.521	54.61
383.731	107.86
383.941	89.43
384.151	105.81
384.361	103.76
384.571	30.04
384.781	58.71
384.991	85.33
385.201	66.9
385.411	91.48
385.621	44.37
385.831	120.15
386.041	144.72
386.251	109.91
386.461	150.87
386.671	93.52
386.881	177.49
387.091	126.29
387.301	99.67
387.511	114
387.72	75.09
387.93	159.06
388.14	50.52
388.35	93.52
388.56	120.15
388.769	97.62
388.979	99.67
389.189	103.76
389.399	-6.83
389.609	99.67
389.818	85.33
390.028	150.87
390.238	150.87
390.447	64.85
390.657	77.14
390.867	30.04
391.076	60.76
391.286	109.91
391.496	124.24
391.705	157.01
391.915	52.56
392.125	111.96
392.334	73.04
392.544	85.33
392.753	179.54
392.963	109.91
393.172	62.8
393.382	107.86
393.591	97.62
393.801	93.52
394.01	169.3
394.22	177.49
394.429	93.52
394.639	142.68
394.848	142.68
395.058	154.96
395.267	81.24
395.477	89.43
395.686	71
395.895	154.96
396.105	152.91
396.314	132.44
396.524	144.72
396.733	175.44
396.942	148.82
397.152	95.57
397.361	202.07
397.57	109.91
397.78	181.59
397.989	128.34
398.198	197.97
398.407	148.82
398.617	169.3
398.826	75.09
399.035	195.92
399.244	60.76
399.453	210.26
399.663	226.64
399.872	238.93
400.081	148.82
400.29	193.87
400.499	163.15
400.708	154.96
400.917	120.15
401.127	167.25
401.336	212.31
401.545	226.64
401.754	181.59
401.963	165.2
402.172	206.16
402.381	214.35
402.59	202.07
402.799	222.55
403.008	136.53
403.217	202.07
403.426	173.39
403.635	167.25
403.844	173.39
404.053	202.07
404.262	249.17
404.471	269.65
404.68	247.12
404.888	165.2
405.097	238.93
405.306	275.79
405.515	222.55
405.724	243.03
405.933	308.56
406.142	269.65
406.35	271.7
406.559	288.08
406.768	314.7
406.977	281.94
407.185	312.66
407.394	341.33
407.603	349.52
407.812	245.07
408.02	259.41
408.229	402.77
408.438	298.32
408.646	353.62
408.855	349.52
409.064	435.53
409.272	339.28
409.481	499.02
409.69	421.2
409.898	417.1
410.107	441.68
410.315	390.48
410.524	490.83
410.733	482.64
410.941	546.12
411.15	576.84
411.358	542.03
411.567	554.32
411.775	525.65
411.984	662.86
412.192	578.89
412.401	626
412.609	660.81
412.818	718.15
413.026	795.98
413.234	800.07
413.443	769.35
413.651	793.93
413.86	886.09
414.068	851.27
414.276	986.44
414.485	927.05
414.693	1045.83
414.901	1054.02
415.11	1109.32
415.318	1064.26
415.526	1094.98
415.734	1105.22
415.943	1107.27
416.151	1293.63
416.359	1277.25
416.567	1310.02
416.776	1303.87
416.984	1375.55
417.192	1537.34
417.4	1471.81
417.608	1537.34
417.817	1535.29
418.025	1656.12
418.233	1678.65
418.441	1592.64
418.649	1705.28
418.857	1883.45
419.065	1860.92
419.273	1881.4
419.481	2121.01
419.689	2207.03
419.897	2231.6
420.105	2280.75
420.313	2334
420.521	2391.34
420.729	2442.54
420.937	2497.84
421.145	2512.18
421.353	2645.29
421.561	2897.19
421.769	3091.75
421.977	3011.88
422.185	3063.08
422.393	3175.72
422.601	3478.82
422.809	3450.14
423.017	3413.28
423.224	3493.15
423.432	3626.27
423.64	3902.75
423.848	4154.65
424.056	3818.78
424.263	4300.05
424.471	4265.24
424.679	4414.74
424.887	4680.97
425.094	4656.4
425.302	4914.44
425.51	4848.91
425.718	5072.14
425.925	5072.14
426.133	5528.83
426.341	5596.42
426.548	5618.94
426.756	5901.56
426.964	5879.04
427.171	6294.77
427.379	6333.68
427.586	6614.26
427.794	6817.01
428.001	7189.74
428.209	7333.09
428.417	7435.49
428.624	7666.91
428.832	7752.93
429.039	7703.78
429.247	7828.7
429.454	8469.72
429.662	8953.04
429.869	8600.79
430.076	8991.95
430.284	8826.06
430.491	9159.88
430.699	9825.47
430.906	9786.56
431.114	9899.2
431.321	10259.64
431.528	10697.91
431.736	11238.57
431.943	11586.72
432.15	11402.41
432.358	11406.5
432.565	11959.45
432.772	12024.99
432.979	12809.36
433.187	12582.04
433.394	12905.62
433.601	13560.97
433.808	13819.01
434.016	13671.56
434.223	14228.6
434.43	15299.69
434.637	14685.3
434.844	15803.49
435.052	15879.27
435.259	16082.02
435.466	15965.28
435.673	16061.54
435.88	17089.62
436.087	17847.36
436.294	17953.86
436.501	17282.13
436.708	17779.78
436.915	18508.86
437.122	19350.57
437.329	19158.06
437.537	19954.72
437.743	20317.22
437.95	20091.94
438.157	21216.27
438.364	21865.48
438.571	21599.24
438.778	21836.81
438.985	24091.62
439.192	22858.74
439.399	24019.94
439.606	23165.94
439.813	24869.85
440.02	25916.36
440.227	25603.02
440.433	25265.11
440.64	26080.2
440.847	25985.99
441.054	26661.82
441.261	28666.78
441.467	27966.38
441.674	28677.02
441.881	29592.47
442.088	29223.83
442.294	28939.16
442.501	30069.64
442.708	30339.97
442.914	31912.81
443.121	33100.64
443.328	32449.38
443.534	34636.61
443.741	33438.55
443.948	33200.99
444.154	35918.64
444.361	35439.42
444.568	35789.62
444.774	35771.19
444.981	35814.19
445.187	36694.82
445.394	38812.42
445.6	38005.52
445.807	41681.63
446.013	39408.38
446.22	40817.38
446.426	42173.14
446.633	42662.6
446.839	43774.65
447.046	42328.78
447.252	44141.24
447.459	44225.2
447.665	44378.8
447.871	46090.9
448.078	47671.93
448.284	45755.04
448.491	46936.71
448.697	48540.27
448.903	49441.38
449.11	49103.46
449.316	48777.84
449.522	49496.67
449.728	50756.17
449.935	51401.29
450.141	51092.04
450.347	52087.35
450.553	50512.47
450.76	50950.73
450.966	52615.73
451.172	52314.68
451.378	53287.46
451.584	52333.11
451.791	53719.59
451.997	53475.88
452.203	53774.88
452.409	54073.88
452.615	53836.32
452.821	51673.66
453.027	51501.64
453.233	53934.62
453.44	51573.31
453.646	52372.02
453.852	52539.96
454.058	52959.79
454.264	51575.36
454.47	52611.63
454.676	51483.2
454.882	53248.55
455.088	48503.41
455.294	49187.43
455.5	50152.02
455.705	50567.76
455.911	48145.01
456.117	47651.45
456.323	46836.36
456.529	43809.46
456.735	46598.8
456.941	45367.97
457.147	44483.25
457.352	42898.12
457.558	42531.53
457.764	42687.18
457.97	41810.65
458.176	41065.19
458.381	40862.44
458.587	38628.1
458.793	38931.2
458.999	36629.29
459.204	39318.27
459.41	38609.67
459.616	35971.89
459.821	36172.59
460.027	35844.91
460.233	34966.34
460.438	33493.85
460.644	33798.99
460.85	32232.3
461.055	31921.01
461.261	31456.12
461.466	29447.06
461.672	28527.52
461.878	30600.07
462.083	28584.87
462.289	28337.06
462.494	27665.33
462.7	26756.03
462.905	26080.2
463.111	26647.49
463.316	26700.73
463.522	26153.93
463.727	26313.67
463.932	26172.36
464.138	25895.88
464.343	26076.1
464.549	25654.22
464.754	26000.33
464.959	25947.08
465.165	25766.86
465.37	24730.59
465.575	23929.83
465.781	24843.23
465.986	25275.35
466.191	24583.13
466.397	23907.3
466.602	22721.53
466.807	23929.83
467.012	23516.14
467.218	23389.17
467.423	23421.94
467.628	23270.39
467.833	24495.07
468.038	23348.21
468.244	22565.88
468.449	23704.56
468.654	22854.65
468.859	22662.14
469.064	22750.2
469.269	21619.72
469.474	22273.03
469.679	22531.07
469.885	21607.44
470.09	21857.29
470.295	21611.53
470.5	21351.44
470.705	21347.34
470.91	20929.56
471.115	20601.88
471.32	21290
471.525	20857.88
471.73	20458.53
471.935	20194.34
472.139	19694.63
472.344	19979.3
472.549	20044.84
472.754	19551.27
472.959	19254.32
473.164	18758.71
473.369	18377.79
473.574	18994.23
473.778	19045.43
473.983	18678.84
474.188	18648.12
474.393	17839.17
474.598	17808.45
474.802	17589.32
475.007	17747.01
475.212	17736.77
475.417	16884.82
475.621	16985.17
475.826	16999.51
476.031	16776.28
476.235	16239.71
476.44	16551
476.645	16231.52
476.849	16507.99
477.054	16350.3
477.259	15965.28
477.463	15893.6
477.668	15447.15
477.872	15735.91
478.077	15361.13
478.282	15256.68
478.486	14992.5
478.691	14906.48
478.895	15205.49
479.1	14926.96
479.304	14595.19
479.509	14265.47
479.713	14580.85
479.918	14443.64
480.122	14412.92
480.326	14392.44
480.531	14333.05
480.735	14204.03
480.94	13937.79
481.144	14546.04
481.348	13612.17
481.553	13978.75
481.757	13579.4
481.961	13778.05
482.166	14097.53
482.37	13999.23
482.574	13538.44
482.778	13700.23
482.983	14224.51
483.187	13745.28
483.391	13945.98
483.595	13800.58
483.8	13679.75
484.004	13646.98
484.208	13945.98
484.412	13653.12
484.616	13884.55
484.821	13859.97
485.025	13442.18
485.229	14118.01
485.433	13616.26
485.637	13927.55
485.841	13487.24
486.045	13612.17
486.249	13583.49
486.453	13597.83
486.657	13456.52
486.861	13671.56
487.065	13450.38
487.269	13831.3
487.473	13452.42
487.677	13909.12
487.881	13737.09
488.085	13921.41
488.289	13810.82
488.493	13339.79
488.697	13919.36
488.901	13827.2
489.105	13630.6
489.309	13796.48
489.512	13776
489.716	13632.65
489.92	13681.8
490.124	13933.7
490.328	14066.81
490.531	13982.85
490.735	14240.89
490.939	14234.75
491.143	13769.86
491.346	13843.59
491.55	14496.89
491.754	14017.66
491.958	14443.64
492.161	14384.25
492.365	14417.02
492.569	14296.19
492.772	14423.16
492.976	14578.81
493.18	14484.6
493.383	15010.93
493.587	14838.9
493.79	15127.66
493.994	14972.02
494.197	14990.45
494.401	15404.14
494.605	15307.88
494.808	15608.94
495.012	15408.23
495.215	15524.97
495.419	15928.42
495.622	15701.09
495.825	15844.45
496.029	16063.58
496.232	16155.74
496.436	16034.91
496.639	16620.63
496.843	16448.6
497.046	16872.53
497.249	16876.63
497.453	16905.3
497.656	17427.53
497.859	17390.67
498.063	17650.76
498.266	17943.62
498.469	17466.44
498.673	18015.3
498.876	18355.26
499.079	18592.83
499.282	18406.46
499.485	18981.94
499.689	18914.36
499.892	19008.56
500.095	19319.85
500.298	19590.19
500.501	19469.36
500.705	20067.36
500.908	20132.9
501.111	20403.23
501.314	20618.27
501.517	20679.71
501.72	21439.5
501.923	21025.81
502.126	21627.92
502.329	21693.45
502.532	21666.83
502.735	22230.02
502.938	22498.3
503.141	22830.07
503.344	22995.96
503.547	23057.4
503.75	23434.22
503.953	23796.71
504.156	24019.94
504.359	24208.36
504.562	24275.94
504.765	24890.33
504.968	25009.11
505.17	25164.76
505.373	25152.47
505.576	25938.89
505.779	26147.78
505.982	26219.46
506.185	26790.84
506.387	26862.52
506.59	26850.24
506.793	27497.39
506.996	27274.17
507.198	28216.23
507.401	27962.28
507.604	28363.68
507.807	28949.4
508.009	29234.07
508.212	29547.41
508.415	29488.02
508.617	29508.5
508.82	30358.41
509.022	30100.36
509.225	30751.62
509.428	30954.36
509.63	31490.93
509.833	31140.73
510.035	32551.78
510.238	32238.44
510.44	32619.36
510.643	32586.6
510.845	32840.54
511.048	32856.93
511.25	33770.32
511.453	33514.33
511.655	34839.36
511.858	34876.23
512.06	34657.09
512.262	35427.13
512.465	35281.72
512.667	35703.6
512.87	36154.16
513.072	35978.03
513.274	37094.18
513.477	37425.95
513.679	37587.74
513.881	38105.87
514.084	38089.49
514.286	38497.03
514.488	38540.04
514.69	39594.75
514.893	39731.96
515.095	39570.17
515.297	40229.62
515.499	40254.19
515.701	41126.63
515.904	41403.1
516.106	41280.22
516.308	42066.64
516.51	42556.11
516.712	42310.35
516.914	42687.18
517.116	43416.25
517.318	43705.02
517.52	43629.24
517.722	44118.71
517.925	44427.95
518.127	45105.83
518.329	45236.9
518.531	45273.76
518.733	46240.4
518.935	46733.96
519.136	46328.47
519.338	47209.09
519.54	47356.55
519.742	47882.87
519.944	47749.76
520.146	48720.49
520.348	48876.14
520.55	49240.68
520.752	49136.23
520.954	49779.29
521.155	49478.24
521.357	50436.69
521.559	50860.62
521.761	51360.33
521.963	51427.91
522.164	51595.84
522.366	52013.63
522.568	52056.64
522.77	52218.42
522.971	53379.62
523.173	52877.87
523.375	53512.74
523.576	53459.49
523.778	53744.16
523.98	54129.18
524.181	54381.08
524.383	54508.05
524.584	55091.72
524.786	55198.22
524.988	54618.64
525.189	55099.92
525.391	55777.79
525.592	56320.51
525.794	56138.24
525.995	56171
526.197	56394.23
526.398	56625.65
526.6	57078.25
526.801	57137.65
527.003	57295.34
527.204	57543.14
527.406	57936.35
527.607	57809.38
527.808	58429.91
528.01	57614.82
528.211	57690.6
528.412	59173.33
528.614	58993.11
528.815	58907.09
529.016	59742.66
529.218	58798.55
529.419	59140.56
529.62	59234.77
529.822	59124.18
530.023	59029.97
530.224	59509.19
530.425	59580.87
530.626	59210.19
530.828	58874.32
531.029	60361.15
531.23	59283.92
531.431	59994.56
531.632	59726.28
531.833	59980.23
532.035	60010.95
532.236	60133.82
532.437	60692.92
532.638	59994.56
532.839	60295.61
533.04	60797.37
533.241	59552.2
533.442	61233.58
533.643	60467.64
533.844	60529.08
534.045	60684.73
534.246	60332.48
534.447	60555.71
534.648	60412.35
534.849	60524.99
535.05	60201.41
535.251	60246.46
535.451	60285.37
535.652	60762.55
535.853	60690.87
536.054	60608.95
536.255	60725.69
536.456	60195.26
536.657	61284.78
536.857	59976.13
537.058	60414.4
537.259	61139.38
537.46	60887.48
537.66	60647.86
537.861	60809.65
538.062	60336.57
538.263	60602.81
538.463	60553.66
538.664	60381.63
538.865	60602.81
539.065	60918.2
539.266	60172.74
539.466	61290.93
539.667	60025.28
539.868	61229.49
540.068	60529.08
540.269	60516.79
540.469	60836.28
540.67	60242.37
540.87	60352.96
541.071	60670.39
541.271	60774.84
541.472	60271.04
541.672	60389.82
541.873	60058.05
542.073	59621.83
542.274	60815.8
542.474	60271.04
542.675	60537.27
542.875	61061.55
543.075	60203.45
543.276	60129.73
543.476	60850.61
543.676	60320.19
543.877	60565.95
544.077	60275.13
544.277	59980.23
544.478	60058.05
544.678	60264.89
544.878	60072.38
545.078	60316.09
545.279	60041.67
545.479	60135.87
545.679	60381.63
545.879	60332.48
546.079	60520.89
546.28	60348.86
546.48	59883.97
546.68	60664.25
546.88	60279.23
547.08	60142.02
547.28	59894.21
547.48	59808.2
547.68	60006.85
547.88	59365.84
548.081	60441.02
548.281	59793.86
548.481	59556.3
548.681	60285.37
548.881	59898.31
549.081	59888.07
549.28	59576.78
549.48	59984.32
549.68	59578.82
549.88	60660.15
550.08	59656.65
550.28	59969.99
550.48	59881.92
550.68	60340.67
550.88	59537.86
551.08	59521.48
551.279	59888.07
551.479	59011.54
551.679	59427.27
551.879	59238.86
552.079	59765.19
552.278	59804.1
552.478	59746.76
552.678	59582.92
552.878	59675.08
553.077	59474.38
553.277	59005.39
553.477	60051.9
553.676	59408.84
553.876	59460.04
554.076	59167.18
554.275	59156.94
554.475	58694.1
554.674	59193.81
554.874	59410.89
555.074	59242.96
555.273	59202
555.473	59388.36
555.672	58794.45
555.872	59275.72
556.071	58800.6
556.271	59091.41
556.47	58837.46
556.67	58325.47
556.869	58784.21
557.068	59095.5
557.268	58567.13
557.467	58835.41
557.667	58626.52
557.866	58829.27
558.065	58438.11
558.265	57850.34
558.464	58124.77
558.663	58976.72
558.863	57543.14
559.062	58933.71
559.261	57801.19
559.461	58460.63
559.66	57502.18
559.859	58128.86
560.058	57674.21
560.258	58460.63
560.457	57608.68
560.656	57764.32
560.855	57383.4
561.054	57864.67
561.253	57199.08
561.453	57410.03
561.652	57469.42
561.851	57743.84
562.05	57111.02
562.249	56875.51
562.448	57129.45
562.647	56834.55
562.846	56785.39
563.045	57065.97
563.244	56558.07
563.443	57205.23
563.642	55966.21
563.841	56513.01
564.04	55962.11
564.239	56769.01
564.438	56214.01
564.637	56150.52
564.836	56412.66
565.035	56146.43
565.234	56097.28
565.432	55722.5
565.631	55697.92
565.83	55495.17
566.029	55884.29
566.228	55355.91
566.427	55499.27
566.625	54968.85
566.824	54524.44
567.023	55206.41
567.222	54225.43
567.42	54938.13
567.619	54753.81
567.818	55089.68
568.016	54565.4
568.215	54811.15
568.414	54256.15
568.612	54600.21
568.811	54104.6
569.01	54293.02
569.208	53721.63
569.407	54098.46
569.605	53475.88
569.804	53971.49
570.002	53283.37
570.201	54084.12
570.4	53684.77
570.598	52798
570.797	53074.48
570.995	53162.54
571.193	52625.97
571.392	53690.91
571.59	52433.46
571.789	52501.04
571.987	52492.85
572.186	52634.16
572.384	52505.14
572.582	52314.68
572.781	51984.96
572.979	51845.69
573.177	51812.93
573.376	51843.65
573.574	51337.8
573.772	51798.59
573.971	51497.54
574.169	51194.44
574.367	51061.32
574.565	51444.29
574.763	51034.7
574.962	51016.27
575.16	50289.24
575.358	50915.92
575.556	50448.98
575.754	50981.45
575.952	50227.8
576.151	50694.74
576.349	49861.21
576.547	50137.69
576.745	50143.83
576.943	50297.43
577.141	49916.51
577.339	49850.97
577.537	49660.51
577.735	49721.95
577.933	48904.81
578.131	49545.83
578.329	49134.18
578.527	49064.55
578.725	49130.09
578.923	48951.91
579.121	48798.32
579.319	48648.82
579.516	48939.63
579.714	48818.8
579.912	48183.93
580.11	48249.46
580.308	48220.79
580.506	47962.75
580.704	47426.18
580.901	48028.28
581.099	48235.13
581.297	47544.96
581.495	47356.55
581.692	48083.58
581.89	47409.79
582.088	47528.58
582.285	46838.41
582.483	47088.26
582.681	47178.37
582.878	46949
583.076	46013.08
583.274	46756.49
583.471	46119.57
583.669	46447.25
583.866	46101.14
584.064	46400.15
584.262	45656.73
584.459	46385.81
584.657	45666.97
584.854	46045.85
585.052	45009.57
585.249	45703.84
585.447	45273.76
585.644	44915.37
585.841	45353.63
586.039	45030.05
586.236	44665.52
586.434	44642.99
586.631	44556.97
586.828	44878.5
587.026	44341.94
587.223	44341.94
587.42	44169.91
587.618	44393.14
587.815	43762.36
588.012	43823.8
588.21	43875
588.407	44262.07
588.604	43313.86
588.801	43309.76
588.999	43363.01
589.196	43201.22
589.393	43428.54
589.59	42891.97
589.787	42859.21
589.984	42681.03
590.182	42740.43
590.379	42566.35
590.576	42140.37
590.773	42656.46
590.97	42224.34
591.167	42304.21
591.364	41794.26
591.561	41980.63
591.758	41745.11
591.955	41667.29
592.152	41908.95
592.349	41104.1
592.546	41560.8
592.743	41423.58
592.94	40819.43
593.137	41085.67
593.334	40975.08
593.531	40520.43
593.727	40530.67
593.924	40282.86
594.121	40211.18
594.318	40594.15
594.515	39893.75
594.712	40295.15
594.908	39543.55
595.105	40360.69
595.302	39467.77
595.499	40180.46
595.696	39942.9
595.892	39324.41
596.089	39506.68
596.286	39238.4
596.482	39176.96
596.679	39242.49
596.876	39090.94
597.072	38933.25
597.269	38556.43
597.466	38171.41
597.662	38296.33
597.859	38013.71
598.055	38581
598.252	38099.73
598.448	38091.54
598.645	38101.78
598.841	37536.54
599.038	37681.94
599.234	37679.89
599.431	37567.26
599.627	37432.09
599.824	37901.08
600.02	37141.28
600.217	36872.99
600.413	37155.61
600.609	36791.08
600.806	36660.01
601.002	37120.8
601.198	36698.92
601.395	36535.08
601.591	35978.03
601.787	36657.96
601.984	35984.18
602.18	36494.12
602.376	36037.42
602.572	35824.43
602.769	36012.85
602.965	35337.02
603.161	35695.41
603.357	35277.63
603.553	35179.32
603.75	35365.69
603.946	35013.44
604.142	35414.84
604.338	34736.96
604.534	34982.72
604.73	34620.23
604.926	34521.93
605.122	34546.5
605.318	34716.48
605.514	34343.75
605.71	34136.91
605.906	34165.58
606.102	34218.83
606.298	33868.62
606.494	34263.88
606.69	33809.23
606.886	34030.41
607.082	33651.54
607.278	33815.38
607.474	33016.67
607.67	33536.85
607.866	33106.78
608.062	33784.66
608.257	33176.41
608.453	33360.73
608.649	33444.69
608.845	32695.14
609.041	33180.51
609.236	33344.34
609.432	32682.85
609.628	32736.1
609.824	32811.87
610.019	32570.21
610.215	32836.45
610.411	32840.54
610.606	32281.45
610.802	32275.3
610.998	32258.92
611.193	32947.04
611.389	32340.84
611.584	32359.27
611.78	32115.56
611.976	32101.23
612.171	32123.76
612.367	31964.01
612.562	31933.29
612.758	31521.65
612.953	31878
613.149	32193.39
613.344	31791.98
613.539	31898.48
613.735	31902.57
613.93	31689.59
614.126	31591.28
614.321	31847.28
614.517	31378.29
614.712	31501.17
614.907	31236.98
615.103	31716.21
615.298	30909.31
615.493	31511.41
615.688	30747.52
615.884	31601.52
616.079	30774.14
616.274	31396.73
616.47	31101.82
616.665	30843.77
616.86	30784.38
617.055	30321.54
617.25	30538.63
617.445	30788.48
617.641	30301.06
617.836	30473.09
618.031	29973.39
618.226	30630.79
618.421	30196.62
618.616	30227.34
618.811	29737.87
619.006	30524.29
619.201	29592.47
619.396	30008.2
619.591	29467.54
619.786	29723.54
619.981	28969.88
620.176	29621.14
620.371	29146.01
620.566	29359
620.761	29084.57
620.956	29008.79
621.151	28789.66
621.346	29035.42
621.541	28502.95
621.735	28259.24
621.93	27917.23
622.125	28158.89
622.32	27882.41
622.515	27814.83
622.709	27906.99
622.904	27573.17
623.099	27661.23
623.294	27229.11
623.488	27466.67
623.683	27321.27
623.878	26813.37
624.072	26885.05
624.267	26643.39
624.462	26487.75
624.656	26082.25
624.851	26442.69
625.046	26319.81
625.24	25791.44
625.435	25570.26
625.629	25918.41
625.824	25353.17
626.018	25607.12
626.213	24837.08
626.407	25218
626.602	24781.79
626.796	25086.93
626.991	25056.21
627.185	25007.06
627.38	24595.42
627.574	24323.04
627.768	24218.6
627.963	24394.72
628.157	23856.11
628.352	24331.23
628.546	23479.28
628.74	23645.16
628.935	23563.25
629.129	23573.49
629.323	23256.05
629.517	23286.77
629.712	23225.33
629.906	23131.12
630.1	22588.41
630.294	22918.14
630.489	22617.08
630.683	22739.96
630.877	22101
631.071	22373.38
631.265	22395.9
631.459	22049.8
631.653	22037.51
631.848	22123.52
632.042	21638.16
632.236	21775.37
632.43	21521.42
632.624	21535.76
632.818	21398.54
633.012	21304.34
633.206	21099.54
633.4	21316.62
633.594	20694.04
633.788	21074.96
633.982	20939.8
634.176	20651.03
634.369	20628.51
634.563	20401.18
634.757	20241.44
634.951	20388.89
635.145	20155.43
635.339	20296.74
635.533	20139.04
635.726	20081.7
635.92	19543.08
636.114	19639.34
636.308	19498.03
636.501	19504.17
636.695	19409.97
636.889	19168.3
637.083	19059.76
637.276	18988.08
637.47	18953.27
637.664	18740.28
637.857	18795.57
638.051	18623.55
638.244	18582.59
638.438	18451.52
638.632	18537.53
638.825	18277.44
639.019	18361.41
639.212	18132.03
639.406	17976.39
639.599	18015.3
639.793	18068.55
639.986	17695.82
640.18	17736.77
640.373	17706.06
640.567	17554.51
640.76	17515.59
640.954	17019.99
641.147	17062.99
641.34	17112.14
641.534	17062.99
641.727	17173.58
641.92	17081.42
642.114	16694.36
642.307	17009.75
642.5	16620.63
642.694	16426.07
642.887	16477.27
643.08	16346.2
643.273	16305.24
643.467	16208.99
643.66	16127.07
643.853	15858.79
644.046	16137.31
644.239	16043.1
644.432	15895.65
644.626	15623.27
644.819	15713.38
645.012	15662.18
645.205	15588.46
645.398	15510.63
645.591	15281.26
645.784	15488.1
645.977	15234.16
646.17	15172.72
646.363	14945.39
646.556	15160.43
646.749	15012.98
646.942	14867.57
647.135	14859.38
647.328	14931.06
647.521	14711.92
647.714	14357.63
647.907	14419.07
648.099	14472.31
648.292	14460.02
648.485	14218.36
648.678	13933.7
648.871	14105.73
649.064	14144.64
649.256	14189.69
649.449	13833.35
649.642	13835.39
649.835	13673.6
650.027	13663.36
650.22	13622.41
650.413	13489.29
650.605	13749.38
650.798	13575.3
650.991	13122.7
651.183	13319.31
651.376	13302.92
651.568	13235.34
651.761	13120.65
651.954	13124.75
652.146	12991.63
652.339	12874.9
652.531	12704.92
652.724	12801.17
652.916	12547.22
653.109	12883.09
653.301	12813.46
653.494	12524.69
653.686	12256.41
653.879	12348.57
654.071	12444.82
654.263	12229.79
654.456	12321.95
654.648	12487.83
654.84	11967.65
655.033	12088.48
655.225	12086.43
655.417	11959.45
655.61	11852.96
655.802	11963.55
655.994	11785.38
656.186	12088.48
656.379	11656.36
656.571	11637.92
656.763	11476.13
656.955	11465.89
657.148	11408.55
657.34	11412.65
657.532	11386.02
657.724	11254.95
657.916	11240.62
658.108	11150.51
658.3	10878.13
658.492	10945.71
658.684	10878.13
658.876	10921.13
659.068	10831.02
659.26	10695.86
659.452	10788.02
659.644	10734.77
659.836	10450.1
660.028	10867.89
660.22	10282.17
660.412	10314.94
660.604	10359.99
660.796	10472.63
660.988	10486.97
661.18	10343.61
661.372	10126.52
661.563	10169.53
661.755	9989.31
661.947	9950.4
662.139	10032.32
662.331	9938.11
662.522	9983.16
662.714	9761.98
662.906	9602.24
663.097	9690.31
663.289	9655.49
663.481	9610.43
663.673	9661.63
663.864	9499.84
664.056	9456.84
664.247	9465.03
664.439	9336.01
664.631	9393.35
664.822	9211.08
665.014	9399.49
665.205	9139.4
665.397	9260.23
665.588	9303.24
665.78	8955.08
665.971	9141.45
666.163	9112.78
666.354	8891.6
666.546	9043.15
666.737	8948.94
666.929	8838.35
667.12	8836.3
667.311	8844.49
667.503	8660.18
667.694	8754.38
667.885	8713.42
668.077	8738
668.268	8563.92
668.459	8520.92
668.651	8543.44
668.842	8219.86
669.033	8371.41
669.224	8199.38
669.416	8242.39
669.607	8256.73
669.798	8402.13
669.989	8197.34
670.18	8236.25
670.371	8105.18
670.563	8283.35
670.754	8203.48
670.945	8150.23
671.136	8019.16
671.327	7947.48
671.518	7859.42
671.709	7787.74
671.9	7920.86
672.091	7660.77
672.282	7578.85
672.473	7668.96
672.664	7505.12
672.855	7769.31
673.046	7650.53
673.237	7552.23
673.428	7580.9
673.619	7562.47
673.809	7544.03
674	7453.92
674.191	7376.1
674.382	7410.92
674.573	7404.77
674.764	7341.29
674.954	7533.79
675.145	7218.41
675.336	7216.36
675.527	7138.54
675.717	7140.58
675.908	7159.02
676.099	7226.6
676.289	7120.1
676.48	7066.86
676.671	7226.6
676.861	6962.41
677.052	6950.12
677.243	7017.71
677.433	7017.71
677.624	6829.29
677.814	6782.19
678.005	6903.02
678.195	6798.57
678.386	6825.2
678.576	6837.48
678.767	6716.65
678.957	6704.37
679.148	6493.43
679.338	6716.65
679.529	6712.56
679.719	6640.88
679.909	6730.99
680.1	6597.87
680.29	6694.13
680.481	6581.49
680.671	6450.42
680.861	6354.16
681.052	6384.88
681.242	6583.54
681.432	6436.08
681.622	6325.49
681.813	6337.78
682.003	6497.52
682.193	6243.57
682.383	6405.36
682.573	6276.34
682.764	6266.1
682.954	6294.77
683.144	6233.33
683.334	6292.73
683.524	6147.32
683.714	6046.97
683.904	6061.3
684.094	6079.74
684.284	6012.15
684.474	6100.22
684.664	5901.56
684.854	6067.45
685.044	6083.83
685.234	6030.59
685.424	5967.1
685.614	5848.32
685.804	5893.37
685.994	5870.84
686.184	5879.04
686.374	5897.47
686.564	5887.23
686.753	5831.93
686.943	5661.95
687.133	5928.19
687.323	5647.62
687.513	5821.69
687.702	5674.24
687.892	5700.86
688.082	5629.18
688.272	5577.98
688.461	5553.41
688.651	5477.63
688.841	5440.77
689.03	5573.89
689.22	5522.69
689.41	5502.21
689.599	5561.6
689.789	5422.34
689.979	5278.98
690.168	5346.56
690.358	5291.27
690.547	5446.91
690.737	5309.7
690.926	5137.67
691.116	5266.69
691.305	5348.61
691.495	5203.21
691.684	5217.54
691.874	5338.37
692.063	5061.9
692.252	5135.62
692.442	4992.27
692.631	4934.92
692.82	5074.18
693.01	4982.03
693.199	5184.77
693.388	5004.55
693.578	4951.31
693.767	4994.31
693.956	5072.14
694.146	4908.3
694.335	4891.91
694.524	4748.56
694.713	5014.79
694.902	4853
695.092	4855.05
695.281	4723.98
695.47	4695.31
695.659	4836.62
695.848	4642.06
696.037	4693.26
696.226	4810
696.415	4578.58
696.604	4656.4
696.793	4627.73
696.982	4736.27
697.171	4678.93
697.36	4721.93
697.549	4578.58
697.738	4597.01
697.927	4486.42
698.116	4539.66
698.305	4633.87
698.494	4480.27
698.683	4662.54
698.872	4668.69
699.061	4580.62
699.25	4529.42
699.438	4644.11
699.627	4420.88
699.816	4549.9
700.005	4498.7
700.193	4498.7
700.382	4556.05
700.571	4408.59
700.76	4578.58
700.948	4523.28
701.137	4576.53
701.326	4392.21
701.514	4443.41
701.703	4277.52
701.892	4318.48
702.08	4560.14
702.269	4441.36
702.457	4439.31
702.646	4359.44
702.834	4314.39
703.023	4257.04
703.212	4328.72
703.4	4377.87
703.589	4142.36
703.777	4371.73
703.965	4291.86
704.154	4244.76
704.342	4330.77
704.531	4148.5
704.719	4142.36
704.907	4310.29
705.096	4142.36
705.284	4177.17
705.472	4273.43
705.661	4283.67
705.849	4226.32
706.037	4238.61
706.226	4267.28
706.414	4117.78
706.602	4156.69
706.79	4164.89
706.979	4097.3
707.167	3960.09
707.355	4087.06
707.543	3945.75
707.731	4138.26
707.919	4078.87
708.107	4115.73
708.296	4142.36
708.484	4027.67
708.672	3986.71
708.86	4052.25
709.048	4099.35
709.236	4113.69
709.424	4013.34
709.612	3964.18
709.8	3996.95
709.988	3939.61
710.176	4019.48
710.364	3984.66
710.551	3872.03
710.739	3945.75
710.927	3974.42
711.115	3933.47
711.303	3906.84
711.491	3935.51
711.679	4025.62
711.866	3996.95
712.054	3984.66
712.242	3869.98
712.43	3855.64
712.617	3843.35
712.805	3929.37
712.993	3822.88
713.181	3859.74
713.368	3925.27
713.556	3861.79
713.744	3749.15
713.931	3816.73
714.119	3859.74
714.306	3908.89
714.494	3773.72
714.682	3841.31
714.869	3777.82
715.057	3796.25
715.244	3650.85
715.432	3708.19
715.619	3802.4
715.807	3845.4
715.994	3704.09
716.182	3736.86
716.369	3745.05
716.556	3661.09
716.744	3755.29
716.931	3552.54
717.119	3706.14
717.306	3691.81
717.493	3624.22
717.681	3630.37
717.868	3636.51
718.055	3700
718.242	3650.85
718.43	3605.79
718.617	3575.07
718.804	3581.21
718.991	3712.28
719.179	3648.8
719.366	3564.83
719.553	3702.04
719.74	3525.92
719.927	3605.79
720.114	3521.82
720.301	3525.92
720.488	3499.3
720.676	3611.93
720.863	3396.9
721.05	3509.54
721.237	3487.01
721.424	3452.19
721.611	3566.88
721.798	3525.92
721.985	3515.68
722.172	3509.54
722.358	3462.43
722.545	3544.35
722.732	3523.87
722.919	3427.62
723.106	3362.08
723.293	3527.97
723.48	3446.05
723.667	3409.19
723.853	3384.61
724.04	3482.91
724.227	3339.55
724.414	3437.86
724.6	3308.83
724.787	3433.76
724.974	3333.41
725.161	3407.14
725.347	3362.08
725.534	3364.13
725.72	3396.9
725.907	3421.47
726.094	3325.22
726.28	3314.98
726.467	3398.95
726.653	3312.93
726.84	3421.47
727.027	3282.21
727.213	3341.6
727.4	3255.59
727.586	3253.54
727.773	3382.56
727.959	3190.05
728.145	3314.98
728.332	3261.73
728.518	3347.75
728.705	3228.96
728.891	3331.36
729.077	3319.07
729.264	3409.19
729.45	3226.92
729.636	3310.88
729.823	3249.44
730.009	3220.77
730.195	3228.96
730.382	3255.59
730.568	3298.6
730.754	3224.87
730.94	3261.73
731.126	3405.09
731.313	3269.92
731.499	3214.63
731.685	3267.88
731.871	3061.03
732.057	3104.04
732.243	3190.05
732.429	3153.19
732.615	3243.3
732.801	3257.64
732.987	3208.48
733.173	3343.65
733.359	3040.55
733.545	3167.52
733.731	3075.37
733.917	3069.22
734.103	3167.52
734.289	3042.6
734.475	3132.71
734.661	3085.61
734.847	3198.24
735.033	3056.93
735.219	3167.52
735.404	3124.52
735.59	3159.33
735.776	3061.03
735.962	3175.72
736.148	3190.05
736.333	3163.43
736.519	3081.51
736.705	2985.26
736.89	3157.29
737.076	3005.74
737.262	3061.03
737.447	2932.01
737.633	3108.13
737.819	2876.71
738.004	2997.54
738.19	2966.82
738.375	3020.07
738.561	3003.69
738.747	2903.34
738.932	2858.28
739.118	3018.02
739.303	3005.74
739.489	3028.26
739.674	2895.15
739.859	2942.25
740.045	2895.15
740.23	2956.58
740.416	2889
740.601	2848.04
740.786	2946.34
740.972	2805.03
741.157	3040.55
741.342	2970.92
741.528	2850.09
741.713	2831.66
741.898	2837.8
742.084	2825.51
742.269	2811.18
742.454	2751.79
742.639	2805.03
742.824	2573.61
743.01	2702.64
743.195	2741.55
743.38	2794.79
743.565	2616.62
743.75	2663.72
743.935	2782.51
744.12	2737.45
744.305	2721.07
744.49	2608.43
744.675	2569.52
744.86	2549.04
745.045	2719.02
745.23	2489.65
745.415	2536.75
745.6	2530.61
745.785	2563.37
745.97	2577.71
746.155	2546.99
746.34	2520.37
746.525	2405.68
746.71	2499.89
746.895	2538.8
747.079	2467.12
747.264	2422.06
747.449	2469.17
747.634	2352.43
747.819	2446.64
748.003	2391.34
748.188	2391.34
748.373	2342.19
748.557	2407.73
748.742	2338.1
748.927	2323.76
749.111	2364.72
749.296	2317.62
749.481	2211.12
749.665	2290.99
749.85	2211.12
750.034	2327.86
750.219	2325.81
750.404	2309.43
750.588	2301.23
750.773	2135.35
750.957	2202.93
751.141	2102.58
751.326	2071.86
751.51	2202.93
751.695	2073.91
751.879	2121.01
752.064	2112.82
752.248	2157.88
752.432	2051.38
752.617	2059.57
752.801	2170.16
752.985	1932.6
753.17	2041.14
753.354	2051.38
753.538	1908.02
753.722	1983.8
753.907	2006.33
754.091	1875.26
754.275	1955.13
754.459	1916.22
754.643	1854.78
754.828	1828.15
755.012	1869.11
755.196	1822.01
755.38	1883.45
755.564	1946.94
755.748	1871.16
755.932	1758.52
756.116	1813.82
756.3	1762.62
756.484	1799.48
756.668	1856.82
756.852	1705.28
757.036	1789.24
757.22	1682.75
757.404	1783.1
757.588	1721.66
757.772	1643.84
757.956	1695.04
758.14	1697.08
758.323	1684.8
758.507	1705.28
758.691	1615.16
758.875	1586.49
759.059	1688.89
759.242	1680.7
759.426	1688.89
759.61	1625.4
759.794	1426.75
759.977	1463.62
760.161	1547.58
760.345	1549.63
760.528	1520.96
760.712	1543.49
760.895	1510.72
761.079	1596.73
761.263	1451.33
761.446	1553.73
761.63	1502.53
761.813	1457.47
761.997	1398.08
762.18	1365.31
762.364	1498.43
762.547	1387.84
762.731	1398.08
762.914	1436.99
763.098	1424.7
763.281	1418.56
763.464	1471.81
763.648	1418.56
763.831	1375.55
764.015	1344.83
764.198	1410.37
764.381	1340.74
764.564	1385.79
764.748	1357.12
764.931	1396.03
765.114	1355.07
765.297	1451.33
765.481	1377.6
765.664	1373.5
765.847	1350.98
766.03	1375.55
766.213	1307.97
766.397	1375.55
766.58	1234.24
766.763	1371.46
766.946	1328.45
767.129	1322.31
767.312	1387.84
767.495	1281.35
767.678	1269.06
767.861	1277.25
768.044	1248.58
768.227	1357.12
768.41	1140.04
768.593	1353.02
768.776	1275.2
768.959	1209.67
769.142	1217.86
769.324	1310.02
769.507	1258.82
769.69	1254.72
769.873	1144.13
770.056	1287.49
770.239	1293.63
770.421	1181
770.604	1271.11
770.787	1129.8
770.97	1195.33
771.152	1258.82
771.335	1228.1
771.518	1152.32
771.7	1150.28
771.883	1160.52
772.066	1199.43
772.248	1162.56
772.431	1082.69
772.613	1058.12
772.796	1101.12
772.978	1090.88
773.161	1092.93
773.343	1086.79
773.526	1101.12
773.708	1148.23
773.891	1011.01
774.073	1045.83
774.256	1170.76
774.438	1092.93
774.621	1025.35
774.803	1094.98
774.985	941.38
775.168	1008.97
775.35	1094.98
775.532	1119.56
775.715	974.15
775.897	1002.82
776.079	922.95
776.261	1094.98
776.444	1025.35
776.626	1045.83
776.808	961.86
776.99	1006.92
777.173	1015.11
777.355	1017.16
777.537	935.24
777.719	943.43
777.901	902.47
778.083	892.23
778.265	927.05
778.447	888.14
778.629	900.42
778.811	957.77
778.993	884.04
779.175	990.53
779.357	894.28
779.539	734.54
779.721	824.65
779.903	875.85
780.085	826.7
780.267	812.36
780.449	828.74
780.631	845.13
780.812	855.37
780.994	734.54
781.176	843.08
781.358	804.17
781.54	705.87
781.721	759.11
781.903	765.26
782.085	742.73
782.267	802.12
782.448	691.53
782.63	695.63
782.812	791.88
782.993	726.35
783.175	748.87
783.357	642.38
783.538	750.92
783.72	662.86
783.901	714.06
784.083	664.91
784.264	724.3
784.446	755.02
784.627	716.11
784.809	652.62
784.99	626
785.172	689.48
785.353	628.04
785.535	593.23
785.716	550.22
785.897	652.62
786.079	611.66
786.26	644.43
786.441	736.59
786.623	556.36
786.804	558.41
786.985	617.8
787.167	677.19
787.348	564.56
787.529	599.37
787.71	621.9
787.891	716.11
788.073	595.28
788.254	535.89
788.435	546.12
788.616	640.33
788.797	597.32
788.978	566.6
789.159	576.84
789.34	509.26
789.522	525.65
789.703	560.46
789.884	566.6
790.065	531.79
790.246	623.95
790.427	462.16
790.607	529.74
790.788	560.46
790.969	466.25
791.15	494.93
791.331	453.97
791.512	537.93
791.693	464.21
791.874	470.35
792.054	560.46
792.235	515.41
792.416	456.01
792.597	513.36
792.778	492.88
792.958	544.08
793.139	509.26
793.32	523.6
793.5	462.16
793.681	464.21
793.862	431.44
794.042	476.49
794.223	486.73
794.404	449.87
794.584	427.34
794.765	470.35
794.945	423.25
795.126	382.29
795.306	423.25
795.487	398.67
795.667	492.88
795.848	468.3
796.028	396.62
796.209	470.35
796.389	408.91
796.57	404.82
796.75	421.2
796.93	462.16
797.111	341.33
797.291	435.53
797.471	367.95
797.652	443.73
797.832	421.2
798.012	386.38
798.192	427.34
798.373	361.81
798.553	372.05
798.733	378.19
798.913	363.86
799.093	349.52
799.274	353.62
799.454	376.14
799.634	302.42
799.814	355.66
799.994	404.82
800.174	423.25
800.354	265.55
800.534	361.81
800.714	388.43
800.894	404.82
801.074	322.9
801.254	361.81
801.434	363.86
801.614	370
801.794	347.47
801.974	697.67
802.154	345.42
802.334	357.71
802.514	357.71
802.693	349.52
802.873	398.67
803.053	269.65
803.233	292.18
803.413	322.9
803.592	302.42
803.772	335.18
803.952	286.03
804.131	240.98
804.311	396.62
804.491	308.56
804.67	316.75
804.85	318.8
805.03	308.56
805.209	329.04
805.389	216.4
805.568	279.89
805.748	283.98
805.928	279.89
806.107	292.18
806.287	310.61
806.466	324.94
806.646	294.22
806.825	238.93
807.004	283.98
807.184	255.31
807.363	247.12
807.543	267.6
807.722	275.79
807.901	335.18
808.081	308.56
808.26	238.93
808.439	300.37
808.619	296.27
808.798	273.75
808.977	220.5
809.156	281.94
809.336	200.02
809.515	273.75
809.694	273.75
809.873	294.22
810.052	286.03
810.231	247.12
810.411	236.88
810.59	230.74
810.769	261.46
810.948	257.36
811.127	240.98
811.306	281.94
811.485	273.75
811.664	298.32
811.843	275.79
812.022	243.03
812.201	197.97
812.38	263.51
812.559	263.51
812.737	255.31
812.916	161.11
813.095	214.35
813.274	288.08
813.453	269.65
813.632	238.93
813.811	238.93
813.989	150.87
814.168	236.88
814.347	249.17
814.526	249.17
814.704	255.31
814.883	132.44
815.062	222.55
815.24	189.78
815.419	200.02
815.598	202.07
815.776	216.4
815.955	271.7
816.133	206.16
816.312	216.4
816.49	146.77
816.669	189.78
816.847	210.26
817.026	243.03
817.204	122.2
817.383	189.78
817.561	150.87
817.74	185.68
817.918	175.44
818.097	232.79
818.275	175.44
818.453	230.74
818.632	116.05
818.81	210.26
818.988	206.16
819.167	183.63
819.345	267.6
819.523	183.63
819.701	167.25
819.879	177.49
820.058	202.07
820.236	83.28
820.414	132.44
820.592	177.49
820.77	195.92
820.948	210.26
821.127	169.3
821.305	183.63
821.483	191.83
821.661	197.97
821.839	148.82
822.017	103.76
822.195	173.39
822.373	238.93
822.551	146.77
822.729	193.87
822.907	193.87
823.085	122.2
823.262	99.67
823.44	245.07
823.618	159.06
823.796	146.77
823.974	206.16
824.152	197.97
824.329	95.57
824.507	206.16
824.685	159.06
824.863	157.01
825.04	140.63
825.218	146.77
825.396	202.07
825.574	118.1
825.751	140.63
825.929	271.7
826.107	103.76
826.284	146.77
826.462	200.02
826.639	130.39
826.817	165.2
826.994	124.24
827.172	50.52
827.349	210.26
827.527	138.58
827.704	136.53
827.882	202.07
828.059	109.91
828.237	111.96
828.414	197.97
828.591	103.76
828.769	126.29
828.946	109.91
829.124	144.72
829.301	97.62
829.478	107.86
829.655	89.43
829.833	126.29
830.01	140.63
830.187	64.85
830.364	66.9
830.542	93.52
830.719	193.87
830.896	138.58
831.073	148.82
831.25	132.44
831.427	103.76
831.604	122.2
831.782	103.76
831.959	193.87
832.136	132.44
832.313	87.38
832.49	120.15
832.667	171.35
832.844	150.87
833.021	91.48
833.198	99.67
833.374	124.24
833.551	173.39
833.728	109.91
833.905	105.81
834.082	77.14
834.259	118.1
834.436	93.52
834.612	183.63
834.789	163.15
834.966	165.2
835.143	136.53
835.319	152.91
835.496	161.11
835.673	136.53
835.85	118.1
836.026	157.01
836.203	157.01
836.38	79.19
836.556	58.71
836.733	128.34
836.909	93.52
837.086	157.01
837.262	109.91
837.439	85.33
837.616	161.11
837.792	32.08
837.968	140.63
838.145	167.25
838.321	128.34
838.498	101.72
838.674	62.8
838.851	109.91
839.027	116.05
839.203	58.71
839.38	85.33
839.556	85.33
839.732	126.29
839.909	161.11
840.085	150.87
840.261	118.1
840.437	95.57
840.614	103.76
840.79	60.76
840.966	99.67
841.142	124.24
841.318	44.37
841.494	103.76
841.671	77.14
841.847	148.82
842.023	83.28
842.199	159.06
842.375	68.95
842.551	83.28
842.727	52.56
842.903	114
843.079	50.52
843.255	126.29
843.431	91.48
843.607	161.11
843.783	152.91
843.959	89.43
844.134	83.28
844.31	136.53
844.486	64.85
844.662	77.14
844.838	89.43
845.013	122.2
845.189	77.14
845.365	103.76
845.541	54.61
845.716	103.76
845.892	150.87
846.068	60.76
846.244	62.8
846.419	17.75
846.595	91.48
846.77	93.52
846.946	109.91
847.122	79.19
847.297	128.34
847.473	130.39
847.648	101.72
847.824	99.67
847.999	68.95
848.175	120.15
848.35	144.72
848.526	75.09
848.701	66.9
848.876	165.2
849.052	79.19
849.227	48.47
849.403	87.38
849.578	109.91
849.753	66.9
849.929	83.28
850.104	109.91
850.279	87.38
850.454	48.47
850.63	46.42
850.805	99.67
850.98	-12.97
851.155	85.33
851.33	34.13
851.505	1.37
851.681	140.63
851.856	83.28
852.031	83.28
852.206	54.61
852.381	7.51
852.556	42.32
852.731	118.1
852.906	48.47
853.081	103.76
853.256	116.05
853.431	118.1
853.606	62.8
853.781	73.04
853.956	56.66
854.131	5.46
854.305	81.24
854.48	111.96
854.655	101.72
854.83	62.8
855.005	77.14
855.18	114
855.354	134.48
855.529	58.71
855.704	36.18
855.879	9.56
856.053	62.8
856.228	25.94
856.403	25.94
856.577	64.85
856.752	1.37
856.926	27.99
857.101	38.23
857.276	38.23
857.45	44.37
857.625	21.84
857.799	77.14
857.974	83.28
858.148	1.37
858.323	13.65
858.497	19.8
858.672	107.86
858.846	48.47
859.02	66.9
859.195	124.24
859.369	25.94
859.543	60.76
859.718	66.9
859.892	25.94
860.066	66.9
860.241	7.51
860.415	-12.97
860.589	54.61
860.763	46.42
860.938	38.23
861.112	42.32
861.286	21.84
861.46	97.62
861.634	13.65
861.808	5.46
861.982	9.56
862.157	23.89
862.331	44.37
862.505	21.84
862.679	38.23
862.853	71
863.027	52.56
863.201	64.85
863.375	56.66
863.549	79.19
863.722	62.8
863.896	122.2
864.07	-45.74
864.244	58.71
864.418	97.62
864.592	54.61
864.766	71
864.939	103.76
865.113	19.8
865.287	15.7
865.461	52.56
865.634	73.04
865.808	-23.21
865.982	54.61
866.156	56.66
866.329	-35.5
866.503	130.39
866.676	66.9
866.85	15.7
867.024	58.71
867.197	54.61
867.371	-21.16
867.544	-12.97
867.718	9.56
867.891	-12.97
868.065	48.47
868.238	38.23
868.412	154.96
868.585	-12.97
868.759	17.75
868.932	54.61
869.105	83.28
869.279	32.08
869.452	42.32
869.625	42.32
869.799	-29.35
869.972	-31.4
870.145	71
870.319	25.94
870.492	30.04
870.665	-6.83
870.838	79.19
871.011	-15.02
871.185	111.96
871.358	-43.69
871.531	-33.45
871.704	-43.69
871.877	44.37
872.05	60.76
872.223	83.28
872.396	54.61
872.569	5.46
872.742	38.23
872.915	58.71
873.088	-21.16
873.261	40.28
873.434	32.08
873.607	109.91
873.78	13.65
873.953	38.23
874.126	-47.79
874.299	48.47
874.471	42.32
874.644	85.33
874.817	15.7
874.99	32.08
875.163	62.8
875.335	68.95
875.508	60.76
875.681	91.48
875.853	7.51
876.026	46.42
876.199	62.8
876.371	54.61
876.544	56.66
876.717	34.13
876.889	-2.73
877.062	68.95
877.234	122.2
877.407	-17.07
877.579	3.41
877.752	95.57
877.924	150.87
878.097	85.33
878.269	11.61
878.442	62.8
878.614	-33.45
878.786	36.18
878.959	32.08
879.131	83.28
879.303	17.75
879.476	19.8
879.648	42.32
879.82	56.66
879.993	54.61
880.165	-6.83
880.337	-23.21
880.509	25.94
880.681	-45.74
880.854	-17.07
881.026	21.84
881.198	109.91
881.37	-2.73
881.542	50.52
881.714	11.61
881.886	77.14
882.058	-12.97
882.23	79.19
882.402	11.61
882.574	71
882.746	68.95
882.918	52.56
883.09	48.47
883.262	25.94
883.434	40.28
883.606	-4.78
883.778	40.28
883.95	32.08
884.122	-6.83
884.293	42.32
884.465	77.14
884.637	34.13
884.809	36.18
884.98	-2.73
885.152	19.8
885.324	-2.73
885.496	48.47
885.667	60.76
885.839	32.08
886.011	52.56
886.182	56.66
886.354	66.9
886.525	52.56
886.697	-10.92
886.869	44.37
887.04	48.47
887.212	109.91
887.383	60.76
887.555	44.37
887.726	79.19
887.897	54.61
888.069	77.14
888.24	81.24
888.412	64.85
888.583	99.67
888.754	42.32
888.926	-17.07
889.097	73.04
889.268	3.41
889.44	91.48
889.611	-62.12
889.782	21.84
889.953	9.56
890.125	34.13
890.296	60.76
890.467	23.89
890.638	11.61
890.809	62.8
890.98	-6.83
891.151	-15.02
891.323	75.09
891.494	-23.21
891.665	-6.83
891.836	58.71
892.007	-31.4
892.178	64.85
892.349	-17.07
892.52	-2.73
892.691	-25.26
892.862	44.37
893.032	-70.31
893.203	-21.16
893.374	66.9
893.545	89.43
893.716	60.76
893.887	64.85
894.057	-2.73
894.228	34.13
894.399	44.37
894.57	40.28
894.74	11.61
894.911	42.32
895.082	-12.97
895.253	27.99
895.423	60.76
895.594	50.52
895.764	-39.59
895.935	-55.98
896.106	66.9
896.276	27.99
896.447	36.18
896.617	-45.74
896.788	81.24
896.958	-10.92
897.129	52.56
897.299	-15.02
897.47	38.23
897.64	44.37
897.81	-10.92
897.981	17.75
898.151	34.13
898.322	3.41
898.492	25.94
898.662	54.61
898.832	-10.92
899.003	93.52
899.173	3.41
899.343	54.61
899.513	44.37
