Data from USB4F104151__230__11-11-00-213.txt Node

Date: Wed Mar 12 11:11:00 EDT 2025
User: louis
Spectrometer: USB4F10415
Trigger mode: 4
Integration Time (sec): 2.000000E-2
Scans to average: 1
Electric dark correction enabled: true
Nonlinearity correction enabled: false
Boxcar width: 0
XAxis mode: Wavelengths
Number of Pixels in Spectrum: 3648
>>>>>Begin Spectral Data<<<<<
178.204	-112.64
178.424	-112.64
178.644	-112.64
178.864	-114.69
179.084	-57.34
179.304	-47.1
179.524	-22.53
179.744	34.82
179.964	55.3
180.184	-8.19
180.404	30.72
180.624	6.14
180.844	-12.29
181.064	-6.14
181.283	-4.1
181.503	-30.72
181.723	4.1
181.943	-36.86
182.163	28.67
182.383	-40.96
182.602	36.86
182.822	77.82
183.042	-2.05
183.262	36.86
183.482	-22.53
183.701	-2.05
183.921	12.29
184.141	16.38
184.361	34.82
184.58	8.19
184.8	20.48
185.02	-8.19
185.239	10.24
185.459	14.34
185.679	22.53
185.898	40.96
186.118	73.73
186.338	-18.43
186.557	22.53
186.777	22.53
186.997	83.97
187.216	-2.05
187.436	71.68
187.655	-2.05
187.875	98.3
188.095	-43.01
188.314	59.39
188.534	0
188.753	34.82
188.973	-10.24
189.192	32.77
189.412	34.82
189.631	38.91
189.851	69.63
190.07	139.26
190.29	-12.29
190.509	-4.1
190.729	-16.38
190.948	59.39
191.168	88.06
191.387	55.3
191.607	47.1
191.826	-22.53
192.045	22.53
192.265	-14.34
192.484	12.29
192.704	-4.1
192.923	8.19
193.142	34.82
193.362	-51.2
193.581	16.38
193.8	51.2
194.02	16.38
194.239	-34.82
194.458	-18.43
194.678	30.72
194.897	-28.67
195.116	53.25
195.335	57.34
195.555	-30.72
195.774	-8.19
195.993	61.44
196.212	2.05
196.432	10.24
196.651	-34.82
196.87	45.06
197.089	59.39
197.308	-51.2
197.528	53.25
197.747	45.06
197.966	-2.05
198.185	8.19
198.404	-26.62
198.623	-2.05
198.842	69.63
199.062	10.24
199.281	32.77
199.5	43.01
199.719	69.63
199.938	69.63
200.157	0
200.376	-6.14
200.595	-8.19
200.814	51.2
201.033	-24.58
201.252	61.44
201.471	45.06
201.69	-4.1
201.909	-28.67
202.128	81.92
202.347	-26.62
202.566	38.91
202.785	-36.86
203.004	4.1
203.223	47.1
203.442	90.11
203.661	26.62
203.879	6.14
204.098	20.48
204.317	-16.38
204.536	22.53
204.755	24.58
204.974	12.29
205.193	-20.48
205.411	30.72
205.63	14.34
205.849	-4.1
206.068	75.77
206.287	16.38
206.505	10.24
206.724	20.48
206.943	-75.77
207.162	0
207.381	30.72
207.599	6.14
207.818	28.67
208.037	32.77
208.255	18.43
208.474	12.29
208.693	53.25
208.911	24.58
209.13	77.82
209.349	14.34
209.567	92.16
209.786	16.38
210.005	40.96
210.223	57.34
210.442	20.48
210.661	73.73
210.879	-20.48
211.098	16.38
211.316	22.53
211.535	-36.86
211.753	75.77
211.972	-12.29
212.191	-20.48
212.409	8.19
212.628	14.34
212.846	34.82
213.065	28.67
213.283	47.1
213.502	-4.1
213.72	-20.48
213.938	40.96
214.157	36.86
214.375	32.77
214.594	-4.1
214.812	69.63
215.031	34.82
215.249	30.72
215.467	65.54
215.686	59.39
215.904	83.97
216.122	14.34
216.341	32.77
216.559	16.38
216.778	-8.19
216.996	16.38
217.214	-16.38
217.432	61.44
217.651	16.38
217.869	10.24
218.087	-12.29
218.306	77.82
218.524	36.86
218.742	20.48
218.96	47.1
219.179	22.53
219.397	-51.2
219.615	55.3
219.833	12.29
220.051	-22.53
220.27	47.1
220.488	83.97
220.706	53.25
220.924	40.96
221.142	-43.01
221.36	-16.38
221.578	20.48
221.796	-49.15
222.015	45.06
222.233	-73.73
222.451	0
222.669	-57.34
222.887	53.25
223.105	-40.96
223.323	18.43
223.541	-43.01
223.759	57.34
223.977	-16.38
224.195	38.91
224.413	-20.48
224.631	16.38
224.849	-6.14
225.067	20.48
225.285	32.77
225.503	4.1
225.721	45.06
225.939	53.25
226.157	20.48
226.375	104.45
226.592	-53.25
226.81	28.67
227.028	-22.53
227.246	90.11
227.464	79.87
227.682	69.63
227.9	77.82
228.117	32.77
228.335	-14.34
228.553	-6.14
228.771	49.15
228.989	14.34
229.206	40.96
229.424	83.97
229.642	0
229.86	-10.24
230.077	69.63
230.295	-8.19
230.513	-24.58
230.731	51.2
230.948	-4.1
231.166	18.43
231.384	-22.53
231.601	-65.53
231.819	53.25
232.037	-22.53
232.254	-32.77
232.472	-24.58
232.689	-43.01
232.907	90.11
233.125	-38.91
233.342	49.15
233.56	-57.34
233.777	30.72
233.995	12.29
234.213	14.34
234.43	12.29
234.648	-14.34
234.865	6.14
235.083	47.1
235.3	8.19
235.518	110.59
235.735	143.36
235.953	88.06
236.17	-18.43
236.388	-24.58
236.605	-32.77
236.822	14.34
237.04	28.67
237.257	65.54
237.475	-55.3
237.692	4.1
237.909	20.48
238.127	-38.91
238.344	4.1
238.562	-40.96
238.779	12.29
238.996	-18.43
239.214	-88.06
239.431	77.82
239.648	-26.62
239.865	20.48
240.083	-45.06
240.3	22.53
240.517	-20.48
240.735	86.01
240.952	-49.15
241.169	53.25
241.386	18.43
241.603	-24.58
241.821	20.48
242.038	-36.86
242.255	28.67
242.472	45.06
242.689	34.82
242.907	10.24
243.124	53.25
243.341	36.86
243.558	36.86
243.775	38.91
243.992	36.86
244.209	30.72
244.426	55.3
244.643	36.86
244.86	14.34
245.078	2.05
245.295	32.77
245.512	26.62
245.729	-16.38
245.946	-8.19
246.163	-81.92
246.38	20.48
246.597	63.49
246.814	-4.1
247.031	-4.1
247.248	34.82
247.464	-8.19
247.681	-14.34
247.898	-22.53
248.115	38.91
248.332	28.67
248.549	49.15
248.766	-4.1
248.983	4.1
249.2	2.05
249.417	14.34
249.633	36.86
249.85	-38.91
250.067	34.82
250.284	4.1
250.501	67.58
250.717	-10.24
250.934	-4.1
251.151	-12.29
251.368	20.48
251.585	73.73
251.801	12.29
252.018	12.29
252.235	-18.43
252.451	45.06
252.668	-6.14
252.885	18.43
253.102	32.77
253.318	47.1
253.535	18.43
253.752	34.82
253.968	-24.58
254.185	-30.72
254.401	-65.53
254.618	51.2
254.835	-12.29
255.051	65.54
255.268	-16.38
255.484	-47.1
255.701	-4.1
255.917	20.48
256.134	-2.05
256.351	22.53
256.567	6.14
256.784	96.25
257	45.06
257.217	-6.14
257.433	98.3
257.65	20.48
257.866	14.34
258.082	45.06
258.299	45.06
258.515	47.1
258.732	51.2
258.948	28.67
259.165	-40.96
259.381	2.05
259.597	-28.67
259.814	2.05
260.03	75.77
260.246	-20.48
260.463	-8.19
260.679	-32.77
260.895	53.25
261.112	59.39
261.328	81.92
261.544	34.82
261.761	65.54
261.977	40.96
262.193	28.67
262.409	-4.1
262.626	-2.05
262.842	-12.29
263.058	57.34
263.274	12.29
263.49	36.86
263.707	-10.24
263.923	18.43
264.139	69.63
264.355	28.67
264.571	75.77
264.787	32.77
265.004	12.29
265.22	30.72
265.436	12.29
265.652	-6.14
265.868	90.11
266.084	4.1
266.3	81.92
266.516	-32.77
266.732	100.35
266.948	69.63
267.164	0
267.38	-8.19
267.596	22.53
267.812	69.63
268.028	4.1
268.244	-20.48
268.46	6.14
268.676	32.77
268.892	57.34
269.108	36.86
269.324	12.29
269.54	30.72
269.756	59.39
269.972	-47.1
270.188	53.25
270.403	86.01
270.619	24.58
270.835	49.15
271.051	4.1
271.267	51.2
271.483	51.2
271.698	-16.38
271.914	69.63
272.13	36.86
272.346	59.39
272.562	14.34
272.777	122.88
272.993	-20.48
273.209	4.1
273.425	10.24
273.64	55.3
273.856	12.29
274.072	-24.58
274.287	-36.86
274.503	73.73
274.719	49.15
274.934	-10.24
275.15	18.43
275.366	-12.29
275.581	4.1
275.797	-12.29
276.012	67.58
276.228	20.48
276.444	14.34
276.659	-10.24
276.875	-79.87
277.09	34.82
277.306	-20.48
277.521	14.34
277.737	34.82
277.952	36.86
278.168	20.48
278.383	34.82
278.599	26.62
278.814	18.43
279.03	-6.14
279.245	120.83
279.461	-65.53
279.676	24.58
279.892	38.91
280.107	26.62
280.322	-4.1
280.538	92.16
280.753	-45.06
280.969	32.77
281.184	79.87
281.399	55.3
281.615	2.05
281.83	61.44
282.045	18.43
282.26	20.48
282.476	75.77
282.691	32.77
282.906	-6.14
283.122	-22.53
283.337	43.01
283.552	12.29
283.767	-14.34
283.983	83.97
284.198	43.01
284.413	55.3
284.628	20.48
284.843	10.24
285.058	73.73
285.274	-18.43
285.489	-40.96
285.704	51.2
285.919	14.34
286.134	-26.62
286.349	36.86
286.564	-34.82
286.779	88.06
286.995	2.05
287.21	-43.01
287.425	38.91
287.64	0
287.855	116.73
288.07	79.87
288.285	59.39
288.5	45.06
288.715	-24.58
288.93	86.01
289.145	2.05
289.36	28.67
289.575	-20.48
289.79	26.62
290.004	-32.77
290.219	51.2
290.434	45.06
290.649	10.24
290.864	-18.43
291.079	-22.53
291.294	53.25
291.509	-20.48
291.724	-57.34
291.938	71.68
292.153	83.97
292.368	-32.77
292.583	40.96
292.798	2.05
293.012	20.48
293.227	6.14
293.442	22.53
293.657	10.24
293.871	34.82
294.086	63.49
294.301	10.24
294.516	43.01
294.73	71.68
294.945	83.97
295.16	-4.1
295.374	43.01
295.589	92.16
295.804	-45.06
296.018	57.34
296.233	57.34
296.447	8.19
296.662	63.49
296.877	61.44
297.091	79.87
297.306	-20.48
297.52	-18.43
297.735	8.19
297.949	8.19
298.164	-18.43
298.378	51.2
298.593	-16.38
298.807	34.82
299.022	12.29
299.236	24.58
299.451	49.15
299.665	47.1
299.88	-12.29
300.094	26.62
300.309	45.06
300.523	-12.29
300.737	8.19
300.952	2.05
301.166	65.54
301.381	-18.43
301.595	18.43
301.809	8.19
302.024	2.05
302.238	-102.4
302.452	22.53
302.667	12.29
302.881	65.54
303.095	28.67
303.309	55.3
303.524	0
303.738	47.1
303.952	43.01
304.166	59.39
304.381	53.25
304.595	28.67
304.809	30.72
305.023	32.77
305.237	100.35
305.452	22.53
305.666	-32.77
305.88	45.06
306.094	-32.77
306.308	26.62
306.522	92.16
306.736	55.3
306.95	-26.62
307.164	36.86
307.379	12.29
307.593	-14.34
307.807	6.14
308.021	18.43
308.235	-4.1
308.449	16.38
308.663	-10.24
308.877	36.86
309.091	26.62
309.305	32.77
309.519	4.1
309.733	86.01
309.947	-18.43
310.161	18.43
310.374	45.06
310.588	43.01
310.802	6.14
311.016	110.59
311.23	22.53
311.444	-2.05
311.658	-4.1
311.872	32.77
312.085	4.1
312.299	45.06
312.513	96.25
312.727	4.1
312.941	-12.29
313.154	12.29
313.368	36.86
313.582	34.82
313.796	45.06
314.009	43.01
314.223	59.39
314.437	65.54
314.651	22.53
314.864	8.19
315.078	14.34
315.292	-24.58
315.505	-18.43
315.719	-49.15
315.933	53.25
316.146	-38.91
316.36	24.58
316.573	43.01
316.787	-61.44
317.001	116.73
317.214	-2.05
317.428	-20.48
317.641	2.05
317.855	-12.29
318.068	4.1
318.282	-24.58
318.495	30.72
318.709	71.68
318.922	28.67
319.136	43.01
319.349	104.45
319.563	-43.01
319.776	-6.14
319.99	20.48
320.203	24.58
320.417	0
320.63	55.3
320.843	2.05
321.057	24.58
321.27	92.16
321.483	14.34
321.697	32.77
321.91	-4.1
322.124	22.53
322.337	49.15
322.55	36.86
322.763	-16.38
322.977	-14.34
323.19	16.38
323.403	69.63
323.617	73.73
323.83	83.97
324.043	30.72
324.256	51.2
324.469	51.2
324.683	102.4
324.896	77.82
325.109	108.54
325.322	12.29
325.535	28.67
325.748	0
325.962	26.62
326.175	-2.05
326.388	57.34
326.601	14.34
326.814	40.96
327.027	-2.05
327.24	77.82
327.453	-10.24
327.666	2.05
327.879	40.96
328.092	30.72
328.305	10.24
328.518	22.53
328.731	47.1
328.944	49.15
329.157	102.4
329.37	24.58
329.583	-4.1
329.796	-6.14
330.009	49.15
330.222	18.43
330.435	114.69
330.648	6.14
330.861	28.67
331.073	-12.29
331.286	49.15
331.499	49.15
331.712	2.05
331.925	77.82
332.138	-36.86
332.35	40.96
332.563	51.2
332.776	16.38
332.989	-8.19
333.202	-133.12
333.414	-10.24
333.627	61.44
333.84	90.11
334.053	61.44
334.265	2.05
334.478	32.77
334.691	47.1
334.903	49.15
335.116	-55.3
335.329	53.25
335.541	67.58
335.754	-10.24
335.966	49.15
336.179	8.19
336.392	36.86
336.604	14.34
336.817	57.34
337.029	98.3
337.242	53.25
337.454	69.63
337.667	-22.53
337.88	57.34
338.092	34.82
338.305	22.53
338.517	-14.34
338.729	-4.1
338.942	61.44
339.154	36.86
339.367	0
339.579	10.24
339.792	34.82
340.004	8.19
340.217	14.34
340.429	4.1
340.641	30.72
340.854	-36.86
341.066	77.82
341.278	43.01
341.491	75.77
341.703	73.73
341.915	49.15
342.128	67.58
342.34	75.77
342.552	86.01
342.764	110.59
342.977	6.14
343.189	6.14
343.401	4.1
343.613	55.3
343.826	24.58
344.038	30.72
344.25	63.49
344.462	79.87
344.674	59.39
344.886	63.49
345.099	53.25
345.311	-6.14
345.523	65.54
345.735	-16.38
345.947	90.11
346.159	18.43
346.371	32.77
346.583	59.39
346.795	79.87
347.007	8.19
347.219	10.24
347.431	67.58
347.643	20.48
347.855	-53.25
348.067	90.11
348.279	-12.29
348.491	-10.24
348.703	34.82
348.915	34.82
349.127	-40.96
349.339	81.92
349.551	-4.1
349.763	-30.72
349.975	28.67
350.187	26.62
350.399	-6.14
350.61	18.43
350.822	114.69
351.034	38.91
351.246	75.77
351.458	61.44
351.669	40.96
351.881	51.2
352.093	45.06
352.305	57.34
352.517	24.58
352.728	67.58
352.94	63.49
353.152	36.86
353.363	-24.58
353.575	61.44
353.787	38.91
353.999	20.48
354.21	71.68
354.422	14.34
354.633	73.73
354.845	57.34
355.057	83.97
355.268	43.01
355.48	49.15
355.692	88.06
355.903	24.58
356.115	92.16
356.326	-10.24
356.538	110.59
356.749	49.15
356.961	12.29
357.172	79.87
357.384	-6.14
357.595	38.91
357.807	59.39
358.018	-45.06
358.23	-18.43
358.441	90.11
358.653	75.77
358.864	18.43
359.075	34.82
359.287	102.4
359.498	20.48
359.709	24.58
359.921	-18.43
360.132	57.34
360.344	-12.29
360.555	49.15
360.766	0
360.977	36.86
361.189	73.73
361.4	40.96
361.611	63.49
361.823	-20.48
362.034	53.25
362.245	12.29
362.456	10.24
362.667	18.43
362.879	-38.91
363.09	0
363.301	40.96
363.512	12.29
363.723	-4.1
363.935	-18.43
364.146	63.49
364.357	47.1
364.568	77.82
364.779	-10.24
364.99	65.54
365.201	77.82
365.412	26.62
365.623	67.58
365.834	34.82
366.045	40.96
366.256	-18.43
366.467	-24.58
366.678	94.21
366.889	40.96
367.1	55.3
367.311	45.06
367.522	14.34
367.733	81.92
367.944	47.1
368.155	57.34
368.366	61.44
368.577	53.25
368.788	16.38
368.999	51.2
369.209	43.01
369.42	98.3
369.631	67.58
369.842	30.72
370.053	20.48
370.264	14.34
370.474	83.97
370.685	2.05
370.896	90.11
371.107	124.93
371.317	47.1
371.528	53.25
371.739	57.34
371.95	59.39
372.16	4.1
372.371	8.19
372.582	16.38
372.792	-12.29
373.003	18.43
373.214	100.35
373.424	36.86
373.635	38.91
373.846	61.44
374.056	16.38
374.267	40.96
374.477	32.77
374.688	-2.05
374.898	38.91
375.109	2.05
375.319	-2.05
375.53	90.11
375.74	38.91
375.951	59.39
376.161	34.82
376.372	22.53
376.582	61.44
376.793	-8.19
377.003	116.73
377.214	61.44
377.424	20.48
377.635	59.39
377.845	75.77
378.055	43.01
378.266	32.77
378.476	34.82
378.686	0
378.897	24.58
379.107	12.29
379.317	26.62
379.528	4.1
379.738	102.4
379.948	-53.25
380.158	96.25
380.369	14.34
380.579	65.54
380.789	-10.24
380.999	77.82
381.21	8.19
381.42	110.59
381.63	69.63
381.84	12.29
382.05	65.54
382.261	83.97
382.471	106.49
382.681	53.25
382.891	116.73
383.101	43.01
383.311	36.86
383.521	102.4
383.731	86.01
383.941	106.49
384.151	0
384.361	53.25
384.571	59.39
384.781	-47.1
384.991	118.78
385.201	49.15
385.411	16.38
385.621	24.58
385.831	53.25
386.041	96.25
386.251	16.38
386.461	114.69
386.671	34.82
386.881	32.77
387.091	0
387.301	32.77
387.511	12.29
387.72	51.2
387.93	34.82
388.14	14.34
388.35	98.3
388.56	71.68
388.769	12.29
388.979	-8.19
389.189	24.58
389.399	88.06
389.609	32.77
389.818	65.54
390.028	22.53
390.238	20.48
390.447	34.82
390.657	116.73
390.867	18.43
391.076	57.34
391.286	69.63
391.496	47.1
391.705	36.86
391.915	88.06
392.125	61.44
392.334	108.54
392.544	57.34
392.753	18.43
392.963	20.48
393.172	51.2
393.382	67.58
393.591	59.39
393.801	83.97
394.01	108.54
394.22	40.96
394.429	155.65
394.639	26.62
394.848	83.97
395.058	108.54
395.267	34.82
395.477	149.5
395.686	36.86
395.895	120.83
396.105	122.88
396.314	65.54
396.524	36.86
396.733	106.49
396.942	118.78
397.152	32.77
397.361	112.64
397.57	45.06
397.78	86.01
397.989	86.01
398.198	71.68
398.407	102.4
398.617	81.92
398.826	143.36
399.035	116.73
399.244	94.21
399.453	71.68
399.663	79.87
399.872	83.97
400.081	2.05
400.29	129.02
400.499	90.11
400.708	135.17
400.917	131.07
401.127	73.73
401.336	110.59
401.545	94.21
401.754	126.97
401.963	122.88
402.172	79.87
402.381	122.88
402.59	133.12
402.799	122.88
403.008	77.82
403.217	151.55
403.426	161.79
403.635	133.12
403.844	122.88
404.053	120.83
404.262	122.88
404.471	149.5
404.68	100.35
404.888	92.16
405.097	206.84
405.306	120.83
405.515	149.5
405.724	98.3
405.933	184.32
406.142	135.17
406.35	153.6
406.559	77.82
406.768	83.97
406.977	174.08
407.185	122.88
407.394	194.56
407.603	124.93
407.812	243.71
408.02	167.93
408.229	151.55
408.438	188.41
408.646	233.47
408.855	208.89
409.064	256
409.272	155.65
409.481	233.47
409.69	221.18
409.898	243.71
410.107	303.1
410.315	253.95
410.524	251.9
410.733	288.76
410.941	329.72
411.15	272.38
411.358	382.97
411.567	397.31
411.775	323.58
411.984	393.21
412.192	352.25
412.401	399.35
412.609	440.31
412.818	483.32
413.026	393.21
413.234	473.08
413.443	450.55
413.651	503.8
413.86	520.18
414.068	567.29
414.276	559.1
414.485	516.09
414.693	632.82
414.901	677.88
415.11	620.53
415.318	638.97
415.526	690.17
415.734	780.28
415.943	712.69
416.151	727.03
416.359	767.99
416.567	843.76
416.776	837.62
416.984	884.72
417.192	931.83
417.4	843.76
417.608	892.91
417.817	917.49
418.025	940.02
418.233	1085.42
418.441	1023.98
418.649	1023.98
418.857	1257.45
419.065	1236.97
419.273	1183.73
419.481	1232.88
419.689	1337.32
419.897	1363.95
420.105	1396.71
420.313	1499.11
420.521	1478.63
420.729	1509.35
420.937	1546.22
421.145	1675.24
421.353	1695.72
421.561	1777.64
421.769	1822.69
421.977	1800.16
422.185	1869.8
422.393	1974.24
422.601	2060.26
422.809	2078.69
423.017	2025.44
423.224	2220
423.432	2162.65
423.64	2213.85
423.848	2447.32
424.056	2443.23
424.263	2656.22
424.471	2613.21
424.679	2850.77
424.887	2740.18
425.094	2830.29
425.302	3022.8
425.51	2947.03
425.718	3129.3
425.925	3309.52
426.133	3286.99
426.341	3354.57
426.548	3639.24
426.756	3637.19
426.964	3694.54
427.171	3915.72
427.379	3993.54
427.586	3971.01
427.794	4087.75
428.001	4140.99
428.209	4374.46
428.417	4419.52
428.624	4759.48
428.832	4843.45
429.039	4685.75
429.247	4874.17
429.454	5144.5
429.662	5564.33
429.869	5038
430.076	5695.4
430.284	5380.01
430.491	5586.86
430.699	5998.5
430.906	5912.49
431.114	5883.81
431.321	6377.37
431.528	6340.51
431.736	6703
431.943	6954.9
432.15	6809.5
432.358	6999.96
432.565	7110.55
432.772	7249.81
432.979	7702.41
433.187	7808.9
433.394	7747.47
433.601	8359.81
433.808	8480.64
434.016	8200.07
434.223	8755.07
434.43	9295.73
434.637	8912.76
434.844	9684.84
435.052	9650.03
435.259	9693.04
435.466	9863.02
435.673	9779.05
435.88	10264.42
436.087	10829.66
436.294	10854.23
436.501	10647.39
436.708	10907.48
436.915	11267.92
437.122	11638.61
437.329	11611.98
437.537	11927.37
437.743	12121.93
437.95	12048.2
438.157	12656.45
438.364	13356.85
438.571	13078.33
438.778	13178.68
438.985	14331.69
439.192	13840.17
439.399	14245.67
439.606	13823.79
439.813	14702.37
440.02	15693.58
440.227	15361.81
440.433	15122.2
440.64	15701.78
440.847	15742.74
441.054	15816.46
441.261	17174.27
441.467	16920.32
441.674	17348.34
441.881	17975.02
442.088	17665.78
442.294	17415.93
442.501	18124.52
442.708	18489.06
442.914	19228.38
443.121	20037.33
443.328	19511
443.534	20932.29
443.741	20094.67
443.948	20084.43
444.154	21157.57
444.361	21438.14
444.568	21405.37
444.774	21210.81
444.981	21466.81
445.187	22099.63
445.394	23142.05
445.6	22822.56
445.807	25345.66
446.013	23901.84
446.22	24118.93
446.426	25534.07
446.633	25460.35
446.839	26371.69
447.046	25017.99
447.252	26594.92
447.459	26695.27
447.665	26351.21
447.871	27692.63
448.078	28620.36
448.284	27340.38
448.491	27795.03
448.697	29560.38
448.903	30103.09
449.11	30029.37
449.316	29136.45
449.522	30060.09
449.728	30633.52
449.935	31039.01
450.141	30533.17
450.347	31225.38
450.553	30717.48
450.76	31245.86
450.966	31915.55
451.172	31659.55
451.378	32030.23
451.584	31446.56
451.791	32345.62
451.997	32177.69
452.203	33074.7
452.409	32673.29
452.615	32429.59
452.821	31405.6
453.027	31118.89
453.233	32974.34
453.44	31178.28
453.646	31835.67
453.852	31858.2
454.058	32333.33
454.264	31163.94
454.47	31839.77
454.676	31311.39
454.882	32028.18
455.088	29105.73
455.294	29851.19
455.5	29918.78
455.705	30352.94
455.911	29212.23
456.117	28210.77
456.323	28067.41
456.529	26484.33
456.735	27741.78
456.941	27016.8
457.147	26906.21
457.352	25745.02
457.558	25425.53
457.764	25493.11
457.97	25212.54
458.176	24491.66
458.381	24301.2
458.587	23266.97
458.793	23271.07
458.999	21995.18
459.204	23629.46
459.41	22982.31
459.616	21452.47
459.821	21415.61
460.027	21548.73
460.233	20909.76
460.438	19912.4
460.644	20334.28
460.85	19338.97
461.055	18988.77
461.261	19080.92
461.466	17653.49
461.672	16912.13
461.878	18052.84
462.083	17059.58
462.289	16520.96
462.494	16791.3
462.7	15703.82
462.905	15609.62
463.111	15957.77
463.316	16105.23
463.522	15636.24
463.727	15464.21
463.932	15591.19
464.138	15367.96
464.343	15456.02
464.549	15036.19
464.754	15552.27
464.959	15394.58
465.165	15394.58
465.37	14792.48
465.575	14260.01
465.781	14892.83
465.986	15017.75
466.191	14485.28
466.397	14276.39
466.602	13324.08
466.807	14020.39
467.012	14333.73
467.218	13764.4
467.423	13696.81
467.628	13821.74
467.833	14448.42
468.038	13907.76
468.244	13457.2
468.449	14206.76
468.654	13559.6
468.859	13444.91
469.064	13381.43
469.269	12953.4
469.474	12986.17
469.679	13272.89
469.885	12740.41
470.09	12789.56
470.295	12691.26
470.5	12607.3
470.705	12629.82
470.91	12324.68
471.115	12087.11
471.32	12169.03
471.525	12443.46
471.73	12115.78
471.935	11849.55
472.139	11583.31
472.344	11753.29
472.549	11597.65
472.754	11585.36
472.959	11276.12
473.164	10821.47
473.369	10884.95
473.574	11548.5
473.778	11075.41
473.983	11050.84
474.188	10944.34
474.393	10684.25
474.598	10739.55
474.802	10657.63
475.007	10475.36
475.212	10393.44
475.417	9992.04
475.621	10047.33
475.826	10018.66
476.031	9940.84
476.235	9854.83
476.44	9645.93
476.645	9508.72
476.849	9576.3
477.054	9412.46
477.259	9301.87
477.463	9611.12
477.668	9064.31
477.872	9232.24
478.077	9045.88
478.282	8951.67
478.486	8834.94
478.691	8863.61
478.895	8531.84
479.1	8607.61
479.304	8759.16
479.509	8431.49
479.713	8585.08
479.918	8650.62
480.122	8320.9
480.326	8644.48
480.531	8580.99
480.735	8339.33
480.94	8392.58
481.144	8486.78
481.348	8021.89
481.553	8306.56
481.757	8025.99
481.961	8152.96
482.166	8290.18
482.37	8210.31
482.574	7999.37
482.778	8056.71
482.983	8171.4
483.187	8038.28
483.391	8032.13
483.595	7960.45
483.8	8089.48
484.004	8030.09
484.208	8183.68
484.412	8179.59
484.616	8130.44
484.821	8083.33
485.025	7827.34
485.229	8318.85
485.433	8034.18
485.637	7991.17
485.841	8066.95
486.045	8167.3
486.249	7794.57
486.453	7944.07
486.657	8025.99
486.861	8089.48
487.065	7825.29
487.269	7827.34
487.473	7894.92
487.677	8210.31
487.881	8060.81
488.085	7933.83
488.289	7913.35
488.493	7950.21
488.697	8073.09
488.901	8191.88
489.105	8034.18
489.309	8011.65
489.512	8161.16
489.716	8126.34
489.92	8085.38
490.124	8193.92
490.328	8085.38
490.531	8202.11
490.735	8251.27
490.939	8228.74
491.143	8222.59
491.346	8161.16
491.55	8468.35
491.754	8243.07
491.958	8505.21
492.161	8265.6
492.365	8511.36
492.569	8236.93
492.772	8353.66
492.976	8531.84
493.18	8515.45
493.383	8617.85
493.587	8697.72
493.79	8951.67
493.994	8515.45
494.197	8908.66
494.401	8810.36
494.605	8900.47
494.808	8898.42
495.012	9187.19
495.215	9004.92
495.419	9324.4
495.622	9052.02
495.825	9287.54
496.029	9174.9
496.232	9600.88
496.436	9527.15
496.639	9828.2
496.843	9877.35
497.046	9744.24
497.249	9881.45
497.453	10057.57
497.656	9975.66
497.859	10024.81
498.063	10168.16
498.266	10674.01
498.469	10080.1
498.673	10530.66
498.876	10659.68
499.079	10700.64
499.282	10723.16
499.485	10977.11
499.689	11013.98
499.892	11104.09
500.095	11116.37
500.298	11425.62
500.501	11294.55
500.705	11841.36
500.908	11876.17
501.111	12017.48
501.314	11919.18
501.517	11908.94
501.72	12236.61
501.923	12291.91
502.126	12457.79
502.329	12728.13
502.532	12656.45
502.735	12939.07
502.938	13055.8
503.141	13281.08
503.344	13131.58
503.547	13424.44
503.75	13580.08
503.953	13819.69
504.156	13725.49
504.359	13997.87
504.562	14145.32
504.765	14280.49
504.968	14526.24
505.17	14700.32
505.373	14622.5
505.576	14905.12
505.779	15232.79
505.982	15437.59
506.185	15423.25
506.387	15574.8
506.59	15853.33
506.793	16156.43
506.996	15859.47
507.198	16400.13
507.401	16191.24
507.604	16584.45
507.807	16840.45
508.009	16680.71
508.212	17098.49
508.415	17233.66
508.617	17516.28
508.82	17460.98
509.022	17282.81
509.225	17743.6
509.428	18042.6
509.63	18206.44
509.833	18243.31
510.035	18779.87
510.238	18687.71
510.44	19173.08
510.643	19166.94
510.845	19283.67
511.048	19107.55
511.25	19472.09
511.453	19801.81
511.655	20113.1
511.858	20055.76
512.06	20149.96
512.262	20403.91
512.465	20399.82
512.667	20580.04
512.87	21100.22
513.072	21126.85
513.274	21378.75
513.477	21814.96
513.679	21956.27
513.881	22048.43
514.084	22232.75
514.286	22492.84
514.488	22572.71
514.69	23027.36
514.893	23436.95
515.095	23219.87
515.297	23367.32
515.499	23664.28
515.701	23998.1
515.904	24442.51
516.106	23942.8
516.308	24413.84
516.51	24946.31
516.712	24673.93
516.914	25106.05
517.116	25728.63
517.318	25306.75
517.52	26031.73
517.722	25755.25
517.925	26048.11
518.127	26635.88
518.329	26617.45
518.531	26592.87
518.733	27324
518.935	27403.87
519.136	27262.56
519.338	27688.54
519.54	27801.18
519.742	28132.95
519.944	28202.58
520.146	29009.48
520.348	28874.31
520.55	28902.98
520.752	29152.84
520.954	29640.25
521.155	29191.75
521.357	29902.39
521.559	29890.1
521.761	30559.79
521.963	30486.06
522.164	30549.55
522.366	30719.53
522.568	31311.39
522.77	31344.16
522.971	31534.62
523.173	31569.44
523.375	31614.49
523.576	32173.59
523.778	31958.55
523.98	32423.44
524.181	32243.22
524.383	32534.03
524.584	33371.65
524.786	32957.96
524.988	33254.92
525.189	33293.83
525.391	33433.09
525.592	33981.95
525.794	33697.28
525.995	33658.37
526.197	33975.8
526.398	33943.03
526.6	34205.17
526.801	34407.92
527.003	34344.44
527.204	34631.15
527.406	35177.96
527.607	34817.52
527.808	35362.28
528.01	34545.14
528.211	34903.53
528.412	35857.88
528.614	35378.66
528.815	35171.82
529.016	36148.7
529.218	35227.11
529.419	35818.97
529.62	35749.34
529.822	35745.25
530.023	35941.85
530.224	36107.74
530.425	36036.06
530.626	36034.01
530.828	35755.49
531.029	36787.66
531.23	36283.86
531.431	36070.87
531.632	36652.5
531.833	36820.43
532.035	36468.18
532.236	36875.73
532.437	36675.02
532.638	36513.23
532.839	36908.49
533.04	36672.98
533.241	36382.16
533.442	37123.53
533.643	37103.05
533.844	36996.56
534.045	36974.03
534.246	36611.54
534.447	37156.3
534.648	37012.94
534.849	37080.52
535.05	36967.88
535.251	36984.27
535.451	37080.52
535.652	37094.86
535.853	37123.53
536.054	37221.83
536.255	37217.74
536.456	37078.47
536.657	36992.46
536.857	36955.6
537.058	37027.27
537.259	37094.86
537.46	36783.57
537.66	37176.78
537.861	37365.19
538.062	36939.21
538.263	37148.11
538.463	36826.57
538.664	36971.98
538.865	37060.04
539.065	37488.07
539.266	36685.26
539.466	37451.2
539.667	36535.76
539.868	37297.61
540.068	37086.67
540.269	36894.16
540.469	37244.36
540.67	36916.68
540.87	36730.32
541.071	37248.46
541.271	36883.92
541.472	36687.31
541.672	36552.15
541.873	36910.54
542.073	36189.66
542.274	37486.02
542.474	36455.89
542.675	36746.7
542.875	37127.63
543.075	36447.7
543.276	36464.08
543.476	36931.02
543.676	36863.44
543.877	36894.16
544.077	36765.13
544.277	36572.63
544.478	36869.58
544.678	37334.47
544.878	36562.39
545.078	37180.87
545.279	36451.8
545.479	36885.97
545.679	36666.83
545.879	36668.88
546.079	36355.54
546.28	36672.98
546.48	36187.61
546.68	36754.9
546.88	36695.5
547.08	36550.1
547.28	36386.26
547.48	36568.53
547.68	36570.58
547.88	36761.04
548.081	36869.58
548.281	36462.04
548.481	36722.13
548.681	36611.54
548.881	36621.78
549.081	36701.65
549.28	36537.81
549.48	36378.07
549.68	36535.76
549.88	36576.72
550.08	36312.53
550.28	36765.13
550.48	36675.02
550.68	36531.67
550.88	36193.75
551.08	36333.01
551.279	36363.73
551.479	36187.61
551.679	36464.08
551.879	36507.09
552.079	36468.18
552.278	36335.06
552.478	36390.36
552.678	36423.12
552.878	36169.18
553.077	36474.32
553.277	35999.19
553.477	36232.66
553.676	35960.28
553.876	36062.68
554.076	36021.72
554.275	35909.08
554.475	35829.21
554.674	35984.86
554.874	35698.14
555.074	35956.19
555.273	35962.33
555.473	36484.56
555.672	35579.36
555.872	35374.56
556.071	35610.08
556.271	36216.28
556.47	35417.57
556.67	35419.62
556.869	35206.63
557.068	35372.52
557.268	35335.65
557.467	35098.09
557.667	35317.22
557.866	35534.31
558.065	35206.63
558.265	35337.7
558.464	34571.76
558.663	35335.65
558.863	34645.49
559.062	35395.04
559.261	34809.32
559.461	35153.38
559.66	34348.53
559.859	34799.08
560.058	34225.65
560.258	34747.89
560.457	34551.28
560.656	34835.95
560.855	33955.32
561.054	34584.05
561.253	33998.33
561.453	34092.54
561.652	34340.34
561.851	34266.61
562.05	34190.84
562.249	34221.56
562.448	34379.25
562.647	33936.89
562.846	33977.85
563.045	34129.4
563.244	33633.79
563.443	33766.91
563.642	33238.53
563.841	33553.92
564.04	33465.86
564.239	33936.89
564.438	32923.15
564.637	33005.06
564.836	33523.2
565.035	32914.95
565.234	33156.61
565.432	33011.21
565.631	32933.39
565.83	33132.04
566.029	32937.48
566.228	32800.27
566.427	32642.57
566.625	32259.6
566.824	32300.56
567.023	32499.22
567.222	31950.36
567.42	32466.45
567.619	32157.21
567.818	32366.1
568.016	31884.83
568.215	32478.74
568.414	32048.66
568.612	32106.01
568.811	31923.74
569.01	31804.95
569.208	31421.98
569.407	31954.46
569.605	31415.84
569.804	31571.49
570.002	30985.77
570.201	31286.82
570.4	30750.25
570.598	30733.87
570.797	30920.23
570.995	30760.49
571.193	30676.52
571.392	30918.18
571.59	30410.29
571.789	30625.32
571.987	30416.43
572.186	30406.19
572.384	29933.11
572.582	30524.97
572.781	30570.03
572.979	29931.06
573.177	30174.77
573.376	30043.7
573.574	29396.54
573.772	29859.38
573.971	29269.57
574.169	29554.24
574.367	29077.06
574.565	29697.59
574.763	29333.06
574.962	29423.17
575.16	29177.41
575.358	29040.2
575.556	28714.57
575.754	29115.97
575.952	28751.43
576.151	29072.96
576.349	28548.68
576.547	28712.52
576.745	28669.51
576.943	28685.9
577.141	28358.22
577.339	28489.29
577.537	28380.75
577.735	28315.22
577.933	28010.07
578.131	27815.51
578.329	28089.94
578.527	27721.31
578.725	27774.55
578.923	27922.01
579.121	27696.73
579.319	27706.97
579.516	27592.28
579.714	27614.81
579.912	27618.91
580.11	27414.11
580.308	27235.94
580.506	27317.86
580.704	27145.83
580.901	26973.8
581.099	27268.7
581.297	26799.72
581.495	26926.69
581.692	26883.69
581.89	26361.45
582.088	26594.92
582.285	26582.63
582.483	26762.86
582.681	26560.11
582.878	26152.56
583.076	26211.95
583.274	26322.54
583.471	25644.66
583.669	26158.7
583.866	25951.86
584.064	25925.24
584.262	25726.58
584.459	25665.14
584.657	25847.41
584.854	25788.02
585.052	25427.58
585.249	25503.35
585.447	25603.71
585.644	25218.69
585.841	25351.81
586.039	25247.36
586.236	24977.03
586.434	24684.17
586.631	24958.6
586.828	24891.01
587.026	25196.16
587.223	24819.33
587.42	24614.54
587.618	24491.66
587.815	24223.37
588.012	24188.56
588.21	24319.63
588.407	24565.39
588.604	24086.16
588.801	23768.73
588.999	24061.58
589.196	24276.62
589.393	24237.71
589.59	23955.09
589.787	23942.8
589.984	23549.59
590.182	23735.96
590.379	23604.89
590.576	23414.43
590.773	23500.44
590.97	23117.47
591.167	23203.49
591.364	23035.55
591.561	23082.66
591.758	23107.23
591.955	22830.76
592.152	23490.2
592.349	22771.36
592.546	22832.8
592.743	22808.23
592.94	22562.47
593.137	22576.81
593.334	22597.29
593.531	22546.09
593.727	22642.34
593.924	22234.8
594.121	22267.56
594.318	22335.15
594.515	22118.06
594.712	22097.58
594.908	22398.63
595.105	22087.34
595.302	22177.45
595.499	21964.46
595.696	21614.26
595.892	21397.18
596.089	21829.3
596.286	21956.27
596.482	21518.01
596.679	21565.11
596.876	21284.54
597.072	21130.94
597.269	21485.24
597.466	21331.64
597.662	21077.69
597.859	21016.26
598.055	21294.78
598.252	20887.23
598.448	20803.27
598.645	20733.64
598.841	20737.73
599.038	20813.51
599.234	20762.31
599.431	20504.26
599.627	20717.25
599.824	20174.54
600.02	20379.34
600.217	20577.99
600.413	20293.32
600.609	20149.96
600.806	19787.47
601.002	20082.38
601.198	20090.57
601.395	19752.66
601.591	19609.3
601.787	19885.78
601.984	19480.28
602.18	20002.51
602.376	19654.36
602.572	19621.59
602.769	19795.67
602.965	19381.98
603.161	19412.7
603.357	19166.94
603.553	19216.09
603.75	19252.95
603.946	19179.23
604.142	19144.41
604.338	18759.39
604.534	19154.65
604.73	18994.91
604.926	18663.14
605.122	18808.54
605.318	18710.24
605.514	18673.38
605.71	18624.23
605.906	18568.93
606.102	18419.43
606.298	18585.32
606.494	18538.21
606.69	18271.98
606.886	18581.22
607.082	18210.54
607.278	18398.95
607.474	17698.55
607.67	18312.94
607.866	17800.94
608.062	18220.78
608.257	17774.32
608.453	17952.49
608.649	17929.97
608.845	17891.06
609.041	17815.28
609.236	18218.73
609.432	17682.16
609.628	17999.6
609.824	17499.89
610.019	17463.03
610.215	17383.16
610.411	17628.92
610.606	17360.63
610.802	17528.56
610.998	17360.63
611.193	17467.13
611.389	17137.4
611.584	17243.9
611.78	17053.44
611.976	17307.38
612.171	17035
612.367	17121.02
612.562	17026.81
612.758	16846.59
612.953	16928.51
613.149	16908.03
613.344	16944.89
613.539	17110.78
613.735	16711.42
613.93	17049.34
614.126	16799.49
614.321	17215.23
614.517	16819.97
614.712	16733.95
614.907	16420.61
615.103	16602.88
615.298	16680.71
615.493	16951.04
615.688	16289.54
615.884	16606.98
616.079	16320.26
616.274	16271.11
616.47	16572.16
616.665	16367.37
616.86	16125.71
617.055	16105.23
617.25	16393.99
617.445	16359.17
617.641	15857.42
617.836	15974.16
618.031	15914.77
618.226	16062.22
618.421	15746.83
618.616	16193.29
618.811	15615.76
619.006	15922.96
619.201	15806.22
619.396	15736.59
619.591	15437.59
619.786	15654.67
619.981	15283.99
620.176	15351.57
620.371	15197.98
620.566	15212.31
620.761	15382.29
620.956	15353.62
621.151	15175.45
621.346	15214.36
621.541	14860.06
621.735	15081.24
621.93	14559.01
622.125	14710.56
622.32	14559.01
622.515	14776.09
622.709	14509.86
622.904	14649.12
623.099	14370.6
623.294	14505.76
623.488	13983.53
623.683	14055.21
623.878	13813.55
624.072	14085.93
624.267	13997.87
624.462	13854.51
624.656	13793.07
624.851	13930.28
625.046	13686.58
625.24	13483.83
625.435	13510.45
625.629	13371.19
625.824	13367.09
626.018	13156.15
626.213	13199.16
626.407	12947.26
626.602	12965.69
626.796	13168.44
626.991	13027.13
627.185	13018.94
627.38	12773.18
627.574	12707.65
627.768	12830.52
627.963	12736.32
628.157	12488.51
628.352	12425.03
628.546	12357.44
628.74	12502.85
628.935	12185.41
629.129	12191.56
629.323	12021.58
629.517	11781.96
629.712	11939.66
629.906	12074.82
630.1	11812.68
630.294	11765.58
630.489	11910.99
630.683	11771.72
630.877	11712.33
631.071	11607.89
631.265	11585.36
631.459	11364.18
631.653	11427.67
631.848	11319.12
632.042	11296.6
632.236	11192.15
632.43	11179.86
632.624	11335.51
632.818	11099.99
633.012	10794.84
633.206	10700.64
633.4	10917.72
633.594	10901.34
633.788	10786.65
633.982	10800.99
634.176	10526.56
634.369	10551.14
634.563	10370.91
634.757	10575.71
634.951	10522.46
635.145	10422.11
635.339	10415.97
635.533	10313.57
635.726	10426.21
635.92	10162.02
636.114	10141.54
636.308	10121.06
636.501	10106.73
636.695	9826.15
636.889	10004.33
637.083	9656.17
637.276	9967.46
637.47	9746.28
637.664	9721.71
637.857	9846.63
638.051	9488.24
638.244	9492.34
638.438	9527.15
638.632	9531.25
638.825	9365.36
639.019	9283.44
639.212	9150.32
639.406	9367.41
639.599	9066.36
639.793	9148.28
639.986	8877.94
640.18	9015.16
640.373	9133.94
640.567	9066.36
640.76	8836.99
640.954	8750.97
641.147	8789.88
641.34	8630.14
641.534	8740.73
641.727	8732.54
641.92	8861.56
642.114	8523.65
642.307	8515.45
642.5	8503.17
642.694	8486.78
642.887	8198.02
643.08	8408.96
643.273	8499.07
643.467	8251.27
643.66	8236.93
643.853	8202.11
644.046	7997.32
644.239	8171.4
644.432	8023.94
644.626	7856.01
644.819	7796.62
645.012	7976.84
645.205	7929.73
645.398	7806.86
645.591	8011.65
645.784	7585.68
645.977	7475.09
646.17	7612.3
646.363	7614.35
646.556	7530.38
646.749	7538.57
646.942	7618.44
647.135	7497.61
647.328	7368.59
647.521	7458.7
647.714	7202.71
647.907	7262.1
648.099	7282.58
648.292	7397.26
648.485	7135.12
648.678	7120.79
648.871	7065.49
649.064	7053.2
649.256	7120.79
649.449	6922.13
649.642	7069.59
649.835	6754.2
650.027	6784.92
650.22	6791.06
650.413	6768.54
650.605	6872.98
650.798	6803.35
650.991	6582.17
651.183	6612.89
651.376	6463.39
651.568	6725.53
651.761	6391.71
651.954	6430.62
652.146	6449.05
652.339	6469.53
652.531	6408.09
652.724	6352.8
652.916	6096.8
653.109	6272.93
653.301	6211.49
653.494	6322.08
653.686	6076.32
653.879	6207.39
654.071	6279.07
654.263	6094.76
654.456	6102.95
654.648	6053.8
654.84	5996.45
655.033	5984.16
655.225	5951.4
655.417	5869.48
655.61	5912.49
655.802	5822.38
655.994	5742.5
656.186	5789.61
656.379	5744.55
656.571	5709.74
656.763	5789.61
656.955	5701.55
657.148	5746.6
657.34	5683.11
657.532	5644.2
657.724	5525.42
657.916	5525.42
658.108	5488.56
658.3	5463.98
658.492	5398.45
658.684	5408.69
658.876	5314.48
659.068	5457.84
659.26	5447.6
659.452	5214.13
659.644	5343.15
659.836	5236.66
660.028	5287.86
660.22	5154.74
660.412	5154.74
660.604	5099.44
660.796	5130.16
660.988	5091.25
661.18	4962.23
661.372	5050.29
661.563	5023.67
661.755	4960.18
661.947	5007.28
662.139	5027.76
662.331	4935.6
662.522	4773.82
662.714	4902.84
662.906	4808.63
663.097	4861.88
663.289	4779.96
663.481	4773.82
663.673	4724.66
663.864	4605.88
664.056	4540.35
664.247	4747.19
664.439	4460.48
664.631	4689.85
664.822	4550.59
665.014	4530.11
665.205	4517.82
665.397	4372.41
665.588	4569.02
665.78	4458.43
665.971	4366.27
666.163	4440
666.354	4437.95
666.546	4462.52
666.737	4362.17
666.929	4337.6
667.12	4276.16
667.311	4155.33
667.503	4376.51
667.694	4272.06
667.885	4255.68
668.077	4231.1
668.268	4122.56
668.459	4126.66
668.651	4112.32
668.842	4163.52
669.033	4014.02
669.224	4153.28
669.416	4100.03
669.607	4126.66
669.798	3991.49
669.989	4028.35
670.18	4145.09
670.371	3983.3
670.563	3891.14
670.754	3887.04
670.945	3893.19
671.136	3989.44
671.327	3915.72
671.518	3880.9
671.709	3841.99
671.9	3899.33
672.091	3885
672.282	3932.1
672.473	3715.02
672.664	3821.51
672.855	3770.31
673.046	3751.88
673.237	3774.41
673.428	3770.31
673.619	3819.46
673.809	3698.63
674	3745.73
674.191	3700.68
674.382	3735.49
674.573	3669.96
674.764	3581.9
674.954	3637.19
675.145	3575.75
675.336	3563.47
675.527	3710.92
675.717	3567.56
675.908	3508.17
676.099	3583.95
676.289	3491.79
676.48	3563.47
676.671	3342.28
676.861	3465.16
677.052	3540.94
677.243	3434.44
677.433	3489.74
677.624	3393.48
677.814	3432.4
678.005	3399.63
678.195	3348.43
678.386	3405.77
678.576	3444.68
678.767	3340.24
678.957	3420.11
679.148	3434.44
679.338	3258.32
679.529	3356.62
679.719	3307.47
679.909	3444.68
680.1	3348.43
680.29	3428.3
680.481	3289.04
680.671	3358.67
680.861	3319.76
681.052	3270.61
681.242	3190.74
681.432	3418.06
681.622	3395.53
681.813	3252.17
682.003	3166.16
682.193	3262.41
682.383	3289.04
682.573	3338.19
682.764	3196.88
682.954	3215.31
683.144	3233.74
683.334	3213.26
683.524	3211.22
683.714	3219.41
683.904	3274.7
684.094	3108.82
684.284	3096.53
684.474	3129.3
684.664	3151.82
684.854	3178.45
685.044	3157.97
685.234	2963.41
685.424	3000.27
685.614	3153.87
685.804	2979.79
685.994	2992.08
686.184	3117.01
686.374	2990.03
686.564	2953.17
686.753	3096.53
686.943	2955.22
687.133	2949.07
687.323	2942.93
687.513	3049.43
687.702	2987.99
687.892	3069.91
688.082	2942.93
688.272	2965.46
688.461	2963.41
688.651	2908.12
688.841	2975.7
689.03	2869.2
689.22	2793.43
689.41	2854.87
689.599	2801.62
689.789	2922.45
689.979	2791.38
690.168	2697.17
690.358	2795.48
690.547	2772.95
690.737	2818.01
690.926	2750.42
691.116	2695.13
691.305	2815.96
691.495	2668.5
691.684	2666.46
691.874	2678.74
692.063	2711.51
692.252	2721.75
692.442	2746.33
692.631	2691.03
692.82	2758.61
693.01	2625.5
693.199	2637.78
693.388	2625.5
693.578	2605.02
693.767	2451.42
693.956	2588.63
694.146	2648.02
694.335	2564.06
694.524	2602.97
694.713	2559.96
694.902	2475.99
695.092	2631.64
695.281	2547.67
695.47	2580.44
695.659	2465.75
695.848	2465.75
696.037	2453.47
696.226	2473.95
696.415	2471.9
696.604	2576.34
696.793	2412.51
696.982	2519
697.171	2471.9
697.36	2535.39
697.549	2412.51
697.738	2351.07
697.927	2500.57
698.116	2416.6
698.305	2447.32
698.494	2494.43
698.683	2447.32
698.872	2404.32
699.061	2521.05
699.25	2445.27
699.438	2480.09
699.627	2301.92
699.816	2443.23
700.005	2453.47
700.193	2432.99
700.382	2521.05
700.571	2334.68
700.76	2455.51
700.948	2410.46
701.137	2494.43
701.326	2353.12
701.514	2430.94
701.703	2371.55
701.892	2400.22
702.08	2396.12
702.269	2457.56
702.457	2402.27
702.646	2389.98
702.834	2418.65
703.023	2410.46
703.212	2301.92
703.4	2392.03
703.589	2318.3
703.777	2215.9
703.965	2379.74
704.154	2346.97
704.342	2422.75
704.531	2383.84
704.719	2310.11
704.907	2349.02
705.096	2383.84
705.284	2283.49
705.472	2465.75
705.661	2404.32
705.849	2389.98
706.037	2404.32
706.226	2389.98
706.414	2412.51
706.602	2408.41
706.79	2451.42
706.979	2301.92
707.167	2379.74
707.355	2289.63
707.543	2342.88
707.731	2377.69
707.919	2303.96
708.107	2357.21
708.296	2412.51
708.484	2283.49
708.672	2373.6
708.86	2236.38
709.048	2318.3
709.236	2416.6
709.424	2316.25
709.612	2379.74
709.8	2267.1
709.988	2353.12
710.176	2330.59
710.364	2346.97
710.551	2152.42
710.739	2277.34
710.927	2314.2
711.115	2416.6
711.303	2324.44
711.491	2256.86
711.679	2297.82
711.866	2359.26
712.054	2412.51
712.242	2275.29
712.43	2387.93
712.617	2330.59
712.805	2205.66
712.993	2312.16
713.181	2236.38
713.368	2201.57
713.556	2312.16
713.744	2271.2
713.931	2283.49
714.119	2301.92
714.306	2328.54
714.494	2265.05
714.682	2263.01
714.869	2322.4
715.057	2465.75
715.244	2232.29
715.432	2381.79
715.619	2228.19
715.807	2256.86
715.994	2330.59
716.182	2281.44
716.369	2269.15
716.556	2207.71
716.744	2359.26
716.931	2328.54
717.119	2377.69
717.306	2125.79
717.493	2308.06
717.681	2256.86
717.868	2265.05
718.055	2373.6
718.242	2260.96
718.43	2269.15
718.617	2297.82
718.804	2310.11
718.991	2299.87
719.179	2263.01
719.366	2203.61
719.553	2340.83
719.74	2246.62
719.927	2293.72
720.114	2207.71
720.301	2254.81
720.488	2279.39
720.676	2271.2
720.863	2312.16
721.05	2299.87
721.237	2154.46
721.424	2273.25
721.611	2265.05
721.798	2215.9
721.985	2234.33
722.172	2144.22
722.358	2166.75
722.545	2244.57
722.732	2183.13
722.919	2332.64
723.106	2217.95
723.293	2166.75
723.48	2203.61
723.667	2267.1
723.853	2306.01
724.04	2314.2
724.227	2291.68
724.414	2336.73
724.6	2265.05
724.787	2301.92
724.974	2281.44
725.161	2217.95
725.347	2207.71
725.534	2185.18
725.72	2263.01
725.907	2277.34
726.094	2220
726.28	2215.9
726.467	2170.85
726.653	2271.2
726.84	2170.85
727.027	2265.05
727.213	2217.95
727.4	2242.53
727.586	2246.62
727.773	2246.62
727.959	2240.48
728.145	2242.53
728.332	2189.28
728.518	2273.25
728.705	2242.53
728.891	2222.05
729.077	2310.11
729.264	2217.95
729.45	2103.26
729.636	2232.29
729.823	2193.37
730.009	2279.39
730.195	2240.48
730.382	2283.49
730.568	2275.29
730.754	2123.74
730.94	2283.49
731.126	2238.43
731.313	2201.57
731.499	2226.14
731.685	2250.72
731.871	2197.47
732.057	2267.1
732.243	2220
732.429	2097.12
732.615	2256.86
732.801	2187.23
732.987	2113.5
733.173	2211.81
733.359	2185.18
733.545	2232.29
733.731	2217.95
733.917	2246.62
734.103	2217.95
734.289	2191.33
734.475	2133.98
734.661	2226.14
734.847	2246.62
735.033	2207.71
735.219	2195.42
735.404	2230.24
735.59	2215.9
735.776	2140.13
735.962	2217.95
736.148	2211.81
736.333	2246.62
736.519	2119.65
736.705	2213.85
736.89	2158.56
737.076	2160.61
737.262	2205.66
737.447	2170.85
737.633	2297.82
737.819	2111.46
738.004	2060.26
738.19	2240.48
738.375	2172.89
738.561	2195.42
738.747	2168.8
738.932	2103.26
739.118	2088.93
739.303	2052.06
739.489	2203.61
739.674	1988.58
739.859	2166.75
740.045	2103.26
740.23	2023.39
740.416	2027.49
740.601	2047.97
740.786	2099.17
740.972	2050.02
741.157	2072.54
741.342	2097.12
741.528	2185.18
741.713	2062.3
741.898	2043.87
742.084	2023.39
742.269	2000.87
742.454	2039.78
742.639	1986.53
742.824	2039.78
743.01	2045.92
743.195	2082.78
743.38	1847.27
743.565	1990.63
743.75	1943.52
743.935	1937.38
744.12	1998.82
744.305	1869.8
744.49	1886.18
744.675	1912.8
744.86	1929.19
745.045	1908.71
745.23	1984.48
745.415	1906.66
745.6	1880.04
745.785	1888.23
745.97	2060.26
746.155	1902.56
746.34	1931.23
746.525	1869.8
746.71	1882.08
746.895	1843.17
747.079	1916.9
747.264	1738.73
747.449	1830.88
747.634	1796.07
747.819	1779.68
748.003	1738.73
748.188	1796.07
748.373	1765.35
748.557	1851.36
748.742	1687.53
748.927	1691.62
749.111	1675.24
749.296	1714.15
749.481	1667.05
749.665	1705.96
749.85	1605.61
750.034	1652.71
750.219	1648.61
750.404	1642.47
750.588	1624.04
750.773	1621.99
750.957	1714.15
751.141	1519.59
751.326	1421.29
751.51	1521.64
751.695	1599.46
751.879	1542.12
752.064	1495.02
752.248	1562.6
752.432	1687.53
752.617	1566.7
752.801	1464.3
752.985	1484.78
753.17	1396.71
753.354	1425.39
753.538	1462.25
753.722	1435.63
753.907	1359.85
754.091	1460.2
754.275	1413.1
754.459	1527.78
754.643	1382.38
754.828	1402.86
755.012	1314.8
755.196	1298.41
755.38	1411.05
755.564	1366
755.748	1347.56
755.932	1343.47
756.116	1417.19
756.3	1372.14
756.484	1335.28
756.668	1290.22
756.852	1271.79
757.036	1322.99
757.22	1236.97
757.404	1343.47
757.588	1282.03
757.772	1306.6
757.956	1310.7
758.14	1249.26
758.323	1277.93
758.507	1245.16
758.691	1218.54
758.875	1259.5
759.059	1153.01
759.242	1099.76
759.426	1150.96
759.61	1146.86
759.794	1239.02
759.977	1196.01
760.161	1144.81
760.345	1126.38
760.528	1138.67
760.712	1050.61
760.895	1042.42
761.079	1234.93
761.263	1163.25
761.446	1066.99
761.63	1048.56
761.813	1198.06
761.997	1142.77
762.18	1140.72
762.364	1116.14
762.547	1054.7
762.731	1071.09
762.914	1073.14
763.098	1093.62
763.281	1038.32
763.464	991.22
763.648	1040.37
763.831	1048.56
764.015	1001.46
764.198	983.03
764.381	1032.18
764.564	1005.55
764.748	985.07
764.931	991.22
765.114	1023.98
765.297	983.03
765.481	1005.55
765.664	1050.61
765.847	964.59
766.03	1023.98
766.213	929.78
766.397	921.59
766.58	1011.7
766.763	942.07
766.946	929.78
767.129	964.59
767.312	927.73
767.495	917.49
767.678	1028.08
767.861	944.11
768.044	944.11
768.227	917.49
768.41	942.07
768.593	925.68
768.776	950.26
768.959	958.45
769.142	978.93
769.324	827.38
769.507	942.07
769.69	897.01
769.873	860.15
770.056	829.43
770.239	946.16
770.421	839.67
770.604	851.95
770.787	813.04
770.97	925.68
771.152	804.85
771.335	817.14
771.518	747.51
771.7	827.38
771.883	843.76
772.066	782.32
772.248	825.33
772.431	899.06
772.613	761.84
772.796	761.84
772.978	821.24
773.161	825.33
773.343	798.71
773.526	856.05
773.708	788.47
773.891	696.31
774.073	774.13
774.256	772.08
774.438	716.79
774.621	720.89
774.803	745.46
774.985	778.23
775.168	788.47
775.35	741.36
775.532	714.74
775.715	729.08
775.897	720.89
776.079	755.7
776.261	626.68
776.444	665.59
776.626	671.73
776.808	669.69
776.99	714.74
777.173	684.02
777.355	690.17
777.537	671.73
777.719	641.01
777.901	583.67
778.083	585.72
778.265	548.86
778.447	751.6
778.629	655.35
778.811	688.12
778.993	544.76
779.175	630.77
779.357	675.83
779.539	604.15
779.721	602.1
779.903	577.53
780.085	665.59
780.267	647.16
780.449	511.99
780.631	622.58
780.812	528.38
780.994	610.29
781.176	571.38
781.358	624.63
781.54	600.05
781.721	559.1
781.903	595.96
782.085	606.2
782.267	563.19
782.448	509.94
782.63	561.14
782.812	460.79
782.993	528.38
783.175	536.57
783.357	471.03
783.538	577.53
783.72	561.14
783.901	438.27
784.083	536.57
784.264	532.47
784.446	491.51
784.627	489.46
784.809	462.84
784.99	497.66
785.172	466.94
785.353	393.21
785.535	419.83
785.716	419.83
785.897	462.84
786.079	403.45
786.26	464.89
786.441	538.62
786.623	421.88
786.804	423.93
786.985	403.45
787.167	456.7
787.348	538.62
787.529	378.87
787.71	444.41
787.891	473.08
788.073	423.93
788.254	421.88
788.435	477.18
788.616	366.59
788.797	325.63
788.978	448.51
789.159	311.29
789.34	411.64
789.522	315.39
789.703	378.87
789.884	374.78
790.065	385.02
790.246	358.39
790.427	442.36
790.607	432.12
790.788	356.35
790.969	352.25
791.15	372.73
791.331	350.2
791.512	403.45
791.693	296.96
791.874	335.87
792.054	303.1
792.235	329.72
792.416	372.73
792.597	399.35
792.778	360.44
792.958	327.67
793.139	346.11
793.32	335.87
793.5	307.2
793.681	337.91
793.862	253.95
794.042	335.87
794.223	260.09
794.404	305.15
794.584	258.04
794.765	331.77
794.945	288.76
795.126	256
795.306	331.77
795.487	208.89
795.667	321.53
795.848	358.39
796.028	272.38
796.209	309.24
796.389	251.9
796.57	290.81
796.75	266.24
796.93	237.56
797.111	337.91
797.291	229.37
797.471	272.38
797.652	299
797.832	311.29
798.012	299
798.192	235.52
798.373	280.57
798.553	282.62
798.733	284.67
798.913	243.71
799.093	243.71
799.274	272.38
799.454	358.39
799.634	288.76
799.814	284.67
799.994	198.65
800.174	258.04
800.354	260.09
800.534	165.89
800.714	280.57
800.894	282.62
801.074	227.32
801.254	133.12
801.434	253.95
801.614	251.9
801.794	147.45
801.974	555
802.154	309.24
802.334	184.32
802.514	182.27
802.693	206.84
802.873	231.42
803.053	268.28
803.233	145.41
803.413	286.72
803.592	264.19
803.772	182.27
803.952	225.28
804.131	260.09
804.311	264.19
804.491	260.09
804.67	243.71
804.85	188.41
805.03	231.42
805.209	249.85
805.389	241.66
805.568	176.13
805.748	221.18
805.928	163.84
806.107	161.79
806.287	108.54
806.466	206.84
806.646	190.46
806.825	241.66
807.004	266.24
807.184	190.46
807.363	227.32
807.543	167.93
807.722	247.8
807.901	303.1
808.081	229.37
808.26	194.56
808.439	172.03
808.619	217.08
808.798	212.99
808.977	180.22
809.156	186.37
809.336	198.65
809.515	143.36
809.694	237.56
809.873	206.84
810.052	135.17
810.231	204.8
810.411	167.93
810.59	176.13
810.769	167.93
810.948	180.22
811.127	143.36
811.306	110.59
811.485	161.79
811.664	163.84
811.843	217.08
812.022	137.21
812.201	206.84
812.38	192.51
812.559	227.32
812.737	143.36
812.916	155.65
813.095	172.03
813.274	159.74
813.453	149.5
813.632	231.42
813.811	188.41
813.989	221.18
814.168	43.01
814.347	129.02
814.526	155.65
814.704	155.65
814.883	182.27
815.062	159.74
815.24	147.45
815.419	106.49
815.598	88.06
815.776	69.63
815.955	215.04
816.133	137.21
816.312	133.12
816.49	108.54
816.669	135.17
816.847	149.5
817.026	157.69
817.204	165.89
817.383	147.45
817.561	104.45
817.74	98.3
817.918	118.78
818.097	116.73
818.275	71.68
818.453	120.83
818.632	157.69
818.81	98.3
818.988	118.78
819.167	112.64
819.345	126.97
819.523	208.89
819.701	106.49
819.879	86.01
820.058	90.11
820.236	145.41
820.414	43.01
820.592	229.37
820.77	98.3
820.948	98.3
821.127	135.17
821.305	129.02
821.483	49.15
821.661	124.93
821.839	83.97
822.017	81.92
822.195	30.72
822.373	139.26
822.551	169.98
822.729	96.25
822.907	167.93
823.085	161.79
823.262	69.63
823.44	90.11
823.618	102.4
823.796	73.73
823.974	124.93
824.152	182.27
824.329	86.01
824.507	155.65
824.685	157.69
824.863	143.36
825.04	94.21
825.218	98.3
825.396	112.64
825.574	155.65
825.751	88.06
825.929	100.35
826.107	110.59
826.284	118.78
826.462	61.44
826.639	124.93
826.817	90.11
826.994	53.25
827.172	32.77
827.349	169.98
827.527	79.87
827.704	40.96
827.882	135.17
828.059	28.67
828.237	53.25
828.414	110.59
828.591	124.93
828.769	40.96
828.946	73.73
829.124	47.1
829.301	106.49
829.478	102.4
829.655	110.59
829.833	81.92
830.01	55.3
830.187	22.53
830.364	34.82
830.542	98.3
830.719	114.69
830.896	61.44
831.073	65.54
831.25	159.74
831.427	8.19
831.604	86.01
831.782	65.54
831.959	57.34
832.136	124.93
832.313	90.11
832.49	102.4
832.667	96.25
832.844	53.25
833.021	90.11
833.198	69.63
833.374	77.82
833.551	94.21
833.728	53.25
833.905	71.68
834.082	124.93
834.259	100.35
834.436	153.6
834.612	10.24
834.789	79.87
834.966	8.19
835.143	129.02
835.319	77.82
835.496	116.73
835.673	57.34
835.85	36.86
836.026	40.96
836.203	67.58
836.38	24.58
836.556	20.48
836.733	34.82
836.909	94.21
837.086	10.24
837.262	61.44
837.439	55.3
837.616	69.63
837.792	24.58
837.968	98.3
838.145	45.06
838.321	55.3
838.498	43.01
838.674	81.92
838.851	4.1
839.027	67.58
839.203	45.06
839.38	36.86
839.556	86.01
839.732	63.49
839.909	71.68
840.085	69.63
840.261	49.15
840.437	65.54
840.614	131.07
840.79	116.73
840.966	69.63
841.142	45.06
841.318	2.05
841.494	165.89
841.671	28.67
841.847	92.16
842.023	49.15
842.199	120.83
842.375	59.39
842.551	73.73
842.727	16.38
842.903	57.34
843.079	22.53
843.255	88.06
843.431	34.82
843.607	51.2
843.783	-18.43
843.959	65.54
844.134	16.38
844.31	110.59
844.486	36.86
844.662	26.62
844.838	122.88
845.013	22.53
845.189	43.01
845.365	12.29
845.541	77.82
845.716	75.77
845.892	8.19
846.068	53.25
846.244	20.48
846.419	30.72
846.595	32.77
846.77	0
846.946	45.06
847.122	-12.29
847.297	43.01
847.473	28.67
847.648	-22.53
847.824	38.91
847.999	8.19
848.175	22.53
848.35	43.01
848.526	65.54
848.701	83.97
848.876	61.44
849.052	73.73
849.227	57.34
849.403	-6.14
849.578	49.15
849.753	34.82
849.929	57.34
850.104	-32.77
850.279	14.34
850.454	16.38
850.63	51.2
850.805	40.96
850.98	65.54
851.155	-47.1
851.33	51.2
851.505	28.67
851.681	75.77
851.856	-49.15
852.031	51.2
852.206	16.38
852.381	-36.86
852.556	28.67
852.731	120.83
852.906	67.58
853.081	24.58
853.256	38.91
853.431	-10.24
853.606	24.58
853.781	6.14
853.956	12.29
854.131	20.48
854.305	-8.19
854.48	18.43
854.655	63.49
854.83	-40.96
855.005	14.34
855.18	49.15
855.354	20.48
855.529	-10.24
855.704	-20.48
855.879	92.16
856.053	30.72
856.228	-4.1
856.403	30.72
856.577	18.43
856.752	18.43
856.926	-14.34
857.101	28.67
857.276	47.1
857.45	-18.43
857.625	43.01
857.799	81.92
857.974	65.54
858.148	-53.25
858.323	45.06
858.497	14.34
858.672	-2.05
858.846	6.14
859.02	53.25
859.195	63.49
859.369	4.1
859.543	59.39
859.718	43.01
859.892	-10.24
860.066	10.24
860.241	49.15
860.415	-63.49
860.589	38.91
860.763	-24.58
860.938	22.53
861.112	61.44
861.286	-16.38
861.46	43.01
861.634	30.72
861.808	22.53
861.982	40.96
862.157	-16.38
862.331	6.14
862.505	-22.53
862.679	73.73
862.853	22.53
863.027	32.77
863.201	-6.14
863.375	-24.58
863.549	18.43
863.722	-47.1
863.896	77.82
864.07	10.24
864.244	20.48
864.418	8.19
864.592	61.44
864.766	18.43
864.939	18.43
865.113	43.01
865.287	79.87
865.461	40.96
865.634	55.3
865.808	40.96
865.982	32.77
866.156	-30.72
866.329	36.86
866.503	102.4
866.676	67.58
866.85	43.01
867.024	26.62
867.197	43.01
867.371	59.39
867.544	24.58
867.718	120.83
867.891	18.43
868.065	-49.15
868.238	-16.38
868.412	2.05
868.585	-4.1
868.759	10.24
868.932	43.01
869.105	0
869.279	-36.86
869.452	-20.48
869.625	24.58
869.799	-28.67
869.972	-71.68
870.145	16.38
870.319	49.15
870.492	75.77
870.665	30.72
870.838	24.58
871.011	-36.86
871.185	36.86
871.358	32.77
871.531	-8.19
871.704	-12.29
871.877	83.97
872.05	-65.53
872.223	-18.43
872.396	79.87
872.569	12.29
872.742	-18.43
872.915	34.82
873.088	51.2
873.261	43.01
873.434	-6.14
873.607	45.06
873.78	-8.19
873.953	14.34
874.126	8.19
874.299	30.72
874.471	47.1
874.644	4.1
874.817	36.86
874.99	-14.34
875.163	-53.25
875.335	55.3
875.508	18.43
875.681	100.35
875.853	-32.77
876.026	16.38
876.199	22.53
876.371	40.96
876.544	34.82
876.717	-24.58
876.889	-20.48
877.062	-12.29
877.234	2.05
877.407	6.14
877.579	38.91
877.752	-96.25
877.924	-4.1
878.097	4.1
878.269	40.96
878.442	-18.43
878.614	-4.1
878.786	0
878.959	30.72
879.131	-8.19
879.303	2.05
879.476	-16.38
879.648	16.38
879.82	-22.53
879.993	77.82
880.165	-65.53
880.337	40.96
880.509	40.96
880.681	-40.96
880.854	-40.96
881.026	8.19
881.198	90.11
881.37	-34.82
881.542	57.34
881.714	-20.48
881.886	-57.34
882.058	10.24
882.23	22.53
882.402	2.05
882.574	-55.3
882.746	8.19
882.918	65.54
883.09	-55.3
883.262	28.67
883.434	16.38
883.606	-43.01
883.778	-2.05
883.95	53.25
884.122	26.62
884.293	57.34
884.465	-28.67
884.637	61.44
884.809	-28.67
884.98	75.77
885.152	10.24
885.324	8.19
885.496	-28.67
885.667	79.87
885.839	-22.53
886.011	-2.05
886.182	22.53
886.354	16.38
886.525	-24.58
886.697	-24.58
886.869	40.96
887.04	-8.19
887.212	-49.15
887.383	-8.19
887.555	-18.43
887.726	34.82
887.897	16.38
888.069	16.38
888.24	43.01
888.412	16.38
888.583	-55.3
888.754	12.29
888.926	-40.96
889.097	10.24
889.268	16.38
889.44	36.86
889.611	8.19
889.782	-4.1
889.953	-34.82
890.125	57.34
890.296	73.73
890.467	-53.25
890.638	-30.72
890.809	30.72
890.98	-30.72
891.151	-4.1
891.323	34.82
891.494	36.86
891.665	20.48
891.836	40.96
892.007	8.19
892.178	8.19
892.349	28.67
892.52	-75.77
892.691	63.49
892.862	-28.67
893.032	-59.39
893.203	67.58
893.374	-16.38
893.545	43.01
893.716	-24.58
893.887	24.58
894.057	-86.01
894.228	-40.96
894.399	-4.1
894.57	22.53
894.74	-8.19
894.911	63.49
895.082	-65.53
895.253	-59.39
895.423	32.77
895.594	116.73
895.764	36.86
895.935	59.39
896.106	16.38
896.276	18.43
896.447	12.29
896.617	8.19
896.788	43.01
896.958	-12.29
897.129	-69.63
897.299	-65.53
897.47	-28.67
897.64	4.1
897.81	20.48
897.981	-40.96
898.151	-61.44
898.322	45.06
898.492	51.2
898.662	-14.34
898.832	26.62
899.003	24.58
899.173	-22.53
899.343	-34.82
899.513	-4.1
