Data from USB4F104151__118__11-07-24-797.txt Node

Date: Wed Mar 12 11:07:24 EDT 2025
User: louis
Spectrometer: USB4F10415
Trigger mode: 4
Integration Time (sec): 2.000000E-2
Scans to average: 1
Electric dark correction enabled: true
Nonlinearity correction enabled: false
Boxcar width: 0
XAxis mode: Wavelengths
Number of Pixels in Spectrum: 3648
>>>>>Begin Spectral Data<<<<<
178.204	-101.72
178.424	-101.72
178.644	-101.72
178.864	-77.14
179.084	-60.76
179.304	35.5
179.524	-56.66
179.744	-13.65
179.964	41.64
180.184	-25.94
180.404	-19.8
180.624	31.4
180.844	25.26
181.064	-9.56
181.283	-3.41
181.503	-23.89
181.723	19.11
181.943	-48.47
182.163	31.4
182.383	-21.85
182.602	-7.51
182.822	23.21
183.042	29.35
183.262	25.26
183.482	-15.7
183.701	-60.76
183.921	17.07
184.141	-13.65
184.361	74.41
184.58	74.41
184.8	92.84
185.02	41.64
185.239	72.36
185.459	35.5
185.679	10.92
185.898	15.02
186.118	-1.37
186.338	0.68
186.557	23.21
186.777	-42.32
186.997	19.11
187.216	6.83
187.436	82.6
187.655	-40.28
187.875	29.35
188.095	25.26
188.314	-60.76
188.534	37.55
188.753	-42.32
188.973	4.78
189.192	49.83
189.412	-30.04
189.631	-5.46
189.851	39.59
190.07	80.55
190.29	-7.51
190.509	-5.46
190.729	35.5
190.948	-44.37
191.168	105.13
191.387	-9.56
191.607	43.69
191.826	41.64
192.045	39.59
192.265	47.79
192.484	62.12
192.704	10.92
192.923	-7.51
193.142	88.75
193.362	74.41
193.581	88.75
193.8	41.64
194.02	29.35
194.239	15.02
194.458	-32.08
194.678	45.74
194.897	17.07
195.116	-48.47
195.335	12.97
195.555	-64.85
195.774	41.64
195.993	15.02
196.212	78.51
196.432	-21.85
196.651	-5.46
196.87	-5.46
197.089	68.27
197.308	31.4
197.528	76.46
197.747	-15.7
197.966	74.41
198.185	51.88
198.404	10.92
198.623	68.27
198.842	115.37
199.062	4.78
199.281	10.92
199.5	-1.37
199.719	37.55
199.938	17.07
200.157	88.75
200.376	49.83
200.595	-58.71
200.814	-83.28
201.033	-25.94
201.252	-15.7
201.471	21.16
201.69	72.36
201.909	10.92
202.128	19.11
202.347	47.79
202.566	2.73
202.785	-25.94
203.004	101.03
203.223	72.36
203.442	2.73
203.661	-25.94
203.879	55.98
204.098	0.68
204.317	6.83
204.536	51.88
204.755	41.64
204.974	17.07
205.193	35.5
205.411	31.4
205.63	72.36
205.849	12.97
206.068	-44.37
206.287	6.83
206.505	39.59
206.724	-27.99
206.943	-27.99
207.162	2.73
207.381	96.94
207.599	27.31
207.818	45.74
208.037	-38.23
208.255	21.16
208.474	39.59
208.693	-15.7
208.911	-1.37
209.13	45.74
209.349	76.46
209.567	55.98
209.786	-30.04
210.005	10.92
210.223	43.69
210.442	10.92
210.661	60.07
210.879	60.07
211.098	-36.18
211.316	-5.46
211.535	23.21
211.753	-7.51
211.972	72.36
212.191	-7.51
212.409	23.21
212.628	-1.37
212.846	43.69
213.065	12.97
213.283	29.35
213.502	58.03
213.72	23.21
213.938	12.97
214.157	-56.66
214.375	27.31
214.594	39.59
214.812	6.83
215.031	103.08
215.249	-32.08
215.467	-7.51
215.686	51.88
215.904	-25.94
216.122	55.98
216.341	19.11
216.559	82.6
216.778	-17.75
216.996	10.92
217.214	80.55
217.432	10.92
217.651	37.55
217.869	80.55
218.087	41.64
218.306	47.79
218.524	45.74
218.742	4.78
218.96	45.74
219.179	51.88
219.397	-3.41
219.615	72.36
219.833	47.79
220.051	45.74
220.27	86.7
220.488	53.93
220.706	8.87
220.924	37.55
221.142	80.55
221.36	-25.94
221.578	33.45
221.796	4.78
222.015	49.83
222.233	19.11
222.451	6.83
222.669	0.68
222.887	92.84
223.105	43.69
223.323	31.4
223.541	17.07
223.759	49.83
223.977	25.26
224.195	-3.41
224.413	72.36
224.631	17.07
224.849	10.92
225.067	127.66
225.285	35.5
225.503	43.69
225.721	-3.41
225.939	12.97
226.157	41.64
226.375	39.59
226.592	-38.23
226.81	43.69
227.028	33.45
227.246	47.79
227.464	21.16
227.682	60.07
227.9	86.7
228.117	-40.28
228.335	-13.65
228.553	-7.51
228.771	90.79
228.989	23.21
229.206	51.88
229.424	10.92
229.642	51.88
229.86	2.73
230.077	29.35
230.295	21.16
230.513	21.16
230.731	55.98
230.948	51.88
231.166	-48.47
231.384	19.11
231.601	6.83
231.819	55.98
232.037	-7.51
232.254	17.07
232.472	43.69
232.689	33.45
232.907	92.84
233.125	2.73
233.342	29.35
233.56	43.69
233.777	25.26
233.995	55.98
234.213	51.88
234.43	-36.18
234.648	-17.75
234.865	49.83
235.083	66.22
235.3	0.68
235.518	76.46
235.735	17.07
235.953	94.89
236.17	55.98
236.388	2.73
236.605	76.46
236.822	4.78
237.04	66.22
237.257	0.68
237.475	29.35
237.692	35.5
237.909	-1.37
238.127	105.13
238.344	-7.51
238.562	-7.51
238.779	29.35
238.996	2.73
239.214	19.11
239.431	80.55
239.648	25.26
239.865	98.99
240.083	15.02
240.3	39.59
240.517	60.07
240.735	43.69
240.952	10.92
241.169	0.68
241.386	12.97
241.603	21.16
241.821	-5.46
242.038	86.7
242.255	33.45
242.472	-15.7
242.689	78.51
242.907	37.55
243.124	-42.32
243.341	82.6
243.558	15.02
243.775	-1.37
243.992	0.68
244.209	55.98
244.426	82.6
244.643	80.55
244.86	62.12
245.078	23.21
245.295	-23.89
245.512	43.69
245.729	76.46
245.946	94.89
246.163	15.02
246.38	29.35
246.597	-17.75
246.814	21.16
247.031	23.21
247.248	45.74
247.464	41.64
247.681	35.5
247.898	43.69
248.115	60.07
248.332	-9.56
248.549	41.64
248.766	-15.7
248.983	4.78
249.2	-25.94
249.417	43.69
249.633	19.11
249.85	47.79
250.067	-62.8
250.284	90.79
250.501	80.55
250.717	60.07
250.934	-11.61
251.151	76.46
251.368	27.31
251.585	43.69
251.801	45.74
252.018	2.73
252.235	74.41
252.451	17.07
252.668	23.21
252.885	-1.37
253.102	39.59
253.318	72.36
253.535	58.03
253.752	10.92
253.968	8.87
254.185	-15.7
254.401	2.73
254.618	64.17
254.835	-5.46
255.051	58.03
255.268	10.92
255.484	64.17
255.701	-9.56
255.917	45.74
256.134	68.27
256.351	58.03
256.567	-13.65
256.784	-42.32
257	-17.75
257.217	19.11
257.433	17.07
257.65	96.94
257.866	62.12
258.082	76.46
258.299	12.97
258.515	41.64
258.732	68.27
258.948	-13.65
259.165	37.55
259.381	45.74
259.597	21.16
259.814	-3.41
260.03	12.97
260.246	58.03
260.463	33.45
260.679	88.75
260.895	66.22
261.112	27.31
261.328	58.03
261.544	43.69
261.761	58.03
261.977	-7.51
262.193	8.87
262.409	-44.37
262.626	66.22
262.842	49.83
263.058	-3.41
263.274	29.35
263.49	17.07
263.707	27.31
263.923	2.73
264.139	-71
264.355	98.99
264.571	76.46
264.787	41.64
265.004	45.74
265.22	103.08
265.436	-9.56
265.652	37.55
265.868	58.03
266.084	47.79
266.3	23.21
266.516	29.35
266.732	88.75
266.948	41.64
267.164	-17.75
267.38	82.6
267.596	101.03
267.812	60.07
268.028	-68.95
268.244	-7.51
268.46	74.41
268.676	8.87
268.892	25.26
269.108	-5.46
269.324	19.11
269.54	-1.37
269.756	139.94
269.972	10.92
270.188	8.87
270.403	0.68
270.619	80.55
270.835	66.22
271.051	23.21
271.267	-23.89
271.483	12.97
271.698	2.73
271.914	43.69
272.13	74.41
272.346	78.51
272.562	41.64
272.777	62.12
272.993	17.07
273.209	51.88
273.425	12.97
273.64	-30.04
273.856	-21.85
274.072	15.02
274.287	41.64
274.503	49.83
274.719	78.51
274.934	49.83
275.15	19.11
275.366	4.78
275.581	29.35
275.797	25.26
276.012	10.92
276.228	-48.47
276.444	10.92
276.659	74.41
276.875	58.03
277.09	0.68
277.306	39.59
277.521	-17.75
277.737	6.83
277.952	117.42
278.168	60.07
278.383	43.69
278.599	-21.85
278.814	125.61
279.03	27.31
279.245	31.4
279.461	8.87
279.676	82.6
279.892	-5.46
280.107	15.02
280.322	-25.94
280.538	-36.18
280.753	49.83
280.969	64.17
281.184	-5.46
281.399	82.6
281.615	35.5
281.83	4.78
282.045	-60.76
282.26	33.45
282.476	66.22
282.691	90.79
282.906	-23.89
283.122	19.11
283.337	-30.04
283.552	19.11
283.767	35.5
283.983	6.83
284.198	15.02
284.413	113.32
284.628	60.07
284.843	25.26
285.058	51.88
285.274	80.55
285.489	82.6
285.704	53.93
285.919	-56.66
286.134	78.51
286.349	82.6
286.564	15.02
286.779	72.36
286.995	45.74
287.21	19.11
287.425	51.88
287.64	53.93
287.855	55.98
288.07	-38.23
288.285	80.55
288.5	-25.94
288.715	96.94
288.93	64.17
289.145	37.55
289.36	82.6
289.575	21.16
289.79	66.22
290.004	25.26
290.219	15.02
290.434	29.35
290.649	-3.41
290.864	39.59
291.079	2.73
291.294	-9.56
291.509	8.87
291.724	107.18
291.938	-9.56
292.153	43.69
292.368	29.35
292.583	60.07
292.798	51.88
293.012	74.41
293.227	51.88
293.442	58.03
293.657	39.59
293.871	62.12
294.086	4.78
294.301	80.55
294.516	49.83
294.73	51.88
294.945	78.51
295.16	-17.75
295.374	131.75
295.589	55.98
295.804	55.98
296.018	49.83
296.233	82.6
296.447	98.99
296.662	66.22
296.877	29.35
297.091	6.83
297.306	49.83
297.52	53.93
297.735	8.87
297.949	64.17
298.164	23.21
298.378	-44.37
298.593	96.94
298.807	39.59
299.022	15.02
299.236	10.92
299.451	37.55
299.665	-56.66
299.88	82.6
300.094	45.74
300.309	72.36
300.523	-32.08
300.737	29.35
300.952	19.11
301.166	92.84
301.381	25.26
301.595	78.51
301.809	15.02
302.024	49.83
302.238	-9.56
302.452	66.22
302.667	49.83
302.881	68.27
303.095	82.6
303.309	-5.46
303.524	-13.65
303.738	12.97
303.952	23.21
304.166	88.75
304.381	27.31
304.595	64.17
304.809	33.45
305.023	12.97
305.237	51.88
305.452	8.87
305.666	72.36
305.88	62.12
306.094	6.83
306.308	37.55
306.522	41.64
306.736	2.73
306.95	0.68
307.164	78.51
307.379	58.03
307.593	29.35
307.807	117.42
308.021	31.4
308.235	107.18
308.449	-25.94
308.663	86.7
308.877	187.05
309.091	29.35
309.305	45.74
309.519	29.35
309.733	74.41
309.947	82.6
310.161	55.98
310.374	98.99
310.588	88.75
310.802	35.5
311.016	8.87
311.23	2.73
311.444	6.83
311.658	98.99
311.872	86.7
312.085	72.36
312.299	64.17
312.513	27.31
312.727	53.93
312.941	37.55
313.154	90.79
313.368	80.55
313.582	47.79
313.796	70.31
314.009	60.07
314.223	10.92
314.437	62.12
314.651	88.75
314.864	0.68
315.078	39.59
315.292	37.55
315.505	66.22
315.719	19.11
315.933	19.11
316.146	47.79
316.36	49.83
316.573	72.36
316.787	92.84
317.001	29.35
317.214	-25.94
317.428	33.45
317.641	39.59
317.855	90.79
318.068	66.22
318.282	66.22
318.495	62.12
318.709	27.31
318.922	-30.04
319.136	-19.8
319.349	94.89
319.563	0.68
319.776	41.64
319.99	21.16
320.203	15.02
320.417	90.79
320.63	43.69
320.843	78.51
321.057	6.83
321.27	58.03
321.483	76.46
321.697	154.28
321.91	43.69
322.124	12.97
322.337	109.22
322.55	35.5
322.763	2.73
322.977	31.4
323.19	82.6
323.403	-5.46
323.617	2.73
323.83	113.32
324.043	86.7
324.256	60.07
324.469	64.17
324.683	0.68
324.896	66.22
325.109	33.45
325.322	25.26
325.535	53.93
325.748	123.56
325.962	53.93
326.175	29.35
326.388	119.46
326.601	60.07
326.814	78.51
327.027	-19.8
327.24	58.03
327.453	92.84
327.666	-11.61
327.879	92.84
328.092	60.07
328.305	23.21
328.518	33.45
328.731	45.74
328.944	25.26
329.157	-30.04
329.37	33.45
329.583	70.31
329.796	125.61
330.009	-17.75
330.222	49.83
330.435	88.75
330.648	35.5
330.861	19.11
331.073	-50.52
331.286	76.46
331.499	27.31
331.712	51.88
331.925	72.36
332.138	6.83
332.35	78.51
332.563	10.92
332.776	109.22
332.989	15.02
333.202	10.92
333.414	27.31
333.627	86.7
333.84	-30.04
334.053	51.88
334.265	86.7
334.478	45.74
334.691	49.83
334.903	51.88
335.116	-3.41
335.329	64.17
335.541	19.11
335.754	103.08
335.966	-3.41
336.179	78.51
336.392	78.51
336.604	-13.65
336.817	35.5
337.029	92.84
337.242	92.84
337.454	84.65
337.667	31.4
337.88	70.31
338.092	-42.32
338.305	58.03
338.517	6.83
338.729	49.83
338.942	82.6
339.154	-34.13
339.367	25.26
339.579	66.22
339.792	-52.56
340.004	160.42
340.217	41.64
340.429	4.78
340.641	72.36
340.854	41.64
341.066	10.92
341.278	31.4
341.491	107.18
341.703	64.17
341.915	51.88
342.128	37.55
342.34	84.65
342.552	68.27
342.764	66.22
342.977	66.22
343.189	55.98
343.401	29.35
343.613	-15.7
343.826	53.93
344.038	-9.56
344.25	-17.75
344.462	25.26
344.674	84.65
344.886	31.4
345.099	-23.89
345.311	78.51
345.523	88.75
345.735	-7.51
345.947	72.36
346.159	-15.7
346.371	0.68
346.583	88.75
346.795	86.7
347.007	35.5
347.219	19.11
347.431	37.55
347.643	94.89
347.855	76.46
348.067	135.85
348.279	35.5
348.491	82.6
348.703	51.88
348.915	-34.13
349.127	76.46
349.339	-15.7
349.551	70.31
349.763	113.32
349.975	78.51
350.187	111.27
350.399	74.41
350.61	33.45
350.822	72.36
351.034	-23.89
351.246	82.6
351.458	60.07
351.669	80.55
351.881	123.56
352.093	109.22
352.305	62.12
352.517	58.03
352.728	43.69
352.94	27.31
353.152	137.9
353.363	-64.85
353.575	-38.23
353.787	78.51
353.999	60.07
354.21	68.27
354.422	47.79
354.633	62.12
354.845	64.17
355.057	-21.85
355.268	109.22
355.48	51.88
355.692	25.26
355.903	6.83
356.115	47.79
356.326	60.07
356.538	68.27
356.749	-11.61
356.961	41.64
357.172	84.65
357.384	103.08
357.595	107.18
357.807	103.08
358.018	10.92
358.23	-1.37
358.441	197.29
358.653	35.5
358.864	111.27
359.075	64.17
359.287	84.65
359.498	2.73
359.709	-5.46
359.921	41.64
360.132	101.03
360.344	74.41
360.555	43.69
360.766	86.7
360.977	123.56
361.189	96.94
361.4	86.7
361.611	27.31
361.823	62.12
362.034	101.03
362.245	84.65
362.456	29.35
362.667	66.22
362.879	76.46
363.09	107.18
363.301	37.55
363.512	49.83
363.723	2.73
363.935	41.64
364.146	47.79
364.357	60.07
364.568	86.7
364.779	-9.56
364.99	72.36
365.201	-15.7
365.412	105.13
365.623	41.64
365.834	19.11
366.045	21.16
366.256	90.79
366.467	47.79
366.678	86.7
366.889	68.27
367.1	105.13
367.311	60.07
367.522	23.21
367.733	68.27
367.944	62.12
368.155	51.88
368.366	64.17
368.577	33.45
368.788	86.7
368.999	-34.13
369.209	111.27
369.42	141.99
369.631	29.35
369.842	84.65
370.053	72.36
370.264	60.07
370.474	92.84
370.685	8.87
370.896	96.94
371.107	123.56
371.317	53.93
371.528	72.36
371.739	105.13
371.95	72.36
372.16	64.17
372.371	-27.99
372.582	47.79
372.792	74.41
373.003	109.22
373.214	35.5
373.424	94.89
373.635	68.27
373.846	178.86
374.056	84.65
374.267	41.64
374.477	109.22
374.688	37.55
374.898	103.08
375.109	41.64
375.319	45.74
375.53	70.31
375.74	66.22
375.951	41.64
376.161	74.41
376.372	133.8
376.582	51.88
376.793	84.65
377.003	60.07
377.214	72.36
377.424	58.03
377.635	60.07
377.845	12.97
378.055	113.32
378.266	55.98
378.476	29.35
378.686	35.5
378.897	94.89
379.107	92.84
379.317	53.93
379.528	4.78
379.738	101.03
379.948	137.9
380.158	31.4
380.369	94.89
380.579	193.19
380.789	29.35
380.999	115.37
381.21	101.03
381.42	133.8
381.63	0.68
381.84	94.89
382.05	80.55
382.261	86.7
382.471	51.88
382.681	90.79
382.891	62.12
383.101	53.93
383.311	96.94
383.521	43.69
383.731	66.22
383.941	41.64
384.151	-1.37
384.361	8.87
384.571	141.99
384.781	23.21
384.991	19.11
385.201	135.85
385.411	80.55
385.621	70.31
385.831	84.65
386.041	74.41
386.251	70.31
386.461	129.7
386.671	19.11
386.881	58.03
387.091	25.26
387.301	125.61
387.511	96.94
387.72	107.18
387.93	115.37
388.14	113.32
388.35	105.13
388.56	98.99
388.769	150.18
388.979	64.17
389.189	86.7
389.399	-23.89
389.609	64.17
389.818	58.03
390.028	55.98
390.238	58.03
390.447	78.51
390.657	137.9
390.867	105.13
391.076	164.52
391.286	68.27
391.496	0.68
391.705	90.79
391.915	41.64
392.125	137.9
392.334	109.22
392.544	107.18
392.753	135.85
392.963	98.99
393.172	172.71
393.382	53.93
393.591	131.75
393.801	88.75
394.01	105.13
394.22	154.28
394.429	51.88
394.639	68.27
394.848	201.38
395.058	152.23
395.267	82.6
395.477	98.99
395.686	117.42
395.895	115.37
396.105	191.14
396.314	49.83
396.524	105.13
396.733	113.32
396.942	129.7
397.152	113.32
397.361	137.9
397.57	127.66
397.78	174.76
397.989	232.1
398.198	125.61
398.407	58.03
398.617	131.75
398.826	123.56
399.035	96.94
399.244	195.24
399.453	176.81
399.663	129.7
399.872	168.62
400.081	51.88
400.29	170.66
400.499	88.75
400.708	119.46
400.917	187.05
401.127	150.18
401.336	160.42
401.545	170.66
401.754	213.67
401.963	123.56
402.172	205.48
402.381	154.28
402.59	238.25
402.799	154.28
403.008	205.48
403.217	176.81
403.426	35.5
403.635	135.85
403.844	160.42
404.053	201.38
404.262	176.81
404.471	209.58
404.68	158.38
404.888	211.62
405.097	215.72
405.306	213.67
405.515	215.72
405.724	242.34
405.933	297.64
406.142	219.82
406.35	250.53
406.559	281.25
406.768	205.48
406.977	268.97
407.185	219.82
407.394	248.49
407.603	340.65
407.812	252.58
408.02	293.54
408.229	266.92
408.438	277.16
408.646	342.69
408.855	371.37
409.064	303.78
409.272	393.89
409.481	410.28
409.69	365.22
409.898	359.08
410.107	477.86
410.315	436.9
410.524	453.28
410.733	449.19
410.941	496.29
411.15	539.3
411.358	518.82
411.567	549.54
411.775	559.78
411.984	594.59
412.192	656.03
412.401	670.37
412.609	637.6
412.818	733.86
413.026	715.42
413.234	826.01
413.443	733.86
413.651	809.63
413.86	821.92
414.068	914.08
414.276	883.36
414.485	912.03
414.693	940.7
414.901	1016.48
415.11	969.37
415.318	1024.67
415.526	1182.36
415.734	1047.19
415.943	1155.74
416.151	1153.69
416.359	1206.94
416.567	1237.66
416.776	1340.05
416.984	1338.01
417.192	1378.97
417.4	1383.06
417.608	1567.38
417.817	1575.57
418.025	1573.52
418.233	1739.41
418.441	1698.45
418.649	1587.86
418.857	1917.58
419.065	1909.39
419.273	1868.43
419.481	2132.62
419.689	2060.94
419.897	2216.58
420.105	2271.88
420.313	2296.46
420.521	2331.27
420.729	2417.29
420.937	2554.5
421.145	2730.62
421.353	2669.19
421.561	2873.98
421.769	2955.9
421.977	2984.57
422.185	3017.34
422.393	3181.18
422.601	3431.03
422.809	3390.07
423.017	3471.99
423.224	3465.85
423.432	3961.45
423.64	3867.25
423.848	4024.94
424.056	3908.21
424.263	4268.65
424.471	4102.76
424.679	4360.81
424.887	4594.28
425.094	4934.24
425.302	4792.93
425.51	4864.61
425.718	5093.98
425.925	5220.95
426.133	5313.11
426.341	5759.57
426.548	5976.66
426.756	5823.06
426.964	5982.8
427.171	6269.51
427.379	6283.85
427.586	6636.1
427.794	6744.64
428.001	7189.05
428.209	7268.92
428.417	7328.31
428.624	7752.24
428.832	7842.35
429.039	7582.26
429.247	7752.24
429.454	8501.8
429.662	9013.79
429.869	8563.24
430.076	9320.99
430.284	8882.72
430.491	9275.93
430.699	9761.3
430.906	9740.82
431.114	9695.77
431.321	10197.52
431.528	10365.45
431.736	10889.73
431.943	11504.12
432.15	11305.47
432.358	11471.36
432.565	12163.57
432.772	12104.18
432.979	12554.73
433.187	12671.47
433.394	13177.31
433.601	13937.11
433.808	13734.36
434.016	13918.68
434.223	14129.62
434.43	15223.23
434.637	15088.07
434.844	15737.27
435.052	16204.21
435.259	16169.4
435.466	16050.61
435.673	15925.69
435.88	16888.23
436.087	18117.01
436.294	17891.74
436.501	17564.06
436.708	18006.42
436.915	18698.64
437.122	19372.42
437.329	19405.19
437.537	19960.19
437.743	20463.99
437.95	20050.3
438.157	21014.89
438.364	22219.1
438.571	21866.85
438.778	21844.32
438.985	23767.36
439.192	23144.78
439.399	24291.64
439.606	23216.46
439.813	24727.86
440.02	26485.01
440.227	25381.16
440.433	25375.02
440.64	26163.48
440.847	25874.72
441.054	26790.16
441.261	28528.89
441.467	28039.42
441.674	28819.7
441.881	29767.91
442.088	29518.06
442.294	29366.51
442.501	30200.03
442.708	30556.38
442.914	31961.28
443.121	33503.4
443.328	32487.61
443.534	34885.78
443.741	33495.21
443.948	33552.55
444.154	35627.15
444.361	35659.91
444.568	36034.69
444.774	36167.81
444.981	36206.72
445.187	36892.79
445.394	38692.96
445.6	38211.68
445.807	42055.72
446.013	40230.98
446.22	40661.05
446.426	42176.55
446.633	42414.12
446.839	43878.41
447.046	42377.25
447.252	44351.49
447.459	44496.9
447.665	44027.91
447.871	46499.81
448.078	48302.03
448.284	46077.93
448.491	47273.95
448.697	49004.48
448.903	49600.44
449.11	49751.99
449.316	48654.28
449.522	50089.9
449.728	50984.86
449.935	51670.93
450.141	51031.97
450.347	52780.93
450.553	50751.4
450.76	51482.52
450.966	52809.6
451.172	52346.76
451.378	53284.73
451.584	52506.51
451.791	53522.3
451.997	53440.38
452.203	54628.2
452.409	54339.44
452.615	54294.38
452.821	52113.3
453.027	51759
453.233	54325.1
453.44	51875.73
453.646	52703.11
453.852	52961.15
454.058	53573.5
454.264	51732.37
454.47	52928.39
454.676	51670.93
454.882	53155.71
455.088	48132.04
455.294	49831.86
455.5	50145.2
455.705	50708.39
455.911	48666.56
456.117	47466.45
456.323	46845.92
456.529	44525.57
456.735	46362.6
456.941	45445.11
457.147	44429.32
457.352	43020.31
457.558	42807.33
457.764	42915.87
457.97	41820.2
458.176	41048.12
458.381	41015.35
458.587	39012.44
458.793	39293.01
458.999	37249.14
459.204	39743.56
459.41	38920.28
459.616	36141.19
459.821	36282.5
460.027	36006.02
460.233	35309.71
460.438	33661.1
460.644	34113.7
460.85	32598.2
461.055	31885.51
461.261	31848.64
461.466	29602.02
461.672	28649.72
461.878	30738.65
462.083	28858.61
462.289	28221.69
462.494	28027.14
462.7	26505.49
462.905	26155.29
463.111	26874.13
463.316	26695.96
463.522	26595.6
463.727	26538.26
463.932	26251.55
464.138	25997.6
464.343	26091.8
464.549	25340.2
464.754	26179.87
464.959	25975.07
465.165	25915.68
465.37	24721.71
465.575	24107.32
465.781	25276.71
465.986	25542.95
466.191	24332.6
466.397	24056.12
466.602	22554.96
466.807	23982.4
467.012	23583.04
467.218	23689.54
467.423	23257.42
467.628	23529.8
467.833	24463.67
468.038	23589.19
468.244	22679.89
468.449	23871.81
468.654	22813.01
468.859	22917.45
469.064	22864.21
469.269	21922.14
469.474	21664.1
469.679	22505.81
469.885	21569.89
470.09	22088.03
470.295	21877.08
470.5	21393.76
470.705	21487.97
470.91	21096.81
471.115	20662.64
471.32	21070.19
471.525	20849
471.73	20314.48
471.935	20185.46
472.139	19501.44
472.344	20033.91
472.549	19874.17
472.754	19644.8
472.959	19132.81
473.164	18653.58
473.369	18440.59
473.574	19159.43
473.778	18979.21
473.983	18661.77
474.188	18712.97
474.393	18028.95
474.598	18284.95
474.802	17568.16
475.007	17719.71
475.212	17590.69
475.417	17000.87
475.621	17207.72
475.826	17308.07
476.031	16646.57
476.235	16654.76
476.44	16976.3
476.645	16470.45
476.849	16523.69
477.054	16181.68
477.259	16220.6
477.463	16062.9
477.668	15532.48
477.872	15749.56
478.077	15544.77
478.282	15120.84
478.486	14989.77
478.691	15010.25
478.895	14811.59
479.1	14821.83
479.304	14717.39
479.509	14332.37
479.713	14776.78
479.918	14455.25
480.122	14260.69
480.326	14395.85
480.531	14549.45
480.735	14176.72
480.94	13965.78
481.144	14688.71
481.348	13969.88
481.553	14191.06
481.757	13869.53
481.961	13965.78
482.166	13986.26
482.37	13973.97
482.574	13539.8
482.778	13814.23
482.983	14016.98
483.187	13785.56
483.391	14037.46
483.595	13670.87
483.8	13896.15
484.004	13838.81
484.208	13902.29
484.412	13703.64
484.616	13650.39
484.821	13857.24
485.025	13621.72
485.229	13914.58
485.433	13820.38
485.637	13830.62
485.841	13681.11
486.045	13758.94
486.249	13717.98
486.453	13511.13
486.657	13664.73
486.861	13894.1
487.065	13433.31
487.269	13779.42
487.473	13457.89
487.677	13894.1
487.881	13847
488.085	13728.22
488.289	13916.63
488.493	13732.31
488.697	13746.65
488.901	13803.99
489.105	13898.2
489.309	13789.66
489.512	13887.96
489.716	14012.88
489.92	13971.93
490.124	14006.74
490.328	14150.1
490.531	14084.56
490.735	14070.23
490.939	14256.59
491.143	14082.52
491.346	14412.24
491.55	14350.8
491.754	14350.8
491.958	14297.55
492.161	14113.24
492.365	14522.83
492.569	14612.94
492.772	14313.94
492.976	14668.23
493.18	14889.42
493.383	14957
493.587	14985.67
493.79	15057.35
493.994	14635.47
494.197	15110.6
494.401	15227.33
494.605	15503.81
494.808	15565.25
495.012	15700.41
495.215	15729.08
495.419	15956.41
495.622	15831.48
495.825	15968.69
496.029	16083.38
496.232	16470.45
496.436	16290.23
496.639	16564.65
496.843	16400.82
497.046	17095.08
497.249	17121.7
497.453	17047.97
497.656	17279.39
497.859	17248.68
498.063	17637.79
498.266	18074.01
498.469	17760.67
498.673	18223.51
498.876	18373.01
499.079	18635.15
499.282	18471.31
499.485	19040.65
499.689	19212.68
499.892	19349.89
500.095	19343.75
500.298	20025.72
500.501	19896.7
500.705	20279.67
500.908	20365.68
501.111	20627.82
501.314	20588.91
501.517	20857.2
501.72	20892.01
501.923	21127.53
502.126	21670.24
502.329	22120.79
502.532	22311.25
502.735	22274.39
502.938	22710.61
503.141	23048.52
503.344	23413.06
503.547	23447.88
503.75	23519.56
503.953	23484.74
504.156	24070.46
504.359	24480.05
504.562	24445.24
504.765	24930.61
504.968	24592.69
505.17	25708.83
505.373	25379.11
505.576	25993.5
505.779	26269.98
505.982	26226.97
506.185	26710.29
506.387	26906.9
506.59	27334.92
506.793	27805.95
506.996	27459.85
507.198	28305.66
507.401	28330.23
507.604	28723.44
507.807	29042.93
508.009	28965.1
508.212	29305.07
508.415	29720.81
508.617	30197.98
508.82	30310.62
509.022	30083.3
509.225	30957.78
509.428	31205.58
509.63	31416.52
509.833	31824.07
510.035	32524.47
510.238	32315.58
510.44	32555.19
510.643	32968.88
510.845	33575.08
511.048	33274.03
511.25	33777.83
511.453	33929.38
511.655	35014.8
511.858	34615.45
512.06	34926.74
512.262	35328.14
512.465	35549.32
512.667	36069.51
512.87	36192.39
513.072	36798.59
513.274	37099.64
513.477	37607.53
513.679	37656.68
513.881	38072.42
514.084	38801.5
514.286	38312.03
514.488	38801.5
514.69	39497.81
514.893	39997.51
515.095	40194.12
515.297	40788.03
515.499	40337.48
515.701	40972.35
515.904	41568.3
516.106	42065.96
516.308	42045.48
516.51	42491.94
516.712	42287.14
516.914	43624.46
517.116	43593.75
517.318	43665.42
517.52	44058.63
517.722	44546.05
517.925	45142.01
518.127	45465.59
518.329	45215.74
518.531	45604.85
518.733	46368.74
518.935	46780.38
519.136	46948.32
519.338	47103.96
519.54	47448.02
519.742	48111.56
519.944	48213.96
520.146	48967.62
520.348	49104.83
520.55	49575.86
520.752	49610.68
520.954	50114.48
521.155	49803.19
521.357	50479.02
521.559	51023.78
521.761	51566.49
521.963	52008.85
522.164	51681.17
522.366	51705.75
522.568	52443.02
522.77	52613
522.971	53659.51
523.173	53108.61
523.375	53512.06
523.576	53362.56
523.778	53972.85
523.98	54321.01
524.181	54855.53
524.383	54445.93
524.584	55082.85
524.786	55172.96
524.988	55230.3
525.189	56041.3
525.391	56127.31
525.592	56348.49
525.794	56872.77
525.995	56710.99
526.197	56905.54
526.398	56778.57
526.6	57784.12
526.801	57222.98
527.003	58081.08
527.204	57734.97
527.406	58117.94
527.607	57954.1
527.808	58496.81
528.01	57708.35
528.211	57900.86
528.412	59291.43
528.614	59072.29
528.815	58941.22
529.016	59670.3
529.218	59002.66
529.419	59436.83
529.62	59359.01
529.822	59291.43
530.023	59899.67
530.224	59756.31
530.425	59899.67
530.626	59121.44
530.828	59485.98
531.029	60516.11
531.23	59514.65
531.431	60045.08
531.632	60438.29
531.833	60624.65
532.035	59987.74
532.236	60641.04
532.437	60485.39
532.638	59948.82
532.839	60899.08
533.04	60714.76
533.241	60317.46
533.442	61349.63
533.643	60385.04
533.844	60557.07
534.045	60561.17
534.246	60612.37
534.447	60948.23
534.648	61042.44
534.849	60720.91
535.05	60315.41
535.251	60909.32
535.451	60602.13
535.652	60917.51
535.853	60983.05
536.054	60997.38
536.255	60747.53
536.456	60651.28
536.657	61456.13
536.857	60677.9
537.058	60849.93
537.259	61253.38
537.46	61003.53
537.66	60888.84
537.861	60999.43
538.062	60819.21
538.263	61001.48
538.463	60862.22
538.664	60706.57
538.865	61146.89
539.065	61091.59
539.266	60890.89
539.466	61077.25
539.667	60497.68
539.868	61253.38
540.068	60616.46
540.269	60858.12
540.469	60755.72
540.67	60350.23
540.87	60346.13
541.071	60747.53
541.271	60964.62
541.472	60620.56
541.672	60237.59
541.873	60397.33
542.073	60194.58
542.274	60620.56
542.474	60688.14
542.675	60219.16
542.875	60845.83
543.075	60567.31
543.276	59711.26
543.476	60698.38
543.676	60624.65
543.877	60382.99
544.077	60479.25
544.277	60227.35
544.478	60473.1
544.678	60450.58
544.878	60559.12
545.078	60548.88
545.279	60174.1
545.479	60026.65
545.679	60411.66
545.879	60206.87
546.079	59897.62
546.28	60428.05
546.48	59658.01
546.68	60577.55
546.88	60339.99
547.08	60571.41
547.28	59842.33
547.48	59836.19
547.68	60161.81
547.88	60137.24
548.081	60485.39
548.281	60249.88
548.481	59836.19
548.681	60204.82
548.881	60108.57
549.081	59866.91
549.28	59731.74
549.48	60313.36
549.68	59885.34
549.88	60602.13
550.08	59741.98
550.28	60198.68
550.48	60165.91
550.68	60223.25
550.88	59703.07
551.08	59752.22
551.279	60133.14
551.479	59490.08
551.679	60012.31
551.879	59830.04
552.079	60239.64
552.278	59725.6
552.478	60053.27
552.678	60112.66
552.878	59866.91
553.077	59825.95
553.277	59576.09
553.477	60104.47
553.676	59539.23
553.876	59834.14
554.076	59410.21
554.275	59371.3
554.475	59002.66
554.674	59262.75
554.874	59223.84
555.074	59047.72
555.273	59522.85
555.473	59842.33
555.672	59313.95
555.872	59301.67
556.071	59092.77
556.271	59307.81
556.47	58466.09
556.67	58756.91
556.869	58666.8
557.068	59344.67
557.268	58689.32
557.467	58695.47
557.667	58871.59
557.866	58533.68
558.065	58701.61
558.265	58130.23
558.464	58036.02
558.663	58705.71
558.863	57689.91
559.062	58900.26
559.261	57904.95
559.461	58799.91
559.66	57569.08
559.859	58396.46
560.058	57702.2
560.258	58111.8
560.457	57571.13
560.656	58320.69
560.855	57534.27
561.054	58154.8
561.253	57007.94
561.453	57732.92
561.652	58134.32
561.851	57653.05
562.05	56844.1
562.249	57063.24
562.448	57681.72
562.647	57227.07
562.846	57018.18
563.045	57003.84
563.244	56547.15
563.443	57044.8
563.642	56373.07
563.841	56618.83
564.04	56397.65
564.239	56790.86
564.438	56192.85
564.637	56760.14
564.836	56471.37
565.035	55848.79
565.234	56514.38
565.432	55574.36
565.631	55947.09
565.83	55918.42
566.029	55770.97
566.228	55457.63
566.427	55566.17
566.625	55246.69
566.824	54742.89
567.023	55758.68
567.222	54593.39
567.42	55351.13
567.619	55320.41
567.818	55011.17
568.016	54486.89
568.215	55052.13
568.414	54302.57
568.612	55226.21
568.811	54325.1
569.01	54685.54
569.208	54132.59
569.407	54447.98
569.605	53643.13
569.804	54525.8
570.002	53602.17
570.201	54026.1
570.4	53731.19
570.598	53141.38
570.797	53129.09
570.995	53600.12
571.193	52326.28
571.392	53417.85
571.59	52744.07
571.789	53272.45
571.987	52842.37
572.186	52412.3
572.384	52227.98
572.582	52709.25
572.781	52832.13
572.979	51842.96
573.177	52467.59
573.376	52404.11
573.574	51535.77
573.772	52189.07
573.971	51656.6
574.169	51347.36
574.367	51623.83
574.565	51681.17
574.763	51394.46
574.962	51625.88
575.16	50433.96
575.358	51396.51
575.556	50429.87
575.754	51236.76
575.952	50388.91
576.151	50751.4
576.349	50159.53
576.547	50100.14
576.745	50188.2
576.943	50403.24
577.141	49975.22
577.339	50044.85
577.537	49397.69
577.735	49645.49
577.933	49321.91
578.131	49815.47
578.329	49563.57
578.527	48926.66
578.725	49067.97
578.923	49389.5
579.121	49029.05
579.319	48713.67
579.516	49180.6
579.714	48857.03
579.912	48482.25
580.11	48334.79
580.308	48504.77
580.506	48164.81
580.704	47882.19
580.901	48136.14
581.099	48132.04
581.297	47888.34
581.495	47523.8
581.692	47841.23
581.89	46917.6
582.088	47658.96
582.285	47206.36
582.483	47296.47
582.681	47124.44
582.878	47038.43
583.076	46481.38
583.274	47067.1
583.471	46471.14
583.669	46628.84
583.866	46333.93
584.064	46473.19
584.262	45955.05
584.459	46116.84
584.657	45971.44
584.854	46594.02
585.052	45080.57
585.249	45737.97
585.447	45643.76
585.644	45094.91
585.841	45389.81
586.039	45539.32
586.236	44779.52
586.434	44967.93
586.631	44730.37
586.828	44322.82
587.026	44691.46
587.223	44484.61
587.42	44267.53
587.618	44460.04
587.815	43919.37
588.012	43952.14
588.21	43798.54
588.407	44482.56
588.604	43720.72
588.801	43569.17
588.999	43407.38
589.196	43067.42
589.393	43536.4
589.59	43040.79
589.787	43135
589.984	42754.08
590.182	42483.75
590.379	42737.69
590.576	42592.29
590.773	42608.67
590.97	42111.02
591.167	42717.21
591.364	42006.57
591.561	42448.93
591.758	41601.07
591.955	41887.79
592.152	41867.31
592.349	41955.37
592.546	41697.33
592.743	41001.02
592.94	40785.98
593.137	41216.05
593.334	41232.44
593.531	40435.78
593.727	40902.71
593.924	40607.81
594.121	40349.76
594.318	40548.42
594.515	40095.81
594.712	40194.12
594.908	40104.01
595.105	40519.74
595.302	39569.49
595.499	39950.41
595.696	39759.95
595.892	39686.22
596.089	39762
596.286	39514.19
596.482	39350.35
596.679	39129.17
596.876	39309.39
597.072	38703.2
597.269	38893.66
597.466	38535.26
597.662	38735.96
597.859	38328.42
598.055	38744.16
598.252	38244.45
598.448	38414.43
598.645	38121.57
598.841	37578.86
599.038	38064.23
599.234	37677.16
599.431	37625.96
599.627	37595.24
599.824	37593.2
600.02	37312.63
600.217	37480.56
600.413	37486.7
600.609	36835.45
600.806	36896.89
601.002	37019.77
601.198	36292.74
601.395	36446.33
601.591	36448.38
601.787	36266.11
601.984	36239.49
602.18	36802.68
602.376	36118.66
602.572	36118.66
602.769	35813.51
602.965	35780.74
603.161	36161.67
603.357	35651.72
603.553	35209.36
603.75	35442.83
603.946	35160.21
604.142	35172.5
604.338	34830.49
604.534	35342.48
604.73	34865.3
604.926	34726.04
605.122	34537.63
605.318	34637.98
605.514	34377.89
605.71	34320.54
605.906	34304.16
606.102	34470.04
606.298	34060.45
606.494	34330.78
606.69	34267.3
606.886	33738.92
607.082	33671.34
607.278	34111.65
607.474	33269.93
607.67	33577.13
607.866	33304.75
608.062	34023.59
608.257	33237.17
608.453	33609.9
608.649	33308.85
608.845	33011.89
609.041	33003.7
609.236	33503.4
609.432	33001.65
609.628	33202.35
609.824	32909.49
610.019	32915.64
610.215	32739.51
610.411	33122.48
610.606	32759.99
610.802	32788.66
610.998	32682.17
611.193	32778.42
611.389	32573.63
611.584	31946.95
611.78	32166.08
611.976	32424.12
612.171	32098.5
612.367	32059.59
612.562	32055.49
612.758	31899.84
612.953	31824.07
613.149	32264.38
613.344	31772.87
613.539	32016.58
613.735	31838.4
613.93	31764.68
614.126	31807.69
614.321	31949
614.517	31602.89
614.712	31529.16
614.907	31449.29
615.103	31207.63
615.298	31410.38
615.493	31795.4
615.688	31279.31
615.884	31645.9
616.079	31031.51
616.274	30922.96
616.47	30785.75
616.665	30886.1
616.86	30669.01
617.055	30965.97
617.25	30980.31
617.445	30916.82
617.641	30308.57
617.836	30660.82
618.031	30273.76
618.226	30333.15
618.421	30300.38
618.616	30544.09
618.811	29796.58
619.006	30259.42
619.201	29438.19
619.396	30083.3
619.591	29460.71
619.786	29604.07
619.981	29096.17
620.176	29675.75
620.371	29034.74
620.566	29331.69
620.761	29081.84
620.956	29229.29
621.151	28664.05
621.346	28889.33
621.541	28782.84
621.735	28801.27
621.93	28233.98
622.125	28430.58
622.32	27871.49
622.515	28070.14
622.709	27453.7
622.904	27928.83
623.099	27519.24
623.294	27511.05
623.488	27386.12
623.683	27283.72
623.878	27091.21
624.072	26876.18
624.267	26851.6
624.462	26812.69
624.656	26394.9
624.851	26482.97
625.046	26050.85
625.24	26276.12
625.435	25989.41
625.629	25581.86
625.824	25583.91
626.018	25887.01
626.213	25071.92
626.407	25401.64
626.602	25137.45
626.796	25463.08
626.991	25184.55
627.185	25020.72
627.38	24740.15
627.574	24521.01
627.768	24353.08
627.963	24168.76
628.157	24097.08
628.352	24162.62
628.546	23867.71
628.74	23980.35
628.935	23607.62
629.129	23572.8
629.323	22925.64
629.517	23335.24
629.712	23183.69
629.906	22798.67
630.1	22952.27
630.294	22741.33
630.489	22473.04
630.683	22894.93
630.877	22401.36
631.071	22419.8
631.265	22397.27
631.459	22278.49
631.653	22030.68
631.848	22020.44
632.042	22018.39
632.236	21793.12
632.43	21461.35
632.624	21432.68
632.818	21412.2
633.012	21133.67
633.206	20881.77
633.4	21145.96
633.594	20846.96
633.788	21092.71
633.982	20568.43
634.176	20941.16
634.369	20402.55
634.563	20445.55
634.757	20248.95
634.951	20658.54
635.145	20279.67
635.339	20244.85
635.533	19861.88
635.726	19874.17
635.92	19710.33
636.114	19759.49
636.308	19741.05
636.501	19536.26
636.695	19609.98
636.889	19153.29
637.083	19159.43
637.276	18919.82
637.47	19329.41
637.664	19171.72
637.857	19204.49
638.051	18817.42
638.244	18549.14
638.438	18553.23
638.632	18475.41
638.825	18307.48
639.019	18219.41
639.212	18307.48
639.406	18233.75
639.599	17899.93
639.793	17994.14
639.986	17881.5
640.18	17750.43
640.373	17799.58
640.567	17605.02
640.76	17320.35
640.954	17471.9
641.147	17301.92
641.34	17088.93
641.534	17291.68
641.727	17035.69
641.92	16714.16
642.114	16818.6
642.307	16644.52
642.5	16611.76
642.694	16773.55
642.887	16513.45
643.08	16648.62
643.273	16529.84
643.467	16595.37
643.66	16284.08
643.853	16337.33
644.046	15874.49
644.239	16136.63
644.432	15847.86
644.626	15679.93
644.819	15677.88
645.012	15737.27
645.205	15641.02
645.398	15663.55
645.591	15360.45
645.784	15432.13
645.977	15327.68
646.17	15147.46
646.363	15200.71
646.556	14997.96
646.749	14774.73
646.942	15053.25
647.135	14762.44
647.328	14789.06
647.521	14625.23
647.714	14522.83
647.907	14385.62
648.099	14324.18
648.292	14424.53
648.485	14281.17
648.678	14258.64
648.871	14178.77
649.064	14107.09
649.256	14234.07
649.449	13650.39
649.642	13840.86
649.835	13810.14
650.027	13836.76
650.22	13623.77
650.413	13924.82
650.605	13486.56
650.798	13504.99
650.991	13310.43
651.183	13339.1
651.376	13345.25
651.568	13216.22
651.761	13122.02
651.954	12757.48
652.146	13001.19
652.339	12759.53
652.531	12949.99
652.724	12773.86
652.916	12634.6
653.109	12591.59
653.301	12524.01
653.494	12685.8
653.686	12325.36
653.879	12552.68
654.071	12438
654.263	12255.73
654.456	12212.72
654.648	12468.72
654.84	12132.85
655.033	11737.59
655.225	11790.84
655.417	11563.51
655.61	12005.88
655.802	11823.61
655.994	11704.82
656.186	11786.74
656.379	11641.34
656.571	11522.55
656.763	11622.91
656.955	11237.89
657.148	11442.68
657.34	11430.4
657.532	11246.08
657.724	11153.92
657.916	11067.91
658.108	11104.77
658.3	10965.51
658.492	11133.44
658.684	11078.15
658.876	10828.29
659.068	10914.31
659.26	10750.47
659.452	10775.05
659.644	10783.24
659.836	10488.33
660.028	10670.6
660.22	10449.42
660.412	10441.23
660.604	10326.54
660.796	10566.15
660.988	10326.54
661.18	10361.36
661.372	10179.09
661.563	10209.81
661.755	9845.27
661.947	10109.46
662.139	10125.84
662.331	9972.24
662.522	9837.08
662.714	9984.53
662.906	9671.19
663.097	9738.77
663.289	9810.45
663.481	9597.46
663.673	9726.49
663.864	9654.81
664.056	9458.2
664.247	9589.27
664.439	9312.8
664.631	9349.66
664.822	9390.62
665.014	9452.06
665.205	9343.52
665.397	9204.25
665.588	9097.76
665.78	9095.71
665.971	9034.27
666.163	9085.47
666.354	9114.14
666.546	8958.5
666.737	8925.73
666.929	8811.04
667.12	8811.04
667.311	8753.7
667.503	8587.82
667.694	8571.43
667.885	8677.93
668.077	8520.23
668.268	8557.1
668.459	8509.99
668.651	8399.4
668.842	8423.98
669.033	8264.24
669.224	8208.94
669.416	8305.2
669.607	8260.14
669.798	8313.39
669.989	8188.46
670.18	8266.28
670.371	8301.1
670.563	7985.71
670.754	8116.78
670.945	8057.39
671.136	7987.76
671.327	8049.2
671.518	7938.61
671.709	7735.86
671.9	7834.16
672.091	7727.67
672.282	7703.09
672.473	7586.36
672.664	7862.83
672.855	7696.95
673.046	7508.54
673.237	7645.75
673.428	7600.69
673.619	7612.98
673.809	7463.48
674	7488.06
674.191	7428.67
674.382	7434.81
674.573	7418.43
674.764	7340.6
674.954	7416.38
675.145	7068.22
675.336	7219.77
675.527	7320.12
675.717	7320.12
675.908	7057.98
676.099	7252.54
676.289	7144
676.48	6980.16
676.671	6910.53
676.861	7027.26
677.052	6863.43
677.243	6955.58
677.433	7006.78
677.624	6832.71
677.814	6967.87
678.005	6949.44
678.195	6812.23
678.386	6881.86
678.576	6873.67
678.767	6668.87
678.957	6705.73
679.148	6687.3
679.338	6799.94
679.529	6625.86
679.719	6728.26
679.909	6660.68
680.1	6670.92
680.29	6597.19
680.481	6521.42
680.671	6466.12
680.861	6595.14
681.052	6455.88
681.242	6380.11
681.432	6453.83
681.622	6476.36
681.813	6320.71
682.003	6396.49
682.193	6183.5
682.383	6206.03
682.573	6226.51
682.764	6271.56
682.954	6167.12
683.144	6257.23
683.334	6113.87
683.524	6060.62
683.714	6261.32
683.904	6091.34
684.094	6230.6
684.284	6074.96
684.474	6130.25
684.664	6107.73
684.854	6058.57
685.044	6031.95
685.234	5919.31
685.424	6064.72
685.614	6068.81
685.804	5855.83
685.994	5941.84
686.184	5849.68
686.374	5878.35
686.564	5806.67
686.753	5874.26
686.943	5769.81
687.133	5866.07
687.323	5911.12
687.513	5646.93
687.702	5904.98
687.892	5614.16
688.082	5704.28
688.272	5597.78
688.461	5726.8
688.651	5614.16
688.841	5397.08
689.03	5530.2
689.22	5470.81
689.41	5343.83
689.599	5347.93
689.789	5374.55
689.979	5522.01
690.168	5427.8
690.358	5282.39
690.547	5325.4
690.737	5306.97
690.926	5440.09
691.116	5198.43
691.305	5249.63
691.495	5257.82
691.684	5108.32
691.874	5177.95
692.063	5034.59
692.252	5061.21
692.442	5147.23
692.631	5120.6
692.82	5040.73
693.01	4958.81
693.199	5098.08
693.388	4950.62
693.578	5089.88
693.767	4739.68
693.956	4897.38
694.146	4852.32
694.335	4983.39
694.524	4924
694.713	4715.11
694.902	4946.53
695.092	4876.9
695.281	4809.31
695.47	4831.84
695.659	4821.6
695.848	4827.74
696.037	4815.46
696.226	4799.07
696.415	4684.39
696.604	4696.68
696.793	4612.71
696.982	4661.86
697.171	4655.72
697.36	4643.43
697.549	4502.12
697.738	4528.74
697.927	4534.89
698.116	4620.9
698.305	4600.42
698.494	4551.27
698.683	4631.14
698.872	4598.37
699.061	4575.84
699.25	4579.94
699.438	4475.49
699.627	4545.13
699.816	4670.05
700.005	4469.35
700.193	4491.88
700.382	4469.35
700.571	4457.06
700.76	4428.39
700.948	4428.39
701.137	4373.1
701.326	4397.67
701.514	4373.1
701.703	4373.1
701.892	4350.57
702.08	4463.21
702.269	4301.42
702.457	4426.34
702.646	4201.07
702.834	4274.79
703.023	4260.46
703.212	4276.84
703.4	4328.04
703.589	4231.79
703.777	4323.94
703.965	4401.77
704.154	4160.11
704.342	4278.89
704.531	4311.66
704.719	4276.84
704.907	4186.73
705.096	4219.5
705.284	4186.73
705.472	4076.14
705.661	4180.59
705.849	4227.69
706.037	4141.68
706.226	4268.65
706.414	4160.11
706.602	4131.44
706.79	4131.44
706.979	4164.2
707.167	4176.49
707.355	4137.58
707.543	4082.28
707.731	4213.35
707.919	3967.6
708.107	4022.89
708.296	4065.9
708.484	4035.18
708.672	4065.9
708.86	3877.49
709.048	4115.05
709.236	4031.09
709.424	3877.49
709.612	4031.09
709.8	3986.03
709.988	3914.35
710.176	4031.09
710.364	4020.85
710.551	3992.17
710.739	3934.83
710.927	3947.12
711.115	3889.78
711.303	4010.61
711.491	3951.21
711.679	3973.74
711.866	3936.88
712.054	3865.2
712.242	3873.39
712.43	3902.06
712.617	3965.55
712.805	3947.12
712.993	3879.54
713.181	3795.57
713.368	3768.95
713.556	3869.3
713.744	3791.47
713.931	3750.51
714.119	3736.18
714.306	3680.88
714.494	3709.55
714.682	3783.28
714.869	3648.11
715.057	3713.65
715.244	3701.36
715.432	3820.14
715.619	3682.93
715.807	3752.56
715.994	3703.41
716.182	3682.93
716.369	3820.14
716.556	3717.75
716.744	3648.11
716.931	3615.35
717.119	3703.41
717.306	3588.72
717.493	3648.11
717.681	3650.16
717.868	3631.73
718.055	3670.64
718.242	3625.59
718.43	3603.06
718.617	3504.76
718.804	3666.55
718.991	3586.68
719.179	3633.78
719.366	3551.86
719.553	3504.76
719.74	3510.9
719.927	3654.26
720.114	3549.81
720.301	3607.16
720.488	3517.05
720.676	3535.48
720.863	3592.82
721.05	3672.69
721.237	3490.42
721.424	3484.28
721.611	3680.88
721.798	3502.71
721.985	3441.27
722.172	3398.26
722.358	3521.14
722.545	3586.68
722.732	3406.45
722.919	3572.34
723.106	3517.05
723.293	3414.65
723.48	3367.54
723.667	3383.93
723.853	3488.37
724.04	3420.79
724.227	3312.25
724.414	3400.31
724.6	3310.2
724.787	3338.87
724.974	3435.13
725.161	3338.87
725.347	3324.54
725.534	3394.17
725.72	3471.99
725.907	3375.74
726.094	3345.02
726.28	3420.79
726.467	3246.71
726.653	3377.78
726.84	3326.58
727.027	3506.81
727.213	3265.14
727.4	3304.06
727.586	3379.83
727.773	3353.21
727.959	3400.31
728.145	3265.14
728.332	3238.52
728.518	3287.67
728.705	3291.77
728.891	3222.14
729.077	3306.1
729.264	3164.79
729.45	3256.95
729.636	3267.19
729.823	3269.24
730.009	3273.34
730.195	3269.24
730.382	3228.28
730.568	3252.86
730.754	3201.66
730.94	3170.94
731.126	3302.01
731.313	3228.28
731.499	3259
731.685	3197.56
731.871	3099.26
732.057	3197.56
732.243	3109.5
732.429	3144.31
732.615	3277.43
732.801	3185.27
732.987	3101.31
733.173	3254.9
733.359	3250.81
733.545	3132.03
733.731	3166.84
733.917	3203.71
734.103	3207.8
734.289	3177.08
734.475	3082.88
734.661	3209.85
734.847	2966.14
735.033	3082.88
735.219	3168.89
735.404	3005.05
735.59	2951.81
735.776	2996.86
735.962	3035.77
736.148	3066.49
736.333	3111.55
736.519	2929.28
736.705	3037.82
736.89	3117.69
737.076	3009.15
737.262	3007.1
737.447	3115.64
737.633	3091.07
737.819	2896.51
738.004	2955.9
738.19	3076.73
738.375	3033.72
738.561	3013.24
738.747	3033.72
738.932	2896.51
739.118	2865.79
739.303	2882.17
739.489	2955.9
739.674	2933.37
739.859	3000.96
740.045	2820.74
740.23	2847.36
740.416	2886.27
740.601	2982.53
740.786	2980.48
740.972	2890.37
741.157	2849.41
741.342	2828.93
741.528	2843.26
741.713	2833.02
741.898	2878.08
742.084	2855.55
742.269	2828.93
742.454	2775.68
742.639	2728.58
742.824	2755.2
743.01	2792.06
743.195	2812.54
743.38	2722.43
743.565	2738.82
743.75	2671.23
743.935	2642.56
744.12	2757.25
744.305	2669.19
744.49	2638.47
744.675	2562.69
744.86	2572.93
745.045	2765.44
745.23	2570.88
745.415	2697.86
745.6	2562.69
745.785	2589.32
745.97	2562.69
746.155	2556.55
746.34	2382.47
746.525	2486.92
746.71	2501.25
746.895	2482.82
747.079	2495.11
747.264	2372.23
747.449	2433.67
747.634	2452.1
747.819	2384.52
748.003	2427.53
748.188	2382.47
748.373	2288.26
748.557	2357.89
748.742	2431.62
748.927	2337.41
749.111	2269.83
749.296	2263.69
749.481	2271.88
749.665	2294.41
749.85	2149
750.034	2253.45
750.219	2237.06
750.404	2235.02
750.588	2232.97
750.773	2122.38
750.957	2151.05
751.141	2126.47
751.326	2060.94
751.51	2224.78
751.695	2144.91
751.879	2032.27
752.064	2179.72
752.248	2112.14
752.432	2067.08
752.617	2005.64
752.801	2089.61
752.985	2046.6
753.17	2019.98
753.354	1976.97
753.538	2058.89
753.722	1874.57
753.907	1915.53
754.091	1929.87
754.275	1997.45
754.459	1911.44
754.643	1761.94
754.828	1968.78
755.012	1843.85
755.196	1813.13
755.38	1727.12
755.564	1890.96
755.748	1833.61
755.932	1813.13
756.116	1800.85
756.3	1794.7
756.484	1725.07
756.668	1770.13
756.852	1723.02
757.036	1671.83
757.22	1680.02
757.404	1651.35
757.588	1669.78
757.772	1731.22
757.956	1643.15
758.14	1702.54
758.323	1739.41
758.507	1663.63
758.691	1612.43
758.875	1624.72
759.059	1532.56
759.242	1600.15
759.426	1649.3
759.61	1573.52
759.794	1665.68
759.977	1618.58
760.161	1542.8
760.345	1565.33
760.528	1520.28
760.712	1534.61
760.895	1501.84
761.079	1505.94
761.263	1464.98
761.446	1460.88
761.63	1548.95
761.813	1559.19
761.997	1473.17
762.18	1473.17
762.364	1514.13
762.547	1403.54
762.731	1450.64
762.914	1338.01
763.098	1456.79
763.281	1358.49
763.464	1370.77
763.648	1387.16
763.831	1317.53
764.015	1338.01
764.198	1378.97
764.381	1348.25
764.564	1417.88
764.748	1249.94
764.931	1356.44
765.114	1348.25
765.297	1290.9
765.481	1344.15
765.664	1335.96
765.847	1317.53
766.03	1338.01
766.213	1256.09
766.397	1258.14
766.58	1278.62
766.763	1331.86
766.946	1327.77
767.129	1260.18
767.312	1200.79
767.495	1204.89
767.678	1366.68
767.861	1264.28
768.044	1362.58
768.227	1196.7
768.41	1229.46
768.593	1258.14
768.776	1278.62
768.959	1227.42
769.142	1198.74
769.324	1231.51
769.507	1229.46
769.69	1217.18
769.873	1219.22
770.056	1340.05
770.239	1170.07
770.421	1178.26
770.604	1188.5
770.787	1149.59
770.97	1194.65
771.152	1071.77
771.335	1116.83
771.518	1241.75
771.7	1186.46
771.883	1143.45
772.066	1165.98
772.248	1118.87
772.431	1145.5
772.613	1104.54
772.796	1073.82
772.978	1096.35
773.161	1049.24
773.343	1202.84
773.526	1143.45
773.708	1051.29
773.891	1075.87
774.073	1104.54
774.256	1057.43
774.438	983.71
774.621	918.17
774.803	989.85
774.985	1077.91
775.168	1016.48
775.35	979.61
775.532	983.71
775.715	942.75
775.897	1004.19
776.079	930.46
776.261	1008.28
776.444	948.89
776.626	983.71
776.808	938.65
776.99	895.64
777.173	957.08
777.355	961.18
777.537	985.76
777.719	977.56
777.901	948.89
778.083	963.23
778.265	899.74
778.447	903.84
778.629	901.79
778.811	885.41
778.993	846.49
779.175	942.75
779.357	819.87
779.539	852.64
779.721	862.88
779.903	819.87
780.085	764.57
780.267	836.25
780.449	819.87
780.631	744.1
780.812	848.54
780.994	852.64
781.176	787.1
781.358	787.1
781.54	731.81
781.721	696.99
781.903	873.12
782.085	649.89
782.267	803.49
782.448	699.04
782.63	760.48
782.812	707.23
782.993	656.03
783.175	731.81
783.357	754.34
783.538	688.8
783.72	692.9
783.901	619.17
784.083	608.93
784.264	701.09
784.446	672.42
784.627	643.74
784.809	635.55
784.99	629.41
785.172	563.87
785.353	686.75
785.535	610.98
785.716	662.18
785.897	617.12
786.079	576.16
786.26	625.31
786.441	580.26
786.623	649.89
786.804	588.45
786.985	514.72
787.167	596.64
787.348	580.26
787.529	570.02
787.71	637.6
787.891	625.31
788.073	567.97
788.254	598.69
788.435	625.31
788.616	574.11
788.797	553.63
788.978	545.44
789.159	543.39
789.34	551.59
789.522	488.1
789.703	551.59
789.884	541.35
790.065	578.21
790.246	557.73
790.427	522.91
790.607	641.7
790.788	516.77
790.969	420.52
791.15	467.62
791.331	486.05
791.512	518.82
791.693	504.48
791.874	453.28
792.054	527.01
792.235	498.34
792.416	496.29
792.597	445.09
792.778	408.23
792.958	424.61
793.139	416.42
793.32	400.04
793.5	465.57
793.681	443.04
793.862	385.7
794.042	453.28
794.223	434.85
794.404	369.32
794.584	365.22
794.765	486.05
794.945	397.99
795.126	459.43
795.306	383.65
795.487	418.47
795.667	391.84
795.848	404.13
796.028	361.13
796.209	414.37
796.389	357.03
796.57	484
796.75	402.08
796.93	416.42
797.111	387.75
797.291	418.47
797.471	357.03
797.652	357.03
797.832	334.5
798.012	412.32
798.192	408.23
798.373	297.64
798.553	395.94
798.733	373.41
798.913	268.97
799.093	397.99
799.274	354.98
799.454	307.88
799.634	391.84
799.814	391.84
799.994	338.6
800.174	363.17
800.354	363.17
800.534	344.74
800.714	387.75
800.894	279.21
801.074	307.88
801.254	338.6
801.434	406.18
801.614	240.3
801.794	246.44
801.974	664.22
802.154	252.58
802.334	289.45
802.514	316.07
802.693	256.68
802.873	326.31
803.053	268.97
803.233	318.12
803.413	346.79
803.592	219.82
803.772	256.68
803.952	262.82
804.131	305.83
804.311	359.08
804.491	248.49
804.67	293.54
804.85	348.84
805.03	301.73
805.209	279.21
805.389	305.83
805.568	283.3
805.748	232.1
805.928	328.36
806.107	240.3
806.287	281.25
806.466	289.45
806.646	297.64
806.825	254.63
807.004	258.73
807.184	275.11
807.363	285.35
807.543	256.68
807.722	246.44
807.901	273.06
808.081	248.49
808.26	264.87
808.439	285.35
808.619	234.15
808.798	260.77
808.977	309.93
809.156	232.1
809.336	254.63
809.515	287.4
809.694	232.1
809.873	246.44
810.052	221.86
810.231	287.4
810.411	305.83
810.59	264.87
810.769	246.44
810.948	281.25
811.127	281.25
811.306	238.25
811.485	221.86
811.664	127.66
811.843	187.05
812.022	264.87
812.201	314.02
812.38	262.82
812.559	211.62
812.737	182.95
812.916	213.67
813.095	195.24
813.274	215.72
813.453	119.46
813.632	182.95
813.811	197.29
813.989	213.67
814.168	178.86
814.347	178.86
814.526	244.39
814.704	228.01
814.883	232.1
815.062	152.23
815.24	215.72
815.419	234.15
815.598	197.29
815.776	191.14
815.955	158.38
816.133	162.47
816.312	248.49
816.49	162.47
816.669	187.05
816.847	195.24
817.026	199.34
817.204	170.66
817.383	137.9
817.561	121.51
817.74	92.84
817.918	172.71
818.097	203.43
818.275	197.29
818.453	240.3
818.632	154.28
818.81	162.47
818.988	123.56
819.167	133.8
819.345	178.86
819.523	131.75
819.701	127.66
819.879	174.76
820.058	166.57
820.236	168.62
820.414	164.52
820.592	156.33
820.77	162.47
820.948	176.81
821.127	123.56
821.305	111.27
821.483	164.52
821.661	164.52
821.839	217.77
822.017	137.9
822.195	94.89
822.373	180.9
822.551	121.51
822.729	228.01
822.907	137.9
823.085	154.28
823.262	176.81
823.44	156.33
823.618	178.86
823.796	117.42
823.974	139.94
824.152	137.9
824.329	154.28
824.507	78.51
824.685	127.66
824.863	137.9
825.04	141.99
825.218	111.27
825.396	156.33
825.574	242.34
825.751	148.14
825.929	180.9
826.107	119.46
826.284	121.51
826.462	166.57
826.639	127.66
826.817	105.13
826.994	96.94
827.172	55.98
827.349	172.71
827.527	115.37
827.704	86.7
827.882	107.18
828.059	166.57
828.237	121.51
828.414	148.14
828.591	176.81
828.769	105.13
828.946	123.56
829.124	195.24
829.301	191.14
829.478	74.41
829.655	144.04
829.833	70.31
830.01	123.56
830.187	180.9
830.364	207.53
830.542	182.95
830.719	141.99
830.896	158.38
831.073	76.46
831.25	158.38
831.427	51.88
831.604	150.18
831.782	76.46
831.959	115.37
832.136	105.13
832.313	84.65
832.49	82.6
832.667	148.14
832.844	88.75
833.021	113.32
833.198	88.75
833.374	80.55
833.551	62.12
833.728	96.94
833.905	96.94
834.082	72.36
834.259	68.27
834.436	189.1
834.612	35.5
834.789	98.99
834.966	101.03
835.143	105.13
835.319	64.17
835.496	90.79
835.673	111.27
835.85	43.69
836.026	72.36
836.203	125.61
836.38	101.03
836.556	113.32
836.733	127.66
836.909	111.27
837.086	105.13
837.262	8.87
837.439	96.94
837.616	96.94
837.792	148.14
837.968	72.36
838.145	139.94
838.321	156.33
838.498	76.46
838.674	55.98
838.851	123.56
839.027	64.17
839.203	98.99
839.38	191.14
839.556	78.51
839.732	70.31
839.909	101.03
840.085	88.75
840.261	6.83
840.437	60.07
840.614	60.07
840.79	139.94
840.966	107.18
841.142	31.4
841.318	94.89
841.494	135.85
841.671	58.03
841.847	78.51
842.023	115.37
842.199	37.55
842.375	107.18
842.551	47.79
842.727	90.79
842.903	107.18
843.079	86.7
843.255	49.83
843.431	55.98
843.607	31.4
843.783	-5.46
843.959	60.07
844.134	117.42
844.31	33.45
844.486	74.41
844.662	55.98
844.838	74.41
845.013	72.36
845.189	23.21
845.365	35.5
845.541	103.08
845.716	35.5
845.892	53.93
846.068	139.94
846.244	64.17
846.419	109.22
846.595	47.79
846.77	78.51
846.946	15.02
847.122	84.65
847.297	55.98
847.473	174.76
847.648	31.4
847.824	76.46
847.999	33.45
848.175	96.94
848.35	15.02
848.526	58.03
848.701	43.69
848.876	43.69
849.052	70.31
849.227	15.02
849.403	-13.65
849.578	-30.04
849.753	92.84
849.929	70.31
850.104	-9.56
850.279	12.97
850.454	62.12
850.63	68.27
850.805	90.79
850.98	107.18
851.155	88.75
851.33	33.45
851.505	19.11
851.681	64.17
851.856	8.87
852.031	60.07
852.206	35.5
852.381	10.92
852.556	19.11
852.731	53.93
852.906	88.75
853.081	29.35
853.256	98.99
853.431	27.31
853.606	35.5
853.781	-3.41
853.956	43.69
854.131	98.99
854.305	-11.61
854.48	10.92
854.655	107.18
854.83	-13.65
855.005	35.5
855.18	39.59
855.354	70.31
855.529	45.74
855.704	-1.37
855.879	68.27
856.053	8.87
856.228	4.78
856.403	2.73
856.577	68.27
856.752	8.87
856.926	76.46
857.101	43.69
857.276	27.31
857.45	96.94
857.625	107.18
857.799	51.88
857.974	35.5
858.148	12.97
858.323	72.36
858.497	23.21
858.672	31.4
858.846	74.41
859.02	29.35
859.195	43.69
859.369	64.17
859.543	55.98
859.718	2.73
859.892	17.07
860.066	47.79
860.241	55.98
860.415	-1.37
860.589	70.31
860.763	35.5
860.938	15.02
861.112	37.55
861.286	25.26
861.46	58.03
861.634	27.31
861.808	0.68
861.982	49.83
862.157	4.78
862.331	-7.51
862.505	4.78
862.679	-79.19
862.853	10.92
863.027	-21.85
863.201	113.32
863.375	25.26
863.549	10.92
863.722	-36.18
863.896	137.9
864.07	64.17
864.244	19.11
864.418	62.12
864.592	33.45
864.766	-21.85
864.939	6.83
865.113	-5.46
865.287	47.79
865.461	35.5
865.634	29.35
865.808	41.64
865.982	43.69
866.156	51.88
866.329	68.27
866.503	90.79
866.676	58.03
866.85	27.31
867.024	53.93
867.197	39.59
867.371	82.6
867.544	-1.37
867.718	-38.23
867.891	6.83
868.065	19.11
868.238	-11.61
868.412	58.03
868.585	12.97
868.759	-40.28
868.932	17.07
869.105	2.73
869.279	-21.85
869.452	2.73
869.625	23.21
869.799	-13.65
869.972	-3.41
870.145	-13.65
870.319	-40.28
870.492	-5.46
870.665	-5.46
870.838	23.21
871.011	-7.51
871.185	72.36
871.358	17.07
871.531	43.69
871.704	0.68
871.877	-13.65
872.05	103.08
872.223	-5.46
872.396	-21.85
872.569	4.78
872.742	10.92
872.915	64.17
873.088	74.41
873.261	-9.56
873.434	-23.89
873.607	-21.85
873.78	51.88
873.953	0.68
874.126	60.07
874.299	2.73
874.471	2.73
874.644	19.11
874.817	70.31
874.99	101.03
875.163	-23.89
875.335	58.03
875.508	-79.19
875.681	-27.99
875.853	19.11
876.026	51.88
876.199	33.45
876.371	64.17
876.544	-5.46
876.717	39.59
876.889	-3.41
877.062	-5.46
877.234	-7.51
877.407	55.98
877.579	21.16
877.752	92.84
877.924	-48.47
878.097	-13.65
878.269	-19.8
878.442	8.87
878.614	37.55
878.786	-13.65
878.959	23.21
879.131	62.12
879.303	74.41
879.476	29.35
879.648	-40.28
879.82	39.59
879.993	-34.13
880.165	10.92
880.337	0.68
880.509	41.64
880.681	51.88
880.854	39.59
881.026	10.92
881.198	-3.41
881.37	55.98
881.542	29.35
881.714	-30.04
881.886	64.17
882.058	-21.85
882.23	39.59
882.402	27.31
882.574	4.78
882.746	-71
882.918	80.55
883.09	-40.28
883.262	72.36
883.434	86.7
883.606	-81.24
883.778	21.16
883.95	-5.46
884.122	12.97
884.293	-27.99
884.465	62.12
884.637	-30.04
884.809	-9.56
884.98	2.73
885.152	-27.99
885.324	15.02
885.496	-52.56
885.667	23.21
885.839	-5.46
886.011	47.79
886.182	-5.46
886.354	2.73
886.525	-19.8
886.697	-13.65
886.869	-38.23
887.04	-3.41
887.212	25.26
887.383	-23.89
887.555	-54.61
887.726	15.02
887.897	0.68
888.069	-48.47
888.24	-27.99
888.412	62.12
888.583	84.65
888.754	2.73
888.926	21.16
889.097	33.45
889.268	-95.57
889.44	39.59
889.611	6.83
889.782	-36.18
889.953	-30.04
890.125	-5.46
890.296	33.45
890.467	-83.28
890.638	10.92
890.809	25.26
890.98	-7.51
891.151	25.26
891.323	-21.85
891.494	-3.41
891.665	0.68
891.836	78.51
892.007	2.73
892.178	78.51
892.349	2.73
892.52	-77.14
892.691	-5.46
892.862	27.31
893.032	-36.18
893.203	2.73
893.374	53.93
893.545	-17.75
893.716	-34.13
893.887	2.73
894.057	-7.51
894.228	-64.85
894.399	39.59
894.57	72.36
894.74	-25.94
894.911	-5.46
895.082	15.02
895.253	-13.65
895.423	47.79
895.594	-9.56
895.764	-13.65
895.935	41.64
896.106	-13.65
896.276	0.68
896.447	-38.23
896.617	-1.37
896.788	-23.89
896.958	-5.46
897.129	25.26
897.299	37.55
897.47	58.03
897.64	-44.37
897.81	76.46
897.981	-13.65
898.151	27.31
898.322	35.5
898.492	6.83
898.662	-36.18
898.832	8.87
899.003	-34.13
899.173	51.88
899.343	4.78
899.513	33.45
