Data from USB4F104151__202__11-10-14-166.txt Node

Date: Wed Mar 12 11:10:14 EDT 2025
User: louis
Spectrometer: USB4F10415
Trigger mode: 4
Integration Time (sec): 2.000000E-2
Scans to average: 1
Electric dark correction enabled: true
Nonlinearity correction enabled: false
Boxcar width: 0
XAxis mode: Wavelengths
Number of Pixels in Spectrum: 3648
>>>>>Begin Spectral Data<<<<<
178.204	21.16
178.424	21.16
178.644	21.16
178.864	-81.24
179.084	-38.23
179.304	-3.41
179.524	-3.41
179.744	-3.41
179.964	19.11
180.184	62.12
180.404	12.97
180.624	25.26
180.844	-54.61
181.064	-1.37
181.283	2.73
181.503	-25.94
181.723	-30.04
181.943	-17.75
182.163	49.83
182.383	0.68
182.602	84.65
182.822	96.94
183.042	-11.61
183.262	35.5
183.482	-9.56
183.701	23.21
183.921	2.73
184.141	21.16
184.361	47.79
184.58	49.83
184.8	23.21
185.02	-21.85
185.239	45.74
185.459	-38.23
185.679	92.84
185.898	-42.32
186.118	6.83
186.338	-64.85
186.557	27.31
186.777	12.97
186.997	-36.18
187.216	39.59
187.436	96.94
187.655	103.08
187.875	37.55
188.095	29.35
188.314	55.98
188.534	70.31
188.753	37.55
188.973	17.07
189.192	92.84
189.412	86.7
189.631	72.36
189.851	49.83
190.07	70.31
190.29	-25.94
190.509	88.75
190.729	66.22
190.948	64.17
191.168	39.59
191.387	19.11
191.607	-30.04
191.826	74.41
192.045	19.11
192.265	92.84
192.484	55.98
192.704	64.17
192.923	2.73
193.142	86.7
193.362	29.35
193.581	96.94
193.8	49.83
194.02	88.75
194.239	-44.37
194.458	21.16
194.678	31.4
194.897	41.64
195.116	-7.51
195.335	58.03
195.555	17.07
195.774	21.16
195.993	15.02
196.212	10.92
196.432	-40.28
196.651	25.26
196.87	-40.28
197.089	162.47
197.308	64.17
197.528	58.03
197.747	25.26
197.966	29.35
198.185	29.35
198.404	15.02
198.623	84.65
198.842	-5.46
199.062	82.6
199.281	62.12
199.5	19.11
199.719	4.78
199.938	25.26
200.157	21.16
200.376	25.26
200.595	74.41
200.814	78.51
201.033	33.45
201.252	-27.99
201.471	58.03
201.69	74.41
201.909	41.64
202.128	43.69
202.347	37.55
202.566	41.64
202.785	45.74
203.004	17.07
203.223	35.5
203.442	-1.37
203.661	-5.46
203.879	33.45
204.098	70.31
204.317	-5.46
204.536	64.17
204.755	-9.56
204.974	170.66
205.193	8.87
205.411	70.31
205.63	19.11
205.849	-13.65
206.068	96.94
206.287	33.45
206.505	6.83
206.724	84.65
206.943	33.45
207.162	-23.89
207.381	119.46
207.599	51.88
207.818	109.22
208.037	-46.42
208.255	29.35
208.474	-17.75
208.693	31.4
208.911	37.55
209.13	0.68
209.349	41.64
209.567	23.21
209.786	29.35
210.005	58.03
210.223	15.02
210.442	-7.51
210.661	-34.13
210.879	-1.37
211.098	96.94
211.316	41.64
211.535	12.97
211.753	-56.66
211.972	17.07
212.191	-13.65
212.409	-3.41
212.628	55.98
212.846	-50.52
213.065	21.16
213.283	76.46
213.502	-23.89
213.72	0.68
213.938	-11.61
214.157	121.51
214.375	2.73
214.594	-50.52
214.812	68.27
215.031	105.13
215.249	-27.99
215.467	15.02
215.686	-3.41
215.904	129.7
216.122	4.78
216.341	76.46
216.559	78.51
216.778	31.4
216.996	47.79
217.214	6.83
217.432	-3.41
217.651	-42.32
217.869	25.26
218.087	74.41
218.306	21.16
218.524	12.97
218.742	37.55
218.96	64.17
219.179	55.98
219.397	0.68
219.615	35.5
219.833	12.97
220.051	60.07
220.27	23.21
220.488	-19.8
220.706	92.84
220.924	41.64
221.142	10.92
221.36	35.5
221.578	33.45
221.796	129.7
222.015	55.98
222.233	19.11
222.451	82.6
222.669	19.11
222.887	82.6
223.105	37.55
223.323	-30.04
223.541	33.45
223.759	29.35
223.977	31.4
224.195	41.64
224.413	-3.41
224.631	-1.37
224.849	51.88
225.067	78.51
225.285	-66.9
225.503	70.31
225.721	33.45
225.939	21.16
226.157	-42.32
226.375	119.46
226.592	23.21
226.81	31.4
227.028	78.51
227.246	35.5
227.464	-23.89
227.682	15.02
227.9	47.79
228.117	53.93
228.335	-19.8
228.553	-15.7
228.771	98.99
228.989	17.07
229.206	74.41
229.424	2.73
229.642	4.78
229.86	23.21
230.077	107.18
230.295	21.16
230.513	41.64
230.731	74.41
230.948	58.03
231.166	35.5
231.384	113.32
231.601	41.64
231.819	72.36
232.037	-44.37
232.254	60.07
232.472	-15.7
232.689	-5.46
232.907	45.74
233.125	74.41
233.342	21.16
233.56	41.64
233.777	21.16
233.995	74.41
234.213	-21.85
234.43	-40.28
234.648	-13.65
234.865	-19.8
235.083	27.31
235.3	70.31
235.518	96.94
235.735	72.36
235.953	49.83
236.17	66.22
236.388	74.41
236.605	-11.61
236.822	62.12
237.04	23.21
237.257	-21.85
237.475	25.26
237.692	2.73
237.909	39.59
238.127	115.37
238.344	64.17
238.562	53.93
238.779	-15.7
238.996	33.45
239.214	4.78
239.431	37.55
239.648	25.26
239.865	33.45
240.083	51.88
240.3	33.45
240.517	21.16
240.735	43.69
240.952	78.51
241.169	25.26
241.386	4.78
241.603	111.27
241.821	23.21
242.038	35.5
242.255	66.22
242.472	8.87
242.689	62.12
242.907	37.55
243.124	35.5
243.341	53.93
243.558	8.87
243.775	-1.37
243.992	29.35
244.209	90.79
244.426	105.13
244.643	55.98
244.86	66.22
245.078	33.45
245.295	49.83
245.512	80.55
245.729	-46.42
245.946	72.36
246.163	-7.51
246.38	-25.94
246.597	31.4
246.814	45.74
247.031	55.98
247.248	21.16
247.464	-5.46
247.681	-27.99
247.898	35.5
248.115	41.64
248.332	4.78
248.549	107.18
248.766	94.89
248.983	4.78
249.2	-21.85
249.417	119.46
249.633	72.36
249.85	17.07
250.067	127.66
250.284	21.16
250.501	-5.46
250.717	37.55
250.934	29.35
251.151	47.79
251.368	21.16
251.585	64.17
251.801	-1.37
252.018	64.17
252.235	109.22
252.451	-23.89
252.668	-7.51
252.885	47.79
253.102	60.07
253.318	68.27
253.535	35.5
253.752	25.26
253.968	31.4
254.185	76.46
254.401	-15.7
254.618	-1.37
254.835	35.5
255.051	64.17
255.268	-48.47
255.484	-17.75
255.701	27.31
255.917	78.51
256.134	35.5
256.351	10.92
256.567	-32.08
256.784	78.51
257	8.87
257.217	23.21
257.433	23.21
257.65	47.79
257.866	0.68
258.082	37.55
258.299	35.5
258.515	41.64
258.732	62.12
258.948	55.98
259.165	35.5
259.381	-32.08
259.597	58.03
259.814	29.35
260.03	-19.8
260.246	15.02
260.463	127.66
260.679	39.59
260.895	78.51
261.112	-11.61
261.328	62.12
261.544	-34.13
261.761	51.88
261.977	-42.32
262.193	58.03
262.409	33.45
262.626	80.55
262.842	27.31
263.058	17.07
263.274	121.51
263.49	17.07
263.707	82.6
263.923	33.45
264.139	-75.09
264.355	33.45
264.571	72.36
264.787	72.36
265.004	88.75
265.22	27.31
265.436	53.93
265.652	-5.46
265.868	60.07
266.084	33.45
266.3	2.73
266.516	6.83
266.732	60.07
266.948	23.21
267.164	39.59
267.38	49.83
267.596	45.74
267.812	90.79
268.028	72.36
268.244	23.21
268.46	96.94
268.676	43.69
268.892	27.31
269.108	8.87
269.324	2.73
269.54	-3.41
269.756	66.22
269.972	39.59
270.188	45.74
270.403	39.59
270.619	55.98
270.835	43.69
271.051	4.78
271.267	58.03
271.483	-68.95
271.698	27.31
271.914	-15.7
272.13	29.35
272.346	88.75
272.562	55.98
272.777	66.22
272.993	17.07
273.209	49.83
273.425	-11.61
273.64	-23.89
273.856	-17.75
274.072	78.51
274.287	10.92
274.503	15.02
274.719	27.31
274.934	33.45
275.15	45.74
275.366	-9.56
275.581	66.22
275.797	113.32
276.012	-15.7
276.228	45.74
276.444	-19.8
276.659	94.89
276.875	27.31
277.09	19.11
277.306	55.98
277.521	76.46
277.737	23.21
277.952	12.97
278.168	-23.89
278.383	66.22
278.599	-13.65
278.814	25.26
279.03	21.16
279.245	58.03
279.461	-7.51
279.676	53.93
279.892	-15.7
280.107	43.69
280.322	82.6
280.538	17.07
280.753	64.17
280.969	-15.7
281.184	53.93
281.399	141.99
281.615	0.68
281.83	94.89
282.045	51.88
282.26	-44.37
282.476	19.11
282.691	70.31
282.906	-3.41
283.122	49.83
283.337	105.13
283.552	82.6
283.767	10.92
283.983	21.16
284.198	-34.13
284.413	101.03
284.628	74.41
284.843	58.03
285.058	68.27
285.274	10.92
285.489	58.03
285.704	15.02
285.919	66.22
286.134	72.36
286.349	82.6
286.564	17.07
286.779	17.07
286.995	27.31
287.21	78.51
287.425	55.98
287.64	98.99
287.855	17.07
288.07	12.97
288.285	86.7
288.5	113.32
288.715	62.12
288.93	25.26
289.145	12.97
289.36	127.66
289.575	78.51
289.79	37.55
290.004	-23.89
290.219	19.11
290.434	-36.18
290.649	0.68
290.864	45.74
291.079	-34.13
291.294	74.41
291.509	70.31
291.724	60.07
291.938	21.16
292.153	41.64
292.368	29.35
292.583	31.4
292.798	66.22
293.012	92.84
293.227	78.51
293.442	88.75
293.657	82.6
293.871	-27.99
294.086	86.7
294.301	107.18
294.516	84.65
294.73	25.26
294.945	-3.41
295.16	31.4
295.374	-5.46
295.589	39.59
295.804	-32.08
296.018	41.64
296.233	72.36
296.447	66.22
296.662	25.26
296.877	23.21
297.091	15.02
297.306	31.4
297.52	-34.13
297.735	115.37
297.949	51.88
298.164	4.78
298.378	4.78
298.593	51.88
298.807	8.87
299.022	45.74
299.236	49.83
299.451	58.03
299.665	72.36
299.88	10.92
300.094	17.07
300.309	64.17
300.523	82.6
300.737	98.99
300.952	-34.13
301.166	49.83
301.381	23.21
301.595	47.79
301.809	21.16
302.024	12.97
302.238	-21.85
302.452	49.83
302.667	66.22
302.881	74.41
303.095	31.4
303.309	70.31
303.524	37.55
303.738	-9.56
303.952	27.31
304.166	43.69
304.381	-17.75
304.595	17.07
304.809	-11.61
305.023	25.26
305.237	58.03
305.452	8.87
305.666	58.03
305.88	66.22
306.094	45.74
306.308	-73.04
306.522	82.6
306.736	41.64
306.95	88.75
307.164	70.31
307.379	37.55
307.593	41.64
307.807	25.26
308.021	68.27
308.235	-3.41
308.449	33.45
308.663	47.79
308.877	90.79
309.091	37.55
309.305	82.6
309.519	105.13
309.733	60.07
309.947	-50.52
310.161	101.03
310.374	27.31
310.588	49.83
310.802	41.64
311.016	-9.56
311.23	74.41
311.444	41.64
311.658	-50.52
311.872	78.51
312.085	-1.37
312.299	25.26
312.513	51.88
312.727	10.92
312.941	58.03
313.154	8.87
313.368	113.32
313.582	96.94
313.796	49.83
314.009	31.4
314.223	92.84
314.437	47.79
314.651	21.16
314.864	-3.41
315.078	105.13
315.292	25.26
315.505	17.07
315.719	137.9
315.933	43.69
316.146	70.31
316.36	53.93
316.573	80.55
316.787	111.27
317.001	53.93
317.214	2.73
317.428	51.88
317.641	47.79
317.855	-3.41
318.068	29.35
318.282	4.78
318.495	33.45
318.709	96.94
318.922	62.12
319.136	58.03
319.349	37.55
319.563	29.35
319.776	4.78
319.99	72.36
320.203	66.22
320.417	88.75
320.63	55.98
320.843	68.27
321.057	68.27
321.27	17.07
321.483	47.79
321.697	107.18
321.91	-30.04
322.124	37.55
322.337	-7.51
322.55	41.64
322.763	33.45
322.977	21.16
323.19	15.02
323.403	39.59
323.617	78.51
323.83	-15.7
324.043	31.4
324.256	29.35
324.469	0.68
324.683	90.79
324.896	68.27
325.109	49.83
325.322	-13.65
325.535	66.22
325.748	33.45
325.962	43.69
326.175	74.41
326.388	80.55
326.601	23.21
326.814	58.03
327.027	51.88
327.24	53.93
327.453	15.02
327.666	74.41
327.879	62.12
328.092	90.79
328.305	51.88
328.518	8.87
328.731	62.12
328.944	43.69
329.157	74.41
329.37	66.22
329.583	123.56
329.796	70.31
330.009	25.26
330.222	98.99
330.435	84.65
330.648	37.55
330.861	-11.61
331.073	53.93
331.286	43.69
331.499	17.07
331.712	29.35
331.925	19.11
332.138	45.74
332.35	-11.61
332.563	84.65
332.776	148.14
332.989	6.83
333.202	39.59
333.414	72.36
333.627	-13.65
333.84	35.5
334.053	55.98
334.265	35.5
334.478	31.4
334.691	74.41
334.903	76.46
335.116	15.02
335.329	35.5
335.541	43.69
335.754	2.73
335.966	58.03
336.179	125.61
336.392	47.79
336.604	66.22
336.817	25.26
337.029	86.7
337.242	62.12
337.454	6.83
337.667	45.74
337.88	88.75
338.092	-21.85
338.305	72.36
338.517	60.07
338.729	70.31
338.942	55.98
339.154	17.07
339.367	19.11
339.579	55.98
339.792	23.21
340.004	92.84
340.217	51.88
340.429	66.22
340.641	23.21
340.854	12.97
341.066	-46.42
341.278	27.31
341.491	12.97
341.703	78.51
341.915	-7.51
342.128	29.35
342.34	86.7
342.552	23.21
342.764	6.83
342.977	111.27
343.189	31.4
343.401	-17.75
343.613	-17.75
343.826	53.93
344.038	-7.51
344.25	47.79
344.462	58.03
344.674	64.17
344.886	25.26
345.099	76.46
345.311	55.98
345.523	49.83
345.735	19.11
345.947	37.55
346.159	33.45
346.371	15.02
346.583	82.6
346.795	25.26
347.007	103.08
347.219	29.35
347.431	17.07
347.643	53.93
347.855	33.45
348.067	62.12
348.279	66.22
348.491	162.47
348.703	66.22
348.915	15.02
349.127	37.55
349.339	4.78
349.551	27.31
349.763	45.74
349.975	53.93
350.187	35.5
350.399	78.51
350.61	25.26
350.822	37.55
351.034	19.11
351.246	37.55
351.458	55.98
351.669	-11.61
351.881	74.41
352.093	10.92
352.305	41.64
352.517	39.59
352.728	98.99
352.94	98.99
353.152	58.03
353.363	53.93
353.575	43.69
353.787	86.7
353.999	21.16
354.21	53.93
354.422	64.17
354.633	82.6
354.845	6.83
355.057	2.73
355.268	66.22
355.48	80.55
355.692	-13.65
355.903	76.46
356.115	-23.89
356.326	43.69
356.538	72.36
356.749	-3.41
356.961	123.56
357.172	0.68
357.384	55.98
357.595	21.16
357.807	64.17
358.018	4.78
358.23	72.36
358.441	109.22
358.653	53.93
358.864	23.21
359.075	-17.75
359.287	105.13
359.498	45.74
359.709	84.65
359.921	107.18
360.132	133.8
360.344	6.83
360.555	31.4
360.766	127.66
360.977	21.16
361.189	94.89
361.4	-9.56
361.611	43.69
361.823	78.51
362.034	84.65
362.245	51.88
362.456	141.99
362.667	-11.61
362.879	66.22
363.09	2.73
363.301	53.93
363.512	113.32
363.723	2.73
363.935	58.03
364.146	123.56
364.357	19.11
364.568	96.94
364.779	8.87
364.99	-21.85
365.201	64.17
365.412	62.12
365.623	-7.51
365.834	72.36
366.045	152.23
366.256	84.65
366.467	90.79
366.678	58.03
366.889	94.89
367.1	21.16
367.311	23.21
367.522	39.59
367.733	29.35
367.944	92.84
368.155	43.69
368.366	49.83
368.577	70.31
368.788	43.69
368.999	105.13
369.209	101.03
369.42	84.65
369.631	86.7
369.842	105.13
370.053	115.37
370.264	58.03
370.474	19.11
370.685	23.21
370.896	76.46
371.107	119.46
371.317	94.89
371.528	-40.28
371.739	-17.75
371.95	19.11
372.16	43.69
372.371	10.92
372.582	12.97
372.792	105.13
373.003	31.4
373.214	62.12
373.424	127.66
373.635	72.36
373.846	98.99
374.056	-11.61
374.267	72.36
374.477	49.83
374.688	88.75
374.898	0.68
375.109	70.31
375.319	17.07
375.53	29.35
375.74	25.26
375.951	55.98
376.161	70.31
376.372	70.31
376.582	17.07
376.793	8.87
377.003	23.21
377.214	72.36
377.424	66.22
377.635	148.14
377.845	43.69
378.055	101.03
378.266	-19.8
378.476	47.79
378.686	31.4
378.897	66.22
379.107	76.46
379.317	84.65
379.528	47.79
379.738	76.46
379.948	-19.8
380.158	58.03
380.369	92.84
380.579	94.89
380.789	82.6
380.999	115.37
381.21	119.46
381.42	55.98
381.63	25.26
381.84	74.41
382.05	92.84
382.261	101.03
382.471	86.7
382.681	86.7
382.891	119.46
383.101	129.7
383.311	84.65
383.521	88.75
383.731	84.65
383.941	107.18
384.151	103.08
384.361	154.28
384.571	66.22
384.781	27.31
384.991	25.26
385.201	117.42
385.411	23.21
385.621	84.65
385.831	58.03
386.041	98.99
386.251	90.79
386.461	117.42
386.671	31.4
386.881	64.17
387.091	72.36
387.301	19.11
387.511	17.07
387.72	127.66
387.93	70.31
388.14	31.4
388.35	62.12
388.56	90.79
388.769	135.85
388.979	117.42
389.189	33.45
389.399	47.79
389.609	43.69
389.818	47.79
390.028	55.98
390.238	121.51
390.447	90.79
390.657	94.89
390.867	58.03
391.076	39.59
391.286	70.31
391.496	123.56
391.705	66.22
391.915	60.07
392.125	90.79
392.334	68.27
392.544	137.9
392.753	92.84
392.963	-13.65
393.172	152.23
393.382	64.17
393.591	150.18
393.801	98.99
394.01	84.65
394.22	62.12
394.429	103.08
394.639	76.46
394.848	80.55
395.058	82.6
395.267	105.13
395.477	107.18
395.686	180.9
395.895	166.57
396.105	103.08
396.314	101.03
396.524	103.08
396.733	121.51
396.942	139.94
397.152	92.84
397.361	96.94
397.57	117.42
397.78	119.46
397.989	96.94
398.198	238.25
398.407	39.59
398.617	131.75
398.826	123.56
399.035	70.31
399.244	111.27
399.453	78.51
399.663	105.13
399.872	117.42
400.081	113.32
400.29	178.86
400.499	137.9
400.708	144.04
400.917	150.18
401.127	76.46
401.336	146.09
401.545	199.34
401.754	162.47
401.963	66.22
402.172	119.46
402.381	90.79
402.59	123.56
402.799	113.32
403.008	133.8
403.217	191.14
403.426	191.14
403.635	154.28
403.844	168.62
404.053	187.05
404.262	133.8
404.471	168.62
404.68	168.62
404.888	156.33
405.097	185
405.306	187.05
405.515	217.77
405.724	141.99
405.933	252.58
406.142	228.01
406.35	244.39
406.559	189.1
406.768	121.51
406.977	219.82
407.185	205.48
407.394	225.96
407.603	211.62
407.812	205.48
408.02	352.93
408.229	236.2
408.438	309.93
408.646	203.43
408.855	295.59
409.064	289.45
409.272	250.53
409.481	303.78
409.69	264.87
409.898	363.17
410.107	359.08
410.315	277.16
410.524	252.58
410.733	412.32
410.941	408.23
411.15	463.52
411.358	406.18
411.567	459.43
411.775	357.03
411.984	506.53
412.192	463.52
412.401	512.67
412.609	506.53
412.818	570.02
413.026	484
413.234	567.97
413.443	531.11
413.651	549.54
413.86	615.07
414.068	707.23
414.276	672.42
414.485	709.28
414.693	748.19
414.901	717.47
415.11	807.58
415.318	748.19
415.526	834.21
415.734	834.21
415.943	838.3
416.151	819.87
416.359	924.32
416.567	942.75
416.776	975.52
416.984	1084.06
417.192	1155.74
417.4	1047.19
417.608	1088.15
417.817	1178.26
418.025	1137.31
418.233	1311.38
418.441	1155.74
418.649	1315.48
418.857	1280.66
419.065	1428.12
419.273	1401.49
419.481	1536.66
419.689	1442.45
419.897	1575.57
420.105	1696.4
420.313	1761.94
420.521	1727.12
420.729	1786.51
420.937	1784.46
421.145	1899.15
421.353	1995.4
421.561	2042.51
421.769	2120.33
421.977	2167.43
422.185	2175.63
422.393	2390.66
422.601	2454.15
422.809	2503.3
423.017	2529.92
423.224	2597.51
423.432	2855.55
423.64	2603.65
423.848	2894.46
424.056	2880.13
424.263	3203.71
424.471	3023.48
424.679	2923.13
424.887	3265.14
425.094	3424.89
425.302	3441.27
425.51	3555.96
425.718	3545.72
425.925	3744.37
426.133	3840.62
426.341	4063.85
426.548	4162.16
426.756	4119.15
426.964	4373.1
427.171	4637.28
427.379	4665.96
427.586	4680.29
427.794	4848.22
428.001	4999.77
428.209	5386.84
428.417	5208.67
428.624	5675.6
428.832	5642.84
429.039	5616.21
429.247	5528.15
429.454	6214.22
429.662	6414.92
429.869	6017.61
430.076	6562.37
430.284	6394.44
430.491	6586.95
430.699	6904.39
430.906	6957.63
431.114	7316.03
431.321	7457.34
431.528	7381.56
431.736	8004.14
431.943	8311.34
432.15	8274.48
432.358	8335.92
432.565	8577.58
432.772	8643.11
432.979	9118.24
433.187	9282.08
433.394	9185.82
433.601	9810.45
433.808	9937.43
434.016	9908.76
434.223	10168.85
434.43	10828.29
434.637	10732.04
434.844	11375.1
435.052	11614.71
435.259	11606.52
435.466	11612.67
435.673	11352.57
435.88	12413.42
436.087	12968.42
436.294	12861.93
436.501	12265.97
436.708	12874.21
436.915	13236.7
437.122	14047.7
437.329	13978.07
437.537	14193.11
437.743	14655.95
437.95	14244.31
438.157	15223.23
438.364	15544.77
438.571	15456.7
438.778	15552.96
438.985	17136.04
439.192	16363.95
439.399	16955.82
439.606	16572.85
439.813	17568.16
440.02	18583.95
440.227	18213.27
440.433	18252.18
440.64	18661.77
440.847	18600.33
441.054	19028.36
441.261	20404.6
441.467	20101.5
441.674	20447.6
441.881	21215.59
442.088	21006.7
442.294	20994.41
442.501	21426.53
442.708	21940.57
442.914	22653.26
443.121	23683.39
443.328	23167.31
443.534	24768.82
443.741	23906.62
443.948	23961.92
444.154	25692.45
444.361	25344.3
444.568	25366.82
444.774	25342.25
444.981	25866.53
445.187	26556.69
445.394	27758.85
445.6	26857.74
445.807	29880.55
446.013	28606.71
446.22	28799.22
446.426	30238.94
446.633	30392.54
446.839	31328.46
447.046	29995.23
447.252	31697.1
447.459	31676.62
447.665	31613.13
447.871	33079.47
448.078	34584.73
448.284	32786.61
448.491	33917.09
448.697	35104.92
448.903	35793.03
449.11	35528.84
449.316	34685.08
449.522	35625.1
449.728	36724.86
449.935	36708.47
450.141	36817.02
450.347	37742.7
450.553	36219.01
450.76	36941.94
450.966	38097
451.172	37566.57
451.378	38381.67
451.584	37924.97
451.791	38869.08
451.997	38680.67
452.203	39225.43
452.409	38967.38
452.615	39106.65
452.821	37386.35
453.027	37161.08
453.233	38783.07
453.44	37107.83
453.646	38150.24
453.852	37421.17
454.058	38774.88
454.264	37105.78
454.47	37957.74
454.676	36718.71
454.882	38490.21
455.088	34855.06
455.294	35379.34
455.5	35625.1
455.705	36210.82
455.911	34703.51
456.117	34447.52
456.323	33798.31
456.529	31934.66
456.735	33292.46
456.941	32256.19
457.147	31891.65
457.352	31094.99
457.558	30615.77
457.764	30593.24
457.97	29933.79
458.176	29483.24
458.381	29018.35
458.587	27894.02
458.793	27988.22
458.999	26757.39
459.204	28524.79
459.41	27592.97
459.616	25905.44
459.821	25571.62
460.027	25942.3
460.233	25207.08
460.438	24181.05
460.644	24355.13
460.85	23357.77
461.055	22835.53
461.261	22892.88
461.466	21025.13
461.672	20349.3
461.878	21668.19
462.083	20439.41
462.289	19954.04
462.494	20185.46
462.7	18835.85
462.905	18432.4
463.111	19048.84
463.316	19241.35
463.522	18899.34
463.727	18876.81
463.932	18741.64
464.138	18499.98
464.343	18700.69
464.549	18231.7
464.754	18635.15
464.959	18733.45
465.165	18469.26
465.37	17582.49
465.575	17277.35
465.781	18047.38
465.986	17987.99
466.191	17181.09
466.397	16910.76
466.602	16312.75
466.807	16804.27
467.012	16820.65
467.218	16923.05
467.423	16800.17
467.628	16718.25
467.833	17584.54
468.038	16611.76
468.244	16294.32
468.449	16880.04
468.654	16284.08
468.859	16064.95
469.064	16288.18
469.269	15491.52
469.474	15708.6
469.679	16085.43
469.885	15608.25
470.09	15659.45
470.295	15372.74
470.5	15530.43
470.705	15311.3
470.91	14899.66
471.115	14836.17
471.32	15063.49
471.525	15073.73
471.73	14614.99
471.935	14342.61
472.139	14019.03
472.344	14275.02
472.549	13914.58
472.754	13918.68
472.959	13406.69
473.164	13218.27
473.369	13226.46
473.574	13357.53
473.778	13371.87
473.983	13326.82
474.188	13339.1
474.393	12968.42
474.598	12618.22
474.802	12851.69
475.007	12556.78
475.212	12417.52
475.417	12208.62
475.621	11989.49
475.826	12120.56
476.031	11649.53
476.235	11792.89
476.44	11966.96
476.645	11645.43
476.849	11596.28
477.054	11604.47
477.259	11387.39
477.463	11270.65
477.668	11100.67
477.872	11381.24
478.077	11104.77
478.282	10699.27
478.486	10650.12
478.691	10697.22
478.895	10586.63
479.1	10572.3
479.304	10613.26
479.509	10353.16
479.713	10525.19
479.918	10146.32
480.122	10103.31
480.326	10394.12
480.531	10351.12
480.735	10048.02
480.94	10064.4
481.144	10279.44
481.348	10031.63
481.553	10002.96
481.757	9538.07
481.961	10007.06
482.166	10160.66
482.37	9972.24
482.574	9658.9
482.778	9515.55
482.983	10064.4
483.187	9783.83
483.391	9916.95
483.595	9718.29
483.8	9716.25
484.004	9658.9
484.208	9972.24
484.412	9732.63
484.616	9927.19
484.821	9818.64
485.025	9583.13
485.229	9873.94
485.433	9646.62
485.637	9886.23
485.841	9691.67
486.045	9515.55
486.249	9951.76
486.453	9769.49
486.657	9925.14
486.861	9855.51
487.065	9566.74
487.269	9787.93
487.473	9593.37
487.677	9648.66
487.881	9974.29
488.085	9617.94
488.289	9890.32
488.493	9720.34
488.697	9964.05
488.901	9972.24
489.105	9966.1
489.309	9822.74
489.512	9945.62
489.716	10084.88
489.92	9794.07
490.124	9822.74
490.328	10113.55
490.531	9871.89
490.735	10093.07
490.939	10072.59
491.143	10160.66
491.346	9773.59
491.55	10181.14
491.754	10152.46
491.958	10394.12
492.161	10043.92
492.365	10293.77
492.569	10263.05
492.772	10246.67
492.976	10439.18
493.18	10560.01
493.383	10633.74
493.587	10527.24
493.79	10760.71
493.994	10496.52
494.197	10756.61
494.401	10902.02
494.605	10947.08
494.808	10938.88
495.012	11049.47
495.215	11121.15
495.419	11454.97
495.622	11041.28
495.825	11522.55
496.029	11309.57
496.232	11852.28
496.436	11434.49
496.639	11844.09
496.843	12063.22
497.046	12143.09
497.249	12059.12
497.453	12321.26
497.656	12372.46
497.859	12399.09
498.063	12270.06
498.266	12755.43
498.469	12622.31
498.673	13097.44
498.876	12966.37
499.079	13070.82
499.282	13105.63
499.485	13750.74
499.689	13355.49
499.892	13502.94
500.095	13793.75
500.298	14207.44
500.501	13707.74
500.705	14451.15
500.908	14277.07
501.111	14541.26
501.314	14698.95
501.517	14739.91
501.72	15045.06
501.923	15100.36
502.126	15505.85
502.329	15520.19
502.532	15688.12
502.735	15741.37
502.938	16026.04
503.141	16245.17
503.344	16474.54
503.547	16538.03
503.75	16882.09
503.953	16896.42
504.156	16837.03
504.359	17009.06
504.562	17172.9
504.765	17748.38
504.968	18010.52
505.17	17893.79
505.373	17926.55
505.576	18108.82
505.779	18401.68
505.982	18657.68
506.185	18846.09
506.387	19091.85
506.59	19212.68
506.793	19962.23
506.996	19456.39
507.198	19886.46
507.401	20066.68
507.604	20117.88
507.807	20752.75
508.009	20574.58
508.212	20607.34
508.415	21281.13
508.617	21530.98
508.82	21588.32
509.022	21602.66
509.225	22055.26
509.428	22309.21
509.63	22430.04
509.833	22487.38
510.035	23036.24
510.238	22720.85
510.44	23376.2
510.643	23705.92
510.845	23722.3
511.048	23656.77
511.25	23888.19
511.453	24305.98
511.655	24920.37
511.858	24570.16
512.06	24953.13
512.262	25508.13
512.465	25475.37
512.667	25823.52
512.87	25800.99
513.072	25858.34
513.274	26505.49
513.477	26923.28
513.679	26896.66
513.881	27164.94
514.084	27314.44
514.286	27330.83
514.488	27572.49
514.69	28758.26
514.893	28371.19
515.095	28561.65
515.297	29110.51
515.499	29325.55
515.701	29362.41
515.904	29761.76
516.106	29528.3
516.308	30122.21
516.51	30587.1
516.712	30679.25
516.914	30949.59
517.116	31592.65
517.318	31455.43
517.52	31408.33
517.722	31850.69
517.925	32336.06
518.127	32573.63
518.329	32729.27
518.531	32970.93
518.733	33540.27
518.935	33261.74
519.136	33826.98
519.338	34097.31
519.54	34439.33
519.742	34580.64
519.944	34709.66
520.146	35176.59
520.348	35412.11
520.55	35475.6
520.752	35641.48
520.954	36264.07
521.155	35555.47
521.357	36464.77
521.559	36890.74
521.761	37331.06
521.963	37132.4
522.164	37331.06
522.366	37474.41
522.568	37838.95
522.77	38174.82
522.971	39032.92
523.173	38656.09
523.375	39086.17
523.576	38676.57
523.778	39063.64
523.98	39741.52
524.181	39807.05
524.383	39794.76
524.584	40529.98
524.786	40261.7
524.988	40392.77
525.189	40849.47
525.391	40839.23
525.592	41433.14
525.794	40992.83
525.995	41277.49
526.197	41234.49
526.398	41273.4
526.6	41568.3
526.801	42315.81
527.003	42379.3
527.204	42838.04
527.406	42620.96
527.607	42457.12
527.808	42960.92
528.01	42147.88
528.211	42969.11
528.412	43538.45
528.614	43485.2
528.815	43264.02
529.016	43708.43
529.218	43425.81
529.419	43755.53
529.62	44046.35
529.822	43724.82
530.023	43745.3
530.224	44156.94
530.425	44419.08
530.626	43884.56
530.828	43589.65
531.029	44709.89
531.23	44249.1
531.431	44492.8
531.632	44288.01
531.833	44619.78
532.035	44472.32
532.236	44791.81
532.437	44873.73
532.638	44335.11
532.839	45008.89
533.04	45187.07
533.241	44451.84
533.442	45627.38
533.643	44673.03
533.844	44965.88
534.045	44988.41
534.246	44726.27
534.447	45137.91
534.648	45211.64
534.849	44904.45
535.05	45099
535.251	45133.82
535.451	45006.84
535.652	45377.53
535.853	44890.11
536.054	45164.54
536.255	44916.73
536.456	44908.54
536.657	46024.68
536.857	45281.27
537.058	44867.58
537.259	45660.15
537.46	45330.42
537.66	44992.51
537.861	45543.41
538.062	45344.76
538.263	45230.07
538.463	45109.24
538.664	44791.81
538.865	45608.95
539.065	45580.28
539.266	44931.07
539.466	45434.87
539.667	44845.05
539.868	45737.97
540.068	45207.54
540.269	45311.99
540.469	45359.09
540.67	44910.59
540.87	44935.17
541.071	45006.84
541.271	45365.24
541.472	44974.08
541.672	44777.47
541.873	44886.01
542.073	44441.6
542.274	45324.28
542.474	45377.53
542.675	44814.33
542.875	45246.46
543.075	45029.37
543.276	44711.94
543.476	44957.69
543.676	44791.81
543.877	45092.86
544.077	44853.25
544.277	44984.32
544.478	45012.99
544.678	44912.64
544.878	45086.71
545.078	45133.82
545.279	44670.98
545.479	45066.24
545.679	44726.27
545.879	44752.9
546.079	44845.05
546.28	44685.31
546.48	44754.94
546.68	44972.03
546.88	44922.88
547.08	44855.29
547.28	44713.98
547.48	44539.91
547.68	44648.45
547.88	44343.3
548.081	44756.99
548.281	44922.88
548.481	44544
548.681	44787.71
548.881	44787.71
549.081	44861.44
549.28	44376.07
549.48	44591.11
549.68	44558.34
549.88	45164.54
550.08	44404.74
550.28	44584.96
550.48	44019.72
550.68	44978.17
550.88	44337.16
551.08	44505.09
551.279	44394.5
551.479	43921.42
551.679	44371.97
551.879	43972.62
552.079	44627.97
552.278	44220.42
552.478	44791.81
552.678	44347.4
552.878	44419.08
553.077	44578.82
553.277	43943.95
553.477	44470.28
553.676	44013.58
553.876	44107.79
554.076	43972.62
554.275	44019.72
554.475	43206.68
554.674	44019.72
554.874	44156.94
555.074	43524.11
555.273	43853.84
555.473	44380.17
555.672	43675.66
555.872	44027.91
556.071	43837.45
556.271	43773.97
556.47	43413.52
556.67	43206.68
556.869	43325.46
557.068	43862.03
557.268	43436.05
557.467	43505.68
557.667	43440.15
557.866	43591.7
558.065	43053.08
558.265	43091.99
558.464	42813.47
558.663	43333.65
558.863	42788.89
559.062	43380.76
559.261	42944.54
559.461	43163.67
559.66	42934.3
559.859	42883.1
560.058	42561.57
560.258	42565.67
560.457	42328.1
560.656	42655.78
560.855	42448.93
561.054	42833.95
561.253	41879.6
561.453	42143.78
561.652	42309.67
561.851	42444.83
562.05	42254.37
562.249	41668.65
562.448	42493.99
562.647	41994.28
562.846	42115.11
563.045	42125.35
563.244	41357.36
563.443	42022.95
563.642	41199.67
563.841	41551.92
564.04	41605.17
564.239	41816.11
564.438	40859.71
564.637	41637.94
564.836	40958.01
565.035	40482.88
565.234	40869.95
565.432	40818.75
565.631	41087.03
565.83	40996.92
566.029	40663.1
566.228	40693.82
566.427	40419.39
566.625	40489.02
566.824	39774.28
567.023	40878.14
567.222	39354.45
567.42	40491.07
567.619	39882.83
567.818	39690.32
568.016	39727.18
568.215	40265.8
568.414	39735.37
568.612	39733.32
568.811	39661.65
569.01	39495.76
569.208	38723.68
569.407	39508.05
569.605	38803.55
569.804	39319.63
570.002	38901.85
570.201	39000.15
570.4	38459.49
570.598	38815.83
570.797	38273.12
570.995	38420.58
571.193	38033.51
571.392	38625.37
571.59	38140
571.789	38156.39
571.987	37851.24
572.186	37841
572.384	38232.16
572.582	38070.37
572.781	37869.67
572.979	37292.15
573.177	37462.13
573.376	37746.79
573.574	37103.73
573.772	37660.78
573.971	37335.15
574.169	36929.66
574.367	36829.3
574.565	37046.39
574.763	36876.41
574.962	36853.88
575.16	36350.08
575.358	36575.36
575.556	35940.49
575.754	36481.15
575.952	36104.32
576.151	36489.34
576.349	35809.42
576.547	35948.68
576.745	36204.67
576.943	35883.14
577.141	35823.75
577.339	35537.04
577.537	35674.25
577.735	35588.24
577.933	35532.94
578.131	35498.12
578.329	35109.01
578.527	34836.63
578.725	35260.56
578.923	35037.33
579.121	35086.48
579.319	34549.92
579.516	35098.77
579.714	34633.88
579.912	34713.75
580.11	34523.29
580.308	34216.1
580.506	34457.76
580.704	33976.48
580.901	34050.21
581.099	34191.52
581.297	33833.13
581.495	33843.37
581.692	33826.98
581.89	33589.42
582.088	33822.89
582.285	33333.42
582.483	33708.2
582.681	33595.56
582.878	33106.1
583.076	32882.87
583.274	33257.65
583.471	32592.06
583.669	32880.82
583.866	32796.85
584.064	32815.29
584.262	32389.31
584.459	32977.08
584.657	32493.75
584.854	32835.77
585.052	31881.41
585.249	32270.53
585.447	32344.25
585.644	31774.92
585.841	31871.17
586.039	31981.76
586.236	31539.4
586.434	31561.93
586.631	31465.67
586.828	31561.93
587.026	31647.94
587.223	31160.53
587.42	31205.58
587.618	31459.53
587.815	30894.29
588.012	30955.73
588.21	30771.41
588.407	31019.22
588.604	30408.92
588.801	30523.61
588.999	30568.66
589.196	30462.17
589.393	30583
589.59	30009.57
589.787	30550.23
589.984	30054.62
590.182	29804.77
590.379	30337.24
590.576	29966.56
590.773	30032.1
590.97	29405.42
591.167	29556.97
591.364	29481.19
591.561	29343.98
591.758	29163.76
591.955	29251.82
592.152	29300.97
592.349	28809.46
592.546	29397.23
592.743	29165.81
592.94	28356.86
593.137	28526.84
593.334	29001.97
593.531	28469.5
593.727	28768.5
593.924	28494.07
594.121	27959.55
594.318	28625.14
594.515	28061.95
594.712	27977.98
594.908	28090.62
595.105	27955.46
595.302	27572.49
595.499	27808
595.696	27578.63
595.892	27502.85
596.089	27619.59
596.286	27943.17
596.482	27382.02
596.679	27640.07
596.876	27502.85
597.072	27445.51
597.269	27152.65
597.466	27171.08
597.662	26994.96
597.859	26751.25
598.055	26888.46
598.252	26751.25
598.448	26644.76
598.645	26431.77
598.841	26411.29
599.038	26837.27
599.234	26626.32
599.431	26093.85
599.627	26202.39
599.824	26226.97
600.02	25975.07
600.217	25962.78
600.413	25866.53
600.609	25522.47
600.806	25358.63
601.002	25919.78
601.198	25577.76
601.395	25299.24
601.591	25155.88
601.787	25528.61
601.984	25231.66
602.18	25084.2
602.376	25073.96
602.572	24908.08
602.769	24688.95
602.965	24699.19
603.161	24953.13
603.357	24543.54
603.553	24635.7
603.75	24525.11
603.946	24125.75
604.142	24402.23
604.338	23925.05
604.534	24340.79
604.73	24127.8
604.926	23976.25
605.122	24222.01
605.318	23873.85
605.514	23781.7
605.71	23718.21
605.906	23654.72
606.102	23880
606.298	23597.38
606.494	23660.87
606.69	23583.04
606.886	23671.11
607.082	23394.63
607.278	23458.12
607.474	23095.63
607.67	23185.74
607.866	22946.12
608.062	23310.66
608.257	23050.57
608.453	23228.74
608.649	23120.2
608.845	22737.23
609.041	22876.49
609.236	23003.47
609.432	22810.96
609.628	22702.42
609.824	22671.7
610.019	22632.79
610.215	22477.14
610.411	22776.14
610.606	22155.61
610.802	22206.81
610.998	22624.59
611.193	22212.95
611.389	22180.18
611.584	22454.61
611.78	22239.58
611.976	22270.29
612.171	22202.71
612.367	22143.32
612.562	21805.41
612.758	21498.21
612.953	21766.49
613.149	21883.23
613.344	21793.12
613.539	21926.24
613.735	21576.03
613.93	21596.51
614.126	21182.82
614.321	21432.68
614.517	21698.91
614.712	21336.42
614.907	21199.21
615.103	21600.61
615.298	21272.93
615.493	21502.31
615.688	20877.68
615.884	21363.04
616.079	21041.51
616.274	21027.18
616.47	21133.67
616.665	21021.03
616.86	20812.14
617.055	20806
617.25	20881.77
617.445	21236.07
617.641	20492.66
617.836	20388.21
618.031	20531.57
618.226	20658.54
618.421	20525.43
618.616	20500.85
618.811	20171.13
619.006	20517.23
619.201	19833.21
619.396	20279.67
619.591	19659.13
619.786	20234.61
619.981	19861.88
620.176	20062.58
620.371	19569.02
620.566	19685.76
620.761	19538.3
620.956	19673.47
621.151	19302.79
621.346	19587.46
621.541	19364.23
621.735	19310.98
621.93	18805.13
622.125	19120.52
622.32	18692.49
622.515	19038.6
622.709	18696.59
622.904	18561.42
623.099	18639.25
623.294	18737.55
623.488	18311.57
623.683	18379.15
623.878	18076.05
624.072	17926.55
624.267	17985.94
624.462	18043.29
624.656	17420.7
624.851	18031
625.046	17508.77
625.24	17643.93
625.435	17349.03
625.629	17564.06
625.824	17435.04
626.018	17430.94
626.213	16996.78
626.407	17406.37
626.602	16742.83
626.796	16929.19
626.991	16933.29
627.185	16748.97
627.38	16427.44
627.574	16669.1
627.768	16482.74
627.963	16218.55
628.157	16302.51
628.352	16130.48
628.546	15915.45
628.74	15847.86
628.935	15856.06
629.129	15786.43
629.323	15530.43
629.517	15602.11
629.712	15251.91
629.906	15389.12
630.1	15323.58
630.294	15382.98
630.489	15120.84
630.683	15409.6
630.877	15024.58
631.071	14848.46
631.265	15040.97
631.459	14653.9
631.653	14754.25
631.848	14899.66
632.042	14367.18
632.236	14694.86
632.43	14039.51
632.624	14461.39
632.818	14488.01
633.012	14113.24
633.206	14139.86
633.4	14137.81
633.594	13906.39
633.788	13988.31
633.982	13838.81
634.176	13689.31
634.369	13787.61
634.563	13621.72
634.757	13591
634.951	13646.3
635.145	13453.79
635.339	13607.39
635.533	13251.04
635.726	13150.69
635.92	13312.48
636.114	13201.89
636.308	12993
636.501	13042.15
636.695	13117.92
636.889	12782.06
637.083	12700.14
637.276	12722.66
637.47	12622.31
637.664	12677.61
637.857	12501.48
638.051	12528.11
638.244	12505.58
638.438	12335.6
638.632	12274.16
638.825	12194.29
639.019	11962.87
639.212	12022.26
639.406	11936.24
639.599	11936.24
639.793	11934.2
639.986	11749.88
640.18	11672.06
640.373	11876.85
640.567	11647.48
640.76	11655.67
640.954	11465.21
641.147	11227.65
641.34	11287.04
641.534	11454.97
641.727	11100.67
641.92	11282.94
642.114	11098.63
642.307	11160.06
642.5	10877.44
642.694	10797.57
642.887	10834.44
643.08	11033.09
643.273	10639.88
643.467	10627.59
643.66	10721.8
643.853	10639.88
644.046	10553.87
644.239	10363.4
644.432	10412.56
644.626	10371.6
644.819	10318.35
645.012	10453.52
645.205	10275.34
645.398	10308.11
645.591	10152.46
645.784	9949.71
645.977	9867.8
646.17	10142.22
646.363	9986.58
646.556	9796.12
646.749	9798.17
646.942	9857.56
647.135	9507.35
647.328	9564.7
647.521	9574.94
647.714	9470.49
647.907	9521.69
648.099	9415.19
648.292	9347.61
648.485	9263.65
648.678	9273.89
648.871	9249.31
649.064	9230.88
649.256	9277.98
649.449	9073.18
649.642	8860.2
649.835	9026.08
650.027	8825.38
650.22	8931.87
650.413	8737.32
650.605	8866.34
650.798	8892.96
650.991	8546.86
651.183	8788.52
651.376	8661.54
651.568	8499.75
651.761	8477.23
651.954	8413.74
652.146	8401.45
652.339	8471.08
652.531	8442.41
652.724	8241.71
652.916	8239.66
653.109	8239.66
653.301	7998
653.494	8186.41
653.686	7746.1
653.879	7979.57
654.071	8077.87
654.263	7780.92
654.456	7950.9
654.648	7750.2
654.84	7897.65
655.033	7940.66
655.225	7682.61
655.417	7645.75
655.61	7713.33
655.802	7660.09
655.994	7559.74
656.186	7707.19
656.379	7606.84
656.571	7584.31
656.763	7287.36
656.955	7436.86
657.148	7389.75
657.34	7227.96
657.532	7254.59
657.724	7068.22
657.916	7121.47
658.108	7182.91
658.3	7117.37
658.492	7254.59
658.684	6992.45
658.876	6951.49
659.068	6812.23
659.26	6867.52
659.452	7100.99
659.644	6865.47
659.836	6718.02
660.028	6662.72
660.22	6775.36
660.412	6705.73
660.604	6634.05
660.796	6672.96
660.988	6732.36
661.18	6365.77
661.372	6595.14
661.563	6560.33
661.755	6513.22
661.947	6634.05
662.139	6353.48
662.331	6279.75
662.522	6171.21
662.714	6246.99
662.906	6160.97
663.097	6259.28
663.289	6253.13
663.481	5966.42
663.673	6148.68
663.864	6105.68
664.056	6001.23
664.247	6079.05
664.439	5864.02
664.631	6011.47
664.822	5929.55
665.014	5958.22
665.205	5913.17
665.397	5876.3
665.588	5812.82
665.78	5794.39
665.971	5851.73
666.163	5868.11
666.354	5714.52
666.546	5630.55
666.737	5464.66
666.929	5560.92
667.12	5712.47
667.311	5534.29
667.503	5515.86
667.694	5505.62
667.885	5608.02
668.077	5513.81
668.268	5300.83
668.459	5476.95
668.651	5487.19
668.842	5372.5
669.033	5331.55
669.224	5321.31
669.416	5524.05
669.607	5251.67
669.798	5235.29
669.989	5134.94
670.18	5362.26
670.371	5126.75
670.563	5061.21
670.754	5134.94
670.945	5093.98
671.136	5069.41
671.327	5087.84
671.518	4952.67
671.709	5016.16
671.9	4983.39
672.091	4874.85
672.282	4813.41
672.473	4794.98
672.664	4794.98
672.855	4932.19
673.046	4833.89
673.237	5026.4
673.428	4860.51
673.619	4790.88
673.809	4706.91
674	4774.5
674.191	4633.19
674.382	4805.22
674.573	4674.15
674.764	4686.44
674.954	4731.49
675.145	4551.27
675.336	4504.17
675.527	4541.03
675.717	4721.25
675.908	4524.65
676.099	4528.74
676.289	4518.5
676.48	4432.49
676.671	4475.49
676.861	4530.79
677.052	4412.01
677.243	4369
677.433	4465.25
677.624	4563.56
677.814	4287.08
678.005	4407.91
678.195	4313.7
678.386	4315.75
678.576	4448.87
678.767	4227.69
678.957	4465.25
679.148	4131.44
679.338	4246.12
679.529	4270.7
679.719	4215.4
679.909	4289.13
680.1	4149.87
680.29	4100.72
680.481	4088.43
680.671	4067.95
680.861	4149.87
681.052	4190.83
681.242	4237.93
681.432	3965.55
681.622	4164.2
681.813	4098.67
682.003	4121.2
682.193	4055.66
682.383	3891.82
682.573	3943.02
682.764	4094.57
682.954	4018.8
683.144	4010.61
683.334	3799.66
683.524	3943.02
683.714	4043.37
683.904	3854.96
684.094	3871.34
684.284	3881.58
684.474	3828.34
684.664	4014.7
684.854	3975.79
685.044	3777.14
685.234	3631.73
685.424	3799.66
685.614	3854.96
685.804	3857.01
685.994	3709.55
686.184	3697.27
686.374	3824.24
686.564	3830.38
686.753	3707.51
686.943	3570.29
687.133	3596.92
687.323	3707.51
687.513	3603.06
687.702	3476.09
687.892	3496.57
688.082	3574.39
688.272	3457.65
688.461	3658.35
688.651	3574.39
688.841	3568.24
689.03	3443.32
689.22	3347.06
689.41	3500.66
689.599	3510.9
689.789	3496.57
689.979	3433.08
690.168	3252.86
690.358	3353.21
690.547	3347.06
690.737	3480.18
690.926	3414.65
691.116	3406.45
691.305	3437.17
691.495	3273.34
691.684	3342.97
691.874	3396.21
692.063	3267.19
692.252	3234.43
692.442	3265.14
692.631	3179.13
692.82	3109.5
693.01	3177.08
693.199	3228.28
693.388	3101.31
693.578	3177.08
693.767	3132.03
693.956	3185.27
694.146	3232.38
694.335	3197.56
694.524	3172.99
694.713	3177.08
694.902	3181.18
695.092	3127.93
695.281	3021.44
695.47	3113.6
695.659	2972.29
695.848	2966.14
696.037	2974.33
696.226	2990.72
696.415	3013.24
696.604	3101.31
696.793	2990.72
696.982	2929.28
697.171	2921.09
697.36	3007.1
697.549	3027.58
697.738	2955.9
697.927	2830.98
698.116	3093.12
698.305	2974.33
698.494	2943.61
698.683	2964.09
698.872	2968.19
699.061	2957.95
699.25	2949.76
699.438	2910.85
699.627	3007.1
699.816	2845.31
700.005	2869.89
700.193	2962.05
700.382	3048.06
700.571	2916.99
700.76	2966.14
700.948	2833.02
701.137	2937.47
701.326	2855.55
701.514	2855.55
701.703	2902.65
701.892	2890.37
702.08	2986.62
702.269	2818.69
702.457	2808.45
702.646	2824.83
702.834	2826.88
703.023	2708.1
703.212	2826.88
703.4	2890.37
703.589	2884.22
703.777	2843.26
703.965	2675.33
704.154	2759.3
704.342	2947.71
704.531	2775.68
704.719	2808.45
704.907	2882.17
705.096	2830.98
705.284	2876.03
705.472	2779.78
705.661	2839.17
705.849	2833.02
706.037	2792.06
706.226	2761.34
706.414	2769.54
706.602	2863.74
706.79	2822.78
706.979	2792.06
707.167	2650.75
707.355	2779.78
707.543	2765.44
707.731	2855.55
707.919	2775.68
708.107	2806.4
708.296	2628.23
708.484	2804.35
708.672	2673.28
708.86	2665.09
709.048	2652.8
709.236	2798.21
709.424	2783.87
709.612	2751.1
709.8	2761.34
709.988	2730.62
710.176	2818.69
710.364	2718.34
710.551	2751.1
710.739	2775.68
710.927	2773.63
711.115	2724.48
711.303	2720.39
711.491	2636.42
711.679	2734.72
711.866	2687.62
712.054	2812.54
712.242	2579.08
712.43	2695.81
712.617	2693.76
712.805	2648.71
712.993	2765.44
713.181	2652.8
713.368	2638.47
713.556	2617.99
713.744	2589.32
713.931	2675.33
714.119	2617.99
714.306	2566.79
714.494	2607.75
714.682	2677.38
714.869	2593.41
715.057	2652.8
715.244	2599.55
715.432	2554.5
715.619	2591.36
715.807	2644.61
715.994	2634.37
716.182	2497.16
716.369	2642.56
716.556	2558.6
716.744	2701.95
716.931	2597.51
717.119	2548.36
717.306	2632.32
717.493	2538.12
717.681	2585.22
717.868	2566.79
718.055	2663.04
718.242	2624.13
718.43	2589.32
718.617	2589.32
718.804	2644.61
718.991	2562.69
719.179	2568.84
719.366	2538.12
719.553	2548.36
719.74	2437.77
719.927	2464.39
720.114	2527.88
720.301	2376.33
720.488	2574.98
720.676	2548.36
720.863	2681.47
721.05	2509.44
721.237	2534.02
721.424	2587.27
721.611	2581.12
721.798	2513.54
721.985	2589.32
722.172	2491.01
722.358	2306.7
722.545	2443.91
722.732	2423.43
722.919	2441.86
723.106	2572.93
723.293	2624.13
723.48	2536.07
723.667	2497.16
723.853	2372.23
724.04	2435.72
724.227	2540.16
724.414	2503.3
724.6	2441.86
724.787	2443.91
724.974	2552.45
725.161	2413.19
725.347	2460.29
725.534	2501.25
725.72	2310.79
725.907	2454.15
726.094	2456.2
726.28	2392.71
726.467	2468.48
726.653	2429.57
726.84	2470.53
727.027	2480.77
727.213	2417.29
727.4	2470.53
727.586	2398.85
727.773	2417.29
727.959	2425.48
728.145	2511.49
728.332	2521.73
728.518	2384.52
728.705	2439.81
728.891	2331.27
729.077	2341.51
729.264	2263.69
729.45	2507.4
729.636	2386.57
729.823	2359.94
730.009	2353.8
730.195	2396.81
730.382	2384.52
730.568	2437.77
730.754	2419.33
730.94	2280.07
731.126	2456.2
731.313	2382.47
731.499	2345.61
731.685	2396.81
731.871	2421.38
732.057	2452.1
732.243	2339.46
732.429	2355.85
732.615	2347.65
732.801	2357.89
732.987	2415.24
733.173	2331.27
733.359	2372.23
733.545	2349.7
733.731	2216.58
733.917	2349.7
734.103	2263.69
734.289	2263.69
734.475	2222.73
734.661	2280.07
734.847	2282.12
735.033	2280.07
735.219	2364.04
735.404	2333.32
735.59	2247.3
735.776	2308.74
735.962	2214.54
736.148	2321.03
736.333	2243.21
736.519	2263.69
736.705	2265.74
736.89	2286.22
737.076	2349.7
737.262	2318.98
737.447	2243.21
737.633	2136.71
737.819	2253.45
738.004	2087.56
738.19	2187.91
738.375	2161.29
738.561	2196.11
738.747	2228.87
738.932	2052.75
739.118	2212.49
739.303	2103.95
739.489	2271.88
739.674	2173.58
739.859	2112.14
740.045	2216.58
740.23	2165.39
740.416	2134.67
740.601	2204.3
740.786	2235.02
740.972	2140.81
741.157	2118.28
741.342	2083.47
741.528	2081.42
741.713	2169.48
741.898	2032.27
742.084	2040.46
742.269	2052.75
742.454	1956.49
742.639	2134.67
742.824	1985.16
743.01	2042.51
743.195	2071.18
743.38	2036.36
743.565	1997.45
743.75	2087.56
743.935	2026.12
744.12	2028.17
744.305	1991.31
744.49	1890.96
744.675	2015.88
744.86	2015.88
745.045	1962.64
745.23	1942.16
745.415	1860.24
745.6	1874.57
745.785	1944.2
745.97	1950.35
746.155	1923.73
746.34	1921.68
746.525	1917.58
746.71	1884.81
746.895	1868.43
747.079	1825.42
747.264	1839.76
747.449	1737.36
747.634	1755.79
747.819	1819.28
748.003	1858.19
748.188	1637.01
748.373	1774.22
748.557	1714.83
748.742	1692.3
748.927	1835.66
749.111	1733.26
749.296	1761.94
749.481	1761.94
749.665	1757.84
749.85	1497.75
750.034	1759.89
750.219	1671.83
750.404	1745.55
750.588	1591.95
750.773	1536.66
750.957	1647.25
751.141	1538.71
751.326	1510.04
751.51	1573.52
751.695	1610.39
751.879	1602.19
752.064	1655.44
752.248	1563.28
752.432	1686.16
752.617	1557.14
752.801	1524.37
752.985	1417.88
753.17	1471.12
753.354	1563.28
753.538	1528.47
753.722	1544.85
753.907	1438.36
754.091	1452.69
754.275	1440.4
754.459	1405.59
754.643	1475.22
754.828	1378.97
755.012	1393.3
755.196	1413.78
755.38	1419.92
755.564	1362.58
755.748	1403.54
755.932	1360.53
756.116	1405.59
756.3	1387.16
756.484	1364.63
756.668	1340.05
756.852	1227.42
757.036	1243.8
757.22	1258.14
757.404	1319.57
757.588	1215.13
757.772	1256.09
757.956	1254.04
758.14	1260.18
758.323	1270.42
758.507	1368.73
758.691	1196.7
758.875	1292.95
759.059	1172.12
759.242	1176.22
759.426	1120.92
759.61	1194.65
759.794	1120.92
759.977	1129.11
760.161	1243.8
760.345	1147.55
760.528	1137.31
760.712	1241.75
760.895	1147.55
761.079	1069.72
761.263	1141.4
761.446	1133.21
761.63	1063.58
761.813	1172.12
761.997	1108.63
762.18	1143.45
762.364	1098.39
762.547	1032.86
762.731	1194.65
762.914	1045.15
763.098	1067.67
763.281	1034.91
763.464	1133.21
763.648	1075.87
763.831	1090.2
764.015	1012.38
764.198	1088.15
764.381	1147.55
764.564	1053.34
764.748	1096.35
764.931	1039
765.114	1026.71
765.297	1036.95
765.481	1053.34
765.664	981.66
765.847	985.76
766.03	1043.1
766.213	975.52
766.397	991.9
766.58	1055.39
766.763	1016.48
766.946	1006.24
767.129	1000.09
767.312	973.47
767.495	1020.57
767.678	932.51
767.861	983.71
768.044	1120.92
768.227	1006.24
768.41	987.8
768.593	950.94
768.776	993.95
768.959	918.17
769.142	1059.48
769.324	983.71
769.507	957.08
769.69	948.89
769.873	916.12
770.056	963.23
770.239	860.83
770.421	989.85
770.604	869.02
770.787	848.54
770.97	965.28
771.152	873.12
771.335	955.04
771.518	918.17
771.7	918.17
771.883	901.79
772.066	840.35
772.248	836.25
772.431	883.36
772.613	889.5
772.796	883.36
772.978	885.41
773.161	916.12
773.343	836.25
773.526	795.29
773.708	938.65
773.891	688.8
774.073	791.2
774.256	740
774.438	912.03
774.621	768.67
774.803	852.64
774.985	752.29
775.168	819.87
775.35	791.2
775.532	791.2
775.715	778.91
775.897	811.68
776.079	740
776.261	791.2
776.444	842.4
776.626	701.09
776.808	735.9
776.99	797.34
777.173	740
777.355	742.05
777.537	731.81
777.719	750.24
777.901	754.34
778.083	766.62
778.265	666.27
778.447	735.9
778.629	680.61
778.811	666.27
778.993	651.94
779.175	705.18
779.357	668.32
779.539	696.99
779.721	633.5
779.903	682.66
780.085	629.41
780.267	623.27
780.449	713.38
780.631	729.76
780.812	594.59
780.994	711.33
781.176	604.83
781.358	602.79
781.54	608.93
781.721	602.79
781.903	670.37
782.085	719.52
782.267	576.16
782.448	545.44
782.63	670.37
782.812	543.39
782.993	537.25
783.175	559.78
783.357	621.22
783.538	531.11
783.72	537.25
783.901	533.15
784.083	484
784.264	623.27
784.446	516.77
784.627	555.68
784.809	563.87
784.99	500.39
785.172	580.26
785.353	539.3
785.535	506.53
785.716	475.81
785.897	443.04
786.079	570.02
786.26	475.81
786.441	434.85
786.623	488.1
786.804	447.14
786.985	367.27
787.167	465.57
787.348	424.61
787.529	443.04
787.71	508.58
787.891	451.24
788.073	492.2
788.254	453.28
788.435	500.39
788.616	443.04
788.797	387.75
788.978	447.14
789.159	447.14
789.34	469.67
789.522	342.69
789.703	484
789.884	475.81
790.065	365.22
790.246	326.31
790.427	506.53
790.607	387.75
790.788	305.83
790.969	367.27
791.15	422.56
791.331	432.8
791.512	402.08
791.693	432.8
791.874	422.56
792.054	412.32
792.235	404.13
792.416	369.32
792.597	373.41
792.778	395.94
792.958	318.12
793.139	377.51
793.32	316.07
793.5	340.65
793.681	393.89
793.862	406.18
794.042	344.74
794.223	354.98
794.404	385.7
794.584	316.07
794.765	281.25
794.945	375.46
795.126	328.36
795.306	391.84
795.487	334.5
795.667	324.26
795.848	357.03
796.028	260.77
796.209	393.89
796.389	367.27
796.57	340.65
796.75	279.21
796.93	330.41
797.111	354.98
797.291	309.93
797.471	336.55
797.652	275.11
797.832	320.17
798.012	287.4
798.192	318.12
798.373	318.12
798.553	234.15
798.733	324.26
798.913	332.45
799.093	254.63
799.274	256.68
799.454	307.88
799.634	328.36
799.814	244.39
799.994	205.48
800.174	316.07
800.354	287.4
800.534	262.82
800.714	361.13
800.894	213.67
801.074	244.39
801.254	283.3
801.434	303.78
801.614	271.01
801.794	242.34
801.974	684.7
802.154	287.4
802.334	246.44
802.514	240.29
802.693	266.92
802.873	268.97
803.053	287.4
803.233	350.89
803.413	309.93
803.592	242.34
803.772	273.06
803.952	264.87
804.131	264.87
804.311	283.3
804.491	158.38
804.67	228.01
804.85	215.72
805.03	309.93
805.209	252.58
805.389	219.82
805.568	250.53
805.748	162.47
805.928	228.01
806.107	225.96
806.287	182.95
806.466	244.39
806.646	238.25
806.825	246.44
807.004	178.86
807.184	209.58
807.363	201.38
807.543	232.1
807.722	185
807.901	293.54
808.081	236.2
808.26	197.29
808.439	172.71
808.619	178.86
808.798	209.58
808.977	195.24
809.156	160.42
809.336	230.06
809.515	185
809.694	209.58
809.873	262.82
810.052	215.72
810.231	256.68
810.411	221.86
810.59	209.58
810.769	236.2
810.948	185
811.127	197.29
811.306	217.77
811.485	178.86
811.664	215.72
811.843	205.48
812.022	176.81
812.201	156.33
812.38	264.87
812.559	144.04
812.737	236.2
812.916	205.48
813.095	174.76
813.274	187.05
813.453	160.42
813.632	199.34
813.811	141.99
813.989	156.33
814.168	178.86
814.347	107.18
814.526	203.43
814.704	131.75
814.883	230.06
815.062	123.56
815.24	303.78
815.419	119.46
815.598	180.9
815.776	152.23
815.955	215.72
816.133	82.6
816.312	166.57
816.49	178.86
816.669	195.24
816.847	185
817.026	152.23
817.204	125.61
817.383	133.8
817.561	127.66
817.74	162.47
817.918	195.24
818.097	166.57
818.275	123.56
818.453	203.43
818.632	223.91
818.81	182.95
818.988	187.05
819.167	182.95
819.345	119.46
819.523	107.18
819.701	164.52
819.879	164.52
820.058	146.09
820.236	209.58
820.414	174.76
820.592	107.18
820.77	144.04
820.948	135.85
821.127	152.23
821.305	154.28
821.483	156.33
821.661	152.23
821.839	115.37
822.017	129.7
822.195	180.9
822.373	199.34
822.551	146.09
822.729	141.99
822.907	144.04
823.085	148.14
823.262	123.56
823.44	217.77
823.618	68.27
823.796	127.66
823.974	127.66
824.152	82.6
824.329	170.66
824.507	119.46
824.685	105.13
824.863	150.18
825.04	141.99
825.218	133.8
825.396	105.13
825.574	45.74
825.751	15.02
825.929	90.79
826.107	29.35
826.284	144.04
826.462	113.32
826.639	88.75
826.817	98.99
826.994	144.04
827.172	146.09
827.349	113.32
827.527	125.61
827.704	101.03
827.882	113.32
828.059	37.55
828.237	94.89
828.414	127.66
828.591	64.17
828.769	187.05
828.946	41.64
829.124	76.46
829.301	115.37
829.478	117.42
829.655	74.41
829.833	109.22
830.01	119.46
830.187	101.03
830.364	74.41
830.542	111.27
830.719	90.79
830.896	49.83
831.073	98.99
831.25	94.89
831.427	4.78
831.604	27.31
831.782	68.27
831.959	78.51
832.136	101.03
832.313	74.41
832.49	51.88
832.667	94.89
832.844	92.84
833.021	58.03
833.198	107.18
833.374	150.18
833.551	-15.7
833.728	64.17
833.905	129.7
834.082	39.59
834.259	55.98
834.436	141.99
834.612	70.31
834.789	86.7
834.966	82.6
835.143	156.33
835.319	68.27
835.496	82.6
835.673	74.41
835.85	105.13
836.026	70.31
836.203	150.18
836.38	131.75
836.556	60.07
836.733	107.18
836.909	127.66
837.086	12.97
837.262	35.5
837.439	66.22
837.616	90.79
837.792	98.99
837.968	84.65
838.145	15.02
838.321	66.22
838.498	33.45
838.674	94.89
838.851	103.08
839.027	74.41
839.203	12.97
839.38	45.74
839.556	84.65
839.732	111.27
839.909	125.61
840.085	105.13
840.261	-1.37
840.437	109.22
840.614	82.6
840.79	37.55
840.966	37.55
841.142	43.69
841.318	148.14
841.494	53.93
841.671	86.7
841.847	35.5
842.023	39.59
842.199	43.69
842.375	45.74
842.551	2.73
842.727	19.11
842.903	58.03
843.079	29.35
843.255	25.26
843.431	101.03
843.607	105.13
843.783	21.16
843.959	109.22
844.134	82.6
844.31	76.46
844.486	12.97
844.662	35.5
844.838	2.73
845.013	195.24
845.189	113.32
845.365	53.93
845.541	62.12
845.716	64.17
845.892	103.08
846.068	43.69
846.244	107.18
846.419	150.18
846.595	43.69
846.77	88.75
846.946	78.51
847.122	-9.56
847.297	45.74
847.473	35.5
847.648	-3.41
847.824	94.89
847.999	49.83
848.175	10.92
848.35	31.4
848.526	19.11
848.701	101.03
848.876	101.03
849.052	0.68
849.227	117.42
849.403	84.65
849.578	43.69
849.753	-15.7
849.929	31.4
850.104	35.5
850.279	49.83
850.454	62.12
850.63	49.83
850.805	66.22
850.98	43.69
851.155	49.83
851.33	60.07
851.505	-34.13
851.681	70.31
851.856	8.87
852.031	12.97
852.206	55.98
852.381	-32.08
852.556	39.59
852.731	74.41
852.906	72.36
853.081	96.94
853.256	21.16
853.431	68.27
853.606	68.27
853.781	82.6
853.956	-3.41
854.131	72.36
854.305	55.98
854.48	-32.08
854.655	-50.52
854.83	53.93
855.005	74.41
855.18	23.21
855.354	29.35
855.529	109.22
855.704	72.36
855.879	58.03
856.053	-25.94
856.228	49.83
856.403	96.94
856.577	41.64
856.752	-44.37
856.926	47.79
857.101	0.68
857.276	64.17
857.45	55.98
857.625	33.45
857.799	29.35
857.974	88.75
858.148	-5.46
858.323	70.31
858.497	41.64
858.672	19.11
858.846	33.45
859.02	90.79
859.195	19.11
859.369	60.07
859.543	49.83
859.718	2.73
859.892	62.12
860.066	2.73
860.241	0.68
860.415	103.08
860.589	-25.94
860.763	25.26
860.938	25.26
861.112	53.93
861.286	-60.76
861.46	33.45
861.634	72.36
861.808	33.45
861.982	17.07
862.157	2.73
862.331	31.4
862.505	12.97
862.679	4.78
862.853	72.36
863.027	133.8
863.201	60.07
863.375	33.45
863.549	45.74
863.722	66.22
863.896	49.83
864.07	74.41
864.244	-9.56
864.418	72.36
864.592	49.83
864.766	-81.24
864.939	60.07
865.113	80.55
865.287	23.21
865.461	31.4
865.634	92.84
865.808	41.64
865.982	12.97
866.156	92.84
866.329	49.83
866.503	8.87
866.676	60.07
866.85	4.78
867.024	37.55
867.197	-34.13
867.371	80.55
867.544	-34.13
867.718	29.35
867.891	68.27
868.065	39.59
868.238	82.6
868.412	33.45
868.585	43.69
868.759	8.87
868.932	45.74
869.105	-17.75
869.279	45.74
869.452	37.55
869.625	21.16
869.799	33.45
869.972	23.21
870.145	19.11
870.319	21.16
870.492	37.55
870.665	55.98
870.838	21.16
871.011	15.02
871.185	10.92
871.358	37.55
871.531	70.31
871.704	8.87
871.877	90.79
872.05	-19.8
872.223	8.87
872.396	80.55
872.569	41.64
872.742	-19.8
872.915	66.22
873.088	17.07
873.261	-40.28
873.434	58.03
873.607	64.17
873.78	-40.28
873.953	-15.7
874.126	41.64
874.299	70.31
874.471	29.35
874.644	80.55
874.817	66.22
874.99	78.51
875.163	29.35
875.335	66.22
875.508	8.87
875.681	62.12
875.853	12.97
876.026	31.4
876.199	-66.9
876.371	-17.75
876.544	58.03
876.717	21.16
876.889	31.4
877.062	53.93
877.234	15.02
877.407	55.98
877.579	92.84
877.752	62.12
877.924	37.55
878.097	21.16
878.269	-11.61
878.442	23.21
878.614	19.11
878.786	17.07
878.959	17.07
879.131	25.26
879.303	37.55
879.476	-23.89
879.648	47.79
879.82	6.83
879.993	41.64
880.165	43.69
880.337	-13.65
880.509	60.07
880.681	8.87
880.854	-32.08
881.026	96.94
881.198	82.6
881.37	37.55
881.542	33.45
881.714	17.07
881.886	82.6
882.058	72.36
882.23	115.37
882.402	31.4
882.574	33.45
882.746	-54.61
882.918	58.03
883.09	27.31
883.262	41.64
883.434	70.31
883.606	27.31
883.778	105.13
883.95	90.79
884.122	33.45
884.293	119.46
884.465	23.21
884.637	84.65
884.809	-60.76
884.98	53.93
885.152	41.64
885.324	15.02
885.496	-40.28
885.667	43.69
885.839	17.07
886.011	0.68
886.182	17.07
886.354	29.35
886.525	15.02
886.697	25.26
886.869	4.78
887.04	-17.75
887.212	82.6
887.383	33.45
887.555	-73.04
887.726	15.02
887.897	-48.47
888.069	21.16
888.24	68.27
888.412	17.07
888.583	23.21
888.754	15.02
888.926	-30.04
889.097	-9.56
889.268	27.31
889.44	-13.65
889.611	-23.89
889.782	-38.23
889.953	-5.46
890.125	21.16
890.296	-1.37
890.467	-15.7
890.638	31.4
890.809	29.35
890.98	12.97
891.151	90.79
891.323	21.16
891.494	8.87
891.665	21.16
891.836	-5.46
892.007	25.26
892.178	-21.85
892.349	-34.13
892.52	-44.37
892.691	15.02
892.862	76.46
893.032	27.31
893.203	58.03
893.374	45.74
893.545	55.98
893.716	-11.61
893.887	47.79
894.057	-40.28
894.228	55.98
894.399	-7.51
894.57	58.03
894.74	21.16
894.911	29.35
895.082	-77.14
895.253	6.83
895.423	-1.37
895.594	35.5
895.764	103.08
895.935	-54.61
896.106	-23.89
896.276	-36.18
896.447	27.31
896.617	39.59
896.788	37.55
896.958	19.11
897.129	31.4
897.299	39.59
897.47	90.79
897.64	-15.7
897.81	4.78
897.981	-11.61
898.151	21.16
898.322	47.79
898.492	35.5
898.662	-56.66
898.832	10.92
899.003	62.12
899.173	-46.42
899.343	25.26
899.513	-40.28
