Data from USB4F104151__58__11-05-55-787.txt Node

Date: Wed Mar 12 11:05:55 EDT 2025
User: louis
Spectrometer: USB4F10415
Trigger mode: 4
Integration Time (sec): 2.000000E-2
Scans to average: 1
Electric dark correction enabled: true
Nonlinearity correction enabled: false
Boxcar width: 0
XAxis mode: Wavelengths
Number of Pixels in Spectrum: 3648
>>>>>Begin Spectral Data<<<<<
178.204	-17.07
178.424	-17.07
178.644	-17.07
178.864	-51.88
179.084	-113.32
179.304	-27.31
179.524	38.23
179.744	-27.31
179.964	-21.16
180.184	21.85
180.404	15.7
180.624	-15.02
180.844	13.65
181.064	-2.73
181.283	15.7
181.503	-53.93
181.723	42.32
181.943	-88.75
182.163	1.37
182.383	19.8
182.602	-10.92
182.822	11.61
183.042	3.41
183.262	50.52
183.482	52.56
183.701	25.94
183.921	-60.07
184.141	1.37
184.361	114
184.58	-2.73
184.8	-8.87
185.02	-17.07
185.239	11.61
185.459	11.61
185.679	-31.4
185.898	-25.26
186.118	52.56
186.338	-10.92
186.557	19.8
186.777	3.41
186.997	-12.97
187.216	5.46
187.436	1.37
187.655	-25.26
187.875	27.99
188.095	-10.92
188.314	15.7
188.534	58.71
188.753	40.28
188.973	-15.02
189.192	42.32
189.412	-10.92
189.631	3.41
189.851	27.99
190.07	73.04
190.29	-27.31
190.509	-55.98
190.729	-6.83
190.948	9.56
191.168	77.14
191.387	52.56
191.607	32.08
191.826	5.46
192.045	79.19
192.265	32.08
192.484	-4.78
192.704	-6.83
192.923	-74.41
193.142	107.86
193.362	62.8
193.581	42.32
193.8	42.32
194.02	-27.31
194.239	-45.74
194.458	1.37
194.678	-6.83
194.897	-55.98
195.116	-31.4
195.335	30.04
195.555	-23.21
195.774	9.56
195.993	93.52
196.212	9.56
196.432	9.56
196.651	54.61
196.87	11.61
197.089	66.9
197.308	19.8
197.528	60.76
197.747	21.85
197.966	-4.78
198.185	32.08
198.404	-21.16
198.623	48.47
198.842	-6.83
199.062	50.52
199.281	21.85
199.5	-27.31
199.719	-2.73
199.938	56.66
200.157	15.7
200.376	48.47
200.595	40.28
200.814	5.46
201.033	-37.55
201.252	1.37
201.471	-25.26
201.69	1.37
201.909	23.89
202.128	50.52
202.347	5.46
202.566	-88.75
202.785	19.8
203.004	-21.16
203.223	71
203.442	-23.21
203.661	23.89
203.879	-2.73
204.098	27.99
204.317	23.89
204.536	-4.78
204.755	-2.73
204.974	42.32
205.193	23.89
205.411	93.52
205.63	79.19
205.849	64.85
206.068	38.23
206.287	19.8
206.505	-8.87
206.724	-4.78
206.943	77.14
207.162	21.85
207.381	40.28
207.599	11.61
207.818	9.56
208.037	5.46
208.255	17.75
208.474	-25.26
208.693	7.51
208.911	11.61
209.13	50.52
209.349	-23.21
209.567	-72.36
209.786	58.71
210.005	-2.73
210.223	48.47
210.442	32.08
210.661	7.51
210.879	40.28
211.098	15.7
211.316	1.37
211.535	36.18
211.753	-21.16
211.972	-10.92
212.191	36.18
212.409	34.13
212.628	40.28
212.846	-25.26
213.065	1.37
213.283	79.19
213.502	15.7
213.72	60.76
213.938	36.18
214.157	60.76
214.375	-2.73
214.594	-17.07
214.812	93.52
215.031	-33.45
215.249	-23.21
215.467	17.75
215.686	5.46
215.904	11.61
216.122	-4.78
216.341	185.68
216.559	27.99
216.778	-6.83
216.996	-66.22
217.214	21.85
217.432	30.04
217.651	-23.21
217.869	30.04
218.087	-27.31
218.306	85.33
218.524	19.8
218.742	34.13
218.96	50.52
219.179	56.66
219.397	89.43
219.615	30.04
219.833	7.51
220.051	-6.83
220.27	13.65
220.488	83.28
220.706	15.7
220.924	34.13
221.142	38.23
221.36	54.61
221.578	97.62
221.796	-2.73
222.015	-4.78
222.233	48.47
222.451	13.65
222.669	-19.11
222.887	13.65
223.105	-0.68
223.323	23.89
223.541	34.13
223.759	-68.27
223.977	56.66
224.195	66.9
224.413	56.66
224.631	5.46
224.849	34.13
225.067	93.52
225.285	-10.92
225.503	-35.5
225.721	-23.21
225.939	40.28
226.157	58.71
226.375	-8.87
226.592	1.37
226.81	81.24
227.028	116.05
227.246	87.38
227.464	34.13
227.682	83.28
227.9	30.04
228.117	44.37
228.335	-0.68
228.553	-45.74
228.771	54.61
228.989	9.56
229.206	46.42
229.424	-2.73
229.642	27.99
229.86	52.56
230.077	77.14
230.295	-2.73
230.513	36.18
230.731	46.42
230.948	152.92
231.166	36.18
231.384	13.65
231.601	7.51
231.819	71
232.037	38.23
232.254	-2.73
232.472	17.75
232.689	-17.07
232.907	101.72
233.125	7.51
233.342	30.04
233.56	-41.64
233.777	-29.35
233.995	-25.26
234.213	7.51
234.43	3.41
234.648	-12.97
234.865	25.94
235.083	54.61
235.3	-8.87
235.518	3.41
235.735	15.7
235.953	46.42
236.17	19.8
236.388	-37.55
236.605	32.08
236.822	-17.07
237.04	66.9
237.257	77.14
237.475	-76.46
237.692	19.8
237.909	5.46
238.127	30.04
238.344	52.56
238.562	-2.73
238.779	11.61
238.996	-10.92
239.214	48.47
239.431	54.61
239.648	21.85
239.865	30.04
240.083	83.28
240.3	-2.73
240.517	-23.21
240.735	58.71
240.952	46.42
241.169	23.89
241.386	1.37
241.603	25.94
241.821	-66.22
242.038	56.66
242.255	17.75
242.472	25.94
242.689	15.7
242.907	60.76
243.124	66.9
243.341	-4.78
243.558	17.75
243.775	-8.87
243.992	60.76
244.209	58.71
244.426	1.37
244.643	13.65
244.86	15.7
245.078	15.7
245.295	71
245.512	7.51
245.729	-66.22
245.946	-21.16
246.163	-21.16
246.38	-19.11
246.597	23.89
246.814	54.61
247.031	-33.45
247.248	66.9
247.464	-10.92
247.681	30.04
247.898	23.89
248.115	60.76
248.332	-10.92
248.549	-19.11
248.766	-4.78
248.983	19.8
249.2	17.75
249.417	48.47
249.633	42.32
249.85	19.8
250.067	9.56
250.284	-55.98
250.501	27.99
250.717	-2.73
250.934	46.42
251.151	32.08
251.368	-58.03
251.585	-4.78
251.801	77.14
252.018	23.89
252.235	-17.07
252.451	7.51
252.668	5.46
252.885	13.65
253.102	42.32
253.318	23.89
253.535	-64.17
253.752	25.94
253.968	38.23
254.185	-33.45
254.401	34.13
254.618	11.61
254.835	25.94
255.051	11.61
255.268	-29.35
255.484	79.19
255.701	19.8
255.917	-68.27
256.134	-64.17
256.351	54.61
256.567	-17.07
256.784	17.75
257	48.47
257.217	34.13
257.433	-2.73
257.65	-21.16
257.866	38.23
258.082	40.28
258.299	3.41
258.515	21.85
258.732	-29.35
258.948	42.32
259.165	114
259.381	11.61
259.597	17.75
259.814	-10.92
260.03	-51.88
260.246	23.89
260.463	11.61
260.679	32.08
260.895	-47.79
261.112	23.89
261.328	-6.83
261.544	19.8
261.761	83.28
261.977	-45.74
262.193	85.33
262.409	-15.02
262.626	19.8
262.842	40.28
263.058	44.37
263.274	56.66
263.49	15.7
263.707	11.61
263.923	25.94
264.139	32.08
264.355	25.94
264.571	111.96
264.787	5.46
265.004	30.04
265.22	-15.02
265.436	44.37
265.652	-12.97
265.868	25.94
266.084	30.04
266.3	-55.98
266.516	40.28
266.732	-6.83
266.948	38.23
267.164	66.9
267.38	32.08
267.596	68.95
267.812	23.89
268.028	38.23
268.244	-39.59
268.46	17.75
268.676	87.38
268.892	5.46
269.108	34.13
269.324	-2.73
269.54	-12.97
269.756	75.09
269.972	-31.4
270.188	79.19
270.403	-25.26
270.619	27.99
270.835	11.61
271.051	38.23
271.267	15.7
271.483	25.94
271.698	9.56
271.914	5.46
272.13	-23.21
272.346	21.85
272.562	13.65
272.777	52.56
272.993	-10.92
273.209	9.56
273.425	7.51
273.64	-27.31
273.856	42.32
274.072	13.65
274.287	48.47
274.503	9.56
274.719	23.89
274.934	30.04
275.15	-12.97
275.366	36.18
275.581	-39.59
275.797	13.65
276.012	25.94
276.228	21.85
276.444	-37.55
276.659	-15.02
276.875	-6.83
277.09	48.47
277.306	-2.73
277.521	87.38
277.737	23.89
277.952	25.94
278.168	11.61
278.383	15.7
278.599	-4.78
278.814	-31.4
279.03	30.04
279.245	52.56
279.461	42.32
279.676	19.8
279.892	42.32
280.107	91.48
280.322	54.61
280.538	109.91
280.753	-49.83
280.969	36.18
281.184	9.56
281.399	25.94
281.615	11.61
281.83	73.04
282.045	36.18
282.26	5.46
282.476	-4.78
282.691	60.76
282.906	17.75
283.122	-23.21
283.337	-62.12
283.552	56.66
283.767	11.61
283.983	58.71
284.198	5.46
284.413	-6.83
284.628	-17.07
284.843	81.24
285.058	27.99
285.274	17.75
285.489	-60.07
285.704	23.89
285.919	-2.73
286.134	56.66
286.349	5.46
286.564	25.94
286.779	30.04
286.995	97.62
287.21	-17.07
287.425	7.51
287.64	-4.78
287.855	44.37
288.07	15.7
288.285	-10.92
288.5	77.14
288.715	44.37
288.93	44.37
289.145	-37.55
289.36	27.99
289.575	68.95
289.79	9.56
290.004	73.04
290.219	30.04
290.434	66.9
290.649	71
290.864	7.51
291.079	58.71
291.294	-23.21
291.509	54.61
291.724	-17.07
291.938	-23.21
292.153	75.09
292.368	-51.88
292.583	40.28
292.798	-21.16
293.012	-23.21
293.227	42.32
293.442	21.85
293.657	56.66
293.871	30.04
294.086	-35.5
294.301	-2.73
294.516	73.04
294.73	17.75
294.945	-76.46
295.16	23.89
295.374	-17.07
295.589	101.72
295.804	58.71
296.018	48.47
296.233	-51.88
296.447	42.32
296.662	21.85
296.877	38.23
297.091	7.51
297.306	42.32
297.52	-55.98
297.735	95.57
297.949	52.56
298.164	1.37
298.378	42.32
298.593	27.99
298.807	11.61
299.022	91.48
299.236	-0.68
299.451	19.8
299.665	91.48
299.88	7.51
300.094	27.99
300.309	54.61
300.523	54.61
300.737	56.66
300.952	54.61
301.166	-4.78
301.381	21.85
301.595	21.85
301.809	15.7
302.024	32.08
302.238	34.13
302.452	44.37
302.667	-15.02
302.881	105.81
303.095	7.51
303.309	68.95
303.524	17.75
303.738	13.65
303.952	25.94
304.166	-41.64
304.381	-6.83
304.595	9.56
304.809	21.85
305.023	71
305.237	-2.73
305.452	60.76
305.666	-19.11
305.88	5.46
306.094	-2.73
306.308	89.43
306.522	79.19
306.736	54.61
306.95	19.8
307.164	11.61
307.379	11.61
307.593	105.81
307.807	-0.68
308.021	-23.21
308.235	34.13
308.449	58.71
308.663	-4.78
308.877	89.43
309.091	23.89
309.305	30.04
309.519	11.61
309.733	40.28
309.947	56.66
310.161	97.62
310.374	23.89
310.588	25.94
310.802	-0.68
311.016	40.28
311.23	21.85
311.444	50.52
311.658	32.08
311.872	107.86
312.085	95.57
312.299	50.52
312.513	97.62
312.727	44.37
312.941	-43.69
313.154	58.71
313.368	64.85
313.582	52.56
313.796	1.37
314.009	38.23
314.223	101.72
314.437	66.9
314.651	-0.68
314.864	58.71
315.078	91.48
315.292	68.95
315.505	25.94
315.719	130.39
315.933	23.89
316.146	52.56
316.36	-4.78
316.573	142.68
316.787	79.19
317.001	93.52
317.214	44.37
317.428	5.46
317.641	30.04
317.855	42.32
318.068	62.8
318.282	-17.07
318.495	48.47
318.709	21.85
318.922	60.76
319.136	75.09
319.349	27.99
319.563	46.42
319.776	-19.11
319.99	9.56
320.203	25.94
320.417	68.95
320.63	3.41
320.843	83.28
321.057	77.14
321.27	-43.69
321.483	-0.68
321.697	85.33
321.91	64.85
322.124	128.34
322.337	44.37
322.55	58.71
322.763	36.18
322.977	62.8
323.19	-15.02
323.403	-60.07
323.617	95.57
323.83	73.04
324.043	81.24
324.256	44.37
324.469	107.86
324.683	-25.26
324.896	-74.41
325.109	25.94
325.322	9.56
325.535	128.34
325.748	-12.97
325.962	32.08
326.175	48.47
326.388	68.95
326.601	44.37
326.814	3.41
327.027	79.19
327.24	89.43
327.453	5.46
327.666	60.76
327.879	124.24
328.092	36.18
328.305	-25.26
328.518	42.32
328.731	50.52
328.944	-12.97
329.157	21.85
329.37	58.71
329.583	122.2
329.796	73.04
330.009	-82.6
330.222	66.9
330.435	36.18
330.648	64.85
330.861	-8.87
331.073	81.24
331.286	-2.73
331.499	52.56
331.712	-49.83
331.925	91.48
332.138	58.71
332.35	23.89
332.563	19.8
332.776	64.85
332.989	5.46
333.202	103.76
333.414	56.66
333.627	25.94
333.84	1.37
334.053	97.62
334.265	56.66
334.478	60.76
334.691	1.37
334.903	23.89
335.116	-4.78
335.329	13.65
335.541	50.52
335.754	-17.07
335.966	23.89
336.179	83.28
336.392	79.19
336.604	120.15
336.817	46.42
337.029	46.42
337.242	38.23
337.454	56.66
337.667	66.9
337.88	77.14
338.092	27.99
338.305	79.19
338.517	32.08
338.729	42.32
338.942	124.24
339.154	-19.11
339.367	52.56
339.579	17.75
339.792	-12.97
340.004	89.43
340.217	17.75
340.429	83.28
340.641	-31.4
340.854	38.23
341.066	-8.87
341.278	38.23
341.491	71
341.703	62.8
341.915	25.94
342.128	3.41
342.34	-10.92
342.552	38.23
342.764	27.99
342.977	-12.97
343.189	81.24
343.401	44.37
343.613	-15.02
343.826	-10.92
344.038	-27.31
344.25	77.14
344.462	17.75
344.674	34.13
344.886	25.94
345.099	19.8
345.311	85.33
345.523	40.28
345.735	-0.68
345.947	66.9
346.159	42.32
346.371	34.13
346.583	-19.11
346.795	11.61
347.007	13.65
347.219	13.65
347.431	11.61
347.643	-8.87
347.855	30.04
348.067	1.37
348.279	46.42
348.491	36.18
348.703	79.19
348.915	21.85
349.127	17.75
349.339	32.08
349.551	71
349.763	83.28
349.975	36.18
350.187	52.56
350.399	62.8
350.61	128.34
350.822	34.13
351.034	58.71
351.246	17.75
351.458	-35.5
351.669	103.76
351.881	58.71
352.093	73.04
352.305	130.39
352.517	-25.26
352.728	56.66
352.94	42.32
353.152	87.38
353.363	11.61
353.575	87.38
353.787	54.61
353.999	34.13
354.21	17.75
354.422	77.14
354.633	58.71
354.845	66.9
355.057	38.23
355.268	32.08
355.48	68.95
355.692	25.94
355.903	32.08
356.115	5.46
356.326	27.99
356.538	32.08
356.749	32.08
356.961	48.47
357.172	13.65
357.384	105.81
357.595	114
357.807	97.62
358.018	48.47
358.23	93.52
358.441	144.72
358.653	134.48
358.864	17.75
359.075	32.08
359.287	52.56
359.498	36.18
359.709	36.18
359.921	71
360.132	83.28
360.344	21.85
360.555	-10.92
360.766	83.28
360.977	11.61
361.189	50.52
361.4	56.66
361.611	34.13
361.823	-27.31
362.034	17.75
362.245	34.13
362.456	42.32
362.667	107.86
362.879	-0.68
363.09	56.66
363.301	83.28
363.512	38.23
363.723	7.51
363.935	107.86
364.146	71
364.357	81.24
364.568	11.61
364.779	21.85
364.99	132.44
365.201	103.76
365.412	25.94
365.623	73.04
365.834	109.91
366.045	73.04
366.256	126.29
366.467	42.32
366.678	89.43
366.889	60.76
367.1	77.14
367.311	50.52
367.522	30.04
367.733	118.1
367.944	25.94
368.155	44.37
368.366	32.08
368.577	34.13
368.788	97.62
368.999	-35.5
369.209	-23.21
369.42	116.05
369.631	36.18
369.842	3.41
370.053	107.86
370.264	32.08
370.474	21.85
370.685	3.41
370.896	56.66
371.107	64.85
371.317	111.96
371.528	60.76
371.739	56.66
371.95	30.04
372.16	109.91
372.371	7.51
372.582	75.09
372.792	64.85
373.003	66.9
373.214	44.37
373.424	81.24
373.635	46.42
373.846	77.14
374.056	66.9
374.267	50.52
374.477	83.28
374.688	-2.73
374.898	7.51
375.109	71
375.319	73.04
375.53	30.04
375.74	30.04
375.951	19.8
376.161	81.24
376.372	163.15
376.582	-10.92
376.793	34.13
377.003	122.2
377.214	62.8
377.424	60.76
377.635	124.24
377.845	52.56
378.055	83.28
378.266	50.52
378.476	50.52
378.686	-8.87
378.897	15.7
379.107	62.8
379.317	-12.97
379.528	19.8
379.738	42.32
379.948	64.85
380.158	50.52
380.369	15.7
380.579	95.57
380.789	19.8
380.999	91.48
381.21	21.85
381.42	107.86
381.63	83.28
381.84	68.95
382.05	50.52
382.261	56.66
382.471	116.05
382.681	-17.07
382.891	111.96
383.101	87.38
383.311	99.67
383.521	64.85
383.731	38.23
383.941	122.2
384.151	30.04
384.361	68.95
384.571	64.85
384.781	128.34
384.991	58.71
385.201	81.24
385.411	111.96
385.621	89.43
385.831	-23.21
386.041	66.9
386.251	75.09
386.461	81.24
386.671	40.28
386.881	56.66
387.091	50.52
387.301	71
387.511	89.43
387.72	56.66
387.93	103.76
388.14	5.46
388.35	85.33
388.56	89.43
388.769	83.28
388.979	71
389.189	54.61
389.399	50.52
389.609	75.09
389.818	64.85
390.028	46.42
390.238	91.48
390.447	75.09
390.657	42.32
390.867	40.28
391.076	-47.79
391.286	75.09
391.496	52.56
391.705	85.33
391.915	66.9
392.125	48.47
392.334	-23.21
392.544	146.77
392.753	-6.83
392.963	107.86
393.172	114
393.382	68.95
393.591	157.01
393.801	56.66
394.01	150.87
394.22	19.8
394.429	101.72
394.639	189.78
394.848	107.86
395.058	83.28
395.267	27.99
395.477	120.15
395.686	122.2
395.895	85.33
396.105	140.63
396.314	87.38
396.524	50.52
396.733	157.01
396.942	71
397.152	161.11
397.361	140.63
397.57	132.44
397.78	75.09
397.989	103.76
398.198	132.44
398.407	111.96
398.617	73.04
398.826	105.81
399.035	93.52
399.244	146.77
399.453	138.58
399.663	103.76
399.872	161.11
400.081	93.52
400.29	134.48
400.499	27.99
400.708	109.91
400.917	81.24
401.127	161.11
401.336	93.52
401.545	157.01
401.754	140.63
401.963	204.11
402.172	114
402.381	66.9
402.59	134.48
402.799	130.39
403.008	169.3
403.217	210.26
403.426	175.44
403.635	142.68
403.844	87.38
404.053	111.96
404.262	181.59
404.471	134.48
404.68	257.36
404.888	193.87
405.097	197.97
405.306	116.05
405.515	165.2
405.724	150.87
405.933	152.92
406.142	212.31
406.35	195.92
406.559	292.18
406.768	195.92
406.977	189.78
407.185	181.59
407.394	179.54
407.603	230.74
407.812	169.3
408.02	234.83
408.229	318.8
408.438	302.42
408.646	243.03
408.855	240.98
409.064	273.75
409.272	361.81
409.481	345.42
409.69	271.7
409.898	355.66
410.107	353.62
410.315	359.76
410.524	333.14
410.733	429.39
410.941	406.86
411.15	492.88
411.358	388.43
411.567	501.07
411.775	462.16
411.984	406.86
412.192	466.25
412.401	521.55
412.609	566.6
412.818	552.27
413.026	517.45
413.234	546.13
413.443	591.18
413.651	662.86
413.86	585.04
414.068	660.81
414.276	722.25
414.485	648.52
414.693	724.3
414.901	791.88
415.11	818.5
415.318	814.41
415.526	832.84
415.734	886.09
415.943	884.04
416.151	996.68
416.359	959.81
416.567	953.67
416.776	1015.11
416.984	1119.56
417.192	1191.24
417.4	1140.04
417.608	1150.28
417.817	1238.34
418.025	1267.01
418.233	1328.45
418.441	1346.88
418.649	1375.55
418.857	1498.43
419.065	1572.16
419.273	1490.24
419.481	1543.49
419.689	1738.04
419.897	1725.75
420.105	1811.77
420.313	1797.43
420.521	1840.44
420.729	1883.45
420.937	1969.46
421.145	2090.29
421.353	2184.5
421.561	2198.84
421.769	2252.08
421.977	2426.16
422.185	2364.72
422.393	2596.14
422.601	2678.06
422.809	2682.16
423.017	2688.3
423.224	2682.16
423.432	2807.08
423.64	2897.19
423.848	3145
424.056	3032.36
424.263	3276.07
424.471	3343.65
424.679	3323.17
424.887	3601.69
425.094	3726.62
425.302	3835.16
425.51	3812.64
425.718	3857.69
425.925	4160.79
426.133	4222.23
426.341	4338.96
426.548	4547.86
426.756	4541.71
426.964	4572.43
427.171	4951.31
427.379	5039.37
427.586	5117.19
427.794	5289.22
428.001	5539.07
428.209	5780.73
428.417	5760.25
428.624	6063.35
428.832	5887.23
429.039	5954.81
429.247	6126.84
429.454	6630.64
429.662	6939.88
429.869	6612.21
430.076	7191.78
430.284	6817.01
430.491	7410.92
430.699	7632.1
430.906	7630.05
431.114	7701.73
431.321	8074.46
431.528	8164.57
431.736	8553.68
431.943	9194.7
432.15	9020.62
432.358	8985.8
432.565	9612.48
432.772	9569.48
432.979	10114.23
433.187	10013.88
433.394	10204.35
433.601	11021.49
433.808	10822.83
434.016	10831.02
434.223	11097.26
434.43	12037.28
434.637	11596.96
434.844	12354.71
435.052	12756.11
435.259	12741.78
435.466	12770.45
435.673	12545.17
435.88	13479.05
436.087	14107.77
436.294	14244.99
436.501	13825.15
436.708	14103.68
436.915	14853.23
437.122	15252.59
437.329	15400.04
437.537	15674.47
437.743	15858.79
437.95	15946.85
438.157	16581.72
438.364	17163.34
438.571	17019.99
438.778	17146.96
438.985	18863.16
439.192	18334.78
439.399	18996.28
439.606	18267.2
439.813	19452.97
440.02	20593.69
440.227	20386.85
440.433	19835.94
440.64	20884.5
440.847	20702.23
441.054	21165.07
441.261	22424.58
441.467	22213.63
441.674	22604.8
441.881	23419.89
442.088	23630.83
442.294	22883.32
442.501	23944.17
442.708	24136.68
442.914	25334.74
443.121	26006.47
443.328	25818.06
443.534	27507.63
443.741	26807.23
443.948	26569.66
444.154	28423.08
444.361	28048.3
444.568	28373.92
444.774	28369.83
444.981	28691.36
445.187	29459.35
445.394	30550.92
445.6	30335.88
445.807	33467.22
446.013	31890.29
446.22	32662.37
446.426	33987.41
446.633	33479.51
446.839	35087.17
447.046	33620.82
447.252	35562.29
447.459	35814.19
447.665	35328.83
447.871	37063.46
448.078	38390.54
448.284	36516.65
448.491	37612.31
448.697	39195.39
448.903	39682.81
449.11	39918.32
449.316	39353.08
449.522	40057.59
449.728	40739.56
449.935	41175.78
450.141	41102.05
450.347	42046.16
450.553	40438.51
450.76	40991.46
450.966	42670.79
451.172	41863.89
451.378	43184.83
451.584	42093.27
451.791	43047.62
451.997	42697.42
452.203	43707.07
452.409	43121.35
452.615	43356.86
452.821	41954.01
453.027	41145.06
453.233	43414.21
453.44	41855.7
453.646	42271.44
453.852	42392.27
454.058	42875.59
454.264	41614.04
454.47	42511.05
454.676	41321.18
454.882	43240.13
455.088	39068.42
455.294	39604.99
455.5	39846.65
455.705	40110.83
455.911	38783.75
456.117	38107.92
456.323	37425.95
456.529	35754.8
456.735	37079.84
456.941	36127.53
457.147	35732.28
457.352	34382.66
457.558	34114.38
457.764	34011.98
457.97	33444.69
458.176	32834.4
458.381	32709.47
458.587	31210.36
458.793	31142.78
458.999	29359
459.204	31650.67
459.41	30823.29
459.616	28746.65
459.821	28554.15
460.027	28713.89
460.233	27927.47
460.438	26694.59
460.644	26504.13
460.85	25748.43
461.055	25410.51
461.261	25322.45
461.466	23270.39
461.672	22828.02
461.878	24605.66
462.083	22619.13
462.289	22268.93
462.494	21892.1
462.7	21087.25
462.905	20706.33
463.111	21218.32
463.316	21453.84
463.522	21160.98
463.727	20833.3
463.932	20995.09
464.138	20661.27
464.343	20876.31
464.549	20433.95
464.754	21077.01
464.959	20884.5
465.165	20524.06
465.37	19584.04
465.575	19403.82
465.781	20208.67
465.986	20321.31
466.191	19442.73
466.397	18867.25
466.602	18330.69
466.807	18807.86
467.012	18834.49
467.218	18787.38
467.423	18482.24
467.628	18897.97
467.833	19573.8
468.038	18701.37
468.244	18109.5
468.449	18979.89
468.654	18424.89
468.859	18111.55
469.064	18056.26
469.269	17280.08
469.474	17544.27
469.679	17796.17
469.885	17198.16
470.09	17712.2
470.295	17304.65
470.5	17093.71
470.705	16999.51
470.91	17153.1
471.115	16618.58
471.32	16778.33
471.525	16766.04
471.73	16278.62
471.935	16235.61
472.139	15592.55
472.344	15875.17
472.549	15662.18
472.754	15537.26
472.959	15086.7
473.164	15123.57
473.369	14419.07
473.574	15119.47
473.778	15019.12
473.983	15107.18
474.188	14836.85
474.393	14267.52
474.598	14470.26
474.802	14095.49
475.007	14134.4
475.212	14271.61
475.417	13487.24
475.621	13786.24
475.826	13679.75
476.031	13317.26
476.235	13214.86
476.44	13284.49
476.645	12983.44
476.849	12997.77
477.054	12944.53
477.259	12653.72
477.463	12682.39
477.668	12444.82
477.872	12575.89
478.077	12467.35
478.282	12108.96
478.486	11951.26
478.691	11865.25
478.895	11783.33
479.1	11857.06
479.304	11818.14
479.509	11402.41
479.713	11852.96
479.918	11480.23
480.122	11295.91
480.326	11396.26
480.531	11568.29
480.735	11478.18
480.94	11218.09
481.144	11660.45
481.348	10978.48
481.553	11222.19
481.757	11048.11
481.961	11250.86
482.166	11367.59
482.37	11240.62
482.574	11125.93
482.778	11052.2
482.983	11336.87
483.187	11185.32
483.391	11117.74
483.595	11187.37
483.8	10917.04
484.004	10876.08
484.208	11203.75
484.412	10935.47
484.616	11168.94
484.821	11277.48
485.025	10806.45
485.229	11132.08
485.433	10927.28
485.637	10947.76
485.841	10974.38
486.045	11023.53
486.249	11140.27
486.453	10914.99
486.657	11164.84
486.861	11060.4
487.065	10699.95
487.269	11044.01
487.473	10933.42
487.677	11220.14
487.881	11127.98
488.085	11082.92
488.289	11103.4
488.493	11175.08
488.697	11304.1
488.901	11269.29
489.105	11275.43
489.309	11166.89
489.512	11320.49
489.716	11359.4
489.92	11183.27
490.124	11193.51
490.328	11447.46
490.531	11158.7
490.735	11316.39
490.939	11386.02
491.143	11326.63
491.346	11506.85
491.55	11510.95
491.754	11576.48
491.958	11699.36
492.161	11562.15
492.365	11834.53
492.569	11642.02
492.772	11515.05
492.976	11977.89
493.18	11834.53
493.383	12057.76
493.587	12190.88
493.79	12092.57
493.994	12063.9
494.197	12045.47
494.401	12291.23
494.605	12309.66
494.808	12602.52
495.012	12418.2
495.215	12686.48
495.419	12987.54
495.622	12741.78
495.825	12973.2
496.029	12981.39
496.232	13577.35
496.436	13300.87
496.639	13550.73
496.843	13448.33
497.046	13708.42
497.249	13759.62
497.453	13880.45
497.656	14167.17
497.859	14161.02
498.063	14431.35
498.266	14603.38
498.469	14427.26
498.673	14949.49
498.876	14857.33
499.079	15279.21
499.282	14978.16
499.485	15533.16
499.689	15453.29
499.892	15783.01
500.095	15871.08
500.298	16106.59
500.501	15957.09
500.705	16489.56
500.908	16655.45
501.111	16913.49
501.314	16909.4
501.517	17357.9
501.72	17329.23
501.923	17163.34
502.126	17609.8
502.329	18111.55
502.532	18138.18
502.735	18365.5
502.938	18609.21
503.141	18617.4
503.344	18838.58
503.547	19053.62
503.75	19518.51
503.953	19735.59
504.156	19512.36
504.359	20112.42
504.562	19967.01
504.765	20565.02
504.968	20679.71
505.17	21017.62
505.373	21142.55
505.576	21595.15
505.779	21335.06
505.982	21357.58
506.185	22070.28
506.387	22209.54
506.59	22713.34
506.793	22987.77
506.996	22838.26
507.198	23653.36
507.401	23507.95
507.604	23395.31
507.807	24288.23
508.009	24435.68
508.212	24433.63
508.415	24529.89
508.617	25187.28
508.82	25072.6
509.022	25234.39
509.225	25945.03
509.428	26084.3
509.63	26112.97
509.833	26274.76
510.035	26936.25
510.238	26782.65
510.44	27130.81
510.643	27765.68
510.845	27628.46
511.048	27898.8
511.25	28201.89
511.453	28177.32
511.655	29526.93
511.858	29168.54
512.06	29150.1
512.262	29762.45
512.465	29918.09
512.667	30176.14
512.87	30641.03
513.072	30452.61
513.274	31056.76
513.477	31355.77
513.679	32213.87
513.881	31964.01
514.084	32539.49
514.286	32562.02
514.488	33096.54
514.69	33721.17
514.893	33899.34
515.095	33913.68
515.297	34278.22
515.499	34495.3
515.701	35040.06
515.904	35382.07
516.106	35025.73
516.308	35799.86
516.51	36440.87
516.712	36440.87
516.914	36948.77
517.116	37264.16
517.318	37563.16
517.52	37815.06
517.722	37778.2
517.925	38413.07
518.127	39078.66
518.329	38972.16
518.531	39162.62
518.733	39924.47
518.935	39811.83
519.136	39832.31
519.338	40930.02
519.54	41122.53
519.742	41468.64
519.944	41439.96
520.146	42494.67
520.348	42556.11
520.55	42767.05
520.752	43117.25
520.954	43944.63
521.155	43846.33
521.357	43793.08
521.559	44151.48
521.761	45126.31
521.963	44913.32
522.164	44778.15
522.366	45275.81
522.568	45697.69
522.77	45742.75
522.971	46520.98
523.173	46291.6
523.375	46826.12
523.576	47174.28
523.778	47354.5
523.98	47762.04
524.181	47979.13
524.383	48190.07
524.584	48583.28
524.786	48614
524.988	48691.82
525.189	49132.14
525.391	49848.92
525.592	49336.93
525.794	49949.28
525.995	50080.35
526.197	50518.61
526.398	50498.13
526.6	50621.01
526.801	50930.25
527.003	51507.78
527.204	50952.78
527.406	51276.36
527.607	52148.79
527.808	51911.23
528.01	51391.05
528.211	51900.99
528.412	52773.42
528.614	52554.29
528.815	52243
529.016	53326.38
529.218	52544.05
529.419	53025.32
529.62	52816.43
529.822	52916.78
530.023	53066.28
530.224	53070.38
530.425	53457.45
530.626	52924.97
530.828	53420.58
531.029	54217.24
531.23	53373.48
531.431	53619.24
531.632	54221.34
531.833	54159.9
532.035	54172.19
532.236	54104.6
532.437	54323.74
532.638	54135.32
532.839	54456.85
533.04	54311.45
533.241	53535.27
533.442	55331.34
533.643	54252.06
533.844	54843.92
534.045	54770.19
534.246	54008.35
534.447	55276.04
534.648	54405.66
534.849	54884.88
535.05	54407.7
535.251	54827.54
535.451	54870.54
535.652	55048.72
535.853	55265.8
536.054	55007.76
536.255	54782.48
536.456	54235.67
536.657	55632.39
536.857	55134.73
537.058	54331.93
537.259	55099.92
537.46	55331.34
537.66	54864.4
537.861	55288.33
538.062	54686.23
538.263	55075.34
538.463	54938.13
538.664	54557.2
538.865	54927.89
539.065	55372.3
539.266	54452.76
539.466	55317
539.667	54012.45
539.868	55110.16
540.068	54858.26
540.269	54688.27
540.469	55540.23
540.67	54594.07
540.87	55415.3
541.071	54948.37
541.271	55415.3
541.472	55237.13
541.672	54999.57
541.873	54745.62
542.073	54364.7
542.274	55536.13
542.474	54653.46
542.675	54460.95
542.875	55118.35
543.075	54585.88
543.276	53885.47
543.476	55276.04
543.676	54776.34
543.877	54901.26
544.077	55018
544.277	54592.02
544.478	54762
544.678	55638.53
544.878	54839.82
545.078	54858.26
545.279	54354.46
545.479	54323.74
545.679	54669.84
545.879	54774.29
546.079	54934.03
546.28	54911.5
546.48	54630.93
546.68	55177.74
546.88	54905.36
547.08	54792.72
547.28	54696.47
547.48	54110.75
547.68	54884.88
547.88	54266.39
548.081	54913.55
548.281	54921.74
548.481	54522.39
548.681	54729.23
548.881	55048.72
549.081	54516.25
549.28	54196.76
549.48	54956.56
549.68	54413.85
549.88	55282.19
550.08	54012.45
550.28	54581.78
550.48	54651.41
550.68	55020.05
550.88	54442.52
551.08	54503.96
551.279	54352.41
551.479	54338.07
551.679	54874.64
551.879	54829.58
552.079	54594.07
552.278	54520.34
552.478	54718.99
552.678	54407.7
552.878	55009.81
553.077	54544.92
553.277	53479.97
553.477	54778.39
553.676	54286.87
553.876	54594.07
554.076	53963.29
554.275	54096.41
554.475	53631.52
554.674	53891.61
554.874	54315.54
555.074	54180.38
555.273	54639.12
555.473	54698.51
555.672	53774.88
555.872	54077.98
556.071	53994.01
556.271	54321.69
556.47	53529.12
556.67	53498.4
556.869	53766.69
557.068	53832.22
557.268	53414.44
557.467	53729.83
557.667	53643.81
557.866	53719.59
558.065	53377.57
558.265	53635.62
558.464	52834.86
558.663	53791.26
558.863	52544.05
559.062	53791.26
559.261	52763.18
559.461	53350.95
559.66	52275.77
559.859	53309.99
560.058	52423.22
560.258	52988.46
560.457	52234.81
560.656	52890.16
560.855	52138.55
561.054	52455.99
561.253	52144.7
561.453	52353.59
561.652	52544.05
561.851	52417.08
562.05	51614.27
562.249	51864.13
562.448	51814.97
562.647	52013.63
562.846	51956.28
563.045	51982.91
563.244	51538.5
563.443	52193.85
563.642	51415.62
563.841	51690.05
564.04	51147.34
564.239	52257.34
564.438	50743.89
564.637	51178.06
564.836	51145.29
565.035	50747.98
565.234	51192.39
565.432	50760.27
565.631	50371.16
565.83	51221.06
566.029	50403.92
566.228	50711.12
566.427	50457.17
566.625	50076.25
566.824	49105.51
567.023	50365.01
567.222	49259.11
567.42	50037.34
567.619	49812.06
567.818	50039.39
568.016	49001.07
568.215	49564.26
568.414	49539.68
568.612	49769.05
568.811	49039.98
569.01	49343.08
569.208	48540.27
569.407	49138.28
569.605	48704.11
569.804	48800.36
570.002	47946.36
570.201	48888.43
570.4	48188.02
570.598	48110.2
570.797	47999.61
570.995	47944.31
571.193	47846.01
571.392	48052.86
571.59	47596.16
571.789	47643.26
571.987	47630.97
572.186	47565.44
572.384	47088.26
572.582	47618.69
572.781	47137.41
572.979	46936.71
573.177	47270.53
573.376	46942.86
573.574	46504.59
573.772	46625.42
573.971	46115.48
574.169	46144.15
574.367	45560.48
574.565	46291.6
574.763	46314.13
574.962	45705.88
575.16	45441.7
575.358	46008.98
575.556	45419.17
575.754	45750.94
575.952	44894.89
576.151	45650.59
576.349	44673.71
576.547	45185.7
576.745	44944.04
576.943	45214.37
577.141	44690.09
577.339	44985
577.537	44430
577.735	44718.76
577.933	44192.43
578.131	44511.92
578.329	44104.37
578.527	43764.41
578.725	44016.31
578.923	43950.77
579.121	43684.54
579.319	44083.89
579.516	44040.89
579.714	43526.85
579.912	43573.95
580.11	43264.71
580.308	43260.61
580.506	43293.38
580.704	42427.09
580.901	42859.21
581.099	42926.79
581.297	42511.05
581.495	42377.93
581.692	42851.02
581.89	42277.58
582.088	42851.02
582.285	42224.34
582.483	42588.88
582.681	42318.54
582.878	41931.48
583.076	41499.36
583.274	42142.42
583.471	41333.47
583.669	41745.11
583.866	41351.9
584.064	41472.73
584.262	41329.37
584.459	41454.3
584.657	40825.57
584.854	41319.13
585.052	40458.99
585.249	40827.62
585.447	40923.88
585.644	40033.01
585.841	40364.78
586.039	40798.95
586.236	39791.35
586.434	40176.37
586.631	40110.83
586.828	40028.91
587.026	40057.59
587.223	39930.61
587.42	39406.33
587.618	39555.83
587.815	39310.08
588.012	39482.11
588.21	39160.58
588.407	39471.87
588.604	39191.3
588.801	38361.87
588.999	38603.53
589.196	38830.85
589.393	38566.66
589.59	38335.24
589.787	38333.2
589.984	38488.84
590.182	37915.41
590.379	38501.13
590.576	37843.73
590.773	38073.1
590.97	37739.29
591.167	37970.71
591.364	37683.99
591.561	37514.01
591.758	37081.89
591.955	37376.79
592.152	37563.16
592.349	37223.2
592.546	37167.9
592.743	37366.56
592.94	36645.67
593.137	37147.42
593.334	36922.15
593.531	36459.31
593.727	36813.6
593.924	36477.74
594.121	36281.13
594.318	36784.93
594.515	35560.25
594.712	36375.34
594.908	35760.95
595.105	35775.28
595.302	35881.78
595.499	35926.83
595.696	35384.12
595.892	35158.84
596.089	35533.62
596.286	35388.22
596.482	35187.52
596.679	35214.14
596.876	34908.99
597.072	35001.15
597.269	34997.06
597.466	34796.35
597.662	34630.47
597.859	34407.24
598.055	34628.42
598.252	34607.94
598.448	34366.28
598.645	34175.82
598.841	33780.56
599.038	33889.1
599.234	33987.41
599.431	33811.28
599.627	33295.19
599.824	34054.99
600.02	33397.59
600.217	33446.74
600.413	33442.65
600.609	33221.47
600.806	33174.36
601.002	33448.79
601.198	32906.08
601.395	32807.78
601.591	32736.1
601.787	32611.17
601.984	32594.79
602.18	32783.2
602.376	32664.42
602.572	32564.07
602.769	32525.16
602.965	31882.09
603.161	31976.3
603.357	32301.93
603.553	31984.49
603.75	31824.75
603.946	31634.29
604.142	31834.99
604.338	31107.96
604.534	31611.76
604.73	31107.96
604.926	31298.42
605.122	31118.2
605.318	30860.16
605.514	30669.7
605.71	30733.18
605.906	30976.89
606.102	30819.2
606.298	30585.73
606.494	30837.63
606.69	30503.81
606.886	30491.52
607.082	30120.84
607.278	30571.39
607.474	29731.73
607.67	30278.54
607.866	29881.23
608.062	30487.43
608.257	29891.47
608.453	30030.73
608.649	30129.03
608.845	29787.02
609.041	29569.94
609.236	30047.11
609.432	29905.8
609.628	29598.61
609.824	29287.32
610.019	29471.64
610.215	29494.16
610.411	29469.59
610.606	29199.26
610.802	29289.37
610.998	28967.84
611.193	28963.74
611.389	29203.35
611.584	29168.54
611.78	29131.67
611.976	28935.07
612.171	29062.04
612.367	28707.74
612.562	29023.13
612.758	28343.2
612.953	28468.13
613.149	28914.59
613.344	28343.2
613.539	28806.05
613.735	28371.88
613.93	28451.75
614.126	28570.53
614.321	28550.05
614.517	28167.08
614.712	28332.97
614.907	27737.01
615.103	28232.61
615.298	28511.14
615.493	28384.16
615.688	27593.65
615.884	28539.81
616.079	27878.32
616.274	28048.3
616.47	27904.94
616.665	27685.81
616.86	27552.69
617.055	27575.22
617.25	27382.71
617.445	27743.15
617.641	27399.09
617.836	27675.57
618.031	26905.53
618.226	27046.84
618.421	26895.29
618.616	27306.93
618.811	26954.68
619.006	27286.45
619.201	26774.46
619.396	26735.55
619.591	26436.55
619.786	26602.43
619.981	26139.59
620.176	26485.7
620.371	25938.89
620.566	26254.28
620.761	25949.13
620.956	26131.4
621.151	25715.66
621.346	25730
621.541	25269.2
621.735	25553.87
621.93	25408.47
622.125	25367.51
622.32	25115.61
622.515	25015.26
622.709	24982.49
622.904	24794.07
623.099	25011.16
623.294	24693.72
623.488	24185.83
623.683	24454.11
623.878	23911.4
624.072	24011.75
624.267	23938.02
624.462	23643.12
624.656	23538.67
624.851	23542.77
625.046	23524.33
625.24	23317.49
625.435	23170.04
625.629	23055.35
625.824	22588.41
626.018	22846.46
626.213	22473.73
626.407	22801.4
626.602	22371.33
626.796	22756.35
626.991	22375.42
627.185	21910.53
627.38	22062.08
627.574	21574.67
627.768	21785.61
627.963	21695.5
628.157	21433.36
628.352	21574.67
628.546	21066.77
628.74	21531.66
628.935	20960.28
629.129	21163.03
629.323	20675.61
629.517	20775.96
629.712	20853.78
629.906	20802.58
630.1	20319.26
630.294	20458.53
630.489	20438.05
630.683	20517.92
630.877	20278.3
631.071	19960.87
631.265	19901.48
631.459	19586.09
631.653	19893.29
631.848	19586.09
632.042	19434.54
632.236	19473.45
632.43	18955.32
632.624	19188.78
632.818	19250.22
633.012	18924.6
633.206	18936.88
633.4	18883.64
633.594	18598.97
633.788	18560.06
633.982	18652.22
634.176	18467.9
634.369	18113.6
634.563	18531.39
634.757	18093.12
634.951	18119.74
635.145	18060.35
635.339	18003.01
635.533	17890.37
635.726	17923.14
635.92	17458.25
636.114	17452.11
636.308	17415.24
636.501	17630.28
636.695	17230.93
636.889	17386.57
637.083	17095.76
637.276	17040.47
637.47	16870.48
637.664	16788.57
637.857	16995.41
638.051	16553.05
638.244	16688.21
638.438	16399.45
638.632	16116.83
638.825	16225.37
639.019	15950.95
639.212	16268.38
639.406	16108.64
639.599	16036.96
639.793	16008.29
639.986	15830.12
640.18	15658.09
640.373	15721.57
640.567	15301.74
640.76	15545.45
640.954	15348.84
641.147	15346.8
641.34	15162.48
641.534	15199.34
641.727	15221.87
641.92	14941.3
642.114	15119.47
642.307	14701.68
642.5	14922.87
642.694	14556.28
642.887	14503.03
643.08	14666.87
643.273	14390.39
643.467	14234.75
643.66	14072.96
643.853	14281.85
644.046	14070.91
644.239	13935.74
644.432	13786.24
644.626	14003.33
644.819	13898.88
645.012	13812.87
645.205	13835.39
645.398	13806.72
645.591	13706.37
645.784	13733
645.977	13393.03
646.17	13436.04
646.363	13075.6
646.556	13292.68
646.749	13300.87
646.942	12891.28
647.135	13167.76
647.328	12874.9
647.521	12840.08
647.714	12846.23
647.907	12692.63
648.099	12760.21
648.292	12600.47
648.485	12561.56
648.678	12276.89
648.871	12285.08
649.064	12248.22
649.256	12317.85
649.449	12104.86
649.642	12217.5
649.835	11928.74
650.027	12082.33
650.22	11785.38
650.413	11963.55
650.605	11793.57
650.798	11523.24
650.991	11570.34
651.183	11777.19
651.376	11351.21
651.568	11463.85
651.761	11373.74
651.954	11404.46
652.146	11488.42
652.339	11089.07
652.531	11228.33
652.724	11203.75
652.916	10970.29
653.109	10974.38
653.301	11107.5
653.494	11044.01
653.686	10847.41
653.879	11097.26
654.071	10615.99
654.263	10644.66
654.456	10419.38
654.648	10788.02
654.84	10347.7
655.033	10521.78
655.225	10292.41
655.417	10190.01
655.61	10368.18
655.802	10224.83
655.994	10300.6
656.186	10286.26
656.379	10153.15
656.571	10185.91
656.763	10171.58
656.955	10095.8
657.148	10116.28
657.34	9835.71
657.532	9843.9
657.724	9837.76
657.916	9776.32
658.108	9755.84
658.3	9684.16
658.492	9522.37
658.684	9389.25
658.876	9583.81
659.068	9442.5
659.26	9391.3
659.452	9295.05
659.644	9284.81
659.836	9297.1
660.028	9278.66
660.22	9084.11
660.412	9065.67
660.604	9073.87
660.796	9028.81
660.988	8922.32
661.18	8873.17
661.372	8666.32
661.563	8864.97
661.755	8742.1
661.947	8631.51
662.139	8735.95
662.331	8707.28
662.522	8441.04
662.714	8574.16
662.906	8502.48
663.097	8529.11
663.289	8289.49
663.481	8158.42
663.673	8430.8
663.864	8299.73
664.056	8180.95
664.247	8176.86
664.439	8021.21
664.631	8076.51
664.822	7980.25
665.014	8178.9
665.205	8113.37
665.397	8049.88
665.588	7767.26
665.78	7816.41
665.971	7836.89
666.163	7779.55
666.354	7671.01
666.546	7900.38
666.737	7615.71
666.929	7490.79
667.12	7496.93
667.311	7699.68
667.503	7449.83
667.694	7550.18
667.885	7365.86
668.077	7521.51
668.268	7464.16
668.459	7341.29
668.651	7220.46
668.842	7253.22
669.033	7337.19
669.224	7079.15
669.416	7232.74
669.607	7312.61
669.798	7029.99
669.989	7095.53
670.18	7148.78
670.371	7113.96
670.563	6980.84
670.754	6939.88
670.945	6986.99
671.136	7058.67
671.327	6804.72
671.518	6829.29
671.709	6886.64
671.9	6790.38
672.091	6741.23
672.282	6690.03
672.473	6614.26
672.664	6708.46
672.855	6640.88
673.046	6638.83
673.237	6728.94
673.428	6587.63
673.619	6526.19
673.809	6628.59
674	6548.72
674.191	6470.9
674.382	6421.75
674.573	6438.13
674.764	6319.35
674.954	6272.25
675.145	6335.73
675.336	6429.94
675.527	6270.2
675.717	6448.37
675.908	6081.78
676.099	6239.48
676.289	6145.27
676.48	6135.03
676.671	6132.98
676.861	6055.16
677.052	5991.67
677.243	5989.63
677.433	6184.18
677.624	5989.63
677.814	5999.87
678.005	5971.19
678.195	5967.1
678.386	5903.61
678.576	5930.23
678.767	5743.87
678.957	5842.17
679.148	5807.36
679.338	5788.92
679.529	5813.5
679.719	5735.68
679.909	5842.17
680.1	5713.15
680.29	5776.64
680.481	5868.8
680.671	5649.66
680.861	5567.74
681.052	5604.61
681.242	5498.11
681.432	5758.21
681.622	5567.74
681.813	5690.62
682.003	5555.46
682.193	5428.48
682.383	5799.16
682.573	5414.15
682.764	5569.79
682.954	5489.92
683.144	5575.94
683.334	5395.71
683.524	5453.06
683.714	5346.56
683.904	5487.87
684.094	5424.39
684.284	5442.82
684.474	5391.62
684.664	5457.15
684.854	5307.65
685.044	5336.32
685.234	5367.04
685.424	5278.98
685.614	5356.8
685.804	5184.77
685.994	5192.97
686.184	5299.46
686.374	5199.11
686.564	5242.12
686.753	5098.76
686.943	5240.07
687.133	5166.34
687.323	5145.86
687.513	5154.05
687.702	4967.69
687.892	5076.23
688.082	4957.45
688.272	5039.37
688.461	4955.4
688.651	4848.91
688.841	4904.2
689.03	4947.21
689.22	4848.91
689.41	4967.69
689.599	5000.46
689.789	4941.07
689.979	4803.85
690.168	4797.71
690.358	4791.56
690.547	4730.13
690.737	4766.99
690.926	4795.66
691.116	4670.73
691.305	4889.87
691.495	4607.25
691.684	4562.19
691.874	4680.97
692.063	4654.35
692.252	4623.63
692.442	4654.35
692.631	4533.52
692.82	4637.97
693.01	4504.85
693.199	4457.75
693.388	4459.79
693.578	4592.91
693.767	4562.19
693.956	4381.97
694.146	4502.8
694.335	4433.17
694.524	4234.52
694.713	4472.08
694.902	4447.51
695.092	4472.08
695.281	4318.48
695.47	4388.11
695.659	4312.34
695.848	4318.48
696.037	4306.2
696.226	4500.75
696.415	4392.21
696.604	4302.1
696.793	4273.43
696.982	4367.63
697.171	4240.66
697.36	4283.67
697.549	4218.13
697.738	4283.67
697.927	4357.39
698.116	4197.65
698.305	4173.08
698.494	4203.8
698.683	4238.61
698.872	4107.54
699.061	4252.95
699.25	4244.76
699.438	4199.7
699.627	4289.81
699.816	4195.61
700.005	4195.61
700.193	4033.82
700.382	4179.22
700.571	4123.93
700.76	4154.65
700.948	4195.61
701.137	4134.17
701.326	4183.32
701.514	4310.29
701.703	4216.09
701.892	4138.26
702.08	4074.78
702.269	4302.1
702.457	4111.64
702.646	4181.27
702.834	4050.2
703.023	4085.01
703.212	4132.12
703.4	4140.31
703.589	4111.64
703.777	4015.38
703.965	4068.63
704.154	4087.06
704.342	4144.41
704.531	4023.58
704.719	4089.11
704.907	4062.49
705.096	4042.01
705.284	4140.31
705.472	3986.71
705.661	3994.9
705.849	4025.62
706.037	4074.78
706.226	3972.38
706.414	3912.99
706.602	3904.79
706.79	3994.9
706.979	3992.86
707.167	4035.86
707.355	3896.6
707.543	4025.62
707.731	4052.25
707.919	3777.82
708.107	3796.25
708.296	3945.75
708.484	3863.83
708.672	3933.47
708.86	3990.81
709.048	3790.11
709.236	3968.28
709.424	3802.4
709.612	3994.9
709.8	3835.16
709.988	3837.21
710.176	4003.1
710.364	3722.52
710.551	3896.6
710.739	3734.81
710.927	3691.8
711.115	3732.76
711.303	3751.2
711.491	3665.18
711.679	3765.53
711.866	3743
712.054	3800.35
712.242	3605.79
712.43	3708.19
712.617	3710.24
712.805	3679.52
712.993	3718.43
713.181	3704.09
713.368	3677.47
713.556	3673.37
713.744	3755.29
713.931	3759.39
714.119	3702.04
714.306	3833.11
714.494	3786.01
714.682	3652.89
714.869	3568.93
715.057	3630.37
715.244	3575.07
715.432	3568.93
715.619	3564.83
715.807	3710.24
715.994	3659.04
716.182	3517.73
716.369	3673.37
716.556	3704.09
716.744	3470.62
716.931	3564.83
717.119	3591.45
717.306	3441.95
717.493	3521.82
717.681	3570.97
717.868	3568.93
718.055	3562.78
718.242	3532.06
718.43	3532.06
718.617	3487.01
718.804	3378.47
718.991	3478.82
719.179	3497.25
719.366	3405.09
719.553	3456.29
719.74	3454.24
719.927	3476.77
720.114	3503.39
720.301	3511.58
720.488	3392.8
720.676	3450.14
720.863	3405.09
721.05	3503.39
721.237	3343.65
721.424	3509.54
721.611	3470.62
721.798	3384.61
721.985	3349.79
722.172	3392.8
722.358	3331.36
722.545	3362.08
722.732	3314.98
722.919	3495.2
723.106	3347.75
723.293	3323.17
723.48	3362.08
723.667	3339.55
723.853	3165.48
724.04	3380.51
724.227	3339.55
724.414	3183.91
724.6	3224.87
724.787	3220.77
724.974	3276.07
725.161	3239.2
725.347	3153.19
725.534	3292.45
725.72	3161.38
725.907	3253.54
726.094	3177.76
726.28	3286.31
726.467	3269.92
726.653	3206.44
726.84	3228.96
727.027	3136.81
727.213	3224.87
727.4	3204.39
727.586	3173.67
727.773	3261.73
727.959	3286.31
728.145	3132.71
728.332	3231.01
728.518	3065.13
728.705	3161.38
728.891	3126.57
729.077	3089.7
729.264	3179.81
729.45	3202.34
729.636	3095.85
729.823	3114.28
730.009	3208.48
730.195	3065.13
730.382	3167.52
730.568	3151.14
730.754	3106.09
730.94	3095.85
731.126	3110.18
731.313	3085.61
731.499	3138.85
731.685	3052.84
731.871	3018.02
732.057	3048.74
732.243	3091.75
732.429	3231.01
732.615	3175.72
732.801	3007.78
732.987	3089.7
733.173	3112.23
733.359	3042.6
733.545	3034.41
733.731	2934.06
733.917	2938.15
734.103	2964.78
734.289	3018.02
734.475	2932.01
734.661	3015.98
734.847	2891.05
735.033	3024.17
735.219	2966.82
735.404	2934.06
735.59	2944.3
735.776	2999.59
735.962	2952.49
736.148	2882.86
736.333	2936.1
736.519	2856.23
736.705	2860.33
736.89	2925.86
737.076	2921.77
737.262	2960.68
737.447	2952.49
737.633	2966.82
737.819	2770.22
738.004	2905.39
738.19	2747.69
738.375	3063.08
738.561	2889
738.747	2764.08
738.932	2792.75
739.118	2792.75
739.303	2968.87
739.489	2889
739.674	2802.99
739.859	2766.12
740.045	2737.45
740.23	2696.49
740.416	2680.11
740.601	2696.49
740.786	2845.99
740.972	2762.03
741.157	2678.06
741.342	2770.22
741.528	2667.82
741.713	2727.21
741.898	2729.26
742.084	2673.96
742.269	2690.35
742.454	2620.72
742.639	2581.81
742.824	2610.48
743.01	2651.44
743.195	2587.95
743.38	2559.28
743.565	2610.48
743.75	2559.28
743.935	2575.66
744.12	2594.09
744.305	2471.22
744.49	2501.94
744.675	2573.61
744.86	2405.68
745.045	2559.28
745.23	2434.35
745.415	2573.61
745.6	2465.07
745.785	2491.7
745.97	2389.3
746.155	2452.78
746.34	2317.62
746.525	2413.87
746.71	2532.65
746.895	2321.71
747.079	2319.67
747.264	2364.72
747.449	2475.31
747.634	2293.04
747.819	2303.28
748.003	2250.03
748.188	2391.34
748.373	2336.05
748.557	2286.9
748.742	2153.78
748.927	2174.26
749.111	2166.07
749.296	2127.16
749.481	2192.69
749.665	2088.25
749.85	2209.08
750.034	2131.25
750.219	2090.29
750.404	2143.54
750.588	1959.22
750.773	2063.67
750.957	2149.68
751.141	2106.68
751.326	2030.9
751.51	1963.32
751.695	2061.62
751.879	2073.91
752.064	1996.09
752.248	2125.11
752.432	1957.18
752.617	2000.18
752.801	1879.35
752.985	1955.13
753.17	1991.99
753.354	1811.77
753.538	1883.45
753.722	1832.25
753.907	1830.2
754.091	1873.21
754.275	1854.78
754.459	1803.58
754.643	1787.19
754.828	1725.75
755.012	1764.67
755.196	1768.76
755.38	1733.95
755.564	1678.65
755.748	1674.56
755.932	1637.69
756.116	1707.32
756.3	1613.12
756.484	1649.98
756.668	1639.74
756.852	1523.01
757.036	1688.89
757.22	1596.73
757.404	1602.88
757.588	1615.16
757.772	1617.21
757.956	1678.65
758.14	1611.07
758.323	1541.44
758.507	1510.72
758.691	1512.77
758.875	1563.97
759.059	1498.43
759.242	1430.85
759.426	1498.43
759.61	1475.9
759.794	1510.72
759.977	1492.29
760.161	1543.49
760.345	1369.41
760.528	1539.39
760.712	1426.75
760.895	1398.08
761.079	1328.45
761.263	1400.13
761.446	1486.14
761.63	1418.56
761.813	1459.52
761.997	1463.62
762.18	1332.55
762.364	1418.56
762.547	1361.22
762.731	1383.74
762.914	1418.56
763.098	1365.31
763.281	1195.33
763.464	1293.63
763.648	1373.5
763.831	1359.17
764.015	1314.11
764.198	1283.39
764.381	1385.79
764.564	1271.11
764.748	1316.16
764.931	1328.45
765.114	1273.15
765.297	1299.78
765.481	1301.83
765.664	1246.53
765.847	1258.82
766.03	1267.01
766.213	1334.59
766.397	1353.02
766.58	1185.09
766.763	1238.34
766.946	1338.69
767.129	1150.28
767.312	1172.8
767.495	1181
767.678	1178.95
767.861	1178.95
768.044	1111.36
768.227	1207.62
768.41	1172.8
768.593	1242.43
768.776	1201.48
768.959	1140.04
769.142	1158.47
769.324	1240.39
769.507	1127.75
769.69	1221.95
769.873	1164.61
770.056	1224
770.239	1148.23
770.421	1140.04
770.604	1123.65
770.787	1178.95
770.97	1131.84
771.152	1054.02
771.335	1154.37
771.518	1066.31
771.7	1137.99
771.883	1049.93
772.066	992.58
772.248	1054.02
772.431	1074.5
772.613	998.73
772.796	992.58
772.978	1054.02
773.161	1076.55
773.343	988.49
773.526	1047.88
773.708	1033.54
773.891	1011.01
774.073	935.24
774.256	974.15
774.438	1000.77
774.621	949.57
774.803	984.39
774.985	968.01
775.168	918.86
775.35	968.01
775.532	980.29
775.715	845.13
775.897	941.38
776.079	922.95
776.261	959.81
776.444	916.81
776.626	992.58
776.808	861.51
776.99	763.21
777.173	922.95
777.355	904.52
777.537	904.52
777.719	873.8
777.901	873.8
778.083	857.42
778.265	802.12
778.447	847.18
778.629	836.94
778.811	775.5
778.993	818.5
779.175	853.32
779.357	800.07
779.539	789.83
779.721	798.03
779.903	718.15
780.085	826.7
780.267	779.59
780.449	802.12
780.631	787.79
780.812	761.16
780.994	738.63
781.176	785.74
781.358	765.26
781.54	701.77
781.721	742.73
781.903	755.02
782.085	707.91
782.267	787.79
782.448	738.63
782.63	720.2
782.812	699.72
782.993	660.81
783.175	685.39
783.357	611.66
783.538	601.42
783.72	679.24
783.901	628.04
784.083	638.28
784.264	650.57
784.446	636.24
784.627	580.94
784.809	593.23
784.99	675.15
785.172	542.03
785.353	582.99
785.535	646.48
785.716	544.08
785.897	582.99
786.079	607.56
786.26	494.93
786.441	585.04
786.623	535.89
786.804	585.04
786.985	531.79
787.167	595.28
787.348	562.51
787.529	501.07
787.71	533.84
787.891	501.07
788.073	523.6
788.254	589.13
788.435	562.51
788.616	402.77
788.797	585.04
788.978	531.79
789.159	488.78
789.34	523.6
789.522	501.07
789.703	429.39
789.884	470.35
790.065	513.36
790.246	537.93
790.427	466.25
790.607	470.35
790.788	490.83
790.969	427.34
791.15	466.25
791.331	408.91
791.512	466.25
791.693	361.81
791.874	501.07
792.054	494.93
792.235	447.82
792.416	363.86
792.597	347.47
792.778	447.82
792.958	466.25
793.139	474.45
793.32	370
793.5	421.2
793.681	425.29
793.862	415.06
794.042	392.53
794.223	443.73
794.404	376.14
794.584	380.24
794.765	384.34
794.945	410.96
795.126	423.25
795.306	443.73
795.487	427.34
795.667	288.08
795.848	363.86
796.028	390.48
796.209	394.58
796.389	370
796.57	415.06
796.75	408.91
796.93	408.91
797.111	372.05
797.291	443.73
797.471	396.62
797.652	378.19
797.832	437.58
798.012	443.73
798.192	347.47
798.373	286.03
798.553	378.19
798.733	343.38
798.913	355.66
799.093	421.2
799.274	370
799.454	298.32
799.634	329.04
799.814	386.38
799.994	339.28
800.174	394.58
800.354	312.66
800.534	271.7
800.714	269.65
800.894	236.88
801.074	283.99
801.254	288.08
801.434	388.43
801.614	349.52
801.794	296.27
801.974	705.87
802.154	308.56
802.334	337.23
802.514	300.37
802.693	306.51
802.873	261.46
803.053	361.81
803.233	271.7
803.413	296.27
803.592	245.07
803.772	300.37
803.952	337.23
804.131	261.46
804.311	253.27
804.491	269.65
804.67	316.75
804.85	288.08
805.03	300.37
805.209	271.7
805.389	257.36
805.568	283.99
805.748	210.26
805.928	218.45
806.107	234.83
806.287	197.97
806.466	222.55
806.646	279.89
806.825	234.83
807.004	202.07
807.184	240.98
807.363	195.92
807.543	191.83
807.722	314.7
807.901	273.75
808.081	302.42
808.26	187.73
808.439	292.18
808.619	161.11
808.798	212.31
808.977	216.4
809.156	247.12
809.336	210.26
809.515	308.56
809.694	210.26
809.873	224.59
810.052	259.41
810.231	261.46
810.411	120.15
810.59	267.6
810.769	232.79
810.948	187.73
811.127	189.78
811.306	177.49
811.485	206.16
811.664	255.31
811.843	189.78
812.022	228.69
812.201	247.12
812.38	185.68
812.559	183.63
812.737	148.82
812.916	114
813.095	224.59
813.274	238.93
813.453	234.83
813.632	277.84
813.811	333.14
813.989	157.01
814.168	204.11
814.347	132.44
814.526	245.07
814.704	206.16
814.883	230.74
815.062	197.97
815.24	126.29
815.419	169.3
815.598	206.16
815.776	120.15
815.955	183.63
816.133	165.2
816.312	132.44
816.49	165.2
816.669	161.11
816.847	157.01
817.026	154.96
817.204	189.78
817.383	210.26
817.561	154.96
817.74	197.97
817.918	165.2
818.097	226.64
818.275	146.77
818.453	132.44
818.632	261.46
818.81	165.2
818.988	114
819.167	152.92
819.345	165.2
819.523	136.53
819.701	191.83
819.879	154.96
820.058	161.11
820.236	224.59
820.414	175.44
820.592	75.09
820.77	218.45
820.948	118.1
821.127	146.77
821.305	118.1
821.483	142.68
821.661	167.25
821.839	103.76
822.017	120.15
822.195	95.57
822.373	175.44
822.551	116.05
822.729	150.87
822.907	150.87
823.085	128.34
823.262	159.06
823.44	68.95
823.618	187.73
823.796	111.96
823.974	118.1
824.152	34.13
824.329	111.96
824.507	148.82
824.685	157.01
824.863	124.24
825.04	132.44
825.218	134.48
825.396	132.44
825.574	87.38
825.751	152.92
825.929	122.2
826.107	107.86
826.284	44.37
826.462	185.68
826.639	185.68
826.817	161.11
826.994	175.44
827.172	120.15
827.349	58.71
827.527	134.48
827.704	95.57
827.882	97.62
828.059	132.44
828.237	85.33
828.414	126.29
828.591	118.1
828.769	136.53
828.946	79.19
829.124	144.72
829.301	87.38
829.478	68.95
829.655	46.42
829.833	120.15
830.01	122.2
830.187	68.95
830.364	58.71
830.542	95.57
830.719	150.87
830.896	159.06
831.073	216.4
831.25	83.28
831.427	120.15
831.604	103.76
831.782	136.53
831.959	38.23
832.136	48.47
832.313	114
832.49	152.92
832.667	30.04
832.844	99.67
833.021	91.48
833.198	87.38
833.374	222.55
833.551	91.48
833.728	144.72
833.905	103.76
834.082	97.62
834.259	32.08
834.436	77.14
834.612	179.54
834.789	85.33
834.966	50.52
835.143	91.48
835.319	77.14
835.496	71
835.673	85.33
835.85	122.2
836.026	87.38
836.203	169.3
836.38	93.52
836.556	32.08
836.733	71
836.909	97.62
837.086	91.48
837.262	103.76
837.439	118.1
837.616	130.39
837.792	136.53
837.968	89.43
838.145	105.81
838.321	140.63
838.498	124.24
838.674	175.44
838.851	17.75
839.027	73.04
839.203	52.56
839.38	-10.92
839.556	109.91
839.732	132.44
839.909	107.86
840.085	38.23
840.261	-15.02
840.437	99.67
840.614	52.56
840.79	68.95
840.966	159.06
841.142	71
841.318	73.04
841.494	81.24
841.671	-2.73
841.847	38.23
842.023	114
842.199	46.42
842.375	138.58
842.551	5.46
842.727	71
842.903	79.19
843.079	118.1
843.255	130.39
843.431	36.18
843.607	128.34
843.783	1.37
843.959	93.52
844.134	-25.26
844.31	54.61
844.486	34.13
844.662	93.52
844.838	93.52
845.013	87.38
845.189	81.24
845.365	36.18
845.541	91.48
845.716	73.04
845.892	101.72
846.068	83.28
846.244	99.67
846.419	89.43
846.595	48.47
846.77	71
846.946	17.75
847.122	46.42
847.297	71
847.473	126.29
847.648	17.75
847.824	19.8
847.999	-53.93
848.175	23.89
848.35	46.42
848.526	75.09
848.701	56.66
848.876	109.91
849.052	83.28
849.227	73.04
849.403	-31.4
849.578	48.47
849.753	71
849.929	48.47
850.104	-37.55
850.279	-15.02
850.454	34.13
850.63	71
850.805	54.61
850.98	79.19
851.155	48.47
851.33	79.19
851.505	9.56
851.681	66.9
851.856	-17.07
852.031	114
852.206	66.9
852.381	81.24
852.556	-6.83
852.731	40.28
852.906	95.57
853.081	40.28
853.256	60.76
853.431	-21.16
853.606	21.85
853.781	7.51
853.956	73.04
854.131	5.46
854.305	-2.73
854.48	-10.92
854.655	62.8
854.83	66.9
855.005	17.75
855.18	23.89
855.354	52.56
855.529	66.9
855.704	77.14
855.879	-15.02
856.053	34.13
856.228	40.28
856.403	21.85
856.577	107.86
856.752	56.66
856.926	101.72
857.101	17.75
857.276	25.94
857.45	-4.78
857.625	15.7
857.799	-37.55
857.974	1.37
858.148	32.08
858.323	62.8
858.497	-39.59
858.672	77.14
858.846	52.56
859.02	73.04
859.195	-6.83
859.369	-2.73
859.543	-17.07
859.718	15.7
859.892	-12.97
860.066	21.85
860.241	77.14
860.415	-27.31
860.589	25.94
860.763	93.52
860.938	32.08
861.112	-10.92
861.286	11.61
861.46	95.57
861.634	56.66
861.808	5.46
861.982	87.38
862.157	-2.73
862.331	11.61
862.505	-10.92
862.679	-6.83
862.853	30.04
863.027	-29.35
863.201	-29.35
863.375	27.99
863.549	-37.55
863.722	11.61
863.896	9.56
864.07	-88.75
864.244	-15.02
864.418	1.37
864.592	-29.35
864.766	19.8
864.939	50.52
865.113	34.13
865.287	89.43
865.461	71
865.634	9.56
865.808	81.24
865.982	-49.83
866.156	48.47
866.329	30.04
866.503	-0.68
866.676	38.23
866.85	87.38
867.024	48.47
867.197	9.56
867.371	42.32
867.544	-37.55
867.718	5.46
867.891	-2.73
868.065	17.75
868.238	42.32
868.412	1.37
868.585	-41.64
868.759	-29.35
868.932	-19.11
869.105	-39.59
869.279	-10.92
869.452	-8.87
869.625	19.8
869.799	42.32
869.972	62.8
870.145	34.13
870.319	1.37
870.492	-55.98
870.665	-15.02
870.838	46.42
871.011	42.32
871.185	40.28
871.358	71
871.531	34.13
871.704	50.52
871.877	38.23
872.05	54.61
872.223	30.04
872.396	17.75
872.569	81.24
872.742	-35.5
872.915	60.76
873.088	5.46
873.261	-19.11
873.434	-15.02
873.607	9.56
873.78	3.41
873.953	36.18
874.126	-29.35
874.299	71
874.471	-2.73
874.644	-45.74
874.817	-15.02
874.99	-4.78
875.163	9.56
875.335	7.51
875.508	-74.41
875.681	30.04
875.853	15.7
876.026	40.28
876.199	17.75
876.371	19.8
876.544	-2.73
876.717	50.52
876.889	13.65
877.062	-10.92
877.234	7.51
877.407	27.99
877.579	17.75
877.752	-31.4
877.924	50.52
878.097	50.52
878.269	-33.45
878.442	-17.07
878.614	5.46
878.786	17.75
878.959	38.23
879.131	99.67
879.303	-0.68
879.476	42.32
879.648	64.85
879.82	-33.45
879.993	-27.31
880.165	83.28
880.337	-47.79
880.509	15.7
880.681	-0.68
880.854	17.75
881.026	36.18
881.198	48.47
881.37	1.37
881.542	15.7
881.714	-37.55
881.886	40.28
882.058	23.89
882.23	42.32
882.402	-17.07
882.574	71
882.746	-15.02
882.918	71
883.09	-12.97
883.262	-29.35
883.434	34.13
883.606	17.75
883.778	36.18
883.95	21.85
884.122	-2.73
884.293	-10.92
884.465	25.94
884.637	42.32
884.809	-21.16
884.98	71
885.152	-31.4
885.324	11.61
885.496	3.41
885.667	27.99
885.839	-88.75
886.011	9.56
886.182	15.7
886.354	-29.35
886.525	54.61
886.697	40.28
886.869	19.8
887.04	-66.22
887.212	19.8
887.383	32.08
887.555	42.32
887.726	46.42
887.897	60.76
888.069	13.65
888.24	23.89
888.412	-10.92
888.583	15.7
888.754	-8.87
888.926	-17.07
889.097	-37.55
889.268	-62.12
889.44	-27.31
889.611	-17.07
889.782	-39.59
889.953	-17.07
890.125	21.85
890.296	32.08
890.467	-41.64
890.638	-31.4
890.809	3.41
890.98	-90.79
891.151	-2.73
891.323	-41.64
891.494	75.09
891.665	-15.02
891.836	46.42
892.007	-10.92
892.178	83.28
892.349	25.94
892.52	-47.79
892.691	-4.78
892.862	25.94
893.032	-0.68
893.203	23.89
893.374	-51.88
893.545	38.23
893.716	-10.92
893.887	7.51
894.057	-17.07
894.228	21.85
894.399	-31.4
894.57	-0.68
894.74	36.18
894.911	-49.83
895.082	44.37
895.253	21.85
895.423	54.61
895.594	30.04
895.764	71
895.935	66.9
896.106	66.9
896.276	3.41
896.447	-64.17
896.617	-62.12
896.788	-8.87
896.958	-15.02
897.129	-8.87
897.299	13.65
897.47	-17.07
897.64	-0.68
897.81	21.85
897.981	48.47
898.151	7.51
898.322	81.24
898.492	5.46
898.662	116.05
898.832	17.75
899.003	-64.17
899.173	-35.5
899.343	-21.16
899.513	-78.51
