Data from USB4F104151__194__11-09-52-121.txt Node

Date: Wed Mar 12 11:09:52 EDT 2025
User: louis
Spectrometer: USB4F10415
Trigger mode: 4
Integration Time (sec): 2.000000E-2
Scans to average: 1
Electric dark correction enabled: true
Nonlinearity correction enabled: false
Boxcar width: 0
XAxis mode: Wavelengths
Number of Pixels in Spectrum: 3648
>>>>>Begin Spectral Data<<<<<
178.204	-129.19
178.424	-129.19
178.644	-129.19
178.864	-92.33
179.084	-164.01
179.304	-8.36
179.524	-24.75
179.744	-16.55
179.964	22.36
180.184	5.97
180.404	-20.65
180.624	16.21
180.844	55.12
181.064	-55.47
181.283	-24.75
181.503	-24.75
181.723	75.6
181.943	-41.13
182.163	36.69
182.383	-12.46
182.602	36.69
182.822	-61.61
183.042	-30.89
183.262	-49.32
183.482	-8.36
183.701	-98.47
183.921	22.36
184.141	3.93
184.361	-47.27
184.58	-28.84
184.8	91.99
185.02	-8.36
185.239	77.65
185.459	-63.66
185.679	48.98
185.898	8.02
186.118	30.55
186.338	-24.75
186.557	-41.13
186.777	-43.18
186.997	24.4
187.216	46.93
187.436	30.55
187.655	-0.17
187.875	-28.84
188.095	30.55
188.314	-14.51
188.534	3.93
188.753	61.27
188.973	46.93
189.192	32.6
189.412	8.02
189.631	57.17
189.851	46.93
190.07	28.5
190.29	-8.36
190.509	-92.33
190.729	59.22
190.948	44.88
191.168	14.17
191.387	34.64
191.607	38.74
191.826	-43.18
192.045	-0.17
192.265	10.07
192.484	-6.31
192.704	16.21
192.923	3.93
193.142	44.88
193.362	26.45
193.581	77.65
193.8	-6.31
194.02	-18.6
194.239	69.46
194.458	-10.41
194.678	-43.18
194.897	48.98
195.116	-12.46
195.335	75.6
195.555	63.32
195.774	-47.27
195.993	40.79
196.212	-34.99
196.432	-61.61
196.651	-45.23
196.87	18.26
197.089	18.26
197.308	-6.31
197.528	18.26
197.747	32.6
197.966	-63.66
198.185	-20.65
198.404	18.26
198.623	-32.94
198.842	44.88
199.062	-4.27
199.281	36.69
199.5	8.02
199.719	14.17
199.938	12.12
200.157	44.88
200.376	-8.36
200.595	48.98
200.814	-22.7
201.033	-22.7
201.252	5.97
201.471	8.02
201.69	-28.84
201.909	40.79
202.128	1.88
202.347	42.84
202.566	-18.6
202.785	-20.65
203.004	14.17
203.223	96.08
203.442	36.69
203.661	-94.38
203.879	-10.41
204.098	16.21
204.317	-37.03
204.536	32.6
204.755	-34.99
204.974	16.21
205.193	-67.75
205.411	-20.65
205.63	44.88
205.849	42.84
206.068	-41.13
206.287	32.6
206.505	61.27
206.724	-6.31
206.943	16.21
207.162	16.21
207.381	-53.42
207.599	-12.46
207.818	38.74
208.037	38.74
208.255	30.55
208.474	-37.03
208.693	34.64
208.911	-16.55
209.13	8.02
209.349	61.27
209.567	-16.55
209.786	24.4
210.005	-10.41
210.223	40.79
210.442	-20.65
210.661	26.45
210.879	-30.89
211.098	-20.65
211.316	16.21
211.535	44.88
211.753	16.21
211.972	10.07
212.191	-4.27
212.409	14.17
212.628	-2.22
212.846	16.21
213.065	-24.75
213.283	65.36
213.502	-10.41
213.72	32.6
213.938	38.74
214.157	12.12
214.375	79.7
214.594	-10.41
214.812	-4.27
215.031	-71.85
215.249	28.5
215.467	-51.37
215.686	1.88
215.904	34.64
216.122	-34.99
216.341	53.08
216.559	32.6
216.778	67.41
216.996	-30.89
217.214	24.4
217.432	55.12
217.651	-2.22
217.869	-14.51
218.087	3.93
218.306	-39.08
218.524	40.79
218.742	53.08
218.96	42.84
219.179	16.21
219.397	-2.22
219.615	-6.31
219.833	57.17
220.051	5.97
220.27	55.12
220.488	5.97
220.706	34.64
220.924	26.45
221.142	-30.89
221.36	-0.17
221.578	5.97
221.796	-43.18
222.015	12.12
222.233	69.46
222.451	69.46
222.669	-30.89
222.887	51.03
223.105	-2.22
223.323	-28.84
223.541	42.84
223.759	-20.65
223.977	36.69
224.195	63.32
224.413	-51.37
224.631	44.88
224.849	-2.22
225.067	89.94
225.285	53.08
225.503	-12.46
225.721	-16.55
225.939	24.4
226.157	-14.51
226.375	-28.84
226.592	-4.27
226.81	-8.36
227.028	18.26
227.246	46.93
227.464	-10.41
227.682	77.65
227.9	59.22
228.117	-37.03
228.335	-16.55
228.553	5.97
228.771	-24.75
228.989	32.6
229.206	26.45
229.424	14.17
229.642	-12.46
229.86	-0.17
230.077	28.5
230.295	30.55
230.513	30.55
230.731	42.84
230.948	96.08
231.166	8.02
231.384	12.12
231.601	28.5
231.819	26.45
232.037	-20.65
232.254	18.26
232.472	3.93
232.689	-45.23
232.907	55.12
233.125	-26.79
233.342	3.93
233.56	-10.41
233.777	-2.22
233.995	28.5
234.213	48.98
234.43	20.31
234.648	-4.27
234.865	20.31
235.083	30.55
235.3	16.21
235.518	14.17
235.735	65.36
235.953	48.98
236.17	-22.7
236.388	10.07
236.605	3.93
236.822	53.08
237.04	5.97
237.257	-8.36
237.475	-30.89
237.692	22.36
237.909	18.26
238.127	-12.46
238.344	12.12
238.562	28.5
238.779	3.93
238.996	-43.18
239.214	24.4
239.431	-10.41
239.648	-75.95
239.865	-4.27
240.083	55.12
240.3	8.02
240.517	-43.18
240.735	69.46
240.952	44.88
241.169	-4.27
241.386	40.79
241.603	-6.31
241.821	106.32
242.038	57.17
242.255	61.27
242.472	12.12
242.689	-0.17
242.907	51.03
243.124	3.93
243.341	-32.94
243.558	-82.09
243.775	-45.23
243.992	-73.9
244.209	48.98
244.426	12.12
244.643	44.88
244.86	-28.84
245.078	44.88
245.295	-55.47
245.512	-20.65
245.729	26.45
245.946	48.98
246.163	10.07
246.38	34.64
246.597	-16.55
246.814	8.02
247.031	-0.17
247.248	57.17
247.464	16.21
247.681	-86.19
247.898	-6.31
248.115	16.21
248.332	40.79
248.549	61.27
248.766	73.56
248.983	38.74
249.2	100.18
249.417	30.55
249.633	12.12
249.85	18.26
250.067	-45.23
250.284	-26.79
250.501	12.12
250.717	-16.55
250.934	-12.46
251.151	-14.51
251.368	8.02
251.585	104.28
251.801	24.4
252.018	-51.37
252.235	1.88
252.451	-28.84
252.668	-18.6
252.885	38.74
253.102	16.21
253.318	-20.65
253.535	10.07
253.752	-37.03
253.968	14.17
254.185	-49.32
254.401	-45.23
254.618	-16.55
254.835	12.12
255.051	-32.94
255.268	-26.79
255.484	-18.6
255.701	-88.23
255.917	48.98
256.134	3.93
256.351	3.93
256.567	1.88
256.784	-51.37
257	8.02
257.217	32.6
257.433	57.17
257.65	18.26
257.866	-12.46
258.082	-16.55
258.299	-53.42
258.515	-0.17
258.732	-37.03
258.948	8.02
259.165	-43.18
259.381	28.5
259.597	36.69
259.814	10.07
260.03	-110.76
260.246	55.12
260.463	-57.51
260.679	53.08
260.895	20.31
261.112	34.64
261.328	-51.37
261.544	-39.08
261.761	12.12
261.977	1.88
262.193	-10.41
262.409	26.45
262.626	32.6
262.842	-51.37
263.058	12.12
263.274	-0.17
263.49	28.5
263.707	-14.51
263.923	-0.17
264.139	-22.7
264.355	-18.6
264.571	16.21
264.787	24.4
265.004	32.6
265.22	-20.65
265.436	-16.55
265.652	-26.79
265.868	-0.17
266.084	12.12
266.3	28.5
266.516	12.12
266.732	53.08
266.948	-4.27
267.164	-28.84
267.38	61.27
267.596	-55.47
267.812	53.08
268.028	48.98
268.244	22.36
268.46	-14.51
268.676	16.21
268.892	38.74
269.108	10.07
269.324	-12.46
269.54	-84.14
269.756	20.31
269.972	-10.41
270.188	32.6
270.403	14.17
270.619	94.04
270.835	38.74
271.051	-2.22
271.267	10.07
271.483	30.55
271.698	46.93
271.914	42.84
272.13	28.5
272.346	-14.51
272.562	-24.75
272.777	89.94
272.993	34.64
273.209	61.27
273.425	-8.36
273.64	46.93
273.856	104.28
274.072	-16.55
274.287	1.88
274.503	-18.6
274.719	-10.41
274.934	1.88
275.15	-49.32
275.366	38.74
275.581	73.56
275.797	81.75
276.012	-59.56
276.228	3.93
276.444	24.4
276.659	22.36
276.875	26.45
277.09	40.79
277.306	34.64
277.521	-0.17
277.737	-84.14
277.952	-4.27
278.168	46.93
278.383	8.02
278.599	40.79
278.814	-18.6
279.03	-39.08
279.245	20.31
279.461	32.6
279.676	18.26
279.892	-6.31
280.107	36.69
280.322	-8.36
280.538	-8.36
280.753	-12.46
280.969	-2.22
281.184	-24.75
281.399	5.97
281.615	-8.36
281.83	53.08
282.045	-65.71
282.26	-4.27
282.476	91.99
282.691	83.8
282.906	55.12
283.122	1.88
283.337	-22.7
283.552	83.8
283.767	53.08
283.983	-6.31
284.198	5.97
284.413	-24.75
284.628	-6.31
284.843	28.5
285.058	48.98
285.274	69.46
285.489	-14.51
285.704	24.4
285.919	-10.41
286.134	22.36
286.349	-16.55
286.564	65.36
286.779	5.97
286.995	-4.27
287.21	-49.32
287.425	36.69
287.64	12.12
287.855	-32.94
288.07	-8.36
288.285	-12.46
288.5	32.6
288.715	28.5
288.93	14.17
289.145	-0.17
289.36	20.31
289.575	75.6
289.79	5.97
290.004	-55.47
290.219	-20.65
290.434	26.45
290.649	26.45
290.864	28.5
291.079	8.02
291.294	40.79
291.509	-32.94
291.724	53.08
291.938	63.32
292.153	-43.18
292.368	-2.22
292.583	28.5
292.798	22.36
293.012	34.64
293.227	14.17
293.442	16.21
293.657	28.5
293.871	34.64
294.086	-24.75
294.301	69.46
294.516	46.93
294.73	44.88
294.945	-24.75
295.16	-45.23
295.374	18.26
295.589	59.22
295.804	3.93
296.018	61.27
296.233	28.5
296.447	30.55
296.662	-45.23
296.877	1.88
297.091	22.36
297.306	10.07
297.52	24.4
297.735	22.36
297.949	36.69
298.164	89.94
298.378	36.69
298.593	20.31
298.807	28.5
299.022	20.31
299.236	48.98
299.451	-12.46
299.665	8.02
299.88	51.03
300.094	36.69
300.309	-16.55
300.523	22.36
300.737	14.17
300.952	-2.22
301.166	46.93
301.381	-12.46
301.595	-12.46
301.809	3.93
302.024	-20.65
302.238	20.31
302.452	20.31
302.667	-34.99
302.881	67.41
303.095	89.94
303.309	38.74
303.524	-53.42
303.738	-26.79
303.952	16.21
304.166	38.74
304.381	-82.09
304.595	48.98
304.809	-28.84
305.023	-0.17
305.237	32.6
305.452	-6.31
305.666	-28.84
305.88	-14.51
306.094	20.31
306.308	40.79
306.522	57.17
306.736	57.17
306.95	1.88
307.164	83.8
307.379	63.32
307.593	42.84
307.807	51.03
308.021	67.41
308.235	-51.37
308.449	-67.75
308.663	20.31
308.877	83.8
309.091	-12.46
309.305	73.56
309.519	-43.18
309.733	14.17
309.947	18.26
310.161	36.69
310.374	57.17
310.588	61.27
310.802	36.69
311.016	-20.65
311.23	-24.75
311.444	16.21
311.658	-4.27
311.872	26.45
312.085	-75.95
312.299	77.65
312.513	-43.18
312.727	-12.46
312.941	-28.84
313.154	71.51
313.368	16.21
313.582	98.13
313.796	-0.17
314.009	30.55
314.223	8.02
314.437	18.26
314.651	3.93
314.864	-8.36
315.078	-49.32
315.292	10.07
315.505	-41.13
315.719	77.65
315.933	18.26
316.146	79.7
316.36	-53.42
316.573	116.56
316.787	32.6
317.001	-30.89
317.214	-53.42
317.428	-32.94
317.641	69.46
317.855	40.79
318.068	5.97
318.282	42.84
318.495	44.88
318.709	12.12
318.922	3.93
319.136	-43.18
319.349	55.12
319.563	-41.13
319.776	-2.22
319.99	73.56
320.203	-10.41
320.417	-12.46
320.63	57.17
320.843	53.08
321.057	-24.75
321.27	81.75
321.483	65.36
321.697	-8.36
321.91	34.64
322.124	65.36
322.337	24.4
322.55	55.12
322.763	-16.55
322.977	38.74
323.19	-0.17
323.403	42.84
323.617	18.26
323.83	30.55
324.043	-37.03
324.256	3.93
324.469	-10.41
324.683	32.6
324.896	-30.89
325.109	-30.89
325.322	-131.24
325.535	24.4
325.748	-34.99
325.962	24.4
326.175	40.79
326.388	-12.46
326.601	8.02
326.814	63.32
327.027	-10.41
327.24	34.64
327.453	79.7
327.666	-4.27
327.879	-6.31
328.092	1.88
328.305	22.36
328.518	85.84
328.731	59.22
328.944	32.6
329.157	51.03
329.37	5.97
329.583	53.08
329.796	112.47
330.009	-57.51
330.222	48.98
330.435	51.03
330.648	34.64
330.861	5.97
331.073	102.23
331.286	14.17
331.499	12.12
331.712	-16.55
331.925	53.08
332.138	-71.85
332.35	16.21
332.563	-4.27
332.776	-26.79
332.989	-24.75
333.202	40.79
333.414	3.93
333.627	-20.65
333.84	-47.27
334.053	-49.32
334.265	12.12
334.478	18.26
334.691	-24.75
334.903	-61.61
335.116	38.74
335.329	-4.27
335.541	8.02
335.754	-32.94
335.966	26.45
336.179	75.6
336.392	53.08
336.604	24.4
336.817	32.6
337.029	-24.75
337.242	10.07
337.454	57.17
337.667	55.12
337.88	20.31
338.092	38.74
338.305	-45.23
338.517	16.21
338.729	38.74
338.942	-6.31
339.154	14.17
339.367	48.98
339.579	106.32
339.792	53.08
340.004	104.28
340.217	28.5
340.429	51.03
340.641	46.93
340.854	73.56
341.066	16.21
341.278	32.6
341.491	-6.31
341.703	48.98
341.915	-0.17
342.128	-26.79
342.34	55.12
342.552	-30.89
342.764	40.79
342.977	8.02
343.189	-41.13
343.401	69.46
343.613	-88.23
343.826	-28.84
344.038	12.12
344.25	34.64
344.462	63.32
344.674	12.12
344.886	14.17
345.099	10.07
345.311	81.75
345.523	-20.65
345.735	-41.13
345.947	65.36
346.159	-28.84
346.371	-10.41
346.583	-0.17
346.795	40.79
347.007	-39.08
347.219	18.26
347.431	-0.17
347.643	81.75
347.855	14.17
348.067	34.64
348.279	34.64
348.491	-6.31
348.703	20.31
348.915	67.41
349.127	16.21
349.339	-4.27
349.551	-20.65
349.763	-8.36
349.975	8.02
350.187	-14.51
350.399	-41.13
350.61	48.98
350.822	71.51
351.034	48.98
351.246	8.02
351.458	36.69
351.669	46.93
351.881	40.79
352.093	5.97
352.305	28.5
352.517	-18.6
352.728	3.93
352.94	22.36
353.152	69.46
353.363	-16.55
353.575	-2.22
353.787	-24.75
353.999	-43.18
354.21	14.17
354.422	16.21
354.633	53.08
354.845	1.88
355.057	16.21
355.268	-45.23
355.48	28.5
355.692	73.56
355.903	-0.17
356.115	20.31
356.326	5.97
356.538	20.31
356.749	-26.79
356.961	12.12
357.172	-0.17
357.384	-16.55
357.595	-0.17
357.807	-55.47
358.018	26.45
358.23	46.93
358.441	55.12
358.653	14.17
358.864	48.98
359.075	26.45
359.287	42.84
359.498	38.74
359.709	-4.27
359.921	36.69
360.132	57.17
360.344	61.27
360.555	20.31
360.766	100.18
360.977	-6.31
361.189	120.66
361.4	-43.18
361.611	22.36
361.823	69.46
362.034	53.08
362.245	26.45
362.456	44.88
362.667	-2.22
362.879	-39.08
363.09	48.98
363.301	30.55
363.512	-55.47
363.723	-2.22
363.935	20.31
364.146	22.36
364.357	16.21
364.568	85.84
364.779	-61.61
364.99	32.6
365.201	-41.13
365.412	42.84
365.623	22.36
365.834	48.98
366.045	96.08
366.256	63.32
366.467	5.97
366.678	18.26
366.889	16.21
367.1	26.45
367.311	10.07
367.522	-26.79
367.733	55.12
367.944	51.03
368.155	94.04
368.366	51.03
368.577	102.23
368.788	38.74
368.999	24.4
369.209	59.22
369.42	-8.36
369.631	124.76
369.842	34.64
370.053	22.36
370.264	38.74
370.474	38.74
370.685	14.17
370.896	-6.31
371.107	55.12
371.317	55.12
371.528	42.84
371.739	44.88
371.95	79.7
372.16	38.74
372.371	-2.22
372.582	-45.23
372.792	3.93
373.003	20.31
373.214	-39.08
373.424	85.84
373.635	40.79
373.846	20.31
374.056	-63.66
374.267	48.98
374.477	-0.17
374.688	-39.08
374.898	-12.46
375.109	-0.17
375.319	48.98
375.53	14.17
375.74	8.02
375.951	34.64
376.161	-32.94
376.372	55.12
376.582	-30.89
376.793	57.17
377.003	59.22
377.214	46.93
377.424	-37.03
377.635	3.93
377.845	-8.36
378.055	57.17
378.266	40.79
378.476	75.6
378.686	-20.65
378.897	61.27
379.107	-2.22
379.317	-12.46
379.528	-18.6
379.738	3.93
379.948	-20.65
380.158	34.64
380.369	26.45
380.579	126.8
380.789	28.5
380.999	34.64
381.21	-14.51
381.42	34.64
381.63	-47.27
381.84	20.31
382.05	16.21
382.261	53.08
382.471	46.93
382.681	96.08
382.891	59.22
383.101	40.79
383.311	34.64
383.521	32.6
383.731	94.04
383.941	26.45
384.151	1.88
384.361	-14.51
384.571	18.26
384.781	85.84
384.991	63.32
385.201	61.27
385.411	85.84
385.621	32.6
385.831	5.97
386.041	12.12
386.251	51.03
386.461	-30.89
386.671	5.97
386.881	14.17
387.091	-47.27
387.301	69.46
387.511	32.6
387.72	5.97
387.93	65.36
388.14	16.21
388.35	-0.17
388.56	75.6
388.769	57.17
388.979	26.45
389.189	-102.57
389.399	-2.22
389.609	57.17
389.818	65.36
390.028	14.17
390.238	46.93
390.447	44.88
390.657	69.46
390.867	8.02
391.076	30.55
391.286	28.5
391.496	5.97
391.705	14.17
391.915	-10.41
392.125	14.17
392.334	16.21
392.544	20.31
392.753	48.98
392.963	-32.94
393.172	-2.22
393.382	-16.55
393.591	85.84
393.801	-12.46
394.01	132.95
394.22	65.36
394.429	34.64
394.639	5.97
394.848	98.13
395.058	22.36
395.267	51.03
395.477	22.36
395.686	28.5
395.895	104.28
396.105	96.08
396.314	122.71
396.524	73.56
396.733	51.03
396.942	48.98
397.152	-18.6
397.361	-8.36
397.57	-10.41
397.78	67.41
397.989	42.84
398.198	22.36
398.407	46.93
398.617	124.76
398.826	48.98
399.035	53.08
399.244	137.04
399.453	100.18
399.663	108.37
399.872	73.56
400.081	-0.17
400.29	69.46
400.499	28.5
400.708	-32.94
400.917	126.8
401.127	44.88
401.336	-8.36
401.545	106.32
401.754	81.75
401.963	69.46
402.172	67.41
402.381	55.12
402.59	53.08
402.799	135
403.008	8.02
403.217	79.7
403.426	53.08
403.635	112.47
403.844	42.84
404.053	46.93
404.262	102.23
404.471	42.84
404.68	44.88
404.888	8.02
405.097	63.32
405.306	67.41
405.515	135
405.724	100.18
405.933	87.89
406.142	81.75
406.35	155.47
406.559	57.17
406.768	161.62
406.977	161.62
407.185	71.51
407.394	141.14
407.603	153.43
407.812	102.23
408.02	102.23
408.229	178
408.438	130.9
408.646	91.99
408.855	100.18
409.064	153.43
409.272	108.37
409.481	143.19
409.69	161.62
409.898	157.52
410.107	221.01
410.315	204.63
410.524	161.62
410.733	178
410.941	210.77
411.15	208.72
411.358	200.53
411.567	229.2
411.775	208.72
411.984	212.82
412.192	157.52
412.401	161.62
412.609	284.5
412.818	313.17
413.026	331.6
413.234	231.25
413.443	280.4
413.651	298.83
413.86	292.69
414.068	319.31
414.276	345.94
414.485	311.12
414.693	372.56
414.901	413.52
415.11	421.71
415.318	413.52
415.526	409.42
415.734	409.42
415.943	401.23
416.151	454.48
416.359	356.18
416.567	438.09
416.776	434
416.984	528.21
417.192	501.58
417.4	560.97
417.608	450.38
417.817	581.45
418.025	630.6
418.233	692.04
418.441	628.56
418.649	556.88
418.857	681.8
419.065	782.15
419.273	743.24
419.481	755.53
419.689	780.11
419.897	853.83
420.105	868.17
420.313	982.85
420.521	888.65
420.729	931.66
420.937	911.18
421.145	917.32
421.353	997.19
421.561	1128.26
421.769	1101.64
421.977	1175.36
422.185	1060.68
422.393	1093.44
422.601	1300.29
422.809	1224.51
423.017	1388.35
423.224	1322.82
423.432	1431.36
423.64	1328.96
423.848	1630.01
424.056	1523.52
424.263	1619.77
424.471	1562.43
424.679	1593.15
424.887	1685.31
425.094	1683.26
425.302	1740.6
425.51	1896.25
425.718	1892.15
425.925	1879.86
426.133	1961.78
426.341	1945.4
426.548	2211.64
426.756	2129.72
426.964	2174.77
427.171	2340.66
427.379	2357.04
427.586	2250.55
427.794	2512.69
428.001	2608.94
428.209	2690.86
428.417	2697
428.624	2934.57
428.832	2750.25
429.039	2838.31
429.247	2756.4
429.454	2981.67
429.662	3297.06
429.869	3106.6
430.076	3211.04
430.284	3227.43
430.491	3401.51
430.699	3493.66
430.906	3594.01
431.114	3499.81
431.321	3716.89
431.528	3757.85
431.736	3936.03
431.943	4187.93
432.15	4226.84
432.358	4155.16
432.565	4388.63
432.772	4417.3
432.979	4544.27
433.187	4667.15
433.394	4751.12
433.601	5142.28
433.808	4902.67
434.016	5009.16
434.223	5091.08
434.43	5410.56
434.637	5259.01
434.844	5762.81
435.052	5771.01
435.259	5740.29
435.466	5955.32
435.673	5932.79
435.88	6260.47
436.087	6502.13
436.294	6450.93
436.501	6442.74
436.708	6467.31
436.915	6590.19
437.122	6825.71
437.329	6819.57
437.537	7186.15
437.743	7321.32
437.95	7325.41
438.157	7577.31
438.364	7855.84
438.571	7861.98
438.778	7814.88
438.985	8601.3
439.192	8177.37
439.399	8677.07
439.606	8431.32
439.813	8892.11
440.02	9457.35
440.227	9256.65
440.433	9060.04
440.64	9486.02
440.847	9381.57
441.054	9596.61
441.261	10143.42
441.467	10002.11
441.674	10280.63
441.881	10698.42
442.088	10561.2
442.294	10383.03
442.501	11007.66
442.708	11085.48
442.914	11476.65
443.121	11757.22
443.328	11660.96
443.534	12179.1
443.741	12230.3
443.948	11994.78
444.154	12676.76
444.361	12609.17
444.568	12834.45
444.774	12871.31
444.981	12897.94
445.187	13508.23
445.394	13895.3
445.6	13598.34
445.807	14980.72
446.013	14327.42
446.22	14528.12
446.426	15130.22
446.633	15212.14
446.839	15892.07
447.046	15279.72
447.252	15949.41
447.459	15965.79
447.665	15982.18
447.871	16555.61
448.078	17301.07
448.284	16383.58
448.491	16895.57
448.697	17555.02
448.903	17684.04
449.11	18044.48
449.316	17389.13
449.522	17899.08
449.728	18447.93
449.935	18443.84
450.141	18298.43
450.347	19050.03
450.553	18445.88
450.76	18538.04
450.966	19086.9
451.172	18857.53
451.378	19215.92
451.584	18806.33
451.791	19676.71
451.997	19570.22
452.203	19713.58
452.409	19625.51
452.615	19633.71
452.821	18746.94
453.027	18673.21
453.233	19504.68
453.44	18751.03
453.646	18990.64
453.852	19326.51
454.058	19095.09
454.264	18624.06
454.47	19181.1
454.676	18589.24
454.882	19480.11
455.088	17589.83
455.294	17897.03
455.5	18249.28
455.705	18175.55
455.911	17567.31
456.117	17253.97
456.323	17049.17
456.529	15879.78
456.735	16371.29
456.941	16154.21
457.147	15961.7
457.352	15531.62
457.558	15283.82
457.764	15429.23
457.97	15167.09
458.176	14802.55
458.381	14556.79
458.587	14044.8
458.793	13801.09
458.999	13377.16
459.204	14253.69
459.41	13672.07
459.616	12850.83
459.821	12734.1
460.027	12793.49
460.233	12613.27
460.438	11771.55
460.644	12164.76
460.85	11450.02
461.055	11474.6
461.261	11402.92
461.466	10587.83
461.672	10186.43
461.878	10739.38
462.083	10182.33
462.289	9969.34
462.494	9836.22
462.7	9463.49
462.905	9109.19
463.111	9496.26
463.316	9610.95
463.522	9422.53
463.727	9440.97
463.932	9197.26
464.138	9291.46
464.343	9250.5
464.549	8863.44
464.754	9289.42
464.959	9240.26
465.165	9033.42
465.37	8709.84
465.575	8529.62
465.781	9029.32
465.986	9002.7
466.191	8687.31
466.397	8419.03
466.602	8066.78
466.807	8429.27
467.012	8519.38
467.218	8363.73
467.423	8128.22
467.628	8335.06
467.833	8763.09
468.038	8421.08
468.244	8201.94
468.449	8535.76
468.654	7972.57
468.859	7991
469.064	8156.89
469.269	7792.35
469.474	7837.41
469.679	7804.64
469.885	7601.89
470.09	7935.71
470.295	7759.58
470.5	7433.96
470.705	7573.22
470.91	7509.73
471.115	7372.52
471.32	7440.1
471.525	7450.34
471.73	7220.97
471.935	7280.36
472.139	6829.81
472.344	7089.9
472.549	7026.41
472.754	6921.96
472.959	6819.57
473.164	6541.04
473.369	6567.67
473.574	6674.16
473.778	6692.59
473.983	6543.09
474.188	6430.45
474.393	6303.48
474.598	6256.37
474.802	6246.13
475.007	6067.96
475.212	6170.36
475.417	5975.8
475.621	6045.43
475.826	6039.29
476.031	5951.23
476.235	5781.25
476.44	5977.85
476.645	5805.82
476.849	5721.85
477.054	5674.75
477.259	5680.89
477.463	5605.12
477.668	5578.5
477.872	5543.68
478.077	5385.99
478.282	5189.38
478.486	5545.73
478.691	5310.21
478.895	5285.64
479.1	5345.03
479.304	5177.09
479.509	4925.19
479.713	5238.53
479.918	5019.4
480.122	4937.48
480.326	4917
480.531	4974.35
480.735	4896.52
480.94	4871.95
481.144	5267.2
481.348	4863.76
481.553	4988.68
481.757	4925.19
481.961	4978.44
482.166	5054.22
482.37	5025.54
482.574	4843.28
482.778	4908.81
482.983	4933.39
483.187	4937.48
483.391	4943.63
483.595	4851.47
483.8	4892.43
484.004	5037.83
484.208	4943.63
484.412	4833.04
484.616	4814.6
484.821	5084.94
485.025	4759.31
485.229	4962.06
485.433	4947.72
485.637	4849.42
485.841	4648.72
486.045	4800.27
486.249	4828.94
486.453	4835.08
486.657	4947.72
486.861	4972.3
487.065	4656.91
487.269	4773.64
487.473	4830.99
487.677	4908.81
487.881	4876.04
488.085	4876.04
488.289	4982.54
488.493	4749.07
488.697	4917
488.901	4876.04
489.105	4851.47
489.309	4855.56
489.512	4841.23
489.716	4820.75
489.92	4890.38
490.124	4806.41
490.328	5056.26
490.531	4935.43
490.735	4847.37
490.939	4990.73
491.143	4898.57
491.346	4769.55
491.55	5097.22
491.754	5048.07
491.958	5043.98
492.161	5129.99
492.365	5236.49
492.569	5023.5
492.772	5058.31
492.976	5193.48
493.18	5244.68
493.383	5269.25
493.587	5232.39
493.79	5400.32
493.994	5224.2
494.197	5308.16
494.401	5414.66
494.605	5365.51
494.808	5381.89
495.012	5476.1
495.215	5474.05
495.419	5525.25
495.622	5543.68
495.825	5697.28
496.029	5408.51
496.232	5721.85
496.436	5650.18
496.639	5869.31
496.843	5705.47
497.046	5914.36
497.249	6117.11
497.453	6041.34
497.656	6143.74
497.859	6196.98
498.063	6203.13
498.266	6237.94
498.469	6313.72
498.673	6309.62
498.876	6465.27
499.079	6545.14
499.282	6463.22
499.485	6686.45
499.689	6635.25
499.892	7040.75
500.095	6686.45
500.298	7130.86
500.501	6758.13
500.705	7130.86
500.908	7077.61
501.111	7069.42
501.314	7306.98
501.517	7417.57
501.72	7476.96
501.923	7343.85
502.126	7669.47
502.329	7581.41
502.532	7726.82
502.735	7907.04
502.938	7974.62
503.141	8025.82
503.344	8105.69
503.547	8148.7
503.75	8425.17
503.953	8455.89
504.156	8386.26
504.359	8543.95
504.562	8859.34
504.765	8797.9
504.968	8758.99
505.17	8896.21
505.373	9068.23
505.576	9320.14
505.779	9187.02
505.982	9342.66
506.185	9467.59
506.387	9582.28
506.59	9569.99
506.793	9864.89
506.996	9690.82
507.198	9903.81
507.401	9918.14
507.604	10170.04
507.807	10190.52
508.009	10403.51
508.212	10319.54
508.415	10342.07
508.617	10741.43
508.82	10778.29
509.022	10917.55
509.225	11046.57
509.428	11112.11
509.63	11269.8
509.833	11411.11
510.035	11603.62
510.238	11533.99
510.44	11742.88
510.643	11912.86
510.845	12005.02
511.048	11771.55
511.25	12310.17
511.453	12312.22
511.655	12607.12
511.858	12713.62
512.06	12603.03
512.262	12887.7
512.465	12932.75
512.667	13219.47
512.87	13252.24
513.072	13409.93
513.274	13563.53
513.477	13590.15
513.679	13995.65
513.881	14032.51
514.084	14044.8
514.286	14130.81
514.488	14145.15
514.69	14687.86
514.893	14675.57
515.095	14747.25
515.297	14898.8
515.499	14825.08
515.701	15232.62
515.904	15337.07
516.106	15249
516.308	15378.03
516.51	15746.66
516.712	15779.43
516.914	15959.65
517.116	16375.39
517.318	16283.23
517.52	16467.55
517.722	16680.53
517.925	16692.82
518.127	16662.1
518.329	17208.91
518.531	16977.49
518.733	17612.36
518.935	17479.24
519.136	17505.87
519.338	17972.8
519.54	17917.51
519.742	18085.44
519.944	18249.28
520.146	18626.11
520.348	18714.17
520.55	18757.18
520.752	18828.85
520.954	19099.19
521.155	18968.12
521.357	19473.96
521.559	19598.89
521.761	19541.55
521.963	19918.37
522.164	20020.77
522.366	20200.99
522.568	20336.16
522.77	20553.24
522.971	20741.66
523.173	20854.3
523.375	20768.28
523.576	21026.32
523.778	21110.29
523.98	21569.04
524.181	21458.45
524.383	21610
524.584	22128.13
524.786	21769.74
524.988	22136.32
525.189	21954.05
525.391	22332.93
525.592	22480.38
525.794	22611.45
525.995	22468.09
526.197	22617.6
526.398	22615.55
526.6	22916.6
526.801	23115.25
527.003	23041.53
527.204	23430.64
527.406	23399.92
527.607	23688.68
527.808	23545.33
528.01	23424.5
528.211	23858.67
528.412	24157.67
528.614	23782.89
528.815	24151.52
529.016	24358.37
529.218	24118.76
529.419	24169.96
529.62	24219.11
529.822	24122.85
530.023	24223.2
530.224	24671.71
530.425	24405.47
530.626	24462.82
530.828	24247.78
531.029	24899.03
531.23	24597.98
531.431	24763.87
531.632	24667.61
531.833	25081.3
532.035	24856.03
532.236	24579.55
532.437	25028.06
532.638	25114.07
532.839	25322.96
533.04	25335.25
533.241	24890.84
533.442	25695.69
533.643	24946.14
533.844	25329.11
534.045	25282
534.246	25218.52
534.447	25519.57
534.648	25337.3
534.849	25384.4
535.05	25140.69
535.251	25509.33
535.451	25261.52
535.652	25558.48
535.853	25296.34
536.054	25488.85
536.255	25499.09
536.456	25388.5
536.657	25650.64
536.857	25222.61
537.058	25159.13
537.259	25863.63
537.46	25587.15
537.66	25546.19
537.861	25587.15
538.062	25581.01
538.263	25732.56
538.463	25314.77
538.664	25746.89
538.865	25474.51
539.065	26021.32
539.266	25386.45
539.466	25990.6
539.667	25351.63
539.868	25839.05
540.068	25470.42
540.269	25646.54
540.469	25742.8
540.67	25441.75
540.87	25613.77
541.071	25349.59
541.271	25478.61
541.472	25292.24
541.672	25308.63
541.873	25503.18
542.073	24964.57
542.274	25458.13
542.474	25302.48
542.675	25617.87
542.875	25347.54
543.075	25673.17
543.276	24956.38
543.476	25497.04
543.676	25404.88
543.877	25699.79
544.077	25525.71
544.277	25382.35
544.478	25345.49
544.678	25750.99
544.878	25132.5
545.078	25716.17
545.279	25339.35
545.479	25314.77
545.679	25275.86
545.879	25333.2
546.079	25476.56
546.28	25275.86
546.48	25097.69
546.68	25564.62
546.88	25419.22
547.08	25339.35
547.28	25284.05
547.48	25150.93
547.68	25351.63
547.88	25116.12
548.081	25257.43
548.281	25402.83
548.481	25232.85
548.681	25372.11
548.881	25116.12
549.081	25325.01
549.28	25288.15
549.48	25417.17
549.68	25150.93
549.88	25781.71
550.08	25275.86
550.28	25480.66
550.48	25427.41
550.68	25359.83
550.88	25247.19
551.08	25454.03
551.279	25198.04
551.479	25095.64
551.679	25288.15
551.879	24868.31
552.079	25193.94
552.278	25142.74
552.478	25374.16
552.678	25191.89
552.878	25390.55
553.077	24999.38
553.277	24669.66
553.477	25441.75
553.676	25023.96
553.876	24935.9
554.076	25054.68
554.275	25013.72
554.475	24335.84
554.674	25075.16
554.874	24835.55
555.074	25021.91
555.273	24841.69
555.473	24966.62
555.672	24511.97
555.872	24675.8
556.071	24675.8
556.271	24802.78
556.47	24391.14
556.67	24516.06
556.869	24362.47
557.068	24591.84
557.268	24649.18
557.467	24081.89
557.667	24483.3
557.866	24372.71
558.065	24610.27
558.265	24313.31
558.464	24575.45
558.663	24288.74
558.863	23786.99
559.062	24411.62
559.261	24341.99
559.461	24362.47
559.66	23965.16
559.859	24057.32
560.058	23784.94
560.258	24143.33
560.457	23598.57
560.656	23811.56
560.855	23895.53
561.054	23707.12
561.253	23500.27
561.453	23653.87
561.652	23471.6
561.851	23483.89
562.05	23424.5
562.249	23274.99
562.448	23487.98
562.647	23651.82
562.846	23088.63
563.045	23084.53
563.244	22853.11
563.443	23383.54
563.642	22840.82
563.841	23236.08
564.04	22922.74
564.239	23070.2
564.438	22871.54
564.637	22898.17
564.836	22689.28
565.035	22689.28
565.234	22507.01
565.432	22556.16
565.631	22484.48
565.83	22519.29
566.029	22414.85
566.228	22156.8
566.427	21990.92
566.625	22111.75
566.824	21872.14
567.023	22257.15
567.222	21648.91
567.42	22115.84
567.619	21906.95
567.818	21814.79
568.016	21554.7
568.215	21614.09
568.414	21509.65
568.612	21798.41
568.811	21339.66
569.01	21540.36
569.208	21460.49
569.407	21419.53
569.605	20925.97
569.804	21341.71
570.002	20633.11
570.201	20973.08
570.4	20860.44
570.598	20723.23
570.797	20444.7
570.995	20669.98
571.193	20508.19
571.392	21124.63
571.59	20473.37
571.789	20493.85
571.987	20485.66
572.186	20483.61
572.384	20254.24
572.582	20479.52
572.781	20209.18
572.979	19899.94
573.177	19899.94
573.376	19928.61
573.574	19981.86
573.772	19881.51
573.971	19957.28
574.169	19465.77
574.367	19641.9
574.565	19467.82
574.763	19691.05
574.962	19512.88
575.16	19174.96
575.358	19363.37
575.556	19160.62
575.754	19486.25
575.952	18859.57
576.151	19183.15
576.349	18955.83
576.547	19062.32
576.745	18867.77
576.943	18699.83
577.141	18802.23
577.339	18902.58
577.537	18607.67
577.735	18759.22
577.933	18490.94
578.131	18593.34
578.329	18378.3
578.527	18193.98
578.725	18226.75
578.923	18222.66
579.121	18294.33
579.319	18095.68
579.516	18026.05
579.714	18341.44
579.912	17894.98
580.11	18120.26
580.308	17897.03
580.506	17790.53
580.704	17661.51
580.901	17780.29
581.099	17878.6
581.297	17497.67
581.495	17430.09
581.692	17548.87
581.89	17497.67
582.088	17296.97
582.285	17469
582.483	17374.8
582.681	17385.04
582.878	17462.86
583.076	17065.55
583.274	17172.05
583.471	16963.15
583.669	17014.35
583.866	16940.63
584.064	16889.43
584.262	16995.92
584.459	16914
584.657	16729.69
584.854	16701.01
585.052	16479.83
585.249	16684.63
585.447	16819.8
585.644	16502.36
585.841	16430.68
586.039	16492.12
586.236	16379.48
586.434	16385.63
586.631	16303.71
586.828	16162.4
587.026	16211.55
587.223	16354.91
587.42	16236.13
587.618	16148.06
587.815	15808.1
588.012	16029.28
588.21	15885.92
588.407	15996.51
588.604	15603.3
588.801	15793.76
588.999	15744.61
589.196	15683.17
589.393	15654.5
589.59	15562.34
589.787	15380.07
589.984	15357.55
590.182	15375.98
590.379	15394.41
590.576	15175.28
590.773	15208.05
590.97	15191.66
591.167	15203.95
591.364	14962.29
591.561	15160.94
591.758	14913.14
591.955	14816.88
592.152	15150.7
592.349	14853.75
592.546	14929.52
592.743	14726.77
592.94	14591.61
593.137	14788.21
593.334	14515.83
593.531	14315.13
593.727	14521.98
593.924	14614.13
594.121	14372.47
594.318	14562.94
594.515	14237.31
594.712	14272.12
594.908	14272.12
595.105	14182.01
595.302	14110.33
595.499	13815.43
595.696	14096
595.892	13952.64
596.089	14057.09
596.286	13852.29
596.482	13858.43
596.679	13878.91
596.876	13653.64
597.072	13682.31
597.269	13928.06
597.466	13696.64
597.662	13698.69
597.859	13512.33
598.055	13782.66
598.252	13475.46
598.448	13434.5
598.645	13622.92
598.841	13588.1
599.038	13473.42
599.234	13368.97
599.431	13264.52
599.627	13086.35
599.824	13368.97
600.02	13328.01
600.217	13141.64
600.413	13162.12
600.609	12975.76
600.806	12942.99
601.002	13149.84
601.198	12818.07
601.395	12916.37
601.591	13031.05
601.787	13029.01
601.984	12932.75
602.18	12846.74
602.376	12773.01
602.572	12611.22
602.769	12766.87
602.965	12404.38
603.161	12560.02
603.357	12504.73
603.553	12469.91
603.75	12435.1
603.946	12277.4
604.142	12441.24
604.338	12070.56
604.534	12166.81
604.73	12175
604.926	11959.97
605.122	12132
605.318	12207.77
605.514	12048.03
605.71	11904.67
605.906	11699.87
606.102	12035.74
606.298	12005.02
606.494	11955.87
606.69	11943.58
606.886	11865.76
607.082	11595.43
607.278	11699.87
607.474	11552.42
607.67	11765.41
607.866	11615.91
608.062	11712.16
608.257	11433.64
608.453	11476.65
608.649	11613.86
608.845	11431.59
609.041	11425.45
609.236	11513.51
609.432	11447.97
609.628	11194.03
609.824	11232.94
610.019	11323.05
610.215	11429.54
610.411	11165.35
610.606	11353.77
610.802	11523.75
610.998	11288.23
611.193	11237.03
611.389	11155.12
611.584	11208.36
611.78	11153.07
611.976	11402.92
612.171	11183.79
612.367	11161.26
612.562	10962.61
612.758	10874.54
612.953	11017.9
613.149	10856.11
613.344	10741.43
613.539	10956.46
613.735	10661.55
613.93	10944.17
614.126	10602.16
614.321	10849.97
614.517	10718.9
614.712	10829.49
614.907	10645.17
615.103	10706.61
615.298	10579.64
615.493	10632.88
615.688	10458.81
615.884	10847.92
616.079	10448.57
616.274	10608.31
616.47	10530.48
616.665	10553.01
616.86	10456.76
617.055	10464.95
617.25	10204.86
617.445	10522.29
617.641	10194.62
617.836	10419.89
618.031	10239.67
618.226	10170.04
618.421	10016.44
618.616	10229.43
618.811	10063.55
619.006	10170.04
619.201	10198.71
619.396	10172.09
619.591	9813.7
619.786	10200.76
619.981	9946.81
620.176	9942.72
620.371	9729.73
620.566	9916.09
620.761	9797.31
620.956	9752.26
621.151	9772.74
621.346	9569.99
621.541	9559.75
621.735	9563.84
621.93	9361.09
622.125	9447.11
622.32	9410.25
622.515	9387.72
622.709	9428.68
622.904	9379.53
623.099	9260.74
623.294	9025.23
623.488	9021.13
623.683	9189.07
623.878	9033.42
624.072	8986.32
624.267	9105.1
624.462	8797.9
624.656	8851.15
624.851	8804.05
625.046	8623.83
625.24	8834.77
625.435	8589.01
625.629	8650.45
625.824	8537.81
626.018	8447.7
626.213	8437.46
626.407	8333.01
626.602	8304.34
626.796	8445.65
626.991	8349.4
627.185	8134.36
627.38	8013.53
627.574	8136.41
627.768	8048.35
627.963	8142.55
628.157	7890.65
628.352	8144.6
628.546	7816.93
628.74	7694.05
628.935	7999.2
629.129	7812.83
629.323	7800.54
629.517	7696.1
629.712	7794.4
629.906	7585.51
630.1	7585.51
630.294	7732.96
630.489	7511.78
630.683	7591.65
630.877	7280.36
631.071	7292.65
631.265	7622.37
631.459	7345.89
631.653	7284.45
631.848	7184.1
632.042	7196.39
632.236	7106.28
632.43	7083.75
632.624	7048.94
632.818	7163.62
633.012	7024.36
633.206	7124.71
633.4	6932.2
633.594	6842.09
633.788	6883.05
633.982	6930.16
634.176	6919.92
634.369	6807.28
634.563	6733.55
634.757	6686.45
634.951	6856.43
635.145	6704.88
635.339	6823.66
635.533	6420.21
635.726	6569.71
635.92	6590.19
636.114	6518.51
636.308	6332.15
636.501	6334.2
636.695	6225.65
636.889	6209.27
637.083	6164.22
637.276	6188.79
637.47	6067.96
637.664	6276.85
637.857	6209.27
638.051	6090.49
638.244	6311.67
638.438	6002.43
638.632	6029.05
638.825	6029.05
639.019	5994.23
639.212	5918.46
639.406	5758.72
639.599	5904.12
639.793	5861.12
639.986	5807.87
640.18	5854.97
640.373	5580.54
640.567	5629.7
640.76	5512.96
640.954	5687.04
641.147	5719.81
641.34	5531.39
641.534	5693.18
641.727	5537.54
641.92	5662.46
642.114	5510.91
642.307	5275.4
642.5	5465.86
642.694	5412.61
642.887	5328.64
643.08	5222.15
643.273	5302.02
643.467	5240.58
643.66	5154.57
643.853	5029.64
644.046	5261.06
644.239	5365.51
644.432	5109.51
644.626	5125.9
644.819	5058.31
645.012	5152.52
645.205	5146.37
645.398	4947.72
645.591	4943.63
645.784	4980.49
645.977	4810.51
646.17	4712.21
646.363	4847.37
646.556	4800.27
646.749	4757.26
646.942	4790.03
647.135	4566.8
647.328	4853.52
647.521	4644.62
647.714	4687.63
647.907	4697.87
648.099	4597.52
648.292	4566.8
648.485	4564.75
648.678	4423.44
648.871	4484.88
649.064	4421.39
649.256	4515.6
649.449	4341.52
649.642	4439.83
649.835	4527.89
650.027	4456.21
650.22	4339.48
650.413	4312.85
650.605	4400.91
650.798	4302.61
650.991	4400.91
651.183	4382.48
651.376	4122.39
651.568	4286.23
651.761	4081.43
651.954	4194.07
652.146	4116.25
652.339	4202.26
652.531	3968.79
652.724	4099.86
652.916	4060.95
653.109	4019.99
653.301	4042.52
653.494	4054.81
653.686	3903.26
653.879	4042.52
654.071	3995.42
654.263	3884.83
654.456	3919.64
654.648	3983.13
654.84	3909.4
655.033	3829.53
655.225	3938.07
655.417	3854.11
655.61	3790.62
655.802	3860.25
655.994	3710.75
656.186	3829.53
656.379	3704.6
656.571	3616.54
656.763	3655.45
656.955	3559.2
657.148	3503.9
657.34	3403.55
657.532	3606.3
657.724	3585.82
657.916	3567.39
658.108	3557.15
658.3	3436.32
658.492	3565.34
658.684	3411.75
658.876	3493.66
659.068	3383.07
659.26	3446.56
659.452	3313.44
659.644	3346.21
659.836	3319.59
660.028	3413.79
660.22	3342.11
660.412	3321.63
660.604	3280.68
660.796	3268.39
660.988	3125.03
661.18	3086.12
661.372	3165.99
661.563	3180.32
661.755	3182.37
661.947	3180.32
662.139	3254.05
662.331	3155.75
662.522	3116.84
662.714	3088.17
662.906	3159.85
663.097	3084.07
663.289	3034.92
663.481	2987.82
663.673	3118.89
663.864	2969.38
664.056	2930.47
664.247	2916.14
664.439	2989.86
664.631	2881.32
664.822	2918.18
665.014	2983.72
665.205	2899.75
665.397	2907.94
665.588	2871.08
665.78	2869.03
665.971	2860.84
666.163	2889.51
666.354	2881.32
666.546	2971.43
666.737	2711.34
666.929	2778.92
667.12	2883.37
667.311	2856.75
667.503	2785.07
667.694	2848.55
667.885	2711.34
668.077	2629.42
668.268	2656.04
668.459	2684.72
668.651	2705.2
668.842	2711.34
669.033	2815.79
669.224	2621.23
669.416	2617.13
669.607	2658.09
669.798	2594.61
669.989	2621.23
670.18	2678.57
670.371	2625.33
670.563	2551.6
670.754	2510.64
670.945	2492.21
671.136	2553.65
671.327	2504.5
671.518	2629.42
671.709	2559.79
671.9	2512.69
672.091	2494.26
672.282	2371.38
672.473	2498.35
672.664	2494.26
672.855	2506.54
673.046	2416.43
673.237	2461.49
673.428	2391.86
673.619	2377.52
673.809	2467.63
674	2432.82
674.191	2473.78
674.382	2436.91
674.573	2391.86
674.764	2496.3
674.954	2389.81
675.145	2387.76
675.336	2326.32
675.527	2418.48
675.717	2307.89
675.908	2363.19
676.099	2389.81
676.289	2357.04
676.48	2266.93
676.671	2432.82
676.861	2422.58
677.052	2461.49
677.243	2254.64
677.433	2332.47
677.624	2359.09
677.814	2340.66
678.005	2320.18
678.195	2383.66
678.386	2193.2
678.576	2354.99
678.767	2295.6
678.957	2289.46
679.148	2330.42
679.338	2336.56
679.529	2281.27
679.719	2207.54
679.909	2336.56
680.1	2340.66
680.29	2324.27
680.481	2330.42
680.671	2301.75
680.861	2234.16
681.052	2205.49
681.242	2273.07
681.432	2375.47
681.622	2258.74
681.813	2260.79
682.003	2338.61
682.193	2172.72
682.383	2225.97
682.573	2217.78
682.764	2289.46
682.954	2258.74
683.144	2309.94
683.334	2295.6
683.524	2336.56
683.714	2283.31
683.904	2135.86
684.094	2283.31
684.284	2248.5
684.474	2055.99
684.664	2185.01
684.854	2185.01
685.044	2203.44
685.234	2191.16
685.424	2131.76
685.614	2191.16
685.804	2131.76
685.994	2117.43
686.184	2195.25
686.374	2060.09
686.564	2223.92
686.753	2223.92
686.943	2049.85
687.133	2135.86
687.323	2121.52
687.513	2162.48
687.702	2068.28
687.892	2152.24
688.082	2094.9
688.272	2094.9
688.461	2045.75
688.651	2156.34
688.841	2066.23
689.03	2086.71
689.22	2076.47
689.41	2023.22
689.599	2113.33
689.789	2031.41
689.979	2058.04
690.168	2055.99
690.358	1908.54
690.547	1957.69
690.737	1992.5
690.926	2072.37
691.116	1918.78
691.305	1916.73
691.495	1974.07
691.684	1941.3
691.874	1838.91
692.063	1914.68
692.252	2000.69
692.442	1834.81
692.631	1877.82
692.82	1926.97
693.01	1912.63
693.199	1877.82
693.388	1830.71
693.578	1822.52
693.767	1808.19
693.956	1879.86
694.146	1728.31
694.335	1824.57
694.524	1904.44
694.713	1955.64
694.902	1886.01
695.092	1853.24
695.281	1922.87
695.47	1845.05
695.659	1836.86
695.848	1857.34
696.037	1888.06
696.226	1728.31
696.415	1799.99
696.604	1830.71
696.793	1859.38
696.982	1888.06
697.171	1838.91
697.36	1816.38
697.549	1824.57
697.738	1795.9
697.927	1797.95
698.116	1759.03
698.305	1808.19
698.494	1804.09
698.683	1892.15
698.872	1808.19
699.061	1781.56
699.25	1773.37
699.438	1888.06
699.627	1847.1
699.816	1847.1
700.005	1826.62
700.193	1748.79
700.382	1918.78
700.571	1912.63
700.76	1828.67
700.948	1769.27
701.137	1859.38
701.326	1849.15
701.514	1926.97
701.703	1869.62
701.892	1830.71
702.08	1859.38
702.269	1941.3
702.457	1896.25
702.646	1834.81
702.834	1814.33
703.023	1916.73
703.212	1918.78
703.4	1822.52
703.589	1861.43
703.777	1799.99
703.965	1806.14
704.154	1922.87
704.342	1824.57
704.531	1853.24
704.719	1797.95
704.907	1806.14
705.096	1875.77
705.284	1824.57
705.472	1894.2
705.661	1892.15
705.849	1886.01
706.037	1916.73
706.226	1929.02
706.414	2002.74
706.602	1754.94
706.79	1931.06
706.979	1900.34
707.167	1836.86
707.355	1861.43
707.543	1916.73
707.731	1873.72
707.919	1953.59
708.107	1871.67
708.296	1832.76
708.484	1771.32
708.672	1908.54
708.86	1861.43
709.048	1929.02
709.236	1902.39
709.424	1957.69
709.612	1881.91
709.8	1922.87
709.988	1916.73
710.176	1961.78
710.364	1894.2
710.551	1867.58
710.739	1920.82
710.927	1877.82
711.115	1853.24
711.303	1859.38
711.491	2008.89
711.679	1890.1
711.866	1918.78
712.054	1939.26
712.242	1929.02
712.43	1988.41
712.617	1937.21
712.805	1791.8
712.993	1984.31
713.181	1982.26
713.368	1959.74
713.556	1947.45
713.744	1867.58
713.931	2072.37
714.119	1986.36
714.306	1922.87
714.494	1984.31
714.682	1918.78
714.869	1935.16
715.057	1912.63
715.244	1910.58
715.432	1982.26
715.619	2051.89
715.807	1947.45
715.994	1853.24
716.182	1957.69
716.369	1959.74
716.556	1896.25
716.744	1849.15
716.931	1974.07
717.119	1906.49
717.306	1957.69
717.493	2029.37
717.681	2031.41
717.868	2080.57
718.055	1961.78
718.242	2053.94
718.43	1949.5
718.617	1929.02
718.804	1969.98
718.991	1937.21
719.179	1986.36
719.366	1976.12
719.553	1963.83
719.74	2010.93
719.927	1980.22
720.114	1972.02
720.301	1986.36
720.488	1998.65
720.676	1857.34
720.863	1972.02
721.05	2015.03
721.237	1929.02
721.424	2010.93
721.611	1996.6
721.798	2049.85
721.985	2002.74
722.172	1926.97
722.358	1992.5
722.545	2025.27
722.732	2039.61
722.919	2015.03
723.106	2047.8
723.293	1943.35
723.48	1855.29
723.667	1978.17
723.853	2072.37
724.04	2062.13
724.227	2004.79
724.414	2006.84
724.6	2025.27
724.787	2035.51
724.974	1920.82
725.161	2017.08
725.347	2015.03
725.534	1949.5
725.72	2080.57
725.907	2023.22
726.094	2017.08
726.28	1935.16
726.467	1926.97
726.653	1926.97
726.84	2101.05
727.027	2068.28
727.213	1865.53
727.4	2072.37
727.586	1963.83
727.773	2117.43
727.959	1941.3
728.145	1955.64
728.332	2060.09
728.518	2029.37
728.705	2039.61
728.891	2023.22
729.077	2129.72
729.264	2131.76
729.45	2004.79
729.636	2064.18
729.823	2086.71
730.009	1978.17
730.195	1974.07
730.382	1941.3
730.568	2010.93
730.754	2109.24
730.94	2062.13
731.126	2037.56
731.313	2000.69
731.499	1976.12
731.685	1920.82
731.871	2002.74
732.057	2062.13
732.243	1982.26
732.429	2158.39
732.615	2015.03
732.801	2037.56
732.987	2094.9
733.173	2033.46
733.359	1941.3
733.545	2010.93
733.731	1955.64
733.917	1982.26
734.103	1980.22
734.289	2201.4
734.475	1980.22
734.661	1976.12
734.847	1984.31
735.033	2096.95
735.219	1976.12
735.404	2092.85
735.59	2064.18
735.776	1994.55
735.962	2010.93
736.148	2064.18
736.333	1947.45
736.519	2021.17
736.705	1998.65
736.89	1951.54
737.076	1898.3
737.262	2025.27
737.447	1931.06
737.633	1879.86
737.819	2068.28
738.004	2002.74
738.19	2012.98
738.375	2027.32
738.561	2037.56
738.747	2092.85
738.932	1926.97
739.118	2012.98
739.303	1916.73
739.489	1965.88
739.674	1845.05
739.859	1990.45
740.045	2041.65
740.23	1904.44
740.416	1998.65
740.601	1906.49
740.786	1939.26
740.972	1902.39
741.157	1908.54
741.342	1941.3
741.528	1840.95
741.713	1861.43
741.898	1863.48
742.084	1834.81
742.269	1888.06
742.454	1953.59
742.639	1924.92
742.824	1730.36
743.01	1865.53
743.195	1863.48
743.38	1845.05
743.565	1888.06
743.75	1906.49
743.935	1718.08
744.12	1763.13
744.305	1875.77
744.49	1756.99
744.675	1906.49
744.86	1797.95
745.045	1857.34
745.23	1740.6
745.415	1759.03
745.6	1675.07
745.785	1699.64
745.97	1711.93
746.155	1763.13
746.34	1689.4
746.525	1761.08
746.71	1718.08
746.895	1722.17
747.079	1640.25
747.264	1625.92
747.449	1673.02
747.634	1619.77
747.819	1580.86
748.003	1646.4
748.188	1650.49
748.373	1621.82
748.557	1515.33
748.742	1576.77
748.927	1603.39
749.111	1599.29
749.296	1576.77
749.481	1591.1
749.665	1548.09
749.85	1466.17
750.034	1474.37
750.219	1531.71
750.404	1490.75
750.588	1457.98
750.773	1558.33
750.957	1466.17
751.141	1455.94
751.326	1552.19
751.51	1433.41
751.695	1410.88
751.879	1517.37
752.064	1466.17
752.248	1433.41
752.432	1482.56
752.617	1363.78
752.801	1300.29
752.985	1410.88
753.17	1288
753.354	1347.39
753.538	1345.34
753.722	1228.61
753.907	1359.68
754.091	1285.95
754.275	1308.48
754.459	1318.72
754.643	1255.23
754.828	1290.05
755.012	1265.47
755.196	1230.66
755.38	1220.42
755.564	1197.89
755.748	1152.84
755.932	1253.19
756.116	1140.55
756.3	1199.94
756.484	1210.18
756.668	1261.38
756.852	1146.69
757.036	1195.84
757.22	1177.41
757.404	1171.27
757.588	1220.42
757.772	1265.47
757.956	1079.11
758.14	1228.61
758.323	1201.99
758.507	1169.22
758.691	1189.7
758.875	1148.74
759.059	1066.82
759.242	1087.3
759.426	1003.33
759.61	1101.64
759.794	1087.3
759.977	1087.3
760.161	1085.25
760.345	1032.01
760.528	1019.72
760.712	1046.34
760.895	1017.67
761.079	1013.57
761.263	970.57
761.446	999.24
761.63	1054.53
761.813	1122.12
761.997	1040.2
762.18	954.18
762.364	1056.58
762.547	962.37
762.731	960.33
762.914	917.32
763.098	1036.1
763.281	1060.68
763.464	925.51
763.648	989
763.831	892.74
764.015	954.18
764.198	995.14
764.381	921.42
764.564	1013.57
764.748	989
764.931	1019.72
765.114	905.03
765.297	948.04
765.481	862.02
765.664	847.69
765.847	857.93
766.03	945.99
766.213	945.99
766.397	819.02
766.58	884.55
766.763	872.26
766.946	839.5
767.129	773.96
767.312	849.74
767.495	868.17
767.678	847.69
767.861	859.98
768.044	927.56
768.227	890.7
768.41	864.07
768.593	898.89
768.776	862.02
768.959	839.5
769.142	821.06
769.324	870.22
769.507	851.78
769.69	900.94
769.873	839.5
770.056	763.72
770.239	835.4
770.421	802.63
770.604	821.06
770.787	800.59
770.97	780.11
771.152	804.68
771.335	843.59
771.518	730.95
771.7	771.91
771.883	714.57
772.066	726.86
772.248	786.25
772.431	747.34
772.613	823.11
772.796	788.3
772.978	782.15
773.161	765.77
773.343	737.1
773.526	685.9
773.708	739.15
773.891	749.39
774.073	724.81
774.256	712.52
774.438	708.43
774.621	698.19
774.803	751.43
774.985	638.8
775.168	739.15
775.35	698.19
775.532	675.66
775.715	657.23
775.897	700.23
776.079	720.71
776.261	649.04
776.444	659.28
776.626	661.32
776.808	696.14
776.99	671.56
777.173	683.85
777.355	573.26
777.537	726.86
777.719	651.08
777.901	642.89
778.083	593.74
778.265	630.6
778.447	642.89
778.629	565.07
778.811	546.64
778.993	663.37
779.175	567.12
779.357	511.82
779.539	538.45
779.721	513.87
779.903	513.87
780.085	597.84
780.267	546.64
780.449	517.97
780.631	550.73
780.812	501.58
780.994	599.88
781.176	577.36
781.358	577.36
781.54	524.11
781.721	552.78
781.903	565.07
782.085	466.77
782.267	591.69
782.448	458.57
782.63	436.05
782.812	534.35
782.993	528.21
783.175	526.16
783.357	427.85
783.538	550.73
783.72	524.11
783.901	446.29
784.083	507.73
784.264	479.05
784.446	460.62
784.627	474.96
784.809	401.23
784.99	405.33
785.172	442.19
785.353	440.14
785.535	393.04
785.716	356.18
785.897	399.18
786.079	454.48
786.26	417.61
786.441	388.94
786.623	335.7
786.804	415.57
786.985	466.77
787.167	436.05
787.348	339.79
787.529	372.56
787.71	393.04
787.891	378.7
788.073	393.04
788.254	376.66
788.435	419.66
788.616	356.18
788.797	307.02
788.978	335.7
789.159	364.37
789.34	335.7
789.522	419.66
789.703	274.26
789.884	345.94
790.065	401.23
790.246	360.27
790.427	364.37
790.607	235.35
790.788	302.93
790.969	337.74
791.15	307.02
791.331	352.08
791.512	302.93
791.693	286.54
791.874	317.26
792.054	401.23
792.235	329.55
792.416	229.2
792.597	304.98
792.778	327.5
792.958	223.06
793.139	245.59
793.32	307.02
793.5	319.31
793.681	323.41
793.862	329.55
794.042	315.22
794.223	264.02
794.404	259.92
794.584	251.73
794.765	304.98
794.945	196.43
795.126	307.02
795.306	261.97
795.487	206.67
795.667	231.25
795.848	302.93
796.028	274.26
796.209	304.98
796.389	270.16
796.57	266.07
796.75	180.05
796.93	290.64
797.111	221.01
797.291	233.3
797.471	204.63
797.652	184.15
797.832	261.97
798.012	286.54
798.192	227.15
798.373	264.02
798.553	286.54
798.733	106.32
798.913	278.35
799.093	255.83
799.274	173.91
799.454	225.11
799.634	171.86
799.814	231.25
799.994	163.67
800.174	247.63
800.354	264.02
800.534	184.15
800.714	200.53
800.894	251.73
801.074	169.81
801.254	227.15
801.434	214.87
801.614	188.24
801.794	178
801.974	665.42
802.154	229.2
802.334	245.59
802.514	251.73
802.693	212.82
802.873	276.31
803.053	233.3
803.233	147.28
803.413	190.29
803.592	100.18
803.772	173.91
803.952	198.48
804.131	202.58
804.311	175.95
804.491	135
804.67	147.28
804.85	173.91
805.03	227.15
805.209	184.15
805.389	175.95
805.568	157.52
805.748	163.67
805.928	204.63
806.107	141.14
806.287	214.87
806.466	206.67
806.646	149.33
806.825	163.67
807.004	132.95
807.184	167.76
807.363	163.67
807.543	194.39
807.722	182.1
807.901	231.25
808.081	63.32
808.26	81.75
808.439	165.71
808.619	110.42
808.798	143.19
808.977	155.47
809.156	112.47
809.336	169.81
809.515	231.25
809.694	128.85
809.873	130.9
810.052	180.05
810.231	249.68
810.411	130.9
810.59	169.81
810.769	204.63
810.948	204.63
811.127	89.94
811.306	120.66
811.485	108.37
811.664	163.67
811.843	89.94
812.022	155.47
812.201	83.8
812.38	126.8
812.559	71.51
812.737	128.85
812.916	67.41
813.095	124.76
813.274	108.37
813.453	147.28
813.632	94.04
813.811	132.95
813.989	167.76
814.168	155.47
814.347	96.08
814.526	159.57
814.704	235.35
814.883	118.61
815.062	180.05
815.24	141.14
815.419	104.28
815.598	153.43
815.776	98.13
815.955	180.05
816.133	145.24
816.312	153.43
816.49	112.47
816.669	145.24
816.847	96.08
817.026	180.05
817.204	192.34
817.383	122.71
817.561	69.46
817.74	132.95
817.918	98.13
818.097	159.57
818.275	110.42
818.453	147.28
818.632	89.94
818.81	53.08
818.988	124.76
819.167	139.09
819.345	112.47
819.523	53.08
819.701	108.37
819.879	155.47
820.058	48.98
820.236	108.37
820.414	137.04
820.592	126.8
820.77	141.14
820.948	75.6
821.127	65.36
821.305	30.55
821.483	147.28
821.661	61.27
821.839	98.13
822.017	114.52
822.195	69.46
822.373	36.69
822.551	57.17
822.729	63.32
822.907	114.52
823.085	110.42
823.262	114.52
823.44	120.66
823.618	100.18
823.796	126.8
823.974	114.52
824.152	53.08
824.329	124.76
824.507	98.13
824.685	122.71
824.863	114.52
825.04	59.22
825.218	137.04
825.396	110.42
825.574	79.7
825.751	61.27
825.929	69.46
826.107	79.7
826.284	102.23
826.462	85.84
826.639	38.74
826.817	-39.08
826.994	180.05
827.172	42.84
827.349	128.85
827.527	83.8
827.704	42.84
827.882	36.69
828.059	32.6
828.237	100.18
828.414	110.42
828.591	57.17
828.769	135
828.946	24.4
829.124	94.04
829.301	91.99
829.478	75.6
829.655	87.89
829.833	104.28
830.01	16.21
830.187	91.99
830.364	14.17
830.542	145.24
830.719	71.51
830.896	89.94
831.073	26.45
831.25	85.84
831.427	57.17
831.604	104.28
831.782	75.6
831.959	46.93
832.136	32.6
832.313	32.6
832.49	73.56
832.667	32.6
832.844	46.93
833.021	24.4
833.198	12.12
833.374	61.27
833.551	34.64
833.728	81.75
833.905	24.4
834.082	1.88
834.259	16.21
834.436	128.85
834.612	57.17
834.789	124.76
834.966	53.08
835.143	94.04
835.319	-55.47
835.496	94.04
835.673	16.21
835.85	102.23
836.026	81.75
836.203	26.45
836.38	75.6
836.556	106.32
836.733	98.13
836.909	16.21
837.086	34.64
837.262	63.32
837.439	44.88
837.616	63.32
837.792	-6.31
837.968	59.22
838.145	57.17
838.321	28.5
838.498	63.32
838.674	14.17
838.851	-20.65
839.027	-12.46
839.203	-10.41
839.38	108.37
839.556	30.55
839.732	12.12
839.909	40.79
840.085	-6.31
840.261	40.79
840.437	38.74
840.614	12.12
840.79	65.36
840.966	24.4
841.142	55.12
841.318	-8.36
841.494	16.21
841.671	67.41
841.847	32.6
842.023	73.56
842.199	69.46
842.375	73.56
842.551	22.36
842.727	75.6
842.903	120.66
843.079	48.98
843.255	8.02
843.431	-32.94
843.607	40.79
843.783	67.41
843.959	32.6
844.134	-28.84
844.31	48.98
844.486	-16.55
844.662	32.6
844.838	48.98
845.013	20.31
845.189	46.93
845.365	59.22
845.541	30.55
845.716	8.02
845.892	-2.22
846.068	16.21
846.244	-26.79
846.419	42.84
846.595	48.98
846.77	5.97
846.946	73.56
847.122	-2.22
847.297	34.64
847.473	69.46
847.648	-12.46
847.824	-8.36
847.999	1.88
848.175	36.69
848.35	96.08
848.526	-37.03
848.701	28.5
848.876	77.65
849.052	18.26
849.227	-2.22
849.403	57.17
849.578	48.98
849.753	22.36
849.929	8.02
850.104	75.6
850.279	30.55
850.454	36.69
850.63	20.31
850.805	-18.6
850.98	24.4
851.155	94.04
851.33	38.74
851.505	-39.08
851.681	-24.75
851.856	10.07
852.031	116.56
852.206	40.79
852.381	-26.79
852.556	61.27
852.731	26.45
852.906	73.56
853.081	22.36
853.256	28.5
853.431	51.03
853.606	65.36
853.781	22.36
853.956	-18.6
854.131	18.26
854.305	32.6
854.48	-2.22
854.655	12.12
854.83	48.98
855.005	30.55
855.18	32.6
855.354	-32.94
855.529	12.12
855.704	-24.75
855.879	10.07
856.053	-39.08
856.228	28.5
856.403	24.4
856.577	18.26
856.752	87.89
856.926	12.12
857.101	-28.84
857.276	-8.36
857.45	65.36
857.625	59.22
857.799	87.89
857.974	53.08
858.148	3.93
858.323	-20.65
858.497	8.02
858.672	73.56
858.846	34.64
859.02	10.07
859.195	-37.03
859.369	-0.17
859.543	-4.27
859.718	44.88
859.892	10.07
860.066	-24.75
860.241	-14.51
860.415	53.08
860.589	36.69
860.763	14.17
860.938	10.07
861.112	40.79
861.286	8.02
861.46	16.21
861.634	-26.79
861.808	57.17
861.982	-8.36
862.157	46.93
862.331	-34.99
862.505	-80.04
862.679	1.88
862.853	53.08
863.027	30.55
863.201	-2.22
863.375	-24.75
863.549	30.55
863.722	24.4
863.896	20.31
864.07	38.74
864.244	67.41
864.418	73.56
864.592	-8.36
864.766	-39.08
864.939	57.17
865.113	69.46
865.287	3.93
865.461	40.79
865.634	8.02
865.808	24.4
865.982	-34.99
866.156	42.84
866.329	-4.27
866.503	-12.46
866.676	44.88
866.85	-26.79
867.024	-20.65
867.197	20.31
867.371	8.02
867.544	10.07
867.718	-8.36
867.891	85.84
868.065	40.79
868.238	65.36
868.412	-30.89
868.585	55.12
868.759	3.93
868.932	46.93
869.105	32.6
869.279	-8.36
869.452	-22.7
869.625	-49.32
869.799	40.79
869.972	65.36
870.145	14.17
870.319	28.5
870.492	-67.75
870.665	28.5
870.838	42.84
871.011	-30.89
871.185	-45.23
871.358	16.21
871.531	-24.75
871.704	-34.99
871.877	30.55
872.05	-53.42
872.223	-24.75
872.396	36.69
872.569	85.84
872.742	5.97
872.915	28.5
873.088	-12.46
873.261	-53.42
873.434	-49.32
873.607	10.07
873.78	20.31
873.953	-10.41
874.126	-4.27
874.299	32.6
874.471	-39.08
874.644	22.36
874.817	46.93
874.99	57.17
875.163	20.31
875.335	67.41
875.508	-12.46
875.681	1.88
875.853	-12.46
876.026	34.64
876.199	69.46
876.371	12.12
876.544	-10.41
876.717	40.79
876.889	-71.85
877.062	-34.99
877.234	26.45
877.407	28.5
877.579	51.03
877.752	32.6
877.924	-8.36
878.097	-57.51
878.269	1.88
878.442	-73.9
878.614	-16.55
878.786	-28.84
878.959	40.79
879.131	-8.36
879.303	10.07
879.476	-22.7
879.648	-43.18
879.82	22.36
879.993	-98.47
880.165	-18.6
880.337	-34.99
880.509	18.26
880.681	-75.95
880.854	-34.99
881.026	40.79
881.198	44.88
881.37	14.17
881.542	65.36
881.714	-55.47
881.886	-26.79
882.058	-28.84
882.23	-4.27
882.402	-10.41
882.574	24.4
882.746	-32.94
882.918	32.6
883.09	-16.55
883.262	-18.6
883.434	16.21
883.606	40.79
883.778	-2.22
883.95	71.51
884.122	32.6
884.293	-8.36
884.465	-8.36
884.637	-28.84
884.809	26.45
884.98	-24.75
885.152	10.07
885.324	-28.84
885.496	71.51
885.667	-20.65
885.839	-28.84
886.011	40.79
886.182	48.98
886.354	-41.13
886.525	-77.99
886.697	-22.7
886.869	-41.13
887.04	-34.99
887.212	-4.27
887.383	-4.27
887.555	-55.47
887.726	30.55
887.897	-14.51
888.069	-26.79
888.24	-12.46
888.412	-8.36
888.583	-41.13
888.754	-4.27
888.926	-28.84
889.097	53.08
889.268	53.08
889.44	8.02
889.611	14.17
889.782	-2.22
889.953	-32.94
890.125	65.36
890.296	-26.79
890.467	-28.84
890.638	1.88
890.809	-8.36
890.98	-16.55
891.151	-37.03
891.323	-8.36
891.494	40.79
891.665	-8.36
891.836	61.27
892.007	-28.84
892.178	-0.17
892.349	-4.27
892.52	-51.37
892.691	46.93
892.862	-6.31
893.032	28.5
893.203	-49.32
893.374	75.6
893.545	-34.99
893.716	69.46
893.887	51.03
894.057	-86.19
894.228	12.12
894.399	-0.17
894.57	8.02
894.74	24.4
894.911	-71.85
895.082	-26.79
895.253	-12.46
895.423	18.26
895.594	71.51
895.764	38.74
895.935	-12.46
896.106	-8.36
896.276	51.03
896.447	3.93
896.617	1.88
896.788	-32.94
896.958	28.5
897.129	-12.46
897.299	32.6
897.47	-32.94
897.64	-8.36
897.81	32.6
897.981	-24.75
898.151	-20.65
898.322	22.36
898.492	-2.22
898.662	-28.84
898.832	-57.51
899.003	-34.99
899.173	-34.99
899.343	-18.6
899.513	-4.27
