Data from USB4F104151__277__11-12-48-701.txt Node

Date: Wed Mar 12 11:12:48 EDT 2025
User: louis
Spectrometer: USB4F10415
Trigger mode: 4
Integration Time (sec): 2.000000E-2
Scans to average: 1
Electric dark correction enabled: true
Nonlinearity correction enabled: false
Boxcar width: 0
XAxis mode: Wavelengths
Number of Pixels in Spectrum: 3648
>>>>>Begin Spectral Data<<<<<
178.204	-116.9
178.424	-116.9
178.644	-116.9
178.864	-51.37
179.084	-59.56
179.304	-8.36
179.524	-20.65
179.744	-18.6
179.964	-24.75
180.184	67.41
180.404	18.26
180.624	20.31
180.844	-16.55
181.064	8.02
181.283	-22.7
181.503	-51.37
181.723	48.98
181.943	-26.79
182.163	-4.27
182.383	20.31
182.602	-12.46
182.822	-45.23
183.042	1.88
183.262	59.22
183.482	30.55
183.701	40.79
183.921	8.02
184.141	24.4
184.361	-43.18
184.58	-16.55
184.8	51.03
185.02	-32.94
185.239	65.36
185.459	48.98
185.679	-39.08
185.898	-32.94
186.118	24.4
186.338	8.02
186.557	83.8
186.777	46.93
186.997	46.93
187.216	8.02
187.436	10.07
187.655	16.21
187.875	69.46
188.095	18.26
188.314	44.88
188.534	24.4
188.753	32.6
188.973	-16.55
189.192	32.6
189.412	-26.79
189.631	87.89
189.851	32.6
190.07	53.08
190.29	75.6
190.509	-4.27
190.729	-6.31
190.948	46.93
191.168	124.76
191.387	85.84
191.607	48.98
191.826	30.55
192.045	51.03
192.265	12.12
192.484	40.79
192.704	10.07
192.923	-28.84
193.142	53.08
193.362	85.84
193.581	40.79
193.8	3.93
194.02	94.04
194.239	8.02
194.458	128.85
194.678	5.97
194.897	-22.7
195.116	-0.17
195.335	-18.6
195.555	30.55
195.774	30.55
195.993	12.12
196.212	20.31
196.432	20.31
196.651	48.98
196.87	87.89
197.089	20.31
197.308	-2.22
197.528	67.41
197.747	-16.55
197.966	-90.28
198.185	59.22
198.404	3.93
198.623	61.27
198.842	16.21
199.062	40.79
199.281	38.74
199.5	-45.23
199.719	8.02
199.938	10.07
200.157	-0.17
200.376	14.17
200.595	34.64
200.814	-10.41
201.033	8.02
201.252	34.64
201.471	63.32
201.69	36.69
201.909	-2.22
202.128	42.84
202.347	91.99
202.566	26.45
202.785	10.07
203.004	24.4
203.223	63.32
203.442	-2.22
203.661	40.79
203.879	40.79
204.098	-0.17
204.317	12.12
204.536	67.41
204.755	55.12
204.974	98.13
205.193	32.6
205.411	-0.17
205.63	-12.46
205.849	24.4
206.068	102.23
206.287	46.93
206.505	-4.27
206.724	46.93
206.943	-6.31
207.162	5.97
207.381	77.65
207.599	53.08
207.818	-32.94
208.037	8.02
208.255	-0.17
208.474	-4.27
208.693	36.69
208.911	51.03
209.13	-37.03
209.349	1.88
209.567	48.98
209.786	-53.42
210.005	-20.65
210.223	14.17
210.442	-69.8
210.661	65.36
210.879	-2.22
211.098	-12.46
211.316	30.55
211.535	-12.46
211.753	-16.55
211.972	28.5
212.191	16.21
212.409	67.41
212.628	22.36
212.846	-28.84
213.065	-2.22
213.283	32.6
213.502	75.6
213.72	28.5
213.938	-80.04
214.157	16.21
214.375	57.17
214.594	-4.27
214.812	12.12
215.031	102.23
215.249	16.21
215.467	-57.51
215.686	1.88
215.904	44.88
216.122	20.31
216.341	24.4
216.559	63.32
216.778	98.13
216.996	20.31
217.214	26.45
217.432	46.93
217.651	48.98
217.869	55.12
218.087	8.02
218.306	8.02
218.524	26.45
218.742	-12.46
218.96	85.84
219.179	53.08
219.397	63.32
219.615	61.27
219.833	22.36
220.051	65.36
220.27	36.69
220.488	94.04
220.706	40.79
220.924	24.4
221.142	-0.17
221.36	-10.41
221.578	73.56
221.796	22.36
222.015	89.94
222.233	59.22
222.451	48.98
222.669	-65.71
222.887	34.64
223.105	26.45
223.323	12.12
223.541	20.31
223.759	110.42
223.977	-14.51
224.195	42.84
224.413	69.46
224.631	73.56
224.849	16.21
225.067	75.6
225.285	-41.13
225.503	8.02
225.721	-4.27
225.939	12.12
226.157	16.21
226.375	44.88
226.592	30.55
226.81	38.74
227.028	38.74
227.246	98.13
227.464	24.4
227.682	51.03
227.9	73.56
228.117	-32.94
228.335	38.74
228.553	48.98
228.771	24.4
228.989	36.69
229.206	38.74
229.424	-24.75
229.642	48.98
229.86	-75.95
230.077	24.4
230.295	59.22
230.513	-4.27
230.731	46.93
230.948	110.42
231.166	40.79
231.384	-77.99
231.601	-2.22
231.819	44.88
232.037	36.69
232.254	-18.6
232.472	24.4
232.689	55.12
232.907	16.21
233.125	10.07
233.342	65.36
233.56	-2.22
233.777	5.97
233.995	28.5
234.213	85.84
234.43	36.69
234.648	-8.36
234.865	16.21
235.083	53.08
235.3	44.88
235.518	1.88
235.735	89.94
235.953	20.31
236.17	55.12
236.388	8.02
236.605	3.93
236.822	89.94
237.04	16.21
237.257	61.27
237.475	61.27
237.692	55.12
237.909	-18.6
238.127	42.84
238.344	26.45
238.562	85.84
238.779	-65.71
238.996	-12.46
239.214	8.02
239.431	89.94
239.648	-55.47
239.865	40.79
240.083	26.45
240.3	16.21
240.517	81.75
240.735	65.36
240.952	3.93
241.169	38.74
241.386	-14.51
241.603	10.07
241.821	-8.36
242.038	59.22
242.255	59.22
242.472	91.99
242.689	55.12
242.907	55.12
243.124	83.8
243.341	48.98
243.558	-20.65
243.775	-14.51
243.992	12.12
244.209	-53.42
244.426	112.47
244.643	51.03
244.86	14.17
245.078	36.69
245.295	-6.31
245.512	40.79
245.729	-41.13
245.946	61.27
246.163	18.26
246.38	-45.23
246.597	-49.32
246.814	110.42
247.031	-28.84
247.248	-32.94
247.464	-28.84
247.681	28.5
247.898	-26.79
248.115	-28.84
248.332	-32.94
248.549	53.08
248.766	91.99
248.983	85.84
249.2	44.88
249.417	40.79
249.633	-22.7
249.85	46.93
250.067	12.12
250.284	59.22
250.501	71.51
250.717	16.21
250.934	26.45
251.151	98.13
251.368	73.56
251.585	34.64
251.801	10.07
252.018	14.17
252.235	61.27
252.451	24.4
252.668	34.64
252.885	22.36
253.102	12.12
253.318	-10.41
253.535	36.69
253.752	24.4
253.968	-47.27
254.185	38.74
254.401	-12.46
254.618	36.69
254.835	20.31
255.051	85.84
255.268	8.02
255.484	18.26
255.701	-6.31
255.917	91.99
256.134	5.97
256.351	42.84
256.567	-45.23
256.784	18.26
257	-28.84
257.217	-10.41
257.433	63.32
257.65	5.97
257.866	30.55
258.082	1.88
258.299	-4.27
258.515	-14.51
258.732	14.17
258.948	26.45
259.165	5.97
259.381	63.32
259.597	-32.94
259.814	24.4
260.03	18.26
260.246	67.41
260.463	44.88
260.679	10.07
260.895	53.08
261.112	89.94
261.328	100.18
261.544	-8.36
261.761	44.88
261.977	10.07
262.193	67.41
262.409	53.08
262.626	16.21
262.842	-4.27
263.058	20.31
263.274	10.07
263.49	61.27
263.707	20.31
263.923	12.12
264.139	-32.94
264.355	5.97
264.571	135
264.787	20.31
265.004	46.93
265.22	20.31
265.436	-14.51
265.652	53.08
265.868	67.41
266.084	-59.56
266.3	98.13
266.516	-0.17
266.732	46.93
266.948	16.21
267.164	22.36
267.38	26.45
267.596	102.23
267.812	53.08
268.028	44.88
268.244	5.97
268.46	30.55
268.676	-14.51
268.892	20.31
269.108	-2.22
269.324	-6.31
269.54	-41.13
269.756	81.75
269.972	-34.99
270.188	65.36
270.403	32.6
270.619	-39.08
270.835	53.08
271.051	73.56
271.267	24.4
271.483	10.07
271.698	12.12
271.914	34.64
272.13	-10.41
272.346	-4.27
272.562	36.69
272.777	73.56
272.993	10.07
273.209	-0.17
273.425	44.88
273.64	1.88
273.856	44.88
274.072	-10.41
274.287	24.4
274.503	98.13
274.719	69.46
274.934	46.93
275.15	24.4
275.366	69.46
275.581	67.41
275.797	-14.51
276.012	12.12
276.228	155.47
276.444	71.51
276.659	46.93
276.875	12.12
277.09	-41.13
277.306	-24.75
277.521	-12.46
277.737	57.17
277.952	53.08
278.168	18.26
278.383	-18.6
278.599	44.88
278.814	53.08
279.03	18.26
279.245	55.12
279.461	8.02
279.676	-57.51
279.892	10.07
280.107	12.12
280.322	10.07
280.538	46.93
280.753	3.93
280.969	1.88
281.184	61.27
281.399	44.88
281.615	26.45
281.83	57.17
282.045	40.79
282.26	12.12
282.476	126.8
282.691	85.84
282.906	-6.31
283.122	48.98
283.337	-47.27
283.552	8.02
283.767	51.03
283.983	36.69
284.198	12.12
284.413	34.64
284.628	-18.6
284.843	51.03
285.058	79.7
285.274	24.4
285.489	55.12
285.704	65.36
285.919	53.08
286.134	-12.46
286.349	30.55
286.564	16.21
286.779	98.13
286.995	-2.22
287.21	14.17
287.425	10.07
287.64	-14.51
287.855	69.46
288.07	59.22
288.285	65.36
288.5	-22.7
288.715	5.97
288.93	65.36
289.145	73.56
289.36	75.6
289.575	83.8
289.79	53.08
290.004	61.27
290.219	48.98
290.434	-6.31
290.649	51.03
290.864	42.84
291.079	-37.03
291.294	42.84
291.509	32.6
291.724	16.21
291.938	-45.23
292.153	91.99
292.368	61.27
292.583	14.17
292.798	30.55
293.012	71.51
293.227	63.32
293.442	48.98
293.657	30.55
293.871	1.88
294.086	34.64
294.301	36.69
294.516	106.32
294.73	12.12
294.945	-12.46
295.16	-18.6
295.374	65.36
295.589	118.61
295.804	10.07
296.018	-16.55
296.233	94.04
296.447	16.21
296.662	67.41
296.877	79.7
297.091	67.41
297.306	1.88
297.52	28.5
297.735	94.04
297.949	26.45
298.164	63.32
298.378	3.93
298.593	22.36
298.807	-2.22
299.022	-41.13
299.236	8.02
299.451	87.89
299.665	3.93
299.88	20.31
300.094	22.36
300.309	65.36
300.523	102.23
300.737	87.89
300.952	-4.27
301.166	83.8
301.381	-4.27
301.595	8.02
301.809	5.97
302.024	57.17
302.238	34.64
302.452	67.41
302.667	63.32
302.881	77.65
303.095	53.08
303.309	44.88
303.524	8.02
303.738	18.26
303.952	20.31
304.166	63.32
304.381	-4.27
304.595	32.6
304.809	-53.42
305.023	10.07
305.237	79.7
305.452	-18.6
305.666	110.42
305.88	16.21
306.094	32.6
306.308	87.89
306.522	5.97
306.736	57.17
306.95	-30.89
307.164	36.69
307.379	20.31
307.593	18.26
307.807	28.5
308.021	77.65
308.235	32.6
308.449	5.97
308.663	51.03
308.877	32.6
309.091	20.31
309.305	75.6
309.519	10.07
309.733	63.32
309.947	-37.03
310.161	65.36
310.374	14.17
310.588	14.17
310.802	10.07
311.016	-69.8
311.23	116.56
311.444	26.45
311.658	26.45
311.872	36.69
312.085	30.55
312.299	73.56
312.513	53.08
312.727	-28.84
312.941	8.02
313.154	22.36
313.368	40.79
313.582	22.36
313.796	67.41
314.009	51.03
314.223	116.56
314.437	26.45
314.651	-12.46
314.864	24.4
315.078	85.84
315.292	59.22
315.505	-73.9
315.719	65.36
315.933	3.93
316.146	-30.89
316.36	-8.36
316.573	87.89
316.787	-12.46
317.001	-24.75
317.214	18.26
317.428	51.03
317.641	34.64
317.855	22.36
318.068	30.55
318.282	1.88
318.495	108.37
318.709	51.03
318.922	48.98
319.136	149.33
319.349	28.5
319.563	12.12
319.776	63.32
319.99	-45.23
320.203	24.4
320.417	10.07
320.63	44.88
320.843	118.61
321.057	-2.22
321.27	38.74
321.483	85.84
321.697	73.56
321.91	28.5
322.124	-6.31
322.337	28.5
322.55	81.75
322.763	24.4
322.977	32.6
323.19	-71.85
323.403	34.64
323.617	36.69
323.83	55.12
324.043	-8.36
324.256	10.07
324.469	67.41
324.683	122.71
324.896	96.08
325.109	28.5
325.322	44.88
325.535	137.04
325.748	94.04
325.962	3.93
326.175	-6.31
326.388	16.21
326.601	44.88
326.814	34.64
327.027	77.65
327.24	114.52
327.453	28.5
327.666	69.46
327.879	14.17
328.092	51.03
328.305	30.55
328.518	16.21
328.731	24.4
328.944	48.98
329.157	81.75
329.37	1.88
329.583	89.94
329.796	65.36
330.009	-16.55
330.222	71.51
330.435	42.84
330.648	-16.55
330.861	108.37
331.073	18.26
331.286	67.41
331.499	98.13
331.712	20.31
331.925	-4.27
332.138	51.03
332.35	38.74
332.563	20.31
332.776	51.03
332.989	40.79
333.202	65.36
333.414	141.14
333.627	120.66
333.84	65.36
334.053	71.51
334.265	69.46
334.478	-20.65
334.691	46.93
334.903	14.17
335.116	-8.36
335.329	40.79
335.541	22.36
335.754	116.56
335.966	3.93
336.179	-4.27
336.392	10.07
336.604	26.45
336.817	110.42
337.029	12.12
337.242	30.55
337.454	116.56
337.667	-32.94
337.88	112.47
338.092	122.71
338.305	59.22
338.517	83.8
338.729	48.98
338.942	85.84
339.154	98.13
339.367	-41.13
339.579	73.56
339.792	5.97
340.004	63.32
340.217	42.84
340.429	28.5
340.641	122.71
340.854	-26.79
341.066	20.31
341.278	14.17
341.491	26.45
341.703	16.21
341.915	34.64
342.128	79.7
342.34	87.89
342.552	42.84
342.764	32.6
342.977	40.79
343.189	8.02
343.401	12.12
343.613	12.12
343.826	22.36
344.038	-8.36
344.25	75.6
344.462	91.99
344.674	53.08
344.886	69.46
345.099	44.88
345.311	32.6
345.523	59.22
345.735	30.55
345.947	36.69
346.159	75.6
346.371	69.46
346.583	36.69
346.795	61.27
347.007	-20.65
347.219	28.5
347.431	8.02
347.643	102.23
347.855	46.93
348.067	3.93
348.279	-14.51
348.491	122.71
348.703	135
348.915	53.08
349.127	36.69
349.339	8.02
349.551	-8.36
349.763	-14.51
349.975	24.4
350.187	44.88
350.399	85.84
350.61	120.66
350.822	73.56
351.034	-0.17
351.246	51.03
351.458	-4.27
351.669	34.64
351.881	85.84
352.093	89.94
352.305	12.12
352.517	16.21
352.728	3.93
352.94	71.51
353.152	100.18
353.363	22.36
353.575	46.93
353.787	48.98
353.999	46.93
354.21	61.27
354.422	73.56
354.633	61.27
354.845	22.36
355.057	16.21
355.268	77.65
355.48	14.17
355.692	22.36
355.903	87.89
356.115	75.6
356.326	28.5
356.538	102.23
356.749	-20.65
356.961	118.61
357.172	1.88
357.384	36.69
357.595	100.18
357.807	-12.46
358.018	44.88
358.23	73.56
358.441	3.93
358.653	40.79
358.864	28.5
359.075	16.21
359.287	36.69
359.498	114.52
359.709	128.85
359.921	46.93
360.132	-6.31
360.344	3.93
360.555	-24.75
360.766	18.26
360.977	40.79
361.189	-18.6
361.4	44.88
361.611	61.27
361.823	44.88
362.034	28.5
362.245	28.5
362.456	36.69
362.667	79.7
362.879	-0.17
363.09	12.12
363.301	48.98
363.512	-45.23
363.723	83.8
363.935	98.13
364.146	53.08
364.357	151.38
364.568	71.51
364.779	44.88
364.99	30.55
365.201	28.5
365.412	67.41
365.623	71.51
365.834	40.79
366.045	32.6
366.256	100.18
366.467	30.55
366.678	1.88
366.889	26.45
367.1	59.22
367.311	42.84
367.522	46.93
367.733	48.98
367.944	63.32
368.155	63.32
368.366	1.88
368.577	-2.22
368.788	63.32
368.999	32.6
369.209	46.93
369.42	42.84
369.631	75.6
369.842	32.6
370.053	67.41
370.264	71.51
370.474	32.6
370.685	94.04
370.896	24.4
371.107	165.71
371.317	-28.84
371.528	100.18
371.739	26.45
371.95	61.27
372.16	55.12
372.371	44.88
372.582	61.27
372.792	42.84
373.003	57.17
373.214	91.99
373.424	106.32
373.635	3.93
373.846	55.12
374.056	67.41
374.267	46.93
374.477	30.55
374.688	-28.84
374.898	85.84
375.109	20.31
375.319	28.5
375.53	81.75
375.74	143.19
375.951	-12.46
376.161	22.36
376.372	24.4
376.582	61.27
376.793	126.8
377.003	57.17
377.214	75.6
377.424	44.88
377.635	94.04
377.845	94.04
378.055	53.08
378.266	-22.7
378.476	1.88
378.686	108.37
378.897	34.64
379.107	30.55
379.317	67.41
379.528	69.46
379.738	59.22
379.948	40.79
380.158	63.32
380.369	28.5
380.579	42.84
380.789	42.84
380.999	20.31
381.21	65.36
381.42	30.55
381.63	87.89
381.84	69.46
382.05	71.51
382.261	71.51
382.471	118.61
382.681	46.93
382.891	48.98
383.101	22.36
383.311	28.5
383.521	57.17
383.731	77.65
383.941	87.89
384.151	53.08
384.361	63.32
384.571	26.45
384.781	81.75
384.991	65.36
385.201	94.04
385.411	20.31
385.621	51.03
385.831	81.75
386.041	110.42
386.251	65.36
386.461	1.88
386.671	36.69
386.881	116.56
387.091	67.41
387.301	73.56
387.511	65.36
387.72	12.12
387.93	30.55
388.14	48.98
388.35	55.12
388.56	61.27
388.769	22.36
388.979	124.76
389.189	53.08
389.399	16.21
389.609	165.71
389.818	122.71
390.028	44.88
390.238	153.43
390.447	77.65
390.657	106.32
390.867	-12.46
391.076	42.84
391.286	71.51
391.496	114.52
391.705	51.03
391.915	73.56
392.125	83.8
392.334	-14.51
392.544	116.56
392.753	63.32
392.963	65.36
393.172	96.08
393.382	75.6
393.591	24.4
393.801	26.45
394.01	83.8
394.22	38.74
394.429	106.32
394.639	71.51
394.848	81.75
395.058	104.28
395.267	81.75
395.477	51.03
395.686	145.24
395.895	143.19
396.105	155.47
396.314	98.13
396.524	61.27
396.733	126.8
396.942	106.32
397.152	94.04
397.361	98.13
397.57	108.37
397.78	145.24
397.989	159.57
398.198	169.81
398.407	130.9
398.617	110.42
398.826	122.71
399.035	130.9
399.244	89.94
399.453	94.04
399.663	163.67
399.872	130.9
400.081	69.46
400.29	118.61
400.499	139.09
400.708	143.19
400.917	81.75
401.127	182.1
401.336	75.6
401.545	212.82
401.754	106.32
401.963	126.8
402.172	196.43
402.381	114.52
402.59	173.91
402.799	159.57
403.008	194.39
403.217	165.71
403.426	112.47
403.635	83.8
403.844	108.37
404.053	100.18
404.262	120.66
404.471	210.77
404.68	155.47
404.888	241.49
405.097	87.89
405.306	182.1
405.515	153.43
405.724	182.1
405.933	163.67
406.142	175.95
406.35	153.43
406.559	198.48
406.768	184.15
406.977	190.29
407.185	188.24
407.394	159.57
407.603	145.24
407.812	231.25
408.02	241.49
408.229	204.63
408.438	268.11
408.646	296.78
408.855	247.63
409.064	292.69
409.272	386.9
409.481	358.22
409.69	327.5
409.898	272.21
410.107	343.89
410.315	347.98
410.524	307.02
410.733	347.98
410.941	364.37
411.15	470.86
411.358	438.09
411.567	411.47
411.775	431.95
411.984	468.81
412.192	485.2
412.401	501.58
412.609	454.48
412.818	591.69
413.026	540.49
413.234	569.16
413.443	628.56
413.651	575.31
413.86	685.9
414.068	585.55
414.276	765.77
414.485	681.8
414.693	784.2
414.901	753.48
415.11	782.15
415.318	794.44
415.526	868.17
415.734	890.7
415.943	943.94
416.151	1003.33
416.359	935.75
416.567	917.32
416.776	1105.73
416.984	1044.29
417.192	1087.3
417.4	1144.64
417.608	1154.88
417.817	1085.25
418.025	1322.82
418.233	1316.67
418.441	1308.48
418.649	1365.82
418.857	1482.56
419.065	1472.32
419.273	1554.24
419.481	1474.37
419.689	1630.01
419.897	1644.35
420.105	1771.32
420.313	1748.79
420.521	1929.02
420.729	1847.1
420.937	1986.36
421.145	2027.32
421.353	2101.05
421.561	2131.76
421.769	2338.61
421.977	2391.86
422.185	2273.07
422.393	2490.16
422.601	2543.41
422.809	2567.98
423.017	2576.17
423.224	2621.23
423.432	2860.84
423.64	2764.59
423.848	3143.46
424.056	3108.65
424.263	3223.33
424.471	3209
424.679	3378.98
424.887	3528.48
425.094	3618.59
425.302	3700.51
425.51	3720.99
425.718	3817.24
425.925	3878.68
426.133	4149.01
426.341	4136.73
426.548	4445.97
426.756	4484.88
426.964	4618
427.171	4845.32
427.379	4812.56
427.586	5033.74
427.794	5197.57
428.001	5373.7
428.209	5676.8
428.417	5560.06
428.624	5934.84
428.832	6029.05
429.039	5846.78
429.247	5943.03
429.454	6557.43
429.662	6948.59
429.869	6440.69
430.076	6774.51
430.284	6735.6
430.491	7096.04
430.699	7464.68
430.906	7247.59
431.114	7530.21
431.321	7763.68
431.528	7825.12
431.736	8494.8
431.943	8818.38
432.15	8662.74
432.358	8541.91
432.565	9135.82
432.772	9154.25
432.979	9524.93
433.187	9518.79
433.394	9754.3
433.601	10768.05
433.808	10669.75
434.016	10249.91
434.223	10790.58
434.43	11581.09
434.637	11130.54
434.844	11894.43
435.052	12439.19
435.259	12175
435.466	12408.47
435.673	12218.01
435.88	12795.54
436.087	13670.02
436.294	13717.12
436.501	13328.01
436.708	13735.56
436.915	14065.28
437.122	14528.12
437.329	14653.05
437.537	15240.81
437.743	15400.55
437.95	15173.23
438.157	16103.01
438.364	16715.35
438.571	16440.92
438.778	16744.02
438.985	18138.69
439.192	17538.63
439.399	18058.82
439.606	17426
439.813	18411.07
440.02	19725.86
440.227	19420.72
440.433	19148.34
440.64	20043.3
440.847	19977.76
441.054	20393.5
441.261	21194.26
441.467	21235.22
441.674	21765.64
441.881	22103.56
442.088	22740.47
442.294	22275.59
442.501	23100.92
442.708	23238.13
442.914	24069.61
443.121	24925.66
443.328	24645.09
443.534	26222.02
443.741	25198.04
443.948	24849.88
444.154	27164.09
444.361	27016.63
444.568	27086.26
444.774	26645.95
444.981	27264.44
445.187	28114.34
445.394	29805.97
445.6	28945.82
445.807	31835.5
446.013	30655.87
446.22	30555.52
446.426	32034.16
446.633	32443.75
446.839	33066.33
447.046	31722.87
447.252	33963.34
447.459	33707.35
447.665	33869.14
447.871	35190.08
448.078	36246.83
448.284	34565.45
448.491	35839.28
448.697	37514.52
448.903	37883.16
449.11	37309.72
449.316	37451.03
449.522	37926.16
449.728	38780.17
449.935	39077.12
450.141	38997.25
450.347	39677.18
450.553	38696.2
450.76	38911.24
450.966	40387.82
451.172	39769.33
451.378	40692.97
451.584	40006.9
451.791	41153.76
451.997	40914.15
452.203	41338.08
452.409	41796.82
452.615	41256.16
452.821	39759.09
453.027	39394.56
453.233	41563.36
453.44	39687.42
453.646	40310
453.852	40537.32
454.058	40783.08
454.264	39761.14
454.47	40637.67
454.676	39437.56
454.882	40762.6
455.088	37391.64
455.294	37578.01
455.5	38436.11
455.705	38864.13
455.911	37141.79
456.117	36265.26
456.323	36238.64
456.529	34118.99
456.735	35781.94
456.941	34762.05
457.147	33969.49
457.352	33394.01
457.558	32585.06
457.764	33158.49
457.97	32214.38
458.176	31272.31
458.381	31530.36
458.587	29844.88
458.793	29869.45
458.999	28536.23
459.204	30500.23
459.41	29789.58
459.616	27739.57
459.821	27905.45
460.027	27690.41
460.233	26961.34
460.438	25742.8
460.644	26256.84
460.85	24808.92
461.055	24425.95
461.261	24405.47
461.466	22590.97
461.672	21696.01
461.878	23420.4
462.083	21661.19
462.289	21736.97
462.494	21274.13
462.7	20581.92
462.905	19879.46
463.111	20721.18
463.316	20491.8
463.522	20076.07
463.727	20317.73
463.932	20137.51
464.138	20092.45
464.343	20270.62
464.549	19394.09
464.754	20246.05
464.959	19809.83
465.165	19922.47
465.37	18982.45
465.575	18703.93
465.781	19306.03
465.986	19394.09
466.191	18691.64
466.397	18046.53
466.602	17346.12
466.807	18105.92
467.012	18189.89
467.218	17915.46
467.423	17757.77
467.628	18085.44
467.833	18368.06
468.038	17770.05
468.244	17587.78
468.449	18185.79
468.654	17333.84
468.859	17608.26
469.064	17518.15
469.269	16598.62
469.474	16578.14
469.679	17133.14
469.885	16795.22
470.09	16932.43
470.295	16821.84
470.5	16430.68
470.705	16551.51
470.91	15951.46
471.115	15967.84
471.32	16164.45
471.525	15959.65
471.73	15527.53
471.935	15599.21
472.139	14831.22
472.344	15324.78
472.549	15101.55
472.754	14906.99
472.959	14728.82
473.164	14413.43
473.369	14157.44
473.574	14718.58
473.778	14489.21
473.983	14384.76
474.188	14513.78
474.393	13665.92
474.598	13512.33
474.802	13745.8
475.007	13725.32
475.212	13399.69
475.417	13129.36
475.621	13151.88
475.826	13018.77
476.031	13024.91
476.235	12664.47
476.44	12705.43
476.645	12408.47
476.849	12527.25
477.054	12347.03
477.259	12203.68
477.463	12232.35
477.668	11988.64
477.872	12125.85
478.077	11927.2
478.282	11566.76
478.486	11658.92
478.691	11212.46
478.895	11292.33
479.1	11540.13
479.304	11200.17
479.509	10995.37
479.713	11327.14
479.918	10987.18
480.122	10811.06
480.326	11114.16
480.531	10915.5
480.735	10786.48
480.94	10780.34
481.144	11169.45
481.348	10526.39
481.553	10716.85
481.757	10526.39
481.961	10960.56
482.166	10673.84
482.37	10856.11
482.574	10620.6
482.778	10372.79
482.983	10790.58
483.187	10620.6
483.391	10639.03
483.595	10532.53
483.8	10389.17
484.004	10620.6
484.208	10712.75
484.412	10503.86
484.616	10452.66
484.821	10559.16
485.025	10344.12
485.229	10694.32
485.433	10401.46
485.637	10577.59
485.841	10274.49
486.045	10483.38
486.249	10397.37
486.453	10323.64
486.657	10383.03
486.861	10499.77
487.065	10432.18
487.269	10493.62
487.473	10354.36
487.677	10679.99
487.881	10423.99
488.085	10350.26
488.289	10442.42
488.493	10432.18
488.697	10673.84
488.901	10477.24
489.105	10456.76
489.309	10493.62
489.512	10596.02
489.716	10450.61
489.92	10669.75
490.124	10706.61
490.328	10798.77
490.531	10731.19
490.735	10749.62
490.939	10628.79
491.143	10647.22
491.346	10755.76
491.55	10950.32
491.754	10780.34
491.958	10997.42
492.161	10917.55
492.365	11175.59
492.569	11044.52
492.772	10892.98
492.976	11353.77
493.18	11226.79
493.383	11429.54
493.587	11476.65
493.79	11523.75
493.994	11314.86
494.197	11460.26
494.401	11630.24
494.605	11665.06
494.808	11994.78
495.012	11912.86
495.215	12015.26
495.419	12097.18
495.622	11783.84
495.825	12226.2
496.029	11828.9
496.232	12566.17
496.436	12422.81
496.639	12813.97
496.843	12502.68
497.046	13012.62
497.249	13061.77
497.453	13035.15
497.656	13133.45
497.859	13227.66
498.063	13371.02
498.266	13569.67
498.469	13586.05
498.673	13733.51
498.876	14145.15
499.079	14347.9
499.282	14114.43
499.485	14530.17
499.689	14560.89
499.892	14704.24
500.095	14890.61
500.298	15146.61
500.501	14812.79
500.705	15732.33
500.908	15785.57
501.111	15709.8
501.314	16000.61
501.517	16008.8
501.72	16100.96
501.923	16234.08
502.126	16352.86
502.329	16787.03
502.532	17071.7
502.735	16604.76
502.938	17145.42
503.141	17239.63
503.344	17446.48
503.547	17673.8
503.75	17811.01
503.953	18247.23
504.156	18445.88
504.359	18429.5
504.562	18482.75
504.765	19191.34
504.968	19232.3
505.17	19344.94
505.373	19336.75
505.576	19762.73
505.779	19889.7
505.982	19908.13
506.185	20528.67
506.387	20708.89
506.59	20846.1
506.793	20948.5
506.996	21052.95
507.198	21628.43
507.401	21296.66
507.604	21702.15
507.807	22439.42
508.009	22427.14
508.212	22386.18
508.415	22595.07
508.617	22865.4
508.82	23113.2
509.022	22978.04
509.225	23514.61
509.428	23678.44
509.63	23815.66
509.833	24030.69
510.035	24872.41
510.238	24833.5
510.44	24792.54
510.643	25329.11
510.845	25302.48
511.048	25193.94
511.25	25728.46
511.453	25959.88
511.655	26959.29
511.858	26250.69
512.06	26670.53
512.262	27086.26
512.465	26959.29
512.667	27424.18
512.87	27510.19
513.072	27807.15
513.274	28448.16
513.477	28554.66
513.679	28599.71
513.881	29035.93
514.084	29291.93
514.286	29263.25
514.488	29709.71
514.69	30471.56
514.893	30545.28
515.095	30459.27
515.297	30725.5
515.499	30582.15
515.701	31223.16
515.904	31782.26
516.106	32118.12
516.308	32023.92
516.51	32691.55
516.712	32740.71
516.914	33142.11
517.116	33502.55
517.318	33510.74
517.52	33754.45
517.722	33230.17
517.925	34262.35
518.127	34686.28
518.329	34837.83
518.531	34643.27
518.733	35173.69
518.935	35564.85
519.136	35749.17
519.338	36021.55
519.54	36021.55
519.742	36836.64
519.944	36764.96
520.146	37299.48
520.348	37043.49
520.55	37651.73
520.752	37756.18
520.954	38665.48
521.155	38016.27
521.357	38503.69
521.559	38919.43
521.761	39314.69
521.963	38944
522.164	39724.28
522.366	39748.85
522.568	39898.36
522.77	40484.08
522.971	40953.06
523.173	40232.18
523.375	41098.47
523.576	41016.55
523.778	41170.15
523.98	41876.69
524.181	41899.22
524.383	41610.46
524.584	42259.66
524.786	42300.62
524.988	42167.51
525.189	42607.82
525.391	42493.13
525.592	43005.13
525.794	43095.24
525.995	43134.15
526.197	43279.55
526.398	43523.26
526.6	43465.92
526.801	43832.5
527.003	44041.4
527.204	44213.43
527.406	44426.42
527.607	44278.96
527.808	44895.4
528.01	44197.04
528.211	44680.36
528.412	45229.22
528.614	45239.46
528.815	45024.42
529.016	45450.4
529.218	44844.2
529.419	45425.82
529.62	45565.09
529.822	45120.68
530.023	45667.48
530.224	45687.96
530.425	45741.21
530.626	45532.32
530.828	45069.48
531.029	46474.38
531.23	45360.29
531.431	45984.92
531.632	46460.05
531.833	46015.64
532.035	45819.03
532.236	46167.19
532.437	46535.82
532.638	46314.64
532.839	46414.99
533.04	46384.27
533.241	46011.54
533.442	46730.38
533.643	46365.84
533.844	46537.87
534.045	46257.3
534.246	46154.9
534.447	46961.8
534.648	46466.19
534.849	46795.92
535.05	46591.12
535.251	46357.65
535.451	46247.06
535.652	46773.39
535.853	46392.47
536.054	46972.04
536.255	46623.89
536.456	46285.97
536.657	46724.24
536.857	46470.29
537.058	46335.12
537.259	46707.85
537.46	46720.14
537.66	46335.12
537.861	46636.17
538.062	46652.56
538.263	46709.9
538.463	46494.86
538.664	46386.32
538.865	46265.49
539.065	46722.19
539.266	46113.94
539.466	46681.23
539.667	46089.37
539.868	47611.01
540.068	46621.84
540.269	46304.4
540.469	46695.56
540.67	46249.11
540.87	46615.69
541.071	46302.35
541.271	46576.78
541.472	46666.89
541.672	46199.96
541.873	46488.72
542.073	46187.67
542.274	46658.7
542.474	46378.13
542.675	46247.06
542.875	46787.72
543.075	46509.2
543.276	46046.36
543.476	46431.38
543.676	46417.04
543.877	46716.04
544.077	46496.91
544.277	46363.79
544.478	45849.75
544.678	46273.68
544.878	46111.89
545.078	46351.51
545.279	45896.86
545.479	46238.87
545.679	46333.07
545.879	46175.38
546.079	46126.23
546.28	46269.59
546.48	45638.81
546.68	46236.82
546.88	45903
547.08	45989.02
547.28	45728.92
547.48	45905.05
547.68	46310.55
547.88	45649.05
548.081	46273.68
548.281	46335.12
548.481	45956.25
548.681	46406.8
548.881	45919.38
549.081	45952.15
549.28	45577.37
549.48	46257.3
549.68	45855.9
549.88	46683.28
550.08	45671.58
550.28	45829.27
550.48	45890.71
550.68	46359.7
550.88	45943.96
551.08	45917.34
551.279	46337.17
551.479	45673.63
551.679	46111.89
551.879	45757.6
552.079	45960.34
552.278	45735.07
552.478	45958.3
552.678	45712.54
552.878	46173.33
553.077	46044.31
553.277	45524.13
553.477	46240.92
553.676	45720.73
553.876	45761.69
554.076	45784.22
554.275	45606.05
554.475	45315.23
554.674	45986.97
554.874	45456.54
555.074	45563.04
555.273	45579.42
555.473	45423.78
555.672	45085.86
555.872	45288.61
556.071	45843.61
556.271	45634.72
556.47	45739.16
556.67	45003.94
556.869	45135.01
557.068	45292.71
557.268	45030.57
557.467	44756.14
557.667	44907.69
557.866	45122.72
558.065	44473.52
558.265	44887.21
558.464	44496.05
558.663	45294.75
558.863	44303.54
559.062	45255.84
559.261	44520.62
559.461	44887.21
559.66	44242.1
559.859	44770.47
560.058	44471.47
560.258	44836.01
560.457	44018.87
560.656	44571.82
560.855	44328.11
561.054	44799.15
561.253	44029.11
561.453	44405.94
561.652	44266.67
561.851	44485.81
562.05	43744.44
562.249	43627.71
562.448	44065.97
562.647	44194.99
562.846	43977.91
563.045	43912.38
563.244	43222.21
563.443	44082.36
563.642	43711.67
563.841	43615.42
564.04	43709.63
564.239	43601.08
564.438	43285.7
564.637	43486.4
564.836	43365.57
565.035	43162.82
565.234	43455.68
565.432	42912.97
565.631	42775.75
565.83	43062.47
566.029	43021.51
566.228	42804.42
566.427	42589.39
566.625	42267.86
566.824	42218.71
567.023	42722.51
567.222	41983.19
567.42	42792.14
567.619	42274
567.818	42144.98
568.016	42009.81
568.215	42693.83
568.414	42194.13
568.612	42243.28
568.811	42056.92
569.01	42169.55
569.208	41520.35
569.407	41962.71
569.605	41065.7
569.804	41710.81
570.002	41135.33
570.201	41831.64
570.4	41342.17
570.598	40877.29
570.797	40768.74
570.995	41143.52
571.193	40684.78
571.392	41387.23
571.59	40602.86
571.789	41176.29
571.987	40697.06
572.186	40459.5
572.384	40785.13
572.582	40643.82
572.781	40606.95
572.979	39961.84
573.177	39847.16
573.376	40490.22
573.574	40197.36
573.772	39910.64
573.971	40051.95
574.169	39548.15
574.367	39650.55
574.565	39668.98
574.763	39562.49
574.962	39326.97
575.16	38753.54
575.358	39456
575.556	39019.78
575.754	39752.95
575.952	38919.43
576.151	39177.47
576.349	38876.42
576.547	38671.62
576.745	38544.65
576.943	38634.76
577.141	38133.01
577.339	38909.19
577.537	38624.52
577.735	38774.02
577.933	37821.72
578.131	38411.53
578.329	38358.28
578.527	37678.36
578.725	37784.85
578.923	37913.87
579.121	37791
579.319	37825.81
579.516	37915.92
579.714	37696.79
579.912	37217.57
580.11	37104.93
580.308	37182.75
580.506	37455.13
580.704	36724
580.901	37195.04
581.099	37844.24
581.297	36764.96
581.495	36818.21
581.692	36857.12
581.89	36599.08
582.088	36877.6
582.285	36617.51
582.483	36578.6
582.681	36314.41
582.878	36381.99
583.076	35759.41
583.274	36455.72
583.471	35728.69
583.669	36394.28
583.866	35857.71
584.064	36158.77
584.262	35366.2
584.459	35767.6
584.657	35691.83
584.854	35779.89
585.052	35059.01
585.249	35468.6
585.447	35380.54
585.644	35106.11
585.841	35136.83
586.039	35134.78
586.236	34424.14
586.434	34653.51
586.631	34790.72
586.828	34616.65
587.026	34641.22
587.223	34520.39
587.42	34215.24
587.618	34647.36
587.815	33830.23
588.012	34018.64
588.21	33867.09
588.407	34352.46
588.604	33690.96
588.801	33838.42
588.999	33355.1
589.196	33604.95
589.393	33518.93
589.59	33187.16
589.787	33219.93
589.984	33121.63
590.182	32683.36
590.379	32906.59
590.576	32933.21
590.773	32992.61
590.97	32798.05
591.167	32976.22
591.364	32486.76
591.561	32537.96
591.758	32210.28
591.955	32335.21
592.152	32634.21
592.349	32159.08
592.546	32310.63
592.743	32216.43
592.94	31425.91
593.137	32097.64
593.334	31790.45
593.531	31268.22
593.727	31794.54
593.924	31626.61
594.121	31165.82
594.318	31708.53
594.515	30844.29
594.712	31124.86
594.908	30702.98
595.105	30963.07
595.302	30619.01
595.499	31063.42
595.696	30680.45
595.892	30383.49
596.089	30571.91
596.286	30778.75
596.482	30381.45
596.679	29912.46
596.876	30524.8
597.072	29988.24
597.269	30016.91
597.466	29619.6
597.662	29926.8
597.859	30088.59
598.055	29795.73
598.252	29490.58
598.448	29666.7
598.645	29658.51
598.841	29027.74
599.038	29478.29
599.234	29455.76
599.431	29255.06
599.627	29171.1
599.824	29289.88
600.02	29115.8
600.217	29171.1
600.413	28773.79
600.609	28564.9
600.806	28548.51
601.002	28663.2
601.198	28435.88
601.395	28046.76
601.591	28401.06
601.787	28323.24
601.984	28186.02
602.18	28337.57
602.376	27753.9
602.572	27854.25
602.769	27915.69
602.965	27440.56
603.161	27817.39
603.357	27598.26
603.553	27616.69
603.75	27512.24
603.946	27203
604.142	27393.46
604.338	27080.12
604.534	27344.31
604.73	26869.18
604.926	27450.8
605.122	27030.97
605.318	27022.78
605.514	26725.82
605.71	26957.24
605.906	26471.87
606.102	26856.89
606.298	26551.74
606.494	26523.07
606.69	26777.02
606.886	26572.22
607.082	25888.2
607.278	26211.78
607.474	25824.72
607.67	26179.01
607.866	25738.7
608.062	26283.46
608.257	26119.62
608.453	25914.83
608.649	25724.36
608.845	25802.19
609.041	25755.08
609.236	25863.63
609.432	25564.62
609.628	25503.18
609.824	25423.31
610.019	25286.1
610.215	25259.48
610.411	25261.52
610.606	25085.4
610.802	25355.73
610.998	25036.25
611.193	25191.89
611.389	25011.67
611.584	24794.59
611.78	24696.28
611.976	25050.58
612.171	25175.51
612.367	25224.66
612.562	24802.78
612.758	24688.09
612.953	24425.95
613.149	24819.16
613.344	24370.66
613.539	25114.07
613.735	24597.98
613.93	24573.41
614.126	24042.98
614.321	24743.39
614.517	24681.95
614.712	24325.6
614.907	24384.99
615.103	24475.1
615.298	24405.47
615.493	24530.4
615.688	23926.25
615.884	24772.06
616.079	23791.08
616.274	24319.46
616.47	24073.7
616.665	24100.33
616.86	24114.66
617.055	23758.31
617.25	23883.24
617.445	24065.51
617.641	23553.52
617.836	23832.04
618.031	23330.29
618.226	23395.82
618.421	23393.78
618.616	23782.89
618.811	23188.98
619.006	23676.4
619.201	22961.65
619.396	23191.03
619.591	22818.3
619.786	22930.94
619.981	22670.84
620.176	22994.42
620.371	22521.34
620.566	22513.15
620.761	22244.87
620.956	22722.04
621.151	22347.26
621.346	22248.96
621.541	22074.88
621.735	22150.66
621.93	21853.7
622.125	21691.91
622.32	21534.22
622.515	21693.96
622.709	21493.26
622.904	21472.78
623.099	21171.73
623.294	21206.55
623.488	20844.06
623.683	21036.56
623.878	20590.11
624.072	21016.08
624.267	20706.84
624.462	20506.14
624.656	20555.29
624.851	20631.07
625.046	20260.38
625.24	20205.09
625.435	20166.18
625.629	19942.95
625.824	19787.3
626.018	19719.72
626.213	19619.37
626.407	19613.23
626.602	19248.69
626.796	19355.18
626.991	19236.4
627.185	19131.95
627.38	18759.22
627.574	18847.29
627.768	18783.8
627.963	18857.53
628.157	18677.3
628.352	18685.5
628.546	18212.42
628.74	18570.81
628.935	18134.59
629.129	18101.83
629.323	17847.88
629.517	18073.15
629.712	17555.02
629.906	17800.77
630.1	17423.95
630.294	17630.79
630.489	17370.7
630.683	17411.66
630.877	17276.49
631.071	17405.52
631.265	17219.15
631.459	17069.65
631.653	17016.4
631.848	16942.67
632.042	16383.58
632.236	16907.86
632.43	16813.65
632.624	16387.68
632.818	16434.78
633.012	16352.86
633.206	16406.11
633.4	16225.89
633.594	16014.94
633.788	16078.43
633.982	16150.11
634.176	15783.52
634.369	15752.8
634.563	15756.9
634.757	15541.86
634.951	15537.77
635.145	15517.29
635.339	15537.77
635.533	15402.6
635.726	15414.89
635.92	15142.51
636.114	15169.13
636.308	14964.34
636.501	14962.29
636.695	14886.51
636.889	14552.7
637.083	14679.67
637.276	14804.6
637.47	14560.89
637.664	14524.02
637.857	14448.25
638.051	14296.7
638.244	14321.27
638.438	14161.53
638.632	14317.18
638.825	13866.63
639.019	13725.32
639.212	13895.3
639.406	13858.43
639.599	13717.12
639.793	13733.51
639.986	13627.01
640.18	13725.32
640.373	13514.38
640.567	13500.04
640.76	13536.9
640.954	13299.34
641.147	13031.05
641.34	13213.32
641.534	13211.28
641.727	13133.45
641.92	13174.41
642.114	12803.73
642.307	12889.74
642.5	12912.27
642.694	12643.99
642.887	12594.84
643.08	12633.75
643.273	12519.06
643.467	12668.56
643.66	12254.87
643.853	12437.14
644.046	12072.61
644.239	12267.16
644.432	12058.27
644.626	12123.8
644.819	11871.9
645.012	11751.07
645.205	11845.28
645.398	11957.92
645.591	11794.08
645.784	11648.68
645.977	11626.15
646.17	11701.92
646.363	11587.24
646.556	11417.26
646.749	11443.88
646.942	11519.65
647.135	11329.19
647.328	11132.59
647.521	11234.99
647.714	11136.68
647.907	11017.9
648.099	11034.28
648.292	11081.39
648.485	10843.82
648.678	10768.05
648.871	10845.87
649.064	10745.52
649.256	10608.31
649.449	10596.02
649.642	10555.06
649.835	10489.53
650.027	10702.51
650.22	10370.74
650.413	10335.93
650.605	10055.36
650.798	10464.95
650.991	9957.05
651.183	10213.05
651.376	10157.75
651.568	9877.18
651.761	9836.22
651.954	10045.12
652.146	9942.72
652.339	9868.99
652.531	9785.02
652.724	9629.38
652.916	9594.56
653.109	9543.36
653.301	9590.47
653.494	9643.71
653.686	9440.97
653.879	9623.23
654.071	9322.18
654.263	9316.04
654.456	9273.03
654.648	9408.2
654.84	9299.66
655.033	8969.93
655.225	9135.82
655.417	9135.82
655.61	8961.74
655.802	9051.85
655.994	8781.52
656.186	8980.17
656.379	8660.69
656.571	8658.64
656.763	8541.91
656.955	8601.3
657.148	8863.44
657.34	8652.5
657.532	8572.63
657.724	8494.8
657.916	8507.09
658.108	8472.28
658.3	8308.44
658.492	8414.93
658.684	8066.78
658.876	8298.2
659.068	8138.46
659.26	8206.04
659.452	8214.23
659.644	8177.37
659.836	8142.55
660.028	8046.3
660.22	7880.41
660.412	7835.36
660.604	7724.77
660.796	7991
660.988	7808.73
661.18	7827.17
661.372	7659.23
661.563	7718.62
661.755	7601.89
661.947	7667.42
662.139	7538.4
662.331	7481.06
662.522	7452.39
662.714	7495.39
662.906	7472.87
663.097	7306.98
663.289	7290.6
663.481	7356.13
663.673	7388.9
663.864	7208.68
664.056	7261.93
664.247	7102.18
664.439	7024.36
664.631	7173.86
664.822	7106.28
665.014	6969.07
665.205	6928.11
665.397	6721.26
665.588	6819.57
665.78	6895.34
665.971	6797.04
666.163	6708.97
666.354	6815.47
666.546	6604.53
666.737	6557.43
666.929	6727.41
667.12	6565.62
667.311	6459.12
667.503	6528.75
667.694	6586.1
667.885	6440.69
668.077	6498.03
668.268	6381.3
668.459	6377.2
668.651	6178.55
668.842	6338.29
669.033	6270.71
669.224	6311.67
669.416	6110.97
669.607	6153.98
669.798	6254.33
669.989	6211.32
670.18	6053.62
670.371	6178.55
670.563	6078.2
670.754	6016.76
670.945	6076.15
671.136	6004.47
671.327	6082.3
671.518	5926.65
671.709	5975.8
671.9	5986.04
672.091	5814.01
672.282	5783.29
672.473	5889.79
672.664	5779.2
672.855	5779.2
673.046	5623.55
673.237	5709.57
673.428	5789.44
673.619	5601.02
673.809	5631.74
674	5725.95
674.191	5619.46
674.382	5566.21
674.573	5590.78
674.764	5480.19
674.954	5472
675.145	5289.73
675.336	5377.8
675.527	5267.2
675.717	5246.73
675.908	5515.01
676.099	5293.83
676.289	5349.12
676.48	5351.17
676.671	5316.36
676.861	5293.83
677.052	5080.84
677.243	5287.68
677.433	5220.1
677.624	5287.68
677.814	5314.31
678.005	5197.57
678.195	5093.13
678.386	5099.27
678.576	5009.16
678.767	5236.49
678.957	5158.66
679.148	5011.21
679.338	5007.11
679.529	5107.46
679.719	4919.05
679.909	4892.43
680.1	5017.35
680.29	4919.05
680.481	4855.56
680.671	5054.22
680.861	4689.68
681.052	4869.9
681.242	4796.17
681.432	4962.06
681.622	4697.87
681.813	4900.62
682.003	4761.36
682.193	4753.16
682.383	4661.01
682.573	4675.34
682.764	4816.65
682.954	4652.81
683.144	4652.81
683.334	4640.53
683.524	4583.18
683.714	4611.85
683.904	4531.98
684.094	4677.39
684.284	4570.9
684.474	4574.99
684.664	4497.17
684.854	4591.38
685.044	4462.35
685.234	4427.54
685.424	4499.22
685.614	4484.88
685.804	4476.69
685.994	4357.91
686.184	4378.39
686.374	4427.54
686.564	4351.76
686.753	4421.39
686.943	4280.08
687.133	4374.29
687.323	4288.28
687.513	4325.14
687.702	4114.2
687.892	4173.59
688.082	4204.31
688.272	4149.01
688.461	4228.88
688.651	4222.74
688.841	4212.5
689.03	4196.12
689.22	4116.25
689.41	4026.14
689.599	4085.53
689.789	4157.21
689.979	4060.95
690.168	4226.84
690.358	3913.5
690.547	3999.51
690.737	4001.56
690.926	3944.22
691.116	3759.9
691.305	3839.77
691.495	3897.11
691.684	3933.98
691.874	3843.87
692.063	3856.15
692.252	3827.48
692.442	3792.67
692.631	3837.72
692.82	3843.87
693.01	3641.12
693.199	3761.95
693.388	3655.45
693.578	3759.9
693.767	3778.33
693.956	3720.99
694.146	3663.65
694.335	3634.97
694.524	3577.63
694.713	3647.26
694.902	3624.73
695.092	3516.19
695.281	3542.82
695.47	3643.17
695.659	3587.87
695.848	3477.28
696.037	3518.24
696.226	3524.38
696.415	3514.14
696.604	3624.73
696.793	3454.75
696.982	3458.85
697.171	3329.83
697.36	3432.22
697.549	3426.08
697.738	3428.13
697.927	3442.46
698.116	3360.55
698.305	3372.83
698.494	3432.22
698.683	3278.63
698.872	3305.25
699.061	3335.97
699.25	3215.14
699.438	3331.87
699.627	3288.87
699.816	3239.72
700.005	3221.28
700.193	3233.57
700.382	3204.9
700.571	3184.42
700.76	3180.32
700.948	3198.76
701.137	3184.42
701.326	3129.13
701.514	3149.61
701.703	3030.82
701.892	3206.95
702.08	3317.54
702.269	3247.91
702.457	3145.51
702.646	3045.16
702.834	3041.06
703.023	3235.62
703.212	3086.12
703.4	3092.26
703.589	3129.13
703.777	3024.68
703.965	3094.31
704.154	3063.59
704.342	3084.07
704.531	3149.61
704.719	3045.16
704.907	3096.36
705.096	3057.45
705.284	3067.69
705.472	3028.78
705.661	3026.73
705.849	3014.44
706.037	3211.04
706.226	2981.67
706.414	3014.44
706.602	3016.49
706.79	3084.07
706.979	3000.1
707.167	2961.19
707.355	2922.28
707.543	3041.06
707.731	3006.25
707.919	2903.85
708.107	2959.14
708.296	2922.28
708.484	2963.24
708.672	2996.01
708.86	2934.57
709.048	2963.24
709.236	2948.9
709.424	2926.38
709.612	2930.47
709.8	2953
709.988	2879.27
710.176	2752.3
710.364	2858.79
710.551	2907.94
710.739	2785.07
710.927	2862.89
711.115	2899.75
711.303	2850.6
711.491	2907.94
711.679	2821.93
711.866	2783.02
712.054	2858.79
712.242	2842.41
712.43	2961.19
712.617	2805.55
712.805	2866.99
712.993	2920.23
713.181	2821.93
713.368	2707.24
713.556	2873.13
713.744	2815.79
713.931	2838.31
714.119	2764.59
714.306	2836.27
714.494	2817.83
714.682	2705.2
714.869	2844.46
715.057	2901.8
715.244	2737.96
715.432	2830.12
715.619	2840.36
715.807	2737.96
715.994	2862.89
716.182	2858.79
716.369	2688.81
716.556	2699.05
716.744	2715.44
716.931	2783.02
717.119	2664.24
717.306	2778.92
717.493	2709.29
717.681	2805.55
717.868	2762.54
718.055	2754.35
718.242	2621.23
718.43	2807.59
718.617	2828.07
718.804	2883.37
718.991	2756.4
719.179	2797.35
719.366	2758.44
719.553	2694.96
719.74	2723.63
719.927	2701.1
720.114	2770.73
720.301	2842.41
720.488	2740.01
720.676	2553.65
720.863	2735.92
721.05	2686.76
721.237	2758.44
721.424	2668.33
721.611	2762.54
721.798	2694.96
721.985	2690.86
722.172	2703.15
722.358	2697
722.545	2711.34
722.732	2645.8
722.919	2701.1
723.106	2662.19
723.293	2725.68
723.48	2619.18
723.667	2619.18
723.853	2668.33
724.04	2633.52
724.227	2703.15
724.414	2610.99
724.6	2561.84
724.787	2764.59
724.974	2551.6
725.161	2832.17
725.347	2600.75
725.534	2688.81
725.72	2721.58
725.907	2672.43
726.094	2709.29
726.28	2762.54
726.467	2699.05
726.653	2610.99
726.84	2619.18
727.027	2660.14
727.213	2637.61
727.4	2697
727.586	2694.96
727.773	2629.42
727.959	2656.04
728.145	2682.67
728.332	2643.76
728.518	2649.9
728.705	2715.44
728.891	2627.37
729.077	2623.28
729.264	2592.56
729.45	2647.85
729.636	2619.18
729.823	2629.42
730.009	2561.84
730.195	2625.33
730.382	2666.28
730.568	2625.33
730.754	2684.72
730.94	2686.76
731.126	2684.72
731.313	2676.52
731.499	2713.39
731.685	2672.43
731.871	2656.04
732.057	2694.96
732.243	2664.24
732.429	2686.76
732.615	2588.46
732.801	2694.96
732.987	2545.45
733.173	2604.85
733.359	2633.52
733.545	2705.2
733.731	2678.57
733.917	2637.61
734.103	2697
734.289	2699.05
734.475	2596.65
734.661	2678.57
734.847	2670.38
735.033	2610.99
735.219	2598.7
735.404	2658.09
735.59	2705.2
735.776	2492.21
735.962	2703.15
736.148	2621.23
736.333	2733.87
736.519	2488.11
736.705	2641.71
736.89	2606.89
737.076	2565.93
737.262	2541.36
737.447	2561.84
737.633	2533.17
737.819	2604.85
738.004	2541.36
738.19	2690.86
738.375	2572.08
738.561	2533.17
738.747	2451.25
738.932	2527.02
739.118	2506.54
739.303	2463.54
739.489	2488.11
739.674	2535.21
739.859	2529.07
740.045	2488.11
740.23	2496.3
740.416	2567.98
740.601	2574.13
740.786	2449.2
740.972	2461.49
741.157	2512.69
741.342	2424.62
741.528	2434.86
741.713	2385.71
741.898	2451.25
742.084	2473.78
742.269	2490.16
742.454	2524.97
742.639	2506.54
742.824	2395.95
743.01	2363.19
743.195	2453.3
743.38	2297.65
743.565	2527.02
743.75	2416.43
743.935	2363.19
744.12	2395.95
744.305	2336.56
744.49	2367.28
744.675	2432.82
744.86	2287.41
745.045	2271.03
745.23	2215.73
745.415	2283.31
745.6	2359.09
745.785	2371.38
745.97	2338.61
746.155	2225.97
746.34	2252.59
746.525	2262.83
746.71	2236.21
746.895	2291.51
747.079	2268.98
747.264	2182.96
747.449	2189.11
747.634	2225.97
747.819	2092.85
748.003	2041.65
748.188	2142
748.373	2166.58
748.557	2150.2
748.742	2043.7
748.927	2166.58
749.111	2033.46
749.296	2113.33
749.481	2105.14
749.665	2035.51
749.85	2000.69
750.034	2010.93
750.219	2010.93
750.404	2019.13
750.588	2035.51
750.773	1935.16
750.957	1933.11
751.141	1896.25
751.326	1867.58
751.51	1931.06
751.695	1914.68
751.879	1972.02
752.064	1920.82
752.248	1963.83
752.432	1834.81
752.617	1924.92
752.801	1896.25
752.985	1736.51
753.17	1832.76
753.354	1832.76
753.538	1722.17
753.722	1767.23
753.907	1718.08
754.091	1707.84
754.275	1713.98
754.459	1756.99
754.643	1791.8
754.828	1709.88
755.012	1683.26
755.196	1638.2
755.38	1552.19
755.564	1679.16
755.748	1650.49
755.932	1603.39
756.116	1670.97
756.3	1636.16
756.484	1630.01
756.668	1605.44
756.852	1558.33
757.036	1582.91
757.22	1558.33
757.404	1597.24
757.588	1535.81
757.772	1548.09
757.956	1613.63
758.14	1511.23
758.323	1449.79
758.507	1496.89
758.691	1550.14
758.875	1503.04
759.059	1449.79
759.242	1451.84
759.426	1445.7
759.61	1548.09
759.794	1439.55
759.977	1435.46
760.161	1429.31
760.345	1402.69
760.528	1439.55
760.712	1390.4
760.895	1324.87
761.079	1349.44
761.263	1343.3
761.446	1333.06
761.63	1318.72
761.813	1312.58
761.997	1374.02
762.18	1257.28
762.364	1357.63
762.547	1306.43
762.731	1314.63
762.914	1423.17
763.098	1324.87
763.281	1251.14
763.464	1349.44
763.648	1234.75
763.831	1204.03
764.015	1279.81
764.198	1296.19
764.381	1310.53
764.564	1230.66
764.748	1247.04
764.931	1279.81
765.114	1331.01
765.297	1261.38
765.481	1115.97
765.664	1197.89
765.847	1234.75
766.03	1187.65
766.213	1197.89
766.397	1222.47
766.58	1224.51
766.763	1138.5
766.946	1146.69
767.129	1113.92
767.312	1152.84
767.495	1189.7
767.678	1095.49
767.861	1109.83
768.044	1101.64
768.227	1120.07
768.41	1173.32
768.593	1271.62
768.776	1150.79
768.959	1130.31
769.142	1183.56
769.324	1140.55
769.507	1230.66
769.69	1134.4
769.873	1101.64
770.056	1152.84
770.239	1169.22
770.421	1167.17
770.604	1134.4
770.787	1118.02
770.97	1048.39
771.152	1087.3
771.335	1066.82
771.518	1128.26
771.7	1009.48
771.883	1105.73
772.066	1038.15
772.248	1013.57
772.431	1052.49
772.613	1048.39
772.796	1025.86
772.978	1003.33
773.161	1062.73
773.343	1036.1
773.526	941.89
773.708	964.42
773.891	1009.48
774.073	923.46
774.256	894.79
774.438	964.42
774.621	1044.29
774.803	1058.63
774.985	898.89
775.168	911.18
775.35	886.6
775.532	849.74
775.715	923.46
775.897	896.84
776.079	913.22
776.261	929.61
776.444	821.06
776.626	864.07
776.808	890.7
776.99	806.73
777.173	919.37
777.355	976.71
777.537	888.65
777.719	884.55
777.901	880.46
778.083	757.58
778.265	812.87
778.447	862.02
778.629	790.35
778.811	757.58
778.993	816.97
779.175	821.06
779.357	853.83
779.539	761.67
779.721	802.63
779.903	771.91
780.085	765.77
780.267	708.43
780.449	714.57
780.631	866.12
780.812	739.15
780.994	741.19
781.176	692.04
781.358	816.97
781.54	677.71
781.721	565.07
781.903	700.23
782.085	689.99
782.267	722.76
782.448	630.6
782.63	700.23
782.812	563.02
782.993	628.56
783.175	718.67
783.357	575.31
783.538	640.84
783.72	689.99
783.901	626.51
784.083	640.84
784.264	626.51
784.446	577.36
784.627	614.22
784.809	548.68
784.99	581.45
785.172	653.13
785.353	565.07
785.535	542.54
785.716	589.64
785.897	550.73
786.079	606.03
786.26	608.08
786.441	587.6
786.623	556.88
786.804	544.59
786.985	536.4
787.167	505.68
787.348	577.36
787.529	548.68
787.71	599.88
787.891	608.08
788.073	583.5
788.254	526.16
788.435	587.6
788.616	530.25
788.797	560.97
788.978	456.53
789.159	479.05
789.34	558.92
789.522	468.81
789.703	487.25
789.884	483.15
790.065	489.29
790.246	542.54
790.427	456.53
790.607	548.68
790.788	409.42
790.969	472.91
791.15	454.48
791.331	479.05
791.512	390.99
791.693	470.86
791.874	460.62
792.054	454.48
792.235	509.77
792.416	440.14
792.597	417.61
792.778	431.95
792.958	460.62
793.139	409.42
793.32	401.23
793.5	405.33
793.681	425.81
793.862	423.76
794.042	350.03
794.223	462.67
794.404	399.18
794.584	345.94
794.765	325.46
794.945	376.66
795.126	372.56
795.306	403.28
795.487	401.23
795.667	362.32
795.848	356.18
796.028	370.51
796.209	384.85
796.389	415.57
796.57	405.33
796.75	380.75
796.93	358.22
797.111	415.57
797.291	317.26
797.471	388.94
797.652	350.03
797.832	356.18
798.012	368.46
798.192	358.22
798.373	319.31
798.553	386.9
798.733	266.07
798.913	290.64
799.093	434
799.274	296.78
799.454	311.12
799.634	347.98
799.814	284.5
799.994	343.89
800.174	309.07
800.354	315.22
800.534	327.5
800.714	307.02
800.894	261.97
801.074	333.65
801.254	337.74
801.434	399.18
801.614	333.65
801.794	247.63
801.974	640.84
802.154	304.98
802.334	331.6
802.514	329.55
802.693	323.41
802.873	345.94
803.053	311.12
803.233	231.25
803.413	356.18
803.592	282.45
803.772	302.93
803.952	290.64
804.131	243.54
804.311	313.17
804.491	259.92
804.67	231.25
804.85	298.83
805.03	266.07
805.209	315.22
805.389	282.45
805.568	229.2
805.748	212.82
805.928	245.59
806.107	266.07
806.287	239.44
806.466	315.22
806.646	282.45
806.825	261.97
807.004	227.15
807.184	223.06
807.363	253.78
807.543	214.87
807.722	225.11
807.901	294.74
808.081	307.02
808.26	153.43
808.439	261.97
808.619	261.97
808.798	194.39
808.977	323.41
809.156	235.35
809.336	204.63
809.515	194.39
809.694	188.24
809.873	169.81
810.052	223.06
810.231	300.88
810.411	212.82
810.59	239.44
810.769	180.05
810.948	243.54
811.127	235.35
811.306	227.15
811.485	188.24
811.664	384.85
811.843	249.68
812.022	241.49
812.201	210.77
812.38	118.61
812.559	106.32
812.737	214.87
812.916	135
813.095	206.67
813.274	255.83
813.453	161.62
813.632	221.01
813.811	249.68
813.989	155.47
814.168	186.19
814.347	108.37
814.526	171.86
814.704	225.11
814.883	184.15
815.062	257.87
815.24	192.34
815.419	122.71
815.598	190.29
815.776	151.38
815.955	167.76
816.133	212.82
816.312	221.01
816.49	157.52
816.669	151.38
816.847	175.95
817.026	235.35
817.204	165.71
817.383	192.34
817.561	184.15
817.74	175.95
817.918	151.38
818.097	163.67
818.275	163.67
818.453	190.29
818.632	139.09
818.81	194.39
818.988	132.95
819.167	130.9
819.345	171.86
819.523	155.47
819.701	104.28
819.879	110.42
820.058	159.57
820.236	178
820.414	182.1
820.592	96.08
820.77	94.04
820.948	184.15
821.127	126.8
821.305	184.15
821.483	141.14
821.661	229.2
821.839	188.24
822.017	139.09
822.195	98.13
822.373	167.76
822.551	112.47
822.729	124.76
822.907	165.71
823.085	114.52
823.262	145.24
823.44	124.76
823.618	188.24
823.796	165.71
823.974	110.42
824.152	118.61
824.329	102.23
824.507	96.08
824.685	124.76
824.863	169.81
825.04	87.89
825.218	153.43
825.396	124.76
825.574	100.18
825.751	108.37
825.929	167.76
826.107	108.37
826.284	85.84
826.462	128.85
826.639	108.37
826.817	135
826.994	94.04
827.172	89.94
827.349	104.28
827.527	155.47
827.704	178
827.882	108.37
828.059	61.27
828.237	102.23
828.414	106.32
828.591	145.24
828.769	77.65
828.946	91.99
829.124	147.28
829.301	91.99
829.478	163.67
829.655	149.33
829.833	57.17
830.01	155.47
830.187	106.32
830.364	155.47
830.542	139.09
830.719	141.14
830.896	169.81
831.073	79.7
831.25	169.81
831.427	96.08
831.604	87.89
831.782	108.37
831.959	112.47
832.136	106.32
832.313	122.71
832.49	110.42
832.667	135
832.844	87.89
833.021	106.32
833.198	151.38
833.374	59.22
833.551	135
833.728	55.12
833.905	14.17
834.082	165.71
834.259	114.52
834.436	143.19
834.612	61.27
834.789	192.34
834.966	38.74
835.143	36.69
835.319	61.27
835.496	126.8
835.673	102.23
835.85	128.85
836.026	143.19
836.203	48.98
836.38	53.08
836.556	44.88
836.733	153.43
836.909	67.41
837.086	28.5
837.262	46.93
837.439	141.14
837.616	89.94
837.792	94.04
837.968	79.7
838.145	69.46
838.321	51.03
838.498	26.45
838.674	122.71
838.851	114.52
839.027	135
839.203	75.6
839.38	83.8
839.556	61.27
839.732	98.13
839.909	135
840.085	77.65
840.261	100.18
840.437	73.56
840.614	59.22
840.79	34.64
840.966	69.46
841.142	73.56
841.318	132.95
841.494	106.32
841.671	65.36
841.847	81.75
842.023	100.18
842.199	79.7
842.375	100.18
842.551	106.32
842.727	-0.17
842.903	100.18
843.079	65.36
843.255	85.84
843.431	40.79
843.607	149.33
843.783	75.6
843.959	126.8
844.134	46.93
844.31	24.4
844.486	36.69
844.662	75.6
844.838	30.55
845.013	44.88
845.189	61.27
845.365	94.04
845.541	44.88
845.716	-4.27
845.892	71.51
846.068	63.32
846.244	128.85
846.419	65.36
846.595	124.76
846.77	-10.41
846.946	87.89
847.122	34.64
847.297	87.89
847.473	20.31
847.648	-28.84
847.824	114.52
847.999	26.45
848.175	53.08
848.35	28.5
848.526	1.88
848.701	18.26
848.876	96.08
849.052	85.84
849.227	38.74
849.403	20.31
849.578	16.21
849.753	81.75
849.929	57.17
850.104	42.84
850.279	20.31
850.454	-28.84
850.63	85.84
850.805	40.79
850.98	96.08
851.155	-30.89
851.33	57.17
851.505	67.41
851.681	44.88
851.856	55.12
852.031	30.55
852.206	30.55
852.381	38.74
852.556	-37.03
852.731	40.79
852.906	-28.84
853.081	24.4
853.256	122.71
853.431	65.36
853.606	38.74
853.781	16.21
853.956	26.45
854.131	178
854.305	46.93
854.48	38.74
854.655	22.36
854.83	48.98
855.005	20.31
855.18	71.51
855.354	98.13
855.529	63.32
855.704	-4.27
855.879	-0.17
856.053	81.75
856.228	-24.75
856.403	-6.31
856.577	79.7
856.752	55.12
856.926	55.12
857.101	83.8
857.276	42.84
857.45	94.04
857.625	61.27
857.799	98.13
857.974	73.56
858.148	40.79
858.323	36.69
858.497	94.04
858.672	79.7
858.846	34.64
859.02	18.26
859.195	20.31
859.369	77.65
859.543	63.32
859.718	53.08
859.892	42.84
860.066	77.65
860.241	10.07
860.415	8.02
860.589	5.97
860.763	38.74
860.938	1.88
861.112	-24.75
861.286	5.97
861.46	69.46
861.634	61.27
861.808	73.56
861.982	42.84
862.157	51.03
862.331	26.45
862.505	1.88
862.679	65.36
862.853	10.07
863.027	12.12
863.201	42.84
863.375	91.99
863.549	71.51
863.722	77.65
863.896	85.84
864.07	61.27
864.244	44.88
864.418	46.93
864.592	40.79
864.766	26.45
864.939	42.84
865.113	-12.46
865.287	1.88
865.461	14.17
865.634	69.46
865.808	59.22
865.982	34.64
866.156	16.21
866.329	85.84
866.503	46.93
866.676	102.23
866.85	-12.46
867.024	44.88
867.197	-8.36
867.371	65.36
867.544	26.45
867.718	-6.31
867.891	10.07
868.065	44.88
868.238	91.99
868.412	63.32
868.585	108.37
868.759	122.71
868.932	3.93
869.105	28.5
869.279	-18.6
869.452	40.79
869.625	16.21
869.799	20.31
869.972	59.22
870.145	61.27
870.319	24.4
870.492	-12.46
870.665	16.21
870.838	65.36
871.011	69.46
871.185	-20.65
871.358	8.02
871.531	20.31
871.704	-4.27
871.877	8.02
872.05	-34.99
872.223	44.88
872.396	-4.27
872.569	79.7
872.742	-53.42
872.915	22.36
873.088	3.93
873.261	14.17
873.434	57.17
873.607	36.69
873.78	75.6
873.953	-16.55
874.126	79.7
874.299	-51.37
874.471	65.36
874.644	18.26
874.817	-4.27
874.99	59.22
875.163	-6.31
875.335	-28.84
875.508	48.98
875.681	28.5
875.853	-10.41
876.026	53.08
876.199	-49.32
876.371	24.4
876.544	42.84
876.717	36.69
876.889	14.17
877.062	28.5
877.234	20.31
877.407	-30.89
877.579	8.02
877.752	-0.17
877.924	18.26
878.097	20.31
878.269	-37.03
878.442	20.31
878.614	12.12
878.786	55.12
878.959	-84.14
879.131	24.4
879.303	12.12
879.476	-47.27
879.648	-8.36
879.82	34.64
879.993	3.93
880.165	61.27
880.337	100.18
880.509	53.08
880.681	-37.03
880.854	28.5
881.026	32.6
881.198	128.85
881.37	28.5
881.542	-10.41
881.714	36.69
881.886	10.07
882.058	-55.47
882.23	3.93
882.402	8.02
882.574	16.21
882.746	28.5
882.918	116.56
883.09	36.69
883.262	-57.51
883.434	22.36
883.606	12.12
883.778	3.93
883.95	63.32
884.122	-75.95
884.293	71.51
884.465	34.64
884.637	16.21
884.809	100.18
884.98	-8.36
885.152	-18.6
885.324	71.51
885.496	24.4
885.667	-6.31
885.839	1.88
886.011	18.26
886.182	48.98
886.354	106.32
886.525	-37.03
886.697	-43.18
886.869	-12.46
887.04	28.5
887.212	10.07
887.383	83.8
887.555	20.31
887.726	48.98
887.897	12.12
888.069	65.36
888.24	-12.46
888.412	20.31
888.583	-18.6
888.754	14.17
888.926	-0.17
889.097	-12.46
889.268	-45.23
889.44	-2.22
889.611	5.97
889.782	-22.7
889.953	-8.36
890.125	12.12
890.296	-41.13
890.467	46.93
890.638	-47.27
890.809	-12.46
890.98	18.26
891.151	36.69
891.323	53.08
891.494	55.12
891.665	12.12
891.836	-4.27
892.007	-4.27
892.178	53.08
892.349	8.02
892.52	5.97
892.691	-24.75
892.862	-39.08
893.032	-2.22
893.203	18.26
893.374	-37.03
893.545	10.07
893.716	14.17
893.887	44.88
894.057	8.02
894.228	3.93
894.399	65.36
894.57	16.21
894.74	-39.08
894.911	34.64
895.082	-84.14
895.253	32.6
895.423	-39.08
895.594	36.69
895.764	28.5
895.935	-34.99
896.106	-39.08
896.276	122.71
896.447	-28.84
896.617	-12.46
896.788	-49.32
896.958	28.5
897.129	-84.14
897.299	61.27
897.47	-34.99
897.64	-14.51
897.81	-8.36
897.981	-37.03
898.151	-63.66
898.322	77.65
898.492	-53.42
898.662	28.5
898.832	-34.99
899.003	10.07
899.173	1.88
899.343	-2.22
899.513	71.51
