Data from USB4F104151__257__11-11-49-047.txt Node

Date: Wed Mar 12 11:11:49 EDT 2025
User: louis
Spectrometer: USB4F10415
Trigger mode: 4
Integration Time (sec): 2.000000E-2
Scans to average: 1
Electric dark correction enabled: true
Nonlinearity correction enabled: false
Boxcar width: 0
XAxis mode: Wavelengths
Number of Pixels in Spectrum: 3648
>>>>>Begin Spectral Data<<<<<
178.204	-45.4
178.424	-45.4
178.644	-45.4
178.864	-84.31
179.084	-57.68
179.304	-31.06
179.524	24.23
179.744	24.23
179.964	63.15
180.184	-37.2
180.404	-0.34
180.624	36.52
180.844	-20.82
181.064	3.75
181.283	11.95
181.503	-45.4
181.723	-29.01
181.943	-2.39
182.163	48.81
182.383	1.71
182.602	57
182.822	-2.39
183.042	61.1
183.262	30.38
183.482	13.99
183.701	57
183.921	38.57
184.141	-55.64
184.361	67.24
184.58	77.48
184.8	38.57
185.02	-41.3
185.239	26.28
185.459	34.47
185.679	102.06
185.898	5.8
186.118	61.1
186.338	120.49
186.557	89.77
186.777	57
186.997	-4.44
187.216	50.86
187.436	67.24
187.655	24.23
187.875	40.62
188.095	50.86
188.314	44.71
188.534	38.57
188.753	-57.68
188.973	63.15
189.192	38.57
189.412	63.15
189.631	38.57
189.851	54.95
190.07	91.82
190.29	32.43
190.509	11.95
190.729	5.8
190.948	75.43
191.168	108.2
191.387	-6.49
191.607	-39.25
191.826	5.8
192.045	69.29
192.265	-20.82
192.484	-10.58
192.704	5.8
192.923	-22.87
193.142	87.72
193.362	22.19
193.581	40.62
193.8	20.14
194.02	48.81
194.239	36.52
194.458	16.04
194.678	28.33
194.897	5.8
195.116	24.23
195.335	13.99
195.555	-4.44
195.774	79.53
195.993	54.95
196.212	30.38
196.432	-10.58
196.651	-10.58
196.87	-18.77
197.089	32.43
197.308	40.62
197.528	59.05
197.747	-33.11
197.966	42.67
198.185	65.19
198.404	3.75
198.623	61.1
198.842	126.63
199.062	48.81
199.281	73.39
199.5	1.71
199.719	44.71
199.938	38.57
200.157	1.71
200.376	65.19
200.595	13.99
200.814	67.24
201.033	-4.44
201.252	16.04
201.471	-6.49
201.69	-37.2
201.909	34.47
202.128	32.43
202.347	5.8
202.566	34.47
202.785	-12.63
203.004	22.19
203.223	73.39
203.442	38.57
203.661	116.39
203.879	-10.58
204.098	77.48
204.317	65.19
204.536	75.43
204.755	42.67
204.974	46.76
205.193	-18.77
205.411	42.67
205.63	38.57
205.849	3.75
206.068	7.85
206.287	83.63
206.505	44.71
206.724	-8.53
206.943	-74.07
207.162	79.53
207.381	69.29
207.599	36.52
207.818	24.23
208.037	71.34
208.255	-16.73
208.474	40.62
208.693	87.72
208.911	-14.68
209.13	79.53
209.349	-55.64
209.567	44.71
209.786	5.8
210.005	22.19
210.223	42.67
210.442	26.28
210.661	16.04
210.879	3.75
211.098	22.19
211.316	48.81
211.535	69.29
211.753	24.23
211.972	28.33
212.191	32.43
212.409	-10.58
212.628	-0.34
212.846	89.77
213.065	11.95
213.283	91.82
213.502	50.86
213.72	48.81
213.938	38.57
214.157	-10.58
214.375	-2.39
214.594	75.43
214.812	38.57
215.031	5.8
215.249	44.71
215.467	26.28
215.686	40.62
215.904	59.05
216.122	63.15
216.341	40.62
216.559	-2.39
216.778	87.72
216.996	52.91
217.214	-12.63
217.432	-31.06
217.651	69.29
217.869	-0.34
218.087	42.67
218.306	36.52
218.524	13.99
218.742	5.8
218.96	116.39
219.179	-22.87
219.397	85.67
219.615	97.96
219.833	22.19
220.051	-33.11
220.27	79.53
220.488	13.99
220.706	22.19
220.924	65.19
221.142	5.8
221.36	52.91
221.578	38.57
221.796	50.86
222.015	44.71
222.233	59.05
222.451	36.52
222.669	-31.06
222.887	73.39
223.105	16.04
223.323	-20.82
223.541	73.39
223.759	116.39
223.977	61.1
224.195	24.23
224.413	22.19
224.631	42.67
224.849	52.91
225.067	97.96
225.285	16.04
225.503	18.09
225.721	-51.54
225.939	24.23
226.157	-22.87
226.375	143.02
226.592	30.38
226.81	-20.82
227.028	9.9
227.246	108.2
227.464	30.38
227.682	46.76
227.9	63.15
228.117	116.39
228.335	-18.77
228.553	54.95
228.771	65.19
228.989	7.85
229.206	54.95
229.424	40.62
229.642	-12.63
229.86	-39.25
230.077	-2.39
230.295	18.09
230.513	30.38
230.731	18.09
230.948	9.9
231.166	36.52
231.384	71.34
231.601	75.43
231.819	93.87
232.037	40.62
232.254	9.9
232.472	118.44
232.689	48.81
232.907	73.39
233.125	-20.82
233.342	18.09
233.56	5.8
233.777	-47.44
233.995	-20.82
234.213	67.24
234.43	9.9
234.648	44.71
234.865	-6.49
235.083	79.53
235.3	-10.58
235.518	16.04
235.735	32.43
235.953	42.67
236.17	34.47
236.388	-26.96
236.605	46.76
236.822	44.71
237.04	20.14
237.257	71.34
237.475	-10.58
237.692	30.38
237.909	-4.44
238.127	26.28
238.344	-2.39
238.562	65.19
238.779	26.28
238.996	1.71
239.214	38.57
239.431	46.76
239.648	5.8
239.865	28.33
240.083	73.39
240.3	34.47
240.517	59.05
240.735	50.86
240.952	34.47
241.169	124.58
241.386	67.24
241.603	-14.68
241.821	5.8
242.038	-24.92
242.255	-10.58
242.472	28.33
242.689	22.19
242.907	46.76
243.124	-14.68
243.341	22.19
243.558	50.86
243.775	32.43
243.992	1.71
244.209	38.57
244.426	-10.58
244.643	16.04
244.86	67.24
245.078	34.47
245.295	34.47
245.512	26.28
245.729	-55.64
245.946	61.1
246.163	44.71
246.38	79.53
246.597	-53.59
246.814	42.67
247.031	9.9
247.248	13.99
247.464	95.91
247.681	87.72
247.898	52.91
248.115	22.19
248.332	-10.58
248.549	16.04
248.766	126.63
248.983	69.29
249.2	-2.39
249.417	-14.68
249.633	61.1
249.85	34.47
250.067	-24.92
250.284	13.99
250.501	1.71
250.717	89.77
250.934	-18.77
251.151	40.62
251.368	57
251.585	-0.34
251.801	22.19
252.018	32.43
252.235	65.19
252.451	-0.34
252.668	5.8
252.885	87.72
253.102	-22.87
253.318	110.25
253.535	44.71
253.752	-6.49
253.968	-37.2
254.185	-4.44
254.401	26.28
254.618	48.81
254.835	50.86
255.051	54.95
255.268	26.28
255.484	63.15
255.701	48.81
255.917	13.99
256.134	5.8
256.351	11.95
256.567	-57.68
256.784	32.43
257	1.71
257.217	85.67
257.433	59.05
257.65	50.86
257.866	38.57
258.082	32.43
258.299	57
258.515	16.04
258.732	9.9
258.948	9.9
259.165	71.34
259.381	-4.44
259.597	34.47
259.814	32.43
260.03	32.43
260.246	59.05
260.463	16.04
260.679	42.67
260.895	32.43
261.112	57
261.328	-47.44
261.544	-65.88
261.761	59.05
261.977	13.99
262.193	32.43
262.409	75.43
262.626	61.1
262.842	-20.82
263.058	3.75
263.274	5.8
263.49	30.38
263.707	79.53
263.923	69.29
264.139	34.47
264.355	-31.06
264.571	151.21
264.787	73.39
265.004	89.77
265.22	75.43
265.436	9.9
265.652	7.85
265.868	-26.96
266.084	-4.44
266.3	61.1
266.516	44.71
266.732	1.71
266.948	61.1
267.164	52.91
267.38	36.52
267.596	-6.49
267.812	126.63
268.028	13.99
268.244	42.67
268.46	3.75
268.676	-6.49
268.892	3.75
269.108	-2.39
269.324	-12.63
269.54	42.67
269.756	-14.68
269.972	52.91
270.188	116.39
270.403	-45.4
270.619	-14.68
270.835	48.81
271.051	18.09
271.267	42.67
271.483	9.9
271.698	83.63
271.914	40.62
272.13	46.76
272.346	-31.06
272.562	-12.63
272.777	5.8
272.993	26.28
273.209	-26.96
273.425	22.19
273.64	65.19
273.856	34.47
274.072	24.23
274.287	1.71
274.503	-10.58
274.719	38.57
274.934	46.76
275.15	-29.01
275.366	5.8
275.581	85.67
275.797	52.91
276.012	71.34
276.228	52.91
276.444	91.82
276.659	79.53
276.875	-14.68
277.09	26.28
277.306	61.1
277.521	54.95
277.737	16.04
277.952	16.04
278.168	63.15
278.383	73.39
278.599	44.71
278.814	-18.77
279.03	44.71
279.245	104.11
279.461	34.47
279.676	81.58
279.892	44.71
280.107	-8.53
280.322	18.09
280.538	32.43
280.753	-35.16
280.969	28.33
281.184	54.95
281.399	52.91
281.615	-24.92
281.83	42.67
282.045	-24.92
282.26	18.09
282.476	59.05
282.691	44.71
282.906	44.71
283.122	26.28
283.337	-2.39
283.552	67.24
283.767	-12.63
283.983	11.95
284.198	63.15
284.413	-0.34
284.628	44.71
284.843	-39.25
285.058	34.47
285.274	54.95
285.489	3.75
285.704	24.23
285.919	3.75
286.134	69.29
286.349	32.43
286.564	-43.35
286.779	71.34
286.995	24.23
287.21	-31.06
287.425	42.67
287.64	24.23
287.855	26.28
288.07	34.47
288.285	-24.92
288.5	-29.01
288.715	-0.34
288.93	-31.06
289.145	38.57
289.36	71.34
289.575	18.09
289.79	1.71
290.004	26.28
290.219	-33.11
290.434	-12.63
290.649	18.09
290.864	42.67
291.079	11.95
291.294	46.76
291.509	-24.92
291.724	34.47
291.938	-16.73
292.153	-18.77
292.368	-51.54
292.583	46.76
292.798	1.71
293.012	32.43
293.227	-22.87
293.442	57
293.657	38.57
293.871	69.29
294.086	44.71
294.301	69.29
294.516	61.1
294.73	-33.11
294.945	73.39
295.16	1.71
295.374	69.29
295.589	59.05
295.804	26.28
296.018	-14.68
296.233	71.34
296.447	-2.39
296.662	-4.44
296.877	36.52
297.091	59.05
297.306	83.63
297.52	1.71
297.735	114.34
297.949	42.67
298.164	32.43
298.378	-0.34
298.593	-6.49
298.807	57
299.022	-2.39
299.236	-2.39
299.451	40.62
299.665	-0.34
299.88	-10.58
300.094	79.53
300.309	26.28
300.523	48.81
300.737	1.71
300.952	42.67
301.166	42.67
301.381	1.71
301.595	71.34
301.809	24.23
302.024	63.15
302.238	-18.77
302.452	28.33
302.667	44.71
302.881	34.47
303.095	87.72
303.309	3.75
303.524	36.52
303.738	13.99
303.952	-10.58
304.166	79.53
304.381	-20.82
304.595	59.05
304.809	28.33
305.023	89.77
305.237	32.43
305.452	-0.34
305.666	63.15
305.88	16.04
306.094	44.71
306.308	151.21
306.522	48.81
306.736	26.28
306.95	38.57
307.164	9.9
307.379	-35.16
307.593	38.57
307.807	46.76
308.021	59.05
308.235	-4.44
308.449	71.34
308.663	-8.53
308.877	75.43
309.091	57
309.305	87.72
309.519	16.04
309.733	46.76
309.947	34.47
310.161	40.62
310.374	22.19
310.588	87.72
310.802	-12.63
311.016	91.82
311.23	57
311.444	13.99
311.658	-16.73
311.872	44.71
312.085	116.39
312.299	73.39
312.513	65.19
312.727	13.99
312.941	22.19
313.154	57
313.368	81.58
313.582	65.19
313.796	44.71
314.009	-16.73
314.223	91.82
314.437	73.39
314.651	7.85
314.864	38.57
315.078	32.43
315.292	48.81
315.505	-6.49
315.719	93.87
315.933	42.67
316.146	-43.35
316.36	26.28
316.573	-8.53
316.787	112.3
317.001	1.71
317.214	40.62
317.428	38.57
317.641	32.43
317.855	57
318.068	48.81
318.282	3.75
318.495	54.95
318.709	9.9
318.922	11.95
319.136	108.2
319.349	136.87
319.563	40.62
319.776	7.85
319.99	108.2
320.203	24.23
320.417	34.47
320.63	20.14
320.843	59.05
321.057	-26.96
321.27	18.09
321.483	28.33
321.697	77.48
321.91	40.62
322.124	50.86
322.337	48.81
322.55	44.71
322.763	34.47
322.977	-2.39
323.19	87.72
323.403	26.28
323.617	95.91
323.83	3.75
324.043	97.96
324.256	79.53
324.469	-39.25
324.683	134.82
324.896	36.52
325.109	26.28
325.322	-29.01
325.535	20.14
325.748	34.47
325.962	9.9
326.175	18.09
326.388	18.09
326.601	83.63
326.814	93.87
327.027	-4.44
327.24	54.95
327.453	50.86
327.666	24.23
327.879	95.91
328.092	59.05
328.305	71.34
328.518	52.91
328.731	-33.11
328.944	-2.39
329.157	7.85
329.37	46.76
329.583	22.19
329.796	97.96
330.009	20.14
330.222	63.15
330.435	130.73
330.648	-24.92
330.861	75.43
331.073	9.9
331.286	18.09
331.499	34.47
331.712	71.34
331.925	93.87
332.138	59.05
332.35	69.29
332.563	-10.58
332.776	91.82
332.989	20.14
333.202	59.05
333.414	-0.34
333.627	73.39
333.84	34.47
334.053	40.62
334.265	-33.11
334.478	-41.3
334.691	126.63
334.903	-0.34
335.116	-6.49
335.329	40.62
335.541	54.95
335.754	36.52
335.966	13.99
336.179	-33.11
336.392	54.95
336.604	26.28
336.817	73.39
337.029	46.76
337.242	71.34
337.454	77.48
337.667	24.23
337.88	97.96
338.092	57
338.305	63.15
338.517	71.34
338.729	114.34
338.942	36.52
339.154	57
339.367	36.52
339.579	134.82
339.792	-39.25
340.004	26.28
340.217	104.11
340.429	42.67
340.641	-8.53
340.854	77.48
341.066	40.62
341.278	81.58
341.491	24.23
341.703	83.63
341.915	11.95
342.128	13.99
342.34	124.58
342.552	69.29
342.764	-2.39
342.977	67.24
343.189	34.47
343.401	63.15
343.613	36.52
343.826	-31.06
344.038	7.85
344.25	97.96
344.462	-0.34
344.674	26.28
344.886	54.95
345.099	34.47
345.311	24.23
345.523	83.63
345.735	13.99
345.947	11.95
346.159	1.71
346.371	20.14
346.583	-12.63
346.795	81.58
347.007	16.04
347.219	67.24
347.431	81.58
347.643	44.71
347.855	9.9
348.067	120.49
348.279	30.38
348.491	16.04
348.703	9.9
348.915	59.05
349.127	-26.96
349.339	65.19
349.551	71.34
349.763	134.82
349.975	26.28
350.187	79.53
350.399	-0.34
350.61	16.04
350.822	48.81
351.034	30.38
351.246	36.52
351.458	52.91
351.669	75.43
351.881	120.49
352.093	38.57
352.305	48.81
352.517	95.91
352.728	24.23
352.94	75.43
353.152	-22.87
353.363	75.43
353.575	108.2
353.787	63.15
353.999	67.24
354.21	42.67
354.422	1.71
354.633	106.15
354.845	5.8
355.057	42.67
355.268	69.29
355.48	61.1
355.692	40.62
355.903	104.11
356.115	-10.58
356.326	5.8
356.538	93.87
356.749	71.34
356.961	67.24
357.172	69.29
357.384	65.19
357.595	102.06
357.807	1.71
358.018	-26.96
358.23	36.52
358.441	50.86
358.653	24.23
358.864	69.29
359.075	44.71
359.287	26.28
359.498	18.09
359.709	-8.53
359.921	42.67
360.132	42.67
360.344	145.06
360.555	91.82
360.766	85.67
360.977	3.75
361.189	44.71
361.4	-16.73
361.611	147.11
361.823	81.58
362.034	46.76
362.245	38.57
362.456	7.85
362.667	75.43
362.879	18.09
363.09	-6.49
363.301	95.91
363.512	9.9
363.723	32.43
363.935	77.48
364.146	85.67
364.357	-18.77
364.568	32.43
364.779	-22.87
364.99	40.62
365.201	-47.44
365.412	87.72
365.623	89.77
365.834	140.97
366.045	102.06
366.256	24.23
366.467	1.71
366.678	13.99
366.889	38.57
367.1	-4.44
367.311	85.67
367.522	-51.54
367.733	1.71
367.944	71.34
368.155	18.09
368.366	75.43
368.577	-22.87
368.788	30.38
368.999	18.09
369.209	89.77
369.42	81.58
369.631	50.86
369.842	32.43
370.053	40.62
370.264	108.2
370.474	42.67
370.685	5.8
370.896	46.76
371.107	71.34
371.317	38.57
371.528	-0.34
371.739	67.24
371.95	22.19
372.16	100.01
372.371	40.62
372.582	30.38
372.792	24.23
373.003	75.43
373.214	36.52
373.424	136.87
373.635	9.9
373.846	36.52
374.056	81.58
374.267	65.19
374.477	83.63
374.688	9.9
374.898	-57.68
375.109	30.38
375.319	57
375.53	18.09
375.74	69.29
375.951	-12.63
376.161	44.71
376.372	95.91
376.582	71.34
376.793	89.77
377.003	40.62
377.214	32.43
377.424	32.43
377.635	5.8
377.845	61.1
378.055	120.49
378.266	34.47
378.476	18.09
378.686	-22.87
378.897	34.47
379.107	9.9
379.317	102.06
379.528	18.09
379.738	28.33
379.948	-37.2
380.158	67.24
380.369	38.57
380.579	87.72
380.789	100.01
380.999	67.24
381.21	44.71
381.42	91.82
381.63	-47.44
381.84	79.53
382.05	65.19
382.261	120.49
382.471	85.67
382.681	67.24
382.891	57
383.101	69.29
383.311	89.77
383.521	89.77
383.731	30.38
383.941	13.99
384.151	95.91
384.361	52.91
384.571	65.19
384.781	61.1
384.991	9.9
385.201	73.39
385.411	89.77
385.621	-12.63
385.831	18.09
386.041	67.24
386.251	67.24
386.461	34.47
386.671	104.11
386.881	59.05
387.091	-0.34
387.301	106.15
387.511	-24.92
387.72	67.24
387.93	50.86
388.14	-14.68
388.35	-4.44
388.56	93.87
388.769	40.62
388.979	57
389.189	69.29
389.399	7.85
389.609	75.43
389.818	91.82
390.028	44.71
390.238	36.52
390.447	24.23
390.657	59.05
390.867	-16.73
391.076	91.82
391.286	50.86
391.496	73.39
391.705	63.15
391.915	97.96
392.125	9.9
392.334	-4.44
392.544	32.43
392.753	42.67
392.963	57
393.172	108.2
393.382	22.19
393.591	81.58
393.801	13.99
394.01	118.44
394.22	63.15
394.429	61.1
394.639	-35.16
394.848	-26.96
395.058	20.14
395.267	36.52
395.477	79.53
395.686	114.34
395.895	100.01
396.105	67.24
396.314	69.29
396.524	71.34
396.733	65.19
396.942	22.19
397.152	81.58
397.361	79.53
397.57	54.95
397.78	114.34
397.989	100.01
398.198	149.16
398.407	106.15
398.617	118.44
398.826	73.39
399.035	3.75
399.244	100.01
399.453	83.63
399.663	116.39
399.872	81.58
400.081	126.63
400.29	120.49
400.499	91.82
400.708	124.58
400.917	173.74
401.127	104.11
401.336	124.58
401.545	140.97
401.754	106.15
401.963	104.11
402.172	167.59
402.381	63.15
402.59	112.3
402.799	71.34
403.008	42.67
403.217	126.63
403.426	100.01
403.635	85.67
403.844	91.82
404.053	22.19
404.262	65.19
404.471	91.82
404.68	106.15
404.888	114.34
405.097	81.58
405.306	93.87
405.515	114.34
405.724	124.58
405.933	155.3
406.142	18.09
406.35	157.35
406.559	151.21
406.768	134.82
406.977	120.49
407.185	218.79
407.394	151.21
407.603	89.77
407.812	138.92
408.02	173.74
408.229	186.02
408.438	208.55
408.646	143.02
408.855	237.22
409.064	210.6
409.272	163.5
409.481	77.48
409.69	241.32
409.898	145.06
410.107	269.99
410.315	188.07
410.524	214.7
410.733	249.51
410.941	274.09
411.15	245.41
411.358	214.7
411.567	323.24
411.775	257.7
411.984	208.55
412.192	308.9
412.401	255.65
412.609	333.48
412.818	265.89
413.026	310.95
413.234	317.09
413.443	349.86
413.651	280.23
413.86	300.71
414.068	358.05
414.276	421.54
414.485	403.11
414.693	427.68
414.901	478.88
415.11	429.73
415.318	517.79
415.526	478.88
415.734	525.99
415.943	497.32
416.151	478.88
416.359	515.75
416.567	521.89
416.776	679.58
416.984	636.58
417.192	648.86
417.4	706.21
417.608	591.52
417.817	693.92
418.025	683.68
418.233	792.22
418.441	693.92
418.649	822.94
418.857	868
419.065	853.66
419.273	824.99
419.481	859.81
419.689	923.29
419.897	984.73
420.105	974.49
420.313	1050.27
420.521	1150.62
420.729	1042.07
420.937	1111.71
421.145	1171.1
421.353	1150.62
421.561	1332.89
421.769	1285.78
421.977	1382.04
422.185	1384.09
422.393	1392.28
422.601	1396.37
422.809	1361.56
423.017	1439.38
423.224	1607.31
423.432	1685.14
423.64	1601.17
423.848	1724.05
424.056	1793.68
424.263	1822.35
424.471	1926.8
424.679	1842.83
424.887	1904.27
425.094	2137.74
425.302	2162.31
425.51	2123.4
425.718	2141.83
425.925	2150.03
426.133	2258.57
426.341	2424.45
426.548	2485.89
426.756	2592.39
426.964	2637.44
427.171	2752.13
427.379	2844.29
427.586	2780.8
427.794	2973.31
428.001	3169.91
428.209	3208.83
428.417	3225.21
428.624	3300.98
428.832	3288.7
429.039	3315.32
429.247	3372.66
429.454	3704.43
429.662	4066.92
429.869	3597.94
430.076	4009.58
430.284	3714.67
430.491	4054.64
430.699	4292.2
430.906	4212.33
431.114	4175.47
431.321	4451.94
431.528	4558.44
431.736	4789.86
431.943	4974.17
432.15	5019.23
432.358	4978.27
432.565	5221.98
432.772	5101.15
432.979	5451.35
433.187	5459.54
433.394	5547.61
433.601	5772.88
433.808	5842.51
434.016	5989.97
434.223	6219.34
434.43	6610.5
434.637	6338.12
434.844	6968.9
435.052	6897.22
435.259	6841.92
435.466	6878.79
435.673	6907.46
435.88	7390.78
436.087	7605.81
436.294	7720.5
436.501	7319.1
436.708	7779.89
436.915	7804.47
437.122	8310.32
437.329	8201.77
437.537	8488.49
437.743	8570.41
437.95	8584.74
438.157	8767.01
438.364	9291.29
438.571	9219.61
438.778	9389.6
438.985	10090
439.192	9766.42
439.399	10090
439.606	9909.78
439.813	10550.79
440.02	10810.89
440.227	10776.07
440.433	10827.27
440.64	11148.8
440.847	10876.42
441.054	11308.54
441.261	12191.22
441.467	11771.38
441.674	12193.26
441.881	12531.18
442.088	12584.43
442.294	12426.73
442.501	12883.43
442.708	12924.39
442.914	13428.19
443.121	14028.24
443.328	13661.66
443.534	14521.81
443.741	14220.75
443.948	13897.17
444.154	14925.25
444.361	15025.61
444.568	15144.39
444.774	14876.1
444.981	15365.57
445.187	15777.21
445.394	16170.42
445.6	16254.39
445.807	17595.81
446.013	16881.07
446.22	16973.22
446.426	17737.12
446.633	17946.01
446.839	18566.54
447.046	17757.6
447.252	18931.08
447.459	18920.84
447.665	18814.35
447.871	19600.77
448.078	20247.93
448.284	19266.95
448.491	20030.84
448.697	20704.62
448.903	21155.18
449.11	21144.94
449.316	20686.19
449.522	21353.83
449.728	21505.38
449.935	21744.99
450.141	21788
450.347	22246.74
450.553	21790.05
450.76	21921.12
450.966	22517.08
451.172	22162.78
451.378	22867.28
451.584	22285.65
451.791	22789.45
451.997	23059.79
452.203	23168.33
452.409	23455.04
452.615	22926.67
452.821	22000.99
453.027	21998.94
453.233	22793.55
453.44	22097.24
453.646	22533.46
453.852	22576.47
454.058	22619.47
454.264	22082.91
454.47	22435.16
454.676	21857.63
454.882	22834.51
455.088	20542.83
455.294	21056.87
455.5	21470.56
455.705	21517.67
455.911	20606.32
456.117	20315.51
456.323	19944.83
456.529	18894.22
456.735	19756.41
456.941	19283.33
457.147	19066.25
457.352	18247.06
457.558	18159
457.764	17984.92
457.97	18029.98
458.176	17558.94
458.381	17319.33
458.587	16655.79
458.793	16485.81
458.999	15541.69
459.204	16743.85
459.41	16381.36
459.616	15011.27
459.821	15371.71
460.027	15150.53
460.233	14843.34
460.438	14018
460.644	14235.09
460.85	13587.93
461.055	13317.6
461.261	13477.34
461.466	12465.64
461.672	12240.37
461.878	12910.05
462.083	12201.46
462.289	12023.28
462.494	11531.77
462.7	11142.66
462.905	10843.65
463.111	11167.23
463.316	11410.94
463.522	11085.31
463.727	11146.75
463.932	11216.38
464.138	10819.08
464.343	10921.48
464.549	10683.91
464.754	11181.57
464.959	10939.91
465.165	10765.83
465.37	10507.79
465.575	10126.86
465.781	10432.01
465.986	10550.79
466.191	9997.84
466.397	10108.43
466.602	9549.34
466.807	10032.66
467.012	10092.05
467.218	9850.39
467.423	9877.01
467.628	9731.61
467.833	10284.56
468.038	9647.64
468.244	9504.28
468.449	9850.39
468.654	9780.76
468.859	9471.51
469.064	9475.61
469.269	9141.79
469.474	9102.88
469.679	9475.61
469.885	9166.37
470.09	9188.89
470.295	9205.28
470.5	8949.28
470.705	9129.5
470.91	8777.25
471.115	8818.21
471.32	8713.77
471.525	8683.05
471.73	8457.77
471.935	8625.7
472.139	8341.04
472.344	8402.47
472.549	8187.44
472.754	8312.36
472.959	7996.98
473.164	7802.42
473.369	7714.36
473.574	7896.63
473.778	7980.59
473.983	8085.04
474.188	7867.95
474.393	7525.94
474.598	7327.29
474.802	7452.22
475.007	7284.28
475.212	7603.77
475.417	7120.45
475.621	7116.35
475.826	7151.17
476.031	6946.37
476.235	6862.4
476.44	7063.1
476.645	6796.87
476.849	6927.94
477.054	6727.24
477.259	6655.56
477.463	6780.48
477.668	6446.66
477.872	6561.35
478.077	6395.47
478.282	6215.24
478.486	6157.9
478.691	6096.46
478.895	6209.1
479.1	6047.31
479.304	6118.99
479.509	5971.54
479.713	6096.46
479.918	5981.78
480.122	5727.83
480.326	5834.32
480.531	5901.9
480.735	5936.72
480.94	5795.41
481.144	6205
481.348	5789.27
481.553	5631.57
481.757	5764.69
481.961	5867.09
482.166	5764.69
482.37	5817.94
482.574	5740.12
482.778	5832.27
482.983	5885.52
483.187	5826.13
483.391	5676.63
483.595	5729.88
483.8	5703.25
484.004	5717.59
484.208	5690.96
484.412	5760.59
484.616	5795.41
484.821	5799.51
485.025	5516.89
485.229	5713.49
485.433	5715.54
485.637	5584.47
485.841	5643.86
486.045	5574.23
486.249	5756.5
486.453	5549.65
486.657	5578.33
486.861	5639.76
487.065	5545.56
487.269	5764.69
487.473	5598.81
487.677	5598.81
487.881	5916.24
488.085	5731.92
488.289	5652.05
488.493	5705.3
488.697	5719.64
488.901	5729.88
489.105	5631.57
489.309	5647.96
489.512	5623.38
489.716	5760.59
489.92	5875.28
490.124	5793.36
490.328	5918.29
490.531	5822.03
490.735	5889.62
490.939	5906
491.143	5781.07
491.346	5871.19
491.55	6037.07
491.754	5871.19
491.958	6143.56
492.161	5779.03
492.365	5987.92
492.569	5971.54
492.772	5969.49
492.976	5916.24
493.18	6129.23
493.383	6131.28
493.587	6198.86
493.79	6184.52
493.994	6147.66
494.197	6399.56
494.401	6186.57
494.605	6360.65
494.808	6497.86
495.012	6446.66
495.215	6516.3
495.419	6383.18
495.622	6563.4
495.825	6456.9
496.029	6571.59
496.232	6862.4
496.436	6719.04
496.639	6940.22
496.843	6870.59
497.046	6968.9
497.249	7136.83
497.453	7112.25
497.656	7224.89
497.859	7216.7
498.063	7323.19
498.266	7417.4
498.469	7265.85
498.673	7441.98
498.876	7575.1
499.079	7646.77
499.282	7648.82
499.485	7812.66
499.689	7945.78
499.892	8025.65
500.095	7994.93
500.298	8185.39
500.501	8023.6
500.705	8314.41
500.908	8398.38
501.111	8488.49
501.314	8527.4
501.517	8752.68
501.72	8771.11
501.923	8787.49
502.126	9037.34
502.329	9014.82
502.532	9172.51
502.735	9174.56
502.938	9328.16
503.141	9446.94
503.344	9455.13
503.547	9557.53
503.75	9764.37
503.953	9893.4
504.156	9917.97
504.359	10079.76
504.562	10057.23
504.765	10165.78
504.968	10382.86
505.17	10507.79
505.373	10360.33
505.576	10645
505.779	10839.56
505.982	10888.71
506.185	10962.44
506.387	11025.92
506.59	11263.49
506.793	11408.89
506.996	11306.49
507.198	11654.65
507.401	11527.67
507.604	11613.69
507.807	12060.15
508.009	12250.61
508.212	12023.28
508.415	12269.04
508.617	12326.38
508.82	12449.26
509.022	12381.68
509.225	12609
509.428	12559.85
509.63	12740.07
509.833	13106.66
510.035	13219.3
510.238	13303.26
510.44	13274.59
510.643	13768.15
510.845	13538.78
511.048	13499.87
511.25	13827.54
511.453	13907.41
511.655	14286.29
511.858	14386.64
512.06	14540.24
512.262	14839.24
512.465	14632.4
512.667	14677.45
512.87	15005.13
513.072	14935.49
513.274	15269.31
513.477	15551.93
513.679	15541.69
513.881	15580.6
514.084	15818.17
514.286	15803.83
514.488	16106.93
514.69	16354.74
514.893	16610.73
515.095	16350.64
515.297	16569.77
515.499	16901.54
515.701	17116.58
515.904	16987.56
516.106	17460.64
516.308	17477.02
516.51	17538.46
516.712	17909.15
516.914	17874.33
517.116	18003.35
517.318	18099.61
517.52	18445.71
517.722	18427.28
517.925	18566.54
518.127	18853.26
518.329	18980.23
518.531	18726.28
518.733	19428.74
518.935	19326.34
519.136	19232.13
519.338	19750.27
519.54	19883.39
519.742	20368.76
519.944	20155.77
520.146	20624.75
520.348	20825.45
520.55	20440.43
520.752	20655.47
520.954	21339.49
521.155	20917.61
521.357	21179.75
521.559	21362.02
521.761	21634.4
521.963	21736.8
522.164	21984.6
522.366	21720.42
522.568	22248.79
522.77	22302.04
522.971	22740.3
523.173	22447.44
523.375	22642
523.576	22709.58
523.778	22844.75
523.98	23143.75
524.181	23205.19
524.383	23289.16
524.584	23371.08
524.786	23735.62
524.988	23315.78
525.189	24255.8
525.391	24055.1
525.592	24225.08
525.794	24270.14
525.995	24366.39
526.197	24311.1
526.398	24202.55
526.6	24661.3
526.801	24857.9
527.003	24493.36
527.204	24593.72
527.406	25199.91
527.607	24939.82
527.808	25468.2
528.01	25124.14
528.211	25238.83
528.412	25484.58
528.614	25466.15
528.815	25797.92
529.016	25726.24
529.218	25402.66
529.419	25648.42
529.62	25611.56
529.822	25709.86
530.023	25769.25
530.224	25679.14
530.425	26019.1
530.626	25681.19
530.828	25599.27
531.029	26426.65
531.23	25840.93
531.431	25869.6
531.632	26094.88
531.833	25869.6
532.035	26189.08
532.236	26416.41
532.437	26500.37
532.638	26125.6
532.839	26539.29
533.04	26440.98
533.241	26494.23
533.442	26830.1
533.643	26488.09
533.844	26518.81
534.045	26533.14
534.246	26336.54
534.447	26459.41
534.648	27000.08
534.849	26574.1
535.05	26596.63
535.251	26447.13
535.451	26543.38
535.652	26762.51
535.853	26479.89
536.054	26522.9
536.255	26819.86
536.456	26492.18
536.657	27020.56
536.857	26330.39
537.058	26690.84
537.259	26891.54
537.46	26680.6
537.66	26834.19
537.861	26754.32
538.062	26518.81
538.263	26709.27
538.463	26776.85
538.664	26735.89
538.865	26864.91
539.065	26991.89
539.266	26662.16
539.466	26719.51
539.667	26422.55
539.868	26809.62
540.068	26707.22
540.269	26510.61
540.469	26895.63
540.67	26774.8
540.87	26600.72
541.071	26520.85
541.271	26688.79
541.472	26594.58
541.672	26520.85
541.873	26629.4
542.073	26318.11
542.274	26625.3
542.474	26553.62
542.675	26244.38
542.875	26580.25
543.075	26541.33
543.276	26258.71
543.476	26987.79
543.676	26144.03
543.877	26508.57
544.077	26643.73
544.277	26627.35
544.478	26549.53
544.678	26625.3
544.878	26791.19
545.078	26682.64
545.279	26139.93
545.479	26432.79
545.679	26314.01
545.879	26508.57
546.079	26305.82
546.28	26481.94
546.48	26359.06
546.68	26414.36
546.88	26574.1
547.08	26848.53
547.28	26524.95
547.48	26373.4
547.68	26574.1
547.88	26395.93
548.081	26496.28
548.281	26453.27
548.481	26182.94
548.681	26471.7
548.881	26563.86
549.081	26510.61
549.28	26139.93
549.48	26549.53
549.68	26471.7
549.88	26844.43
550.08	25959.71
550.28	26576.15
550.48	26242.33
550.68	26387.74
550.88	26250.52
551.08	26084.64
551.279	26604.82
551.479	26127.64
551.679	26105.12
551.879	26107.16
552.079	26549.53
552.278	26152.22
552.478	26068.25
552.678	25949.47
552.878	26475.8
553.077	26115.36
553.277	25748.77
553.477	26404.12
553.676	26164.51
553.876	26025.25
554.076	26127.64
554.275	25836.83
554.475	25918.75
554.674	25926.94
554.874	25996.57
555.074	26084.64
555.273	25756.96
555.473	25773.35
555.672	25861.41
555.872	25832.74
556.071	25836.83
556.271	25797.92
556.47	25599.27
556.67	25412.9
556.869	25576.74
557.068	25777.44
557.268	25711.91
557.467	25613.6
557.667	25390.38
557.866	25402.66
558.065	25359.66
558.265	25074.99
558.464	25367.85
558.663	25591.08
558.863	25455.91
559.062	25765.15
559.261	25421.09
559.461	25433.38
559.66	24905.01
559.859	25255.21
560.058	25011.5
560.258	24857.9
560.457	24984.88
560.656	25197.87
560.855	24911.15
561.054	25009.45
561.253	24718.64
561.453	24726.83
561.652	24575.28
561.851	24988.97
562.05	24632.63
562.249	24712.5
562.448	24771.89
562.647	24632.63
562.846	24530.23
563.045	24499.51
563.244	24157.5
563.443	24882.48
563.642	24268.09
563.841	24282.42
564.04	24030.52
564.239	24307
564.438	24390.97
564.637	24091.96
564.836	24030.52
565.035	23833.92
565.234	24108.35
565.432	23858.49
565.631	23803.2
565.83	24028.48
566.029	23678.27
566.228	23741.76
566.427	23622.98
566.625	23416.13
566.824	23426.37
567.023	23496
567.222	23393.61
567.42	23510.34
567.619	23160.14
567.818	23106.89
568.016	23072.07
568.215	23108.94
568.414	22912.33
568.612	23135.56
568.811	22734.16
569.01	22873.42
569.208	22668.62
569.407	22900.05
569.605	22639.95
569.804	22967.63
570.002	22398.29
570.201	22469.97
570.4	22373.72
570.598	22621.52
570.797	22359.38
570.995	22445.4
571.193	22107.48
571.392	22404.44
571.59	22170.97
571.789	22046.04
571.987	21988.7
572.186	22068.57
572.384	21937.5
572.582	22048.09
572.781	21681.5
572.979	21509.47
573.177	22095.19
573.376	21677.41
573.574	21515.62
573.772	21443.94
573.971	21425.51
574.169	21536.1
574.367	21120.36
574.565	21491.04
574.763	21224.81
574.962	21314.92
575.16	21081.45
575.358	21347.68
575.556	21003.63
575.754	21310.82
575.952	20817.26
576.151	20784.49
576.349	20802.93
576.547	20663.66
576.745	20698.48
576.943	20604.27
577.141	20800.88
577.339	20612.46
577.537	20356.47
577.735	20512.11
577.933	20247.93
578.131	20452.72
578.329	20335.99
578.527	19981.69
578.725	20358.52
578.923	20125.05
579.121	19963.26
579.319	20137.34
579.516	20094.33
579.714	19744.13
579.912	19969.4
580.11	19742.08
580.308	19748.22
580.506	19893.63
580.704	19686.78
580.901	19930.49
581.099	19656.06
581.297	19262.85
581.495	19522.94
581.692	19416.45
581.89	19221.89
582.088	19385.73
582.285	18916.75
582.483	19187.08
582.681	18736.52
582.878	19127.69
583.076	18834.83
583.274	19015.05
583.471	18972.04
583.669	18869.64
583.866	18888.07
584.064	18501.01
584.262	18482.58
584.459	18621.84
584.657	18777.48
584.854	18597.26
585.052	18240.92
585.249	18480.53
585.447	18652.56
585.644	18492.82
585.841	18339.22
586.039	18326.93
586.236	18199.96
586.434	18075.03
586.631	17898.91
586.828	17667.49
587.026	17890.71
587.223	18138.52
587.42	17853.85
587.618	17862.04
587.815	17608.09
588.012	17669.53
588.21	17784.22
588.407	17765.79
588.604	17558.94
588.801	17536.42
588.999	17425.82
589.196	17460.64
589.393	17481.12
589.59	17137.06
589.787	17302.95
589.984	17501.6
590.182	17106.34
590.379	17184.16
590.576	17005.99
590.773	17194.4
590.97	16745.9
591.167	17137.06
591.364	16790.95
591.561	16950.7
591.758	16719.28
591.955	16747.95
592.152	16651.69
592.349	16612.78
592.546	16559.53
592.743	16694.7
592.94	16430.51
593.137	16367.02
593.334	16326.07
593.531	16281.01
593.727	16229.81
593.924	16203.19
594.121	16274.87
594.318	16305.59
594.515	16012.73
594.712	16125.36
594.908	16127.41
595.105	16219.57
595.302	15936.95
595.499	15904.18
595.696	15932.86
595.892	15775.16
596.089	15836.6
596.286	15789.5
596.482	15715.77
596.679	15773.11
596.876	15719.87
597.072	15500.73
597.269	15656.38
597.466	15400.38
597.662	15228.35
597.859	15357.38
598.055	15361.47
598.252	15316.42
598.448	15224.26
598.645	15297.99
598.841	14996.93
599.038	15062.47
599.234	14937.54
599.431	14904.78
599.627	14994.89
599.824	15015.37
600.02	14738.89
600.217	14906.82
600.413	14775.75
600.609	14955.97
600.806	14392.78
601.002	14806.47
601.198	14624.2
601.395	14702.03
601.591	14513.61
601.787	14419.41
601.984	14337.49
602.18	14300.62
602.376	14200.27
602.572	14370.26
602.769	14282.19
602.965	14085.59
603.161	14267.86
603.357	14063.06
603.553	14157.27
603.75	14028.24
603.946	13983.19
604.142	13944.28
604.338	13833.69
604.534	13948.37
604.73	13626.84
604.926	13708.76
605.122	13852.12
605.318	13608.41
605.514	13491.68
605.71	13837.78
605.906	13315.55
606.102	13465.05
606.298	13440.48
606.494	13297.12
606.69	13639.13
606.886	13608.41
607.082	13338.08
607.278	13598.17
607.474	13204.96
607.67	13399.52
607.866	13174.24
608.062	13422.05
608.257	13125.09
608.453	13063.65
608.649	13108.71
608.845	13082.08
609.041	12991.97
609.236	13075.94
609.432	12934.63
609.628	12934.63
609.824	12727.78
610.019	13032.93
610.215	12781.03
610.411	12920.29
610.606	12838.37
610.802	12776.94
610.998	12707.3
611.193	12527.08
611.389	12680.68
611.584	12893.67
611.78	12514.8
611.976	12774.89
612.171	12688.87
612.367	12547.56
612.562	12416.49
612.758	12486.12
612.953	12400.11
613.149	12211.7
613.344	12330.48
613.539	12492.27
613.735	12531.18
613.93	12586.47
614.126	12461.55
614.321	12297.71
614.517	12574.19
614.712	12367.34
614.907	12246.51
615.103	12434.92
615.298	12121.59
615.493	12017.14
615.688	11808.25
615.884	12158.45
616.079	11781.62
616.274	12080.63
616.47	12197.36
616.665	12080.63
616.86	11890.17
617.055	11939.32
617.25	11967.99
617.445	11976.18
617.641	11767.29
617.836	12058.1
618.031	11781.62
618.226	11996.66
618.421	11793.91
618.616	11843.06
618.811	11613.69
619.006	11621.88
619.201	11474.43
619.396	11570.68
619.591	11396.6
619.786	11539.96
619.981	11355.65
620.176	11322.88
620.371	11220.48
620.566	11271.68
620.761	11351.55
620.956	11351.55
621.151	11150.85
621.346	11142.66
621.541	10767.88
621.735	11200
621.93	10776.07
622.125	10829.32
622.32	10864.13
622.515	10860.04
622.709	10884.61
622.904	10757.64
623.099	10634.76
623.294	10565.13
623.488	10694.15
623.683	10448.4
623.878	10204.69
624.072	10479.11
624.267	10286.61
624.462	10051.09
624.656	10120.72
624.851	10358.28
625.046	9997.84
625.24	10077.71
625.435	10018.32
625.629	10034.71
625.824	9922.07
626.018	9952.79
626.213	9573.91
626.407	9860.63
626.602	9526.81
626.796	9719.32
626.991	9680.41
627.185	9446.94
627.38	9541.15
627.574	9430.55
627.768	9391.64
627.963	9152.03
628.157	9319.96
628.352	9156.13
628.546	9272.86
628.74	9266.72
628.935	9137.7
629.129	8973.86
629.323	8908.32
629.517	8820.26
629.712	8865.32
629.906	8939.04
630.1	8541.74
630.294	8824.36
630.489	8711.72
630.683	8783.4
630.877	8631.85
631.071	8441.39
631.265	8590.89
631.459	8508.97
631.653	8459.82
631.848	8306.22
632.042	8394.28
632.236	8451.63
632.43	8193.58
632.624	8128.05
632.818	8169.01
633.012	8138.29
633.206	8001.07
633.4	8056.37
633.594	7884.34
633.788	8011.31
633.982	7968.31
634.176	7931.44
634.369	8025.65
634.563	7845.43
634.757	7726.64
634.951	7646.77
635.145	7704.12
635.339	7812.66
635.533	7517.75
635.726	7503.42
635.92	7476.79
636.114	7693.88
636.308	7403.07
636.501	7411.26
636.695	7386.68
636.889	7325.24
637.083	7159.36
637.276	7161.41
637.47	7251.52
637.664	7317.05
637.857	7061.05
638.051	7128.64
638.244	7071.29
638.438	7208.51
638.632	7091.77
638.825	6880.83
639.019	6975.04
639.212	6700.61
639.406	6704.71
639.599	6952.51
639.793	6655.56
639.986	6757.96
640.18	6612.55
640.373	6772.29
640.567	6690.37
640.76	6516.3
640.954	6417.99
641.147	6596.17
641.34	6356.55
641.534	6463.05
641.727	6542.92
641.92	6331.98
642.114	6436.42
642.307	6327.88
642.5	6362.7
642.694	6125.13
642.887	6239.82
643.08	6280.78
643.273	6178.38
643.467	6073.93
643.66	6022.73
643.853	6000.21
644.046	6047.31
644.239	6000.21
644.432	5854.8
644.626	5809.75
644.819	6078.03
645.012	5781.07
645.205	5748.31
645.398	5819.99
645.591	5846.61
645.784	5695.06
645.977	5625.43
646.17	5647.96
646.363	5752.4
646.556	5488.21
646.749	5561.94
646.942	5461.59
647.135	5463.64
647.328	5377.62
647.521	5412.44
647.714	5520.98
647.907	5561.94
648.099	5490.26
648.292	5512.79
648.485	5281.37
648.678	5209.69
648.871	5332.57
649.064	5351
649.256	5277.27
649.449	5135.96
649.642	5058.14
649.835	5174.88
650.027	5019.23
650.22	5164.64
650.413	5047.9
650.605	5117.53
650.798	4908.64
650.991	4845.15
651.183	4941.41
651.376	4900.45
651.568	4798.05
651.761	4738.66
651.954	4781.67
652.146	4818.53
652.339	4886.11
652.531	4709.99
652.724	4658.79
652.916	4499.05
653.109	4773.47
653.301	4728.42
653.494	4783.71
653.686	4497
653.879	4613.73
654.071	4474.47
654.263	4402.79
654.456	4519.53
654.648	4634.21
654.84	4464.23
655.033	4376.17
655.225	4453.99
655.417	4435.56
655.61	4535.91
655.802	4308.58
655.994	4331.11
656.186	4294.25
656.379	4329.06
656.571	4290.15
656.763	4249.19
656.955	4095.6
657.148	4238.95
657.34	4312.68
657.532	4228.71
657.724	4101.74
657.916	4103.79
658.108	4126.32
658.3	4064.88
658.492	4048.49
658.684	3876.46
658.876	4093.55
659.068	4071.02
659.26	4054.64
659.452	3886.7
659.644	3958.38
659.836	3878.51
660.028	3923.57
660.22	3737.2
660.412	3810.93
660.604	3763.83
660.796	3720.82
660.988	3765.87
661.18	3819.12
661.372	3587.7
661.563	3853.94
661.755	3823.22
661.947	3700.34
662.139	3624.56
662.331	3739.25
662.522	3569.27
662.714	3718.77
662.906	3569.27
663.097	3593.84
663.289	3528.31
663.481	3507.83
663.673	3487.35
663.864	3475.06
664.056	3384.95
664.247	3462.77
664.439	3341.94
664.631	3446.39
664.822	3430.01
665.014	3405.43
665.205	3505.78
665.397	3286.65
665.588	3325.56
665.78	3346.04
665.971	3352.18
666.163	3364.47
666.354	3321.46
666.546	3249.79
666.737	3219.07
666.929	3169.91
667.12	3288.7
667.311	3098.24
667.503	3337.85
667.694	3233.4
667.885	3141.24
668.077	3190.39
668.268	3182.2
668.459	3147.39
668.651	3167.87
668.842	3128.95
669.033	3122.81
669.224	2942.59
669.416	3159.67
669.607	2987.65
669.798	3065.47
669.989	2989.69
670.18	2958.97
670.371	2995.84
670.563	3040.89
670.754	3022.46
670.945	2975.36
671.136	2979.45
671.327	3024.51
671.518	2918.01
671.709	3016.32
671.9	2987.65
672.091	2872.96
672.282	2793.09
672.473	2778.75
672.664	2866.81
672.855	2733.7
673.046	2795.14
673.237	2881.15
673.428	2895.49
673.619	2920.06
673.809	2803.33
674	2879.1
674.191	2774.66
674.382	2836.1
674.573	2727.55
674.764	2776.7
674.954	2807.42
675.145	2725.51
675.336	2715.27
675.527	2733.7
675.717	2637.44
675.908	2645.63
676.099	2647.68
676.289	2711.17
676.48	2694.79
676.671	2627.2
676.861	2668.16
677.052	2651.78
677.243	2600.58
677.433	2461.32
677.624	2629.25
677.814	2698.88
678.005	2662.02
678.195	2606.72
678.386	2530.95
678.576	2592.39
678.767	2627.2
678.957	2729.6
679.148	2557.57
679.338	2563.72
679.529	2612.87
679.719	2573.96
679.909	2528.9
680.1	2508.42
680.29	2465.41
680.481	2533
680.671	2479.75
680.861	2401.93
681.052	2596.48
681.242	2600.58
681.432	2576
681.622	2418.31
681.813	2516.61
682.003	2485.89
682.193	2504.32
682.383	2580.1
682.573	2440.84
682.764	2455.17
682.954	2442.89
683.144	2412.17
683.334	2356.87
683.524	2500.23
683.714	2438.79
683.904	2494.08
684.094	2516.61
684.284	2543.24
684.474	2467.46
684.664	2393.73
684.854	2442.89
685.044	2320.01
685.234	2352.77
685.424	2369.16
685.614	2293.38
685.804	2412.17
685.994	2449.03
686.184	2330.25
686.374	2381.45
686.564	2178.7
686.753	2309.77
686.943	2377.35
687.133	2334.34
687.323	2305.67
687.513	2332.3
687.702	2250.38
687.892	2270.86
688.082	2297.48
688.272	2285.19
688.461	2195.08
688.651	2180.75
688.841	2250.38
689.03	2115.21
689.22	2164.36
689.41	2180.75
689.599	2053.77
689.789	2195.08
689.979	2184.84
690.168	2088.59
690.358	2197.13
690.547	2221.7
690.737	2090.63
690.926	2107.02
691.116	2123.4
691.305	2086.54
691.495	2051.72
691.684	2008.72
691.874	1975.95
692.063	1973.9
692.252	1973.9
692.442	2080.39
692.631	2023.05
692.82	2082.44
693.01	2018.96
693.199	2031.24
693.388	1885.84
693.578	2000.52
693.767	1949.32
693.956	1902.22
694.146	2047.63
694.335	1939.09
694.524	1922.7
694.713	1894.03
694.902	1945.23
695.092	1836.69
695.281	1840.78
695.47	1859.21
695.659	1910.41
695.848	1939.09
696.037	1904.27
696.226	1906.32
696.415	1848.97
696.604	1953.42
696.793	1797.78
696.982	1877.65
697.171	1920.65
697.36	1844.88
697.549	1840.78
697.738	1869.45
697.927	1937.04
698.116	1793.68
698.305	1941.13
698.494	1840.78
698.683	1830.54
698.872	1793.68
699.061	1805.97
699.25	1787.54
699.438	1787.54
699.627	1873.55
699.816	1816.21
700.005	1730.19
700.193	1775.25
700.382	1894.03
700.571	1756.82
700.76	1891.98
700.948	1896.08
701.137	1808.02
701.326	1724.05
701.514	1908.37
701.703	1828.49
701.892	1754.77
702.08	1863.31
702.269	1799.82
702.457	1820.3
702.646	1822.35
702.834	1812.11
703.023	1781.39
703.212	1828.49
703.4	1681.04
703.589	1789.58
703.777	1814.16
703.965	1783.44
704.154	1869.45
704.342	1812.11
704.531	1744.53
704.719	1861.26
704.907	1695.38
705.096	1762.96
705.284	1818.25
705.472	1836.69
705.661	1838.73
705.849	1818.25
706.037	1789.58
706.226	1777.3
706.414	1738.38
706.602	1738.38
706.79	1801.87
706.979	1855.12
707.167	1918.61
707.355	1824.4
707.543	1740.43
707.731	1726.1
707.919	1771.15
708.107	1752.72
708.296	1687.18
708.484	1799.82
708.672	1803.92
708.86	1750.67
709.048	1762.96
709.236	1765.01
709.424	1887.89
709.612	1769.1
709.8	1771.15
709.988	1746.58
710.176	1775.25
710.364	1906.32
710.551	1859.21
710.739	1730.19
710.927	1736.34
711.115	1742.48
711.303	1814.16
711.491	1771.15
711.679	1728.14
711.866	1748.62
712.054	1717.9
712.242	1666.71
712.43	1791.63
712.617	1734.29
712.805	1805.97
712.993	1736.34
713.181	1748.62
713.368	1736.34
713.556	1779.34
713.744	1785.49
713.931	1699.47
714.119	1724.05
714.306	1754.77
714.494	1740.43
714.682	1787.54
714.869	1805.97
715.057	1685.14
715.244	1738.38
715.432	1672.85
715.619	1752.72
715.807	1799.82
715.994	1730.19
716.182	1795.73
716.369	1926.8
716.556	1883.79
716.744	1732.24
716.931	1668.75
717.119	1769.1
717.306	1842.83
717.493	1736.34
717.681	1873.55
717.868	1742.48
718.055	1824.4
718.242	1760.91
718.43	1769.1
718.617	1695.38
718.804	1681.04
718.991	1808.02
719.179	1795.73
719.366	1775.25
719.553	1803.92
719.74	1756.82
719.927	1799.82
720.114	1803.92
720.301	1732.24
720.488	1707.66
720.676	1758.86
720.863	1785.49
721.05	1689.23
721.237	1773.2
721.424	1746.58
721.611	1779.34
721.798	1828.49
721.985	1775.25
722.172	1760.91
722.358	1744.53
722.545	1822.35
722.732	1775.25
722.919	1822.35
723.106	1722
723.293	1787.54
723.48	1756.82
723.667	1664.66
723.853	1756.82
724.04	1867.41
724.227	1834.64
724.414	1746.58
724.6	1736.34
724.787	1707.66
724.974	1695.38
725.161	1738.38
725.347	1623.7
725.534	1730.19
725.72	1857.17
725.907	1736.34
726.094	1728.14
726.28	1767.06
726.467	1826.45
726.653	1656.47
726.84	1805.97
727.027	1842.83
727.213	1793.68
727.4	1830.54
727.586	1693.33
727.773	1701.52
727.959	1681.04
728.145	1699.47
728.332	1826.45
728.518	1732.24
728.705	1699.47
728.891	1844.88
729.077	1808.02
729.264	1689.23
729.45	1691.28
729.636	1830.54
729.823	1765.01
730.009	1865.36
730.195	1719.95
730.382	1734.29
730.568	1762.96
730.754	1793.68
730.94	1816.21
731.126	1664.66
731.313	1738.38
731.499	1824.4
731.685	1752.72
731.871	1799.82
732.057	1783.44
732.243	1787.54
732.429	1881.74
732.615	1758.86
732.801	1799.82
732.987	1734.29
733.173	1879.69
733.359	1787.54
733.545	1754.77
733.731	1742.48
733.917	1713.81
734.103	1746.58
734.289	1738.38
734.475	1597.07
734.661	1767.06
734.847	1724.05
735.033	1742.48
735.219	1826.45
735.404	1744.53
735.59	1672.85
735.776	1730.19
735.962	1769.1
736.148	1662.61
736.333	1742.48
736.519	1666.71
736.705	1738.38
736.89	1687.18
737.076	1746.58
737.262	1707.66
737.447	1664.66
737.633	1722
737.819	1722
738.004	1672.85
738.19	1793.68
738.375	1758.86
738.561	1668.75
738.747	1676.95
738.932	1711.76
739.118	1873.55
739.303	1853.07
739.489	1820.3
739.674	1607.31
739.859	1717.9
740.045	1629.84
740.23	1687.18
740.416	1672.85
740.601	1719.95
740.786	1662.61
740.972	1552.02
741.157	1681.04
741.342	1617.55
741.528	1644.18
741.713	1676.95
741.898	1539.73
742.084	1642.13
742.269	1701.52
742.454	1502.87
742.639	1808.02
742.824	1554.07
743.01	1676.95
743.195	1572.5
743.38	1592.98
743.565	1658.51
743.75	1572.5
743.935	1560.21
744.12	1549.97
744.305	1588.88
744.49	1574.55
744.675	1566.35
744.86	1578.64
745.045	1488.53
745.23	1588.88
745.415	1537.68
745.6	1502.87
745.785	1537.68
745.97	1511.06
746.155	1504.92
746.34	1541.78
746.525	1412.76
746.71	1535.64
746.895	1517.2
747.079	1441.43
747.264	1414.81
747.449	1474.2
747.634	1490.58
747.819	1490.58
748.003	1281.69
748.188	1515.16
748.373	1400.47
748.557	1461.91
748.742	1316.5
748.927	1402.52
749.111	1441.43
749.296	1375.89
749.481	1369.75
749.665	1298.07
749.85	1240.73
750.034	1500.82
750.219	1402.52
750.404	1339.03
750.588	1365.65
750.773	1156.76
750.957	1339.03
751.141	1375.89
751.326	1310.36
751.51	1289.88
751.695	1269.4
751.879	1246.87
752.064	1230.49
752.248	1259.16
752.432	1271.45
752.617	1318.55
752.801	1205.91
752.985	1154.71
753.17	1279.64
753.354	1171.1
753.538	1187.48
753.722	1095.32
753.907	1164.95
754.091	1189.53
754.275	1255.06
754.459	1070.75
754.643	1054.36
754.828	1123.99
755.012	1109.66
755.196	1058.46
755.38	1132.19
755.564	1121.95
755.748	1042.07
755.932	1148.57
756.116	1117.85
756.3	1064.6
756.484	1083.03
756.668	1134.23
756.852	986.78
757.036	1060.51
757.22	1076.89
757.404	1040.03
757.588	900.76
757.772	1103.51
757.956	1107.61
758.14	968.35
758.323	1074.84
758.507	1080.99
758.691	962.2
758.875	990.88
759.059	980.64
759.242	900.76
759.426	960.16
759.61	994.97
759.794	923.29
759.977	921.24
760.161	962.2
760.345	968.35
760.528	890.53
760.712	935.58
760.895	935.58
761.079	906.91
761.263	876.19
761.446	855.71
761.63	949.92
761.813	841.37
761.997	865.95
762.18	851.61
762.364	865.95
762.547	820.89
762.731	847.52
762.914	837.28
763.098	824.99
763.281	886.43
763.464	829.09
763.648	806.56
763.831	853.66
764.015	792.22
764.198	857.76
764.381	853.66
764.564	855.71
764.748	833.18
764.931	913.05
765.114	890.53
765.297	876.19
765.481	824.99
765.664	732.83
765.847	906.91
766.03	765.6
766.213	775.84
766.397	665.25
766.58	806.56
766.763	820.89
766.946	775.84
767.129	777.89
767.312	681.63
767.495	786.08
767.678	755.36
767.861	767.65
768.044	673.44
768.227	845.47
768.41	720.54
768.593	792.22
768.776	771.74
768.959	726.69
769.142	743.07
769.324	757.41
769.507	786.08
769.69	749.22
769.873	730.78
770.056	779.93
770.239	736.93
770.421	685.73
770.604	706.21
770.787	712.35
770.97	648.86
771.152	650.91
771.335	728.74
771.518	597.67
771.7	786.08
771.883	726.69
772.066	736.93
772.248	667.3
772.431	704.16
772.613	745.12
772.796	679.58
772.978	698.02
773.161	605.86
773.343	677.54
773.526	675.49
773.708	575.14
773.891	630.43
774.073	683.68
774.256	659.1
774.438	673.44
774.621	634.53
774.803	597.67
774.985	589.47
775.168	612
775.35	683.68
775.532	634.53
775.715	665.25
775.897	679.58
776.079	609.95
776.261	548.51
776.444	632.48
776.626	710.3
776.808	532.13
776.99	503.46
777.173	652.96
777.355	554.66
777.537	517.79
777.719	562.85
777.901	568.99
778.083	540.32
778.265	525.99
778.447	552.61
778.629	507.55
778.811	589.47
778.993	507.55
779.175	554.66
779.357	534.18
779.539	530.08
779.721	462.5
779.903	470.69
780.085	528.03
780.267	482.98
780.449	384.68
780.631	575.14
780.812	466.6
780.994	435.88
781.176	468.64
781.358	474.79
781.54	482.98
781.721	548.51
781.903	435.88
782.085	446.12
782.267	415.4
782.448	446.12
782.63	489.12
782.812	444.07
782.993	390.82
783.175	421.54
783.357	487.08
783.538	474.79
783.72	425.64
783.901	353.96
784.083	399.01
784.264	458.4
784.446	388.77
784.627	413.35
784.809	433.83
784.99	370.34
785.172	296.61
785.353	368.29
785.535	403.11
785.716	347.81
785.897	392.87
786.079	415.4
786.26	290.47
786.441	415.4
786.623	349.86
786.804	366.25
786.985	323.24
787.167	343.72
787.348	353.96
787.529	392.87
787.71	396.96
787.891	378.53
788.073	274.09
788.254	341.67
788.435	378.53
788.616	323.24
788.797	257.7
788.978	294.57
789.159	321.19
789.34	319.14
789.522	321.19
789.703	304.81
789.884	368.29
790.065	390.82
790.246	269.99
790.427	358.05
790.607	374.44
790.788	274.09
790.969	269.99
791.15	294.57
791.331	353.96
791.512	329.38
791.693	300.71
791.874	364.2
792.054	347.81
792.235	339.62
792.416	284.33
792.597	259.75
792.778	286.37
792.958	325.29
793.139	317.09
793.32	333.48
793.5	196.26
793.681	251.56
793.862	261.8
794.042	265.89
794.223	263.85
794.404	255.65
794.584	229.03
794.765	231.08
794.945	296.61
795.126	249.51
795.306	210.6
795.487	253.61
795.667	206.5
795.848	282.28
796.028	218.79
796.209	267.94
796.389	190.12
796.57	253.61
796.75	188.07
796.93	259.75
797.111	214.7
797.291	335.53
797.471	274.09
797.652	188.07
797.832	269.99
798.012	310.95
798.192	171.69
798.373	231.08
798.553	261.8
798.733	243.37
798.913	210.6
799.093	200.36
799.274	206.5
799.454	194.22
799.634	210.6
799.814	255.65
799.994	177.83
800.174	235.18
800.354	210.6
800.534	249.51
800.714	255.65
800.894	284.33
801.074	233.13
801.254	210.6
801.434	216.74
801.614	155.3
801.794	226.98
801.974	544.42
802.154	165.54
802.334	249.51
802.514	216.74
802.693	206.5
802.873	206.5
803.053	323.24
803.233	167.59
803.413	177.83
803.592	169.64
803.772	159.4
803.952	210.6
804.131	165.54
804.311	175.78
804.491	224.94
804.67	173.74
804.85	128.68
805.03	190.12
805.209	284.33
805.389	110.25
805.568	126.63
805.748	186.02
805.928	169.64
806.107	245.41
806.287	220.84
806.466	224.94
806.646	210.6
806.825	204.46
807.004	177.83
807.184	161.45
807.363	134.82
807.543	149.16
807.722	104.11
807.901	116.39
808.081	155.3
808.26	190.12
808.439	167.59
808.619	132.78
808.798	155.3
808.977	95.91
809.156	212.65
809.336	186.02
809.515	175.78
809.694	147.11
809.873	120.49
810.052	91.82
810.231	165.54
810.411	186.02
810.59	147.11
810.769	106.15
810.948	114.34
811.127	81.58
811.306	155.3
811.485	106.15
811.664	202.41
811.843	147.11
812.022	110.25
812.201	175.78
812.38	83.63
812.559	147.11
812.737	167.59
812.916	83.63
813.095	79.53
813.274	116.39
813.453	85.67
813.632	173.74
813.811	175.78
813.989	116.39
814.168	83.63
814.347	34.47
814.526	175.78
814.704	140.97
814.883	108.2
815.062	149.16
815.24	179.88
815.419	89.77
815.598	120.49
815.776	89.77
815.955	181.93
816.133	52.91
816.312	149.16
816.49	104.11
816.669	120.49
816.847	59.05
817.026	81.58
817.204	161.45
817.383	108.2
817.561	102.06
817.74	134.82
817.918	97.96
818.097	157.35
818.275	140.97
818.453	130.73
818.632	77.48
818.81	91.82
818.988	124.58
819.167	122.54
819.345	179.88
819.523	85.67
819.701	116.39
819.879	175.78
820.058	134.82
820.236	71.34
820.414	38.57
820.592	97.96
820.77	114.34
820.948	44.71
821.127	73.39
821.305	143.02
821.483	95.91
821.661	130.73
821.839	36.52
822.017	30.38
822.195	130.73
822.373	155.3
822.551	140.97
822.729	153.26
822.907	120.49
823.085	73.39
823.262	151.21
823.44	100.01
823.618	34.47
823.796	108.2
823.974	61.1
824.152	40.62
824.329	122.54
824.507	77.48
824.685	48.81
824.863	-10.58
825.04	151.21
825.218	79.53
825.396	38.57
825.574	165.54
825.751	157.35
825.929	128.68
826.107	48.81
826.284	42.67
826.462	118.44
826.639	87.72
826.817	120.49
826.994	81.58
827.172	120.49
827.349	169.64
827.527	87.72
827.704	155.3
827.882	102.06
828.059	89.77
828.237	100.01
828.414	116.39
828.591	95.91
828.769	116.39
828.946	57
829.124	126.63
829.301	54.95
829.478	102.06
829.655	85.67
829.833	77.48
830.01	83.63
830.187	93.87
830.364	104.11
830.542	67.24
830.719	85.67
830.896	104.11
831.073	114.34
831.25	75.43
831.427	100.01
831.604	147.11
831.782	100.01
831.959	126.63
832.136	40.62
832.313	97.96
832.49	1.71
832.667	93.87
832.844	36.52
833.021	120.49
833.198	57
833.374	38.57
833.551	120.49
833.728	81.58
833.905	50.86
834.082	50.86
834.259	13.99
834.436	61.1
834.612	42.67
834.789	73.39
834.966	34.47
835.143	93.87
835.319	-4.44
835.496	57
835.673	100.01
835.85	87.72
836.026	67.24
836.203	75.43
836.38	79.53
836.556	81.58
836.733	5.8
836.909	100.01
837.086	79.53
837.262	7.85
837.439	32.43
837.616	28.33
837.792	42.67
837.968	124.58
838.145	44.71
838.321	16.04
838.498	67.24
838.674	114.34
838.851	67.24
839.027	-12.63
839.203	122.54
839.38	122.54
839.556	91.82
839.732	22.19
839.909	102.06
840.085	54.95
840.261	93.87
840.437	38.57
840.614	1.71
840.79	65.19
840.966	91.82
841.142	36.52
841.318	77.48
841.494	67.24
841.671	130.73
841.847	-8.53
842.023	61.1
842.199	116.39
842.375	24.23
842.551	28.33
842.727	48.81
842.903	124.58
843.079	63.15
843.255	65.19
843.431	1.71
843.607	77.48
843.783	3.75
843.959	5.8
844.134	3.75
844.31	32.43
844.486	22.19
844.662	48.81
844.838	79.53
845.013	42.67
845.189	-10.58
845.365	46.76
845.541	67.24
845.716	11.95
845.892	54.95
846.068	89.77
846.244	-4.44
846.419	48.81
846.595	40.62
846.77	20.14
846.946	50.86
847.122	59.05
847.297	65.19
847.473	44.71
847.648	30.38
847.824	9.9
847.999	48.81
848.175	-31.06
848.35	20.14
848.526	71.34
848.701	-8.53
848.876	54.95
849.052	104.11
849.227	46.76
849.403	61.1
849.578	71.34
849.753	-8.53
849.929	44.71
850.104	1.71
850.279	77.48
850.454	-16.73
850.63	54.95
850.805	65.19
850.98	91.82
851.155	-12.63
851.33	61.1
851.505	32.43
851.681	36.52
851.856	63.15
852.031	11.95
852.206	57
852.381	32.43
852.556	-57.68
852.731	-22.87
852.906	44.71
853.081	5.8
853.256	13.99
853.431	59.05
853.606	24.23
853.781	7.85
853.956	-18.77
854.131	42.67
854.305	-6.49
854.48	5.8
854.655	-51.54
854.83	1.71
855.005	1.71
855.18	38.57
855.354	42.67
855.529	20.14
855.704	46.76
855.879	5.8
856.053	11.95
856.228	95.91
856.403	-18.77
856.577	81.58
856.752	52.91
856.926	52.91
857.101	63.15
857.276	-37.2
857.45	63.15
857.625	22.19
857.799	85.67
857.974	65.19
858.148	32.43
858.323	-12.63
858.497	9.9
858.672	48.81
858.846	13.99
859.02	40.62
859.195	34.47
859.369	87.72
859.543	69.29
859.718	87.72
859.892	50.86
860.066	81.58
860.241	16.04
860.415	100.01
860.589	13.99
860.763	44.71
860.938	-4.44
861.112	-12.63
861.286	67.24
861.46	46.76
861.634	-18.77
861.808	44.71
861.982	50.86
862.157	-49.49
862.331	34.47
862.505	67.24
862.679	-0.34
862.853	48.81
863.027	18.09
863.201	-0.34
863.375	13.99
863.549	20.14
863.722	50.86
863.896	24.23
864.07	32.43
864.244	-6.49
864.418	40.62
864.592	28.33
864.766	34.47
864.939	44.71
865.113	26.28
865.287	44.71
865.461	42.67
865.634	5.8
865.808	24.23
865.982	-4.44
866.156	57
866.329	-59.73
866.503	42.67
866.676	16.04
866.85	149.16
867.024	65.19
867.197	71.34
867.371	9.9
867.544	-20.82
867.718	-24.92
867.891	-0.34
868.065	-51.54
868.238	50.86
868.412	85.67
868.585	40.62
868.759	20.14
868.932	7.85
869.105	30.38
869.279	38.57
869.452	48.81
869.625	1.71
869.799	50.86
869.972	-12.63
870.145	36.52
870.319	32.43
870.492	54.95
870.665	-6.49
870.838	13.99
871.011	-88.4
871.185	40.62
871.358	-22.87
871.531	30.38
871.704	3.75
871.877	44.71
872.05	1.71
872.223	22.19
872.396	42.67
872.569	-26.96
872.742	-4.44
872.915	-2.39
873.088	20.14
873.261	83.63
873.434	-12.63
873.607	-14.68
873.78	-0.34
873.953	1.71
874.126	-0.34
874.299	104.11
874.471	22.19
874.644	18.09
874.817	40.62
874.99	63.15
875.163	-53.59
875.335	1.71
875.508	38.57
875.681	36.52
875.853	18.09
876.026	48.81
876.199	-45.4
876.371	44.71
876.544	-35.16
876.717	1.71
876.889	61.1
877.062	32.43
877.234	20.14
877.407	42.67
877.579	-8.53
877.752	-47.44
877.924	-6.49
878.097	38.57
878.269	24.23
878.442	30.38
878.614	-39.25
878.786	-12.63
878.959	-0.34
879.131	-14.68
879.303	-22.87
879.476	1.71
879.648	95.91
879.82	-29.01
879.993	75.43
880.165	102.06
880.337	79.53
880.509	77.48
880.681	48.81
880.854	18.09
881.026	-59.73
881.198	73.39
881.37	38.57
881.542	52.91
881.714	63.15
881.886	-14.68
882.058	-26.96
882.23	26.28
882.402	-45.4
882.574	52.91
882.746	13.99
882.918	-4.44
883.09	9.9
883.262	59.05
883.434	5.8
883.606	-41.3
883.778	48.81
883.95	7.85
884.122	-6.49
884.293	108.2
884.465	-10.58
884.637	-26.96
884.809	-39.25
884.98	-35.16
885.152	57
885.324	-65.88
885.496	57
885.667	1.71
885.839	67.24
886.011	61.1
886.182	26.28
886.354	44.71
886.525	-0.34
886.697	-18.77
886.869	-8.53
887.04	59.05
887.212	34.47
887.383	46.76
887.555	-26.96
887.726	-33.11
887.897	9.9
888.069	26.28
888.24	38.57
888.412	32.43
888.583	-31.06
888.754	-18.77
888.926	-84.31
889.097	5.8
889.268	-47.44
889.44	32.43
889.611	-12.63
889.782	-22.87
889.953	36.52
890.125	83.63
890.296	-22.87
890.467	-65.88
890.638	11.95
890.809	7.85
890.98	-26.96
891.151	-0.34
891.323	69.29
891.494	30.38
891.665	-22.87
891.836	-53.59
892.007	65.19
892.178	38.57
892.349	28.33
892.52	3.75
892.691	26.28
892.862	30.38
893.032	-51.54
893.203	38.57
893.374	44.71
893.545	50.86
893.716	-35.16
893.887	118.44
894.057	11.95
894.228	30.38
894.399	13.99
894.57	28.33
894.74	-65.88
894.911	89.77
895.082	22.19
895.253	50.86
895.423	1.71
895.594	91.82
895.764	-33.11
895.935	-24.92
896.106	-74.07
896.276	57
896.447	30.38
896.617	5.8
896.788	-10.58
896.958	16.04
897.129	5.8
897.299	11.95
897.47	13.99
897.64	20.14
897.81	48.81
897.981	59.05
898.151	89.77
898.322	63.15
898.492	97.96
898.662	9.9
898.832	67.24
899.003	67.24
899.173	32.43
899.343	-4.44
899.513	-2.39
