Data from USB4F104151__151__11-08-26-410.txt Node

Date: Wed Mar 12 11:08:26 EDT 2025
User: louis
Spectrometer: USB4F10415
Trigger mode: 4
Integration Time (sec): 2.000000E-2
Scans to average: 1
Electric dark correction enabled: true
Nonlinearity correction enabled: false
Boxcar width: 0
XAxis mode: Wavelengths
Number of Pixels in Spectrum: 3648
>>>>>Begin Spectral Data<<<<<
178.204	-91.48
178.424	-91.48
178.644	-91.48
178.864	-50.52
179.084	-89.43
179.304	-11.61
179.524	31.4
179.744	27.31
179.964	84.65
180.184	6.83
180.404	0.68
180.624	-50.52
180.844	12.97
181.064	-30.04
181.283	-9.56
181.503	-68.95
181.723	6.83
181.943	-25.94
182.163	-1.37
182.383	68.27
182.602	45.74
182.822	39.59
183.042	-46.42
183.262	-50.52
183.482	60.07
183.701	19.11
183.921	12.97
184.141	0.68
184.361	33.45
184.58	23.21
184.8	68.27
185.02	-17.75
185.239	60.07
185.459	2.73
185.679	49.83
185.898	-27.99
186.118	-34.13
186.338	15.02
186.557	41.64
186.777	-93.52
186.997	-23.89
187.216	-1.37
187.436	41.64
187.655	41.64
187.875	12.97
188.095	4.78
188.314	-17.75
188.534	94.89
188.753	25.26
188.973	31.4
189.192	74.41
189.412	10.92
189.631	-34.13
189.851	55.98
190.07	55.98
190.29	10.92
190.509	-3.41
190.729	-15.7
190.948	15.02
191.168	68.27
191.387	12.97
191.607	-15.7
191.826	25.26
192.045	2.73
192.265	-36.18
192.484	-46.42
192.704	-17.75
192.923	-17.75
193.142	119.46
193.362	2.73
193.581	2.73
193.8	68.27
194.02	29.35
194.239	39.59
194.458	62.12
194.678	31.4
194.897	64.17
195.116	-1.37
195.335	23.21
195.555	64.17
195.774	43.69
195.993	64.17
196.212	43.69
196.432	15.02
196.651	27.31
196.87	-77.14
197.089	10.92
197.308	39.59
197.528	-7.51
197.747	4.78
197.966	15.02
198.185	4.78
198.404	-38.23
198.623	76.46
198.842	64.17
199.062	-5.46
199.281	55.98
199.5	12.97
199.719	2.73
199.938	-23.89
200.157	45.74
200.376	96.94
200.595	23.21
200.814	25.26
201.033	29.35
201.252	-3.41
201.471	55.98
201.69	53.93
201.909	15.02
202.128	-11.61
202.347	105.13
202.566	70.31
202.785	-5.46
203.004	12.97
203.223	31.4
203.442	43.69
203.661	37.55
203.879	-1.37
204.098	107.18
204.317	-40.28
204.536	15.02
204.755	43.69
204.974	70.31
205.193	8.87
205.411	17.07
205.63	51.88
205.849	4.78
206.068	19.11
206.287	-1.37
206.505	43.69
206.724	-9.56
206.943	23.21
207.162	-13.65
207.381	94.89
207.599	55.98
207.818	111.27
208.037	92.84
208.255	17.07
208.474	33.45
208.693	29.35
208.911	25.26
209.13	37.55
209.349	58.03
209.567	2.73
209.786	68.27
210.005	37.55
210.223	-5.46
210.442	-17.75
210.661	31.4
210.879	-9.56
211.098	82.6
211.316	47.79
211.535	19.11
211.753	43.69
211.972	29.35
212.191	-11.61
212.409	-11.61
212.628	37.55
212.846	10.92
213.065	12.97
213.283	68.27
213.502	80.55
213.72	68.27
213.938	6.83
214.157	15.02
214.375	64.17
214.594	37.55
214.812	27.31
215.031	-9.56
215.249	53.93
215.467	88.75
215.686	-17.75
215.904	60.07
216.122	-13.65
216.341	58.03
216.559	31.4
216.778	55.98
216.996	29.35
217.214	43.69
217.432	19.11
217.651	-1.37
217.869	10.92
218.087	-13.65
218.306	-42.32
218.524	-7.51
218.742	-5.46
218.96	98.99
219.179	12.97
219.397	-17.75
219.615	27.31
219.833	0.68
220.051	37.55
220.27	64.17
220.488	21.16
220.706	6.83
220.924	-9.56
221.142	35.5
221.36	27.31
221.578	64.17
221.796	45.74
222.015	62.12
222.233	60.07
222.451	76.46
222.669	-19.8
222.887	0.68
223.105	-1.37
223.323	62.12
223.541	66.22
223.759	113.32
223.977	29.35
224.195	80.55
224.413	109.22
224.631	62.12
224.849	68.27
225.067	43.69
225.285	62.12
225.503	-19.8
225.721	-25.94
225.939	39.59
226.157	-11.61
226.375	107.18
226.592	-21.85
226.81	-54.61
227.028	-9.56
227.246	60.07
227.464	-71
227.682	35.5
227.9	55.98
228.117	55.98
228.335	31.4
228.553	68.27
228.771	15.02
228.989	55.98
229.206	23.21
229.424	70.31
229.642	-13.65
229.86	51.88
230.077	80.55
230.295	51.88
230.513	76.46
230.731	-1.37
230.948	2.73
231.166	76.46
231.384	58.03
231.601	70.31
231.819	-19.8
232.037	23.21
232.254	70.31
232.472	-44.37
232.689	-56.66
232.907	92.84
233.125	-34.13
233.342	41.64
233.56	53.93
233.777	-44.37
233.995	101.03
234.213	31.4
234.43	47.79
234.648	-5.46
234.865	6.83
235.083	68.27
235.3	8.87
235.518	-38.23
235.735	31.4
235.953	68.27
236.17	-23.89
236.388	-40.28
236.605	19.11
236.822	68.27
237.04	80.55
237.257	60.07
237.475	-1.37
237.692	49.83
237.909	84.65
238.127	17.07
238.344	94.89
238.562	-3.41
238.779	39.59
238.996	29.35
239.214	-52.56
239.431	8.87
239.648	-3.41
239.865	33.45
240.083	49.83
240.3	37.55
240.517	41.64
240.735	35.5
240.952	-11.61
241.169	23.21
241.386	-38.23
241.603	17.07
241.821	23.21
242.038	31.4
242.255	-7.51
242.472	4.78
242.689	37.55
242.907	31.4
243.124	23.21
243.341	37.55
243.558	47.79
243.775	-25.94
243.992	41.64
244.209	-58.71
244.426	39.59
244.643	64.17
244.86	-30.04
245.078	33.45
245.295	15.02
245.512	31.4
245.729	45.74
245.946	51.88
246.163	2.73
246.38	47.79
246.597	84.65
246.814	19.11
247.031	35.5
247.248	49.83
247.464	98.99
247.681	19.11
247.898	-58.71
248.115	-9.56
248.332	39.59
248.549	12.97
248.766	115.37
248.983	8.87
249.2	10.92
249.417	27.31
249.633	-50.52
249.85	-34.13
250.067	19.11
250.284	-3.41
250.501	29.35
250.717	107.18
250.934	19.11
251.151	31.4
251.368	12.97
251.585	19.11
251.801	72.36
252.018	12.97
252.235	21.16
252.451	53.93
252.668	12.97
252.885	25.26
253.102	76.46
253.318	96.94
253.535	70.31
253.752	55.98
253.968	31.4
254.185	21.16
254.401	41.64
254.618	-52.56
254.835	-25.94
255.051	72.36
255.268	45.74
255.484	31.4
255.701	41.64
255.917	-3.41
256.134	17.07
256.351	-15.7
256.567	-21.85
256.784	43.69
257	21.16
257.217	43.69
257.433	74.41
257.65	60.07
257.866	37.55
258.082	2.73
258.299	4.78
258.515	76.46
258.732	-9.56
258.948	33.45
259.165	49.83
259.381	-23.89
259.597	-48.47
259.814	49.83
260.03	-30.04
260.246	-1.37
260.463	15.02
260.679	76.46
260.895	15.02
261.112	113.32
261.328	39.59
261.544	-1.37
261.761	-3.41
261.977	-81.24
262.193	31.4
262.409	76.46
262.626	-54.61
262.842	12.97
263.058	-21.85
263.274	74.41
263.49	45.74
263.707	72.36
263.923	115.37
264.139	-17.75
264.355	0.68
264.571	76.46
264.787	43.69
265.004	105.13
265.22	-71
265.436	21.16
265.652	10.92
265.868	0.68
266.084	37.55
266.3	98.99
266.516	41.64
266.732	2.73
266.948	55.98
267.164	12.97
267.38	25.26
267.596	64.17
267.812	51.88
268.028	78.51
268.244	58.03
268.46	111.27
268.676	-5.46
268.892	19.11
269.108	19.11
269.324	-1.37
269.54	37.55
269.756	19.11
269.972	-15.7
270.188	17.07
270.403	53.93
270.619	-9.56
270.835	88.75
271.051	62.12
271.267	33.45
271.483	74.41
271.698	41.64
271.914	125.61
272.13	-34.13
272.346	-32.08
272.562	88.75
272.777	43.69
272.993	27.31
273.209	64.17
273.425	35.5
273.64	-3.41
273.856	35.5
274.072	-19.8
274.287	6.83
274.503	109.22
274.719	15.02
274.934	37.55
275.15	35.5
275.366	-19.8
275.581	12.97
275.797	21.16
276.012	51.88
276.228	94.89
276.444	12.97
276.659	21.16
276.875	27.31
277.09	19.11
277.306	88.75
277.521	0.68
277.737	-5.46
277.952	98.99
278.168	-9.56
278.383	41.64
278.599	21.16
278.814	103.08
279.03	55.98
279.245	64.17
279.461	15.02
279.676	74.41
279.892	-5.46
280.107	45.74
280.322	-38.23
280.538	8.87
280.753	80.55
280.969	55.98
281.184	39.59
281.399	98.99
281.615	-77.14
281.83	25.26
282.045	-3.41
282.26	76.46
282.476	6.83
282.691	51.88
282.906	0.68
283.122	19.11
283.337	17.07
283.552	17.07
283.767	-9.56
283.983	25.26
284.198	94.89
284.413	2.73
284.628	17.07
284.843	25.26
285.058	-44.37
285.274	82.6
285.489	41.64
285.704	92.84
285.919	-5.46
286.134	25.26
286.349	60.07
286.564	10.92
286.779	19.11
286.995	25.26
287.21	-11.61
287.425	84.65
287.64	47.79
287.855	-13.65
288.07	-52.56
288.285	39.59
288.5	37.55
288.715	29.35
288.93	111.27
289.145	-52.56
289.36	-42.32
289.575	-50.52
289.79	60.07
290.004	35.5
290.219	55.98
290.434	2.73
290.649	-21.85
290.864	31.4
291.079	47.79
291.294	92.84
291.509	72.36
291.724	31.4
291.938	-60.76
292.153	35.5
292.368	-11.61
292.583	43.69
292.798	27.31
293.012	53.93
293.227	4.78
293.442	76.46
293.657	-38.23
293.871	2.73
294.086	60.07
294.301	31.4
294.516	33.45
294.73	76.46
294.945	41.64
295.16	31.4
295.374	111.27
295.589	60.07
295.804	33.45
296.018	117.42
296.233	23.21
296.447	25.26
296.662	58.03
296.877	-1.37
297.091	47.79
297.306	17.07
297.52	21.16
297.735	62.12
297.949	8.87
298.164	78.51
298.378	51.88
298.593	-15.7
298.807	15.02
299.022	12.97
299.236	39.59
299.451	21.16
299.665	35.5
299.88	-7.51
300.094	-25.94
300.309	33.45
300.523	-30.04
300.737	-7.51
300.952	-13.65
301.166	55.98
301.381	37.55
301.595	-105.81
301.809	-34.13
302.024	0.68
302.238	-38.23
302.452	55.98
302.667	23.21
302.881	51.88
303.095	101.03
303.309	90.79
303.524	10.92
303.738	62.12
303.952	27.31
304.166	15.02
304.381	-21.85
304.595	35.5
304.809	74.41
305.023	33.45
305.237	80.55
305.452	39.59
305.666	17.07
305.88	15.02
306.094	66.22
306.308	39.59
306.522	-11.61
306.736	37.55
306.95	-15.7
307.164	4.78
307.379	10.92
307.593	45.74
307.807	43.69
308.021	66.22
308.235	-25.94
308.449	15.02
308.663	31.4
308.877	-27.99
309.091	33.45
309.305	111.27
309.519	68.27
309.733	80.55
309.947	39.59
310.161	8.87
310.374	80.55
310.588	47.79
310.802	8.87
311.016	33.45
311.23	82.6
311.444	76.46
311.658	55.98
311.872	-7.51
312.085	74.41
312.299	-44.37
312.513	88.75
312.727	43.69
312.941	53.93
313.154	45.74
313.368	82.6
313.582	55.98
313.796	23.21
314.009	-30.04
314.223	10.92
314.437	58.03
314.651	27.31
314.864	-27.99
315.078	-27.99
315.292	8.87
315.505	49.83
315.719	109.22
315.933	-9.56
316.146	21.16
316.36	33.45
316.573	-9.56
316.787	-34.13
317.001	53.93
317.214	10.92
317.428	39.59
317.641	-19.8
317.855	0.68
318.068	25.26
318.282	47.79
318.495	51.88
318.709	0.68
318.922	-50.52
319.136	10.92
319.349	80.55
319.563	41.64
319.776	55.98
319.99	-17.75
320.203	60.07
320.417	0.68
320.63	15.02
320.843	19.11
321.057	6.83
321.27	-3.41
321.483	-23.89
321.697	86.7
321.91	72.36
322.124	49.83
322.337	55.98
322.55	66.22
322.763	62.12
322.977	35.5
323.19	12.97
323.403	68.27
323.617	43.69
323.83	113.32
324.043	25.26
324.256	27.31
324.469	-3.41
324.683	53.93
324.896	-34.13
325.109	17.07
325.322	25.26
325.535	84.65
325.748	49.83
325.962	25.26
326.175	-15.7
326.388	64.17
326.601	23.21
326.814	-46.42
327.027	35.5
327.24	88.75
327.453	-42.32
327.666	76.46
327.879	21.16
328.092	29.35
328.305	-7.51
328.518	68.27
328.731	-75.09
328.944	33.45
329.157	47.79
329.37	-7.51
329.583	37.55
329.796	68.27
330.009	-1.37
330.222	35.5
330.435	31.4
330.648	8.87
330.861	-3.41
331.073	53.93
331.286	19.11
331.499	76.46
331.712	29.35
331.925	8.87
332.138	39.59
332.35	80.55
332.563	-3.41
332.776	35.5
332.989	37.55
333.202	88.75
333.414	-9.56
333.627	35.5
333.84	105.13
334.053	29.35
334.265	6.83
334.478	60.07
334.691	29.35
334.903	15.02
335.116	29.35
335.329	4.78
335.541	25.26
335.754	37.55
335.966	10.92
336.179	84.65
336.392	-34.13
336.604	43.69
336.817	45.74
337.029	64.17
337.242	-27.99
337.454	0.68
337.667	0.68
337.88	21.16
338.092	23.21
338.305	72.36
338.517	2.73
338.729	131.75
338.942	51.88
339.154	-7.51
339.367	84.65
339.579	39.59
339.792	-1.37
340.004	53.93
340.217	27.31
340.429	21.16
340.641	41.64
340.854	21.16
341.066	70.31
341.278	17.07
341.491	47.79
341.703	21.16
341.915	23.21
342.128	27.31
342.34	47.79
342.552	27.31
342.764	33.45
342.977	62.12
343.189	58.03
343.401	92.84
343.613	10.92
343.826	53.93
344.038	-5.46
344.25	101.03
344.462	-19.8
344.674	76.46
344.886	-36.18
345.099	-19.8
345.311	31.4
345.523	23.21
345.735	-1.37
345.947	17.07
346.159	35.5
346.371	25.26
346.583	-23.89
346.795	-3.41
347.007	-9.56
347.219	21.16
347.431	27.31
347.643	-3.41
347.855	80.55
348.067	103.08
348.279	17.07
348.491	-36.18
348.703	133.8
348.915	72.36
349.127	82.6
349.339	-13.65
349.551	41.64
349.763	101.03
349.975	98.99
350.187	94.89
350.399	19.11
350.61	33.45
350.822	-3.41
351.034	101.03
351.246	39.59
351.458	119.46
351.669	35.5
351.881	43.69
352.093	58.03
352.305	-13.65
352.517	51.88
352.728	127.66
352.94	23.21
353.152	92.84
353.363	-32.08
353.575	43.69
353.787	35.5
353.999	33.45
354.21	39.59
354.422	-25.94
354.633	4.78
354.845	37.55
355.057	8.87
355.268	-23.89
355.48	107.18
355.692	29.35
355.903	58.03
356.115	-1.37
356.326	0.68
356.538	90.79
356.749	-19.8
356.961	66.22
357.172	12.97
357.384	10.92
357.595	86.7
357.807	37.55
358.018	31.4
358.23	6.83
358.441	33.45
358.653	68.27
358.864	-40.28
359.075	66.22
359.287	80.55
359.498	58.03
359.709	29.35
359.921	60.07
360.132	12.97
360.344	72.36
360.555	10.92
360.766	53.93
360.977	15.02
361.189	8.87
361.4	15.02
361.611	84.65
361.823	6.83
362.034	2.73
362.245	31.4
362.456	10.92
362.667	6.83
362.879	78.51
363.09	51.88
363.301	64.17
363.512	53.93
363.723	27.31
363.935	6.83
364.146	51.88
364.357	6.83
364.568	92.84
364.779	72.36
364.99	64.17
365.201	68.27
365.412	15.02
365.623	-50.52
365.834	105.13
366.045	-25.94
366.256	-36.18
366.467	-40.28
366.678	10.92
366.889	-11.61
367.1	-30.04
367.311	70.31
367.522	6.83
367.733	68.27
367.944	0.68
368.155	68.27
368.366	-7.51
368.577	39.59
368.788	74.41
368.999	29.35
369.209	21.16
369.42	51.88
369.631	55.98
369.842	25.26
370.053	-5.46
370.264	58.03
370.474	-15.7
370.685	55.98
370.896	-1.37
371.107	55.98
371.317	23.21
371.528	10.92
371.739	25.26
371.95	-7.51
372.16	41.64
372.371	4.78
372.582	51.88
372.792	19.11
373.003	45.74
373.214	-19.8
373.424	19.11
373.635	76.46
373.846	88.75
374.056	33.45
374.267	35.5
374.477	49.83
374.688	-1.37
374.898	19.11
375.109	-5.46
375.319	53.93
375.53	76.46
375.74	21.16
375.951	35.5
376.161	105.13
376.372	-1.37
376.582	90.79
376.793	15.02
377.003	-7.51
377.214	2.73
377.424	25.26
377.635	74.41
377.845	45.74
378.055	60.07
378.266	51.88
378.476	47.79
378.686	33.45
378.897	88.75
379.107	127.66
379.317	55.98
379.528	109.22
379.738	70.31
379.948	-9.56
380.158	68.27
380.369	53.93
380.579	43.69
380.789	62.12
380.999	82.6
381.21	-3.41
381.42	109.22
381.63	64.17
381.84	66.22
382.05	51.88
382.261	103.08
382.471	6.83
382.681	-38.23
382.891	64.17
383.101	21.16
383.311	12.97
383.521	119.46
383.731	76.46
383.941	-3.41
384.151	88.75
384.361	27.31
384.571	51.88
384.781	76.46
384.991	-9.56
385.201	27.31
385.411	74.41
385.621	33.45
385.831	51.88
386.041	37.55
386.251	80.55
386.461	64.17
386.671	66.22
386.881	68.27
387.091	29.35
387.301	19.11
387.511	29.35
387.72	55.98
387.93	45.74
388.14	23.21
388.35	37.55
388.56	74.41
388.769	119.46
388.979	-1.37
389.189	35.5
389.399	94.89
389.609	107.18
389.818	101.03
390.028	98.99
390.238	41.64
390.447	170.66
390.657	96.94
390.867	2.73
391.076	41.64
391.286	58.03
391.496	15.02
391.705	33.45
391.915	35.5
392.125	47.79
392.334	2.73
392.544	47.79
392.753	53.93
392.963	10.92
393.172	78.51
393.382	15.02
393.591	78.51
393.801	31.4
394.01	96.94
394.22	78.51
394.429	27.31
394.639	21.16
394.848	53.93
395.058	43.69
395.267	62.12
395.477	117.42
395.686	113.32
395.895	49.83
396.105	113.32
396.314	64.17
396.524	33.45
396.733	76.46
396.942	121.51
397.152	45.74
397.361	148.14
397.57	33.45
397.78	90.79
397.989	19.11
398.198	98.99
398.407	76.46
398.617	37.55
398.826	113.32
399.035	60.07
399.244	72.36
399.453	15.02
399.663	111.27
399.872	96.94
400.081	68.27
400.29	105.13
400.499	131.75
400.708	86.7
400.917	60.07
401.127	94.89
401.336	72.36
401.545	127.66
401.754	72.36
401.963	45.74
402.172	43.69
402.381	25.26
402.59	27.31
402.799	66.22
403.008	92.84
403.217	51.88
403.426	23.21
403.635	39.59
403.844	31.4
404.053	113.32
404.262	51.88
404.471	141.99
404.68	70.31
404.888	135.85
405.097	160.42
405.306	127.66
405.515	137.9
405.724	109.22
405.933	64.17
406.142	174.76
406.35	84.65
406.559	82.6
406.768	178.86
406.977	133.8
407.185	121.51
407.394	113.32
407.603	139.94
407.812	162.47
408.02	193.19
408.229	129.7
408.438	139.94
408.646	96.94
408.855	180.9
409.064	129.7
409.272	223.91
409.481	158.38
409.69	98.99
409.898	156.33
410.107	228.01
410.315	213.67
410.524	234.15
410.733	244.39
410.941	297.64
411.15	309.93
411.358	311.97
411.567	307.88
411.775	252.58
411.984	277.16
412.192	281.25
412.401	273.06
412.609	379.56
412.818	350.89
413.026	363.17
413.234	338.6
413.443	369.32
413.651	307.88
413.86	424.61
414.068	375.46
414.276	434.85
414.485	451.24
414.693	387.75
414.901	486.05
415.11	463.52
415.318	445.09
415.526	436.9
415.734	557.73
415.943	580.26
416.151	633.5
416.359	586.4
416.567	570.02
416.776	639.65
416.984	639.65
417.192	731.81
417.4	608.93
417.608	721.57
417.817	694.94
418.025	719.52
418.233	813.73
418.441	727.71
418.649	778.91
418.857	914.08
419.065	795.29
419.273	821.92
419.481	924.32
419.689	996
419.897	1034.91
420.105	1082.01
420.313	993.95
420.521	1014.43
420.729	1051.29
420.937	1149.59
421.145	1245.85
421.353	1192.6
421.561	1342.1
421.769	1356.44
421.977	1446.55
422.185	1407.64
422.393	1428.12
422.601	1612.43
422.809	1606.29
423.017	1475.22
423.224	1630.87
423.432	1727.12
423.64	1653.39
423.848	1901.2
424.056	1739.41
424.263	1878.67
424.471	1944.2
424.679	2079.37
424.887	2058.89
425.094	2224.78
425.302	2122.38
425.51	2271.88
425.718	2284.17
425.925	2421.38
426.133	2388.61
426.341	2589.32
426.548	2710.15
426.756	2499.2
426.964	2732.67
427.171	2781.82
427.379	2888.32
427.586	2933.37
427.794	3134.07
428.001	3230.33
428.209	3383.93
428.417	3312.25
428.624	3631.73
428.832	3586.68
429.039	3584.63
429.247	3486.33
429.454	3906.16
429.662	4053.61
429.869	3758.71
430.076	4280.94
430.284	3902.06
430.491	4129.39
430.699	4467.3
430.906	4364.9
431.114	4434.53
431.321	4645.48
431.528	4661.86
431.736	5026.4
431.943	5257.82
432.15	5012.06
432.358	5171.8
432.565	5622.36
432.772	5427.8
432.979	5655.12
433.187	5728.85
433.394	5782.1
433.601	6218.32
433.808	6152.78
434.016	6253.13
434.223	6298.19
434.43	6797.89
434.637	6562.37
434.844	7072.32
435.052	7199.29
435.259	7176.77
435.466	7178.81
435.673	7146.05
435.88	7635.51
436.087	8030.77
436.294	8032.82
436.501	7871.03
436.708	8084.02
436.915	8153.65
437.122	8589.86
437.329	8546.86
437.537	8745.51
437.743	9024.03
437.95	9081.38
438.157	9433.63
438.364	9857.56
438.571	9460.25
438.778	9644.57
438.985	10770.95
439.192	10295.82
439.399	10555.91
439.606	10367.5
439.813	10895.88
440.02	11659.77
440.227	11182.59
440.433	11213.31
440.64	11825.65
440.847	11375.1
441.054	11725.3
441.261	12747.24
441.467	12556.78
441.674	12724.71
441.881	12993
442.088	13050.34
442.294	12823.01
442.501	13283.81
442.708	13562.33
442.914	14287.31
443.121	14850.5
443.328	14389.71
443.534	15546.81
443.741	14766.54
443.948	14647.76
444.154	15784.38
444.361	15700.41
444.568	15845.82
444.774	15645.12
444.981	16081.33
445.187	16409.01
445.394	17369.51
445.6	16908.71
445.807	18497.94
446.013	17678.75
446.22	18123.16
446.426	18665.87
446.633	18438.55
446.839	19442.05
447.046	18612.62
447.252	19755.39
447.459	19951.99
447.665	19591.55
447.871	20666.74
448.078	21178.73
448.284	20156.79
448.491	21037.42
448.697	21776.73
448.903	21948.76
449.11	22223.19
449.316	21809.5
449.522	22348.12
449.728	22901.07
449.935	23169.35
450.141	22618.45
450.347	23456.07
450.553	22524.24
450.76	22694.22
450.966	23548.23
451.172	23304.52
451.378	23679.3
451.584	23566.66
451.791	23900.48
451.997	23855.42
452.203	24383.8
452.409	24254.78
452.615	24021.31
452.821	23167.31
453.027	23042.38
453.233	24334.65
453.44	23087.43
453.646	23406.92
453.852	23421.25
454.058	23822.66
454.264	22999.37
454.47	23456.07
454.676	23036.24
454.882	23687.49
455.088	21743.97
455.294	21920.09
455.5	22319.45
455.705	22219.1
455.911	21420.39
456.117	21356.9
456.323	20697.45
456.529	19616.13
456.735	20408.69
456.941	20035.96
457.147	19829.12
457.352	19212.68
457.558	18753.93
457.764	18692.49
457.97	18655.63
458.176	17940.89
458.381	17938.84
458.587	17117.61
458.793	17453.47
458.999	16241.07
459.204	17525.15
459.41	17111.46
459.616	15899.06
459.821	15897.02
460.027	15602.11
460.233	15360.45
460.438	14356.94
460.644	14918.09
460.85	14160.34
461.055	13892.05
461.261	13994.45
461.466	12728.81
461.672	12444.14
461.878	13558.24
462.083	12460.52
462.289	12372.46
462.494	12231.15
462.7	11438.59
462.905	11293.18
463.111	11729.4
463.316	11708.92
463.522	11567.61
463.727	11602.43
463.932	11497.98
464.138	11182.59
464.343	11479.55
464.549	11131.39
464.754	11524.6
464.959	11278.85
465.165	11246.08
465.37	10754.57
465.575	10557.96
465.781	11026.95
465.986	11168.26
466.191	10865.16
466.397	10517
466.602	9857.56
466.807	10371.6
467.012	10226.19
467.218	10242.57
467.423	10156.56
467.628	10213.9
467.833	10744.33
468.038	10328.59
468.244	9978.39
468.449	10594.83
468.654	9935.38
468.859	9865.75
469.064	9753.11
469.269	9583.13
469.474	9636.38
469.679	9652.76
469.885	9384.48
470.09	9415.19
470.295	9267.74
470.5	9341.47
470.705	9351.71
470.91	9151.01
471.115	9054.75
471.32	9136.67
471.525	9009.7
471.73	8886.82
471.935	8784.42
472.139	8622.63
472.344	8628.77
472.549	8528.42
472.754	8454.7
472.959	8614.44
473.164	8127.02
473.369	7942.71
473.574	8243.76
473.778	8239.66
473.983	7969.33
474.188	8202.8
474.393	7909.94
474.598	7922.23
474.802	7598.65
475.007	7569.98
475.212	7580.21
475.417	7397.95
475.621	7359.03
475.826	7469.62
476.031	7160.38
476.235	7072.32
476.44	7225.92
476.645	6885.95
476.849	7088.7
477.054	7002.69
477.259	7014.98
477.463	6842.95
477.668	6720.07
477.872	6699.59
478.077	6654.53
478.282	6457.93
478.486	6548.04
478.691	6507.08
478.895	6349.39
479.1	6402.63
479.304	6414.92
479.509	6304.33
479.713	6390.35
479.918	6228.56
480.122	6101.58
480.326	6169.16
480.531	6191.69
480.735	6173.26
480.94	6072.91
481.144	6122.06
481.348	5931.6
481.553	6238.8
481.757	5753.43
481.961	6140.49
482.166	5988.94
482.37	5947.98
482.574	6007.37
482.778	5849.68
482.983	5939.79
483.187	5882.45
483.391	6068.81
483.595	5937.74
483.8	5884.5
484.004	5960.27
484.208	6013.52
484.412	5886.54
484.616	5898.83
484.821	6038.09
485.025	5835.35
485.229	5966.42
485.433	6011.47
485.637	5993.04
485.841	5890.64
486.045	5845.59
486.249	6011.47
486.453	6015.57
486.657	5880.4
486.861	6029.9
487.065	5859.92
487.269	5806.67
487.473	5718.61
487.677	5827.15
487.881	6077.01
488.085	5802.58
488.289	5886.54
488.493	6101.58
488.697	5954.13
488.901	5886.54
489.105	5968.46
489.309	5923.41
489.512	5958.22
489.716	6019.66
489.92	6040.14
490.124	5911.12
490.328	6345.29
490.531	6036.05
490.735	6191.69
490.939	6040.14
491.143	6214.22
491.346	6005.33
491.55	6195.79
491.754	6152.78
491.958	6101.58
492.161	6148.68
492.365	6232.65
492.569	6187.6
492.772	6343.24
492.976	6318.67
493.18	6308.43
493.383	6505.03
493.587	6543.94
493.79	6566.47
493.994	6586.95
494.197	6523.46
494.401	6638.15
494.605	6496.84
494.808	6822.47
495.012	6687.3
495.215	6902.34
495.419	6810.18
495.622	6799.94
495.825	6799.94
496.029	6890.05
496.232	7133.76
496.436	6949.44
496.639	7127.61
496.843	7213.63
497.046	7311.93
497.249	7453.24
497.453	7602.74
497.656	7490.1
497.859	7338.55
498.063	7512.63
498.266	7625.27
498.469	7942.71
498.673	7649.85
498.876	7961.14
499.079	7901.75
499.282	8057.39
499.485	8221.23
499.689	8174.13
499.892	8411.69
500.095	8477.23
500.298	8462.89
500.501	8364.59
500.705	8591.91
500.908	8864.29
501.111	8931.87
501.314	9017.89
501.517	9091.62
501.72	9222.69
501.923	9081.38
502.126	9110.05
502.329	9474.59
502.532	9458.2
502.735	9617.94
502.938	9994.77
503.141	9902.61
503.344	10056.21
503.547	10125.84
503.75	10246.67
503.953	10508.81
504.156	10324.49
504.359	10617.35
504.562	10590.73
504.765	10918.4
504.968	10816.01
505.17	10793.48
505.373	11125.25
505.576	11377.15
505.779	11358.72
505.982	11377.15
506.185	11796.98
506.387	11477.5
506.59	11772.41
506.793	12030.45
506.996	11971.06
507.198	12478.96
507.401	12536.3
507.604	12470.76
507.807	12630.51
508.009	12976.61
508.212	12855.78
508.415	12947.94
508.617	13244.9
508.82	13255.14
509.022	13132.26
509.225	13525.47
509.428	13857.24
509.63	13902.29
509.833	14025.17
510.035	14260.69
510.238	13992.41
510.44	14221.78
510.643	14592.46
510.845	14635.47
511.048	14684.62
511.25	15092.16
511.453	15038.92
511.655	15555.01
511.858	15622.59
512.06	15317.44
512.262	15933.88
512.465	15747.51
512.667	15997.37
512.87	16003.51
513.072	16435.63
513.274	16783.79
513.477	16595.37
513.679	16972.2
513.881	17031.59
514.084	17260.96
514.286	17213.86
514.488	17334.69
514.69	18041.24
514.893	17846.68
515.095	17895.83
515.297	18401.68
515.499	18147.73
515.701	18622.86
515.904	18674.06
516.106	19028.36
516.308	19196.29
516.51	19151.24
516.712	19108.23
516.914	19677.57
517.116	19968.38
517.318	19820.92
517.52	20044.15
517.722	20302.2
517.925	20273.53
518.127	20883.82
518.329	20849
518.531	20877.68
518.733	21119.34
518.935	21404
519.136	21426.53
519.338	21959
519.54	21868.89
519.742	22157.66
519.944	22348.12
520.146	22790.48
520.348	22790.48
520.55	22567.25
520.752	23040.33
520.954	23388.49
521.155	22968.65
521.357	23474.5
521.559	23845.18
521.761	24254.78
521.963	24017.21
522.164	24201.53
522.366	24508.72
522.568	24830.26
522.77	24754.48
522.971	25428.26
523.173	25139.5
523.375	25233.71
523.576	25577.76
523.778	25334.06
523.98	26136.86
524.181	26016.03
524.383	25944.35
524.584	26593.56
524.786	26421.53
524.988	26355.99
525.189	26568.98
525.391	26894.61
525.592	27146.51
525.794	27355.4
525.995	27465.99
526.197	27480.33
526.398	27504.9
526.6	27832.58
526.801	27885.83
527.003	28190.97
527.204	27941.12
527.406	28268.8
527.607	28307.71
527.808	28455.16
528.01	28035.33
528.211	28535.03
528.412	28864.75
528.614	28872.95
528.815	28891.38
529.016	29364.46
529.218	28797.17
529.419	29200.62
529.62	29155.57
529.822	29313.26
530.023	29530.34
530.224	29204.72
530.425	29427.95
530.626	29540.58
530.828	29339.88
531.029	29927.65
531.23	29688.04
531.431	29540.58
531.632	29923.55
531.833	30101.73
532.035	30013.66
532.236	30109.92
532.437	30238.94
532.638	30044.38
532.839	30240.99
533.04	30421.21
533.241	29739.24
533.442	30376.16
533.643	30539.99
533.844	30046.43
534.045	30505.18
534.246	30408.92
534.447	30367.96
534.648	30343.39
534.849	30494.94
535.05	30140.64
535.251	30210.27
535.451	30664.92
535.652	30425.31
535.853	30435.55
536.054	30482.65
536.255	30533.85
536.456	30431.45
536.657	30734.55
536.857	30554.33
537.058	30245.09
537.259	30683.35
537.46	30685.4
537.66	30404.83
537.861	30515.42
538.062	30398.68
538.263	30761.17
538.463	30392.54
538.664	30560.47
538.865	30761.17
539.065	30851.28
539.266	30593.24
539.466	30742.74
539.667	30267.61
539.868	30591.19
540.068	30640.34
540.269	30499.03
540.469	30773.46
540.67	30544.09
540.87	30484.7
541.071	30554.33
541.271	30712.02
541.472	30425.31
541.672	30562.52
541.873	30460.12
542.073	29937.89
542.274	30724.31
542.474	30482.65
542.675	30544.09
542.875	30648.53
543.075	30501.08
543.276	29993.18
543.476	30843.09
543.676	30570.71
543.877	30793.94
544.077	30640.34
544.277	30578.9
544.478	30365.92
544.678	30501.08
544.878	30533.85
545.078	30376.16
545.279	30474.46
545.479	30613.72
545.679	30353.63
545.879	30116.06
546.079	30101.73
546.28	30480.6
546.48	30044.38
546.68	30644.44
546.88	30644.44
547.08	30576.86
547.28	30449.88
547.48	30187.74
547.68	30429.4
547.88	30288.09
548.081	30548.18
548.281	30251.23
548.481	30081.25
548.681	30384.35
548.881	30572.76
549.081	30771.41
549.28	30253.28
549.48	30486.75
549.68	30417.11
549.88	30781.65
550.08	30382.3
550.28	30224.61
550.48	30003.42
550.68	30372.06
550.88	30093.54
551.08	29894.88
551.279	30402.78
551.479	30134.49
551.679	30365.92
551.879	29960.42
552.079	30163.17
552.278	30138.59
552.478	30327
552.678	30425.31
552.878	30286.04
553.077	30005.47
553.277	29819.11
553.477	30400.73
553.676	29886.69
553.876	30183.65
554.076	29911.27
554.275	29724.9
554.475	29638.89
554.674	29929.7
554.874	30038.24
555.074	29696.23
555.273	30284
555.473	30388.44
555.672	29741.28
555.872	29794.53
556.071	30030.05
556.271	30058.72
556.47	29546.73
556.67	29493.48
556.869	29702.37
557.068	29532.39
557.268	29124.85
557.467	29366.51
557.667	29712.61
557.866	29591.78
558.065	29321.45
558.265	29335.79
558.464	29319.4
558.663	29427.95
558.863	29044.98
559.062	29630.69
559.261	28799.22
559.461	29395.18
559.66	28621.05
559.859	28911.86
560.058	28780.79
560.258	29055.22
560.457	28403.96
560.656	29284.59
560.855	29075.69
561.054	28895.47
561.253	28401.91
561.453	28381.43
561.652	29083.89
561.851	28604.66
562.05	28551.42
562.249	28541.18
562.448	28471.54
562.647	28233.98
562.846	28164.35
563.045	28182.78
563.244	28074.24
563.443	28565.75
563.642	27697.41
563.841	28430.58
564.04	28033.28
564.239	27984.13
564.438	27724.04
564.637	27861.25
564.836	27939.07
565.035	27476.23
565.234	27791.62
565.432	27406.6
565.631	27607.3
565.83	27451.66
566.029	27220.24
566.228	27117.84
566.427	27062.54
566.625	27062.54
566.824	26872.08
567.023	27042.06
567.222	26626.32
567.42	26929.42
567.619	26904.85
567.818	27076.88
568.016	26509.59
568.215	26747.15
568.414	26593.56
568.612	26712.34
568.811	26235.16
569.01	26431.77
569.208	26022.17
569.407	26429.72
569.605	25846.05
569.804	26366.23
570.002	25807.14
570.201	25915.68
570.4	25731.36
570.598	25723.17
570.797	25381.16
570.995	25643.3
571.193	25108.78
571.392	25522.47
571.59	25256.23
571.789	25086.25
571.987	25065.77
572.186	25448.74
572.384	25082.16
572.582	24779.06
572.781	25243.95
572.979	24627.51
573.177	24715.57
573.376	24817.97
573.574	24729.91
573.772	24697.14
573.971	24578.36
574.169	24516.92
574.367	24246.58
574.565	24246.58
574.763	24111.42
574.962	24254.78
575.16	23855.42
575.358	24133.95
575.556	23726.4
575.754	24295.74
575.952	23644.48
576.151	23996.73
576.349	23390.53
576.547	23630.15
576.745	23509.32
576.943	23597.38
577.141	23388.49
577.339	23501.12
577.537	22950.22
577.735	23193.93
577.933	22913.36
578.131	23294.28
578.329	23275.85
578.527	22608.21
578.725	22970.7
578.923	22800.72
579.121	22735.18
579.319	22802.77
579.516	22890.83
579.714	22563.15
579.912	22217.05
580.11	22452.56
580.308	22186.33
580.506	22364.5
580.704	21971.29
580.901	22278.49
581.099	22032.73
581.297	22010.2
581.495	21928.28
581.692	21922.14
581.89	21774.69
582.088	21860.7
582.285	21866.85
582.483	22122.84
582.681	21733.73
582.878	21707.1
583.076	21475.68
583.274	21537.12
583.471	21277.03
583.669	21338.47
583.866	21287.27
584.064	21346.66
584.262	21074.28
584.459	20969.83
584.657	20949.35
584.854	20947.31
585.052	20724.08
585.249	20924.78
585.447	20701.55
585.644	20519.28
585.841	20746.61
586.039	20676.98
586.236	20214.13
586.434	20529.52
586.631	20232.57
586.828	20304.24
587.026	20326.77
587.223	20119.93
587.42	20347.25
587.618	20259.19
587.815	19802.49
588.012	20121.98
588.21	19839.36
588.407	20050.3
588.604	19804.54
588.801	19712.38
588.999	19831.16
589.196	19724.67
589.393	19581.31
589.59	19532.16
589.787	19382.66
589.984	19401.09
590.182	19233.16
590.379	19276.16
590.576	18989.45
590.773	19091.85
590.97	18852.24
591.167	19044.74
591.364	18588.05
591.561	18889.1
591.758	18891.15
591.955	18592.14
592.152	18983.31
592.349	18909.58
592.546	18413.97
592.743	18588.05
592.94	18491.79
593.137	18588.05
593.334	18653.58
593.531	18231.7
593.727	18536.85
593.924	18297.24
594.121	18084.25
594.318	18145.69
594.515	18049.43
594.712	18241.94
594.908	17985.94
595.105	18129.3
595.302	17766.81
595.499	17985.94
595.696	17807.77
595.892	17658.27
596.089	17766.81
596.286	17551.77
596.482	17537.44
596.679	17187.24
596.876	17617.31
597.072	17351.07
597.269	17248.68
597.466	17295.78
597.662	17187.24
597.859	17201.57
598.055	17164.71
598.252	16990.63
598.448	17133.99
598.645	16896.42
598.841	16841.13
599.038	16802.22
599.234	16880.04
599.431	16421.3
599.627	16646.57
599.824	16806.31
600.02	16505.26
600.217	16716.2
600.413	16775.59
600.609	16335.28
600.806	16284.08
601.002	16361.9
601.198	16263.6
601.395	16058.81
601.591	16279.99
601.787	16064.95
601.984	16118.2
602.18	16425.39
602.376	15880.63
602.572	15956.41
602.769	16191.92
602.965	15729.08
603.161	15661.5
603.357	15606.2
603.553	15468.99
603.75	15708.6
603.946	15561.15
604.142	15700.41
604.338	15325.63
604.534	15708.6
604.73	15309.25
604.926	15247.81
605.122	15462.85
605.318	15468.99
605.514	15108.55
605.71	15108.55
605.906	14901.7
606.102	15274.43
606.298	15079.88
606.494	14961.09
606.69	15073.73
606.886	15092.16
607.082	14721.48
607.278	14936.52
607.474	14795.21
607.67	14971.33
607.866	14733.77
608.062	14764.49
608.257	14576.08
608.453	14768.59
608.649	14653.9
608.845	14336.46
609.041	14465.49
609.236	14438.86
609.432	14254.55
609.628	14492.11
609.824	14008.79
610.019	13967.83
610.215	14232.02
610.411	14418.38
610.606	14082.52
610.802	14113.24
610.998	14117.33
611.193	14234.07
611.389	13994.45
611.584	14209.49
611.78	13945.3
611.976	13814.23
612.171	14064.08
612.367	13853.14
612.562	13986.26
612.758	13763.03
612.953	13679.07
613.149	13847
613.344	13445.6
613.539	13900.25
613.735	13851.1
613.93	13892.05
614.126	13803.99
614.321	13595.1
614.517	13621.72
614.712	13781.46
614.907	13613.53
615.103	13683.16
615.298	13384.16
615.493	13744.6
615.688	13267.42
615.884	13832.66
616.079	13339.1
616.274	13513.18
616.47	13283.81
616.665	13287.9
616.86	13193.7
617.055	13036
617.25	13015.52
617.445	13185.51
617.641	13154.79
617.836	12976.61
618.031	13013.48
618.226	13076.96
618.421	12849.64
618.616	12780.01
618.811	12943.85
619.006	12954.08
619.201	12540.4
619.396	12857.83
619.591	12478.96
619.786	12515.82
619.981	12513.77
620.176	12814.82
620.371	12227.06
620.566	12493.29
620.761	12257.78
620.956	12605.93
621.151	12122.61
621.346	12233.2
621.541	11997.68
621.735	12306.93
621.93	12032.5
622.125	11997.68
622.32	11864.57
622.515	11958.77
622.709	11751.93
622.904	11774.45
623.099	11663.86
623.294	11860.47
623.488	11678.2
623.683	11532.79
623.878	11373.05
624.072	11311.61
624.267	11354.62
624.462	11237.89
624.656	11082.24
624.851	11198.98
625.046	11178.5
625.24	10848.77
625.435	10875.4
625.629	11121.15
625.824	10973.7
626.018	10932.74
626.213	10482.19
626.407	10424.84
626.602	10582.54
626.796	10660.36
626.991	10627.59
627.185	10357.26
627.38	10486.28
627.574	10529.29
627.768	10265.1
627.963	10158.61
628.157	10078.74
628.352	9986.58
628.546	10140.18
628.74	9986.58
628.935	9847.32
629.129	9996.82
629.323	9726.49
629.517	9783.83
629.712	9720.34
629.906	9892.37
630.1	9601.56
630.294	9599.51
630.489	9462.3
630.683	9495.07
630.877	9488.92
631.071	9341.47
631.265	9366.04
631.459	9280.03
631.653	9282.08
631.848	9202.21
632.042	9040.42
632.236	9237.02
632.43	9108
632.624	9161.25
632.818	9081.38
633.012	8917.54
633.206	8868.39
633.4	8694.31
633.594	8710.69
633.788	8813.09
633.982	8546.86
634.176	8679.97
634.369	8477.23
634.563	8485.42
634.757	8415.79
634.951	8495.66
635.145	8399.4
635.339	8376.87
635.533	8258.09
635.726	8485.42
635.92	8262.19
636.114	8194.61
636.308	8141.36
636.501	8239.66
636.695	7938.61
636.889	7969.33
637.083	7948.85
637.276	7858.74
637.47	7842.35
637.664	7658.04
637.857	7868.98
638.051	7770.68
638.244	7653.94
638.438	7729.72
638.632	7539.26
638.825	7596.6
639.019	7590.45
639.212	7494.2
639.406	7408.19
639.599	7477.82
639.793	7502.39
639.986	7211.58
640.18	7227.96
640.373	7264.83
640.567	7146.05
640.76	7162.43
640.954	7336.51
641.147	7129.66
641.34	7156.29
641.534	7060.03
641.727	6978.11
641.92	7010.88
642.114	6693.44
642.307	6920.77
642.5	6896.19
642.694	6791.75
642.887	6730.31
643.08	6863.43
643.273	6597.19
643.467	6644.29
643.66	6388.3
643.853	6625.86
644.046	6449.74
644.239	6486.6
644.432	6431.3
644.626	6347.34
644.819	6281.8
645.012	6435.4
645.205	6343.24
645.398	6322.76
645.591	6300.23
645.784	6136.4
645.977	6277.71
646.17	6122.06
646.363	6044.24
646.556	5923.41
646.749	6027.85
646.942	5997.14
647.135	5823.06
647.328	6048.33
647.521	6072.91
647.714	5825.11
647.907	5769.81
648.099	5732.95
648.292	5894.74
648.485	5771.86
648.678	5612.12
648.871	5558.87
649.064	5493.33
649.256	5618.26
649.449	5519.96
649.642	5548.63
649.835	5462.62
650.027	5481.05
650.22	5511.77
650.413	5415.51
650.605	5515.86
650.798	5419.61
650.991	5223
651.183	5200.48
651.376	5380.7
651.568	5339.74
651.761	5294.68
651.954	5159.52
652.146	5196.38
652.339	5196.38
652.531	5089.88
652.724	5130.84
652.916	4913.76
653.109	4985.44
653.301	5079.65
653.494	5014.11
653.686	5020.25
653.879	5059.17
654.071	4954.72
654.263	4917.86
654.456	4911.71
654.648	4878.94
654.84	4788.83
655.033	4842.08
655.225	4891.23
655.417	4625
655.61	4786.79
655.802	4704.87
655.994	4616.8
656.186	4590.18
656.379	4674.15
656.571	4541.03
656.763	4463.21
656.955	4524.65
657.148	4606.56
657.34	4364.9
657.532	4483.69
657.724	4383.34
657.916	4553.32
658.108	4518.5
658.3	4309.61
658.492	4481.64
658.684	4354.66
658.876	4489.83
659.068	4303.46
659.26	4291.18
659.452	4305.51
659.644	4289.13
659.836	4262.51
660.028	4338.28
660.22	4174.44
660.412	4160.11
660.604	4053.61
660.796	4080.24
660.988	4047.47
661.18	4287.08
661.372	4059.76
661.563	4248.17
661.755	3953.26
661.947	4033.13
662.139	3977.84
662.331	3867.25
662.522	3994.22
662.714	3738.23
662.906	3818.1
663.097	3850.86
663.289	3719.79
663.481	3791.47
663.673	3785.33
663.864	3727.99
664.056	3648.11
664.247	3652.21
664.439	3715.7
664.631	3725.94
664.822	3689.07
665.014	3658.35
665.205	3637.88
665.397	3734.13
665.588	3764.85
665.78	3539.57
665.971	3676.79
666.163	3465.85
666.354	3623.54
666.546	3674.74
666.737	3517.04
666.929	3404.41
667.12	3519.09
667.311	3584.63
667.503	3218.04
667.694	3476.09
667.885	3338.87
668.077	3377.78
668.268	3422.84
668.459	3537.52
668.651	3340.92
668.842	3263.1
669.033	3463.8
669.224	3213.95
669.416	3293.82
669.607	3144.31
669.798	3240.57
669.989	3365.5
670.18	3226.23
670.371	3232.38
670.563	3140.22
670.754	3254.9
670.945	3123.83
671.136	3140.22
671.327	3136.12
671.518	3107.45
671.709	3015.29
671.9	3097.21
672.091	3160.7
672.282	3111.55
672.473	3041.92
672.664	3076.73
672.855	2992.76
673.046	2955.9
673.237	3097.21
673.428	3121.79
673.619	3027.58
673.809	2978.43
674	3056.25
674.191	2996.86
674.382	3013.24
674.573	2921.09
674.764	3095.16
674.954	3029.63
675.145	3056.25
675.336	2900.61
675.527	2800.26
675.717	2894.46
675.908	2878.08
676.099	2888.32
676.289	2888.32
676.48	2951.81
676.671	2955.9
676.861	2947.71
677.052	2824.83
677.243	2878.08
677.433	2849.41
677.624	2859.65
677.814	2802.3
678.005	2871.93
678.195	2853.5
678.386	2951.81
678.576	2845.31
678.767	2765.44
678.957	2847.36
679.148	2939.52
679.338	2886.27
679.529	2693.76
679.719	2704
679.909	2732.67
680.1	2812.54
680.29	2689.67
680.481	2722.43
680.671	2767.49
680.861	2749.06
681.052	2873.98
681.242	2683.52
681.432	2704
681.622	2636.42
681.813	2708.1
682.003	2714.24
682.193	2697.86
682.383	2689.67
682.573	2691.71
682.764	2691.71
682.954	2704
683.144	2681.47
683.334	2579.08
683.524	2693.76
683.714	2710.15
683.904	2744.96
684.094	2724.48
684.284	2599.55
684.474	2617.99
684.664	2574.98
684.854	2615.94
685.044	2687.62
685.234	2685.57
685.424	2673.28
685.614	2636.42
685.804	2634.37
685.994	2630.27
686.184	2568.84
686.374	2568.84
686.564	2347.65
686.753	2546.31
686.943	2448.01
687.133	2638.47
687.323	2640.51
687.513	2617.99
687.702	2513.54
687.892	2390.66
688.082	2476.68
688.272	2493.06
688.461	2388.61
688.651	2474.63
688.841	2480.77
689.03	2427.53
689.22	2431.62
689.41	2570.88
689.599	2476.68
689.789	2355.85
689.979	2419.33
690.168	2341.51
690.358	2507.4
690.547	2280.07
690.737	2275.98
690.926	2353.8
691.116	2361.99
691.305	2357.89
691.495	2273.93
691.684	2327.18
691.874	2380.42
692.063	2259.59
692.252	2267.78
692.442	2218.63
692.631	2278.02
692.82	2263.69
693.01	2343.56
693.199	2239.11
693.388	2282.12
693.578	2171.53
693.767	2189.96
693.956	2280.07
694.146	2181.77
694.335	2187.91
694.524	2292.36
694.713	2345.61
694.902	2212.49
695.092	2220.68
695.281	2235.02
695.47	2220.68
695.659	2089.61
695.848	2204.3
696.037	2206.35
696.226	2273.93
696.415	2046.6
696.604	2187.91
696.793	2185.87
696.982	2230.92
697.171	2247.3
697.36	2149
697.549	2153.1
697.738	2198.15
697.927	2054.8
698.116	2144.91
698.305	2095.75
698.494	2093.71
698.683	2046.6
698.872	2259.59
699.061	2095.75
699.25	2099.85
699.438	2230.92
699.627	2132.62
699.816	2261.64
700.005	2149
700.193	2144.91
700.382	2144.91
700.571	2153.1
700.76	2165.39
700.948	2337.41
701.137	2165.39
701.326	2237.06
701.514	2105.99
701.703	2173.58
701.892	2099.85
702.08	2132.62
702.269	2042.51
702.457	2132.62
702.646	2245.26
702.834	2175.63
703.023	2144.91
703.212	2194.06
703.4	2318.98
703.589	2177.67
703.777	2069.13
703.965	2105.99
704.154	2126.47
704.342	2181.77
704.531	2116.23
704.719	2093.71
704.907	2263.69
705.096	2292.36
705.284	2110.09
705.472	2110.09
705.661	2036.36
705.849	2089.61
706.037	2099.85
706.226	2163.34
706.414	2204.3
706.602	2022.03
706.79	2259.59
706.979	2179.72
707.167	2140.81
707.355	2128.52
707.543	2216.58
707.731	2222.73
707.919	2112.14
708.107	2136.71
708.296	2185.87
708.484	2126.47
708.672	2140.81
708.86	2167.43
709.048	2165.39
709.236	2120.33
709.424	2097.8
709.612	2083.47
709.8	2112.14
709.988	2112.14
710.176	2237.06
710.364	2218.63
710.551	2220.68
710.739	2130.57
710.927	2071.18
711.115	2112.14
711.303	2073.23
711.491	2040.46
711.679	2144.91
711.866	2116.23
712.054	2259.59
712.242	2097.8
712.43	2157.19
712.617	2159.24
712.805	2138.76
712.993	2153.1
713.181	2077.32
713.368	2218.63
713.556	2013.84
713.744	2095.75
713.931	2200.2
714.119	2140.81
714.306	2120.33
714.494	2226.82
714.682	2103.95
714.869	2089.61
715.057	2134.67
715.244	1997.45
715.432	2132.62
715.619	2120.33
715.807	2024.08
715.994	2128.52
716.182	2183.82
716.369	2126.47
716.556	2171.53
716.744	2146.95
716.931	2103.95
717.119	2060.94
717.306	2075.27
717.493	2073.23
717.681	2192.01
717.868	2177.67
718.055	2247.3
718.242	2187.91
718.43	2159.24
718.617	2093.71
718.804	2165.39
718.991	2122.38
719.179	2153.1
719.366	2202.25
719.553	2157.19
719.74	2126.47
719.927	2134.67
720.114	2110.09
720.301	2044.56
720.488	2157.19
720.676	2079.37
720.863	2134.67
721.05	2124.43
721.237	2019.98
721.424	2155.15
721.611	2183.82
721.798	2157.19
721.985	2124.43
722.172	2065.04
722.358	2124.43
722.545	2140.81
722.732	2146.95
722.919	2149
723.106	1991.31
723.293	2093.71
723.48	2071.18
723.667	2093.71
723.853	2149
724.04	2138.76
724.227	2177.67
724.414	2196.11
724.6	2058.89
724.787	2036.36
724.974	1985.16
725.161	2046.6
725.347	1981.07
725.534	2065.04
725.72	2091.66
725.907	2142.86
726.094	2024.08
726.28	2136.71
726.467	2097.8
726.653	2028.17
726.84	2116.23
727.027	2161.29
727.213	2034.32
727.4	2124.43
727.586	2134.67
727.773	2044.56
727.959	2026.12
728.145	2175.63
728.332	2054.8
728.518	1987.21
728.705	2118.28
728.891	2087.56
729.077	2136.71
729.264	2218.63
729.45	2019.98
729.636	2142.86
729.823	2114.19
730.009	2071.18
730.195	2058.89
730.382	2114.19
730.568	1976.97
730.754	2126.47
730.94	2062.99
731.126	2026.12
731.313	2126.47
731.499	2069.13
731.685	2140.81
731.871	2083.47
732.057	2105.99
732.243	1893.01
732.429	2065.04
732.615	1917.58
732.801	2105.99
732.987	2028.17
733.173	2028.17
733.359	2095.75
733.545	2044.56
733.731	2077.32
733.917	2022.03
734.103	2052.75
734.289	1983.12
734.475	1936.01
734.661	2046.6
734.847	1940.11
735.033	1972.88
735.219	2071.18
735.404	2067.08
735.59	2169.48
735.776	2089.61
735.962	2015.88
736.148	2116.23
736.333	1995.4
736.519	2017.93
736.705	2095.75
736.89	2036.36
737.076	1956.49
737.262	2165.39
737.447	1997.45
737.633	1976.97
737.819	2138.76
738.004	2044.56
738.19	2110.09
738.375	1979.02
738.561	1952.4
738.747	1933.97
738.932	1970.83
739.118	2001.55
739.303	1903.25
739.489	2030.22
739.674	1925.77
739.859	1923.73
740.045	1940.11
740.23	1903.25
740.416	1804.94
740.601	1972.88
740.786	1811.09
740.972	1870.48
741.157	1778.32
741.342	1798.8
741.528	1768.08
741.713	1919.63
741.898	1907.34
742.084	1901.2
742.269	1860.24
742.454	1768.08
742.639	1882.77
742.824	1723.02
743.01	1841.81
743.195	1813.13
743.38	1880.72
743.565	1768.08
743.75	1792.66
743.935	1800.85
744.12	1772.18
744.305	1811.09
744.49	1815.18
744.675	1819.28
744.86	1751.7
745.045	1798.8
745.23	1751.7
745.415	1753.74
745.6	1821.33
745.785	1731.22
745.97	1784.46
746.155	1759.89
746.34	1778.32
746.525	1747.6
746.71	1716.88
746.895	1649.3
747.079	1600.15
747.264	1694.35
747.449	1714.83
747.634	1585.81
747.819	1616.53
748.003	1569.43
748.188	1583.76
748.373	1612.43
748.557	1585.81
748.742	1438.36
748.927	1546.9
749.111	1436.31
749.296	1561.23
749.481	1510.04
749.665	1550.99
749.85	1620.63
750.034	1516.18
750.219	1598.1
750.404	1505.94
750.588	1464.98
750.773	1489.56
750.957	1424.02
751.141	1446.55
751.326	1389.21
751.51	1440.4
751.695	1362.58
751.879	1342.1
752.064	1514.13
752.248	1432.21
752.432	1374.87
752.617	1456.79
752.801	1370.77
752.985	1299.09
753.17	1397.4
753.354	1303.19
753.538	1335.96
753.722	1333.91
753.907	1292.95
754.091	1323.67
754.275	1299.09
754.459	1307.29
754.643	1278.62
754.828	1362.58
755.012	1233.56
755.196	1346.2
755.38	1245.85
755.564	1262.23
755.748	1206.94
755.932	1233.56
756.116	1270.42
756.3	1151.64
756.484	1243.8
756.668	1176.22
756.852	1112.73
757.036	1165.98
757.22	1182.36
757.404	1233.56
757.588	1178.26
757.772	1153.69
757.956	1120.92
758.14	1161.88
758.323	1143.45
758.507	1139.35
758.691	1108.63
758.875	1098.39
759.059	1084.06
759.242	1112.73
759.426	1116.83
759.61	1100.44
759.794	1055.39
759.977	996
760.161	1067.67
760.345	1112.73
760.528	1088.15
760.712	1065.63
760.895	1059.48
761.079	977.56
761.263	1024.67
761.446	979.61
761.63	1061.53
761.813	1012.38
761.997	948.89
762.18	918.17
762.364	852.64
762.547	1018.52
762.731	1041.05
762.914	1059.48
763.098	936.6
763.281	903.84
763.464	996
763.648	883.36
763.831	1061.53
764.015	993.95
764.198	909.98
764.381	879.26
764.564	879.26
764.748	977.56
764.931	985.76
765.114	838.3
765.297	983.71
765.481	897.69
765.664	916.12
765.847	881.31
766.03	928.41
766.213	924.32
766.397	928.41
766.58	815.77
766.763	844.45
766.946	832.16
767.129	879.26
767.312	928.41
767.495	850.59
767.678	854.69
767.861	871.07
768.044	819.87
768.227	834.21
768.41	883.36
768.593	846.49
768.776	748.19
768.959	957.08
769.142	885.41
769.324	811.68
769.507	850.59
769.69	772.77
769.873	914.08
770.056	858.78
770.239	848.54
770.421	866.97
770.604	797.34
770.787	754.34
770.97	766.62
771.152	797.34
771.335	762.53
771.518	735.9
771.7	744.1
771.883	799.39
772.066	762.53
772.248	756.38
772.431	817.82
772.613	735.9
772.796	682.66
772.978	740
773.161	703.14
773.343	744.1
773.526	787.1
773.708	701.09
773.891	699.04
774.073	709.28
774.256	664.22
774.438	672.42
774.621	662.18
774.803	690.85
774.985	721.57
775.168	760.48
775.35	647.84
775.532	631.46
775.715	666.27
775.897	613.03
776.079	604.83
776.261	684.7
776.444	690.85
776.626	592.55
776.808	615.07
776.99	606.88
777.173	668.32
777.355	625.31
777.537	606.88
777.719	662.18
777.901	617.12
778.083	610.98
778.265	600.74
778.447	619.17
778.629	582.31
778.811	588.45
778.993	570.02
779.175	559.78
779.357	658.08
779.539	623.27
779.721	592.55
779.903	631.46
780.085	531.11
780.267	555.68
780.449	518.82
780.631	578.21
780.812	570.02
780.994	522.91
781.176	592.55
781.358	531.11
781.54	524.96
781.721	533.15
781.903	567.97
782.085	537.25
782.267	539.3
782.448	481.96
782.63	457.38
782.812	559.78
782.993	504.48
783.175	441
783.357	488.1
783.538	551.59
783.72	477.86
783.901	469.67
784.083	500.39
784.264	479.91
784.446	418.47
784.627	436.9
784.809	414.37
784.99	400.04
785.172	469.67
785.353	340.65
785.535	473.76
785.716	449.19
785.897	461.48
786.079	395.94
786.26	473.76
786.441	381.6
786.623	383.65
786.804	428.71
786.985	379.56
787.167	490.15
787.348	391.84
787.529	414.37
787.71	371.37
787.891	342.69
788.073	373.41
788.254	363.17
788.435	420.52
788.616	410.28
788.797	260.77
788.978	391.84
789.159	377.51
789.34	400.04
789.522	301.73
789.703	379.56
789.884	357.03
790.065	301.73
790.246	336.55
790.427	346.79
790.607	367.27
790.788	377.51
790.969	397.99
791.15	359.08
791.331	289.45
791.512	418.47
791.693	330.41
791.874	297.64
792.054	277.16
792.235	328.36
792.416	295.59
792.597	248.49
792.778	330.41
792.958	340.65
793.139	324.26
793.32	234.15
793.5	299.69
793.681	303.78
793.862	275.11
794.042	268.97
794.223	275.11
794.404	260.77
794.584	342.69
794.765	346.79
794.945	314.02
795.126	287.4
795.306	234.15
795.487	279.21
795.667	246.44
795.848	279.21
796.028	316.07
796.209	250.53
796.389	340.65
796.57	223.91
796.75	289.45
796.93	264.87
797.111	223.91
797.291	271.01
797.471	254.63
797.652	211.62
797.832	316.07
798.012	244.39
798.192	232.1
798.373	201.38
798.553	230.06
798.733	262.82
798.913	260.77
799.093	225.96
799.274	209.58
799.454	338.6
799.634	254.63
799.814	305.83
799.994	234.15
800.174	266.92
800.354	195.24
800.534	238.25
800.714	197.29
800.894	252.58
801.074	199.34
801.254	236.2
801.434	223.91
801.614	207.53
801.794	221.86
801.974	586.4
802.154	217.77
802.334	275.11
802.514	162.47
802.693	234.15
802.873	207.53
803.053	244.39
803.233	211.62
803.413	164.52
803.592	191.14
803.772	168.62
803.952	182.95
804.131	197.29
804.311	234.15
804.491	221.86
804.67	234.15
804.85	209.58
805.03	158.38
805.209	215.72
805.389	203.43
805.568	256.68
805.748	236.2
805.928	201.38
806.107	195.24
806.287	240.29
806.466	215.72
806.646	225.96
806.825	213.67
807.004	295.59
807.184	195.24
807.363	187.05
807.543	205.48
807.722	197.29
807.901	230.06
808.081	203.43
808.26	96.94
808.439	162.47
808.619	193.19
808.798	107.18
808.977	185
809.156	217.77
809.336	160.42
809.515	156.33
809.694	146.09
809.873	195.24
810.052	176.81
810.231	195.24
810.411	117.42
810.59	144.04
810.769	78.51
810.948	146.09
811.127	170.66
811.306	191.14
811.485	207.53
811.664	201.38
811.843	109.22
812.022	158.38
812.201	176.81
812.38	185
812.559	107.18
812.737	162.47
812.916	137.9
813.095	98.99
813.274	166.57
813.453	135.85
813.632	152.23
813.811	166.57
813.989	152.23
814.168	103.08
814.347	107.18
814.526	182.95
814.704	121.51
814.883	119.46
815.062	139.94
815.24	152.23
815.419	115.37
815.598	193.19
815.776	123.56
815.955	131.75
816.133	82.6
816.312	207.53
816.49	166.57
816.669	105.13
816.847	84.65
817.026	94.89
817.204	146.09
817.383	217.77
817.561	144.04
817.74	66.22
817.918	139.94
818.097	144.04
818.275	105.13
818.453	109.22
818.632	113.32
818.81	131.75
818.988	109.22
819.167	199.34
819.345	123.56
819.523	55.98
819.701	199.34
819.879	236.2
820.058	146.09
820.236	141.99
820.414	121.51
820.592	70.31
820.77	123.56
820.948	113.32
821.127	152.23
821.305	137.9
821.483	107.18
821.661	195.24
821.839	182.95
822.017	90.79
822.195	115.37
822.373	129.7
822.551	105.13
822.729	127.66
822.907	92.84
823.085	129.7
823.262	111.27
823.44	72.36
823.618	135.85
823.796	62.12
823.974	51.88
824.152	98.99
824.329	70.31
824.507	127.66
824.685	96.94
824.863	131.75
825.04	88.75
825.218	137.9
825.396	62.12
825.574	17.07
825.751	119.46
825.929	144.04
826.107	162.47
826.284	84.65
826.462	47.79
826.639	148.14
826.817	68.27
826.994	53.93
827.172	25.26
827.349	101.03
827.527	86.7
827.704	58.03
827.882	96.94
828.059	98.99
828.237	90.79
828.414	49.83
828.591	80.55
828.769	111.27
828.946	60.07
829.124	121.51
829.301	139.94
829.478	131.75
829.655	90.79
829.833	164.52
830.01	123.56
830.187	103.08
830.364	107.18
830.542	96.94
830.719	43.69
830.896	139.94
831.073	168.62
831.25	74.41
831.427	103.08
831.604	121.51
831.782	29.35
831.959	92.84
832.136	86.7
832.313	62.12
832.49	37.55
832.667	90.79
832.844	27.31
833.021	111.27
833.198	101.03
833.374	121.51
833.551	66.22
833.728	96.94
833.905	101.03
834.082	96.94
834.259	162.47
834.436	41.64
834.612	84.65
834.789	43.69
834.966	49.83
835.143	60.07
835.319	51.88
835.496	135.85
835.673	92.84
835.85	127.66
836.026	37.55
836.203	66.22
836.38	23.21
836.556	137.9
836.733	72.36
836.909	47.79
837.086	117.42
837.262	53.93
837.439	141.99
837.616	133.8
837.792	74.41
837.968	111.27
838.145	139.94
838.321	92.84
838.498	-13.65
838.674	15.02
838.851	84.65
839.027	64.17
839.203	64.17
839.38	64.17
839.556	62.12
839.732	90.79
839.909	68.27
840.085	107.18
840.261	121.51
840.437	92.84
840.614	76.46
840.79	27.31
840.966	31.4
841.142	2.73
841.318	-15.7
841.494	41.64
841.671	39.59
841.847	35.5
842.023	43.69
842.199	23.21
842.375	-9.56
842.551	2.73
842.727	31.4
842.903	82.6
843.079	45.74
843.255	107.18
843.431	101.03
843.607	39.59
843.783	19.11
843.959	66.22
844.134	10.92
844.31	117.42
844.486	31.4
844.662	23.21
844.838	144.04
845.013	86.7
845.189	117.42
845.365	35.5
845.541	84.65
845.716	51.88
845.892	-5.46
846.068	43.69
846.244	88.75
846.419	101.03
846.595	107.18
846.77	47.79
846.946	27.31
847.122	84.65
847.297	23.21
847.473	-15.7
847.648	0.68
847.824	66.22
847.999	15.02
848.175	117.42
848.35	35.5
848.526	121.51
848.701	68.27
848.876	82.6
849.052	29.35
849.227	35.5
849.403	84.65
849.578	29.35
849.753	2.73
849.929	82.6
850.104	35.5
850.279	6.83
850.454	78.51
850.63	68.27
850.805	78.51
850.98	135.85
851.155	-7.51
851.33	-3.41
851.505	-3.41
851.681	35.5
851.856	49.83
852.031	21.16
852.206	-62.8
852.381	-13.65
852.556	19.11
852.731	47.79
852.906	47.79
853.081	53.93
853.256	8.87
853.431	76.46
853.606	23.21
853.781	66.22
853.956	-9.56
854.131	115.37
854.305	35.5
854.48	12.97
854.655	-1.37
854.83	-21.85
855.005	115.37
855.18	86.7
855.354	-58.71
855.529	58.03
855.704	64.17
855.879	74.41
856.053	51.88
856.228	53.93
856.403	-11.61
856.577	84.65
856.752	-54.61
856.926	19.11
857.101	12.97
857.276	45.74
857.45	-15.7
857.625	92.84
857.799	72.36
857.974	-3.41
858.148	6.83
858.323	55.98
858.497	47.79
858.672	51.88
858.846	43.69
859.02	43.69
859.195	21.16
859.369	19.11
859.543	72.36
859.718	37.55
859.892	47.79
860.066	21.16
860.241	-21.85
860.415	15.02
860.589	51.88
860.763	6.83
860.938	10.92
861.112	23.21
861.286	17.07
861.46	55.98
861.634	35.5
861.808	105.13
861.982	58.03
862.157	-19.8
862.331	39.59
862.505	0.68
862.679	0.68
862.853	29.35
863.027	62.12
863.201	23.21
863.375	60.07
863.549	-21.85
863.722	96.94
863.896	27.31
864.07	35.5
864.244	29.35
864.418	115.37
864.592	19.11
864.766	10.92
864.939	2.73
865.113	15.02
865.287	64.17
865.461	15.02
865.634	4.78
865.808	12.97
865.982	68.27
866.156	-15.7
866.329	60.07
866.503	2.73
866.676	53.93
866.85	17.07
867.024	39.59
867.197	58.03
867.371	-40.28
867.544	53.93
867.718	-13.65
867.891	76.46
868.065	105.13
868.238	51.88
868.412	146.09
868.585	17.07
868.759	4.78
868.932	0.68
869.105	64.17
869.279	39.59
869.452	-11.61
869.625	31.4
869.799	25.26
869.972	-46.42
870.145	-15.7
870.319	31.4
870.492	-27.99
870.665	19.11
870.838	-7.51
871.011	-27.99
871.185	19.11
871.358	66.22
871.531	10.92
871.704	-9.56
871.877	37.55
872.05	-13.65
872.223	23.21
872.396	68.27
872.569	10.92
872.742	-54.61
872.915	60.07
873.088	-13.65
873.261	12.97
873.434	15.02
873.607	66.22
873.78	12.97
873.953	62.12
874.126	6.83
874.299	49.83
874.471	25.26
874.644	47.79
874.817	21.16
874.99	29.35
875.163	-54.61
875.335	51.88
875.508	-3.41
875.681	29.35
875.853	-9.56
876.026	53.93
876.199	66.22
876.371	180.9
876.544	68.27
876.717	47.79
876.889	12.97
877.062	109.22
877.234	-19.8
877.407	19.11
877.579	19.11
877.752	10.92
877.924	-3.41
878.097	19.11
878.269	29.35
878.442	70.31
878.614	8.87
878.786	-40.28
878.959	68.27
879.131	-48.47
879.303	4.78
879.476	8.87
879.648	19.11
879.82	64.17
879.993	123.56
880.165	2.73
880.337	45.74
880.509	58.03
880.681	47.79
880.854	8.87
881.026	6.83
881.198	47.79
881.37	19.11
881.542	0.68
881.714	-3.41
881.886	-3.41
882.058	-48.47
882.23	90.79
882.402	-30.04
882.574	43.69
882.746	25.26
882.918	58.03
883.09	37.55
883.262	98.99
883.434	119.46
883.606	17.07
883.778	74.41
883.95	-13.65
884.122	17.07
884.293	8.87
884.465	6.83
884.637	27.31
884.809	6.83
884.98	105.13
885.152	53.93
885.324	68.27
885.496	19.11
885.667	33.45
885.839	6.83
886.011	2.73
886.182	98.99
886.354	21.16
886.525	-30.04
886.697	17.07
886.869	17.07
887.04	19.11
887.212	17.07
887.383	43.69
887.555	70.31
887.726	-30.04
887.897	-13.65
888.069	60.07
888.24	-17.75
888.412	74.41
888.583	2.73
888.754	31.4
888.926	-23.89
889.097	-81.24
889.268	-9.56
889.44	6.83
889.611	-109.91
889.782	-19.8
889.953	-1.37
890.125	-5.46
890.296	31.4
890.467	23.21
890.638	-1.37
890.809	4.78
890.98	-27.99
891.151	19.11
891.323	84.65
891.494	37.55
891.665	-52.56
891.836	68.27
892.007	-25.94
892.178	43.69
892.349	-5.46
892.52	39.59
892.691	-9.56
892.862	0.68
893.032	0.68
893.203	49.83
893.374	23.21
893.545	35.5
893.716	-58.71
893.887	10.92
894.057	43.69
894.228	39.59
894.399	23.21
894.57	-7.51
894.74	51.88
894.911	45.74
895.082	-60.76
895.253	2.73
895.423	19.11
895.594	98.99
895.764	41.64
895.935	-13.65
896.106	-27.99
896.276	4.78
896.447	-48.47
896.617	-17.75
896.788	45.74
896.958	-21.85
897.129	23.21
897.299	19.11
897.47	37.55
897.64	98.99
897.81	-7.51
897.981	-75.09
898.151	29.35
898.322	23.21
898.492	-34.13
898.662	-54.61
898.832	-38.23
899.003	8.87
899.173	49.83
899.343	8.87
899.513	-54.61
