Data from USB4F104151__242__11-11-24-830.txt Node

Date: Wed Mar 12 11:11:24 EDT 2025
User: louis
Spectrometer: USB4F10415
Trigger mode: 4
Integration Time (sec): 2.000000E-2
Scans to average: 1
Electric dark correction enabled: true
Nonlinearity correction enabled: false
Boxcar width: 0
XAxis mode: Wavelengths
Number of Pixels in Spectrum: 3648
>>>>>Begin Spectral Data<<<<<
178.204	-89.43
178.424	-89.43
178.644	-89.43
178.864	-89.43
179.084	-60.76
179.304	0.68
179.524	-73.04
179.744	-27.99
179.964	21.16
180.184	84.65
180.404	-11.61
180.624	8.87
180.844	-30.04
181.064	-75.09
181.283	-1.37
181.503	60.07
181.723	43.69
181.943	12.97
182.163	-32.08
182.383	-30.04
182.602	37.55
182.822	-25.94
183.042	-13.65
183.262	-46.42
183.482	12.97
183.701	33.45
183.921	-38.23
184.141	-17.75
184.361	55.98
184.58	6.83
184.8	-9.56
185.02	53.93
185.239	19.11
185.459	2.73
185.679	6.83
185.898	47.79
186.118	51.88
186.338	39.59
186.557	43.69
186.777	-1.37
186.997	21.16
187.216	-42.32
187.436	25.26
187.655	80.55
187.875	35.5
188.095	39.59
188.314	17.07
188.534	12.97
188.753	47.79
188.973	0.68
189.192	41.64
189.412	53.93
189.631	2.73
189.851	-5.46
190.07	90.79
190.29	-15.7
190.509	-32.08
190.729	2.73
190.948	-15.7
191.168	148.14
191.387	76.46
191.607	6.83
191.826	101.03
192.045	6.83
192.265	53.93
192.484	41.64
192.704	37.55
192.923	-34.13
193.142	43.69
193.362	60.07
193.581	6.83
193.8	35.5
194.02	53.93
194.239	72.36
194.458	8.87
194.678	29.35
194.897	43.69
195.116	31.4
195.335	2.73
195.555	39.59
195.774	-1.37
195.993	27.31
196.212	-3.41
196.432	-11.61
196.651	105.13
196.87	60.07
197.089	72.36
197.308	90.79
197.528	31.4
197.747	-73.04
197.966	33.45
198.185	29.35
198.404	-3.41
198.623	68.27
198.842	29.35
199.062	45.74
199.281	49.83
199.5	10.92
199.719	39.59
199.938	47.79
200.157	98.99
200.376	21.16
200.595	84.65
200.814	-11.61
201.033	64.17
201.252	39.59
201.471	12.97
201.69	64.17
201.909	10.92
202.128	23.21
202.347	92.84
202.566	53.93
202.785	74.41
203.004	-25.94
203.223	113.32
203.442	-34.13
203.661	4.78
203.879	43.69
204.098	39.59
204.317	-13.65
204.536	88.75
204.755	82.6
204.974	17.07
205.193	-5.46
205.411	111.27
205.63	72.36
205.849	45.74
206.068	45.74
206.287	15.02
206.505	98.99
206.724	64.17
206.943	98.99
207.162	4.78
207.381	-9.56
207.599	8.87
207.818	55.98
208.037	27.31
208.255	15.02
208.474	113.32
208.693	-7.51
208.911	70.31
209.13	-11.61
209.349	55.98
209.567	39.59
209.786	8.87
210.005	-38.23
210.223	64.17
210.442	53.93
210.661	51.88
210.879	-11.61
211.098	6.83
211.316	43.69
211.535	39.59
211.753	49.83
211.972	27.31
212.191	23.21
212.409	35.5
212.628	15.02
212.846	78.51
213.065	10.92
213.283	53.93
213.502	39.59
213.72	66.22
213.938	39.59
214.157	39.59
214.375	21.16
214.594	39.59
214.812	21.16
215.031	74.41
215.249	-1.37
215.467	2.73
215.686	-7.51
215.904	2.73
216.122	-25.94
216.341	88.75
216.559	-13.65
216.778	72.36
216.996	72.36
217.214	47.79
217.432	19.11
217.651	10.92
217.869	-27.99
218.087	39.59
218.306	-9.56
218.524	10.92
218.742	29.35
218.96	68.27
219.179	-5.46
219.397	103.08
219.615	60.07
219.833	119.46
220.051	-1.37
220.27	49.83
220.488	-21.85
220.706	45.74
220.924	-66.9
221.142	62.12
221.36	-13.65
221.578	21.16
221.796	-25.94
222.015	92.84
222.233	29.35
222.451	27.31
222.669	8.87
222.887	15.02
223.105	55.98
223.323	125.61
223.541	15.02
223.759	27.31
223.977	43.69
224.195	70.31
224.413	23.21
224.631	74.41
224.849	-1.37
225.067	4.78
225.285	94.89
225.503	47.79
225.721	-1.37
225.939	12.97
226.157	6.83
226.375	88.75
226.592	51.88
226.81	64.17
227.028	43.69
227.246	58.03
227.464	31.4
227.682	62.12
227.9	17.07
228.117	0.68
228.335	41.64
228.553	43.69
228.771	-9.56
228.989	25.26
229.206	70.31
229.424	27.31
229.642	12.97
229.86	6.83
230.077	72.36
230.295	6.83
230.513	29.35
230.731	27.31
230.948	29.35
231.166	72.36
231.384	-19.8
231.601	2.73
231.819	43.69
232.037	64.17
232.254	-19.8
232.472	6.83
232.689	23.21
232.907	70.31
233.125	78.51
233.342	19.11
233.56	37.55
233.777	62.12
233.995	23.21
234.213	17.07
234.43	17.07
234.648	35.5
234.865	2.73
235.083	4.78
235.3	96.94
235.518	10.92
235.735	62.12
235.953	58.03
236.17	2.73
236.388	35.5
236.605	111.27
236.822	123.56
237.04	62.12
237.257	139.94
237.475	-9.56
237.692	15.02
237.909	27.31
238.127	15.02
238.344	25.26
238.562	72.36
238.779	90.79
238.996	0.68
239.214	58.03
239.431	-27.99
239.648	72.36
239.865	6.83
240.083	35.5
240.3	-9.56
240.517	0.68
240.735	53.93
240.952	51.88
241.169	64.17
241.386	51.88
241.603	51.88
241.821	72.36
242.038	39.59
242.255	88.75
242.472	68.27
242.689	12.97
242.907	27.31
243.124	64.17
243.341	92.84
243.558	90.79
243.775	-42.32
243.992	23.21
244.209	31.4
244.426	86.7
244.643	37.55
244.86	2.73
245.078	37.55
245.295	23.21
245.512	2.73
245.729	55.98
245.946	19.11
246.163	68.27
246.38	25.26
246.597	6.83
246.814	21.16
247.031	6.83
247.248	51.88
247.464	55.98
247.681	92.84
247.898	55.98
248.115	15.02
248.332	-15.7
248.549	-9.56
248.766	10.92
248.983	68.27
249.2	47.79
249.417	94.89
249.633	15.02
249.85	-11.61
250.067	47.79
250.284	2.73
250.501	25.26
250.717	17.07
250.934	6.83
251.151	19.11
251.368	8.87
251.585	35.5
251.801	-25.94
252.018	109.22
252.235	33.45
252.451	-13.65
252.668	41.64
252.885	129.7
253.102	-15.7
253.318	-19.8
253.535	-25.94
253.752	51.88
253.968	82.6
254.185	27.31
254.401	19.11
254.618	-15.7
254.835	33.45
255.051	53.93
255.268	84.65
255.484	43.69
255.701	10.92
255.917	19.11
256.134	-38.23
256.351	55.98
256.567	4.78
256.784	86.7
257	-38.23
257.217	58.03
257.433	-34.13
257.65	51.88
257.866	55.98
258.082	-25.94
258.299	45.74
258.515	62.12
258.732	72.36
258.948	105.13
259.165	31.4
259.381	23.21
259.597	51.88
259.814	33.45
260.03	49.83
260.246	-11.61
260.463	135.85
260.679	60.07
260.895	113.32
261.112	19.11
261.328	-36.18
261.544	80.55
261.761	-11.61
261.977	-1.37
262.193	80.55
262.409	23.21
262.626	92.84
262.842	35.5
263.058	35.5
263.274	76.46
263.49	35.5
263.707	53.93
263.923	6.83
264.139	-19.8
264.355	74.41
264.571	33.45
264.787	27.31
265.004	80.55
265.22	58.03
265.436	17.07
265.652	64.17
265.868	51.88
266.084	49.83
266.3	-1.37
266.516	-9.56
266.732	27.31
266.948	2.73
267.164	43.69
267.38	45.74
267.596	45.74
267.812	86.7
268.028	43.69
268.244	-11.61
268.46	31.4
268.676	10.92
268.892	88.75
269.108	72.36
269.324	17.07
269.54	-17.75
269.756	66.22
269.972	29.35
270.188	64.17
270.403	98.99
270.619	41.64
270.835	55.98
271.051	66.22
271.267	68.27
271.483	64.17
271.698	6.83
271.914	41.64
272.13	-9.56
272.346	45.74
272.562	21.16
272.777	62.12
272.993	17.07
273.209	19.11
273.425	80.55
273.64	-23.89
273.856	17.07
274.072	53.93
274.287	55.98
274.503	76.46
274.719	64.17
274.934	-7.51
275.15	8.87
275.366	74.41
275.581	8.87
275.797	62.12
276.012	49.83
276.228	66.22
276.444	17.07
276.659	90.79
276.875	31.4
277.09	49.83
277.306	41.64
277.521	51.88
277.737	37.55
277.952	-17.75
278.168	21.16
278.383	8.87
278.599	-27.99
278.814	60.07
279.03	-5.46
279.245	35.5
279.461	62.12
279.676	55.98
279.892	15.02
280.107	49.83
280.322	47.79
280.538	43.69
280.753	15.02
280.969	82.6
281.184	39.59
281.399	141.99
281.615	-7.51
281.83	43.69
282.045	27.31
282.26	58.03
282.476	41.64
282.691	37.55
282.906	53.93
283.122	55.98
283.337	21.16
283.552	105.13
283.767	33.45
283.983	55.98
284.198	-7.51
284.413	74.41
284.628	25.26
284.843	53.93
285.058	127.66
285.274	19.11
285.489	39.59
285.704	10.92
285.919	41.64
286.134	10.92
286.349	129.7
286.564	25.26
286.779	51.88
286.995	64.17
287.21	35.5
287.425	82.6
287.64	25.26
287.855	84.65
288.07	23.21
288.285	103.08
288.5	-5.46
288.715	33.45
288.93	31.4
289.145	51.88
289.36	49.83
289.575	68.27
289.79	6.83
290.004	43.69
290.219	37.55
290.434	31.4
290.649	39.59
290.864	41.64
291.079	31.4
291.294	47.79
291.509	-5.46
291.724	43.69
291.938	68.27
292.153	-7.51
292.368	2.73
292.583	12.97
292.798	70.31
293.012	45.74
293.227	27.31
293.442	47.79
293.657	-19.8
293.871	113.32
294.086	12.97
294.301	88.75
294.516	98.99
294.73	12.97
294.945	-42.32
295.16	66.22
295.374	8.87
295.589	58.03
295.804	6.83
296.018	43.69
296.233	62.12
296.447	86.7
296.662	23.21
296.877	76.46
297.091	21.16
297.306	27.31
297.52	94.89
297.735	74.41
297.949	60.07
298.164	45.74
298.378	35.5
298.593	94.89
298.807	66.22
299.022	70.31
299.236	-25.94
299.451	-30.04
299.665	37.55
299.88	43.69
300.094	31.4
300.309	58.03
300.523	45.74
300.737	-7.51
300.952	35.5
301.166	49.83
301.381	-7.51
301.595	35.5
301.809	86.7
302.024	-17.75
302.238	45.74
302.452	41.64
302.667	96.94
302.881	105.13
303.095	78.51
303.309	4.78
303.524	21.16
303.738	88.75
303.952	2.73
304.166	33.45
304.381	8.87
304.595	45.74
304.809	27.31
305.023	51.88
305.237	2.73
305.452	51.88
305.666	55.98
305.88	70.31
306.094	60.07
306.308	88.75
306.522	88.75
306.736	4.78
306.95	-7.51
307.164	68.27
307.379	39.59
307.593	64.17
307.807	-27.99
308.021	10.92
308.235	47.79
308.449	39.59
308.663	6.83
308.877	76.46
309.091	27.31
309.305	121.51
309.519	-38.23
309.733	60.07
309.947	-19.8
310.161	117.42
310.374	68.27
310.588	45.74
310.802	55.98
311.016	31.4
311.23	55.98
311.444	60.07
311.658	21.16
311.872	94.89
312.085	8.87
312.299	88.75
312.513	101.03
312.727	88.75
312.941	0.68
313.154	23.21
313.368	15.02
313.582	17.07
313.796	-42.32
314.009	78.51
314.223	10.92
314.437	25.26
314.651	49.83
314.864	51.88
315.078	86.7
315.292	-32.08
315.505	78.51
315.719	117.42
315.933	111.27
316.146	0.68
316.36	-3.41
316.573	60.07
316.787	31.4
317.001	70.31
317.214	4.78
317.428	31.4
317.641	4.78
317.855	55.98
318.068	66.22
318.282	123.56
318.495	41.64
318.709	60.07
318.922	74.41
319.136	27.31
319.349	37.55
319.563	33.45
319.776	66.22
319.99	-17.75
320.203	10.92
320.417	66.22
320.63	185
320.843	82.6
321.057	39.59
321.27	74.41
321.483	21.16
321.697	-5.46
321.91	-34.13
322.124	121.51
322.337	58.03
322.55	119.46
322.763	-3.41
322.977	115.37
323.19	-5.46
323.403	80.55
323.617	60.07
323.83	88.75
324.043	37.55
324.256	-11.61
324.469	51.88
324.683	49.83
324.896	58.03
325.109	49.83
325.322	47.79
325.535	35.5
325.748	53.93
325.962	37.55
326.175	58.03
326.388	10.92
326.601	41.64
326.814	47.79
327.027	127.66
327.24	62.12
327.453	4.78
327.666	96.94
327.879	117.42
328.092	78.51
328.305	60.07
328.518	68.27
328.731	37.55
328.944	10.92
329.157	51.88
329.37	15.02
329.583	51.88
329.796	35.5
330.009	82.6
330.222	92.84
330.435	84.65
330.648	55.98
330.861	17.07
331.073	12.97
331.286	15.02
331.499	25.26
331.712	60.07
331.925	66.22
332.138	76.46
332.35	88.75
332.563	55.98
332.776	2.73
332.989	27.31
333.202	88.75
333.414	107.18
333.627	25.26
333.84	78.51
334.053	21.16
334.265	19.11
334.478	35.5
334.691	62.12
334.903	70.31
335.116	78.51
335.329	60.07
335.541	105.13
335.754	156.33
335.966	-17.75
336.179	-9.56
336.392	43.69
336.604	10.92
336.817	-32.08
337.029	96.94
337.242	78.51
337.454	27.31
337.667	8.87
337.88	39.59
338.092	58.03
338.305	86.7
338.517	45.74
338.729	17.07
338.942	92.84
339.154	80.55
339.367	-5.46
339.579	156.33
339.792	49.83
340.004	68.27
340.217	23.21
340.429	4.78
340.641	55.98
340.854	66.22
341.066	101.03
341.278	123.56
341.491	86.7
341.703	107.18
341.915	64.17
342.128	-19.8
342.34	72.36
342.552	23.21
342.764	8.87
342.977	41.64
343.189	15.02
343.401	35.5
343.613	4.78
343.826	-17.75
344.038	86.7
344.25	103.08
344.462	-9.56
344.674	43.69
344.886	105.13
345.099	23.21
345.311	10.92
345.523	39.59
345.735	0.68
345.947	39.59
346.159	58.03
346.371	109.22
346.583	80.55
346.795	92.84
347.007	86.7
347.219	-25.94
347.431	-19.8
347.643	51.88
347.855	70.31
348.067	78.51
348.279	60.07
348.491	10.92
348.703	15.02
348.915	10.92
349.127	70.31
349.339	68.27
349.551	66.22
349.763	68.27
349.975	96.94
350.187	98.99
350.399	111.27
350.61	19.11
350.822	72.36
351.034	51.88
351.246	55.98
351.458	64.17
351.669	119.46
351.881	74.41
352.093	47.79
352.305	31.4
352.517	78.51
352.728	123.56
352.94	27.31
353.152	49.83
353.363	80.55
353.575	62.12
353.787	101.03
353.999	41.64
354.21	72.36
354.422	19.11
354.633	31.4
354.845	96.94
355.057	15.02
355.268	31.4
355.48	33.45
355.692	43.69
355.903	47.79
356.115	113.32
356.326	72.36
356.538	43.69
356.749	55.98
356.961	135.85
357.172	51.88
357.384	72.36
357.595	25.26
357.807	51.88
358.018	35.5
358.23	47.79
358.441	121.51
358.653	19.11
358.864	78.51
359.075	41.64
359.287	33.45
359.498	76.46
359.709	66.22
359.921	68.27
360.132	17.07
360.344	66.22
360.555	-11.61
360.766	-25.94
360.977	-11.61
361.189	113.32
361.4	12.97
361.611	117.42
361.823	74.41
362.034	51.88
362.245	64.17
362.456	74.41
362.667	88.75
362.879	66.22
363.09	21.16
363.301	45.74
363.512	113.32
363.723	29.35
363.935	123.56
364.146	29.35
364.357	101.03
364.568	60.07
364.779	37.55
364.99	74.41
365.201	43.69
365.412	66.22
365.623	27.31
365.834	117.42
366.045	64.17
366.256	31.4
366.467	47.79
366.678	135.85
366.889	60.07
367.1	-5.46
367.311	25.26
367.522	70.31
367.733	35.5
367.944	72.36
368.155	43.69
368.366	101.03
368.577	45.74
368.788	101.03
368.999	6.83
369.209	76.46
369.42	105.13
369.631	82.6
369.842	-25.94
370.053	80.55
370.264	55.98
370.474	6.83
370.685	68.27
370.896	90.79
371.107	111.27
371.317	-13.65
371.528	43.69
371.739	109.22
371.95	78.51
372.16	45.74
372.371	68.27
372.582	60.07
372.792	115.37
373.003	33.45
373.214	53.93
373.424	25.26
373.635	-9.56
373.846	105.13
374.056	78.51
374.267	64.17
374.477	27.31
374.688	53.93
374.898	78.51
375.109	64.17
375.319	39.59
375.53	129.7
375.74	92.84
375.951	76.46
376.161	35.5
376.372	148.14
376.582	15.02
376.793	39.59
377.003	82.6
377.214	-21.85
377.424	33.45
377.635	51.88
377.845	58.03
378.055	-7.51
378.266	78.51
378.476	72.36
378.686	37.55
378.897	70.31
379.107	31.4
379.317	125.61
379.528	74.41
379.738	37.55
379.948	68.27
380.158	45.74
380.369	29.35
380.579	72.36
380.789	17.07
380.999	60.07
381.21	113.32
381.42	82.6
381.63	37.55
381.84	49.83
382.05	125.61
382.261	139.94
382.471	111.27
382.681	135.85
382.891	94.89
383.101	107.18
383.311	88.75
383.521	107.18
383.731	123.56
383.941	41.64
384.151	51.88
384.361	90.79
384.571	105.13
384.781	146.09
384.991	127.66
385.201	70.31
385.411	72.36
385.621	107.18
385.831	12.97
386.041	-17.75
386.251	27.31
386.461	82.6
386.671	37.55
386.881	19.11
387.091	51.88
387.301	117.42
387.511	51.88
387.72	64.17
387.93	78.51
388.14	53.93
388.35	-54.61
388.56	76.46
388.769	117.42
388.979	72.36
389.189	88.75
389.399	105.13
389.609	31.4
389.818	101.03
390.028	25.26
390.238	103.08
390.447	35.5
390.657	96.94
390.867	64.17
391.076	66.22
391.286	139.94
391.496	88.75
391.705	60.07
391.915	76.46
392.125	8.87
392.334	-1.37
392.544	98.99
392.753	86.7
392.963	64.17
393.172	92.84
393.382	96.94
393.591	98.99
393.801	96.94
394.01	90.79
394.22	64.17
394.429	98.99
394.639	49.83
394.848	27.31
395.058	101.03
395.267	119.46
395.477	195.24
395.686	176.81
395.895	72.36
396.105	211.62
396.314	148.14
396.524	86.7
396.733	101.03
396.942	96.94
397.152	182.95
397.361	197.29
397.57	92.84
397.78	111.27
397.989	123.56
398.198	164.52
398.407	78.51
398.617	174.76
398.826	127.66
399.035	117.42
399.244	88.75
399.453	105.13
399.663	70.31
399.872	146.09
400.081	96.94
400.29	252.58
400.499	84.65
400.708	127.66
400.917	109.22
401.127	141.99
401.336	72.36
401.545	154.28
401.754	141.99
401.963	119.46
402.172	115.37
402.381	232.1
402.59	166.57
402.799	111.27
403.008	199.34
403.217	199.34
403.426	146.09
403.635	193.19
403.844	144.04
404.053	156.33
404.262	113.32
404.471	166.57
404.68	215.72
404.888	148.14
405.097	232.1
405.306	252.58
405.515	141.99
405.724	189.1
405.933	244.39
406.142	221.86
406.35	199.34
406.559	199.34
406.768	275.11
406.977	215.72
407.185	207.53
407.394	354.98
407.603	228.01
407.812	268.97
408.02	283.3
408.229	266.92
408.438	219.82
408.646	252.58
408.855	293.54
409.064	299.69
409.272	314.02
409.481	246.44
409.69	268.97
409.898	256.68
410.107	340.65
410.315	344.74
410.524	434.85
410.733	326.31
410.941	457.38
411.15	475.81
411.358	424.61
411.567	453.28
411.775	412.32
411.984	420.52
412.192	500.39
412.401	516.77
412.609	543.39
412.818	570.02
413.026	588.45
413.234	570.02
413.443	625.31
413.651	567.97
413.86	645.79
414.068	680.61
414.276	684.7
414.485	793.25
414.693	826.01
414.901	799.39
415.11	821.92
415.318	799.39
415.526	844.45
415.734	879.26
415.943	948.89
416.151	985.76
416.359	932.51
416.567	1022.62
416.776	1006.24
416.984	1102.49
417.192	1151.64
417.4	1100.44
417.608	1102.49
417.817	1155.74
418.025	1362.58
418.233	1340.05
418.441	1342.1
418.649	1383.06
418.857	1413.78
419.065	1411.73
419.273	1489.56
419.481	1628.82
419.689	1624.72
419.897	1653.39
420.105	1770.13
420.313	1784.46
420.521	1841.81
420.729	1825.42
420.937	1878.67
421.145	1956.49
421.353	2140.81
421.561	2075.27
421.769	2249.35
421.977	2239.11
422.185	2222.73
422.393	2464.39
422.601	2640.51
422.809	2419.33
423.017	2640.51
423.224	2728.58
423.432	2818.69
423.64	2830.98
423.848	3136.12
424.056	3031.68
424.263	3340.92
424.471	3181.18
424.679	3351.16
424.887	3492.47
425.094	3601.01
425.302	3596.92
425.51	3803.76
425.718	3871.34
425.925	3918.45
426.133	4178.54
426.341	4309.61
426.548	4473.45
426.756	4565.6
426.964	4418.15
427.171	4696.67
427.379	4811.36
427.586	4944.48
427.794	5173.85
428.001	5329.5
428.209	5431.9
428.417	5458.52
428.624	5802.58
428.832	5939.79
429.039	5761.62
429.247	6038.09
429.454	6345.29
429.662	6906.43
429.869	6396.49
430.076	6898.24
430.284	6615.62
430.491	6801.99
430.699	7301.69
430.906	7301.69
431.114	7387.71
431.321	7825.97
431.528	7881.27
431.736	8092.21
431.943	8628.77
432.15	8639.01
432.358	8469.03
432.565	9116.19
432.772	9044.51
432.979	9556.5
433.187	9687.57
433.394	9548.31
433.601	10246.67
433.808	10301.97
434.016	10459.66
434.223	10801.67
434.43	11442.68
434.637	11272.7
434.844	11753.98
435.052	12106.23
435.259	12159.47
435.466	12286.45
435.673	12061.17
435.88	13095.39
436.087	13236.7
436.294	13480.41
436.501	13042.15
436.708	13490.65
436.915	13892.05
437.122	14496.21
437.329	13982.17
437.537	14844.36
437.743	15116.74
437.95	14991.81
438.157	15753.66
438.364	16253.36
438.571	16142.77
438.778	16392.62
438.985	17836.44
439.192	17240.48
439.399	17924.51
439.606	17248.68
439.813	18409.87
440.02	19286.4
440.227	19233.16
440.433	19091.85
440.64	19935.61
440.847	19319.17
441.054	20017.53
441.261	20986.22
441.467	20828.52
441.674	21569.89
441.881	21997.92
442.088	22049.11
442.294	21692.77
442.501	22323.54
442.708	22839.63
442.914	23912.77
443.121	24742.19
443.328	23988.54
443.534	26038.56
443.741	25184.55
443.948	24922.41
444.154	26771.73
444.361	26229.02
444.568	26589.46
444.774	26503.45
444.981	26968.34
445.187	27730.18
445.394	28817.65
445.6	28346.62
445.807	31072.46
446.013	29806.82
446.22	30421.21
446.426	31260.88
446.633	31574.22
446.839	32776.37
447.046	31512.78
447.252	32944.31
447.459	33427.63
447.665	32669.88
447.871	34406.56
448.078	35766.41
448.284	34017.44
448.491	34728.09
448.697	36667.52
448.903	37050.49
449.11	36894.84
449.316	36196.48
449.522	37482.61
449.728	38256.74
449.935	38535.26
450.141	38242.4
450.347	39241.81
450.553	37683.31
450.76	38248.55
450.966	40005.7
451.172	39770.19
451.378	40034.38
451.584	39727.18
451.791	40181.83
451.997	39936.07
452.203	40755.26
452.409	40704.06
452.615	40396.87
452.821	39016.54
453.027	38574.17
453.233	40710.21
453.44	38338.66
453.646	39168.08
453.852	39811.15
454.058	40104.01
454.264	38733.92
454.47	39604.3
454.676	38836.31
454.882	40022.09
455.088	36407.42
455.294	36966.52
455.5	37359.73
455.705	37671.02
455.911	36544.64
456.117	35666.06
456.323	35014.8
456.529	33292.46
456.735	34558.11
456.941	33851.56
457.147	33474.73
457.352	32258.24
457.558	31860.93
457.764	31998.15
457.97	31394
458.176	30544.09
458.381	30658.77
458.587	29090.03
458.793	29075.69
458.999	27576.58
459.204	29911.27
459.41	28860.66
459.616	26765.59
459.821	26888.46
460.027	26837.27
460.233	26622.23
460.438	24889.65
460.644	25033
460.85	24023.36
461.055	23793.98
461.261	23843.13
461.466	21977.44
461.672	21307.75
461.878	22985.04
462.083	21444.96
462.289	20689.26
462.494	20986.22
462.7	19786.11
462.905	19550.59
463.111	19863.93
463.316	20095.35
463.522	19800.44
463.727	19566.98
463.932	19542.4
464.138	19405.19
464.343	19673.47
464.549	18776.46
464.754	19505.54
464.959	19550.59
465.165	19446.15
465.37	18575.76
465.575	18041.24
465.781	18549.14
465.986	18817.42
466.191	18145.69
466.397	17592.73
466.602	17013.16
466.807	17658.27
467.012	17672.6
467.218	17756.57
467.423	17230.24
467.628	17377.7
467.833	18479.5
468.038	17387.94
468.244	16978.34
468.449	17883.55
468.654	17099.17
468.859	16941.48
469.064	17183.14
469.269	16372.14
469.474	16310.71
469.679	16755.11
469.885	16118.2
470.09	16404.91
470.295	16339.38
470.5	15999.41
470.705	16075.19
470.91	15608.25
471.115	15489.47
471.32	15630.78
471.525	15694.27
471.73	15186.37
471.935	15237.57
472.139	14791.11
472.344	14604.75
472.549	15032.77
472.754	14582.22
472.959	14348.75
473.164	14103
473.369	13971.93
473.574	14428.62
473.778	14379.47
473.983	13834.71
474.188	14158.29
474.393	13525.47
474.598	13425.12
474.802	13380.06
475.007	13339.1
475.212	13525.47
475.417	12812.78
475.621	12925.41
475.826	12831.21
476.031	12681.71
476.235	12589.55
476.44	12638.7
476.645	12241.39
476.849	12491.24
477.054	12315.12
477.259	12243.44
477.463	12130.8
477.668	11878.9
477.872	11827.7
478.077	11518.46
478.282	11618.81
478.486	11375.1
478.691	11284.99
478.895	11221.5
479.1	11137.54
479.304	11463.16
479.509	10856.97
479.713	11053.57
479.918	10811.91
480.122	10719.75
480.326	10783.24
480.531	10822.15
480.735	10635.78
480.94	10562.06
481.144	10863.11
481.348	10494.47
481.553	10557.96
481.757	10406.41
481.961	10545.67
482.166	10572.3
482.37	10467.85
482.574	10486.28
482.778	10349.07
482.983	10562.06
483.187	10424.84
483.391	10578.44
483.595	10525.19
483.8	10267.15
484.004	10402.32
484.208	10529.29
484.412	10336.78
484.616	10512.91
484.821	10531.34
485.025	10310.16
485.229	10408.46
485.433	10406.41
485.637	10383.88
485.841	10490.38
486.045	10418.7
486.249	10484.23
486.453	10265.1
486.657	10289.68
486.861	10478.09
487.065	10009.11
487.269	10457.61
487.473	10430.99
487.677	10578.44
487.881	10613.26
488.085	10473.99
488.289	10445.32
488.493	10375.69
488.697	10553.87
488.901	10709.51
489.105	10646.02
489.309	10740.23
489.512	10592.78
489.716	10686.98
489.92	10719.75
490.124	10625.54
490.328	10787.33
490.531	10852.87
490.735	10787.33
490.939	10746.37
491.143	10838.53
491.346	10748.42
491.55	10883.59
491.754	11039.23
491.958	11170.3
492.161	10959.36
492.365	10932.74
492.569	10981.89
492.772	10988.03
492.976	11291.13
493.18	11188.74
493.383	11358.72
493.587	11516.41
493.79	11485.69
493.994	11489.79
494.197	11655.67
494.401	11674.1
494.605	11885.05
494.808	11817.46
495.012	12020.21
495.215	12132.85
495.419	11874.81
495.622	11983.35
495.825	12229.1
496.029	12339.69
496.232	12622.31
496.436	12474.86
496.639	12708.33
496.843	12816.87
497.046	13093.35
497.249	13263.33
497.453	13281.76
497.656	13230.56
497.859	13265.38
498.063	13361.63
498.266	13685.21
498.469	13763.03
498.673	13791.7
498.876	14129.62
499.079	14336.46
499.282	14076.37
499.485	14576.08
499.689	14426.57
499.892	15047.11
500.095	15004.1
500.298	15233.47
500.501	15059.4
500.705	15483.33
500.908	15493.57
501.111	15573.44
501.314	15823.29
501.517	16325.04
501.72	16392.62
501.923	16181.68
502.126	16687.53
502.329	16927.14
502.532	16683.44
502.735	17179.04
502.938	17478.05
503.141	17525.15
503.344	17639.84
503.547	17838.49
503.75	18225.56
503.953	18536.85
504.156	18448.79
504.359	18782.6
504.562	18911.63
504.765	19034.5
504.968	19382.66
505.17	19345.8
505.373	19777.92
505.576	20275.57
505.779	20277.62
505.982	20187.51
506.185	20527.47
506.387	20662.64
506.59	20939.12
506.793	21352.8
506.996	21162.34
507.198	21954.91
507.401	21530.98
507.604	21852.51
507.807	22233.43
508.009	22544.72
508.212	22749.52
508.415	23046.47
508.617	23281.99
508.82	23413.06
509.022	23335.24
509.225	23845.18
509.428	24041.79
509.63	24455.48
509.833	24168.76
510.035	24891.69
510.238	25094.44
510.44	25254.19
510.643	25688.35
510.845	25739.55
511.048	25624.87
511.25	25858.34
511.453	25811.23
511.655	27089.17
511.858	26583.32
512.06	27195.66
512.262	27257.1
512.465	27101.45
512.667	27881.73
512.87	28461.3
513.072	28250.36
513.274	28719.35
513.477	28721.4
513.679	29300.97
513.881	29559.02
514.084	29855.97
514.286	29638.89
514.488	29946.08
514.69	31158.48
514.893	30828.76
515.095	30740.69
515.297	31334.6
515.499	31568.07
515.701	31727.81
515.904	31897.8
516.106	32518.33
516.308	32553.15
516.51	32827.57
516.712	33138.86
516.914	33450.16
517.116	33951.91
517.318	33716.39
517.52	34291.87
517.722	34443.42
517.925	34859.16
518.127	35266.7
518.329	35266.7
518.531	35420.3
518.733	35991.69
518.935	36305.02
519.136	36040.84
519.338	37181.56
519.54	36778.11
519.742	37027.96
519.944	37324.91
520.146	37894.25
520.348	38041.7
520.55	38197.35
520.752	38590.56
520.954	39012.44
521.155	38717.53
521.357	39000.15
521.559	39346.26
521.761	40206.41
521.963	39653.45
522.164	40384.58
522.366	40267.84
522.568	40888.38
522.77	41222.2
522.971	41556.02
523.173	41082.94
523.375	41723.95
523.576	41535.54
523.778	41779.25
523.98	42496.03
524.181	42459.17
524.383	42123.3
524.584	43266.07
524.786	43409.43
524.988	42876.96
525.189	43751.44
525.391	43745.3
525.592	44208.14
525.794	44048.39
525.995	44236.81
526.197	44378.12
526.398	44580.87
526.6	44636.16
526.801	44883.97
527.003	45144.06
527.204	44804.09
527.406	45744.11
527.607	45471.73
527.808	45735.92
528.01	45420.53
528.211	45285.37
528.412	46503.91
528.614	46186.47
528.815	46174.19
529.016	46573.54
529.218	46313.45
529.419	46219.24
529.62	46745.57
529.822	46438.37
530.023	46530.53
530.224	46981.09
530.425	46354.41
530.626	46374.89
530.828	46501.86
531.029	47503.32
531.23	46587.88
531.431	46890.98
531.632	47251.42
531.833	47362.01
532.035	46968.8
532.236	46915.55
532.437	47521.75
532.638	47091.68
532.839	47464.41
533.04	47392.73
533.241	46931.93
533.442	48066.51
533.643	47919.06
533.844	47255.51
534.045	47708.11
534.246	47237.08
534.447	47677.4
534.648	47525.85
534.849	47869.9
535.05	47677.4
535.251	47505.37
535.451	47116.25
535.652	47523.8
535.853	47560.66
536.054	47882.19
536.255	47890.38
536.456	47261.66
536.657	48275.4
536.857	47261.66
537.058	47329.24
537.259	48031.69
537.46	47775.7
537.66	47851.47
537.861	47658.96
538.062	47386.58
538.263	47910.86
538.463	47546.33
538.664	47779.79
538.865	47994.83
539.065	48504.77
539.266	47431.64
539.466	48179.15
539.667	47607.76
539.868	48267.21
540.068	47507.41
540.269	47370.2
540.469	48074.7
540.67	47744.98
540.87	47896.53
541.071	47480.79
541.271	47894.48
541.472	47986.64
541.672	47157.21
541.873	47763.41
542.073	46997.47
542.274	47810.51
542.474	47726.55
542.675	47470.55
542.875	47912.91
543.075	47728.59
543.276	47251.42
543.476	48017.36
543.676	47382.49
543.877	47611.86
544.077	47759.31
544.277	47529.94
544.478	47640.53
544.678	47869.9
544.878	47452.12
545.078	47714.26
545.279	47376.34
545.479	47255.51
545.679	47835.09
545.879	47957.97
546.079	47536.09
546.28	47452.12
546.48	46938.08
546.68	47562.71
546.88	47835.09
547.08	47413.21
547.28	47306.71
547.48	46974.94
547.68	47112.16
547.88	46614.5
548.081	47310.81
548.281	47413.21
548.481	47144.92
548.681	47685.59
548.881	47650.77
549.081	47294.42
549.28	47175.64
549.48	47632.34
549.68	47603.67
549.88	47443.93
550.08	47161.31
550.28	47491.03
550.48	46999.52
550.68	47194.07
550.88	46981.09
551.08	47308.76
551.279	47067.1
551.479	46616.55
551.679	46847.97
551.879	47546.33
552.079	47656.92
552.278	47038.43
552.478	47218.65
552.678	47157.21
552.878	47153.12
553.077	46591.97
553.277	46542.82
553.477	47419.35
553.676	46802.91
553.876	47390.68
554.076	46868.45
554.275	46764
554.475	46704.61
554.674	47009.76
554.874	46700.51
555.074	46833.63
555.273	46673.89
555.473	47435.73
555.672	47116.25
555.872	46735.33
556.071	46895.07
556.271	46510.05
556.47	46522.34
556.67	46149.61
556.869	46677.99
557.068	46448.61
557.268	46764
557.467	46352.36
557.667	46620.64
557.866	46417.89
558.065	46249.96
558.265	46112.75
558.464	45780.98
558.663	46335.98
558.863	45205.5
559.062	46546.92
559.261	46002.16
559.461	46266.34
559.66	45797.36
559.859	46065.64
560.058	45711.35
560.258	45930.48
560.457	45441.01
560.656	45883.37
560.855	45006.84
561.054	45559.8
561.253	45162.49
561.453	45547.51
561.652	45768.69
561.851	45645.81
562.05	45398.01
562.249	44924.93
562.448	45369.33
562.647	45504.5
562.846	44613.63
563.045	45367.29
563.244	44386.31
563.443	45520.88
563.642	44462.08
563.841	44853.25
564.04	44802.05
564.239	45707.25
564.438	44521.48
564.637	44865.53
564.836	44863.49
565.035	44230.66
565.234	44517.38
565.432	44220.42
565.631	44183.56
565.83	44279.81
566.029	44265.48
566.228	43890.7
566.427	44077.07
566.625	43767.82
566.824	43218.97
567.023	43968.52
567.222	43044.89
567.42	43843.6
567.619	43620.37
567.818	43276.31
568.016	43161.62
568.215	44163.08
568.414	43554.83
568.612	43616.27
568.811	43010.07
569.01	43323.41
569.208	42934.3
569.407	43286.55
569.605	42618.91
569.804	43100.18
570.002	42293.29
570.201	42795.04
570.4	42770.46
570.598	42549.28
570.797	41969.71
570.995	42440.74
571.193	42258.47
571.392	42281
571.59	42000.43
571.789	42113.06
571.987	41918.51
572.186	41726
572.384	41558.06
572.582	41773.1
572.781	41816.11
572.979	41459.76
573.177	41484.34
573.376	41504.82
573.574	41279.54
573.772	41437.23
573.971	40900.67
574.169	41087.03
574.367	40763.45
574.565	40958.01
574.763	40749.12
574.962	40943.67
575.16	40319.04
575.358	40845.37
575.556	39968.84
575.754	40859.71
575.952	40396.87
576.151	40525.89
576.349	39809.1
576.547	39569.49
576.745	39972.94
576.943	40212.55
577.141	39501.9
577.339	39897.16
577.537	39397.46
577.735	39870.54
577.933	38768.73
578.131	39432.27
578.329	39039.06
578.527	39178.32
578.725	39010.39
578.923	38975.58
579.121	39047.25
579.319	38649.95
579.516	38869.08
579.714	38744.16
579.912	38205.54
580.11	38565.98
580.308	38512.73
580.506	38137.96
580.704	37785.71
580.901	38090.85
581.099	38383.71
581.297	37843.05
581.495	37642.35
581.692	38025.32
581.89	37302.39
582.088	37752.94
582.285	37554.29
582.483	37662.83
582.681	37374.06
582.878	37306.48
583.076	36761.72
583.274	37175.41
583.471	36524.16
583.669	36751.48
583.866	36755.58
584.064	37232.75
584.262	36212.87
584.459	36860.02
584.657	36520.06
584.854	36823.16
585.052	35717.26
585.249	36610.17
585.447	36268.16
585.644	36190.34
585.841	35815.56
586.039	36327.55
586.236	35516.56
586.434	35578
586.631	35231.89
586.828	35578
587.026	35139.73
587.223	35578
587.42	35137.68
587.618	35369.1
587.815	34711.7
588.012	34992.28
588.21	34853.01
588.407	35088.53
588.604	34476.19
588.801	34361.5
588.999	34562.2
589.196	34631.83
589.393	34424.99
589.59	34209.95
589.787	34074.79
589.984	34074.79
590.182	33681.58
590.379	34195.62
590.576	33491.12
590.773	33673.38
590.97	33474.73
591.167	33728.68
591.364	33444.01
591.561	33650.86
591.758	33089.71
591.955	33218.74
592.152	33339.57
592.349	32864.44
592.546	33194.16
592.743	33120.43
592.94	32577.72
593.137	32661.69
593.334	32798.9
593.531	32135.36
593.727	32448.7
593.924	32327.87
594.121	32002.24
594.318	32450.75
594.515	31609.03
594.712	32063.68
594.908	31752.39
595.105	31848.64
595.302	31467.72
595.499	31600.84
595.696	31430.86
595.892	31344.84
596.089	31168.72
596.286	31391.95
596.482	31121.62
596.679	31211.73
596.876	30914.77
597.072	30793.94
597.269	30744.79
597.466	30855.38
597.662	30597.34
597.859	30261.47
598.055	30525.66
598.252	30103.78
598.448	30146.78
598.645	30075.1
598.841	30013.66
599.038	29995.23
599.234	29866.21
599.431	30034.14
599.627	29665.51
599.824	29737.19
600.02	29651.17
600.217	29663.46
600.413	29167.85
600.609	29550.82
600.806	29270.25
601.002	29243.63
601.198	28791.03
601.395	29143.28
601.591	28856.56
601.787	28797.17
601.984	28627.19
602.18	29049.07
602.376	28514.55
602.572	28358.91
602.769	28672.25
602.965	28242.17
603.161	28367.1
603.357	27953.41
603.553	27824.39
603.75	28379.39
603.946	27666.69
604.142	27900.16
604.338	27420.94
604.534	27992.32
604.73	27474.18
604.926	27654.4
605.122	27635.97
605.318	27408.65
605.514	27183.37
605.71	26827.03
605.906	27078.93
606.102	26913.04
606.298	27351.31
606.494	26927.38
606.69	26519.83
606.886	26894.61
607.082	26652.95
607.278	26900.75
607.474	26222.87
607.67	26786.07
607.866	26448.15
608.062	26720.53
608.257	26448.15
608.453	26353.94
608.649	26384.66
608.845	26355.99
609.041	26102.04
609.236	26116.38
609.432	26112.28
609.628	25970.97
609.824	25817.38
610.019	25757.99
610.215	26118.43
610.411	25819.42
610.606	25438.5
610.802	25940.25
610.998	25540.9
611.193	25762.08
611.389	25428.26
611.584	25819.42
611.78	24996.14
611.976	25274.67
612.171	25428.26
612.367	25276.71
612.562	25033
612.758	24940.85
612.953	24897.84
613.149	25180.46
613.344	24918.32
613.539	25196.84
613.735	24770.86
613.93	25272.62
614.126	24834.35
614.321	25014.57
614.517	24709.43
614.712	24811.82
614.907	24467.77
615.103	24998.19
615.298	24678.71
615.493	24756.53
615.688	24258.87
615.884	24666.42
616.079	24248.63
616.274	24447.29
616.47	24475.96
616.665	24248.63
616.86	24117.56
617.055	24041.79
617.25	24058.17
617.445	24138.04
617.641	23765.31
617.836	24168.76
618.031	23677.25
618.226	23908.67
618.421	23740.74
618.616	23875.9
618.811	23445.83
619.006	23826.75
619.201	23136.59
619.396	23552.32
619.591	22960.46
619.786	23474.5
619.981	22917.45
620.176	23400.77
620.371	22851.92
620.566	22731.09
620.761	22651.22
620.956	22829.39
621.151	22573.39
621.346	22546.77
621.541	22010.2
621.735	22276.44
621.93	22032.73
622.125	22223.19
622.32	21770.59
622.515	21920.09
622.709	21641.57
622.904	21506.4
623.099	21487.97
623.294	21307.75
623.488	21356.9
623.683	21389.67
623.878	20791.66
624.072	21129.58
624.267	20947.31
624.462	20679.02
624.656	20771.18
624.851	20525.43
625.046	20646.26
625.24	20363.64
625.435	20081.02
625.629	20175.22
625.824	20095.35
626.018	19812.73
626.213	19726.72
626.407	19628.42
626.602	19458.43
626.796	19673.47
626.991	19499.39
627.185	19278.21
627.38	19104.14
627.574	19083.66
627.768	18452.88
627.963	18864.52
628.157	18588.05
628.352	18739.6
628.546	18682.25
628.74	18551.18
628.935	18209.17
629.129	18366.87
629.323	18123.16
629.517	17953.18
629.712	18227.6
629.906	17998.23
630.1	17574.3
630.294	17609.12
630.489	17564.06
630.683	17580.45
630.877	17338.79
631.071	17437.09
631.265	17482.14
631.459	17269.16
631.653	17121.7
631.848	16957.86
632.042	16611.76
632.236	17215.91
632.43	16609.71
632.624	16783.79
632.818	16495.02
633.012	16318.9
633.206	16169.4
633.4	16308.66
633.594	16040.37
633.788	16134.58
633.982	16296.37
634.176	15911.35
634.369	15548.86
634.563	15718.84
634.757	15698.36
634.951	15907.26
635.145	15864.25
635.339	15665.6
635.533	15366.59
635.726	15604.16
635.92	15407.55
636.114	15409.6
636.308	15301.06
636.501	15143.36
636.695	14948.81
636.889	15200.71
637.083	14612.94
637.276	14868.94
637.47	14643.66
637.664	14402
637.857	14657.99
638.051	14336.46
638.244	14297.55
638.438	14381.52
638.632	14229.97
638.825	14211.54
639.019	14002.65
639.212	14041.56
639.406	13838.81
639.599	13748.7
639.793	13769.18
639.986	13726.17
640.18	13799.9
640.373	13535.71
640.567	13474.27
640.76	13566.43
640.954	13357.53
641.147	13169.12
641.34	13236.7
641.534	13244.9
641.727	12978.66
641.92	13212.13
642.114	12960.23
642.307	12906.98
642.5	12806.63
642.694	12679.66
642.887	12452.33
643.08	12941.8
643.273	12628.46
643.467	12388.85
643.66	12288.5
643.853	12198.38
644.046	12231.15
644.239	12335.6
644.432	12225.01
644.626	12061.17
644.819	12040.69
645.012	11971.06
645.205	11866.61
645.398	11964.92
645.591	11665.91
645.784	11725.3
645.977	11710.97
646.17	11538.94
646.363	11563.51
646.556	11344.38
646.749	11631.1
646.942	11444.73
647.135	11145.73
647.328	11287.04
647.521	11016.71
647.714	10994.18
647.907	11176.45
648.099	11057.67
648.292	10887.68
648.485	10940.93
648.678	10668.55
648.871	10813.96
649.064	10811.91
649.256	10629.64
649.449	10574.35
649.642	10398.22
649.835	10314.25
650.027	10242.57
650.22	10396.17
650.413	10371.6
650.605	10357.26
650.798	10213.9
650.991	10052.11
651.183	10121.74
651.376	9912.85
651.568	10101.26
651.761	9826.84
651.954	9878.04
652.146	9855.51
652.339	9751.06
652.531	9595.42
652.724	9579.03
652.916	9472.54
653.109	9650.71
653.301	9458.2
653.494	9710.1
653.686	9413.15
653.879	9517.59
654.071	9355.8
654.263	9214.49
654.456	9277.98
654.648	9191.97
654.84	9060.9
655.033	8995.36
655.225	8974.88
655.417	8981.03
655.61	8960.55
655.802	8741.41
655.994	8800.8
656.186	8872.48
656.379	8806.95
656.571	8706.6
656.763	8555.05
656.955	8749.61
657.148	8591.91
657.34	8682.02
657.532	8301.1
657.724	8319.53
657.916	8407.59
658.108	8378.92
658.3	8260.14
658.492	8167.98
658.684	8161.84
658.876	8088.11
659.068	7950.9
659.26	8036.91
659.452	8120.88
659.644	8280.62
659.836	7893.55
660.028	7934.51
660.22	7774.77
660.412	7873.07
660.604	7756.34
660.796	7936.56
660.988	7707.19
661.18	7631.41
661.372	7559.74
661.563	7662.13
661.755	7522.87
661.947	7590.45
662.139	7260.73
662.331	7535.16
662.522	7416.38
662.714	7170.62
662.906	7215.68
663.097	7285.31
663.289	7232.06
663.481	7033.41
663.673	7277.12
663.864	7129.66
664.056	6808.13
664.247	7000.64
664.439	7029.31
664.631	6849.09
664.822	6969.92
665.014	6883.91
665.205	6801.99
665.397	6830.66
665.588	6861.38
665.78	6646.34
665.971	6697.54
666.163	6695.49
666.354	6556.23
666.546	6756.93
666.737	6521.42
666.929	6492.74
667.12	6621.77
667.311	6498.89
667.503	6449.74
667.694	6353.48
667.885	6269.51
668.077	6126.16
668.268	6236.75
668.459	6318.67
668.651	6234.7
668.842	6142.54
669.033	6132.3
669.224	6015.57
669.416	6132.3
669.607	6220.36
669.798	6171.21
669.989	6105.68
670.18	5997.14
670.371	6034
670.563	5974.61
670.754	6021.71
670.945	5773.91
671.136	5814.87
671.327	5888.59
671.518	5708.37
671.709	5755.47
671.9	5853.78
672.091	5663.32
672.282	5823.06
672.473	5773.91
672.664	5571.16
672.855	5352.02
673.046	5519.96
673.237	5730.9
673.428	5505.62
673.619	5452.38
673.809	5542.49
674	5442.14
674.191	5380.7
674.382	5337.69
674.573	5321.31
674.764	5124.7
674.954	5407.32
675.145	5118.56
675.336	5087.84
675.527	5409.37
675.717	5341.79
675.908	5085.79
676.099	5177.95
676.289	5018.21
676.48	5124.7
676.671	5061.21
676.861	5143.13
677.052	4880.99
677.243	4911.71
677.433	4956.77
677.624	4934.24
677.814	5040.73
678.005	5038.69
678.195	4999.77
678.386	4919.9
678.576	4772.45
678.767	4774.5
678.957	4708.96
679.148	4905.57
679.338	4688.48
679.529	4825.7
679.719	4594.28
679.909	4813.41
680.1	4676.2
680.29	4665.96
680.481	4586.08
680.671	4706.91
680.861	4543.08
681.052	4504.17
681.242	4528.74
681.432	4672.1
681.622	4536.93
681.813	4473.45
682.003	4461.16
682.193	4442.73
682.383	4467.3
682.573	4461.16
682.764	4426.34
682.954	4448.87
683.144	4295.27
683.334	4338.28
683.524	4344.42
683.714	4543.08
683.904	4266.6
684.094	4305.51
684.284	4266.6
684.474	4313.7
684.664	4340.33
684.854	4170.35
685.044	4039.28
685.234	4129.39
685.424	4174.44
685.614	4002.41
685.804	4180.59
685.994	4123.24
686.184	4037.23
686.374	4061.8
686.564	3983.98
686.753	4170.35
686.943	3996.27
687.133	4049.52
687.323	3986.03
687.513	3945.07
687.702	3949.17
687.892	3920.49
688.082	3857.01
688.272	3807.86
688.461	3969.65
688.651	3963.5
688.841	3744.37
689.03	3832.43
689.22	3793.52
689.41	3805.81
689.599	3736.18
689.789	3775.09
689.979	3648.11
690.168	3715.7
690.358	3662.45
690.547	3730.03
690.737	3783.28
690.926	3732.08
691.116	3586.68
691.305	3611.25
691.495	3699.31
691.684	3523.19
691.874	3574.39
692.063	3564.15
692.252	3502.71
692.442	3506.81
692.631	3508.85
692.82	3506.81
693.01	3418.74
693.199	3539.57
693.388	3418.74
693.578	3259
693.767	3447.41
693.956	3459.7
694.146	3385.97
694.335	3310.2
694.524	3355.26
694.713	3297.91
694.902	3295.86
695.092	3347.06
695.281	3308.15
695.47	3396.21
695.659	3441.27
695.848	3330.68
696.037	3361.4
696.226	3244.67
696.415	3199.61
696.604	3328.63
696.793	3252.86
696.982	3318.39
697.171	3283.58
697.36	3134.07
697.549	3119.74
697.738	3209.85
697.927	3136.12
698.116	3283.58
698.305	3103.36
698.494	3043.96
698.683	3150.46
698.872	3103.36
699.061	3015.29
699.25	3197.56
699.438	3109.5
699.627	3166.84
699.816	3097.21
700.005	2962.05
700.193	3054.2
700.382	3156.6
700.571	3060.35
700.76	2970.24
700.948	3023.48
701.137	2880.13
701.326	2900.61
701.514	2964.09
701.703	2976.38
701.892	2994.81
702.08	3033.72
702.269	2904.7
702.457	2972.29
702.646	2957.95
702.834	3058.3
703.023	2923.13
703.212	2869.89
703.4	2994.81
703.589	2925.18
703.777	2933.37
703.965	3021.44
704.154	2941.57
704.342	2957.95
704.531	2806.4
704.719	2849.41
704.907	3050.11
705.096	2824.83
705.284	2824.83
705.472	2902.65
705.661	2826.88
705.849	2822.78
706.037	2740.86
706.226	2755.2
706.414	2857.6
706.602	2833.02
706.79	2894.46
706.979	2652.8
707.167	2900.61
707.355	2740.86
707.543	2708.1
707.731	2781.82
707.919	2714.24
708.107	2638.47
708.296	2718.34
708.484	2818.69
708.672	2794.11
708.86	2792.06
709.048	2681.47
709.236	2716.29
709.424	2701.95
709.612	2732.67
709.8	2751.1
709.988	2747.01
710.176	2761.34
710.364	2673.28
710.551	2589.32
710.739	2665.09
710.927	2699.91
711.115	2642.56
711.303	2749.06
711.491	2663.04
711.679	2654.85
711.866	2609.79
712.054	2595.46
712.242	2679.43
712.43	2648.71
712.617	2624.13
712.805	2566.79
712.993	2564.74
713.181	2572.93
713.368	2581.12
713.556	2704
713.744	2540.16
713.931	2521.73
714.119	2544.26
714.306	2540.16
714.494	2527.88
714.682	2478.72
714.869	2464.39
715.057	2448.01
715.244	2515.59
715.432	2482.82
715.619	2517.64
715.807	2439.81
715.994	2650.75
716.182	2458.25
716.369	2564.74
716.556	2478.72
716.744	2484.87
716.931	2480.77
717.119	2429.57
717.306	2513.54
717.493	2419.33
717.681	2478.72
717.868	2454.15
718.055	2630.27
718.242	2415.24
718.43	2413.19
718.617	2421.38
718.804	2333.32
718.991	2501.25
719.179	2421.38
719.366	2378.37
719.553	2349.7
719.74	2374.28
719.927	2349.7
720.114	2394.76
720.301	2368.13
720.488	2361.99
720.676	2333.32
720.863	2329.22
721.05	2318.98
721.237	2335.37
721.424	2407.05
721.611	2294.41
721.798	2333.32
721.985	2263.69
722.172	2271.88
722.358	2349.7
722.545	2411.14
722.732	2312.84
722.919	2390.66
723.106	2288.26
723.293	2230.92
723.48	2292.36
723.667	2243.21
723.853	2200.2
724.04	2273.93
724.227	2220.68
724.414	2159.24
724.6	2243.21
724.787	2214.54
724.974	2259.59
725.161	2251.4
725.347	2275.98
725.534	2126.47
725.72	2255.5
725.907	2218.63
726.094	2124.43
726.28	2175.63
726.467	2128.52
726.653	2210.44
726.84	2138.76
727.027	2202.25
727.213	2157.19
727.4	2181.77
727.586	2140.81
727.773	2130.57
727.959	2167.43
728.145	2245.26
728.332	2177.67
728.518	2093.71
728.705	2200.2
728.891	2067.08
729.077	2097.8
729.264	2206.34
729.45	2093.71
729.636	2189.96
729.823	2054.8
730.009	2128.52
730.195	1983.12
730.382	2189.96
730.568	2095.75
730.754	2015.88
730.94	2099.85
731.126	2036.36
731.313	2091.66
731.499	2089.61
731.685	2058.89
731.871	2171.53
732.057	2065.04
732.243	2097.8
732.429	2099.85
732.615	2038.41
732.801	1880.72
732.987	1991.31
733.173	2149
733.359	2017.93
733.545	2007.69
733.731	2022.03
733.917	2050.7
734.103	1942.16
734.289	1970.83
734.475	1925.77
734.661	2075.27
734.847	1970.83
735.033	1905.29
735.219	1964.68
735.404	1938.06
735.59	1919.63
735.776	1993.36
735.962	2030.22
736.148	1917.58
736.333	1864.33
736.519	1903.25
736.705	1981.07
736.89	1831.57
737.076	1888.91
737.262	1860.24
737.447	1860.24
737.633	1788.56
737.819	1970.83
738.004	1897.1
738.19	1798.8
738.375	1858.19
738.561	1905.29
738.747	1911.44
738.932	1850
739.118	1903.25
739.303	1866.38
739.489	1817.23
739.674	1862.29
739.859	1804.94
740.045	1823.37
740.23	1843.85
740.416	1837.71
740.601	1841.81
740.786	1845.9
740.972	1790.61
741.157	1790.61
741.342	1784.46
741.528	1700.5
741.713	1747.6
741.898	1696.4
742.084	1782.42
742.269	1696.4
742.454	1815.18
742.639	1751.7
742.824	1739.41
743.01	1614.48
743.195	1686.16
743.38	1819.28
743.565	1753.74
743.75	1708.69
743.935	1692.3
744.12	1694.35
744.305	1641.11
744.49	1661.59
744.675	1655.44
744.86	1563.28
745.045	1772.18
745.23	1604.24
745.415	1684.11
745.6	1716.88
745.785	1653.39
745.97	1594
746.155	1643.15
746.34	1579.67
746.525	1417.88
746.71	1655.44
746.895	1493.65
747.079	1520.28
747.264	1579.67
747.449	1522.32
747.634	1501.84
747.819	1487.51
748.003	1518.23
748.188	1385.11
748.373	1497.75
748.557	1436.31
748.742	1530.52
748.927	1456.79
749.111	1397.4
749.296	1401.49
749.481	1419.92
749.665	1464.98
749.85	1428.12
750.034	1469.08
750.219	1479.32
750.404	1340.05
750.588	1370.77
750.773	1356.44
750.957	1266.33
751.141	1219.22
751.326	1368.73
751.51	1309.33
751.695	1315.48
751.879	1245.85
752.064	1368.73
752.248	1276.57
752.432	1309.33
752.617	1264.28
752.801	1358.49
752.985	1163.93
753.17	1227.42
753.354	1333.91
753.538	1290.9
753.722	1211.03
753.907	1305.24
754.091	1202.84
754.275	1235.61
754.459	1198.74
754.643	1178.26
754.828	1176.22
755.012	1184.41
755.196	1180.31
755.38	1256.09
755.564	1086.11
755.748	1170.07
755.932	1135.26
756.116	1178.26
756.3	1188.5
756.484	1096.35
756.668	1139.35
756.852	1030.81
757.036	1170.07
757.22	1020.57
757.404	1014.43
757.588	1016.48
757.772	1120.92
757.956	1106.59
758.14	1133.21
758.323	981.66
758.507	1108.63
758.691	1010.33
758.875	979.61
759.059	1016.48
759.242	1020.57
759.426	1069.72
759.61	969.37
759.794	1067.67
759.977	916.12
760.161	1051.29
760.345	1012.38
760.528	1067.67
760.712	1004.19
760.895	1000.09
761.079	944.8
761.263	942.75
761.446	985.76
761.63	965.28
761.813	981.66
761.997	973.47
762.18	909.98
762.364	811.68
762.547	895.64
762.731	903.84
762.914	969.37
763.098	936.6
763.281	801.44
763.464	955.04
763.648	848.54
763.831	875.17
764.015	879.26
764.198	922.27
764.381	907.93
764.564	1051.29
764.748	957.08
764.931	942.75
765.114	875.17
765.297	840.35
765.481	826.01
765.664	897.69
765.847	922.27
766.03	907.93
766.213	805.53
766.397	938.65
766.58	840.35
766.763	912.03
766.946	834.21
767.129	866.97
767.312	785.05
767.495	813.73
767.678	852.64
767.861	799.39
768.044	793.25
768.227	860.83
768.41	817.82
768.593	760.48
768.776	723.62
768.959	780.96
769.142	815.77
769.324	821.92
769.507	809.63
769.69	823.97
769.873	815.77
770.056	815.77
770.239	766.62
770.421	805.53
770.604	789.15
770.787	821.92
770.97	817.82
771.152	766.62
771.335	768.67
771.518	727.71
771.7	760.48
771.883	791.2
772.066	758.43
772.248	780.96
772.431	819.87
772.613	744.1
772.796	668.32
772.978	733.86
773.161	733.86
773.343	737.95
773.526	756.38
773.708	619.17
773.891	711.33
774.073	692.9
774.256	692.9
774.438	815.77
774.621	772.77
774.803	703.14
774.985	707.23
775.168	727.71
775.35	686.75
775.532	635.55
775.715	680.61
775.897	625.31
776.079	629.41
776.261	754.34
776.444	637.6
776.626	766.62
776.808	666.27
776.99	686.75
777.173	678.56
777.355	660.13
777.537	707.23
777.719	649.89
777.901	500.39
778.083	633.5
778.265	647.84
778.447	608.93
778.629	567.97
778.811	604.83
778.993	664.22
779.175	602.79
779.357	699.04
779.539	537.25
779.721	465.57
779.903	531.11
780.085	613.03
780.267	586.4
780.449	602.79
780.631	580.26
780.812	502.43
780.994	547.49
781.176	543.39
781.358	453.28
781.54	512.67
781.721	563.87
781.903	633.5
782.085	481.96
782.267	535.2
782.448	492.2
782.63	572.07
782.812	504.48
782.993	535.2
783.175	547.49
783.357	527.01
783.538	555.68
783.72	473.76
783.901	457.38
784.083	496.29
784.264	473.76
784.446	430.76
784.627	422.56
784.809	461.48
784.99	445.09
785.172	496.29
785.353	430.76
785.535	395.94
785.716	414.37
785.897	410.28
786.079	438.95
786.26	430.76
786.441	447.14
786.623	395.94
786.804	410.28
786.985	441
787.167	443.04
787.348	365.22
787.529	453.28
787.71	406.18
787.891	367.27
788.073	334.5
788.254	383.65
788.435	455.33
788.616	371.36
788.797	422.56
788.978	443.04
789.159	361.13
789.34	369.32
789.522	305.83
789.703	426.66
789.884	410.28
790.065	387.75
790.246	426.66
790.427	379.56
790.607	373.41
790.788	346.79
790.969	350.89
791.15	361.13
791.331	291.49
791.512	244.39
791.693	260.77
791.874	273.06
792.054	387.75
792.235	334.5
792.416	381.6
792.597	285.35
792.778	359.08
792.958	367.27
793.139	303.78
793.32	279.21
793.5	311.97
793.681	326.31
793.862	309.93
794.042	350.89
794.223	318.12
794.404	344.74
794.584	283.3
794.765	330.41
794.945	334.5
795.126	275.11
795.306	318.12
795.487	318.12
795.667	248.49
795.848	328.36
796.028	271.01
796.209	367.27
796.389	289.45
796.57	252.58
796.75	348.84
796.93	279.21
797.111	234.15
797.291	244.39
797.471	271.01
797.652	332.45
797.832	174.76
798.012	252.58
798.192	291.49
798.373	262.82
798.553	228.01
798.733	330.41
798.913	244.39
799.093	166.57
799.274	273.06
799.454	268.97
799.634	250.53
799.814	287.4
799.994	252.58
800.174	324.26
800.354	281.25
800.534	250.53
800.714	244.39
800.894	262.82
801.074	193.19
801.254	187.05
801.434	223.91
801.614	236.2
801.794	211.62
801.974	576.16
802.154	246.44
802.334	201.38
802.514	209.58
802.693	240.29
802.873	240.29
803.053	240.29
803.233	236.2
803.413	289.45
803.592	228.01
803.772	191.14
803.952	250.53
804.131	221.86
804.311	250.53
804.491	176.81
804.67	238.25
804.85	246.44
805.03	203.43
805.209	258.73
805.389	103.08
805.568	228.01
805.748	201.38
805.928	279.21
806.107	158.38
806.287	248.49
806.466	162.47
806.646	174.76
806.825	84.65
807.004	162.47
807.184	166.57
807.363	213.67
807.543	170.66
807.722	121.51
807.901	185
808.081	172.71
808.26	141.99
808.439	180.9
808.619	199.34
808.798	207.53
808.977	111.27
809.156	223.91
809.336	176.81
809.515	193.19
809.694	170.66
809.873	260.77
810.052	180.9
810.231	180.9
810.411	209.58
810.59	205.48
810.769	94.89
810.948	185
811.127	146.09
811.306	168.62
811.485	119.46
811.664	193.19
811.843	45.74
812.022	182.95
812.201	139.94
812.38	225.96
812.559	119.46
812.737	215.72
812.916	150.18
813.095	223.91
813.274	189.1
813.453	201.38
813.632	125.61
813.811	176.81
813.989	123.56
814.168	195.24
814.347	170.66
814.526	146.09
814.704	119.46
814.883	86.7
815.062	94.89
815.24	76.46
815.419	96.94
815.598	197.29
815.776	113.32
815.955	150.18
816.133	121.51
816.312	141.99
816.49	105.13
816.669	201.38
816.847	133.8
817.026	139.94
817.204	178.86
817.383	135.85
817.561	82.6
817.74	209.58
817.918	129.7
818.097	228.01
818.275	111.27
818.453	148.14
818.632	129.7
818.81	92.84
818.988	45.74
819.167	160.42
819.345	146.09
819.523	191.14
819.701	92.84
819.879	74.41
820.058	82.6
820.236	150.18
820.414	101.03
820.592	123.56
820.77	129.7
820.948	121.51
821.127	178.86
821.305	107.18
821.483	80.55
821.661	107.18
821.839	168.62
822.017	123.56
822.195	6.83
822.373	105.13
822.551	221.86
822.729	135.85
822.907	101.03
823.085	137.9
823.262	144.04
823.44	146.09
823.618	35.5
823.796	193.19
823.974	86.7
824.152	111.27
824.329	33.45
824.507	88.75
824.685	62.12
824.863	174.76
825.04	119.46
825.218	92.84
825.396	137.9
825.574	107.18
825.751	12.97
825.929	88.75
826.107	72.36
826.284	154.28
826.462	74.41
826.639	47.79
826.817	31.4
826.994	84.65
827.172	139.94
827.349	182.95
827.527	135.85
827.704	133.8
827.882	141.99
828.059	68.27
828.237	127.66
828.414	135.85
828.591	90.79
828.769	96.94
828.946	86.7
829.124	133.8
829.301	107.18
829.478	62.12
829.655	178.86
829.833	88.75
830.01	80.55
830.187	117.42
830.364	107.18
830.542	90.79
830.719	103.08
830.896	113.32
831.073	94.89
831.25	86.7
831.427	105.13
831.604	76.46
831.782	70.31
831.959	53.93
832.136	76.46
832.313	68.27
832.49	123.56
832.667	80.55
832.844	109.22
833.021	115.37
833.198	105.13
833.374	58.03
833.551	123.56
833.728	82.6
833.905	105.13
834.082	60.07
834.259	66.22
834.436	101.03
834.612	76.46
834.789	129.7
834.966	60.07
835.143	70.31
835.319	25.26
835.496	76.46
835.673	68.27
835.85	133.8
836.026	105.13
836.203	23.21
836.38	68.27
836.556	70.31
836.733	2.73
836.909	133.8
837.086	37.55
837.262	29.35
837.439	84.65
837.616	88.75
837.792	72.36
837.968	115.37
838.145	6.83
838.321	111.27
838.498	58.03
838.674	88.75
838.851	80.55
839.027	25.26
839.203	72.36
839.38	64.17
839.556	84.65
839.732	86.7
839.909	58.03
840.085	86.7
840.261	70.31
840.437	82.6
840.614	119.46
840.79	76.46
840.966	72.36
841.142	39.59
841.318	-1.37
841.494	78.51
841.671	96.94
841.847	43.69
842.023	45.74
842.199	55.98
842.375	47.79
842.551	6.83
842.727	68.27
842.903	135.85
843.079	86.7
843.255	64.17
843.431	129.7
843.607	88.75
843.783	80.55
843.959	29.35
844.134	53.93
844.31	90.79
844.486	84.65
844.662	31.4
844.838	72.36
845.013	101.03
845.189	111.27
845.365	70.31
845.541	123.56
845.716	103.08
845.892	35.5
846.068	25.26
846.244	39.59
846.419	101.03
846.595	-13.65
846.77	31.4
846.946	-13.65
847.122	2.73
847.297	31.4
847.473	-25.94
847.648	2.73
847.824	60.07
847.999	31.4
848.175	64.17
848.35	-11.61
848.526	80.55
848.701	78.51
848.876	115.37
849.052	27.31
849.227	76.46
849.403	19.11
849.578	27.31
849.753	49.83
849.929	51.88
850.104	-5.46
850.279	125.61
850.454	47.79
850.63	66.22
850.805	43.69
850.98	94.89
851.155	17.07
851.33	88.75
851.505	47.79
851.681	119.46
851.856	31.4
852.031	35.5
852.206	76.46
852.381	76.46
852.556	35.5
852.731	62.12
852.906	41.64
853.081	72.36
853.256	88.75
853.431	51.88
853.606	101.03
853.781	37.55
853.956	-38.23
854.131	2.73
854.305	94.89
854.48	64.17
854.655	23.21
854.83	4.78
855.005	92.84
855.18	47.79
855.354	41.64
855.529	64.17
855.704	-11.61
855.879	31.4
856.053	53.93
856.228	101.03
856.403	80.55
856.577	119.46
856.752	55.98
856.926	60.07
857.101	-42.32
857.276	33.45
857.45	45.74
857.625	72.36
857.799	101.03
857.974	39.59
858.148	23.21
858.323	82.6
858.497	21.16
858.672	78.51
858.846	43.69
859.02	60.07
859.195	49.83
859.369	10.92
859.543	25.26
859.718	55.98
859.892	45.74
860.066	92.84
860.241	37.55
860.415	37.55
860.589	17.07
860.763	-25.94
860.938	15.02
861.112	21.16
861.286	37.55
861.46	8.87
861.634	80.55
861.808	64.17
861.982	72.36
862.157	-36.18
862.331	35.5
862.505	39.59
862.679	60.07
862.853	25.26
863.027	21.16
863.201	68.27
863.375	10.92
863.549	80.55
863.722	-19.8
863.896	27.31
864.07	-17.75
864.244	123.56
864.418	88.75
864.592	27.31
864.766	-15.7
864.939	49.83
865.113	60.07
865.287	55.98
865.461	23.21
865.634	27.31
865.808	76.46
865.982	-1.37
866.156	0.68
866.329	-38.23
866.503	27.31
866.676	35.5
866.85	23.21
867.024	66.22
867.197	29.35
867.371	-42.32
867.544	-25.94
867.718	62.12
867.891	17.07
868.065	-11.61
868.238	115.37
868.412	76.46
868.585	-36.18
868.759	88.75
868.932	80.55
869.105	-17.75
869.279	-5.46
869.452	74.41
869.625	-13.65
869.799	-48.47
869.972	-58.71
870.145	41.64
870.319	51.88
870.492	-23.89
870.665	-38.23
870.838	12.97
871.011	-77.14
871.185	62.12
871.358	-50.52
871.531	15.02
871.704	39.59
871.877	-23.89
872.05	29.35
872.223	60.07
872.396	84.65
872.569	6.83
872.742	86.7
872.915	58.03
873.088	21.16
873.261	25.26
873.434	4.78
873.607	109.22
873.78	15.02
873.953	88.75
874.126	111.27
874.299	33.45
874.471	-44.37
874.644	-30.04
874.817	-118.1
874.99	0.68
875.163	-1.37
875.335	-9.56
875.508	6.83
875.681	60.07
875.853	15.02
876.026	90.79
876.199	27.31
876.371	60.07
876.544	4.78
876.717	6.83
876.889	62.12
877.062	35.5
877.234	-19.8
877.407	29.35
877.579	-1.37
877.752	55.98
877.924	55.98
878.097	60.07
878.269	47.79
878.442	-13.65
878.614	70.31
878.786	76.46
878.959	-79.19
879.131	55.98
879.303	60.07
879.476	6.83
879.648	27.31
879.82	47.79
879.993	43.69
880.165	29.35
880.337	19.11
880.509	23.21
880.681	19.11
880.854	29.35
881.026	41.64
881.198	49.83
881.37	8.87
881.542	80.55
881.714	-9.56
881.886	58.03
882.058	29.35
882.23	-46.42
882.402	33.45
882.574	119.46
882.746	-52.56
882.918	47.79
883.09	70.31
883.262	90.79
883.434	-34.13
883.606	-27.99
883.778	31.4
883.95	78.51
884.122	51.88
884.293	58.03
884.465	53.93
884.637	-5.46
884.809	23.21
884.98	55.98
885.152	64.17
885.324	23.21
885.496	45.74
885.667	8.87
885.839	-38.23
886.011	43.69
886.182	62.12
886.354	80.55
886.525	8.87
886.697	17.07
886.869	-21.85
887.04	90.79
887.212	64.17
887.383	70.31
887.555	-1.37
887.726	70.31
887.897	15.02
888.069	19.11
888.24	10.92
888.412	41.64
888.583	-9.56
888.754	146.09
888.926	-66.9
889.097	47.79
889.268	25.26
889.44	47.79
889.611	-107.86
889.782	66.22
889.953	-30.04
890.125	60.07
890.296	10.92
890.467	19.11
890.638	29.35
890.809	21.16
890.98	53.93
891.151	64.17
891.323	10.92
891.494	-1.37
891.665	6.83
891.836	76.46
892.007	23.21
892.178	119.46
892.349	-52.56
892.52	47.79
892.691	29.35
892.862	23.21
893.032	-91.48
893.203	-48.47
893.374	-1.37
893.545	72.36
893.716	55.98
893.887	62.12
894.057	39.59
894.228	31.4
894.399	-34.13
894.57	21.16
894.74	-34.13
894.911	-19.8
895.082	-73.04
895.253	45.74
895.423	101.03
895.594	2.73
895.764	-11.61
895.935	-15.7
896.106	-15.7
896.276	45.74
896.447	39.59
896.617	45.74
896.788	-17.75
896.958	35.5
897.129	19.11
897.299	-40.28
897.47	-15.7
897.64	-27.99
897.81	47.79
897.981	-42.32
898.151	-42.32
898.322	39.59
898.492	-34.13
898.662	27.31
898.832	88.75
899.003	-60.76
899.173	58.03
899.343	-34.13
899.513	-9.56
