Data from USB4F104151__98__11-07-00-699.txt Node

Date: Wed Mar 12 11:07:00 EDT 2025
User: louis
Spectrometer: USB4F10415
Trigger mode: 4
Integration Time (sec): 2.000000E-2
Scans to average: 1
Electric dark correction enabled: true
Nonlinearity correction enabled: false
Boxcar width: 0
XAxis mode: Wavelengths
Number of Pixels in Spectrum: 3648
>>>>>Begin Spectral Data<<<<<
178.204	-29.18
178.424	-29.18
178.644	-29.18
178.864	-72.19
179.084	-49.66
179.304	-27.14
179.524	-78.33
179.744	52.74
179.964	54.78
180.184	-2.56
180.404	-35.33
180.624	5.63
180.844	-0.51
181.064	-31.23
181.283	40.45
181.503	-59.9
181.723	81.41
181.943	-25.09
182.163	56.83
182.383	-2.56
182.602	83.45
182.822	-16.9
183.042	-37.38
183.262	-64
183.482	56.83
183.701	28.16
183.921	62.98
184.141	-33.28
184.361	17.92
184.58	36.35
184.8	7.68
185.02	38.4
185.239	40.45
185.459	73.21
185.679	54.78
185.898	28.16
186.118	46.59
186.338	9.73
186.557	52.74
186.777	26.11
186.997	-10.75
187.216	28.16
187.436	48.64
187.655	77.31
187.875	17.92
188.095	13.82
188.314	50.69
188.534	65.02
188.753	22.02
188.973	-6.66
189.192	52.74
189.412	28.16
189.631	54.78
189.851	-20.99
190.07	38.4
190.29	36.35
190.509	-8.7
190.729	-4.61
190.948	-33.28
191.168	130.56
191.387	11.78
191.607	-14.85
191.826	93.69
192.045	-14.85
192.265	56.83
192.484	-31.23
192.704	-39.42
192.923	30.21
193.142	89.6
193.362	1.54
193.581	-0.51
193.8	7.68
194.02	-51.71
194.239	34.3
194.458	-31.23
194.678	-0.51
194.897	36.35
195.116	67.07
195.335	7.68
195.555	-4.61
195.774	13.82
195.993	-6.66
196.212	30.21
196.432	5.63
196.651	153.09
196.87	28.16
197.089	11.78
197.308	7.68
197.528	69.12
197.747	22.02
197.966	101.89
198.185	13.82
198.404	-8.7
198.623	46.59
198.842	48.64
199.062	7.68
199.281	42.5
199.5	3.58
199.719	44.54
199.938	24.06
200.157	32.26
200.376	22.02
200.595	1.54
200.814	13.82
201.033	-16.9
201.252	13.82
201.471	-14.85
201.69	24.06
201.909	44.54
202.128	3.58
202.347	-45.57
202.566	-66.05
202.785	19.97
203.004	-27.14
203.223	108.03
203.442	28.16
203.661	34.3
203.879	-8.7
204.098	67.07
204.317	103.93
204.536	-12.8
204.755	13.82
204.974	54.78
205.193	13.82
205.411	3.58
205.63	11.78
205.849	30.21
206.068	-6.66
206.287	77.31
206.505	48.64
206.724	48.64
206.943	-20.99
207.162	-10.75
207.381	36.35
207.599	-45.57
207.818	19.97
208.037	11.78
208.255	24.06
208.474	-29.18
208.693	46.59
208.911	28.16
209.13	52.74
209.349	34.3
209.567	-20.99
209.786	-23.04
210.005	13.82
210.223	42.5
210.442	-57.86
210.661	69.12
210.879	42.5
211.098	13.82
211.316	48.64
211.535	15.87
211.753	-27.14
211.972	69.12
212.191	30.21
212.409	36.35
212.628	7.68
212.846	67.07
213.065	-8.7
213.283	75.26
213.502	46.59
213.72	32.26
213.938	40.45
214.157	56.83
214.375	34.3
214.594	44.54
214.812	65.02
215.031	-2.56
215.249	19.97
215.467	-33.28
215.686	56.83
215.904	24.06
216.122	38.4
216.341	56.83
216.559	15.87
216.778	9.73
216.996	40.45
217.214	-12.8
217.432	7.68
217.651	17.92
217.869	42.5
218.087	52.74
218.306	58.88
218.524	-4.61
218.742	5.63
218.96	36.35
219.179	24.06
219.397	60.93
219.615	114.17
219.833	-47.62
220.051	1.54
220.27	89.6
220.488	105.98
220.706	62.98
220.924	13.82
221.142	62.98
221.36	-8.7
221.578	134.65
221.796	5.63
222.015	73.21
222.233	28.16
222.451	-10.75
222.669	-55.81
222.887	24.06
223.105	42.5
223.323	17.92
223.541	-39.42
223.759	1.54
223.977	54.78
224.195	54.78
224.413	54.78
224.631	34.3
224.849	-0.51
225.067	171.52
225.285	52.74
225.503	-6.66
225.721	54.78
225.939	3.58
226.157	32.26
226.375	3.58
226.592	-18.94
226.81	38.4
227.028	38.4
227.246	30.21
227.464	-31.23
227.682	-41.47
227.9	60.93
228.117	1.54
228.335	71.17
228.553	7.68
228.771	56.83
228.989	69.12
229.206	-10.75
229.424	36.35
229.642	-51.71
229.86	30.21
230.077	73.21
230.295	69.12
230.513	87.55
230.731	71.17
230.948	34.3
231.166	7.68
231.384	32.26
231.601	-47.62
231.819	-12.8
232.037	1.54
232.254	38.4
232.472	97.79
232.689	17.92
232.907	24.06
233.125	-31.23
233.342	22.02
233.56	-16.9
233.777	48.64
233.995	15.87
234.213	65.02
234.43	-37.38
234.648	7.68
234.865	-16.9
235.083	52.74
235.3	38.4
235.518	38.4
235.735	60.93
235.953	36.35
236.17	38.4
236.388	-2.56
236.605	71.17
236.822	34.3
237.04	110.08
237.257	5.63
237.475	-18.94
237.692	15.87
237.909	3.58
238.127	93.69
238.344	-25.09
238.562	50.69
238.779	34.3
238.996	5.63
239.214	22.02
239.431	-0.51
239.648	97.79
239.865	44.54
240.083	-18.94
240.3	15.87
240.517	-20.99
240.735	-20.99
240.952	-4.61
241.169	30.21
241.386	77.31
241.603	32.26
241.821	28.16
242.038	62.98
242.255	26.11
242.472	11.78
242.689	7.68
242.907	38.4
243.124	40.45
243.341	26.11
243.558	-35.33
243.775	69.12
243.992	-57.86
244.209	79.36
244.426	13.82
244.643	42.5
244.86	5.63
245.078	65.02
245.295	-20.99
245.512	7.68
245.729	7.68
245.946	40.45
246.163	69.12
246.38	-18.94
246.597	114.17
246.814	22.02
247.031	-37.38
247.248	-2.56
247.464	24.06
247.681	-14.85
247.898	22.02
248.115	40.45
248.332	19.97
248.549	69.12
248.766	81.41
248.983	13.82
249.2	-0.51
249.417	9.73
249.633	52.74
249.85	32.26
250.067	50.69
250.284	-31.23
250.501	34.3
250.717	5.63
250.934	60.93
251.151	-8.7
251.368	42.5
251.585	60.93
251.801	-74.24
252.018	-12.8
252.235	15.87
252.451	114.17
252.668	-10.75
252.885	122.37
253.102	60.93
253.318	73.21
253.535	-20.99
253.752	32.26
253.968	69.12
254.185	3.58
254.401	-16.9
254.618	34.3
254.835	1.54
255.051	60.93
255.268	-23.04
255.484	1.54
255.701	34.3
255.917	-23.04
256.134	-8.7
256.351	1.54
256.567	5.63
256.784	54.78
257	9.73
257.217	30.21
257.433	65.02
257.65	58.88
257.866	73.21
258.082	11.78
258.299	-23.04
258.515	38.4
258.732	-37.38
258.948	122.37
259.165	-45.57
259.381	-57.86
259.597	79.36
259.814	-2.56
260.03	32.26
260.246	75.26
260.463	28.16
260.679	9.73
260.895	48.64
261.112	36.35
261.328	11.78
261.544	7.68
261.761	85.5
261.977	9.73
262.193	5.63
262.409	7.68
262.626	30.21
262.842	69.12
263.058	-4.61
263.274	28.16
263.49	91.65
263.707	30.21
263.923	26.11
264.139	-41.47
264.355	40.45
264.571	7.68
264.787	46.59
265.004	28.16
265.22	85.5
265.436	15.87
265.652	9.73
265.868	-23.04
266.084	-8.7
266.3	58.88
266.516	28.16
266.732	-33.28
266.948	22.02
267.164	-18.94
267.38	15.87
267.596	89.6
267.812	71.17
268.028	26.11
268.244	1.54
268.46	-59.9
268.676	-61.95
268.892	58.88
269.108	9.73
269.324	-59.9
269.54	32.26
269.756	83.45
269.972	56.83
270.188	36.35
270.403	24.06
270.619	-43.52
270.835	44.54
271.051	58.88
271.267	-4.61
271.483	32.26
271.698	-29.18
271.914	15.87
272.13	-20.99
272.346	28.16
272.562	11.78
272.777	89.6
272.993	65.02
273.209	46.59
273.425	52.74
273.64	30.21
273.856	-0.51
274.072	-2.56
274.287	75.26
274.503	-4.61
274.719	7.68
274.934	3.58
275.15	5.63
275.366	69.12
275.581	11.78
275.797	101.89
276.012	13.82
276.228	-2.56
276.444	19.97
276.659	67.07
276.875	110.08
277.09	-8.7
277.306	60.93
277.521	-53.76
277.737	103.93
277.952	46.59
278.168	-8.7
278.383	17.92
278.599	32.26
278.814	24.06
279.03	36.35
279.245	108.03
279.461	-8.7
279.676	-23.04
279.892	69.12
280.107	52.74
280.322	110.08
280.538	46.59
280.753	73.21
280.969	91.65
281.184	7.68
281.399	26.11
281.615	9.73
281.83	52.74
282.045	-33.28
282.26	-33.28
282.476	81.41
282.691	93.69
282.906	15.87
283.122	97.79
283.337	5.63
283.552	75.26
283.767	5.63
283.983	5.63
284.198	30.21
284.413	36.35
284.628	9.73
284.843	19.97
285.058	-27.14
285.274	22.02
285.489	46.59
285.704	7.68
285.919	42.5
286.134	54.78
286.349	5.63
286.564	36.35
286.779	112.13
286.995	-0.51
287.21	26.11
287.425	87.55
287.64	26.11
287.855	-6.66
288.07	-57.86
288.285	24.06
288.5	13.82
288.715	-8.7
288.93	28.16
289.145	36.35
289.36	67.07
289.575	48.64
289.79	54.78
290.004	42.5
290.219	87.55
290.434	5.63
290.649	-12.8
290.864	-51.71
291.079	38.4
291.294	-39.42
291.509	65.02
291.724	89.6
291.938	28.16
292.153	93.69
292.368	-27.14
292.583	28.16
292.798	24.06
293.012	50.69
293.227	54.78
293.442	-2.56
293.657	-0.51
293.871	56.83
294.086	28.16
294.301	105.98
294.516	52.74
294.73	85.5
294.945	-84.48
295.16	32.26
295.374	36.35
295.589	67.07
295.804	32.26
296.018	24.06
296.233	17.92
296.447	11.78
296.662	-35.33
296.877	58.88
297.091	-10.75
297.306	11.78
297.52	85.5
297.735	42.5
297.949	-53.76
298.164	3.58
298.378	3.58
298.593	-2.56
298.807	52.74
299.022	17.92
299.236	85.5
299.451	38.4
299.665	56.83
299.88	69.12
300.094	-6.66
300.309	42.5
300.523	44.54
300.737	38.4
300.952	17.92
301.166	52.74
301.381	-0.51
301.595	46.59
301.809	83.45
302.024	22.02
302.238	7.68
302.452	52.74
302.667	-25.09
302.881	28.16
303.095	24.06
303.309	-4.61
303.524	83.45
303.738	89.6
303.952	3.58
304.166	15.87
304.381	-35.33
304.595	58.88
304.809	15.87
305.023	36.35
305.237	11.78
305.452	34.3
305.666	58.88
305.88	65.02
306.094	28.16
306.308	36.35
306.522	101.89
306.736	91.65
306.95	28.16
307.164	19.97
307.379	-59.9
307.593	26.11
307.807	56.83
308.021	-4.61
308.235	11.78
308.449	24.06
308.663	-0.51
308.877	60.93
309.091	93.69
309.305	32.26
309.519	-23.04
309.733	73.21
309.947	30.21
310.161	42.5
310.374	-0.51
310.588	87.55
310.802	19.97
311.016	-8.7
311.23	62.98
311.444	-10.75
311.658	19.97
311.872	17.92
312.085	44.54
312.299	116.22
312.513	24.06
312.727	56.83
312.941	38.4
313.154	50.69
313.368	52.74
313.582	28.16
313.796	19.97
314.009	46.59
314.223	-12.8
314.437	9.73
314.651	1.54
314.864	73.21
315.078	-45.57
315.292	-14.85
315.505	-2.56
315.719	30.21
315.933	56.83
316.146	9.73
316.36	-25.09
316.573	62.98
316.787	24.06
317.001	73.21
317.214	7.68
317.428	17.92
317.641	50.69
317.855	-4.61
318.068	97.79
318.282	73.21
318.495	50.69
318.709	11.78
318.922	34.3
319.136	67.07
319.349	40.45
319.563	105.98
319.776	9.73
319.99	42.5
320.203	77.31
320.417	79.36
320.63	17.92
320.843	48.64
321.057	32.26
321.27	-10.75
321.483	-27.14
321.697	-0.51
321.91	-10.75
322.124	19.97
322.337	34.3
322.55	28.16
322.763	-20.99
322.977	-18.94
323.19	54.78
323.403	3.58
323.617	60.93
323.83	24.06
324.043	36.35
324.256	67.07
324.469	5.63
324.683	46.59
324.896	69.12
325.109	32.26
325.322	-6.66
325.535	105.98
325.748	-2.56
325.962	69.12
326.175	62.98
326.388	15.87
326.601	7.68
326.814	54.78
327.027	36.35
327.24	89.6
327.453	-12.8
327.666	128.51
327.879	11.78
328.092	-2.56
328.305	5.63
328.518	15.87
328.731	32.26
328.944	85.5
329.157	77.31
329.37	79.36
329.583	56.83
329.796	36.35
330.009	-20.99
330.222	11.78
330.435	44.54
330.648	32.26
330.861	17.92
331.073	124.41
331.286	56.83
331.499	99.84
331.712	97.79
331.925	42.5
332.138	77.31
332.35	50.69
332.563	-8.7
332.776	67.07
332.989	9.73
333.202	13.82
333.414	32.26
333.627	46.59
333.84	87.55
334.053	48.64
334.265	62.98
334.478	91.65
334.691	3.58
334.903	46.59
335.116	24.06
335.329	36.35
335.541	-45.57
335.754	83.45
335.966	-23.04
336.179	7.68
336.392	-20.99
336.604	56.83
336.817	56.83
337.029	67.07
337.242	38.4
337.454	-16.9
337.667	5.63
337.88	32.26
338.092	38.4
338.305	83.45
338.517	11.78
338.729	52.74
338.942	54.78
339.154	-14.85
339.367	-25.09
339.579	11.78
339.792	15.87
340.004	77.31
340.217	-14.85
340.429	15.87
340.641	-14.85
340.854	19.97
341.066	79.36
341.278	99.84
341.491	22.02
341.703	85.5
341.915	-12.8
342.128	101.89
342.34	30.21
342.552	-25.09
342.764	26.11
342.977	1.54
343.189	15.87
343.401	17.92
343.613	91.65
343.826	56.83
344.038	62.98
344.25	75.26
344.462	-8.7
344.674	71.17
344.886	-10.75
345.099	54.78
345.311	83.45
345.523	-39.42
345.735	19.97
345.947	65.02
346.159	40.45
346.371	36.35
346.583	77.31
346.795	99.84
347.007	-2.56
347.219	50.69
347.431	-16.9
347.643	48.64
347.855	52.74
348.067	110.08
348.279	28.16
348.491	48.64
348.703	114.17
348.915	-12.8
349.127	130.56
349.339	-0.51
349.551	62.98
349.763	-6.66
349.975	62.98
350.187	-31.23
350.399	36.35
350.61	19.97
350.822	-43.52
351.034	48.64
351.246	71.17
351.458	44.54
351.669	36.35
351.881	62.98
352.093	60.93
352.305	75.26
352.517	60.93
352.728	65.02
352.94	48.64
353.152	65.02
353.363	26.11
353.575	79.36
353.787	13.82
353.999	36.35
354.21	105.98
354.422	5.63
354.633	54.78
354.845	101.89
355.057	38.4
355.268	65.02
355.48	22.02
355.692	30.21
355.903	-2.56
356.115	36.35
356.326	-2.56
356.538	17.92
356.749	24.06
356.961	118.27
357.172	22.02
357.384	118.27
357.595	81.41
357.807	58.88
358.018	-0.51
358.23	-6.66
358.441	87.55
358.653	28.16
358.864	26.11
359.075	9.73
359.287	-33.28
359.498	44.54
359.709	89.6
359.921	42.5
360.132	46.59
360.344	-23.04
360.555	22.02
360.766	28.16
360.977	50.69
361.189	44.54
361.4	13.82
361.611	44.54
361.823	89.6
362.034	32.26
362.245	32.26
362.456	5.63
362.667	-37.38
362.879	146.94
363.09	-4.61
363.301	3.58
363.512	32.26
363.723	36.35
363.935	32.26
364.146	75.26
364.357	67.07
364.568	110.08
364.779	34.3
364.99	-4.61
365.201	-37.38
365.412	65.02
365.623	-8.7
365.834	103.93
366.045	3.58
366.256	15.87
366.467	124.41
366.678	50.69
366.889	40.45
367.1	11.78
367.311	-8.7
367.522	26.11
367.733	83.45
367.944	65.02
368.155	87.55
368.366	75.26
368.577	75.26
368.788	83.45
368.999	77.31
369.209	-10.75
369.42	89.6
369.631	95.74
369.842	101.89
370.053	5.63
370.264	62.98
370.474	19.97
370.685	-39.42
370.896	5.63
371.107	36.35
371.317	77.31
371.528	56.83
371.739	73.21
371.95	60.93
372.16	9.73
372.371	7.68
372.582	87.55
372.792	48.64
373.003	7.68
373.214	97.79
373.424	15.87
373.635	-29.18
373.846	48.64
374.056	40.45
374.267	36.35
374.477	65.02
374.688	44.54
374.898	56.83
375.109	73.21
375.319	24.06
375.53	26.11
375.74	-16.9
375.951	83.45
376.161	34.3
376.372	89.6
376.582	11.78
376.793	40.45
377.003	-4.61
377.214	22.02
377.424	62.98
377.635	67.07
377.845	44.54
378.055	120.32
378.266	-41.47
378.476	44.54
378.686	48.64
378.897	-29.18
379.107	50.69
379.317	-41.47
379.528	34.3
379.738	105.98
379.948	22.02
380.158	146.94
380.369	67.07
380.579	83.45
380.789	-8.7
380.999	110.08
381.21	19.97
381.42	81.41
381.63	-4.61
381.84	30.21
382.05	52.74
382.261	58.88
382.471	79.36
382.681	15.87
382.891	108.03
383.101	91.65
383.311	-14.85
383.521	19.97
383.731	114.17
383.941	-8.7
384.151	-20.99
384.361	62.98
384.571	71.17
384.781	22.02
384.991	48.64
385.201	69.12
385.411	24.06
385.621	79.36
385.831	93.69
386.041	56.83
386.251	69.12
386.461	89.6
386.671	87.55
386.881	50.69
387.091	36.35
387.301	91.65
387.511	93.69
387.72	28.16
387.93	60.93
388.14	71.17
388.35	13.82
388.56	52.74
388.769	32.26
388.979	17.92
389.189	24.06
389.399	19.97
389.609	73.21
389.818	101.89
390.028	3.58
390.238	36.35
390.447	75.26
390.657	19.97
390.867	48.64
391.076	44.54
391.286	65.02
391.496	13.82
391.705	81.41
391.915	28.16
392.125	40.45
392.334	22.02
392.544	30.21
392.753	58.88
392.963	56.83
393.172	7.68
393.382	89.6
393.591	103.93
393.801	13.82
394.01	130.56
394.22	91.65
394.429	1.54
394.639	48.64
394.848	120.32
395.058	62.98
395.267	118.27
395.477	26.11
395.686	30.21
395.895	118.27
396.105	93.69
396.314	87.55
396.524	105.98
396.733	42.5
396.942	110.08
397.152	46.59
397.361	58.88
397.57	38.4
397.78	159.23
397.989	71.17
398.198	103.93
398.407	73.21
398.617	103.93
398.826	89.6
399.035	151.04
399.244	85.5
399.453	58.88
399.663	77.31
399.872	122.37
400.081	75.26
400.29	130.56
400.499	-10.75
400.708	134.65
400.917	122.37
401.127	89.6
401.336	97.79
401.545	159.23
401.754	75.26
401.963	157.18
402.172	99.84
402.381	97.79
402.59	95.74
402.799	116.22
403.008	114.17
403.217	167.42
403.426	89.6
403.635	126.46
403.844	103.93
404.053	65.02
404.262	187.9
404.471	112.13
404.68	114.17
404.888	122.37
405.097	126.46
405.306	81.41
405.515	175.61
405.724	151.04
405.933	151.04
406.142	187.9
406.35	167.42
406.559	114.17
406.768	194.05
406.977	187.9
407.185	128.51
407.394	206.33
407.603	187.9
407.812	216.57
408.02	263.68
408.229	181.76
408.438	183.81
408.646	165.37
408.855	224.76
409.064	200.19
409.272	286.2
409.481	304.64
409.69	261.63
409.898	294.4
410.107	255.48
410.315	267.77
410.524	187.9
410.733	282.11
410.941	347.64
411.15	314.88
411.358	368.12
411.567	368.12
411.775	310.78
411.984	355.83
412.192	398.84
412.401	353.79
412.609	400.89
412.818	447.99
413.026	425.47
413.234	501.24
413.443	384.51
413.651	484.86
413.86	515.58
414.068	527.86
414.276	611.83
414.485	505.34
414.693	646.65
414.901	738.8
415.11	613.88
415.318	601.59
415.526	693.75
415.734	763.38
415.943	665.08
416.151	757.24
416.359	726.52
416.567	878.07
416.776	871.92
416.984	916.98
417.192	839.16
417.4	884.21
417.608	933.36
417.817	904.69
418.025	1039.86
418.233	1107.44
418.441	1031.66
418.649	1140.21
418.857	1207.79
419.065	1308.14
419.273	1170.93
419.481	1345
419.689	1353.2
419.897	1402.35
420.105	1375.72
420.313	1488.36
420.521	1537.51
420.729	1539.56
420.937	1560.04
421.145	1668.58
421.353	1646.05
421.561	1803.75
421.769	1791.46
421.977	1932.77
422.185	1822.18
422.393	1906.15
422.601	2088.42
422.809	2160.1
423.017	2092.51
423.224	2272.73
423.432	2315.74
423.64	2194.91
423.848	2518.49
424.056	2469.34
424.263	2573.78
424.471	2620.89
424.679	2702.81
424.887	2883.03
425.094	2887.12
425.302	2903.51
425.51	3163.6
425.718	3235.28
425.925	3149.26
426.133	3229.13
426.341	3446.22
426.548	3685.83
426.756	3558.86
426.964	3739.08
427.171	3886.53
427.379	3970.5
427.586	3964.36
427.794	4074.95
428.001	4398.52
428.209	4359.61
428.417	4439.48
428.624	4787.64
428.832	4877.75
429.039	4832.69
429.247	4748.73
429.454	5250.48
429.662	5623.21
429.869	5178.8
430.076	5588.39
430.284	5506.48
430.491	5770.66
430.699	6143.39
430.906	6041
431.114	5957.03
431.321	6237.6
431.528	6428.06
431.736	6763.93
431.943	7187.86
432.15	6897.05
432.358	6942.1
432.565	7441.81
432.772	7318.93
432.979	7755.15
433.187	8000.9
433.394	8121.73
433.601	8426.88
433.808	8371.58
434.016	8457.6
434.223	8684.92
434.43	9323.89
434.637	9291.12
434.844	9600.37
435.052	9907.56
435.259	9727.34
435.466	9887.08
435.673	9741.68
435.88	10634.59
436.087	11038.04
436.294	11138.39
436.501	10681.69
436.708	10984.79
436.915	11244.88
437.122	11810.12
437.329	11670.86
437.537	12049.74
437.743	12350.79
437.95	12205.38
438.157	12848.44
438.364	13358.39
438.571	13487.41
438.778	13264.18
438.985	14621.98
439.192	14079.27
439.399	14572.83
439.606	14181.67
439.813	14910.75
440.02	15994.12
440.227	15768.85
440.433	15742.22
440.64	16153.87
440.847	15856.91
441.054	16438.53
441.261	17280.25
441.467	17095.93
441.674	17577.2
441.881	18205.93
442.088	18046.19
442.294	17939.69
442.501	18515.17
442.708	18922.72
442.914	19616.98
443.121	20350.15
443.328	19825.87
443.534	21097.66
443.741	20675.78
443.948	20247.76
444.154	21761.2
444.361	21390.52
444.568	21767.35
444.774	21920.95
444.981	21955.76
445.187	22717.61
445.394	23680.15
445.6	23436.44
445.807	25662.58
446.013	24380.56
446.22	24968.32
446.426	26012.79
446.633	26354.8
446.839	27059.3
447.046	25748.6
447.252	27464.8
447.459	27153.51
447.665	27280.48
447.871	28312.66
448.078	29817.91
448.284	28036.18
448.491	28963.91
448.697	29989.94
448.903	30366.77
449.11	30876.71
449.316	30313.52
449.522	30639.15
449.728	31589.41
449.935	31810.59
450.141	31607.84
450.347	32236.56
450.553	31687.71
450.76	31818.78
450.966	32863.24
451.172	32662.54
451.378	32889.87
451.584	32771.08
451.791	33362.95
451.997	33463.3
452.203	33799.16
452.409	33649.66
452.615	33360.9
452.821	32410.64
453.027	32289.81
453.233	33735.68
453.44	32316.43
453.646	32865.29
453.852	32984.07
454.058	33653.76
454.264	31912.99
454.47	33113.09
454.676	32332.82
454.882	33166.34
455.088	30415.92
455.294	30661.68
455.5	31374.37
455.705	31648.8
455.911	29957.17
456.117	29703.23
456.323	29082.69
456.529	27536.48
456.735	28875.85
456.941	28343.38
457.147	27698.27
457.352	26754.15
457.558	26532.97
457.764	26764.39
457.97	26133.62
458.176	25291.9
458.381	25588.86
458.587	24302.73
458.793	24179.86
458.999	23159.97
459.204	24759.43
459.41	23983.25
459.616	22670.5
459.821	22596.78
460.027	22113.45
460.233	21841.07
460.438	20712.64
460.644	21214.4
460.85	20022.48
461.055	19758.29
461.261	19791.06
461.466	18173.16
461.672	17712.37
461.878	18994.4
462.083	17816.82
462.289	17499.38
462.494	17153.27
462.7	16549.12
462.905	16321.8
463.111	16766.21
463.316	16833.79
463.522	16303.37
463.727	16571.65
463.932	16432.39
464.138	16334.09
464.343	16168.2
464.549	15611.15
464.754	16362.76
464.959	16332.04
465.165	16096.52
465.37	15451.41
465.575	14888.22
465.781	15559.95
465.986	15879.44
466.191	15179.03
466.397	14898.46
466.602	14062.89
466.807	14683.42
467.012	14607.65
467.218	14523.68
467.423	14447.91
467.628	14540.07
467.833	14884.12
468.038	14685.47
468.244	13868.33
468.449	14820.64
468.654	13972.78
468.859	14017.83
469.064	13995.31
469.269	13477.17
469.474	13487.41
469.679	13782.32
469.885	13133.11
470.09	13671.73
470.295	13624.62
470.5	13073.72
470.705	13268.28
470.91	12897.6
471.115	12852.54
471.32	12932.41
471.525	13008.19
471.73	12645.7
471.935	12557.63
472.139	12330.31
472.344	12170.57
472.549	12250.44
472.754	12090.7
472.959	11789.64
473.164	11576.66
473.369	11390.29
473.574	12078.41
473.778	11726.16
473.983	11801.93
474.188	11658.57
474.393	11138.39
474.598	11007.32
474.802	10974.55
475.007	10911.07
475.212	10896.73
475.417	10442.08
475.621	10450.27
475.826	10689.88
476.031	10327.39
476.235	10171.75
476.44	10257.76
476.645	10245.48
476.849	10093.93
477.054	9999.72
477.259	10048.87
477.463	10050.92
477.668	9561.45
477.872	9764.2
478.077	9567.6
478.282	9506.16
478.486	9319.79
478.691	9231.73
478.895	9106.81
479.1	9063.8
479.304	9127.28
479.509	8797.56
479.713	9100.66
479.918	9104.76
480.122	8799.61
480.326	8859
480.531	8891.77
480.735	8822.14
480.94	8777.08
481.144	9108.85
481.348	8455.55
481.553	8648.06
481.757	8523.13
481.961	8560
482.166	8811.9
482.37	8703.36
482.574	8377.73
482.778	8568.19
482.983	8723.83
483.187	8508.8
483.391	8564.09
483.595	8516.99
483.8	8428.93
484.004	8654.2
484.208	8691.07
484.412	8607.1
484.616	8660.35
484.821	8615.29
485.025	8578.43
485.229	8381.82
485.433	8564.09
485.637	8598.91
485.841	8447.36
486.045	8547.71
486.249	8439.17
486.453	8580.48
486.657	8451.46
486.861	8476.03
487.065	8283.52
487.269	8543.61
487.473	8514.94
487.677	8533.37
487.881	8535.42
488.085	8459.65
488.289	8543.61
488.493	8361.34
488.697	8516.99
488.901	8736.12
489.105	8449.41
489.309	8633.72
489.512	8574.33
489.716	8607.1
489.92	8650.11
490.124	8506.75
490.328	8654.2
490.531	8746.36
490.735	8869.24
490.939	8828.28
491.143	8981.88
491.346	8793.47
491.55	8957.3
491.754	8881.53
491.958	8842.62
492.161	8826.23
492.365	9039.22
492.569	8977.78
492.772	8985.97
492.976	9094.52
493.18	9278.83
493.383	9233.78
493.587	9241.97
493.79	9387.38
493.994	9287.03
494.197	9280.88
494.401	9477.49
494.605	9401.71
494.808	9665.9
495.012	9676.14
495.215	9717.1
495.419	9864.55
495.622	9651.56
495.825	10030.44
496.029	10104.17
496.232	10136.93
496.436	10030.44
496.639	10435.94
496.843	10124.65
497.046	10513.76
497.249	10612.06
497.453	10663.26
497.656	10974.55
497.859	10857.82
498.063	10755.42
498.266	11232.6
498.469	11109.72
498.673	11560.27
498.876	11433.3
499.079	11709.77
499.282	11488.59
499.485	11590.99
499.689	11787.6
499.892	12074.31
500.095	12039.5
500.298	12404.03
500.501	12350.79
500.705	12543.3
500.908	12846.4
501.111	12752.19
501.314	12870.97
501.517	13049.14
501.72	13309.24
501.923	13057.34
502.126	13460.79
502.329	13710.64
502.532	13761.84
502.735	13847.85
502.938	14021.93
503.141	13937.96
503.344	14314.79
503.547	14196.01
503.75	14763.29
503.953	14982.43
504.156	15025.43
504.359	15084.83
504.562	15203.61
504.765	15559.95
504.968	15629.59
505.17	15783.18
505.373	15926.54
505.576	16364.81
505.779	16291.08
505.982	16145.67
506.185	16880.89
506.387	16934.14
506.59	16829.7
506.793	17292.54
506.996	17255.67
507.198	17738.99
507.401	17603.83
507.604	17820.91
507.807	18574.56
508.009	18238.7
508.212	18171.11
508.415	18672.87
508.617	18693.35
508.82	18973.92
509.022	18928.86
509.225	19326.17
509.428	19741.91
509.63	19866.83
509.833	19948.75
510.035	20075.73
510.238	20423.88
510.44	20432.07
510.643	21038.27
510.845	21161.15
511.048	20761.8
511.25	21155.01
511.453	21943.47
511.655	22115.5
511.858	21902.51
512.06	22078.64
512.262	22594.73
512.465	22469.8
512.667	22844.58
512.87	23342.24
513.072	23000.23
513.274	23717.01
513.477	23925.91
513.679	24126.61
513.881	24470.67
514.084	24474.76
514.286	24480.91
514.488	24583.3
514.69	25519.23
514.893	25431.16
515.095	25570.43
515.297	25932.92
515.499	26074.23
515.701	26066.03
515.904	26664.04
516.106	26698.86
516.308	27167.84
516.51	27395.17
516.712	27673.69
516.914	27712.6
517.116	27812.95
517.318	28345.42
517.52	28658.76
517.722	28824.65
517.925	28978.25
518.127	29480
518.329	29594.68
518.531	29357.12
518.733	29879.35
518.935	30321.71
519.136	30254.13
519.338	30880.81
519.54	31052.84
519.742	31357.99
519.944	31484.96
520.146	31933.46
520.348	31929.37
520.55	31990.81
520.752	32150.55
520.954	32949.26
521.155	32439.31
521.357	33172.49
521.559	33534.98
521.761	33803.26
521.963	33897.47
522.164	33983.48
522.366	34087.93
522.568	34640.88
522.77	34681.84
522.971	35101.67
523.173	34694.13
523.375	35116.01
523.576	35341.28
523.778	35873.76
523.98	35929.05
524.181	35972.06
524.383	36479.96
524.584	36991.95
524.786	36762.58
524.988	36785.1
525.189	37280.71
525.391	37532.61
525.592	37598.15
525.794	37864.38
525.995	37708.74
526.197	37854.14
526.398	38118.33
526.6	38509.49
526.801	38540.21
527.003	38702
527.204	38601.65
527.406	38886.32
527.607	39150.51
527.808	39461.8
528.01	39179.18
528.211	39013.29
528.412	40047.52
528.614	39682.98
528.815	40268.7
529.016	40401.82
529.218	40012.7
529.419	39988.13
529.62	40668.05
529.822	40088.48
530.023	40164.25
530.224	40231.83
530.425	40784.79
530.626	40403.86
530.828	40274.84
531.029	40893.33
531.23	40840.08
531.431	40620.95
531.632	40717.2
531.833	41280.39
532.035	40866.7
532.236	41198.48
532.437	41225.1
532.638	40995.73
532.839	41188.24
533.04	41280.39
533.241	40954.77
533.442	41804.67
533.643	41925.5
533.844	41440.14
534.045	41733
534.246	41530.25
534.447	41692.04
534.648	41331.59
534.849	41644.93
535.05	41327.5
535.251	41577.35
535.451	41644.93
535.652	41888.64
535.853	41708.42
536.054	41845.63
536.255	41800.58
536.456	41452.42
536.657	42154.88
536.857	41450.38
537.058	41644.93
537.259	42109.82
537.46	42023.81
537.66	41255.82
537.861	41827.2
538.062	41761.67
538.263	41751.43
538.463	41743.24
538.664	41862.02
538.865	41976.7
539.065	42148.73
539.266	42017.66
539.466	42351.48
539.667	41296.78
539.868	42083.2
540.068	42103.68
540.269	41667.46
540.469	42005.38
540.67	41501.57
540.87	42304.38
541.071	41665.41
541.271	41749.38
541.472	41816.96
541.672	41380.74
541.873	41862.02
542.073	41341.83
542.274	41847.68
542.474	41503.62
542.675	41571.21
542.875	42165.12
543.075	41730.95
543.276	41407.37
543.476	41616.26
543.676	41462.66
543.877	41528.2
544.077	41819.01
544.277	41864.07
544.478	41534.34
544.678	41911.17
544.878	41520.01
545.078	41575.3
545.279	41059.21
545.479	41356.17
545.679	41565.06
545.879	41515.91
546.079	41352.07
546.28	41591.69
546.48	41214.86
546.68	41716.61
546.88	41614.21
547.08	41608.07
547.28	41429.9
547.48	41272.2
547.68	41563.01
547.88	41016.21
548.081	41546.63
548.281	41030.54
548.481	41036.69
548.681	41536.39
548.881	41722.76
549.081	41614.21
549.28	40924.05
549.48	41483.14
549.68	41282.44
549.88	41696.13
550.08	41208.72
550.28	41094.03
550.48	40729.49
550.68	41579.4
550.88	41307.02
551.08	41325.45
551.279	41335.69
551.479	40942.48
551.679	41436.04
551.879	41139.08
552.079	41567.11
552.278	41204.62
552.478	41272.2
552.678	40922
552.878	41378.7
553.077	41112.46
553.277	40950.67
553.477	41759.62
553.676	40952.72
553.876	41110.41
554.076	40692.63
554.275	40545.17
554.475	40532.89
554.674	41165.71
554.874	41206.67
555.074	40700.82
555.273	40805.27
555.473	40825.75
555.672	40244.12
555.872	40551.32
556.071	40489.88
556.271	40561.56
556.47	40422.3
556.67	40276.89
556.869	40444.82
557.068	40739.73
557.268	40151.96
557.467	40094.62
557.667	40182.68
557.866	40104.86
558.065	40006.56
558.265	39773.09
558.464	39949.21
558.663	40154.01
558.863	39580.58
559.062	40592.28
559.261	39664.55
559.461	40348.57
559.66	39359.4
559.859	39594.92
560.058	39383.98
560.258	39642.02
560.457	39355.3
560.656	39859.1
560.855	39343.02
561.054	39490.47
561.253	39205.8
561.453	39070.64
561.652	39080.88
561.851	39863.2
562.05	39154.6
562.249	38642.61
562.448	38919.09
562.647	38798.26
562.846	38697.91
563.045	38669.23
563.244	38257.59
563.443	38765.49
563.642	38206.39
563.841	38593.46
564.04	38396.85
564.239	38683.57
564.438	37958.59
564.637	38380.47
564.836	38370.23
565.035	37657.54
565.234	37841.85
565.432	38003.64
565.631	37733.31
565.83	37764.03
566.029	37471.17
566.228	37379.01
566.427	37723.07
566.625	37295.05
566.824	37098.44
567.023	37549
567.222	36656.08
567.42	37188.55
567.619	36873.17
567.818	37151.69
568.016	36799.44
568.215	37073.87
568.414	36692.94
568.612	36793.29
568.811	36191.19
569.01	36762.58
569.208	36236.25
569.407	36494.29
569.605	35738.59
569.804	36350.93
570.002	35783.65
570.201	36158.42
570.4	35390.44
570.598	35611.62
570.797	35742.69
570.995	35734.49
571.193	35447.78
571.392	35812.32
571.59	34786.29
571.789	35275.75
571.987	35425.25
572.186	35062.76
572.384	34888.68
572.582	35220.45
572.781	34921.45
572.979	34137.08
573.177	34558.96
573.376	34829.29
573.574	34223.09
573.772	34952.17
573.971	34499.57
574.169	34032.63
574.367	34087.93
574.565	34188.28
574.763	34161.65
574.962	33852.41
575.16	33512.45
575.358	33620.99
575.556	33362.95
575.754	33940.47
575.952	33139.72
576.151	33569.79
576.349	32971.78
576.547	33195.01
576.745	33098.76
576.943	33260.55
577.141	33053.7
577.339	32945.16
577.537	32687.12
577.735	32576.53
577.933	32146.45
578.131	33010.7
578.329	32418.83
578.527	32224.28
578.725	32406.55
578.923	32472.08
579.121	31857.69
579.319	32054.29
579.516	32304.15
579.714	31728.67
579.912	31609.89
580.11	31435.81
580.308	31822.87
580.506	31841.31
580.704	31396.9
580.901	31806.49
581.099	31482.91
581.297	30968.87
581.495	31218.72
581.692	31233.06
581.89	30841.9
582.088	31050.79
582.285	30755.88
582.483	30645.29
582.681	30712.88
582.878	30843.95
583.076	30452.78
583.274	30751.79
583.471	30434.35
583.669	30460.98
583.866	30368.82
584.064	30407.73
584.262	29807.67
584.459	30069.81
584.657	29785.15
584.854	29994.04
585.052	29498.43
585.249	30071.86
585.447	29666.36
585.644	29512.77
585.841	29328.45
586.039	29690.94
586.236	29006.92
586.434	29291.59
586.631	29152.32
586.828	29000.77
587.026	28916.81
587.223	29054.02
587.42	28888.14
587.618	28886.09
587.815	28607.56
588.012	28380.24
588.21	28513.36
588.407	28513.36
588.604	28494.93
588.801	28064.85
588.999	28341.33
589.196	28451.92
589.393	27911.25
589.59	27896.92
589.787	27786.33
589.984	27946.07
590.182	27577.44
590.379	28130.39
590.576	27630.68
590.773	27907.16
590.97	27411.55
591.167	27495.52
591.364	27346.01
591.561	27247.71
591.758	27227.23
591.955	27024.48
592.152	27333.73
592.349	27028.58
592.546	27350.11
592.743	26903.65
592.94	26621.03
593.137	26793.06
593.334	26850.41
593.531	26188.91
593.727	26573.93
593.924	26678.38
594.121	26160.24
594.318	26305.65
594.515	25900.15
594.712	26575.98
594.908	25748.6
595.105	26150
595.302	26018.93
595.499	25881.72
595.696	25726.07
595.892	25549.95
596.089	25439.36
596.286	25756.79
596.482	25496.7
596.679	25580.67
596.876	25205.89
597.072	25154.69
597.269	25070.72
597.466	25119.87
597.662	24806.53
597.859	24863.88
598.055	25164.93
598.252	24669.32
598.448	24822.92
598.645	24657.03
598.841	24665.22
599.038	24667.27
599.234	24345.74
599.431	24362.12
599.627	24329.36
599.824	24542.35
600.02	24153.23
600.217	24177.81
600.413	24267.92
600.609	23809.17
600.806	23528.6
601.002	23983.25
601.198	23805.08
601.395	23663.77
601.591	23628.95
601.787	23598.23
601.984	23446.68
602.18	23753.88
602.376	23387.29
602.572	23532.7
602.769	23127.2
602.965	23051.42
603.161	23047.33
603.357	22944.93
603.553	23125.15
603.75	22946.98
603.946	22723.75
604.142	22994.08
604.338	22770.85
604.534	22643.88
604.73	22609.06
604.926	22471.85
605.122	22406.31
605.318	22475.95
605.514	22355.11
605.71	22256.81
605.906	22344.88
606.102	21865.65
606.298	22111.41
606.494	21998.77
606.69	21828.79
606.886	21941.43
607.082	21902.51
607.278	22293.68
607.474	21955.76
607.67	21750.96
607.866	21417.15
608.062	21775.54
608.257	21597.37
608.453	21736.63
608.649	21482.68
608.845	21134.53
609.041	21380.28
609.236	21482.68
609.432	21202.11
609.628	21488.82
609.824	21333.18
610.019	21257.4
610.215	21107.9
610.411	21388.47
610.606	20909.25
610.802	21081.28
610.998	20933.82
611.193	20890.82
611.389	20837.57
611.584	20812.99
611.78	20557
611.976	20956.35
612.171	20833.47
612.367	20655.3
612.562	20808.9
612.758	20425.93
612.953	20253.9
613.149	20858.05
613.344	20450.5
613.539	20747.46
613.735	20331.72
613.93	20178.12
614.126	20184.27
614.321	20534.47
614.517	20241.61
614.712	20141.26
614.907	20139.21
615.103	20208.84
615.298	20155.6
615.493	20327.63
615.688	20065.49
615.884	20608.2
616.079	19944.66
616.274	19985.62
616.47	19991.76
616.665	20040.91
616.86	19774.67
617.055	19825.87
617.25	19653.84
617.445	19784.91
617.641	19457.24
617.836	19928.27
618.031	19492.05
618.226	19592.41
618.421	19231.96
618.616	19610.84
618.811	19102.94
619.006	19545.3
619.201	19117.28
619.396	19330.27
619.591	18689.25
619.786	18851.04
619.981	18580.71
620.176	18894.05
620.371	18713.83
620.566	18879.71
620.761	18769.12
620.956	18529.51
621.151	18273.51
621.346	18445.54
621.541	18445.54
621.735	18398.44
621.93	18191.59
622.125	18038
622.32	17675.51
622.515	18105.58
622.709	17765.62
622.904	17659.12
623.099	17564.92
623.294	17556.72
623.488	17337.59
623.683	17702.13
623.878	17290.49
624.072	17042.68
624.267	17218.81
624.462	17052.92
624.656	17003.77
624.851	16835.84
625.046	16641.28
625.24	16739.58
625.435	16622.85
625.629	16575.75
625.824	16563.46
626.018	16450.82
626.213	16114.95
626.407	16344.33
626.602	16000.27
626.796	15803.66
626.991	15842.57
627.185	15996.17
627.38	15709.46
627.574	15676.69
627.768	15508.76
627.963	15486.23
628.157	15369.49
628.352	15385.88
628.546	15093.02
628.74	15250.71
628.935	14959.9
629.129	15285.53
629.323	14890.27
629.517	14855.45
629.712	14632.22
629.906	14859.55
630.1	14615.84
630.294	14484.77
630.489	14447.91
630.683	14431.52
630.877	14284.07
631.071	14257.45
631.265	14187.82
631.459	14066.99
631.653	14054.7
631.848	13954.35
632.042	13790.51
632.236	13929.77
632.43	13669.68
632.624	13628.72
632.818	13864.24
633.012	13389.11
633.206	13528.37
633.4	13419.83
633.594	13116.73
633.788	13215.03
633.982	13229.37
634.176	13229.37
634.369	12936.51
634.563	13172.02
634.757	13075.77
634.951	12936.51
635.145	12780.86
635.339	12707.13
635.533	12662.08
635.726	12498.24
635.92	12522.82
636.114	12655.93
636.308	12272.96
636.501	12492.1
636.695	12303.68
636.889	12256.58
637.083	12242.25
637.276	12260.68
637.47	12088.65
637.664	12105.03
637.857	11990.35
638.051	11912.52
638.244	11902.28
638.438	11853.13
638.632	11507.02
638.825	11572.56
639.019	11631.95
639.212	11523.41
639.406	11369.81
639.599	11271.51
639.793	11443.54
639.986	10960.22
640.18	11382.1
640.373	11074.9
640.567	10988.89
640.76	11119.96
640.954	10726.75
641.147	10900.83
641.34	10820.95
641.534	10794.33
641.727	10702.17
641.92	10700.12
642.114	10673.5
642.307	10554.72
642.5	10513.76
642.694	10431.84
642.887	10378.59
643.08	10339.68
643.273	10212.71
643.467	10167.65
643.66	10061.16
643.853	10067.3
644.046	9966.95
644.239	10194.28
644.432	10061.16
644.626	9831.79
644.819	9809.26
645.012	9956.71
645.205	9878.89
645.398	9743.72
645.591	9700.72
645.784	9534.83
645.977	9389.42
646.17	9520.49
646.363	9356.66
646.556	9395.57
646.749	9381.23
646.942	9352.56
647.135	9174.39
647.328	9135.48
647.521	9174.39
647.714	9033.08
647.907	9033.08
648.099	9143.67
648.292	8824.19
648.485	8998.26
648.678	8885.62
648.871	8895.86
649.064	8781.18
649.256	8859
649.449	8758.65
649.642	8660.35
649.835	8658.3
650.027	8756.6
650.22	8428.93
650.413	8330.62
650.605	8588.67
650.798	8478.08
650.991	8324.48
651.183	8461.69
651.376	8283.52
651.568	8205.7
651.761	8228.23
651.954	8183.17
652.146	8002.95
652.339	8033.67
652.531	8113.54
652.724	8033.67
652.916	7843.21
653.109	7853.45
653.301	7906.7
653.494	7777.67
653.686	7783.82
653.879	7814.54
654.071	7847.3
654.263	7599.5
654.456	7736.71
654.648	7613.84
654.84	7368.08
655.033	7425.42
655.225	7310.74
655.417	7263.63
655.61	7441.81
655.802	7370.13
655.994	7200.15
656.186	7404.94
656.379	7114.13
656.571	7239.06
656.763	6901.14
656.955	6983.06
657.148	7069.08
657.34	7128.47
657.532	6895
657.724	7044.5
657.916	6925.72
658.108	6825.37
658.3	7028.12
658.492	6929.81
658.684	6655.39
658.876	6837.66
659.068	6849.94
659.26	6743.45
659.452	6780.31
659.644	6651.29
659.836	6587.8
660.028	6380.96
660.22	6454.69
660.412	6491.55
660.604	6370.72
660.796	6483.36
660.988	6317.47
661.18	6239.65
661.372	6225.31
661.563	6344.1
661.755	6389.15
661.947	6323.62
662.139	6124.96
662.331	6229.41
662.522	6124.96
662.714	6100.39
662.906	6053.28
663.097	6122.91
663.289	6094.24
663.481	5911.97
663.673	5930.41
663.864	5883.3
664.056	5735.85
664.247	5778.86
664.439	5811.62
664.631	5807.53
664.822	5844.39
665.014	5674.41
665.205	5815.72
665.397	5668.27
665.588	5590.44
665.78	5588.39
665.971	5610.92
666.163	5551.53
666.354	5502.38
666.546	5539.24
666.737	5615.02
666.929	5412.27
667.12	5486
667.311	5369.26
667.503	5488.04
667.694	5367.21
667.885	5377.45
668.077	5266.86
668.268	5318.06
668.459	5293.49
668.651	5232.05
668.842	5082.55
669.033	5236.14
669.224	5164.47
669.416	5123.51
669.607	5176.75
669.798	5047.73
669.989	4994.48
670.18	4994.48
670.371	5037.49
670.563	4943.28
670.754	4910.52
670.945	4855.22
671.136	5029.3
671.327	4844.98
671.518	4918.71
671.709	4822.45
671.9	4830.65
672.091	4922.8
672.282	4812.21
672.473	4832.69
672.664	4672.95
672.855	4746.68
673.046	4744.63
673.237	4728.25
673.428	4728.25
673.619	4730.3
673.809	4709.82
674	4707.77
674.191	4545.98
674.382	4527.55
674.573	4578.75
674.764	4662.71
674.954	4537.79
675.145	4529.59
675.336	4562.36
675.527	4472.25
675.717	4543.93
675.908	4498.88
676.099	4435.39
676.289	4574.65
676.48	4404.67
676.671	4386.24
676.861	4341.18
677.052	4259.26
677.243	4337.09
677.433	4339.13
677.624	4353.47
677.814	4187.58
678.005	4273.6
678.195	4294.08
678.386	4255.17
678.576	4216.26
678.767	4167.1
678.957	4285.89
679.148	4132.29
679.338	4281.79
679.529	4212.16
679.719	4111.81
679.909	4228.54
680.1	4275.65
680.29	4107.71
680.481	4027.84
680.671	4038.08
680.861	4058.56
681.052	4076.99
681.242	4130.24
681.432	4079.04
681.622	4124.1
681.813	4050.37
682.003	4091.33
682.193	3874.24
682.383	4019.65
682.573	4005.31
682.764	3837.38
682.954	3923.4
683.144	3902.92
683.334	3941.83
683.524	3960.26
683.714	3980.74
683.904	3855.81
684.094	3937.73
684.284	3921.35
684.474	3902.92
684.664	3976.64
684.854	4103.62
685.044	3943.88
685.234	3823.05
685.424	3808.71
685.614	3802.57
685.804	3859.91
685.994	3782.09
686.184	3694.02
686.374	3751.37
686.564	3706.31
686.753	3683.78
686.943	3704.26
687.133	3716.55
687.323	3749.32
687.513	3481.03
687.702	3657.16
687.892	3732.94
688.082	3624.39
688.272	3597.77
688.461	3530.19
688.651	3644.87
688.841	3536.33
689.03	3657.16
689.22	3337.68
689.41	3501.51
689.599	3538.38
689.789	3460.56
689.979	3601.87
690.168	3550.67
690.358	3481.03
690.547	3427.79
690.737	3397.07
690.926	3311.05
691.116	3374.54
691.305	3382.73
691.495	3433.93
691.684	3306.96
691.874	3370.44
692.063	3425.74
692.252	3415.5
692.442	3241.42
692.631	3231.18
692.82	3227.09
693.01	3274.19
693.199	3313.1
693.388	3186.13
693.578	3306.96
693.767	3229.13
693.956	3319.25
694.146	3237.33
694.335	3167.7
694.524	3200.46
694.713	3173.84
694.902	3237.33
695.092	3190.22
695.281	3038.67
695.47	3147.22
695.659	3122.64
695.848	3042.77
696.037	3243.47
696.226	3286.48
696.415	3274.19
696.604	3194.32
696.793	3053.01
696.982	3120.59
697.171	3194.32
697.36	3206.61
697.549	3020.24
697.738	2977.23
697.927	3171.79
698.116	2938.32
698.305	3063.25
698.494	3059.15
698.683	3134.93
698.872	3061.2
699.061	3053.01
699.25	3145.17
699.438	3122.64
699.627	3167.7
699.816	3038.67
700.005	2971.09
700.193	2952.66
700.382	3143.12
700.571	3220.94
700.76	3118.54
700.948	2973.14
701.137	3048.91
701.326	3065.3
701.514	2997.71
701.703	2854.36
701.892	3042.77
702.08	3003.86
702.269	3040.72
702.457	2973.14
702.646	3042.77
702.834	3038.67
703.023	2969.04
703.212	2999.76
703.4	2987.47
703.589	2964.95
703.777	3012.05
703.965	2911.7
704.154	2954.71
704.342	3018.19
704.531	2932.18
704.719	2966.99
704.907	2932.18
705.096	2948.56
705.284	3014.1
705.472	2966.99
705.661	2952.66
705.849	2956.75
706.037	3028.43
706.226	3048.91
706.414	2856.4
706.602	2921.94
706.79	2995.67
706.979	3055.06
707.167	3046.87
707.355	2917.84
707.543	2903.51
707.731	2885.08
707.919	2966.99
708.107	2885.08
708.296	2805.21
708.484	2981.33
708.672	2842.07
708.86	2942.42
709.048	2901.46
709.236	2880.98
709.424	2844.12
709.612	2862.55
709.8	2919.89
709.988	2784.73
710.176	2997.71
710.364	2848.21
710.551	2962.9
710.739	2825.68
710.927	2921.94
711.115	2807.25
711.303	2942.42
711.491	2764.25
711.679	2919.89
711.866	2891.22
712.054	2923.99
712.242	2856.4
712.43	2794.97
712.617	2803.16
712.805	2817.49
712.993	2911.7
713.181	2776.53
713.368	2678.23
713.556	2923.99
713.744	2770.39
713.931	2907.6
714.119	2747.86
714.306	2817.49
714.494	2815.45
714.682	2747.86
714.869	2817.49
715.057	2852.31
715.244	2747.86
715.432	2731.48
715.619	2835.92
715.807	2854.36
715.994	2754.01
716.182	2719.19
716.369	2780.63
716.556	2868.69
716.744	2829.78
716.931	2776.53
717.119	2786.77
717.306	2901.46
717.493	2692.57
717.681	2770.39
717.868	2784.73
718.055	2717.14
718.242	2768.34
718.43	2766.29
718.617	2862.55
718.804	2797.01
718.991	2739.67
719.179	2815.45
719.366	2807.25
719.553	2842.07
719.74	2641.37
719.927	2872.79
720.114	2770.39
720.301	2721.24
720.488	2782.68
720.676	2606.55
720.863	2809.3
721.05	2649.56
721.237	2762.2
721.424	2745.81
721.611	2721.24
721.798	2647.51
721.985	2844.12
722.172	2758.1
722.358	2764.25
722.545	2698.71
722.732	2569.69
722.919	2686.42
723.106	2682.33
723.293	2567.64
723.48	2737.62
723.667	2694.61
723.853	2637.27
724.04	2737.62
724.227	2741.72
724.414	2682.33
724.6	2577.88
724.787	2764.25
724.974	2702.81
725.161	2543.07
725.347	2512.35
725.534	2645.46
725.72	2563.54
725.907	2649.56
726.094	2600.41
726.28	2620.89
726.467	2631.13
726.653	2649.56
726.84	2698.71
727.027	2584.02
727.213	2489.82
727.4	2711
727.586	2643.42
727.773	2602.46
727.959	2518.49
728.145	2590.17
728.332	2641.37
728.518	2557.4
728.705	2647.51
728.891	2584.02
729.077	2528.73
729.264	2655.7
729.45	2641.37
729.636	2661.85
729.823	2614.74
730.009	2571.74
730.195	2512.35
730.382	2622.94
730.568	2711
730.754	2627.03
730.94	2600.41
731.126	2561.5
731.313	2741.72
731.499	2561.5
731.685	2594.26
731.871	2549.21
732.057	2577.88
732.243	2555.35
732.429	2569.69
732.615	2559.45
732.801	2667.99
732.987	2487.77
733.173	2692.57
733.359	2555.35
733.545	2526.68
733.731	2541.02
733.917	2524.63
734.103	2538.97
734.289	2514.39
734.475	2485.72
734.661	2534.87
734.847	2614.74
735.033	2469.34
735.219	2450.91
735.404	2463.19
735.59	2545.11
735.776	2467.29
735.962	2440.67
736.148	2508.25
736.333	2473.43
736.519	2389.47
736.705	2364.89
736.89	2424.28
737.076	2463.19
737.262	2473.43
737.447	2424.28
737.633	2420.19
737.819	2555.35
738.004	2469.34
738.19	2506.2
738.375	2414.04
738.561	2446.81
738.747	2393.56
738.932	2467.29
739.118	2463.19
739.303	2332.12
739.489	2450.91
739.674	2399.71
739.859	2387.42
740.045	2469.34
740.23	2330.08
740.416	2285.02
740.601	2246.11
740.786	2344.41
740.972	2168.29
741.157	2313.69
741.342	2149.86
741.528	2282.97
741.713	2242.01
741.898	2321.88
742.084	2301.4
742.269	2307.55
742.454	2178.53
742.639	2209.25
742.824	2299.36
743.01	2158.05
743.195	2162.14
743.38	2248.16
743.565	2102.75
743.75	2346.46
743.935	2225.63
744.12	2156
744.305	2188.77
744.49	2102.75
744.675	2147.81
744.86	2207.2
745.045	2246.11
745.23	2119.14
745.415	2172.38
745.6	2112.99
745.785	2045.41
745.97	2043.36
746.155	2086.37
746.34	2043.36
746.525	2096.61
746.71	2020.83
746.895	2043.36
747.079	2053.6
747.264	1936.87
747.449	1969.63
747.634	1936.87
747.819	1963.49
748.003	1836.52
748.188	2033.12
748.373	1967.59
748.557	1902.05
748.742	1904.1
748.927	1869.28
749.111	1867.24
749.296	1850.85
749.481	1859.04
749.665	1795.56
749.85	1789.41
750.034	1834.47
750.219	1889.76
750.404	1805.8
750.588	1852.9
750.773	1838.56
750.957	1715.69
751.141	1818.08
751.326	1748.45
751.51	1756.65
751.695	1627.62
751.879	1682.92
752.064	1748.45
752.248	1674.73
752.432	1570.28
752.617	1682.92
752.801	1611.24
752.985	1691.11
753.17	1551.85
753.354	1625.58
753.538	1703.4
753.722	1676.77
753.907	1725.93
754.091	1607.14
754.275	1588.71
754.459	1484.27
754.643	1637.86
754.828	1584.62
755.012	1469.93
755.196	1471.98
755.38	1420.78
755.564	1504.75
755.748	1551.85
755.932	1381.87
756.116	1484.27
756.3	1422.83
756.484	1334.76
756.668	1383.91
756.852	1349.1
757.036	1363.44
757.22	1449.45
757.404	1390.06
757.588	1383.91
757.772	1365.48
757.956	1390.06
758.14	1437.16
758.323	1312.24
758.507	1355.24
758.691	1312.24
758.875	1254.89
759.059	1258.99
759.242	1236.46
759.426	1275.37
759.61	1373.68
759.794	1261.04
759.977	1181.17
760.161	1306.09
760.345	1242.61
760.528	1254.89
760.712	1297.9
760.895	1310.19
761.079	1211.89
761.263	1187.31
761.446	1140.21
761.63	1158.64
761.813	1256.94
761.997	1109.49
762.18	1191.41
762.364	1252.84
762.547	1220.08
762.731	1168.88
762.914	1242.61
763.098	1123.82
763.281	1273.32
763.464	1129.97
763.648	1148.4
763.831	1109.49
764.015	1035.76
764.198	1078.77
764.381	1064.43
764.564	1111.54
764.748	1136.11
764.931	1218.03
765.114	1142.25
765.297	1125.87
765.481	1052.14
765.664	1068.53
765.847	1160.69
766.03	1121.77
766.213	1039.86
766.397	1046
766.58	1189.36
766.763	1099.25
766.946	1025.52
767.129	1060.34
767.312	972.27
767.495	1025.52
767.678	1058.29
767.861	1035.76
768.044	1021.42
768.227	972.27
768.41	1002.99
768.593	1101.3
768.776	1031.66
768.959	1109.49
769.142	966.13
769.324	900.59
769.507	996.85
769.69	949.75
769.873	888.31
770.056	1058.29
770.239	992.75
770.421	1007.09
770.604	1041.9
770.787	921.07
770.97	1082.86
771.152	1015.28
771.335	1046
771.518	863.73
771.7	921.07
771.883	933.36
772.066	925.17
772.248	953.84
772.431	896.5
772.613	910.83
772.796	937.46
772.978	878.07
773.161	972.27
773.343	865.78
773.526	886.26
773.708	869.87
773.891	888.31
774.073	923.12
774.256	880.11
774.438	861.68
774.621	740.85
774.803	861.68
774.985	798.2
775.168	826.87
775.35	726.52
775.532	908.79
775.715	765.43
775.897	767.48
776.079	753.14
776.261	865.78
776.444	779.76
776.626	812.53
776.808	753.14
776.99	775.67
777.173	761.33
777.355	833.01
777.537	716.28
777.719	804.34
777.901	663.03
778.083	720.37
778.265	638.45
778.447	826.87
778.629	769.52
778.811	720.37
778.993	669.17
779.175	708.09
779.357	642.55
779.539	706.04
779.721	652.79
779.903	687.61
780.085	671.22
780.267	669.17
780.449	691.7
780.631	663.03
780.812	609.78
780.994	603.64
781.176	587.26
781.358	617.97
781.54	656.89
781.721	617.97
781.903	628.21
782.085	663.03
782.267	577.02
782.448	607.73
782.63	626.17
782.812	622.07
782.993	581.11
783.175	624.12
783.357	534.01
783.538	593.4
783.72	611.83
783.901	554.49
784.083	552.44
784.264	529.91
784.446	484.86
784.627	581.11
784.809	482.81
784.99	497.14
785.172	591.35
785.353	546.3
785.535	538.1
785.716	495.1
785.897	464.38
786.079	495.1
786.26	546.3
786.441	470.52
786.623	517.62
786.804	552.44
786.985	493.05
787.167	450.04
787.348	495.1
787.529	423.42
787.71	464.38
787.891	482.81
788.073	468.47
788.254	450.04
788.435	456.19
788.616	380.41
788.797	345.59
788.978	464.38
789.159	421.37
789.34	384.51
789.522	343.55
789.703	472.57
789.884	423.42
790.065	396.79
790.246	400.89
790.427	439.8
790.607	388.6
790.788	386.55
790.969	386.55
791.15	392.7
791.331	402.94
791.512	361.98
791.693	366.07
791.874	386.55
792.054	450.04
792.235	417.27
792.416	458.23
792.597	419.32
792.778	296.44
792.958	353.79
793.139	331.26
793.32	361.98
793.5	316.92
793.681	429.56
793.862	386.55
794.042	347.64
794.223	357.88
794.404	351.74
794.584	359.93
794.765	308.73
794.945	400.89
795.126	396.79
795.306	343.55
795.487	357.88
795.667	335.35
795.848	267.77
796.028	331.26
796.209	368.12
796.389	331.26
796.57	290.3
796.75	376.31
796.93	296.44
797.111	200.19
797.291	280.06
797.471	255.48
797.652	323.07
797.832	325.12
798.012	339.45
798.192	345.59
798.373	296.44
798.553	249.34
798.733	273.92
798.913	306.68
799.093	226.81
799.274	318.97
799.454	253.44
799.634	329.21
799.814	292.35
799.994	302.59
800.174	237.05
800.354	278.01
800.534	218.62
800.714	257.53
800.894	261.63
801.074	210.43
801.254	278.01
801.434	327.16
801.614	273.92
801.794	224.76
801.974	622.07
802.154	218.62
802.334	275.96
802.514	189.95
802.693	167.42
802.873	235
803.053	202.24
803.233	241.15
803.413	210.43
803.592	278.01
803.772	210.43
803.952	206.33
804.131	224.76
804.311	249.34
804.491	267.77
804.67	214.52
804.85	181.76
805.03	216.57
805.209	218.62
805.389	261.63
805.568	253.44
805.748	280.06
805.928	237.05
806.107	249.34
806.287	204.28
806.466	189.95
806.646	142.85
806.825	230.91
807.004	187.9
807.184	204.28
807.363	173.57
807.543	202.24
807.722	210.43
807.901	263.68
808.081	212.48
808.26	122.37
808.439	185.85
808.619	210.43
808.798	181.76
808.977	218.62
809.156	273.92
809.336	171.52
809.515	247.29
809.694	196.09
809.873	146.94
810.052	216.57
810.231	183.81
810.411	175.61
810.59	187.9
810.769	142.85
810.948	165.37
811.127	183.81
811.306	218.62
811.485	192
811.664	181.76
811.843	155.13
812.022	241.15
812.201	224.76
812.38	130.56
812.559	163.33
812.737	153.09
812.916	140.8
813.095	116.22
813.274	171.52
813.453	218.62
813.632	187.9
813.811	167.42
813.989	200.19
814.168	173.57
814.347	60.93
814.526	179.71
814.704	183.81
814.883	247.29
815.062	237.05
815.24	202.24
815.419	171.52
815.598	173.57
815.776	140.8
815.955	132.61
816.133	132.61
816.312	167.42
816.49	138.75
816.669	140.8
816.847	144.89
817.026	79.36
817.204	155.13
817.383	204.28
817.561	214.52
817.74	155.13
817.918	153.09
818.097	157.18
818.275	126.46
818.453	200.19
818.632	105.98
818.81	124.41
818.988	148.99
819.167	136.7
819.345	114.17
819.523	155.13
819.701	126.46
819.879	169.47
820.058	173.57
820.236	148.99
820.414	153.09
820.592	75.26
820.77	81.41
820.948	105.98
821.127	122.37
821.305	140.8
821.483	138.75
821.661	187.9
821.839	151.04
822.017	134.65
822.195	140.8
822.373	157.18
822.551	87.55
822.729	120.32
822.907	79.36
823.085	118.27
823.262	146.94
823.44	110.08
823.618	112.13
823.796	118.27
823.974	118.27
824.152	124.41
824.329	151.04
824.507	208.38
824.685	79.36
824.863	108.03
825.04	120.32
825.218	87.55
825.396	165.37
825.574	134.65
825.751	93.69
825.929	155.13
826.107	101.89
826.284	87.55
826.462	101.89
826.639	99.84
826.817	77.31
826.994	69.12
827.172	99.84
827.349	54.78
827.527	171.52
827.704	65.02
827.882	58.88
828.059	155.13
828.237	120.32
828.414	93.69
828.591	93.69
828.769	110.08
828.946	108.03
829.124	142.85
829.301	159.23
829.478	46.59
829.655	93.69
829.833	128.51
830.01	65.02
830.187	118.27
830.364	108.03
830.542	54.78
830.719	126.46
830.896	30.21
831.073	67.07
831.25	75.26
831.427	67.07
831.604	42.5
831.782	-20.99
831.959	118.27
832.136	36.35
832.313	146.94
832.49	54.78
832.667	89.6
832.844	73.21
833.021	32.26
833.198	110.08
833.374	79.36
833.551	13.82
833.728	73.21
833.905	105.98
834.082	89.6
834.259	24.06
834.436	73.21
834.612	19.97
834.789	42.5
834.966	75.26
835.143	93.69
835.319	56.83
835.496	144.89
835.673	93.69
835.85	105.98
836.026	38.4
836.203	118.27
836.38	73.21
836.556	101.89
836.733	110.08
836.909	54.78
837.086	54.78
837.262	89.6
837.439	101.89
837.616	151.04
837.792	148.99
837.968	101.89
838.145	11.78
838.321	19.97
838.498	71.17
838.674	71.17
838.851	48.64
839.027	19.97
839.203	58.88
839.38	126.46
839.556	62.98
839.732	116.22
839.909	19.97
840.085	116.22
840.261	89.6
840.437	17.92
840.614	62.98
840.79	44.54
840.966	42.5
841.142	122.37
841.318	46.59
841.494	138.75
841.671	89.6
841.847	62.98
842.023	5.63
842.199	52.74
842.375	134.65
842.551	46.59
842.727	58.88
842.903	56.83
843.079	11.78
843.255	101.89
843.431	75.26
843.607	97.79
843.783	54.78
843.959	50.69
844.134	-2.56
844.31	9.73
844.486	110.08
844.662	75.26
844.838	-18.94
845.013	-10.75
845.189	54.78
845.365	36.35
845.541	87.55
845.716	56.83
845.892	60.93
846.068	48.64
846.244	9.73
846.419	52.74
846.595	9.73
846.77	38.4
846.946	157.18
847.122	15.87
847.297	103.93
847.473	36.35
847.648	77.31
847.824	-0.51
847.999	40.45
848.175	93.69
848.35	40.45
848.526	54.78
848.701	67.07
848.876	77.31
849.052	97.79
849.227	26.11
849.403	91.65
849.578	85.5
849.753	56.83
849.929	60.93
850.104	-20.99
850.279	-18.94
850.454	9.73
850.63	56.83
850.805	46.59
850.98	60.93
851.155	17.92
851.33	77.31
851.505	24.06
851.681	19.97
851.856	77.31
852.031	58.88
852.206	79.36
852.381	50.69
852.556	-27.14
852.731	50.69
852.906	118.27
853.081	24.06
853.256	120.32
853.431	34.3
853.606	19.97
853.781	58.88
853.956	17.92
854.131	-2.56
854.305	50.69
854.48	3.58
854.655	15.87
854.83	93.69
855.005	30.21
855.18	60.93
855.354	-25.09
855.529	32.26
855.704	48.64
855.879	46.59
856.053	48.64
856.228	71.17
856.403	65.02
856.577	38.4
856.752	24.06
856.926	58.88
857.101	-2.56
857.276	22.02
857.45	99.84
857.625	-10.75
857.799	28.16
857.974	24.06
858.148	69.12
858.323	81.41
858.497	-29.18
858.672	-33.28
858.846	46.59
859.02	1.54
859.195	-20.99
859.369	-33.28
859.543	58.88
859.718	19.97
859.892	-8.7
860.066	19.97
860.241	-18.94
860.415	28.16
860.589	32.26
860.763	42.5
860.938	-20.99
861.112	60.93
861.286	5.63
861.46	13.82
861.634	-12.8
861.808	26.11
861.982	32.26
862.157	9.73
862.331	-43.52
862.505	40.45
862.679	-33.28
862.853	15.87
863.027	1.54
863.201	65.02
863.375	19.97
863.549	-16.9
863.722	19.97
863.896	85.5
864.07	15.87
864.244	71.17
864.418	-27.14
864.592	58.88
864.766	56.83
864.939	44.54
865.113	-25.09
865.287	77.31
865.461	7.68
865.634	48.64
865.808	26.11
865.982	40.45
866.156	30.21
866.329	15.87
866.503	24.06
866.676	9.73
866.85	54.78
867.024	3.58
867.197	24.06
867.371	36.35
867.544	44.54
867.718	-14.85
867.891	87.55
868.065	-6.66
868.238	5.63
868.412	9.73
868.585	44.54
868.759	44.54
868.932	32.26
869.105	5.63
869.279	22.02
869.452	7.68
869.625	-10.75
869.799	-4.61
869.972	26.11
870.145	-53.76
870.319	48.64
870.492	-8.7
870.665	44.54
870.838	-0.51
871.011	-35.33
871.185	-37.38
871.358	46.59
871.531	-16.9
871.704	36.35
871.877	-35.33
872.05	32.26
872.223	-6.66
872.396	34.3
872.569	56.83
872.742	-16.9
872.915	34.3
873.088	3.58
873.261	-27.14
873.434	-20.99
873.607	-12.8
873.78	24.06
873.953	48.64
874.126	-4.61
874.299	34.3
874.471	34.3
874.644	-10.75
874.817	65.02
874.99	54.78
875.163	34.3
875.335	32.26
875.508	42.5
875.681	42.5
875.853	13.82
876.026	83.45
876.199	24.06
876.371	3.58
876.544	-12.8
876.717	32.26
876.889	-8.7
877.062	52.74
877.234	3.58
877.407	71.17
877.579	17.92
877.752	38.4
877.924	34.3
878.097	77.31
878.269	-66.05
878.442	-20.99
878.614	13.82
878.786	34.3
878.959	-10.75
879.131	11.78
879.303	-0.51
879.476	36.35
879.648	17.92
879.82	28.16
879.993	-12.8
880.165	62.98
880.337	-27.14
880.509	-16.9
880.681	-57.86
880.854	-20.99
881.026	9.73
881.198	-0.51
881.37	-16.9
881.542	3.58
881.714	62.98
881.886	32.26
882.058	19.97
882.23	-68.09
882.402	28.16
882.574	3.58
882.746	30.21
882.918	-25.09
883.09	-64
883.262	-31.23
883.434	-41.47
883.606	42.5
883.778	81.41
883.95	-0.51
884.122	52.74
884.293	15.87
884.465	26.11
884.637	28.16
884.809	-18.94
884.98	-4.61
885.152	-4.61
885.324	24.06
885.496	-49.66
885.667	-41.47
885.839	-72.19
886.011	69.12
886.182	60.93
886.354	-14.85
886.525	-45.57
886.697	114.17
886.869	7.68
887.04	-33.28
887.212	-0.51
887.383	79.36
887.555	22.02
887.726	1.54
887.897	-41.47
888.069	9.73
888.24	-2.56
888.412	52.74
888.583	19.97
888.754	3.58
888.926	15.87
889.097	-8.7
889.268	5.63
889.44	30.21
889.611	-51.71
889.782	60.93
889.953	-45.57
890.125	36.35
890.296	-2.56
890.467	75.26
890.638	7.68
890.809	77.31
890.98	3.58
891.151	24.06
891.323	19.97
891.494	40.45
891.665	22.02
891.836	-25.09
892.007	13.82
892.178	1.54
892.349	60.93
892.52	54.78
892.691	19.97
892.862	-37.38
893.032	5.63
893.203	5.63
893.374	-12.8
893.545	24.06
893.716	81.41
893.887	-0.51
894.057	50.69
894.228	24.06
894.399	44.54
894.57	36.35
894.74	-20.99
894.911	19.97
895.082	42.5
895.253	-20.99
895.423	40.45
895.594	7.68
895.764	-25.09
895.935	44.54
896.106	-29.18
896.276	-4.61
896.447	69.12
896.617	-0.51
896.788	1.54
896.958	-59.9
897.129	17.92
897.299	-25.09
897.47	-6.66
897.64	-16.9
897.81	30.21
897.981	62.98
898.151	24.06
898.322	69.12
898.492	-33.28
898.662	-37.38
898.832	52.74
899.003	-18.94
899.173	-49.66
899.343	15.87
899.513	50.69
