Data from USB4F104151__297__11-13-09-079.txt Node

Date: Wed Mar 12 11:13:09 EDT 2025
User: louis
Spectrometer: USB4F10415
Trigger mode: 4
Integration Time (sec): 2.000000E-2
Scans to average: 1
Electric dark correction enabled: true
Nonlinearity correction enabled: false
Boxcar width: 0
XAxis mode: Wavelengths
Number of Pixels in Spectrum: 3648
>>>>>Begin Spectral Data<<<<<
178.204	-100.35
178.424	-100.35
178.644	-100.35
178.864	-59.39
179.084	-94.21
179.304	-20.48
179.524	0
179.744	-75.77
179.964	26.62
180.184	67.58
180.404	16.38
180.624	20.48
180.844	-71.68
181.064	-4.1
181.283	26.62
181.503	-47.1
181.723	61.44
181.943	4.1
182.163	32.77
182.383	-81.92
182.602	20.48
182.822	28.67
183.042	47.1
183.262	-18.43
183.482	-26.62
183.701	38.91
183.921	28.67
184.141	-18.43
184.361	59.39
184.58	45.06
184.8	55.3
185.02	14.34
185.239	45.06
185.459	51.2
185.679	-6.14
185.898	30.72
186.118	86.01
186.338	73.73
186.557	20.48
186.777	-26.62
186.997	45.06
187.216	4.1
187.436	61.44
187.655	47.1
187.875	18.43
188.095	-36.86
188.314	34.82
188.534	-34.82
188.753	24.58
188.973	-75.77
189.192	8.19
189.412	28.67
189.631	47.1
189.851	6.14
190.07	22.53
190.29	100.35
190.509	-30.72
190.729	-8.19
190.948	61.44
191.168	22.53
191.387	32.77
191.607	-24.58
191.826	94.21
192.045	63.49
192.265	71.68
192.484	16.38
192.704	59.39
192.923	18.43
193.142	79.87
193.362	8.19
193.581	34.82
193.8	24.58
194.02	75.77
194.239	-20.48
194.458	45.06
194.678	-28.67
194.897	-22.53
195.116	0
195.335	28.67
195.555	45.06
195.774	79.87
195.993	34.82
196.212	14.34
196.432	28.67
196.651	53.25
196.87	-2.05
197.089	-36.86
197.308	36.86
197.528	51.2
197.747	36.86
197.966	-22.53
198.185	53.25
198.404	2.05
198.623	14.34
198.842	-20.48
199.062	90.11
199.281	-2.05
199.5	12.29
199.719	38.91
199.938	43.01
200.157	73.73
200.376	20.48
200.595	16.38
200.814	73.73
201.033	96.25
201.252	53.25
201.471	-86.01
201.69	24.58
201.909	-2.05
202.128	-12.29
202.347	16.38
202.566	20.48
202.785	88.06
203.004	16.38
203.223	53.25
203.442	-16.38
203.661	43.01
203.879	47.1
204.098	24.58
204.317	-30.72
204.536	71.68
204.755	73.73
204.974	-51.2
205.193	47.1
205.411	14.34
205.63	38.91
205.849	59.39
206.068	4.1
206.287	-26.62
206.505	73.73
206.724	24.58
206.943	-30.72
207.162	18.43
207.381	-71.68
207.599	36.86
207.818	81.92
208.037	-20.48
208.255	49.15
208.474	6.14
208.693	14.34
208.911	22.53
209.13	-16.38
209.349	34.82
209.567	18.43
209.786	45.06
210.005	-40.96
210.223	-10.24
210.442	14.34
210.661	22.53
210.879	-4.1
211.098	-77.82
211.316	49.15
211.535	73.73
211.753	12.29
211.972	30.72
212.191	4.1
212.409	-26.62
212.628	16.38
212.846	8.19
213.065	-49.15
213.283	55.3
213.502	45.06
213.72	69.63
213.938	26.62
214.157	-4.1
214.375	59.39
214.594	38.91
214.812	30.72
215.031	28.67
215.249	12.29
215.467	20.48
215.686	-63.49
215.904	79.87
216.122	2.05
216.341	12.29
216.559	-20.48
216.778	55.3
216.996	77.82
217.214	22.53
217.432	32.77
217.651	24.58
217.869	-43.01
218.087	20.48
218.306	12.29
218.524	65.54
218.742	22.53
218.96	77.82
219.179	38.91
219.397	-28.67
219.615	106.49
219.833	0
220.051	-24.58
220.27	114.69
220.488	49.15
220.706	67.58
220.924	-8.19
221.142	100.35
221.36	45.06
221.578	53.25
221.796	-53.25
222.015	-38.91
222.233	14.34
222.451	92.16
222.669	10.24
222.887	-53.25
223.105	14.34
223.323	71.68
223.541	20.48
223.759	16.38
223.977	51.2
224.195	79.87
224.413	6.14
224.631	67.58
224.849	51.2
225.067	-24.58
225.285	-8.19
225.503	32.77
225.721	-61.44
225.939	26.62
226.157	-4.1
226.375	22.53
226.592	34.82
226.81	36.86
227.028	16.38
227.246	92.16
227.464	40.96
227.682	18.43
227.9	-10.24
228.117	-10.24
228.335	28.67
228.553	10.24
228.771	12.29
228.989	51.2
229.206	14.34
229.424	77.82
229.642	59.39
229.86	32.77
230.077	102.4
230.295	-20.48
230.513	26.62
230.731	-22.53
230.948	57.34
231.166	10.24
231.384	14.34
231.601	71.68
231.819	98.3
232.037	-26.62
232.254	-30.72
232.472	38.91
232.689	30.72
232.907	18.43
233.125	36.86
233.342	6.14
233.56	83.97
233.777	53.25
233.995	-30.72
234.213	36.86
234.43	43.01
234.648	-4.1
234.865	-16.38
235.083	86.01
235.3	4.1
235.518	43.01
235.735	55.3
235.953	57.34
236.17	79.87
236.388	124.93
236.605	63.49
236.822	81.92
237.04	-26.62
237.257	110.59
237.475	-16.38
237.692	36.86
237.909	-22.53
238.127	4.1
238.344	83.97
238.562	47.1
238.779	-16.38
238.996	24.58
239.214	8.19
239.431	32.77
239.648	73.73
239.865	34.82
240.083	-6.14
240.3	24.58
240.517	-10.24
240.735	6.14
240.952	59.39
241.169	-24.58
241.386	28.67
241.603	36.86
241.821	-16.38
242.038	55.3
242.255	79.87
242.472	40.96
242.689	63.49
242.907	26.62
243.124	22.53
243.341	30.72
243.558	8.19
243.775	81.92
243.992	-51.2
244.209	36.86
244.426	114.69
244.643	55.3
244.86	71.68
245.078	4.1
245.295	18.43
245.512	59.39
245.729	43.01
245.946	38.91
246.163	-43.01
246.38	40.96
246.597	-16.38
246.814	51.2
247.031	26.62
247.248	28.67
247.464	24.58
247.681	26.62
247.898	-4.1
248.115	65.54
248.332	24.58
248.549	24.58
248.766	28.67
248.983	12.29
249.2	32.77
249.417	6.14
249.633	40.96
249.85	22.53
250.067	40.96
250.284	94.21
250.501	86.01
250.717	20.48
250.934	16.38
251.151	28.67
251.368	12.29
251.585	40.96
251.801	18.43
252.018	36.86
252.235	133.12
252.451	4.1
252.668	59.39
252.885	69.63
253.102	6.14
253.318	49.15
253.535	36.86
253.752	47.1
253.968	131.07
254.185	8.19
254.401	38.91
254.618	86.01
254.835	57.34
255.051	75.77
255.268	53.25
255.484	34.82
255.701	61.44
255.917	61.44
256.134	77.82
256.351	55.3
256.567	67.58
256.784	55.3
257	-20.48
257.217	32.77
257.433	-20.48
257.65	55.3
257.866	88.06
258.082	6.14
258.299	-6.14
258.515	59.39
258.732	-24.58
258.948	106.49
259.165	12.29
259.381	12.29
259.597	77.82
259.814	2.05
260.03	24.58
260.246	30.72
260.463	38.91
260.679	143.36
260.895	49.15
261.112	143.36
261.328	2.05
261.544	49.15
261.761	77.82
261.977	12.29
262.193	-8.19
262.409	34.82
262.626	-6.14
262.842	26.62
263.058	90.11
263.274	-28.67
263.49	-10.24
263.707	16.38
263.923	32.77
264.139	-14.34
264.355	94.21
264.571	8.19
264.787	-4.1
265.004	10.24
265.22	16.38
265.436	-22.53
265.652	-36.86
265.868	75.77
266.084	32.77
266.3	75.77
266.516	6.14
266.732	-10.24
266.948	0
267.164	83.97
267.38	59.39
267.596	-2.05
267.812	12.29
268.028	47.1
268.244	-24.58
268.46	18.43
268.676	6.14
268.892	-51.2
269.108	-63.49
269.324	-30.72
269.54	43.01
269.756	36.86
269.972	49.15
270.188	20.48
270.403	-28.67
270.619	-4.1
270.835	51.2
271.051	12.29
271.267	57.34
271.483	0
271.698	8.19
271.914	86.01
272.13	90.11
272.346	45.06
272.562	30.72
272.777	49.15
272.993	6.14
273.209	32.77
273.425	73.73
273.64	-10.24
273.856	24.58
274.072	22.53
274.287	20.48
274.503	10.24
274.719	-4.1
274.934	36.86
275.15	-8.19
275.366	61.44
275.581	22.53
275.797	112.64
276.012	63.49
276.228	-34.82
276.444	-8.19
276.659	75.77
276.875	75.77
277.09	-28.67
277.306	26.62
277.521	20.48
277.737	28.67
277.952	45.06
278.168	12.29
278.383	32.77
278.599	-20.48
278.814	47.1
279.03	-16.38
279.245	59.39
279.461	55.3
279.676	49.15
279.892	40.96
280.107	-10.24
280.322	28.67
280.538	4.1
280.753	4.1
280.969	-40.96
281.184	65.54
281.399	32.77
281.615	106.49
281.83	90.11
282.045	-28.67
282.26	20.48
282.476	49.15
282.691	67.58
282.906	36.86
283.122	28.67
283.337	86.01
283.552	0
283.767	55.3
283.983	43.01
284.198	32.77
284.413	-12.29
284.628	-30.72
284.843	49.15
285.058	24.58
285.274	-8.19
285.489	-8.19
285.704	59.39
285.919	45.06
286.134	73.73
286.349	32.77
286.564	32.77
286.779	12.29
286.995	16.38
287.21	14.34
287.425	-2.05
287.64	-8.19
287.855	53.25
288.07	-40.96
288.285	53.25
288.5	96.25
288.715	16.38
288.93	28.67
289.145	-4.1
289.36	40.96
289.575	16.38
289.79	34.82
290.004	32.77
290.219	26.62
290.434	2.05
290.649	2.05
290.864	12.29
291.079	6.14
291.294	30.72
291.509	-26.62
291.724	32.77
291.938	51.2
292.153	43.01
292.368	4.1
292.583	-2.05
292.798	131.07
293.012	45.06
293.227	-24.58
293.442	65.54
293.657	45.06
293.871	40.96
294.086	47.1
294.301	65.54
294.516	92.16
294.73	-2.05
294.945	-26.62
295.16	65.54
295.374	14.34
295.589	53.25
295.804	8.19
296.018	10.24
296.233	129.02
296.447	73.73
296.662	32.77
296.877	65.54
297.091	38.91
297.306	36.86
297.52	28.67
297.735	81.92
297.949	34.82
298.164	20.48
298.378	75.77
298.593	4.1
298.807	20.48
299.022	67.58
299.236	26.62
299.451	86.01
299.665	63.49
299.88	-12.29
300.094	40.96
300.309	-4.1
300.523	-10.24
300.737	18.43
300.952	61.44
301.166	71.68
301.381	6.14
301.595	-38.91
301.809	-12.29
302.024	61.44
302.238	-45.06
302.452	81.92
302.667	81.92
302.881	38.91
303.095	49.15
303.309	51.2
303.524	-14.34
303.738	-51.2
303.952	-36.86
304.166	69.63
304.381	-38.91
304.595	32.77
304.809	124.93
305.023	45.06
305.237	-20.48
305.452	-22.53
305.666	12.29
305.88	18.43
306.094	16.38
306.308	45.06
306.522	8.19
306.736	157.69
306.95	20.48
307.164	73.73
307.379	14.34
307.593	34.82
307.807	108.54
308.021	-30.72
308.235	0
308.449	14.34
308.663	22.53
308.877	10.24
309.091	53.25
309.305	73.73
309.519	-32.77
309.733	55.3
309.947	-6.14
310.161	-14.34
310.374	90.11
310.588	86.01
310.802	49.15
311.016	30.72
311.23	16.38
311.444	108.54
311.658	47.1
311.872	30.72
312.085	10.24
312.299	53.25
312.513	51.2
312.727	2.05
312.941	-6.14
313.154	49.15
313.368	0
313.582	59.39
313.796	77.82
314.009	59.39
314.223	67.58
314.437	112.64
314.651	-4.1
314.864	-2.05
315.078	30.72
315.292	-12.29
315.505	92.16
315.719	43.01
315.933	-6.14
316.146	59.39
316.36	12.29
316.573	12.29
316.787	16.38
317.001	83.97
317.214	49.15
317.428	55.3
317.641	-32.77
317.855	69.63
318.068	83.97
318.282	22.53
318.495	55.3
318.709	6.14
318.922	40.96
319.136	55.3
319.349	96.25
319.563	63.49
319.776	24.58
319.99	12.29
320.203	69.63
320.417	18.43
320.63	100.35
320.843	57.34
321.057	26.62
321.27	16.38
321.483	4.1
321.697	12.29
321.91	28.67
322.124	12.29
322.337	-43.01
322.55	34.82
322.763	8.19
322.977	69.63
323.19	96.25
323.403	71.68
323.617	40.96
323.83	67.58
324.043	4.1
324.256	63.49
324.469	67.58
324.683	90.11
324.896	10.24
325.109	28.67
325.322	16.38
325.535	22.53
325.748	18.43
325.962	73.73
326.175	2.05
326.388	65.54
326.601	45.06
326.814	-16.38
327.027	59.39
327.24	24.58
327.453	14.34
327.666	69.63
327.879	8.19
328.092	88.06
328.305	20.48
328.518	77.82
328.731	53.25
328.944	32.77
329.157	0
329.37	49.15
329.583	98.3
329.796	4.1
330.009	0
330.222	4.1
330.435	34.82
330.648	120.83
330.861	63.49
331.073	24.58
331.286	2.05
331.499	22.53
331.712	131.07
331.925	26.62
332.138	-4.1
332.35	26.62
332.563	12.29
332.776	10.24
332.989	16.38
333.202	34.82
333.414	73.73
333.627	26.62
333.84	77.82
334.053	81.92
334.265	30.72
334.478	51.2
334.691	106.49
334.903	102.4
335.116	28.67
335.329	102.4
335.541	12.29
335.754	116.73
335.966	2.05
336.179	8.19
336.392	-2.05
336.604	30.72
336.817	-34.82
337.029	57.34
337.242	16.38
337.454	67.58
337.667	22.53
337.88	32.77
338.092	4.1
338.305	43.01
338.517	38.91
338.729	65.54
338.942	14.34
339.154	59.39
339.367	-34.82
339.579	-10.24
339.792	43.01
340.004	55.3
340.217	43.01
340.429	20.48
340.641	-32.77
340.854	100.35
341.066	53.25
341.278	24.58
341.491	81.92
341.703	0
341.915	32.77
342.128	6.14
342.34	63.49
342.552	24.58
342.764	22.53
342.977	-8.19
343.189	49.15
343.401	0
343.613	57.34
343.826	57.34
344.038	-24.58
344.25	55.3
344.462	77.82
344.674	8.19
344.886	73.73
345.099	6.14
345.311	4.1
345.523	38.91
345.735	22.53
345.947	6.14
346.159	-26.62
346.371	77.82
346.583	69.63
346.795	18.43
347.007	28.67
347.219	67.58
347.431	-61.44
347.643	20.48
347.855	63.49
348.067	14.34
348.279	24.58
348.491	55.3
348.703	8.19
348.915	12.29
349.127	45.06
349.339	34.82
349.551	49.15
349.763	77.82
349.975	-43.01
350.187	57.34
350.399	16.38
350.61	94.21
350.822	96.25
351.034	34.82
351.246	59.39
351.458	47.1
351.669	92.16
351.881	45.06
352.093	36.86
352.305	12.29
352.517	16.38
352.728	2.05
352.94	102.4
353.152	49.15
353.363	32.77
353.575	32.77
353.787	73.73
353.999	34.82
354.21	40.96
354.422	40.96
354.633	0
354.845	43.01
355.057	-61.44
355.268	-45.06
355.48	53.25
355.692	75.77
355.903	55.3
356.115	51.2
356.326	2.05
356.538	100.35
356.749	45.06
356.961	100.35
357.172	-20.48
357.384	-6.14
357.595	106.49
357.807	55.3
358.018	40.96
358.23	63.49
358.441	61.44
358.653	45.06
358.864	-4.1
359.075	49.15
359.287	26.62
359.498	114.69
359.709	57.34
359.921	6.14
360.132	49.15
360.344	100.35
360.555	20.48
360.766	96.25
360.977	67.58
361.189	112.64
361.4	36.86
361.611	28.67
361.823	61.44
362.034	-26.62
362.245	22.53
362.456	122.88
362.667	79.87
362.879	-16.38
363.09	55.3
363.301	94.21
363.512	83.97
363.723	43.01
363.935	57.34
364.146	106.49
364.357	81.92
364.568	40.96
364.779	24.58
364.99	55.3
365.201	63.49
365.412	51.2
365.623	43.01
365.834	63.49
366.045	16.38
366.256	90.11
366.467	49.15
366.678	43.01
366.889	-26.62
367.1	75.77
367.311	-30.72
367.522	49.15
367.733	6.14
367.944	57.34
368.155	90.11
368.366	12.29
368.577	2.05
368.788	53.25
368.999	-16.38
369.209	96.25
369.42	94.21
369.631	77.82
369.842	92.16
370.053	28.67
370.264	12.29
370.474	22.53
370.685	32.77
370.896	75.77
371.107	114.69
371.317	32.77
371.528	-32.77
371.739	77.82
371.95	73.73
372.16	51.2
372.371	24.58
372.582	22.53
372.792	57.34
373.003	34.82
373.214	32.77
373.424	122.88
373.635	-18.43
373.846	43.01
374.056	65.54
374.267	12.29
374.477	0
374.688	65.54
374.898	24.58
375.109	126.97
375.319	79.87
375.53	108.54
375.74	59.39
375.951	77.82
376.161	98.3
376.372	65.54
376.582	12.29
376.793	79.87
377.003	22.53
377.214	32.77
377.424	88.06
377.635	53.25
377.845	-12.29
378.055	53.25
378.266	34.82
378.476	71.68
378.686	75.77
378.897	28.67
379.107	20.48
379.317	53.25
379.528	49.15
379.738	22.53
379.948	-2.05
380.158	55.3
380.369	6.14
380.579	83.97
380.789	63.49
380.999	65.54
381.21	43.01
381.42	120.83
381.63	47.1
381.84	-10.24
382.05	90.11
382.261	53.25
382.471	77.82
382.681	47.1
382.891	129.02
383.101	4.1
383.311	57.34
383.521	49.15
383.731	81.92
383.941	57.34
384.151	67.58
384.361	137.21
384.571	34.82
384.781	73.73
384.991	77.82
385.201	129.02
385.411	86.01
385.621	4.1
385.831	51.2
386.041	38.91
386.251	94.21
386.461	71.68
386.671	94.21
386.881	16.38
387.091	38.91
387.301	40.96
387.511	-6.14
387.72	157.69
387.93	22.53
388.14	55.3
388.35	61.44
388.56	57.34
388.769	73.73
388.979	51.2
389.189	22.53
389.399	10.24
389.609	98.3
389.818	14.34
390.028	8.19
390.238	108.54
390.447	83.97
390.657	108.54
390.867	81.92
391.076	98.3
391.286	24.58
391.496	96.25
391.705	36.86
391.915	96.25
392.125	122.88
392.334	67.58
392.544	104.45
392.753	4.1
392.963	43.01
393.172	69.63
393.382	77.82
393.591	120.83
393.801	40.96
394.01	96.25
394.22	106.49
394.429	36.86
394.639	63.49
394.848	110.59
395.058	120.83
395.267	73.73
395.477	34.82
395.686	126.97
395.895	118.78
396.105	116.73
396.314	73.73
396.524	69.63
396.733	12.29
396.942	153.6
397.152	96.25
397.361	86.01
397.57	122.88
397.78	67.58
397.989	61.44
398.198	116.73
398.407	118.78
398.617	8.19
398.826	94.21
399.035	139.26
399.244	90.11
399.453	122.88
399.663	137.21
399.872	26.62
400.081	8.19
400.29	151.55
400.499	53.25
400.708	102.4
400.917	145.41
401.127	135.17
401.336	53.25
401.545	186.37
401.754	104.45
401.963	161.79
402.172	59.39
402.381	53.25
402.59	63.49
402.799	104.45
403.008	86.01
403.217	102.4
403.426	133.12
403.635	159.74
403.844	163.84
404.053	141.31
404.262	92.16
404.471	182.27
404.68	196.61
404.888	139.26
405.097	108.54
405.306	106.49
405.515	198.65
405.724	141.31
405.933	165.89
406.142	169.98
406.35	178.17
406.559	143.36
406.768	104.45
406.977	245.76
407.185	210.94
407.394	206.84
407.603	143.36
407.812	212.99
408.02	276.48
408.229	174.08
408.438	225.28
408.646	229.37
408.855	178.17
409.064	233.47
409.272	227.32
409.481	301.05
409.69	272.38
409.898	321.53
410.107	339.96
410.315	360.44
410.524	239.61
410.733	323.58
410.941	272.38
411.15	331.77
411.358	256
411.567	356.35
411.775	268.28
411.984	397.31
412.192	460.79
412.401	409.59
412.609	403.45
412.818	389.11
413.026	380.92
413.234	542.71
413.443	432.12
413.651	454.65
413.86	507.9
414.068	569.34
414.276	563.19
414.485	567.29
414.693	638.97
414.901	585.72
415.11	686.07
415.318	632.82
415.526	618.49
415.734	694.26
415.943	722.93
416.151	745.46
416.359	712.69
416.567	692.21
416.776	821.24
416.984	856.05
417.192	870.39
417.4	741.36
417.608	937.97
417.817	952.31
418.025	1023.98
418.233	1046.51
418.441	952.31
418.649	1030.13
418.857	1132.53
419.065	1130.48
419.273	1204.21
419.481	1286.12
419.689	1230.83
419.897	1359.85
420.105	1423.34
420.313	1384.43
420.521	1431.53
420.729	1523.69
420.937	1480.68
421.145	1650.66
421.353	1544.17
421.561	1683.43
421.769	1865.7
421.977	1912.8
422.185	1984.48
422.393	1918.95
422.601	2021.35
422.809	2168.8
423.017	2181.09
423.224	2021.35
423.432	2205.66
423.64	2285.53
423.848	2508.76
424.056	2265.05
424.263	2600.92
424.471	2650.07
424.679	2576.34
424.887	2740.18
425.094	2717.65
425.302	2768.85
425.51	3020.75
425.718	3018.71
425.925	3137.49
426.133	3229.65
426.341	3420.11
426.548	3555.27
426.756	3573.71
426.964	3755.97
427.171	3807.17
427.379	3864.52
427.586	4085.7
427.794	4026.31
428.001	4186.05
428.209	4448.19
428.417	4466.62
428.624	4636.6
428.832	4636.6
429.039	4677.56
429.247	4657.08
429.454	5093.3
429.662	5384.11
429.869	5109.68
430.076	5451.69
430.284	5253.04
430.491	5566.38
430.699	5887.91
430.906	5791.66
431.114	5885.86
431.321	6240.16
431.528	6193.06
431.736	6584.22
431.943	6840.22
432.15	6563.74
432.358	6872.98
432.565	7169.94
432.772	7083.92
432.979	7649.16
433.187	7602.06
433.394	7731.08
433.601	8306.56
433.808	8255.36
434.016	8318.85
434.223	8785.79
434.43	8947.58
434.637	8953.72
434.844	9471.86
435.052	9639.79
435.259	9652.08
435.466	9789.29
435.673	9559.92
435.88	10260.32
436.087	10766.17
436.294	10794.84
436.501	10446.69
436.708	10854.23
436.915	11063.13
437.122	11528.02
437.329	11466.58
437.537	11687.76
437.743	12109.64
437.95	11874.12
438.157	12732.22
438.364	13080.38
438.571	13203.25
438.778	13127.48
438.985	14432.04
439.192	13956.91
439.399	14214.95
439.606	14049.07
439.813	14823.2
440.02	15660.82
440.227	15363.86
440.433	15138.59
440.64	15654.67
440.847	15453.97
441.054	15869.71
441.261	17245.94
441.467	16905.98
441.674	17159.93
441.881	17780.46
442.088	17688.31
442.294	17532.66
442.501	17778.42
442.708	18380.52
442.914	19134.17
443.121	19795.67
443.328	19093.21
443.534	20666.05
443.741	19971.79
443.948	19879.63
444.154	21544.63
444.361	21132.99
444.568	21364.41
444.774	21266.11
444.981	21466.81
445.187	22263.47
445.394	23404.19
445.6	22777.51
445.807	25165.44
446.013	23889.56
446.22	24874.63
446.426	25368.19
446.633	25321.09
446.839	26363.5
447.046	25173.63
447.252	26836.58
447.459	26859.11
447.665	26646.12
447.871	27625.05
448.078	28972.61
448.284	27561.56
448.491	28628.56
448.697	29632.06
448.903	29517.37
449.11	29830.71
449.316	29587
449.522	30238.26
449.728	30840.36
449.935	30930.47
450.141	30930.47
450.347	31665.69
450.553	30527.02
450.76	31315.49
450.966	32120.34
451.172	31688.22
451.378	32196.12
451.584	31817.24
451.791	32970.25
451.997	32122.39
452.203	33240.58
452.409	33060.36
452.615	32732.68
452.821	31557.15
453.027	31102.5
453.233	32744.97
453.44	31630.88
453.646	31673.88
453.852	31876.63
454.058	32519.7
454.264	31376.93
454.47	32171.54
454.676	31073.83
454.882	32470.54
455.088	29582.91
455.294	30041.65
455.5	30574.13
455.705	30746.15
455.911	29587
456.117	28753.48
456.323	28444.24
456.529	27070.05
456.735	28444.24
456.941	27297.38
457.147	26898.02
457.352	26103.41
457.558	25751.16
457.764	25896.56
457.97	25226.88
458.176	24981.12
458.381	24632.97
458.587	23674.52
458.793	23619.22
458.999	22423.21
459.204	24098.45
459.41	23238.3
459.616	22003.38
459.821	21896.88
460.027	21774
460.233	21458.62
460.438	20092.62
460.644	20694.72
460.85	19562.2
461.055	19156.7
461.261	19228.38
461.466	17737.46
461.672	17204.99
461.878	18456.29
462.083	17401.59
462.289	17114.87
462.494	16846.59
462.7	16305.93
462.905	15691.54
463.111	16250.63
463.316	16432.9
463.522	15740.69
463.727	15914.77
463.932	15834.89
464.138	15679.25
464.343	16051.98
464.549	15277.85
464.754	15949.58
464.959	16088.84
465.165	15466.26
465.37	15175.45
465.575	14675.74
465.781	15208.22
465.986	15316.76
466.191	14976.8
466.397	14518.05
466.602	13584.18
466.807	14247.72
467.012	14085.93
467.218	14212.9
467.423	14188.33
467.628	14337.83
467.833	14759.71
468.038	14233.38
468.244	13616.94
468.449	14229.29
468.654	14014.25
468.859	13844.27
469.064	13696.81
469.269	13100.86
469.474	13322.04
469.679	13612.85
469.885	13299.51
470.09	13348.66
470.295	13072.18
470.5	12965.69
470.705	12941.11
470.91	12648.25
471.115	12699.45
471.32	12824.38
471.525	12500.8
471.73	12463.94
471.935	12154.69
472.139	11865.93
472.344	11960.14
472.549	12097.35
472.754	11818.83
472.959	11542.35
473.164	11292.5
473.369	11140.95
473.574	11579.22
473.778	11487.06
473.983	11247.44
474.188	11419.47
474.393	10887
474.598	10934.11
474.802	10925.91
475.007	10583.9
475.212	10882.91
475.417	10407.78
475.621	10393.44
475.826	10506.08
476.031	10172.26
476.235	9897.83
476.44	10096.49
476.645	9631.6
476.849	9963.37
477.054	9889.64
477.259	9637.74
477.463	9789.29
477.668	9566.06
477.872	9330.55
478.077	9457.52
478.282	9254.77
478.486	9179
478.691	9082.74
478.895	9238.39
479.1	8781.69
479.304	8914.81
479.509	8822.65
479.713	8910.71
479.918	8814.46
480.122	8454.01
480.326	8640.38
480.531	8617.85
480.735	8474.49
480.94	8398.72
481.144	8765.31
481.348	8267.65
481.553	8671.1
481.757	8150.92
481.961	8503.17
482.166	8421.25
482.37	8392.58
482.574	8277.89
482.778	8265.6
482.983	8406.91
483.187	8361.86
483.391	8316.8
483.595	8159.11
483.8	8398.72
484.004	8521.6
484.208	8398.72
484.412	8204.16
484.616	8343.42
484.821	8339.33
485.025	8085.38
485.229	8253.31
485.433	8279.94
485.637	8390.53
485.841	8114.05
486.045	8290.18
486.249	8499.07
486.453	8222.59
486.657	8236.93
486.861	8443.78
487.065	8030.09
487.269	8163.2
487.473	8218.5
487.677	8195.97
487.881	8298.37
488.085	8306.56
488.289	8361.86
488.493	8142.72
488.697	8382.34
488.901	8279.94
489.105	8533.89
489.309	8365.95
489.512	8427.39
489.716	8300.42
489.92	8408.96
490.124	8329.09
490.328	8335.23
490.531	8392.58
490.735	8654.72
490.939	8415.1
491.143	8378.24
491.346	8376.19
491.55	8730.49
491.754	8703.87
491.958	8728.44
492.161	8503.17
492.365	8927.1
492.569	8720.25
492.772	8781.69
492.976	8908.66
493.18	8640.38
493.383	8873.85
493.587	9135.99
493.79	9074.55
493.994	8908.66
494.197	9217.91
494.401	9287.54
494.605	9043.83
494.808	9283.44
495.012	9328.5
495.215	9295.73
495.419	9422.7
495.622	9437.04
495.825	9779.05
496.029	9406.32
496.232	9951.08
496.436	9723.76
496.639	10055.53
496.843	9770.86
497.046	10346.34
497.249	10125.16
497.453	10252.13
497.656	10424.16
497.859	10375.01
498.063	10426.21
498.266	10850.14
498.469	10780.51
498.673	10764.12
498.876	10968.92
499.079	11093.85
499.282	11063.13
499.485	11257.68
499.689	11237.2
499.892	11566.93
500.095	11466.58
500.298	11857.74
500.501	11632.46
500.705	12011.34
500.908	12101.45
501.111	12300.1
501.314	12474.18
501.517	12525.38
501.72	12779.32
501.923	12627.78
502.126	12920.63
502.329	13221.69
502.532	13188.92
502.735	13559.6
502.938	13770.54
503.141	13676.34
503.344	13930.28
503.547	14071.59
503.75	14077.74
503.953	14325.54
504.156	14298.92
504.359	14653.22
504.562	14647.07
504.765	14821.15
504.968	14997.28
505.17	15259.42
505.373	15224.6
505.576	15671.06
505.779	15474.45
505.982	15648.53
506.185	16037.64
506.387	16189.19
506.59	16101.13
506.793	16459.52
506.996	16582.4
507.198	17014.52
507.401	16865.02
507.604	17104.63
507.807	17383.16
508.009	17450.74
508.212	17585.91
508.415	18093.8
508.617	18134.76
508.82	18056.94
509.022	18302.7
509.225	18446.05
509.428	18798.31
509.63	19042.01
509.833	18831.07
510.035	19576.53
510.238	19285.72
510.44	19488.47
510.643	19818.19
510.845	20059.85
511.048	19711.7
511.25	20080.33
511.453	20385.48
511.655	20987.58
511.858	20985.54
512.06	21149.37
512.262	21268.16
512.465	21540.54
512.667	21714.61
512.87	22111.92
513.072	21907.12
513.274	22367.91
513.477	22507.18
513.679	22621.86
513.881	22974.11
514.084	23047.84
514.286	23078.56
514.488	23183.01
514.69	24114.83
514.893	24290.96
515.095	24116.88
515.297	24510.09
515.499	24432.27
515.701	24798.85
515.904	24721.03
516.106	25226.88
516.308	25400.96
516.51	25761.4
516.712	25831.03
516.914	26074.74
517.116	26437.23
517.318	26639.98
517.52	26711.66
517.722	26523.24
517.925	26871.4
518.127	27301.47
518.329	27532.89
518.531	27502.17
518.733	27907.67
518.935	28268.11
519.136	28161.62
519.338	28812.87
519.54	28696.14
519.742	29294.14
519.944	28909.13
520.146	29814.33
520.348	29916.73
520.55	29881.91
520.752	29894.2
520.954	30508.59
521.155	29976.12
521.357	30742.06
521.559	31120.93
521.761	31526.43
521.963	31686.17
522.164	31657.5
522.366	31933.98
522.568	31823.39
522.77	32187.92
522.971	32661.01
523.173	32069.14
523.375	32343.57
523.576	32642.57
523.778	32988.68
523.98	32957.96
524.181	33355.27
524.383	33558.02
524.584	33662.46
524.786	33914.36
524.988	33691.13
525.189	34082.3
525.391	34127.35
525.592	34186.74
525.794	34852.33
525.995	34446.83
526.197	34721.26
526.398	34280.95
526.6	35124.71
526.801	35198.44
527.003	35466.72
527.204	35503.59
527.406	35790.3
527.607	35370.47
527.808	35874.27
528.01	35464.67
528.211	35923.42
528.412	36500.95
528.614	36343.25
528.815	36427.22
529.016	36337.11
529.218	36240.85
529.419	36081.11
529.62	36718.03
529.822	36730.32
530.023	36754.9
530.224	36740.56
530.425	36586.96
530.626	36400.6
530.828	36253.14
531.029	37354.95
531.23	36777.42
531.431	36718.03
531.632	36627.92
531.833	37078.47
532.035	36619.73
532.236	37004.75
532.437	37135.82
532.638	37037.51
532.839	37594.56
533.04	37252.55
533.241	37289.41
533.442	37488.07
533.643	37383.62
533.844	37088.71
534.045	37549.51
534.246	37125.58
534.447	37535.17
534.648	37217.74
534.849	37232.07
535.05	37318.09
535.251	37490.12
535.451	37553.6
535.652	37416.39
535.853	37141.96
536.054	37612.99
536.255	37660.1
536.456	37080.52
536.657	37797.31
536.857	36898.25
537.058	37162.44
537.259	37694.91
537.46	37834.17
537.66	37569.99
537.861	37598.66
538.062	37264.84
538.263	37684.67
538.463	37002.7
538.664	37111.24
538.865	37449.16
539.065	37776.83
539.266	37293.51
539.466	37529.03
539.667	37109.19
539.868	38100.41
540.068	37203.4
540.269	37035.47
540.469	37547.46
540.67	37541.32
540.87	37307.85
541.071	37402.05
541.271	37160.39
541.472	37459.4
541.672	37490.12
541.873	37209.54
542.073	36840.91
542.274	37531.08
542.474	36965.84
542.675	37082.57
542.875	37588.42
543.075	37123.53
543.276	37361.09
543.476	37307.85
543.676	36947.4
543.877	37352.9
544.077	37526.98
544.277	37455.3
544.478	36982.22
544.678	37203.4
544.878	36869.58
545.078	37248.46
545.279	37144.01
545.479	36996.56
545.679	37428.68
545.879	37262.79
546.079	37125.58
546.28	37285.32
546.48	36949.45
546.68	37184.97
546.88	37316.04
547.08	37055.95
547.28	37086.67
547.48	36777.42
547.68	37025.23
547.88	36746.7
548.081	37029.32
548.281	37121.48
548.481	37254.6
548.681	37367.24
548.881	37045.71
549.081	37203.4
549.28	36804.05
549.48	36820.43
549.68	36675.02
549.88	37289.41
550.08	36982.22
550.28	36883.92
550.48	37039.56
550.68	37103.05
550.88	36601.3
551.08	37123.53
551.279	36959.69
551.479	36974.03
551.679	36816.33
551.879	36969.93
552.079	37150.15
552.278	36978.12
552.478	36617.68
552.678	36816.33
552.878	37338.57
553.077	36799.95
553.277	36179.42
553.477	37168.58
553.676	36546
553.876	36791.76
554.076	36498.9
554.275	36468.18
554.475	36081.11
554.674	36701.65
554.874	36474.32
555.074	36433.36
555.273	36521.43
555.473	36634.06
555.672	36021.72
555.872	36513.23
556.071	36539.86
556.271	36562.39
556.47	36074.97
556.67	36328.92
556.869	36247
557.068	36275.67
557.268	35880.41
557.467	36070.87
557.667	36187.61
557.866	36320.73
558.065	36095.45
558.265	35679.71
558.464	35694.05
558.663	36273.62
558.863	35708.38
559.062	36234.71
559.261	35417.57
559.461	35941.85
559.66	35558.88
559.859	35810.78
560.058	35526.11
560.258	35706.34
560.457	35139.05
560.656	35669.47
560.855	35360.23
561.054	35479.01
561.253	35259.88
561.453	35562.98
561.652	35358.18
561.851	35415.52
562.05	35057.13
562.249	34573.81
562.448	35390.95
562.647	34938.35
562.846	35220.97
563.045	34956.78
563.244	34616.82
563.443	34948.59
563.642	34751.98
563.841	34754.03
564.04	34209.27
564.239	35192.29
564.438	34354.68
564.637	34721.26
564.836	34588.14
565.035	34061.82
565.234	34631.15
565.432	34280.95
565.631	33891.83
565.83	34039.29
566.029	33775.1
566.228	34364.92
566.427	33996.28
566.625	33795.58
566.824	33570.3
567.023	34313.72
567.222	33093.13
567.42	33996.28
567.619	33494.53
567.818	33646.08
568.016	33510.91
568.215	33355.27
568.414	33338.88
568.612	33730.05
568.811	33138.18
569.01	33385.99
569.208	33265.16
569.407	33181.19
569.605	32517.65
569.804	32826.89
570.002	32753.16
570.201	33011.21
570.4	32626.19
570.598	32452.11
570.797	32681.49
570.995	32542.22
571.193	32247.32
571.392	32335.38
571.59	32044.57
571.789	32095.77
571.987	32171.54
572.186	32275.99
572.384	32136.73
572.582	32124.44
572.781	31802.91
572.979	31645.21
573.177	31884.83
573.376	31888.92
573.574	30979.62
573.772	31759.9
573.971	31407.65
574.169	31030.82
574.367	31147.56
574.565	31364.64
574.763	30934.57
574.962	30944.81
575.16	30531.12
575.358	31112.74
575.556	30666.28
575.754	31170.08
575.952	30631.47
576.151	30756.39
576.349	30418.48
576.547	30598.7
576.745	30469.68
576.943	30434.86
577.141	30699.05
577.339	30283.31
577.537	30383.66
577.735	30301.75
577.933	29808.19
578.131	30225.97
578.329	29623.87
578.527	29544
578.725	29773.37
578.923	30133.81
579.121	29595.2
579.319	29722.17
579.516	29519.42
579.714	29574.72
579.912	29445.69
580.11	29197.89
580.308	29527.61
580.506	29288
580.704	28780.1
580.901	28866.12
581.099	29075.01
581.297	28810.82
581.495	28778.06
581.692	28888.65
581.89	28644.94
582.088	29113.92
582.285	28393.04
582.483	28698.19
582.681	28347.98
582.878	28712.52
583.076	28044.88
583.274	28581.45
583.471	27879
583.669	28112.47
583.866	27788.89
584.064	28390.99
584.262	28003.92
584.459	28130.9
584.657	27315.81
584.854	27756.12
585.052	27379.29
585.249	27536.99
585.447	27453.02
585.644	27270.75
585.841	27203.17
586.039	27440.73
586.236	27199.07
586.434	27074.15
586.631	26990.18
586.828	26922.6
587.026	27123.3
587.223	26820.2
587.42	26762.86
587.618	26398.32
587.815	26357.36
588.012	26697.32
588.21	26455.66
588.407	26674.79
588.604	26637.93
588.801	26240.62
588.999	26257.01
589.196	26105.46
589.393	25976.44
589.59	25816.69
589.787	25716.34
589.984	25771.64
590.182	25511.55
590.379	25841.27
590.576	25441.92
590.773	25702.01
590.97	25480.83
591.167	25362.04
591.364	25261.69
591.561	25140.86
591.758	24974.98
591.955	25433.72
592.152	25300.61
592.349	25095.81
592.546	24749.7
592.743	24911.49
592.94	24755.85
593.137	24782.47
593.334	24815.24
593.531	24397.45
593.727	24600.2
593.924	24127.12
594.121	24108.69
594.318	24575.62
594.515	24342.16
594.712	24417.93
594.908	23961.23
595.105	23883.41
595.302	23928.47
595.499	23946.9
595.696	23643.8
595.892	23858.84
596.089	24041.11
596.286	23635.61
596.482	23778.97
596.679	23705.24
596.876	23432.86
597.072	23537.3
597.269	23416.47
597.466	23502.49
597.662	23170.72
597.859	23207.58
598.055	23135.9
598.252	22691.49
598.448	23121.57
598.645	22988.45
598.841	22853.28
599.038	22677.16
599.234	22853.28
599.431	22353.58
599.627	22400.68
599.824	22761.12
600.02	22306.48
600.217	22402.73
600.413	22255.28
600.609	22261.42
600.806	22247.08
601.002	22070.96
601.198	22181.55
601.395	21685.94
601.591	22161.07
601.787	21814.96
601.984	21798.58
602.18	21812.92
602.376	21487.29
602.572	21630.65
602.769	21577.4
602.965	21356.22
603.161	21061.31
603.357	21341.88
603.553	21382.84
603.75	21110.46
603.946	20924.1
604.142	21268.16
604.338	20731.59
604.534	21237.44
604.73	21006.02
604.926	20735.68
605.122	20758.21
605.318	20670.15
605.514	20514.5
605.71	20530.89
605.906	20506.31
606.102	20311.75
606.298	20391.62
606.494	20469.45
606.69	20434.63
606.886	20475.59
607.082	20338.38
607.278	20176.59
607.474	20283.08
607.67	20094.67
607.866	19982.03
608.062	20213.45
608.257	19908.3
608.453	19877.58
608.649	20057.81
608.845	19994.32
609.041	19799.76
609.236	19881.68
609.432	19676.88
609.628	19910.35
609.824	19963.6
610.019	19613.4
610.215	19597.01
610.411	19654.36
610.606	19390.17
610.802	19564.25
610.998	19191.52
611.193	19367.64
611.389	19267.29
611.584	19330.78
611.78	19001.05
611.976	19365.59
612.171	19302.11
612.367	19314.39
612.562	18810.59
612.758	18999.01
612.953	18941.66
613.149	19130.08
613.344	18933.47
613.539	19429.08
613.735	18900.7
613.93	19295.96
614.126	18892.51
614.321	19111.64
614.517	18945.76
614.712	18777.83
614.907	18657
615.103	18714.34
615.298	18712.29
615.493	18859.74
615.688	18456.29
615.884	18814.69
616.079	18609.89
616.274	18583.27
616.47	18337.51
616.665	18562.79
616.86	18521.83
617.055	18183.91
617.25	18319.08
617.445	18427.62
617.641	18112.24
617.836	18179.82
618.031	18087.66
618.226	17981.17
618.421	17964.78
618.616	18280.17
618.811	17854.19
619.006	17860.34
619.201	17882.86
619.396	17802.99
619.591	17688.31
619.786	17491.7
619.981	17506.04
620.176	17606.39
620.371	17346.3
620.566	17403.64
620.761	17272.57
620.956	17469.17
621.151	16938.75
621.346	17104.63
621.541	16629.51
621.735	16979.71
621.93	17030.91
622.125	16676.61
622.32	16170.76
622.515	16613.12
622.709	16510.72
622.904	16359.17
623.099	16271.11
623.294	16422.66
623.488	16060.17
623.683	16160.52
623.878	15986.44
624.072	15869.71
624.267	15822.61
624.462	15703.82
624.656	15716.11
624.851	15623.95
625.046	15415.06
625.24	15736.59
625.435	15181.59
625.629	15281.94
625.824	15167.26
626.018	15224.6
626.213	14851.87
626.407	14769.95
626.602	14708.51
626.796	15001.37
626.991	14620.45
627.185	14479.14
627.38	14608.16
627.574	14720.8
627.768	14493.47
627.963	14747.42
628.157	14165.8
628.352	14217
628.546	14026.54
628.74	14264.1
628.935	13741.87
629.129	14096.17
629.323	13575.98
629.517	13694.77
629.712	13815.6
629.906	13539.12
630.1	13410.1
630.294	13719.34
630.489	13360.95
630.683	13453.11
630.877	13023.03
631.071	13152.06
631.265	13240.12
631.459	13018.94
631.653	12992.31
631.848	12906.3
632.042	12687.17
632.236	12957.5
632.43	12689.21
632.624	12654.4
632.818	12541.76
633.012	12353.35
633.206	12435.27
633.4	12414.79
633.594	12259.14
633.788	12148.55
633.982	12265.28
634.176	12361.54
634.369	12201.8
634.563	12058.44
634.757	11829.07
634.951	11951.95
635.145	11960.14
635.339	11784.01
635.533	11802.44
635.726	11755.34
635.92	11542.35
636.114	11528.02
636.308	11654.99
636.501	11552.59
636.695	11523.92
636.889	11190.1
637.083	11286.36
637.276	11319.12
637.47	11284.31
637.664	11104.09
637.857	11173.72
638.051	11093.85
638.244	11110.23
638.438	10905.43
638.632	10819.42
638.825	10813.27
639.019	10788.7
639.212	10561.37
639.406	10760.03
639.599	10661.73
639.793	10606.43
639.986	10467.17
640.18	10415.97
640.373	10219.36
640.567	10354.53
640.76	10082.15
640.954	10155.88
641.147	10106.73
641.34	9938.79
641.534	10063.72
641.727	10053.48
641.92	10000.23
642.114	9795.43
642.307	9920.36
642.5	9805.67
642.694	9801.58
642.887	9664.36
643.08	9901.93
643.273	9371.5
643.467	9484.14
643.66	9682.8
643.853	9310.07
644.046	9338.74
644.239	9510.77
644.432	9183.09
644.626	9246.58
644.819	9238.39
645.012	9316.21
645.205	9142.13
645.398	8947.58
645.591	9109.36
645.784	8845.18
645.977	8927.1
646.17	8953.72
646.363	8836.99
646.556	8716.16
646.749	8746.87
646.942	8834.94
647.135	8572.8
647.328	8484.73
647.521	8619.9
647.714	8529.79
647.907	8513.41
648.099	8472.45
648.292	8423.3
648.485	8294.27
648.678	8173.44
648.871	8216.45
649.064	8281.99
649.256	8247.17
649.449	7948.17
649.642	8099.72
649.835	7980.93
650.027	8101.76
650.22	7911.3
650.413	7806.86
650.605	7892.87
650.798	7729.03
650.991	7827.34
651.183	7706.51
651.376	7688.07
651.568	7833.48
651.761	7495.57
651.954	7565.2
652.146	7559.05
652.339	7485.33
652.531	7456.65
652.724	7425.93
652.916	7374.74
653.109	7341.97
653.301	7165.84
653.494	7419.79
653.686	7049.11
653.879	7233.43
654.071	7196.56
654.263	7171.99
654.456	7081.88
654.648	7141.27
654.84	7051.16
655.033	7008.15
655.225	6971.29
655.417	6963.09
655.61	6854.55
655.802	6901.65
655.994	6754.2
656.186	6805.4
656.379	6913.94
656.571	6875.03
656.763	6698.91
656.955	6573.98
657.148	6600.6
657.34	6569.88
657.532	6516.64
657.724	6565.79
657.916	6518.68
658.108	6518.68
658.3	6348.7
658.492	6428.57
658.684	6201.25
658.876	6365.09
659.068	6383.52
659.26	6197.15
659.452	6229.92
659.644	6365.09
659.836	6195.11
660.028	6324.13
660.22	6078.37
660.412	6072.23
660.604	5844.9
660.796	6025.12
660.988	5916.58
661.18	6033.32
661.372	5955.49
661.563	6016.93
661.755	5941.16
661.947	5670.83
662.139	5605.29
662.331	5881.77
662.522	5734.31
662.714	5711.78
662.906	5545.9
663.097	5693.35
663.289	5562.28
663.481	5552.04
663.673	5545.9
663.864	5564.33
664.056	5533.61
664.247	5586.86
664.439	5431.21
664.631	5470.12
664.822	5437.36
665.014	5511.08
665.205	5267.38
665.397	5308.34
665.588	5246.9
665.78	5230.51
665.971	5220.27
666.163	5253.04
666.354	5250.99
666.546	5164.98
666.737	5154.74
666.929	5164.98
667.12	5054.39
667.311	5052.34
667.503	5183.41
667.694	4902.84
667.885	5101.49
668.077	5029.81
668.268	4775.86
668.459	4822.97
668.651	4970.42
668.842	4837.3
669.033	4835.25
669.224	4847.54
669.416	4853.69
669.607	4829.11
669.798	4779.96
669.989	4835.25
670.18	4646.84
670.371	4562.87
670.563	4837.3
670.754	4716.47
670.945	4665.27
671.136	4691.9
671.327	4655.03
671.518	4622.27
671.709	4632.51
671.9	4790.2
672.091	4720.57
672.282	4460.48
672.473	4579.26
672.664	4583.35
672.855	4722.62
673.046	4435.9
673.237	4532.15
673.428	4499.39
673.619	4460.48
673.809	4405.18
674	4407.23
674.191	4374.46
674.382	4374.46
674.573	4331.45
674.764	4364.22
674.954	4300.73
675.145	4345.79
675.336	4286.4
675.527	4175.81
675.717	4321.21
675.908	4247.49
676.099	4304.83
676.289	4321.21
676.48	4251.58
676.671	4040.64
676.861	4108.23
677.052	4108.23
677.243	4151.23
677.433	4227.01
677.624	4120.51
677.814	4114.37
678.005	4114.37
678.195	4143.04
678.386	4118.47
678.576	4143.04
678.767	3975.11
678.957	3975.11
679.148	4061.12
679.338	3973.06
679.529	3968.96
679.719	4028.35
679.909	3995.59
680.1	4091.84
680.29	4097.99
680.481	3962.82
680.671	3938.24
680.861	3960.77
681.052	3897.28
681.242	3919.81
681.432	3841.99
681.622	3837.89
681.813	3850.18
682.003	3839.94
682.193	3829.7
682.383	3891.14
682.573	3772.36
682.764	3755.97
682.954	3727.3
683.144	3911.62
683.334	3817.41
683.524	3743.69
683.714	3772.36
683.904	3823.56
684.094	3805.13
684.284	3747.78
684.474	3805.13
684.664	3696.58
684.854	3872.71
685.044	3721.16
685.234	3645.38
685.424	3618.76
685.614	3669.96
685.804	3626.95
685.994	3622.86
686.184	3684.3
686.374	3643.34
686.564	3448.78
686.753	3583.95
686.943	3502.03
687.133	3643.34
687.323	3549.13
687.513	3678.15
687.702	3643.34
687.892	3581.9
688.082	3450.83
688.272	3551.18
688.461	3518.41
688.651	3471.31
688.841	3383.24
689.03	3418.06
689.22	3456.97
689.41	3301.33
689.599	3233.74
689.789	3350.48
689.979	3344.33
690.168	3325.9
690.358	3229.65
690.547	3260.37
690.737	3282.89
690.926	3151.82
691.116	3221.45
691.305	3334.09
691.495	3223.5
691.684	3198.93
691.874	3160.02
692.063	3246.03
692.252	3151.82
692.442	3104.72
692.631	3164.11
692.82	3090.38
693.01	3078.1
693.199	2932.69
693.388	3022.8
693.578	2979.79
693.767	3033.04
693.956	3082.19
694.146	3076.05
694.335	2936.79
694.524	3004.37
694.713	2883.54
694.902	2906.07
695.092	2942.93
695.281	2820.05
695.47	3030.99
695.659	2928.6
695.848	2863.06
696.037	3008.47
696.226	2838.48
696.415	2785.24
696.604	2858.96
696.793	2815.96
696.982	2852.82
697.171	2820.05
697.36	2797.53
697.549	2711.51
697.738	2789.33
697.927	2820.05
698.116	2750.42
698.305	2754.52
698.494	2762.71
698.683	2650.07
698.872	2779.09
699.061	2662.36
699.25	2799.57
699.438	2738.13
699.627	2725.85
699.816	2688.98
700.005	2731.99
700.193	2645.98
700.382	2684.89
700.571	2650.07
700.76	2678.74
700.948	2738.13
701.137	2543.58
701.326	2570.2
701.514	2623.45
701.703	2602.97
701.892	2600.92
702.08	2666.46
702.269	2729.94
702.457	2545.63
702.646	2594.78
702.834	2502.62
703.023	2537.43
703.212	2570.2
703.4	2621.4
703.589	2557.91
703.777	2543.58
703.965	2615.26
704.154	2600.92
704.342	2506.71
704.531	2500.57
704.719	2486.23
704.907	2607.06
705.096	2467.8
705.284	2410.46
705.472	2484.19
705.661	2494.43
705.849	2584.54
706.037	2498.52
706.226	2555.86
706.414	2498.52
706.602	2535.39
706.79	2494.43
706.979	2473.95
707.167	2523.1
707.355	2600.92
707.543	2461.66
707.731	2437.08
707.919	2506.71
708.107	2400.22
708.296	2574.3
708.484	2422.75
708.672	2422.75
708.86	2424.8
709.048	2480.09
709.236	2402.27
709.424	2453.47
709.612	2500.57
709.8	2580.44
709.988	2414.56
710.176	2432.99
710.364	2430.94
710.551	2408.41
710.739	2432.99
710.927	2418.65
711.115	2392.03
711.303	2310.11
711.491	2375.64
711.679	2441.18
711.866	2332.64
712.054	2338.78
712.242	2318.3
712.43	2412.51
712.617	2410.46
712.805	2383.84
712.993	2463.71
713.181	2318.3
713.368	2369.5
713.556	2537.43
713.744	2387.93
713.931	2389.98
714.119	2387.93
714.306	2410.46
714.494	2365.4
714.682	2301.92
714.869	2400.22
715.057	2344.92
715.244	2359.26
715.432	2281.44
715.619	2475.99
715.807	2334.68
715.994	2357.21
716.182	2443.23
716.369	2328.54
716.556	2467.8
716.744	2422.75
716.931	2375.64
717.119	2324.44
717.306	2328.54
717.493	2387.93
717.681	2320.35
717.868	2318.3
718.055	2377.69
718.242	2320.35
718.43	2371.55
718.617	2289.63
718.804	2318.3
718.991	2316.25
719.179	2285.53
719.366	2308.06
719.553	2299.87
719.74	2256.86
719.927	2287.58
720.114	2377.69
720.301	2469.85
720.488	2392.03
720.676	2412.51
720.863	2363.36
721.05	2326.49
721.237	2359.26
721.424	2353.12
721.611	2351.07
721.798	2406.36
721.985	2334.68
722.172	2283.49
722.358	2176.99
722.545	2326.49
722.732	2330.59
722.919	2273.25
723.106	2271.2
723.293	2267.1
723.48	2385.88
723.667	2254.81
723.853	2371.55
724.04	2322.4
724.227	2430.94
724.414	2275.29
724.6	2269.15
724.787	2430.94
724.974	2392.03
725.161	2285.53
725.347	2316.25
725.534	2324.44
725.72	2299.87
725.907	2308.06
726.094	2398.17
726.28	2308.06
726.467	2344.92
726.653	2398.17
726.84	2422.75
727.027	2363.36
727.213	2281.44
727.4	2279.39
727.586	2289.63
727.773	2316.25
727.959	2355.16
728.145	2387.93
728.332	2283.49
728.518	2365.4
728.705	2316.25
728.891	2373.6
729.077	2220
729.264	2308.06
729.45	2293.73
729.636	2430.94
729.823	2308.06
730.009	2326.49
730.195	2279.39
730.382	2320.35
730.568	2432.99
730.754	2271.2
730.94	2273.25
731.126	2306.01
731.313	2344.92
731.499	2275.29
731.685	2240.48
731.871	2441.18
732.057	2336.73
732.243	2359.26
732.429	2283.49
732.615	2426.84
732.801	2310.11
732.987	2355.16
733.173	2281.44
733.359	2318.3
733.545	2351.07
733.731	2287.58
733.917	2426.84
734.103	2265.05
734.289	2267.1
734.475	2258.91
734.661	2334.68
734.847	2287.58
735.033	2349.02
735.219	2285.53
735.404	2246.62
735.59	2363.36
735.776	2211.81
735.962	2269.15
736.148	2312.16
736.333	2363.36
736.519	2306.01
736.705	2377.69
736.89	2236.38
737.076	2363.36
737.262	2260.96
737.447	2207.71
737.633	2449.37
737.819	2271.2
738.004	2324.44
738.19	2232.29
738.375	2256.86
738.561	2361.31
738.747	2320.35
738.932	2201.57
739.118	2355.16
739.303	2230.24
739.489	2240.48
739.674	2365.4
739.859	2265.05
740.045	2195.42
740.23	2162.65
740.416	2213.85
740.601	2267.1
740.786	2314.2
740.972	2256.86
741.157	2148.32
741.342	2166.75
741.528	2230.24
741.713	2203.61
741.898	2217.95
742.084	2152.42
742.269	2205.66
742.454	2150.37
742.639	2189.28
742.824	2256.86
743.01	2117.6
743.195	2172.89
743.38	2021.35
743.565	2119.65
743.75	2273.25
743.935	2136.03
744.12	2215.9
744.305	2131.94
744.49	2131.94
744.675	2119.65
744.86	2107.36
745.045	2023.39
745.23	2176.99
745.415	2076.64
745.6	2029.54
745.785	2062.3
745.97	2025.44
746.155	1968.1
746.34	2142.18
746.525	1996.77
746.71	2117.6
746.895	1974.24
747.079	1904.61
747.264	2027.49
747.449	1972.19
747.634	2043.87
747.819	1933.28
748.003	1816.55
748.188	1875.94
748.373	2017.25
748.557	1912.8
748.742	1834.98
748.927	1937.38
749.111	1791.97
749.296	1855.46
749.481	1894.37
749.665	1744.87
749.85	1839.08
750.034	1718.25
750.219	1722.34
750.404	1839.08
750.588	1849.32
750.773	1746.92
750.957	1839.08
751.141	1679.33
751.326	1708.01
751.51	1722.34
751.695	1722.34
751.879	1695.72
752.064	1667.05
752.248	1714.15
752.432	1677.29
752.617	1671.14
752.801	1615.85
752.985	1613.8
753.17	1484.78
753.354	1564.65
753.538	1560.55
753.722	1480.68
753.907	1564.65
754.091	1544.17
754.275	1585.13
754.459	1443.82
754.643	1525.74
754.828	1417.19
755.012	1452.01
755.196	1527.78
755.38	1468.39
755.564	1529.83
755.748	1525.74
755.932	1535.98
756.116	1462.25
756.3	1398.76
756.484	1409
756.668	1349.61
756.852	1359.85
757.036	1396.71
757.22	1366
757.404	1411.05
757.588	1304.56
757.772	1394.67
757.956	1392.62
758.14	1349.61
758.323	1390.57
758.507	1318.89
758.691	1333.23
758.875	1267.69
759.059	1353.71
759.242	1298.41
759.426	1298.41
759.61	1382.38
759.794	1298.41
759.977	1327.08
760.161	1388.52
760.345	1359.85
760.528	1318.89
760.712	1239.02
760.895	1279.98
761.079	1263.6
761.263	1232.88
761.446	1198.06
761.63	1175.53
761.813	1128.43
761.997	1087.47
762.18	1148.91
762.364	1269.74
762.547	1196.01
762.731	1243.12
762.914	1212.4
763.098	1142.77
763.281	1222.64
763.464	1189.87
763.648	1161.2
763.831	1263.6
764.015	1136.62
764.198	1140.72
764.381	1085.42
764.564	1226.73
764.748	1105.9
764.931	1140.72
765.114	1126.38
765.297	1056.75
765.481	1159.15
765.664	1091.57
765.847	1034.22
766.03	1083.38
766.213	1015.79
766.397	1071.09
766.58	1101.81
766.763	1009.65
766.946	1142.77
767.129	1077.23
767.312	1054.7
767.495	1064.94
767.678	1040.37
767.861	1013.74
768.044	1019.89
768.227	1077.23
768.41	1030.13
768.593	1050.61
768.776	1019.89
768.959	1073.14
769.142	1015.79
769.324	995.31
769.507	1021.94
769.69	976.88
769.873	983.02
770.056	1036.27
770.239	1015.79
770.421	962.55
770.604	931.83
770.787	864.24
770.97	985.07
771.152	983.02
771.335	940.02
771.518	925.68
771.7	937.97
771.883	1005.55
772.066	933.87
772.248	907.25
772.431	1038.32
772.613	907.25
772.796	847.86
772.978	890.87
773.161	956.4
773.343	1021.94
773.526	870.39
773.708	831.48
773.891	790.52
774.073	839.67
774.256	897.01
774.438	843.76
774.621	753.65
774.803	913.39
774.985	819.19
775.168	774.13
775.35	815.09
775.532	823.28
775.715	892.91
775.897	825.33
776.079	856.05
776.261	835.57
776.444	759.8
776.626	811
776.808	737.27
776.99	729.08
777.173	782.32
777.355	690.17
777.537	774.13
777.719	718.84
777.901	708.6
778.083	813.04
778.265	735.22
778.447	722.93
778.629	624.63
778.811	595.96
778.993	712.69
779.175	712.69
779.357	714.74
779.539	679.93
779.721	755.7
779.903	753.65
780.085	614.39
780.267	657.4
780.449	681.97
780.631	659.45
780.812	710.65
780.994	667.64
781.176	667.64
781.358	686.07
781.54	667.64
781.721	577.53
781.903	559.1
782.085	585.72
782.267	665.59
782.448	714.74
782.63	628.73
782.812	542.71
782.993	552.95
783.175	591.86
783.357	634.87
783.538	542.71
783.72	593.91
783.901	555
784.083	516.09
784.264	516.09
784.446	530.42
784.627	493.56
784.809	563.19
784.99	540.66
785.172	509.94
785.353	546.81
785.535	475.13
785.716	507.9
785.897	536.57
786.079	483.32
786.26	532.47
786.441	516.09
786.623	546.81
786.804	411.64
786.985	421.88
787.167	511.99
787.348	501.75
787.529	473.08
787.71	485.37
787.891	419.83
788.073	440.31
788.254	456.7
788.435	376.83
788.616	358.39
788.797	464.89
788.978	395.26
789.159	409.59
789.34	462.84
789.522	413.69
789.703	393.21
789.884	393.21
790.065	450.55
790.246	407.55
790.427	307.2
790.607	421.88
790.788	460.79
790.969	389.11
791.15	432.12
791.331	405.5
791.512	430.07
791.693	321.53
791.874	421.88
792.054	344.06
792.235	425.98
792.416	354.3
792.597	385.02
792.778	325.63
792.958	305.15
793.139	401.4
793.32	421.88
793.5	393.21
793.681	399.35
793.862	354.3
794.042	358.39
794.223	385.02
794.404	335.87
794.584	313.34
794.765	333.82
794.945	370.68
795.126	432.12
795.306	335.87
795.487	307.2
795.667	270.33
795.848	387.07
796.028	299
796.209	307.2
796.389	364.54
796.57	356.35
796.75	378.87
796.93	288.76
797.111	309.24
797.291	378.87
797.471	317.44
797.652	309.24
797.832	305.15
798.012	391.16
798.192	290.81
798.373	333.82
798.553	258.04
798.733	278.52
798.913	270.33
799.093	331.77
799.274	251.9
799.454	290.81
799.634	323.58
799.814	260.09
799.994	370.68
800.174	327.67
800.354	303.1
800.534	180.22
800.714	327.67
800.894	274.43
801.074	270.33
801.254	241.66
801.434	309.24
801.614	237.56
801.794	204.8
801.974	643.06
802.154	229.37
802.334	305.15
802.514	284.67
802.693	217.08
802.873	186.37
803.053	276.48
803.233	243.71
803.413	286.72
803.592	239.61
803.772	186.37
803.952	278.52
804.131	251.9
804.311	245.76
804.491	319.48
804.67	227.32
804.85	243.71
805.03	282.62
805.209	153.6
805.389	249.85
805.568	270.33
805.748	227.32
805.928	241.66
806.107	221.18
806.287	212.99
806.466	258.04
806.646	282.62
806.825	227.32
807.004	260.09
807.184	225.28
807.363	223.23
807.543	301.05
807.722	172.03
807.901	223.23
808.081	215.04
808.26	210.94
808.439	198.65
808.619	260.09
808.798	163.84
808.977	280.57
809.156	233.47
809.336	223.23
809.515	231.42
809.694	182.27
809.873	204.8
810.052	262.14
810.231	212.99
810.411	202.75
810.59	264.19
810.769	241.66
810.948	151.55
811.127	149.5
811.306	155.65
811.485	219.13
811.664	258.04
811.843	131.07
812.022	180.22
812.201	180.22
812.38	135.17
812.559	165.89
812.737	253.95
812.916	167.93
813.095	212.99
813.274	169.98
813.453	165.89
813.632	149.5
813.811	131.07
813.989	110.59
814.168	221.18
814.347	100.35
814.526	155.65
814.704	135.17
814.883	190.46
815.062	133.12
815.24	198.65
815.419	182.27
815.598	241.66
815.776	151.55
815.955	143.36
816.133	102.4
816.312	172.03
816.49	141.31
816.669	143.36
816.847	253.95
817.026	114.69
817.204	208.89
817.383	212.99
817.561	137.21
817.74	169.98
817.918	174.08
818.097	92.16
818.275	180.22
818.453	145.41
818.632	114.69
818.81	129.02
818.988	106.49
819.167	206.84
819.345	176.13
819.523	161.79
819.701	131.07
819.879	167.93
820.058	133.12
820.236	186.37
820.414	139.26
820.592	137.21
820.77	223.23
820.948	155.65
821.127	86.01
821.305	186.37
821.483	172.03
821.661	88.06
821.839	188.41
822.017	159.74
822.195	98.3
822.373	190.46
822.551	143.36
822.729	143.36
822.907	88.06
823.085	161.79
823.262	90.11
823.44	102.4
823.618	124.93
823.796	110.59
823.974	67.58
824.152	176.13
824.329	202.75
824.507	143.36
824.685	139.26
824.863	147.45
825.04	6.14
825.218	137.21
825.396	100.35
825.574	96.25
825.751	165.89
825.929	159.74
826.107	79.87
826.284	141.31
826.462	151.55
826.639	94.21
826.817	94.21
826.994	151.55
827.172	36.86
827.349	100.35
827.527	38.91
827.704	86.01
827.882	137.21
828.059	83.97
828.237	137.21
828.414	157.69
828.591	135.17
828.769	92.16
828.946	26.62
829.124	96.25
829.301	83.97
829.478	145.41
829.655	69.63
829.833	86.01
830.01	73.73
830.187	137.21
830.364	120.83
830.542	57.34
830.719	141.31
830.896	131.07
831.073	86.01
831.25	157.69
831.427	129.02
831.604	106.49
831.782	32.77
831.959	120.83
832.136	77.82
832.313	116.73
832.49	112.64
832.667	118.78
832.844	14.34
833.021	14.34
833.198	77.82
833.374	96.25
833.551	67.58
833.728	114.69
833.905	163.84
834.082	28.67
834.259	59.39
834.436	139.26
834.612	122.88
834.789	86.01
834.966	34.82
835.143	53.25
835.319	38.91
835.496	114.69
835.673	104.45
835.85	180.22
836.026	79.87
836.203	129.02
836.38	114.69
836.556	73.73
836.733	57.34
836.909	65.54
837.086	124.93
837.262	30.72
837.439	122.88
837.616	16.38
837.792	43.01
837.968	83.97
838.145	73.73
838.321	104.45
838.498	47.1
838.674	79.87
838.851	71.68
839.027	6.14
839.203	6.14
839.38	30.72
839.556	40.96
839.732	16.38
839.909	45.06
840.085	73.73
840.261	131.07
840.437	96.25
840.614	112.64
840.79	61.44
840.966	81.92
841.142	122.88
841.318	22.53
841.494	51.2
841.671	28.67
841.847	12.29
842.023	90.11
842.199	88.06
842.375	75.77
842.551	45.06
842.727	55.3
842.903	131.07
843.079	77.82
843.255	161.79
843.431	-18.43
843.607	55.3
843.783	45.06
843.959	55.3
844.134	40.96
844.31	71.68
844.486	55.3
844.662	34.82
844.838	98.3
845.013	143.36
845.189	96.25
845.365	-16.38
845.541	137.21
845.716	69.63
845.892	86.01
846.068	38.91
846.244	-30.72
846.419	8.19
846.595	-40.96
846.77	20.48
846.946	36.86
847.122	59.39
847.297	34.82
847.473	118.78
847.648	-18.43
847.824	16.38
847.999	-26.62
848.175	24.58
848.35	16.38
848.526	102.4
848.701	36.86
848.876	69.63
849.052	45.06
849.227	10.24
849.403	106.49
849.578	81.92
849.753	61.44
849.929	61.44
850.104	96.25
850.279	6.14
850.454	6.14
850.63	26.62
850.805	30.72
850.98	65.54
851.155	73.73
851.33	-4.1
851.505	104.45
851.681	24.58
851.856	12.29
852.031	32.77
852.206	81.92
852.381	45.06
852.556	40.96
852.731	159.74
852.906	102.4
853.081	22.53
853.256	-8.19
853.431	-26.62
853.606	73.73
853.781	-43.01
853.956	40.96
854.131	77.82
854.305	53.25
854.48	55.3
854.655	-2.05
854.83	12.29
855.005	51.2
855.18	69.63
855.354	8.19
855.529	131.07
855.704	49.15
855.879	38.91
856.053	-61.44
856.228	0
856.403	59.39
856.577	-12.29
856.752	-2.05
856.926	-22.53
857.101	8.19
857.276	51.2
857.45	75.77
857.625	30.72
857.799	106.49
857.974	69.63
858.148	-16.38
858.323	34.82
858.497	63.49
858.672	51.2
858.846	77.82
859.02	2.05
859.195	73.73
859.369	65.54
859.543	14.34
859.718	45.06
859.892	-32.77
860.066	47.1
860.241	6.14
860.415	-61.44
860.589	6.14
860.763	73.73
860.938	106.49
861.112	45.06
861.286	22.53
861.46	28.67
861.634	65.54
861.808	47.1
861.982	65.54
862.157	8.19
862.331	40.96
862.505	-28.67
862.679	94.21
862.853	96.25
863.027	65.54
863.201	94.21
863.375	36.86
863.549	0
863.722	88.06
863.896	-6.14
864.07	-67.58
864.244	-14.34
864.418	47.1
864.592	83.97
864.766	6.14
864.939	34.82
865.113	69.63
865.287	116.73
865.461	14.34
865.634	40.96
865.808	-61.44
865.982	59.39
866.156	-71.68
866.329	-4.1
866.503	28.67
866.676	28.67
866.85	40.96
867.024	49.15
867.197	36.86
867.371	49.15
867.544	-102.4
867.718	16.38
867.891	18.43
868.065	47.1
868.238	-16.38
868.412	-10.24
868.585	65.54
868.759	53.25
868.932	88.06
869.105	16.38
869.279	10.24
869.452	49.15
869.625	16.38
869.799	-73.73
869.972	-8.19
870.145	10.24
870.319	98.3
870.492	90.11
870.665	-8.19
870.838	26.62
871.011	30.72
871.185	-53.25
871.358	22.53
871.531	63.49
871.704	-14.34
871.877	26.62
872.05	-2.05
872.223	8.19
872.396	6.14
872.569	108.54
872.742	-86.01
872.915	32.77
873.088	8.19
873.261	40.96
873.434	20.48
873.607	-14.34
873.78	43.01
873.953	-53.25
874.126	40.96
874.299	53.25
874.471	-36.86
874.644	57.34
874.817	63.49
874.99	69.63
875.163	75.77
875.335	77.82
875.508	40.96
875.681	61.44
875.853	-32.77
876.026	10.24
876.199	49.15
876.371	0
876.544	4.1
876.717	12.29
876.889	49.15
877.062	30.72
877.234	20.48
877.407	10.24
877.579	12.29
877.752	49.15
877.924	-8.19
878.097	8.19
878.269	-63.49
878.442	45.06
878.614	45.06
878.786	36.86
878.959	-18.43
879.131	-4.1
879.303	-32.77
879.476	-71.68
879.648	-65.53
879.82	47.1
879.993	-83.97
880.165	22.53
880.337	24.58
880.509	20.48
880.681	28.67
880.854	69.63
881.026	77.82
881.198	73.73
881.37	45.06
881.542	-38.91
881.714	-10.24
881.886	-16.38
882.058	-40.96
882.23	-36.86
882.402	24.58
882.574	22.53
882.746	-22.53
882.918	26.62
883.09	24.58
883.262	22.53
883.434	0
883.606	-49.15
883.778	38.91
883.95	-22.53
884.122	8.19
884.293	16.38
884.465	45.06
884.637	30.72
884.809	-49.15
884.98	-16.38
885.152	2.05
885.324	0
885.496	-22.53
885.667	12.29
885.839	2.05
886.011	-51.2
886.182	63.49
886.354	63.49
886.525	-20.48
886.697	12.29
886.869	22.53
887.04	57.34
887.212	43.01
887.383	49.15
887.555	-18.43
887.726	-18.43
887.897	-47.1
888.069	10.24
888.24	16.38
888.412	16.38
888.583	53.25
888.754	16.38
888.926	34.82
889.097	40.96
889.268	-36.86
889.44	88.06
889.611	-26.62
889.782	30.72
889.953	-61.44
890.125	63.49
890.296	-8.19
890.467	32.77
890.638	-8.19
890.809	0
890.98	-43.01
891.151	-49.15
891.323	45.06
891.494	73.73
891.665	-8.19
891.836	-10.24
892.007	-43.01
892.178	34.82
892.349	55.3
892.52	28.67
892.691	26.62
892.862	-32.77
893.032	47.1
893.203	-47.1
893.374	-16.38
893.545	4.1
893.716	8.19
893.887	73.73
894.057	-53.25
894.228	-18.43
894.399	-14.34
894.57	47.1
894.74	8.19
894.911	28.67
895.082	18.43
895.253	-69.63
895.423	-49.15
895.594	28.67
895.764	2.05
895.935	49.15
896.106	4.1
896.276	32.77
896.447	96.25
896.617	53.25
896.788	-2.05
896.958	0
897.129	36.86
897.299	-12.29
897.47	24.58
897.64	77.82
897.81	-32.77
897.981	-38.91
898.151	49.15
898.322	2.05
898.492	14.34
898.662	45.06
898.832	12.29
899.003	94.21
899.173	2.05
899.343	83.97
899.513	-36.86
