Data from USB4F104151__265__11-11-59-926.txt Node

Date: Wed Mar 12 11:11:59 EDT 2025
User: louis
Spectrometer: USB4F10415
Trigger mode: 4
Integration Time (sec): 2.000000E-2
Scans to average: 1
Electric dark correction enabled: true
Nonlinearity correction enabled: false
Boxcar width: 0
XAxis mode: Wavelengths
Number of Pixels in Spectrum: 3648
>>>>>Begin Spectral Data<<<<<
178.204	-148.82
178.424	-148.82
178.644	-148.82
178.864	-144.72
179.084	-175.44
179.304	-11.61
179.524	-17.75
179.744	-48.47
179.964	33.45
180.184	25.26
180.404	-3.41
180.624	41.64
180.844	19.11
181.064	-77.14
181.283	60.07
181.503	-13.65
181.723	-7.51
181.943	-48.47
182.163	39.59
182.383	15.02
182.602	6.83
182.822	-25.94
183.042	-109.91
183.262	-36.18
183.482	-21.85
183.701	-9.56
183.921	10.92
184.141	-38.23
184.361	-5.46
184.58	-9.56
184.8	-11.61
185.02	-42.32
185.239	33.45
185.459	-30.04
185.679	55.98
185.898	-25.94
186.118	68.27
186.338	-27.99
186.557	0.68
186.777	-93.52
186.997	-21.85
187.216	12.97
187.436	-23.89
187.655	10.92
187.875	15.02
188.095	-25.94
188.314	27.31
188.534	-9.56
188.753	12.97
188.973	-3.41
189.192	37.55
189.412	49.83
189.631	21.16
189.851	4.78
190.07	15.02
190.29	-50.52
190.509	37.55
190.729	55.98
190.948	2.73
191.168	37.55
191.387	101.03
191.607	-38.23
191.826	6.83
192.045	29.35
192.265	4.78
192.484	27.31
192.704	-25.94
192.923	-40.28
193.142	70.31
193.362	37.55
193.581	105.13
193.8	-54.61
194.02	98.99
194.239	-15.7
194.458	6.83
194.678	17.07
194.897	49.83
195.116	-9.56
195.335	-42.32
195.555	-27.99
195.774	-1.37
195.993	35.5
196.212	23.21
196.432	-23.89
196.651	-27.99
196.87	6.83
197.089	35.5
197.308	78.51
197.528	-42.32
197.747	-23.89
197.966	39.59
198.185	-23.89
198.404	15.02
198.623	-13.65
198.842	-46.42
199.062	111.27
199.281	-3.41
199.5	-11.61
199.719	27.31
199.938	31.4
200.157	117.42
200.376	55.98
200.595	15.02
200.814	-15.7
201.033	41.64
201.252	-44.37
201.471	23.21
201.69	-11.61
201.909	6.83
202.128	-30.04
202.347	-40.28
202.566	35.5
202.785	-77.14
203.004	-38.23
203.223	-5.46
203.442	-15.7
203.661	43.69
203.879	-13.65
204.098	33.45
204.317	-27.99
204.536	35.5
204.755	-36.18
204.974	-9.56
205.193	-9.56
205.411	17.07
205.63	8.87
205.849	8.87
206.068	49.83
206.287	-25.94
206.505	10.92
206.724	12.97
206.943	-75.09
207.162	-21.85
207.381	-54.61
207.599	72.36
207.818	43.69
208.037	2.73
208.255	53.93
208.474	-25.94
208.693	10.92
208.911	17.07
209.13	-3.41
209.349	-48.47
209.567	6.83
209.786	41.64
210.005	15.02
210.223	29.35
210.442	70.31
210.661	41.64
210.879	35.5
211.098	6.83
211.316	-62.8
211.535	-7.51
211.753	-21.85
211.972	2.73
212.191	70.31
212.409	-19.8
212.628	6.83
212.846	-1.37
213.065	-11.61
213.283	-38.23
213.502	37.55
213.72	-1.37
213.938	31.4
214.157	-19.8
214.375	6.83
214.594	4.78
214.812	25.26
215.031	-54.61
215.249	25.26
215.467	-34.13
215.686	-25.94
215.904	12.97
216.122	-32.08
216.341	-34.13
216.559	10.92
216.778	29.35
216.996	10.92
217.214	-30.04
217.432	-46.42
217.651	-50.52
217.869	-5.46
218.087	-66.9
218.306	-17.75
218.524	49.83
218.742	8.87
218.96	80.55
219.179	-5.46
219.397	-1.37
219.615	-7.51
219.833	15.02
220.051	70.31
220.27	4.78
220.488	-19.8
220.706	-7.51
220.924	8.87
221.142	31.4
221.36	4.78
221.578	58.03
221.796	0.68
222.015	53.93
222.233	-52.56
222.451	-3.41
222.669	-40.28
222.887	-11.61
223.105	-48.47
223.323	53.93
223.541	-11.61
223.759	10.92
223.977	-25.94
224.195	-52.56
224.413	55.98
224.631	6.83
224.849	-75.09
225.067	-9.56
225.285	-19.8
225.503	37.55
225.721	-50.52
225.939	-3.41
226.157	-25.94
226.375	74.41
226.592	-75.09
226.81	-27.99
227.028	23.21
227.246	2.73
227.464	-15.7
227.682	105.13
227.9	-34.13
228.117	-30.04
228.335	41.64
228.553	17.07
228.771	27.31
228.989	-1.37
229.206	23.21
229.424	-46.42
229.642	-11.61
229.86	31.4
230.077	-3.41
230.295	15.02
230.513	6.83
230.731	2.73
230.948	4.78
231.166	45.74
231.384	-73.04
231.601	-25.94
231.819	12.97
232.037	-11.61
232.254	-5.46
232.472	-64.85
232.689	41.64
232.907	-1.37
233.125	25.26
233.342	-11.61
233.56	6.83
233.777	12.97
233.995	-27.99
234.213	-21.85
234.43	-50.52
234.648	-15.7
234.865	-36.18
235.083	43.69
235.3	-11.61
235.518	31.4
235.735	-44.37
235.953	25.26
236.17	31.4
236.388	4.78
236.605	45.74
236.822	-9.56
237.04	21.16
237.257	-17.75
237.475	-25.94
237.692	37.55
237.909	31.4
238.127	-5.46
238.344	25.26
238.562	43.69
238.779	-46.42
238.996	-11.61
239.214	-27.99
239.431	-1.37
239.648	-46.42
239.865	33.45
240.083	-1.37
240.3	47.79
240.517	-30.04
240.735	51.88
240.952	23.21
241.169	-9.56
241.386	47.79
241.603	33.45
241.821	-68.95
242.038	21.16
242.255	55.98
242.472	-66.9
242.689	17.07
242.907	49.83
243.124	-36.18
243.341	27.31
243.558	12.97
243.775	43.69
243.992	-9.56
244.209	39.59
244.426	-30.04
244.643	-15.7
244.86	-46.42
245.078	25.26
245.295	-9.56
245.512	-30.04
245.729	-25.94
245.946	12.97
246.163	-34.13
246.38	-21.85
246.597	25.26
246.814	-23.89
247.031	-81.24
247.248	15.02
247.464	-58.71
247.681	23.21
247.898	43.69
248.115	-32.08
248.332	-25.94
248.549	33.45
248.766	6.83
248.983	25.26
249.2	-36.18
249.417	12.97
249.633	-19.8
249.85	-5.46
250.067	21.16
250.284	-21.85
250.501	-21.85
250.717	78.51
250.934	-36.18
251.151	27.31
251.368	-1.37
251.585	-25.94
251.801	-9.56
252.018	-34.13
252.235	60.07
252.451	-30.04
252.668	-1.37
252.885	-17.75
253.102	19.11
253.318	-54.61
253.535	-36.18
253.752	31.4
253.968	-40.28
254.185	0.68
254.401	-19.8
254.618	51.88
254.835	29.35
255.051	37.55
255.268	33.45
255.484	0.68
255.701	17.07
255.917	55.98
256.134	-42.32
256.351	70.31
256.567	-5.46
256.784	-81.24
257	-17.75
257.217	-52.56
257.433	-19.8
257.65	39.59
257.866	55.98
258.082	10.92
258.299	-23.89
258.515	-40.28
258.732	-60.76
258.948	33.45
259.165	-1.37
259.381	12.97
259.597	-19.8
259.814	-48.47
260.03	-13.65
260.246	-3.41
260.463	15.02
260.679	64.17
260.895	4.78
261.112	-1.37
261.328	-58.71
261.544	-11.61
261.761	21.16
261.977	37.55
262.193	-7.51
262.409	39.59
262.626	33.45
262.842	27.31
263.058	-71
263.274	2.73
263.49	10.92
263.707	12.97
263.923	33.45
264.139	-42.32
264.355	35.5
264.571	-32.08
264.787	-5.46
265.004	84.65
265.22	-30.04
265.436	2.73
265.652	-30.04
265.868	47.79
266.084	27.31
266.3	2.73
266.516	-44.37
266.732	12.97
266.948	-1.37
267.164	0.68
267.38	27.31
267.596	-50.52
267.812	144.04
268.028	37.55
268.244	-64.85
268.46	29.35
268.676	21.16
268.892	72.36
269.108	-66.9
269.324	62.12
269.54	51.88
269.756	-11.61
269.972	35.5
270.188	-46.42
270.403	0.68
270.619	2.73
270.835	-21.85
271.051	-13.65
271.267	-3.41
271.483	-27.99
271.698	64.17
271.914	31.4
272.13	-9.56
272.346	-27.99
272.562	12.97
272.777	0.68
272.993	8.87
273.209	23.21
273.425	-68.95
273.64	-1.37
273.856	74.41
274.072	-7.51
274.287	-56.66
274.503	-25.94
274.719	-7.51
274.934	-79.19
275.15	-30.04
275.366	29.35
275.581	-7.51
275.797	-30.04
276.012	49.83
276.228	19.11
276.444	33.45
276.659	74.41
276.875	-1.37
277.09	-34.13
277.306	-19.8
277.521	58.03
277.737	-19.8
277.952	-38.23
278.168	8.87
278.383	29.35
278.599	-5.46
278.814	37.55
279.03	39.59
279.245	33.45
279.461	35.5
279.676	-25.94
279.892	-42.32
280.107	-9.56
280.322	-79.19
280.538	-48.47
280.753	-19.8
280.969	17.07
281.184	-21.85
281.399	-34.13
281.615	27.31
281.83	-64.85
282.045	-91.48
282.26	0.68
282.476	27.31
282.691	86.7
282.906	-34.13
283.122	-62.8
283.337	-11.61
283.552	10.92
283.767	-17.75
283.983	55.98
284.198	-9.56
284.413	25.26
284.628	6.83
284.843	-5.46
285.058	-3.41
285.274	43.69
285.489	23.21
285.704	31.4
285.919	-11.61
286.134	-30.04
286.349	-27.99
286.564	-77.14
286.779	37.55
286.995	-38.23
287.21	10.92
287.425	17.07
287.64	-11.61
287.855	10.92
288.07	23.21
288.285	-17.75
288.5	-34.13
288.715	25.26
288.93	31.4
289.145	68.27
289.36	23.21
289.575	-13.65
289.79	-50.52
290.004	8.87
290.219	12.97
290.434	-27.99
290.649	-7.51
290.864	-11.61
291.079	-34.13
291.294	-77.14
291.509	10.92
291.724	-11.61
291.938	-9.56
292.153	31.4
292.368	64.17
292.583	-27.99
292.798	4.78
293.012	33.45
293.227	-75.09
293.442	-32.08
293.657	31.4
293.871	-1.37
294.086	8.87
294.301	39.59
294.516	-13.65
294.73	33.45
294.945	-7.51
295.16	-46.42
295.374	31.4
295.589	12.97
295.804	-5.46
296.018	0.68
296.233	88.75
296.447	8.87
296.662	-13.65
296.877	-3.41
297.091	0.68
297.306	23.21
297.52	-50.52
297.735	15.02
297.949	-9.56
298.164	-9.56
298.378	-9.56
298.593	49.83
298.807	60.07
299.022	41.64
299.236	27.31
299.451	-38.23
299.665	41.64
299.88	51.88
300.094	10.92
300.309	19.11
300.523	-75.09
300.737	6.83
300.952	-27.99
301.166	-77.14
301.381	-36.18
301.595	-5.46
301.809	12.97
302.024	-7.51
302.238	-21.85
302.452	27.31
302.667	-27.99
302.881	31.4
303.095	-73.04
303.309	12.97
303.524	-17.75
303.738	-50.52
303.952	21.16
304.166	10.92
304.381	-21.85
304.595	-13.65
304.809	4.78
305.023	-5.46
305.237	-11.61
305.452	6.83
305.666	23.21
305.88	19.11
306.094	29.35
306.308	17.07
306.522	49.83
306.736	15.02
306.95	6.83
307.164	-3.41
307.379	10.92
307.593	-7.51
307.807	-9.56
308.021	-7.51
308.235	10.92
308.449	-11.61
308.663	-36.18
308.877	19.11
309.091	15.02
309.305	58.03
309.519	-64.85
309.733	35.5
309.947	-3.41
310.161	8.87
310.374	43.69
310.588	-11.61
310.802	-71
311.016	-27.99
311.23	-9.56
311.444	4.78
311.658	2.73
311.872	70.31
312.085	-1.37
312.299	25.26
312.513	51.88
312.727	2.73
312.941	21.16
313.154	-13.65
313.368	-7.51
313.582	58.03
313.796	-15.7
314.009	-42.32
314.223	72.36
314.437	-34.13
314.651	-42.32
314.864	21.16
315.078	-40.28
315.292	70.31
315.505	-34.13
315.719	17.07
315.933	-30.04
316.146	41.64
316.36	-15.7
316.573	-13.65
316.787	35.5
317.001	41.64
317.214	-3.41
317.428	-95.57
317.641	-21.85
317.855	51.88
318.068	39.59
318.282	-32.08
318.495	4.78
318.709	55.98
318.922	27.31
319.136	84.65
319.349	-17.75
319.563	10.92
319.776	90.79
319.99	-3.41
320.203	17.07
320.417	31.4
320.63	-11.61
320.843	70.31
321.057	-58.71
321.27	-23.89
321.483	55.98
321.697	66.22
321.91	-48.47
322.124	15.02
322.337	19.11
322.55	0.68
322.763	-3.41
322.977	6.83
323.19	17.07
323.403	0.68
323.617	23.21
323.83	49.83
324.043	-30.04
324.256	10.92
324.469	6.83
324.683	4.78
324.896	6.83
325.109	-17.75
325.322	6.83
325.535	-9.56
325.748	17.07
325.962	-42.32
326.175	12.97
326.388	21.16
326.601	37.55
326.814	27.31
327.027	-25.94
327.24	49.83
327.453	-44.37
327.666	10.92
327.879	21.16
328.092	37.55
328.305	0.68
328.518	-25.94
328.731	-42.32
328.944	62.12
329.157	-17.75
329.37	-1.37
329.583	45.74
329.796	53.93
330.009	-13.65
330.222	-23.89
330.435	-34.13
330.648	6.83
330.861	12.97
331.073	37.55
331.286	-7.51
331.499	8.87
331.712	-19.8
331.925	-71
332.138	-25.94
332.35	17.07
332.563	-11.61
332.776	37.55
332.989	2.73
333.202	-5.46
333.414	-42.32
333.627	-50.52
333.84	10.92
334.053	-23.89
334.265	-1.37
334.478	-5.46
334.691	-40.28
334.903	-1.37
335.116	-27.99
335.329	-48.47
335.541	8.87
335.754	51.88
335.966	-38.23
336.179	15.02
336.392	-87.38
336.604	-46.42
336.817	-17.75
337.029	53.93
337.242	-48.47
337.454	41.64
337.667	15.02
337.88	80.55
338.092	-9.56
338.305	4.78
338.517	33.45
338.729	76.46
338.942	94.89
339.154	-7.51
339.367	31.4
339.579	6.83
339.792	-103.76
340.004	35.5
340.217	15.02
340.429	-9.56
340.641	8.87
340.854	-9.56
341.066	-5.46
341.278	-95.57
341.491	6.83
341.703	21.16
341.915	-1.37
342.128	-50.52
342.34	2.73
342.552	15.02
342.764	-9.56
342.977	27.31
343.189	-54.61
343.401	-25.94
343.613	-19.8
343.826	-13.65
344.038	-25.94
344.25	-87.38
344.462	4.78
344.674	62.12
344.886	31.4
345.099	-21.85
345.311	-3.41
345.523	4.78
345.735	-73.04
345.947	55.98
346.159	-27.99
346.371	25.26
346.583	51.88
346.795	68.27
347.007	-32.08
347.219	29.35
347.431	-3.41
347.643	64.17
347.855	-30.04
348.067	47.79
348.279	-71
348.491	17.07
348.703	-62.8
348.915	8.87
349.127	6.83
349.339	84.65
349.551	-60.76
349.763	25.26
349.975	-68.95
350.187	27.31
350.399	49.83
350.61	4.78
350.822	4.78
351.034	27.31
351.246	-7.51
351.458	37.55
351.669	-15.7
351.881	0.68
352.093	47.79
352.305	10.92
352.517	31.4
352.728	-11.61
352.94	29.35
353.152	31.4
353.363	0.68
353.575	35.5
353.787	8.87
353.999	-25.94
354.21	-11.61
354.422	-34.13
354.633	-75.09
354.845	6.83
355.057	-30.04
355.268	23.21
355.48	39.59
355.692	-1.37
355.903	-48.47
356.115	-17.75
356.326	0.68
356.538	-27.99
356.749	-21.85
356.961	47.79
357.172	53.93
357.384	-64.85
357.595	-5.46
357.807	43.69
358.018	8.87
358.23	-11.61
358.441	-17.75
358.653	31.4
358.864	23.21
359.075	-1.37
359.287	17.07
359.498	51.88
359.709	19.11
359.921	-15.7
360.132	31.4
360.344	-19.8
360.555	-66.9
360.766	-1.37
360.977	72.36
361.189	43.69
361.4	15.02
361.611	49.83
361.823	19.11
362.034	98.99
362.245	-58.71
362.456	12.97
362.667	8.87
362.879	37.55
363.09	35.5
363.301	37.55
363.512	64.17
363.723	-52.56
363.935	39.59
364.146	-54.61
364.357	-27.99
364.568	-1.37
364.779	-73.04
364.99	-1.37
365.201	-17.75
365.412	-32.08
365.623	-32.08
365.834	53.93
366.045	-9.56
366.256	17.07
366.467	-1.37
366.678	19.11
366.889	45.74
367.1	-54.61
367.311	-73.04
367.522	74.41
367.733	-9.56
367.944	-1.37
368.155	55.98
368.366	31.4
368.577	29.35
368.788	12.97
368.999	-40.28
369.209	31.4
369.42	4.78
369.631	31.4
369.842	-9.56
370.053	-3.41
370.264	-7.51
370.474	58.03
370.685	41.64
370.896	-7.51
371.107	47.79
371.317	19.11
371.528	10.92
371.739	64.17
371.95	-13.65
372.16	12.97
372.371	-15.7
372.582	-34.13
372.792	-25.94
373.003	17.07
373.214	-3.41
373.424	31.4
373.635	19.11
373.846	31.4
374.056	8.87
374.267	-38.23
374.477	-11.61
374.688	55.98
374.898	-15.7
375.109	-95.57
375.319	-7.51
375.53	-23.89
375.74	0.68
375.951	10.92
376.161	2.73
376.372	76.46
376.582	2.73
376.793	4.78
377.003	12.97
377.214	-60.76
377.424	25.26
377.635	35.5
377.845	-52.56
378.055	31.4
378.266	-30.04
378.476	-32.08
378.686	64.17
378.897	39.59
379.107	-75.09
379.317	17.07
379.528	-9.56
379.738	-36.18
379.948	29.35
380.158	17.07
380.369	-5.46
380.579	0.68
380.789	-21.85
380.999	76.46
381.21	-7.51
381.42	72.36
381.63	70.31
381.84	-38.23
382.05	12.97
382.261	-58.71
382.471	0.68
382.681	-19.8
382.891	10.92
383.101	-30.04
383.311	49.83
383.521	68.27
383.731	-5.46
383.941	27.31
384.151	-1.37
384.361	33.45
384.571	49.83
384.781	12.97
384.991	47.79
385.201	-25.94
385.411	19.11
385.621	15.02
385.831	-30.04
386.041	39.59
386.251	-15.7
386.461	31.4
386.671	66.22
386.881	-9.56
387.091	-11.61
387.301	-1.37
387.511	-36.18
387.72	6.83
387.93	-5.46
388.14	-38.23
388.35	10.92
388.56	31.4
388.769	27.31
388.979	-9.56
389.189	0.68
389.399	47.79
389.609	8.87
389.818	17.07
390.028	37.55
390.238	-1.37
390.447	15.02
390.657	29.35
390.867	-15.7
391.076	-46.42
391.286	35.5
391.496	49.83
391.705	-3.41
391.915	58.03
392.125	37.55
392.334	2.73
392.544	45.74
392.753	43.69
392.963	-21.85
393.172	-11.61
393.382	0.68
393.591	53.93
393.801	45.74
394.01	109.22
394.22	64.17
394.429	74.41
394.639	-42.32
394.848	19.11
395.058	-87.38
395.267	-7.51
395.477	-48.47
395.686	27.31
395.895	66.22
396.105	51.88
396.314	35.5
396.524	68.27
396.733	10.92
396.942	41.64
397.152	10.92
397.361	49.83
397.57	35.5
397.78	23.21
397.989	-5.46
398.198	119.46
398.407	51.88
398.617	6.83
398.826	23.21
399.035	29.35
399.244	66.22
399.453	10.92
399.663	72.36
399.872	39.59
400.081	35.5
400.29	21.16
400.499	-7.51
400.708	80.55
400.917	-13.65
401.127	17.07
401.336	66.22
401.545	105.13
401.754	123.56
401.963	-9.56
402.172	31.4
402.381	-5.46
402.59	-32.08
402.799	31.4
403.008	31.4
403.217	51.88
403.426	23.21
403.635	82.6
403.844	53.93
404.053	-7.51
404.262	84.65
404.471	119.46
404.68	60.07
404.888	117.42
405.097	33.45
405.306	64.17
405.515	58.03
405.724	23.21
405.933	27.31
406.142	58.03
406.35	90.79
406.559	23.21
406.768	-1.37
406.977	101.03
407.185	98.99
407.394	103.08
407.603	105.13
407.812	55.98
408.02	98.99
408.229	101.03
408.438	70.31
408.646	43.69
408.855	70.31
409.064	133.8
409.272	55.98
409.481	113.32
409.69	78.51
409.898	137.9
410.107	113.32
410.315	123.56
410.524	51.88
410.733	96.94
410.941	96.94
411.15	180.9
411.358	96.94
411.567	135.85
411.775	101.03
411.984	152.23
412.192	158.38
412.401	82.6
412.609	146.09
412.818	168.62
413.026	166.57
413.234	207.53
413.443	127.66
413.651	111.27
413.86	180.9
414.068	223.91
414.276	209.58
414.485	201.38
414.693	158.38
414.901	176.81
415.11	119.46
415.318	182.95
415.526	221.86
415.734	219.82
415.943	174.76
416.151	295.59
416.359	217.77
416.567	219.82
416.776	303.78
416.984	180.9
417.192	322.21
417.4	232.1
417.608	273.06
417.817	273.06
418.025	193.19
418.233	365.22
418.441	318.12
418.649	301.73
418.857	340.65
419.065	379.56
419.273	291.49
419.481	381.6
419.689	354.98
419.897	361.13
420.105	400.04
420.313	453.28
420.521	369.32
420.729	451.24
420.937	365.22
421.145	404.13
421.353	457.38
421.561	404.13
421.769	490.15
421.977	606.88
422.185	512.67
422.393	582.31
422.601	514.72
422.809	578.21
423.017	572.07
423.224	592.55
423.432	617.12
423.64	596.64
423.848	719.52
424.056	672.42
424.263	737.95
424.471	641.7
424.679	750.24
424.887	789.15
425.094	725.66
425.302	768.67
425.51	705.18
425.718	858.78
425.925	727.71
426.133	881.31
426.341	940.7
426.548	928.41
426.756	826.01
426.964	961.18
427.171	909.98
427.379	1032.86
427.586	1012.38
427.794	1075.87
428.001	996
428.209	1168.02
428.417	1135.26
428.624	1182.36
428.832	1211.03
429.039	1215.13
429.247	1282.71
429.454	1303.19
429.662	1428.12
429.869	1356.44
430.076	1364.63
430.284	1315.48
430.491	1286.81
430.699	1440.4
430.906	1440.4
431.114	1520.28
431.321	1477.27
431.528	1579.67
431.736	1671.83
431.943	1817.23
432.15	1696.4
432.358	1798.8
432.565	1759.89
432.772	1677.97
432.979	1815.18
433.187	1864.33
433.394	1931.92
433.601	1985.16
433.808	2054.8
434.016	2069.13
434.223	2130.57
434.43	2241.16
434.637	2300.55
434.844	2214.54
435.052	2460.29
435.259	2368.13
435.466	2396.81
435.673	2318.98
435.88	2448.01
436.087	2744.96
436.294	2622.08
436.501	2644.61
436.708	2652.8
436.915	2734.72
437.122	2820.74
437.329	2929.28
437.537	3033.72
437.743	2916.99
437.95	2974.33
438.157	3152.51
438.364	3060.35
438.571	3193.47
438.778	3144.31
438.985	3586.68
439.192	3191.42
439.399	3447.41
439.606	3437.17
439.813	3586.68
440.02	3779.19
440.227	3736.18
440.433	3594.87
440.64	3684.98
440.847	3832.43
441.054	3883.63
441.261	4135.53
441.467	4074.09
441.674	4168.3
441.881	4178.54
442.088	4295.27
442.294	4235.88
442.501	4493.93
442.708	4332.14
442.914	4590.18
443.121	4733.54
443.328	4684.39
443.534	5108.32
443.741	4815.46
443.948	4751.97
444.154	5184.09
444.361	5005.92
444.568	5081.69
444.774	5141.08
444.981	5274.2
445.187	5341.79
445.394	5519.96
445.6	5597.78
445.807	5933.65
446.013	5780.05
446.22	5866.07
446.426	6298.19
446.633	6187.6
446.839	6355.53
447.046	6171.21
447.252	6302.28
447.459	6378.06
447.665	6513.22
447.871	6656.58
448.078	7078.46
448.284	6718.02
448.491	6847.04
448.697	7135.81
448.903	7207.48
449.11	7375.42
449.316	7182.91
449.522	7164.48
449.728	7381.56
449.935	7524.92
450.141	7434.81
450.347	7785.01
450.553	7473.72
450.76	7516.73
450.966	7678.52
451.172	7574.07
451.378	7803.44
451.584	7699
451.791	7920.18
451.997	7799.35
452.203	7834.16
452.409	8016.43
452.615	8088.11
452.821	7713.33
453.027	7674.42
453.233	8045.1
453.44	7537.21
453.646	7842.36
453.852	7764.53
454.058	7926.32
454.264	7658.04
454.47	7776.82
454.676	7658.04
454.882	7787.06
455.088	7172.67
455.294	7455.29
455.5	7338.55
455.705	7535.16
455.911	7158.33
456.117	7045.7
456.323	6890.05
456.529	6537.8
456.735	6890.05
456.941	6615.62
457.147	6572.61
457.352	6369.87
457.558	6474.31
457.764	6244.94
457.97	6034
458.176	6015.57
458.381	6052.43
458.587	5767.76
458.793	5804.63
458.999	5417.56
459.204	5900.88
459.41	5571.16
459.616	5270.11
459.821	5229.15
460.027	5276.25
460.233	5177.95
460.438	4924
460.644	4926.05
460.85	4817.51
461.055	4676.2
461.261	4676.2
461.466	4330.09
461.672	4371.05
461.878	4399.72
462.083	4348.52
462.289	4205.16
462.494	4080.24
462.7	3973.74
462.905	3680.88
463.111	3979.89
463.316	3926.64
463.522	3920.49
463.727	3936.88
463.932	3783.28
464.138	3910.26
464.343	3781.23
464.549	3758.71
464.754	3807.86
464.959	3807.86
465.165	3846.77
465.37	3613.3
465.575	3515
465.781	3707.51
465.986	3695.22
466.191	3623.54
466.397	3607.16
466.602	3330.68
466.807	3467.89
467.012	3424.89
467.218	3500.66
467.423	3410.55
467.628	3367.54
467.833	3613.3
468.038	3433.08
468.244	3236.47
468.449	3455.61
468.654	3238.52
468.859	3218.04
469.064	3361.4
469.269	3324.54
469.474	3275.38
469.679	3246.71
469.885	3160.7
470.09	3213.95
470.295	3150.46
470.5	3013.24
470.705	3039.87
470.91	3099.26
471.115	3084.92
471.32	3113.6
471.525	3175.03
471.73	3080.83
471.935	2857.6
472.139	2964.09
472.344	2792.06
472.549	2939.52
472.754	2957.95
472.959	2867.84
473.164	2800.26
473.369	2689.67
473.574	2839.17
473.778	2845.31
473.983	2828.93
474.188	2796.16
474.393	2693.76
474.598	2548.36
474.802	2699.91
475.007	2595.46
475.212	2579.08
475.417	2484.87
475.621	2583.17
475.826	2519.68
476.031	2464.39
476.235	2523.78
476.44	2384.52
476.645	2464.39
476.849	2370.18
477.054	2402.95
477.259	2372.23
477.463	2298.5
477.668	2343.56
477.872	2290.31
478.077	2282.12
478.282	2138.76
478.486	2192.01
478.691	2273.93
478.895	2237.06
479.1	2304.65
479.304	2208.39
479.509	2065.04
479.713	2140.81
479.918	2116.23
480.122	2077.32
480.326	2013.84
480.531	2126.47
480.735	2032.27
480.94	2071.18
481.144	2171.53
481.348	2114.19
481.553	2126.47
481.757	2022.03
481.961	2040.46
482.166	2095.75
482.37	2099.85
482.574	2032.27
482.778	1989.26
482.983	2151.05
483.187	2069.13
483.391	1966.73
483.595	2028.17
483.8	2017.93
484.004	1979.02
484.208	2151.05
484.412	2032.27
484.616	2122.38
484.821	2112.14
485.025	1927.82
485.229	2005.64
485.433	2083.47
485.637	1993.36
485.841	2065.04
486.045	2026.12
486.249	2062.99
486.453	2091.66
486.657	2019.98
486.861	2095.75
487.065	1972.88
487.269	2173.58
487.473	1938.06
487.677	2030.22
487.881	2130.57
488.085	1952.4
488.289	2069.13
488.493	2062.99
488.697	2079.37
488.901	2161.29
489.105	2003.6
489.309	2050.7
489.512	2132.62
489.716	2112.14
489.92	2101.9
490.124	2040.46
490.328	2165.39
490.531	2032.27
490.735	2122.38
490.939	2185.87
491.143	1993.36
491.346	2083.47
491.55	2198.15
491.754	1991.31
491.958	2183.82
492.161	2071.18
492.365	2083.47
492.569	2155.15
492.772	2222.73
492.976	2216.58
493.18	2095.75
493.383	2161.29
493.587	2251.4
493.79	2251.4
493.994	2181.77
494.197	2312.84
494.401	2177.67
494.605	2198.15
494.808	2286.22
495.012	2208.39
495.215	2294.41
495.419	2255.5
495.622	2355.85
495.825	2325.13
496.029	2388.61
496.232	2366.09
496.436	2321.03
496.639	2415.24
496.843	2517.64
497.046	2417.29
497.249	2579.08
497.453	2534.02
497.656	2601.6
497.859	2638.47
498.063	2493.06
498.266	2679.43
498.469	2681.47
498.673	2603.65
498.876	2613.89
499.079	2697.86
499.282	2585.22
499.485	2740.86
499.689	2736.77
499.892	2966.14
500.095	2871.93
500.298	2898.56
500.501	2902.65
500.705	2939.52
500.908	2984.57
501.111	2953.85
501.314	3023.48
501.517	3113.6
501.72	3107.45
501.923	3177.08
502.126	3177.08
502.329	3146.36
502.532	3191.42
502.735	3146.36
502.938	3408.5
503.141	3334.78
503.344	3322.49
503.547	3345.02
503.75	3433.08
503.953	3465.85
504.156	3420.79
504.359	3486.33
504.562	3553.91
504.765	3623.54
504.968	3596.92
505.17	3795.57
505.373	3693.17
505.576	3723.89
505.779	3756.66
505.982	3889.78
506.185	3893.87
506.387	4045.42
506.59	4012.65
506.793	4067.95
506.996	3951.21
507.198	4207.21
507.401	4151.92
507.604	4149.87
507.807	4381.29
508.009	4295.27
508.212	4196.97
508.415	4348.52
508.617	4436.58
508.82	4438.63
509.022	4432.49
509.225	4483.69
509.428	4647.52
509.63	4543.08
509.833	4661.86
510.035	4829.79
510.238	4631.14
510.44	4799.07
510.643	4706.91
510.845	4971.1
511.048	4919.9
511.25	4917.86
511.453	4952.67
511.655	5028.45
511.858	5053.02
512.06	5063.26
512.262	5157.47
512.465	5089.89
512.667	5438.04
512.87	5425.75
513.072	5286.49
513.274	5548.63
513.477	5481.05
513.679	5491.29
513.881	5532.25
514.084	5814.87
514.286	5745.23
514.488	5763.67
514.69	5823.06
514.893	5829.2
515.095	5964.37
515.297	5921.36
515.499	5984.85
515.701	6117.97
515.904	6269.52
516.106	6314.57
516.308	6283.85
516.51	6230.6
516.712	6398.54
516.914	6416.97
517.116	6453.83
517.318	6531.65
517.52	6566.47
517.722	6554.18
517.925	6746.69
518.127	6879.81
518.329	6922.82
518.531	6984.26
518.733	7002.69
518.935	7154.24
519.136	7182.91
519.338	7115.33
519.54	7170.62
519.742	7305.79
519.944	7328.31
520.146	7486.01
520.348	7633.46
520.55	7565.88
520.752	7451.19
520.954	7645.75
521.155	7643.7
521.357	7981.62
521.559	7791.16
521.761	7950.9
521.963	7852.59
522.164	8157.74
522.366	8325.68
522.568	8202.8
522.77	8206.89
522.971	8262.19
523.173	8264.24
523.375	8473.13
523.576	8624.68
523.778	8419.88
523.98	8618.54
524.181	8581.67
524.383	8452.65
524.584	8800.8
524.786	8661.54
524.988	8751.65
525.189	8890.91
525.391	8960.55
525.592	8960.55
525.794	9112.1
525.995	9052.7
526.197	8976.93
526.398	9214.49
526.6	9265.69
526.801	9220.64
527.003	9214.49
527.204	9234.97
527.406	9560.6
527.607	9441.82
527.808	9593.37
528.01	9292.32
528.211	9433.63
528.412	9595.42
528.614	9493.02
528.815	9439.77
529.016	9716.25
529.218	9671.19
529.419	9751.06
529.62	9611.8
529.822	9785.88
530.023	9646.62
530.224	9718.29
530.425	9779.73
530.626	9589.27
530.828	9734.68
531.029	9941.52
531.23	9898.52
531.431	9779.73
531.632	9875.99
531.833	9919
532.035	10025.49
532.236	9998.87
532.437	10031.63
532.638	10027.54
532.839	9966.1
533.04	10002.96
533.241	10037.78
533.442	9902.61
533.643	10201.61
533.844	10197.52
534.045	10144.27
534.246	10031.63
534.447	10138.13
534.648	10086.93
534.849	10244.62
535.05	10183.18
535.251	10121.74
535.451	10144.27
535.652	10101.26
535.853	10244.62
536.054	10218
536.255	10019.35
536.456	10347.02
536.657	10246.67
536.857	10172.94
537.058	10127.89
537.259	10439.18
537.46	10482.19
537.66	10078.74
537.861	10377.74
538.062	10406.41
538.263	10363.4
538.463	10172.94
538.664	10367.5
538.865	10123.79
539.065	10490.38
539.266	10324.49
539.466	10400.27
539.667	10402.32
539.868	10574.35
540.068	10250.77
540.269	10232.33
540.469	10428.94
540.67	10252.81
540.87	10199.57
541.071	10193.42
541.271	10287.63
541.472	10283.53
541.672	10359.31
541.873	10242.57
542.073	10261.01
542.274	10441.23
542.474	10416.65
542.675	10314.25
542.875	10320.4
543.075	10340.88
543.276	10281.49
543.476	10340.88
543.676	10281.49
543.877	10330.64
544.077	10490.38
544.277	10209.81
544.478	10406.41
544.678	10375.69
544.878	10232.33
545.078	10314.25
545.279	10166.8
545.479	10045.97
545.679	10355.21
545.879	10422.8
546.079	10105.36
546.28	10205.71
546.48	10084.88
546.68	10357.26
546.88	10473.99
547.08	10101.26
547.28	10117.65
547.48	10285.58
547.68	10107.41
547.88	9935.38
548.081	10338.83
548.281	10119.7
548.481	10103.31
548.681	10240.53
548.881	10172.94
549.081	10277.39
549.28	10316.3
549.48	10297.87
549.68	10261.01
549.88	10170.9
550.08	10027.54
550.28	10172.94
550.48	10283.53
550.68	10426.89
550.88	10123.79
551.08	10115.6
551.279	10273.29
551.479	10093.07
551.679	10258.96
551.879	10267.15
552.079	10238.48
552.278	10240.53
552.478	10082.83
552.678	10152.46
552.878	10547.72
553.077	10162.7
553.277	10129.94
553.477	10256.91
553.676	10062.35
553.876	10101.26
554.076	10387.98
554.275	9951.76
554.475	10297.87
554.674	10174.99
554.874	10144.27
555.074	10041.87
555.273	10113.55
555.473	10093.07
555.672	9773.59
555.872	9910.8
556.071	10088.98
556.271	10256.91
556.47	10000.91
556.67	10023.44
556.869	9830.93
557.068	9992.72
557.268	10054.16
557.467	9880.08
557.667	9806.36
557.866	10007.06
558.065	9800.21
558.265	9957.91
558.464	9736.73
558.663	10088.98
558.863	9722.39
559.062	9923.09
559.261	9933.33
559.461	9761.3
559.66	9749.01
559.859	9591.32
560.058	9740.82
560.258	9759.25
560.457	9792.02
560.656	9894.42
560.855	9652.76
561.054	9847.32
561.253	9832.98
561.453	9515.55
561.652	9699.86
561.851	9599.51
562.05	9499.16
562.249	9294.36
562.448	9542.17
562.647	9447.96
562.846	9456.15
563.045	9613.85
563.244	9558.55
563.443	9531.93
563.642	9421.34
563.841	9368.09
564.04	9269.79
564.239	9349.66
564.438	9237.02
564.637	9417.24
564.836	9210.4
565.035	9333.28
565.234	9378.33
565.432	9138.72
565.631	9204.25
565.83	9241.12
566.029	8964.64
566.228	9038.37
566.427	9054.75
566.625	9138.72
566.824	8886.82
567.023	9112.1
567.222	8868.39
567.42	9056.8
567.619	8839.72
567.818	9130.53
568.016	8847.91
568.215	8931.87
568.414	8952.35
568.612	8690.21
568.811	8964.64
569.01	8862.24
569.208	8661.54
569.407	8837.67
569.605	8636.97
569.804	8729.13
570.002	8657.45
570.201	8849.96
570.4	8591.91
570.598	8376.87
570.797	8514.09
570.995	8550.95
571.193	8415.79
571.392	8684.07
571.59	8530.47
571.789	8430.12
571.987	8614.44
572.186	8352.3
572.384	8346.16
572.582	8301.1
572.781	8342.06
572.979	8292.91
573.177	8411.69
573.376	8225.33
573.574	8292.91
573.772	8346.16
573.971	8227.37
574.169	8239.66
574.367	8104.49
574.565	8100.4
574.763	7963.19
574.962	8069.68
575.16	7879.22
575.358	7950.9
575.556	7916.08
575.754	7987.76
575.952	7881.27
576.151	8061.49
576.349	7854.64
576.547	7871.03
576.745	7948.85
576.943	7750.2
577.141	7746.1
577.339	7731.76
577.537	7899.7
577.735	7662.13
577.933	7727.67
578.131	7506.49
578.329	7637.56
578.527	7633.46
578.725	7758.39
578.923	7422.52
579.121	7533.11
579.319	7490.1
579.516	7514.68
579.714	7461.43
579.912	7402.04
580.11	7492.15
580.308	7578.17
580.506	7445.05
580.704	7256.64
580.901	7451.19
581.099	7414.33
581.297	7285.31
581.495	7363.13
581.692	7408.19
581.89	7377.47
582.088	7248.44
582.285	7090.75
582.483	7100.99
582.681	7103.04
582.878	7170.62
583.076	7006.78
583.274	7156.29
583.471	7129.66
583.669	7043.65
583.866	7019.07
584.064	6933.06
584.262	6988.35
584.459	6920.77
584.657	7141.95
584.854	6976.06
585.052	6918.72
585.249	6857.28
585.447	6773.32
585.644	6881.86
585.841	6732.36
586.039	7004.74
586.236	6863.43
586.434	6779.46
586.631	6718.02
586.828	6885.95
587.026	6941.25
587.223	6867.52
587.42	6654.53
587.618	6808.13
587.815	6840.9
588.012	6617.67
588.21	6595.14
588.407	6793.79
588.604	6625.86
588.801	6500.94
588.999	6437.45
589.196	6607.43
589.393	6611.53
589.59	6574.66
589.787	6388.3
589.984	6435.4
590.182	6382.15
590.379	6361.67
590.576	6429.26
590.773	6328.91
590.97	6349.39
591.167	6416.97
591.364	6421.06
591.561	6412.87
591.758	6199.88
591.955	6238.8
592.152	6335.05
592.349	6236.75
592.546	6253.13
592.743	6126.16
592.94	6152.78
593.137	6230.6
593.334	5966.42
593.531	5968.46
593.727	6087.25
593.924	6074.96
594.121	6040.14
594.318	6007.38
594.515	5894.74
594.712	6138.44
594.908	5866.07
595.105	6083.15
595.302	5921.36
595.499	6027.85
595.696	6019.66
595.892	5827.15
596.089	5931.6
596.286	5884.5
596.482	5825.11
596.679	5855.83
596.876	5833.3
597.072	5825.11
597.269	5732.95
597.466	5691.99
597.662	5648.98
597.859	5855.83
598.055	5763.67
598.252	5724.76
598.448	5685.84
598.645	5648.98
598.841	5632.6
599.038	5560.92
599.234	5628.5
599.431	5679.7
599.627	5542.49
599.824	5620.31
600.02	5565.01
600.217	5716.56
600.413	5585.49
600.609	5581.4
600.806	5507.67
601.002	5417.56
601.198	5294.68
601.395	5376.6
601.591	5487.19
601.787	5526.1
601.984	5468.76
602.18	5378.65
602.376	5233.24
602.572	5323.35
602.769	5296.73
602.965	5286.49
603.161	5304.92
603.357	5038.69
603.553	5235.29
603.75	5157.47
603.946	5302.87
604.142	5257.82
604.338	5192.28
604.534	5218.91
604.73	5169.76
604.926	5173.85
605.122	5108.32
605.318	4946.53
605.514	5151.32
605.71	5073.5
605.906	4973.15
606.102	5075.55
606.298	5071.45
606.494	5048.93
606.69	4981.34
606.886	4915.81
607.082	4940.38
607.278	4997.73
607.474	4907.62
607.67	4928.1
607.866	4891.23
608.062	4901.47
608.257	5024.35
608.453	4817.51
608.649	5081.69
608.845	4780.64
609.041	5030.49
609.236	4827.74
609.432	4868.7
609.628	4774.5
609.824	4749.92
610.019	4778.59
610.215	4883.04
610.411	4794.98
610.606	4706.91
610.802	4670.05
610.998	4571.75
611.193	4901.47
611.389	4739.68
611.584	4690.53
611.78	4620.9
611.976	4713.06
612.171	4842.08
612.367	4649.57
612.562	4641.38
612.758	4516.45
612.953	4498.02
613.149	4723.3
613.344	4625
613.539	4575.84
613.735	4563.56
613.93	4590.18
614.126	4522.6
614.321	4614.76
614.517	4588.13
614.712	4551.27
614.907	4627.04
615.103	4528.74
615.298	4555.37
615.493	4479.59
615.688	4455.01
615.884	4590.18
616.079	4407.91
616.274	4520.55
616.47	4459.11
616.665	4520.55
616.86	4366.95
617.055	4409.96
617.25	4493.93
617.445	4504.17
617.641	4424.3
617.836	4379.24
618.031	4412.01
618.226	4272.75
618.421	4340.33
618.616	4319.85
618.811	4258.41
619.006	4416.1
619.201	4231.79
619.396	4459.11
619.591	4211.31
619.786	4252.27
619.981	4172.4
620.176	4143.72
620.371	4256.36
620.566	4147.82
620.761	4254.31
620.956	4250.22
621.151	4287.08
621.346	4098.67
621.541	4160.11
621.735	4225.64
621.93	4016.75
622.125	3961.45
622.32	4057.71
622.515	3938.93
622.709	4041.32
622.904	4065.9
623.099	4000.37
623.294	3871.34
623.488	3926.64
623.683	4024.94
623.878	3846.77
624.072	3912.3
624.267	3785.33
624.462	3725.94
624.656	3768.95
624.851	3787.38
625.046	3709.55
625.24	3617.4
625.435	3662.45
625.629	3656.31
625.824	3672.69
626.018	3680.88
626.213	3490.42
626.407	3553.91
626.602	3549.81
626.796	3560.05
626.991	3594.87
627.185	3515
627.38	3535.48
627.574	3500.66
627.768	3527.28
627.963	3283.58
628.157	3426.93
628.352	3416.69
628.546	3291.77
628.74	3340.92
628.935	3510.9
629.129	3385.98
629.323	3381.88
629.517	3347.06
629.712	3232.38
629.906	3261.05
630.1	3281.53
630.294	3289.72
630.489	3170.94
630.683	3289.72
630.877	3211.9
631.071	3168.89
631.265	3197.56
631.459	3084.92
631.653	3134.07
631.848	3093.12
632.042	3121.79
632.236	3168.89
632.43	3021.44
632.624	3082.88
632.818	3009.15
633.012	3050.11
633.206	3156.6
633.4	3097.21
633.594	2921.09
633.788	2937.47
633.982	3070.59
634.176	2847.36
634.369	2919.04
634.563	2947.71
634.757	2910.85
634.951	2851.46
635.145	2886.27
635.339	2779.78
635.533	2828.93
635.726	2949.76
635.92	2962.05
636.114	2738.82
636.308	2738.82
636.501	2882.17
636.695	2660.99
636.889	2714.24
637.083	2751.1
637.276	2697.86
637.47	2675.33
637.664	2581.12
637.857	2783.87
638.051	2628.23
638.244	2675.33
638.438	2683.52
638.632	2665.09
638.825	2564.74
639.019	2544.26
639.212	2583.17
639.406	2620.03
639.599	2458.25
639.793	2597.51
639.986	2593.41
640.18	2507.4
640.373	2431.62
640.567	2503.3
640.76	2478.72
640.954	2310.79
641.147	2452.1
641.34	2388.61
641.534	2445.96
641.727	2382.47
641.92	2402.95
642.114	2296.46
642.307	2253.45
642.5	2349.7
642.694	2249.35
642.887	2292.36
643.08	2257.54
643.273	2386.57
643.467	2216.58
643.66	2288.26
643.853	2241.16
644.046	2204.3
644.239	2251.4
644.432	2189.96
644.626	2099.85
644.819	2192.01
645.012	2288.26
645.205	2265.74
645.398	2237.06
645.591	2099.85
645.784	2216.58
645.977	2142.86
646.17	2054.8
646.363	2085.51
646.556	2116.23
646.749	2042.51
646.942	2019.98
647.135	2077.32
647.328	1899.15
647.521	1960.59
647.714	1966.73
647.907	2009.74
648.099	1923.73
648.292	2017.93
648.485	2001.55
648.678	2003.6
648.871	2052.75
649.064	1933.97
649.256	1952.4
649.449	1950.35
649.642	2017.93
649.835	1895.05
650.027	1929.87
650.22	1895.05
650.413	1856.14
650.605	1835.66
650.798	1759.89
650.991	1886.86
651.183	1952.4
651.376	1831.57
651.568	1835.66
651.761	1821.33
651.954	1833.61
652.146	1782.42
652.339	1862.29
652.531	1786.51
652.724	1774.22
652.916	1704.59
653.109	1589.91
653.301	1710.74
653.494	1786.51
653.686	1794.7
653.879	1700.5
654.071	1671.83
654.263	1667.73
654.456	1684.11
654.648	1735.31
654.84	1671.83
655.033	1641.11
655.225	1639.06
655.417	1698.45
655.61	1690.26
655.802	1540.76
655.994	1589.91
656.186	1675.92
656.379	1567.38
656.571	1462.93
656.763	1514.13
656.955	1583.76
657.148	1561.23
657.34	1551
657.532	1604.24
657.724	1522.32
657.916	1692.3
658.108	1495.7
658.3	1579.67
658.492	1581.71
658.684	1460.88
658.876	1551
659.068	1458.84
659.26	1495.7
659.452	1522.32
659.644	1442.45
659.836	1518.23
660.028	1538.71
660.22	1356.44
660.412	1426.07
660.604	1452.69
660.796	1395.35
660.988	1397.4
661.18	1405.59
661.372	1456.79
661.563	1372.82
661.755	1389.21
661.947	1362.58
662.139	1358.49
662.331	1409.69
662.522	1417.88
662.714	1329.81
662.906	1307.29
663.097	1383.06
663.289	1376.92
663.481	1348.25
663.673	1346.2
663.864	1340.05
664.056	1374.87
664.247	1290.9
664.439	1342.1
664.631	1272.47
664.822	1268.38
665.014	1284.76
665.205	1356.44
665.397	1196.7
665.588	1360.53
665.78	1366.68
665.971	1276.57
666.163	1268.38
666.354	1237.66
666.546	1241.75
666.737	1303.19
666.929	1231.51
667.12	1227.42
667.311	1266.33
667.503	1309.33
667.694	1258.14
667.885	1204.89
668.077	1188.5
668.268	1249.94
668.459	1161.88
668.651	1313.43
668.842	1290.9
669.033	1165.98
669.224	1079.96
669.416	1251.99
669.607	1098.39
669.798	1157.79
669.989	1122.97
670.18	1112.73
670.371	1102.49
670.563	1032.86
670.754	1151.64
670.945	1168.02
671.136	1217.18
671.327	1137.31
671.518	1122.97
671.709	1147.55
671.9	1178.26
672.091	1118.87
672.282	1088.15
672.473	1055.39
672.664	1026.71
672.855	1155.74
673.046	1170.07
673.237	1096.35
673.428	1106.59
673.619	1120.92
673.809	1026.71
674	1192.6
674.191	1086.11
674.382	1010.33
674.573	1077.91
674.764	1137.31
674.954	1075.87
675.145	1059.48
675.336	1039
675.527	1075.87
675.717	1002.14
675.908	1043.1
676.099	996
676.289	1030.81
676.48	1032.86
676.671	1008.28
676.861	1030.81
677.052	998.04
677.243	1030.81
677.433	950.94
677.624	957.08
677.814	983.71
678.005	940.7
678.195	1000.09
678.386	907.93
678.576	1100.44
678.767	981.66
678.957	1002.14
679.148	979.61
679.338	1041.05
679.529	975.52
679.719	961.18
679.909	1047.19
680.1	936.6
680.29	979.61
680.481	905.88
680.671	989.85
680.861	991.9
681.052	993.95
681.242	952.99
681.432	940.7
681.622	965.28
681.813	987.8
682.003	952.99
682.193	993.95
682.383	996
682.573	940.7
682.764	924.32
682.954	920.22
683.144	952.99
683.334	936.6
683.524	1000.09
683.714	961.18
683.904	955.04
684.094	955.04
684.284	961.18
684.474	998.04
684.664	969.37
684.854	897.69
685.044	869.02
685.234	846.49
685.424	844.45
685.614	973.47
685.804	940.7
685.994	895.64
686.184	903.84
686.374	952.99
686.564	981.66
686.753	864.93
686.943	887.45
687.133	877.21
687.323	912.03
687.513	897.69
687.702	928.41
687.892	821.92
688.082	914.08
688.272	950.94
688.461	860.83
688.651	907.93
688.841	869.02
689.03	830.11
689.22	875.17
689.41	938.65
689.599	871.07
689.789	809.63
689.979	840.35
690.168	744.1
690.358	899.74
690.547	858.78
690.737	801.44
690.926	842.4
691.116	879.26
691.305	920.22
691.495	793.25
691.684	752.29
691.874	823.97
692.063	848.54
692.252	836.25
692.442	883.36
692.631	807.58
692.82	797.34
693.01	842.4
693.199	748.19
693.388	871.07
693.578	770.72
693.767	834.21
693.956	809.63
694.146	768.67
694.335	826.01
694.524	707.23
694.713	725.66
694.902	766.62
695.092	735.9
695.281	750.24
695.47	752.29
695.659	864.93
695.848	764.58
696.037	801.44
696.226	864.93
696.415	789.15
696.604	764.58
696.793	803.49
696.982	774.81
697.171	846.49
697.36	793.25
697.549	854.69
697.738	748.19
697.927	731.81
698.116	832.16
698.305	754.34
698.494	709.28
698.683	760.48
698.872	856.73
699.061	776.86
699.25	785.05
699.438	823.97
699.627	807.58
699.816	852.64
700.005	793.25
700.193	805.53
700.382	719.52
700.571	760.48
700.76	764.58
700.948	754.34
701.137	776.86
701.326	805.53
701.514	787.1
701.703	795.29
701.892	658.08
702.08	852.64
702.269	729.76
702.457	684.7
702.646	737.95
702.834	801.44
703.023	725.66
703.212	821.92
703.4	768.67
703.589	826.01
703.777	729.76
703.965	758.43
704.154	725.66
704.342	752.29
704.531	801.44
704.719	748.19
704.907	815.77
705.096	770.72
705.284	658.08
705.472	772.77
705.661	821.92
705.849	836.25
706.037	823.97
706.226	725.66
706.414	764.58
706.602	731.81
706.79	901.79
706.979	778.91
707.167	821.92
707.355	801.44
707.543	803.49
707.731	864.93
707.919	742.05
708.107	828.06
708.296	787.1
708.484	838.3
708.672	866.97
708.86	776.86
709.048	780.96
709.236	748.19
709.424	768.67
709.612	809.63
709.8	783.01
709.988	783.01
710.176	801.44
710.364	731.81
710.551	688.8
710.739	717.47
710.927	742.05
711.115	826.01
711.303	809.63
711.491	787.1
711.679	725.66
711.866	842.4
712.054	787.1
712.242	789.15
712.43	821.92
712.617	826.01
712.805	793.25
712.993	707.23
713.181	727.71
713.368	817.82
713.556	770.72
713.744	801.44
713.931	850.59
714.119	811.68
714.306	721.57
714.494	785.05
714.682	789.15
714.869	885.41
715.057	793.25
715.244	844.45
715.432	701.09
715.619	799.39
715.807	760.48
715.994	762.53
716.182	830.11
716.369	930.46
716.556	809.63
716.744	883.36
716.931	799.39
717.119	854.69
717.306	772.77
717.493	813.73
717.681	756.38
717.868	899.74
718.055	832.16
718.242	807.58
718.43	789.15
718.617	793.25
718.804	875.17
718.991	746.14
719.179	803.49
719.366	866.97
719.553	778.91
719.74	840.35
719.927	787.1
720.114	858.78
720.301	760.48
720.488	801.44
720.676	830.11
720.863	887.45
721.05	811.68
721.237	862.88
721.424	879.26
721.611	815.77
721.798	754.34
721.985	817.82
722.172	785.05
722.358	744.1
722.545	840.35
722.732	797.34
722.919	809.63
723.106	848.54
723.293	793.25
723.48	789.15
723.667	801.44
723.853	748.19
724.04	858.78
724.227	768.67
724.414	811.68
724.6	801.44
724.787	815.77
724.974	885.41
725.161	778.91
725.347	723.62
725.534	901.79
725.72	758.43
725.907	799.39
726.094	832.16
726.28	809.63
726.467	821.92
726.653	830.11
726.84	889.5
727.027	805.53
727.213	789.15
727.4	823.97
727.586	885.41
727.773	821.92
727.959	838.3
728.145	733.86
728.332	754.34
728.518	846.49
728.705	817.82
728.891	791.2
729.077	766.62
729.264	889.5
729.45	805.53
729.636	809.63
729.823	793.25
730.009	758.43
730.195	811.68
730.382	838.3
730.568	750.24
730.754	823.97
730.94	875.17
731.126	785.05
731.313	817.82
731.499	840.35
731.685	840.35
731.871	752.29
732.057	821.92
732.243	850.59
732.429	869.02
732.615	811.68
732.801	805.53
732.987	797.34
733.173	862.88
733.359	883.36
733.545	813.73
733.731	791.2
733.917	815.77
734.103	780.96
734.289	758.43
734.475	869.02
734.661	754.34
734.847	717.47
735.033	797.34
735.219	768.67
735.404	850.59
735.59	823.97
735.776	721.57
735.962	817.82
736.148	785.05
736.333	780.96
736.519	838.3
736.705	791.2
736.89	764.58
737.076	799.39
737.262	842.4
737.447	803.49
737.633	768.67
737.819	830.11
738.004	821.92
738.19	785.05
738.375	748.19
738.561	725.66
738.747	846.49
738.932	744.1
739.118	883.36
739.303	840.35
739.489	801.44
739.674	823.97
739.859	778.91
740.045	776.86
740.23	774.81
740.416	690.85
740.601	772.77
740.786	762.53
740.972	699.04
741.157	762.53
741.342	731.81
741.528	858.78
741.713	813.73
741.898	774.81
742.084	774.81
742.269	776.86
742.454	731.81
742.639	811.68
742.824	643.74
743.01	713.38
743.195	809.63
743.38	764.58
743.565	703.14
743.75	725.66
743.935	772.77
744.12	752.29
744.305	711.33
744.49	692.9
744.675	740
744.86	688.8
745.045	768.67
745.23	670.37
745.415	746.14
745.6	670.37
745.785	703.14
745.97	772.77
746.155	696.99
746.34	752.29
746.525	688.8
746.71	774.81
746.895	760.48
747.079	676.51
747.264	692.9
747.449	688.8
747.634	643.74
747.819	660.13
748.003	768.67
748.188	645.79
748.373	701.09
748.557	637.6
748.742	690.85
748.927	627.36
749.111	658.08
749.296	643.74
749.481	559.78
749.665	613.03
749.85	563.87
750.034	680.61
750.219	664.22
750.404	627.36
750.588	539.3
750.773	590.5
750.957	592.55
751.141	627.36
751.326	608.93
751.51	557.73
751.695	574.11
751.879	639.65
752.064	615.07
752.248	641.7
752.432	582.31
752.617	619.17
752.801	576.16
752.985	508.58
753.17	529.06
753.354	570.02
753.538	643.74
753.722	531.11
753.907	527.01
754.091	516.77
754.275	600.74
754.459	543.39
754.643	537.25
754.828	436.9
755.012	563.87
755.196	500.39
755.38	524.96
755.564	496.29
755.748	529.06
755.932	463.52
756.116	567.97
756.3	469.67
756.484	561.83
756.668	512.67
756.852	520.87
757.036	531.11
757.22	486.05
757.404	586.4
757.588	445.09
757.772	463.52
757.956	424.61
758.14	506.53
758.323	449.19
758.507	531.11
758.691	467.62
758.875	494.24
759.059	418.47
759.242	387.75
759.426	496.29
759.61	400.04
759.794	481.96
759.977	451.24
760.161	500.39
760.345	383.65
760.528	410.28
760.712	397.99
760.895	393.89
761.079	395.94
761.263	387.75
761.446	348.84
761.63	436.9
761.813	410.28
761.997	410.28
762.18	477.86
762.364	430.76
762.547	430.76
762.731	354.98
762.914	447.14
763.098	434.85
763.281	400.04
763.464	465.57
763.648	338.6
763.831	367.27
764.015	359.08
764.198	420.52
764.381	457.38
764.564	420.52
764.748	273.06
764.931	357.03
765.114	342.69
765.297	426.66
765.481	371.37
765.664	428.71
765.847	383.65
766.03	350.89
766.213	311.97
766.397	363.17
766.58	348.84
766.763	377.51
766.946	342.69
767.129	410.28
767.312	275.11
767.495	369.32
767.678	416.42
767.861	369.32
768.044	418.47
768.227	385.7
768.41	404.13
768.593	424.61
768.776	330.41
768.959	338.6
769.142	334.5
769.324	424.61
769.507	344.74
769.69	375.46
769.873	381.6
770.056	344.74
770.239	330.41
770.421	371.37
770.604	395.94
770.787	338.6
770.97	365.22
771.152	377.51
771.335	346.79
771.518	297.64
771.7	395.94
771.883	301.73
772.066	297.64
772.248	367.27
772.431	328.36
772.613	387.75
772.796	338.6
772.978	264.87
773.161	371.37
773.343	346.79
773.526	293.54
773.708	332.45
773.891	268.97
774.073	395.94
774.256	256.68
774.438	279.21
774.621	334.5
774.803	324.26
774.985	344.74
775.168	258.73
775.35	264.87
775.532	293.54
775.715	320.17
775.897	262.82
776.079	357.03
776.261	322.21
776.444	287.4
776.626	260.77
776.808	279.21
776.99	314.02
777.173	193.19
777.355	203.43
777.537	256.68
777.719	215.72
777.901	248.49
778.083	334.5
778.265	250.53
778.447	281.25
778.629	256.68
778.811	240.3
778.993	203.43
779.175	148.14
779.357	246.44
779.539	201.38
779.721	240.3
779.903	182.95
780.085	242.34
780.267	264.87
780.449	133.8
780.631	170.66
780.812	330.41
780.994	215.72
781.176	262.82
781.358	252.58
781.54	189.1
781.721	293.54
781.903	225.96
782.085	193.19
782.267	225.96
782.448	266.92
782.63	219.82
782.812	273.06
782.993	252.58
783.175	240.3
783.357	203.43
783.538	215.72
783.72	135.85
783.901	219.82
784.083	197.29
784.264	158.38
784.446	191.14
784.627	174.76
784.809	221.86
784.99	213.67
785.172	191.14
785.353	187.05
785.535	268.97
785.716	133.8
785.897	137.9
786.079	170.66
786.26	111.27
786.441	160.42
786.623	160.42
786.804	172.71
786.985	150.18
787.167	172.71
787.348	131.75
787.529	121.51
787.71	191.14
787.891	170.66
788.073	162.47
788.254	201.38
788.435	244.39
788.616	172.71
788.797	131.75
788.978	203.43
789.159	119.46
789.34	172.71
789.522	168.62
789.703	150.18
789.884	84.65
790.065	115.37
790.246	180.9
790.427	256.68
790.607	113.32
790.788	219.82
790.969	166.57
791.15	111.27
791.331	129.7
791.512	105.13
791.693	121.51
791.874	150.18
792.054	146.09
792.235	148.14
792.416	119.46
792.597	154.28
792.778	94.89
792.958	137.9
793.139	178.86
793.32	154.28
793.5	92.84
793.681	133.8
793.862	191.14
794.042	96.94
794.223	43.69
794.404	139.94
794.584	58.03
794.765	94.89
794.945	72.36
795.126	211.62
795.306	154.28
795.487	80.55
795.667	96.94
795.848	141.99
796.028	86.7
796.209	209.58
796.389	109.22
796.57	154.28
796.75	137.9
796.93	103.08
797.111	135.85
797.291	105.13
797.471	139.94
797.652	123.56
797.832	51.88
798.012	148.14
798.192	125.61
798.373	62.12
798.553	29.35
798.733	178.86
798.913	84.65
799.093	0.68
799.274	53.93
799.454	21.16
799.634	137.9
799.814	119.46
799.994	166.57
800.174	115.37
800.354	127.66
800.534	121.51
800.714	55.98
800.894	76.46
801.074	111.27
801.254	47.79
801.434	76.46
801.614	137.9
801.794	113.32
801.974	371.37
802.154	-5.46
802.334	148.14
802.514	17.07
802.693	119.46
802.873	62.12
803.053	133.8
803.233	43.69
803.413	4.78
803.592	55.98
803.772	25.26
803.952	117.42
804.131	64.17
804.311	92.84
804.491	117.42
804.67	66.22
804.85	113.32
805.03	127.66
805.209	62.12
805.389	47.79
805.568	41.64
805.748	15.02
805.928	78.51
806.107	84.65
806.287	113.32
806.466	15.02
806.646	72.36
806.825	10.92
807.004	113.32
807.184	68.27
807.363	27.31
807.543	47.79
807.722	121.51
807.901	113.32
808.081	51.88
808.26	51.88
808.439	60.07
808.619	88.75
808.798	62.12
808.977	64.17
809.156	103.08
809.336	-11.61
809.515	105.13
809.694	23.21
809.873	80.55
810.052	113.32
810.231	86.7
810.411	37.55
810.59	113.32
810.769	101.03
810.948	197.29
811.127	27.31
811.306	23.21
811.485	80.55
811.664	113.32
811.843	21.16
812.022	31.4
812.201	98.99
812.38	150.18
812.559	37.55
812.737	78.51
812.916	47.79
813.095	86.7
813.274	41.64
813.453	109.22
813.632	72.36
813.811	129.7
813.989	2.73
814.168	72.36
814.347	76.46
814.526	94.89
814.704	51.88
814.883	82.6
815.062	86.7
815.24	141.99
815.419	49.83
815.598	-13.65
815.776	119.46
815.955	68.27
816.133	17.07
816.312	98.99
816.49	-5.46
816.669	10.92
816.847	47.79
817.026	96.94
817.204	66.22
817.383	74.41
817.561	-7.51
817.74	41.64
817.918	111.27
818.097	96.94
818.275	-19.8
818.453	70.31
818.632	109.22
818.81	64.17
818.988	31.4
819.167	62.12
819.345	62.12
819.523	60.07
819.701	96.94
819.879	6.83
820.058	72.36
820.236	76.46
820.414	74.41
820.592	10.92
820.77	72.36
820.948	55.98
821.127	113.32
821.305	-1.37
821.483	2.73
821.661	60.07
821.839	43.69
822.017	86.7
822.195	25.26
822.373	19.11
822.551	33.45
822.729	-11.61
822.907	23.21
823.085	21.16
823.262	33.45
823.44	-25.94
823.618	27.31
823.796	103.08
823.974	92.84
824.152	90.79
824.329	41.64
824.507	98.99
824.685	86.7
824.863	60.07
825.04	98.99
825.218	51.88
825.396	35.5
825.574	25.26
825.751	58.03
825.929	96.94
826.107	62.12
826.284	19.11
826.462	70.31
826.639	33.45
826.817	41.64
826.994	49.83
827.172	15.02
827.349	27.31
827.527	70.31
827.704	-5.46
827.882	33.45
828.059	31.4
828.237	4.78
828.414	-5.46
828.591	-48.47
828.769	37.55
828.946	45.74
829.124	58.03
829.301	82.6
829.478	-13.65
829.655	-40.28
829.833	72.36
830.01	-25.94
830.187	41.64
830.364	8.87
830.542	70.31
830.719	2.73
830.896	-27.99
831.073	80.55
831.25	0.68
831.427	-9.56
831.604	80.55
831.782	23.21
831.959	70.31
832.136	0.68
832.313	23.21
832.49	8.87
832.667	0.68
832.844	6.83
833.021	15.02
833.198	43.69
833.374	10.92
833.551	-17.75
833.728	8.87
833.905	58.03
834.082	17.07
834.259	51.88
834.436	31.4
834.612	25.26
834.789	68.27
834.966	53.93
835.143	-9.56
835.319	64.17
835.496	47.79
835.673	31.4
835.85	55.98
836.026	-3.41
836.203	-3.41
836.38	-46.42
836.556	23.21
836.733	-40.28
836.909	35.5
837.086	-50.52
837.262	105.13
837.439	-1.37
837.616	-25.94
837.792	66.22
837.968	-1.37
838.145	31.4
838.321	-21.85
838.498	35.5
838.674	-48.47
838.851	29.35
839.027	31.4
839.203	-7.51
839.38	47.79
839.556	-23.89
839.732	58.03
839.909	6.83
840.085	45.74
840.261	8.87
840.437	-3.41
840.614	-1.37
840.79	70.31
840.966	-11.61
841.142	-46.42
841.318	-11.61
841.494	10.92
841.671	80.55
841.847	-38.23
842.023	43.69
842.199	31.4
842.375	35.5
842.551	-68.95
842.727	-7.51
842.903	-7.51
843.079	4.78
843.255	53.93
843.431	66.22
843.607	-73.04
843.783	-17.75
843.959	31.4
844.134	35.5
844.31	47.79
844.486	-40.28
844.662	37.55
844.838	6.83
845.013	-32.08
845.189	64.17
845.365	47.79
845.541	-62.8
845.716	17.07
845.892	78.51
846.068	39.59
846.244	-36.18
846.419	-13.65
846.595	-1.37
846.77	-75.09
846.946	15.02
847.122	6.83
847.297	-11.61
847.473	39.59
847.648	45.74
847.824	15.02
847.999	-11.61
848.175	0.68
848.35	37.55
848.526	92.84
848.701	60.07
848.876	-9.56
849.052	-38.23
849.227	-60.76
849.403	29.35
849.578	-21.85
849.753	35.5
849.929	49.83
850.104	0.68
850.279	-44.37
850.454	-75.09
850.63	82.6
850.805	21.16
850.98	51.88
851.155	10.92
851.33	-60.76
851.505	-34.13
851.681	49.83
851.856	-23.89
852.031	29.35
852.206	-42.32
852.381	17.07
852.556	-66.9
852.731	2.73
852.906	12.97
853.081	4.78
853.256	53.93
853.431	-9.56
853.606	-77.14
853.781	33.45
853.956	-15.7
854.131	43.69
854.305	-27.99
854.48	41.64
854.655	23.21
854.83	-5.46
855.005	31.4
855.18	-5.46
855.354	74.41
855.529	62.12
855.704	51.88
855.879	39.59
856.053	-5.46
856.228	-13.65
856.403	-11.61
856.577	43.69
856.752	10.92
856.926	25.26
857.101	2.73
857.276	-5.46
857.45	-42.32
857.625	49.83
857.799	31.4
857.974	8.87
858.148	-71
858.323	27.31
858.497	-38.23
858.672	-46.42
858.846	-62.8
859.02	51.88
859.195	-17.75
859.369	37.55
859.543	58.03
859.718	0.68
859.892	10.92
860.066	-25.94
860.241	10.92
860.415	2.73
860.589	-30.04
860.763	6.83
860.938	21.16
861.112	-38.23
861.286	-11.61
861.46	-11.61
861.634	-3.41
861.808	-32.08
861.982	45.74
862.157	31.4
862.331	-77.14
862.505	-25.94
862.679	-62.8
862.853	47.79
863.027	-64.85
863.201	17.07
863.375	2.73
863.549	-27.99
863.722	-13.65
863.896	43.69
864.07	-3.41
864.244	64.17
864.418	82.6
864.592	90.79
864.766	6.83
864.939	-46.42
865.113	-68.95
865.287	43.69
865.461	-11.61
865.634	6.83
865.808	-3.41
865.982	-52.56
866.156	-9.56
866.329	-23.89
866.503	35.5
866.676	-64.85
866.85	41.64
867.024	-42.32
867.197	-17.75
867.371	70.31
867.544	-9.56
867.718	-44.37
867.891	39.59
868.065	10.92
868.238	-46.42
868.412	-3.41
868.585	41.64
868.759	15.02
868.932	-30.04
869.105	-1.37
869.279	-9.56
869.452	-36.18
869.625	47.79
869.799	-1.37
869.972	27.31
870.145	-30.04
870.319	66.22
870.492	-17.75
870.665	-19.8
870.838	-5.46
871.011	-62.8
871.185	-79.19
871.358	29.35
871.531	29.35
871.704	17.07
871.877	-17.75
872.05	-19.8
872.223	4.78
872.396	-27.99
872.569	31.4
872.742	66.22
872.915	-21.85
873.088	-17.75
873.261	-52.56
873.434	-42.32
873.607	33.45
873.78	-17.75
873.953	-75.09
874.126	-25.94
874.299	6.83
874.471	68.27
874.644	-15.7
874.817	-9.56
874.99	51.88
875.163	-5.46
875.335	-25.94
875.508	-60.76
875.681	-15.7
875.853	2.73
876.026	27.31
876.199	-34.13
876.371	-54.61
876.544	-13.65
876.717	31.4
876.889	23.21
877.062	4.78
877.234	6.83
877.407	33.45
877.579	27.31
877.752	-9.56
877.924	-1.37
878.097	6.83
878.269	-32.08
878.442	-36.18
878.614	2.73
878.786	-30.04
878.959	43.69
879.131	10.92
879.303	-25.94
879.476	-9.56
879.648	43.69
879.82	8.87
879.993	-64.85
880.165	68.27
880.337	-46.42
880.509	-27.99
880.681	-17.75
880.854	-27.99
881.026	25.26
881.198	-9.56
881.37	-93.52
881.542	-17.75
881.714	-103.76
881.886	76.46
882.058	-3.41
882.23	70.31
882.402	-5.46
882.574	-19.8
882.746	-11.61
882.918	4.78
883.09	10.92
883.262	0.68
883.434	-34.13
883.606	-13.65
883.778	-7.51
883.95	-27.99
884.122	-42.32
884.293	23.21
884.465	-30.04
884.637	15.02
884.809	60.07
884.98	-1.37
885.152	-21.85
885.324	-19.8
885.496	-42.32
885.667	-101.72
885.839	-40.28
886.011	2.73
886.182	37.55
886.354	12.97
886.525	-42.32
886.697	25.26
886.869	-38.23
887.04	-68.95
887.212	-11.61
887.383	29.35
887.555	-3.41
887.726	-48.47
887.897	-7.51
888.069	-15.7
888.24	-17.75
888.412	-17.75
888.583	2.73
888.754	-5.46
888.926	-42.32
889.097	-38.23
889.268	-9.56
889.44	10.92
889.611	29.35
889.782	-25.94
889.953	-34.13
890.125	-21.85
890.296	-15.7
890.467	-42.32
890.638	-5.46
890.809	-54.61
890.98	-23.89
891.151	15.02
891.323	2.73
891.494	-15.7
891.665	2.73
891.836	-1.37
892.007	-15.7
892.178	-25.94
892.349	-25.94
892.52	-1.37
892.691	31.4
892.862	-11.61
893.032	-11.61
893.203	-44.37
893.374	-15.7
893.545	17.07
893.716	-48.47
893.887	47.79
894.057	-68.95
894.228	-73.04
894.399	12.97
894.57	76.46
894.74	10.92
894.911	15.02
895.082	-36.18
895.253	37.55
895.423	6.83
895.594	60.07
895.764	-42.32
895.935	31.4
896.106	45.74
896.276	-25.94
896.447	-32.08
896.617	-52.56
896.788	-11.61
896.958	41.64
897.129	-9.56
897.299	-54.61
897.47	-3.41
897.64	0.68
897.81	-23.89
897.981	17.07
898.151	-64.85
898.322	43.69
898.492	-52.56
898.662	-3.41
898.832	-15.7
899.003	-36.18
899.173	39.59
899.343	15.02
899.513	-23.89
