Data from USB4F104151__261__11-11-57-467.txt Node

Date: Wed Mar 12 11:11:57 EDT 2025
User: louis
Spectrometer: USB4F10415
Trigger mode: 4
Integration Time (sec): 2.000000E-2
Scans to average: 1
Electric dark correction enabled: true
Nonlinearity correction enabled: false
Boxcar width: 0
XAxis mode: Wavelengths
Number of Pixels in Spectrum: 3648
>>>>>Begin Spectral Data<<<<<
178.204	-7.51
178.424	-7.51
178.644	-7.51
178.864	-91.48
179.084	-83.28
179.304	-15.7
179.524	-40.28
179.744	25.26
179.964	25.26
180.184	-52.56
180.404	27.31
180.624	-9.56
180.844	-3.41
181.064	15.02
181.283	-3.41
181.503	-7.51
181.723	39.59
181.943	-42.32
182.163	41.64
182.383	-66.9
182.602	23.21
182.822	-7.51
183.042	10.92
183.262	41.64
183.482	-19.8
183.701	17.07
183.921	-1.37
184.141	-30.04
184.361	-25.94
184.58	10.92
184.8	60.07
185.02	39.59
185.239	27.31
185.459	37.55
185.679	15.02
185.898	47.79
186.118	64.17
186.338	-7.51
186.557	62.12
186.777	51.88
186.997	-9.56
187.216	39.59
187.436	8.87
187.655	51.88
187.875	-19.8
188.095	-54.61
188.314	27.31
188.534	98.99
188.753	-44.37
188.973	19.11
189.192	53.93
189.412	29.35
189.631	-23.89
189.851	8.87
190.07	43.69
190.29	-9.56
190.509	72.36
190.729	10.92
190.948	82.6
191.168	152.23
191.387	64.17
191.607	-42.32
191.826	84.65
192.045	35.5
192.265	-34.13
192.484	-34.13
192.704	4.78
192.923	-30.04
193.142	111.27
193.362	23.21
193.581	62.12
193.8	-17.75
194.02	29.35
194.239	15.02
194.458	58.03
194.678	-17.75
194.897	96.94
195.116	39.59
195.335	62.12
195.555	101.03
195.774	6.83
195.993	45.74
196.212	2.73
196.432	29.35
196.651	-3.41
196.87	12.97
197.089	109.22
197.308	37.55
197.528	92.84
197.747	-25.94
197.966	33.45
198.185	37.55
198.404	-9.56
198.623	-34.13
198.842	43.69
199.062	33.45
199.281	12.97
199.5	15.02
199.719	10.92
199.938	15.02
200.157	98.99
200.376	-46.42
200.595	29.35
200.814	25.26
201.033	2.73
201.252	31.4
201.471	31.4
201.69	55.98
201.909	107.18
202.128	-11.61
202.347	62.12
202.566	68.27
202.785	39.59
203.004	23.21
203.223	-17.75
203.442	80.55
203.661	4.78
203.879	-40.28
204.098	19.11
204.317	-36.18
204.536	66.22
204.755	31.4
204.974	27.31
205.193	60.07
205.411	49.83
205.63	-21.85
205.849	2.73
206.068	-19.8
206.287	-56.66
206.505	-3.41
206.724	10.92
206.943	-44.37
207.162	-30.04
207.381	-21.85
207.599	-25.94
207.818	-15.7
208.037	23.21
208.255	-5.46
208.474	37.55
208.693	8.87
208.911	-3.41
209.13	55.98
209.349	37.55
209.567	74.41
209.786	17.07
210.005	4.78
210.223	60.07
210.442	31.4
210.661	-7.51
210.879	8.87
211.098	55.98
211.316	21.16
211.535	62.12
211.753	-38.23
211.972	27.31
212.191	-32.08
212.409	41.64
212.628	-66.9
212.846	53.93
213.065	55.98
213.283	6.83
213.502	-7.51
213.72	37.55
213.938	25.26
214.157	10.92
214.375	0.68
214.594	55.98
214.812	37.55
215.031	10.92
215.249	39.59
215.467	12.97
215.686	-9.56
215.904	27.31
216.122	2.73
216.341	29.35
216.559	17.07
216.778	-42.32
216.996	37.55
217.214	2.73
217.432	4.78
217.651	21.16
217.869	-1.37
218.087	33.45
218.306	10.92
218.524	43.69
218.742	80.55
218.96	66.22
219.179	-52.56
219.397	-1.37
219.615	78.51
219.833	0.68
220.051	-25.94
220.27	68.27
220.488	76.46
220.706	-15.7
220.924	-21.85
221.142	8.87
221.36	29.35
221.578	58.03
221.796	-34.13
222.015	4.78
222.233	21.16
222.451	33.45
222.669	39.59
222.887	47.79
223.105	19.11
223.323	-9.56
223.541	-17.75
223.759	-25.94
223.977	25.26
224.195	47.79
224.413	8.87
224.631	43.69
224.849	31.4
225.067	64.17
225.285	-3.41
225.503	45.74
225.721	47.79
225.939	-21.85
226.157	-13.65
226.375	98.99
226.592	-79.19
226.81	-5.46
227.028	47.79
227.246	35.5
227.464	43.69
227.682	84.65
227.9	94.89
228.117	33.45
228.335	39.59
228.553	35.5
228.771	0.68
228.989	25.26
229.206	49.83
229.424	-9.56
229.642	10.92
229.86	-23.89
230.077	47.79
230.295	82.6
230.513	31.4
230.731	49.83
230.948	25.26
231.166	8.87
231.384	-77.14
231.601	21.16
231.819	-13.65
232.037	41.64
232.254	-1.37
232.472	-25.94
232.689	-1.37
232.907	60.07
233.125	6.83
233.342	-23.89
233.56	-9.56
233.777	-19.8
233.995	2.73
234.213	98.99
234.43	-21.85
234.648	-46.42
234.865	17.07
235.083	58.03
235.3	62.12
235.518	-21.85
235.735	45.74
235.953	39.59
236.17	49.83
236.388	39.59
236.605	92.84
236.822	-21.85
237.04	55.98
237.257	-7.51
237.475	-13.65
237.692	-5.46
237.909	60.07
238.127	45.74
238.344	29.35
238.562	6.83
238.779	-11.61
238.996	47.79
239.214	-36.18
239.431	-5.46
239.648	80.55
239.865	76.46
240.083	107.18
240.3	10.92
240.517	17.07
240.735	10.92
240.952	55.98
241.169	78.51
241.386	23.21
241.603	35.5
241.821	2.73
242.038	64.17
242.255	43.69
242.472	19.11
242.689	55.98
242.907	23.21
243.124	19.11
243.341	25.26
243.558	53.93
243.775	37.55
243.992	35.5
244.209	-3.41
244.426	66.22
244.643	80.55
244.86	-5.46
245.078	35.5
245.295	41.64
245.512	4.78
245.729	10.92
245.946	101.03
246.163	2.73
246.38	15.02
246.597	2.73
246.814	27.31
247.031	10.92
247.248	-46.42
247.464	51.88
247.681	94.89
247.898	47.79
248.115	21.16
248.332	19.11
248.549	92.84
248.766	15.02
248.983	78.51
249.2	41.64
249.417	6.83
249.633	10.92
249.85	8.87
250.067	17.07
250.284	51.88
250.501	-15.7
250.717	0.68
250.934	41.64
251.151	2.73
251.368	10.92
251.585	8.87
251.801	47.79
252.018	-15.7
252.235	113.32
252.451	-27.99
252.668	33.45
252.885	115.37
253.102	72.36
253.318	15.02
253.535	2.73
253.752	-30.04
253.968	-19.8
254.185	-21.85
254.401	-3.41
254.618	33.45
254.835	35.5
255.051	43.69
255.268	31.4
255.484	29.35
255.701	-21.85
255.917	117.42
256.134	-30.04
256.351	72.36
256.567	41.64
256.784	25.26
257	-3.41
257.217	82.6
257.433	15.02
257.65	58.03
257.866	-15.7
258.082	-13.65
258.299	-42.32
258.515	96.94
258.732	35.5
258.948	-1.37
259.165	-42.32
259.381	17.07
259.597	15.02
259.814	-50.52
260.03	51.88
260.246	60.07
260.463	10.92
260.679	19.11
260.895	2.73
261.112	-73.04
261.328	-42.32
261.544	35.5
261.761	115.37
261.977	-27.99
262.193	25.26
262.409	74.41
262.626	35.5
262.842	-11.61
263.058	19.11
263.274	-30.04
263.49	43.69
263.707	-21.85
263.923	43.69
264.139	76.46
264.355	15.02
264.571	68.27
264.787	35.5
265.004	-44.37
265.22	53.93
265.436	-7.51
265.652	15.02
265.868	-52.56
266.084	49.83
266.3	21.16
266.516	43.69
266.732	-1.37
266.948	-34.13
267.164	37.55
267.38	31.4
267.596	17.07
267.812	103.08
268.028	47.79
268.244	60.07
268.46	39.59
268.676	53.93
268.892	84.65
269.108	-58.71
269.324	96.94
269.54	-32.08
269.756	-21.85
269.972	27.31
270.188	60.07
270.403	-21.85
270.619	80.55
270.835	62.12
271.051	19.11
271.267	55.98
271.483	64.17
271.698	51.88
271.914	39.59
272.13	0.68
272.346	10.92
272.562	27.31
272.777	10.92
272.993	53.93
273.209	55.98
273.425	47.79
273.64	-11.61
273.856	-17.75
274.072	-3.41
274.287	37.55
274.503	90.79
274.719	-17.75
274.934	76.46
275.15	-73.04
275.366	6.83
275.581	-66.9
275.797	-21.85
276.012	-17.75
276.228	55.98
276.444	25.26
276.659	23.21
276.875	76.46
277.09	27.31
277.306	-23.89
277.521	23.21
277.737	-15.7
277.952	76.46
278.168	35.5
278.383	-30.04
278.599	10.92
278.814	62.12
279.03	-40.28
279.245	8.87
279.461	10.92
279.676	78.51
279.892	-68.95
280.107	0.68
280.322	12.97
280.538	17.07
280.753	35.5
280.969	37.55
281.184	-9.56
281.399	43.69
281.615	92.84
281.83	4.78
282.045	-23.89
282.26	58.03
282.476	31.4
282.691	10.92
282.906	6.83
283.122	29.35
283.337	-105.81
283.552	-15.7
283.767	23.21
283.983	35.5
284.198	21.16
284.413	6.83
284.628	27.31
284.843	-3.41
285.058	25.26
285.274	17.07
285.489	-9.56
285.704	27.31
285.919	33.45
286.134	33.45
286.349	92.84
286.564	-13.65
286.779	107.18
286.995	-25.94
287.21	-46.42
287.425	23.21
287.64	-46.42
287.855	64.17
288.07	19.11
288.285	0.68
288.5	62.12
288.715	25.26
288.93	-27.99
289.145	2.73
289.36	17.07
289.575	82.6
289.79	33.45
290.004	37.55
290.219	35.5
290.434	84.65
290.649	-34.13
290.864	17.07
291.079	43.69
291.294	82.6
291.509	4.78
291.724	31.4
291.938	15.02
292.153	6.83
292.368	8.87
292.583	15.02
292.798	82.6
293.012	35.5
293.227	101.03
293.442	-11.61
293.657	74.41
293.871	37.55
294.086	25.26
294.301	70.31
294.516	64.17
294.73	15.02
294.945	-21.85
295.16	53.93
295.374	68.27
295.589	35.5
295.804	29.35
296.018	33.45
296.233	39.59
296.447	12.97
296.662	-7.51
296.877	51.88
297.091	35.5
297.306	-9.56
297.52	33.45
297.735	-7.51
297.949	-9.56
298.164	107.18
298.378	-40.28
298.593	-50.52
298.807	23.21
299.022	55.98
299.236	29.35
299.451	25.26
299.665	41.64
299.88	35.5
300.094	41.64
300.309	96.94
300.523	19.11
300.737	62.12
300.952	-15.7
301.166	109.22
301.381	2.73
301.595	60.07
301.809	-11.61
302.024	21.16
302.238	80.55
302.452	49.83
302.667	-7.51
302.881	96.94
303.095	8.87
303.309	0.68
303.524	10.92
303.738	23.21
303.952	21.16
304.166	41.64
304.381	-44.37
304.595	55.98
304.809	6.83
305.023	58.03
305.237	74.41
305.452	49.83
305.666	-13.65
305.88	37.55
306.094	53.93
306.308	10.92
306.522	74.41
306.736	19.11
306.95	-30.04
307.164	35.5
307.379	12.97
307.593	60.07
307.807	-11.61
308.021	64.17
308.235	15.02
308.449	41.64
308.663	10.92
308.877	49.83
309.091	17.07
309.305	47.79
309.519	-7.51
309.733	2.73
309.947	17.07
310.161	60.07
310.374	0.68
310.588	39.59
310.802	35.5
311.016	4.78
311.23	27.31
311.444	15.02
311.658	6.83
311.872	58.03
312.085	-25.94
312.299	17.07
312.513	33.45
312.727	43.69
312.941	-15.7
313.154	41.64
313.368	-34.13
313.582	21.16
313.796	-9.56
314.009	45.74
314.223	74.41
314.437	58.03
314.651	6.83
314.864	8.87
315.078	-19.8
315.292	2.73
315.505	53.93
315.719	82.6
315.933	64.17
316.146	141.99
316.36	-5.46
316.573	66.22
316.787	68.27
317.001	49.83
317.214	4.78
317.428	-13.65
317.641	78.51
317.855	8.87
318.068	64.17
318.282	-71
318.495	64.17
318.709	4.78
318.922	0.68
319.136	19.11
319.349	4.78
319.563	37.55
319.776	62.12
319.99	21.16
320.203	35.5
320.417	6.83
320.63	0.68
320.843	125.61
321.057	43.69
321.27	29.35
321.483	39.59
321.697	101.03
321.91	23.21
322.124	12.97
322.337	86.7
322.55	55.98
322.763	-42.32
322.977	66.22
323.19	15.02
323.403	-15.7
323.617	10.92
323.83	19.11
324.043	66.22
324.256	72.36
324.469	15.02
324.683	10.92
324.896	17.07
325.109	43.69
325.322	-13.65
325.535	47.79
325.748	-21.85
325.962	-30.04
326.175	62.12
326.388	15.02
326.601	35.5
326.814	45.74
327.027	0.68
327.24	29.35
327.453	-42.32
327.666	47.79
327.879	84.65
328.092	19.11
328.305	17.07
328.518	25.26
328.731	-34.13
328.944	-1.37
329.157	0.68
329.37	4.78
329.583	12.97
329.796	31.4
330.009	-30.04
330.222	4.78
330.435	-15.7
330.648	94.89
330.861	94.89
331.073	-17.75
331.286	-23.89
331.499	70.31
331.712	41.64
331.925	-5.46
332.138	39.59
332.35	94.89
332.563	15.02
332.776	10.92
332.989	-75.09
333.202	49.83
333.414	51.88
333.627	-25.94
333.84	-23.89
334.053	0.68
334.265	-27.99
334.478	21.16
334.691	-11.61
334.903	-34.13
335.116	10.92
335.329	33.45
335.541	60.07
335.754	25.26
335.966	-11.61
336.179	72.36
336.392	76.46
336.604	-81.24
336.817	27.31
337.029	35.5
337.242	47.79
337.454	39.59
337.667	6.83
337.88	64.17
338.092	76.46
338.305	0.68
338.517	-11.61
338.729	66.22
338.942	23.21
339.154	29.35
339.367	49.83
339.579	8.87
339.792	29.35
340.004	115.37
340.217	-34.13
340.429	21.16
340.641	-13.65
340.854	55.98
341.066	74.41
341.278	76.46
341.491	84.65
341.703	15.02
341.915	19.11
342.128	55.98
342.34	4.78
342.552	-9.56
342.764	39.59
342.977	23.21
343.189	92.84
343.401	96.94
343.613	-3.41
343.826	51.88
344.038	47.79
344.25	4.78
344.462	-5.46
344.674	21.16
344.886	31.4
345.099	-30.04
345.311	53.93
345.523	6.83
345.735	-19.8
345.947	-25.94
346.159	6.83
346.371	-17.75
346.583	6.83
346.795	70.31
347.007	2.73
347.219	15.02
347.431	27.31
347.643	60.07
347.855	-36.18
348.067	60.07
348.279	19.11
348.491	-5.46
348.703	31.4
348.915	162.47
349.127	45.74
349.339	62.12
349.551	27.31
349.763	70.31
349.975	6.83
350.187	43.69
350.399	68.27
350.61	8.87
350.822	0.68
351.034	96.94
351.246	47.79
351.458	43.69
351.669	6.83
351.881	33.45
352.093	-7.51
352.305	72.36
352.517	60.07
352.728	49.83
352.94	33.45
353.152	37.55
353.363	47.79
353.575	21.16
353.787	37.55
353.999	49.83
354.21	49.83
354.422	82.6
354.633	60.07
354.845	-75.09
355.057	66.22
355.268	29.35
355.48	4.78
355.692	-50.52
355.903	19.11
356.115	-42.32
356.326	-30.04
356.538	35.5
356.749	98.99
356.961	31.4
357.172	80.55
357.384	66.22
357.595	39.59
357.807	-1.37
358.018	31.4
358.23	-1.37
358.441	107.18
358.653	39.59
358.864	-46.42
359.075	107.18
359.287	6.83
359.498	47.79
359.709	-19.8
359.921	29.35
360.132	72.36
360.344	0.68
360.555	64.17
360.766	-13.65
360.977	58.03
361.189	39.59
361.4	15.02
361.611	62.12
361.823	78.51
362.034	53.93
362.245	17.07
362.456	-44.37
362.667	35.5
362.879	6.83
363.09	23.21
363.301	-5.46
363.512	8.87
363.723	31.4
363.935	49.83
364.146	113.32
364.357	-23.89
364.568	12.97
364.779	-32.08
364.99	-1.37
365.201	47.79
365.412	76.46
365.623	-54.61
365.834	27.31
366.045	-9.56
366.256	66.22
366.467	-30.04
366.678	-75.09
366.889	84.65
367.1	-11.61
367.311	-64.85
367.522	80.55
367.733	94.89
367.944	-3.41
368.155	35.5
368.366	2.73
368.577	-3.41
368.788	68.27
368.999	27.31
369.209	33.45
369.42	135.85
369.631	62.12
369.842	-1.37
370.053	62.12
370.264	37.55
370.474	-56.66
370.685	41.64
370.896	-42.32
371.107	55.98
371.317	94.89
371.528	-7.51
371.739	-21.85
371.95	4.78
372.16	21.16
372.371	55.98
372.582	-23.89
372.792	58.03
373.003	-11.61
373.214	19.11
373.424	62.12
373.635	15.02
373.846	84.65
374.056	25.26
374.267	98.99
374.477	15.02
374.688	-46.42
374.898	76.46
375.109	60.07
375.319	19.11
375.53	64.17
375.74	80.55
375.951	-3.41
376.161	35.5
376.372	35.5
376.582	-1.37
376.793	41.64
377.003	2.73
377.214	4.78
377.424	-46.42
377.635	29.35
377.845	47.79
378.055	76.46
378.266	-19.8
378.476	-11.61
378.686	-5.46
378.897	0.68
379.107	41.64
379.317	49.83
379.528	-40.28
379.738	17.07
379.948	35.5
380.158	92.84
380.369	19.11
380.579	4.78
380.789	72.36
380.999	45.74
381.21	-9.56
381.42	72.36
381.63	-62.8
381.84	39.59
382.05	45.74
382.261	64.17
382.471	31.4
382.681	-7.51
382.891	-13.65
383.101	66.22
383.311	-23.89
383.521	88.75
383.731	101.03
383.941	72.36
384.151	10.92
384.361	-25.94
384.571	-1.37
384.781	78.51
384.991	68.27
385.201	62.12
385.411	21.16
385.621	-42.32
385.831	45.74
386.041	47.79
386.251	-7.51
386.461	47.79
386.671	41.64
386.881	41.64
387.091	-7.51
387.301	109.22
387.511	35.5
387.72	35.5
387.93	-46.42
388.14	2.73
388.35	8.87
388.56	31.4
388.769	78.51
388.979	72.36
389.189	51.88
389.399	21.16
389.609	58.03
389.818	86.7
390.028	17.07
390.238	39.59
390.447	60.07
390.657	-30.04
390.867	-3.41
391.076	8.87
391.286	10.92
391.496	66.22
391.705	62.12
391.915	98.99
392.125	47.79
392.334	101.03
392.544	19.11
392.753	47.79
392.963	27.31
393.172	25.26
393.382	-1.37
393.591	107.18
393.801	51.88
394.01	43.69
394.22	76.46
394.429	41.64
394.639	68.27
394.848	35.5
395.058	53.93
395.267	37.55
395.477	64.17
395.686	39.59
395.895	107.18
396.105	62.12
396.314	-9.56
396.524	35.5
396.733	55.98
396.942	74.41
397.152	84.65
397.361	49.83
397.57	43.69
397.78	101.03
397.989	70.31
398.198	76.46
398.407	6.83
398.617	72.36
398.826	41.64
399.035	90.79
399.244	15.02
399.453	80.55
399.663	6.83
399.872	12.97
400.081	76.46
400.29	64.17
400.499	23.21
400.708	37.55
400.917	47.79
401.127	119.46
401.336	47.79
401.545	96.94
401.754	78.51
401.963	82.6
402.172	80.55
402.381	78.51
402.59	-38.23
402.799	72.36
403.008	60.07
403.217	86.7
403.426	109.22
403.635	164.52
403.844	43.69
404.053	58.03
404.262	117.42
404.471	68.27
404.68	111.27
404.888	82.6
405.097	60.07
405.306	62.12
405.515	121.51
405.724	137.9
405.933	76.46
406.142	117.42
406.35	115.37
406.559	84.65
406.768	115.37
406.977	133.8
407.185	141.99
407.394	137.9
407.603	107.18
407.812	80.55
408.02	180.9
408.229	101.03
408.438	174.76
408.646	139.94
408.855	162.47
409.064	60.07
409.272	158.38
409.481	141.99
409.69	191.14
409.898	141.99
410.107	199.34
410.315	232.1
410.524	90.79
410.733	166.57
410.941	178.86
411.15	203.43
411.358	185
411.567	230.06
411.775	205.48
411.984	230.06
412.192	266.92
412.401	258.73
412.609	264.87
412.818	363.17
413.026	254.63
413.234	299.69
413.443	303.78
413.651	285.35
413.86	260.77
414.068	318.12
414.276	338.6
414.485	340.65
414.693	375.46
414.901	414.37
415.11	375.46
415.318	359.08
415.526	395.94
415.734	451.24
415.943	447.14
416.151	490.15
416.359	486.05
416.567	477.86
416.776	522.91
416.984	490.15
417.192	578.21
417.4	484
417.608	584.35
417.817	598.69
418.025	576.16
418.233	696.99
418.441	596.64
418.649	748.19
418.857	672.42
419.065	684.7
419.273	672.42
419.481	647.84
419.689	780.96
419.897	780.96
420.105	823.97
420.313	862.88
420.521	873.12
420.729	973.47
420.937	928.41
421.145	961.18
421.353	952.99
421.561	1106.59
421.769	1041.05
421.977	1102.49
422.185	1110.68
422.393	1168.02
422.601	1221.27
422.809	1180.31
423.017	1313.43
423.224	1440.4
423.432	1403.54
423.64	1360.53
423.848	1460.88
424.056	1501.84
424.263	1571.47
424.471	1637.01
424.679	1512.08
424.887	1858.19
425.094	1606.29
425.302	1684.11
425.51	1962.64
425.718	1796.75
425.925	1819.28
426.133	1970.83
426.341	1991.31
426.548	2155.15
426.756	2052.75
426.964	2069.13
427.171	2278.02
427.379	2405
427.586	2402.95
427.794	2519.68
428.001	2579.08
428.209	2773.63
428.417	2558.6
428.624	2775.68
428.832	2753.15
429.039	2749.06
429.247	2804.35
429.454	3117.69
429.662	3242.62
429.869	3019.39
430.076	3234.43
430.284	3115.64
430.491	3203.71
430.699	3558
430.906	3525.24
431.114	3449.46
431.321	3658.35
431.528	3762.8
431.736	4004.46
431.943	4113
432.15	3943.02
432.358	4078.19
432.565	4340.33
432.772	4256.36
432.979	4481.64
433.187	4579.94
433.394	4715.11
433.601	4960.86
433.808	5067.36
434.016	4813.41
434.223	5034.59
434.43	5460.57
434.637	5325.4
434.844	5751.38
435.052	5724.76
435.259	5751.38
435.466	5778
435.673	5689.94
435.88	6160.97
436.087	6253.13
436.294	6462.02
436.501	6175.31
436.708	6431.3
436.915	6642.25
437.122	6883.91
437.329	6912.58
437.537	6974.02
437.743	7209.53
437.95	7092.8
438.157	7395.9
438.364	7748.15
438.571	7684.66
438.778	7756.34
438.985	8682.02
439.192	8305.2
439.399	8464.94
439.606	8151.6
439.813	8739.37
440.02	9366.04
440.227	9089.57
440.433	9161.25
440.64	9376.28
440.847	9243.17
441.054	9364
441.261	9929.24
441.467	9714.2
441.674	10138.13
441.881	10625.54
442.088	10478.09
442.294	10392.08
442.501	10553.87
442.708	10686.98
442.914	11442.68
443.121	11934.2
443.328	11254.27
443.534	12372.46
443.741	11774.45
443.948	11713.02
444.154	12509.68
444.361	12380.65
444.568	12515.82
444.774	12866.02
444.981	12739.05
445.187	12890.6
445.394	13699.55
445.6	13535.71
445.807	14655.95
446.013	13941.21
446.22	14377.42
446.426	14825.93
446.633	15151.56
446.839	15593.92
447.046	14961.09
447.252	15579.58
447.459	15837.62
447.665	15563.2
447.871	16214.45
448.078	17041.83
448.284	16271.79
448.491	16775.59
448.697	17209.76
448.903	17670.56
449.11	17541.53
449.316	17140.13
449.522	17566.11
449.728	18024.86
449.935	18305.43
450.141	18256.28
450.347	18698.64
450.553	18155.93
450.76	18295.19
450.966	18819.47
451.172	18495.89
451.378	19186.05
451.584	18532.75
451.791	18989.45
451.997	19126.66
452.203	19368.32
452.409	19274.12
452.615	19329.41
452.821	18772.36
453.027	18461.07
453.233	19593.6
453.44	18839.95
453.646	18651.53
453.852	18942.35
454.058	19302.79
454.264	18751.88
454.47	19048.84
454.676	18516.37
454.882	19106.18
455.088	17799.58
455.294	17697.18
455.5	18280.85
455.705	18405.78
455.911	17772.96
456.117	17060.26
456.323	17019.3
456.529	16026.04
456.735	16771.5
456.941	16159.16
457.147	16177.59
457.352	15589.82
457.558	15342.02
457.764	15319.49
457.97	15112.64
458.176	14664.14
458.381	14778.83
458.587	13785.56
458.793	14096.85
458.999	13435.36
459.204	14182.87
459.41	13801.94
459.616	13130.21
459.821	13048.29
460.027	12763.62
460.233	12790.25
460.438	12147.19
460.644	12145.14
460.85	11696.63
461.055	11266.56
461.261	11522.55
461.466	10467.85
461.672	10441.23
461.878	10983.94
462.083	10435.08
462.289	10138.13
462.494	9849.36
462.7	9675.29
462.905	9544.22
463.111	9683.48
463.316	9738.77
463.522	9409.05
463.727	9601.56
463.932	9372.19
464.138	9306.65
464.343	9277.98
464.549	8997.41
464.754	9273.89
464.959	9320.99
465.165	9280.03
465.37	8804.9
465.575	8354.35
465.781	9116.19
465.986	8938.02
466.191	8796.71
466.397	8366.64
466.602	8030.77
466.807	8403.5
467.012	8571.43
467.218	8337.96
467.423	8084.02
467.628	8301.1
467.833	8763.94
468.038	8354.35
468.244	7993.9
468.449	8442.41
468.654	8098.35
468.859	8028.72
469.064	8030.77
469.269	7821.88
469.474	7770.68
469.679	7924.27
469.885	7707.19
470.09	7785.01
470.295	8018.48
470.5	7746.1
470.705	7567.93
470.91	7473.72
471.115	7395.9
471.32	7469.62
471.525	7328.31
471.73	7434.81
471.935	7160.38
472.139	6838.85
472.344	6892.1
472.549	7029.31
472.754	6916.67
472.959	6703.68
473.164	6781.51
473.369	6507.08
473.574	6765.12
473.778	6593.09
473.983	6558.28
474.188	6625.86
474.393	6400.58
474.598	6300.23
474.802	6404.68
475.007	6382.15
475.212	6433.35
475.417	6177.36
475.621	6066.77
475.826	6089.29
476.031	6236.75
476.235	5978.7
476.44	5978.7
476.645	5849.68
476.849	5837.39
477.054	5816.91
477.259	5839.44
477.463	5599.83
477.668	5515.86
477.872	5646.93
478.077	5614.16
478.282	5227.1
478.486	5341.79
478.691	5315.16
478.895	5296.73
479.1	5317.21
479.304	5069.41
479.509	5124.7
479.713	5239.39
479.918	4958.81
480.122	5046.88
480.326	4991.58
480.531	5067.36
480.735	5136.99
480.94	5065.31
481.144	5040.73
481.348	4926.05
481.553	5091.93
481.757	4885.09
481.961	5075.55
482.166	4870.75
482.37	4905.57
482.574	4956.77
482.778	4731.49
482.983	4835.94
483.187	4897.38
483.391	5016.16
483.595	4921.95
483.8	4903.52
484.004	4936.29
484.208	4854.37
484.412	4858.46
484.616	4827.74
484.821	4993.63
485.025	4772.45
485.229	4850.27
485.433	4840.03
485.637	4895.33
485.841	4739.68
486.045	4856.42
486.249	4790.88
486.453	4792.93
486.657	4852.32
486.861	4893.28
487.065	4713.06
487.269	4971.1
487.473	4842.08
487.677	4985.44
487.881	4844.13
488.085	4842.08
488.289	4868.7
488.493	4803.17
488.697	5024.35
488.901	4883.04
489.105	4973.15
489.309	4860.51
489.512	4864.61
489.716	4981.34
489.92	4967.01
490.124	4889.18
490.328	4983.39
490.531	4969.05
490.735	5036.64
490.939	5010.01
491.143	4878.94
491.346	4825.7
491.55	5169.76
491.754	5108.32
491.958	5044.83
492.161	5220.95
492.365	5202.52
492.569	5093.98
492.772	5055.07
492.976	5089.88
493.18	5290.59
493.383	5210.72
493.587	5280.35
493.79	5397.08
493.994	5245.53
494.197	5155.42
494.401	5382.74
494.605	5435.99
494.808	5411.42
495.012	5493.33
495.215	5401.18
495.419	5718.61
495.622	5413.46
495.825	5685.84
496.029	5667.41
496.232	5771.86
496.436	5745.23
496.639	5974.61
496.843	5732.95
497.046	5759.57
497.249	6034
497.453	6077.01
497.656	5978.7
497.859	6036.05
498.063	6124.11
498.266	6326.86
498.469	6255.18
498.673	6361.67
498.876	6392.39
499.079	6586.95
499.282	6603.33
499.485	6699.59
499.689	6558.28
499.892	6722.12
500.095	6844.99
500.298	6871.62
500.501	6980.16
500.705	7045.7
500.908	7187
501.111	7193.15
501.314	7270.97
501.517	7318.07
501.72	7465.53
501.923	7414.33
502.126	7774.77
502.329	7676.47
502.532	7651.89
502.735	7873.07
502.938	7811.64
503.141	7916.08
503.344	8086.06
503.547	8088.11
503.75	8098.35
503.953	8426.03
504.156	8397.35
504.359	8526.38
504.562	8397.35
504.765	8608.3
504.968	8925.73
505.17	8999.46
505.373	8901.15
505.576	8993.31
505.779	9212.45
505.982	9226.78
506.185	9443.87
506.387	9423.39
506.59	9484.83
506.793	9599.51
506.996	9687.57
507.198	9765.4
507.401	9906.71
507.604	10154.51
507.807	10340.88
508.009	10328.59
508.212	10355.21
508.415	10553.87
508.617	10689.03
508.82	10631.69
509.022	10635.78
509.225	11037.19
509.428	10965.51
509.63	11065.86
509.833	11053.57
510.035	11256.32
510.238	11180.54
510.44	11672.06
510.643	11725.3
510.845	11694.58
511.048	11833.85
511.25	11758.07
511.453	12026.36
511.655	12597.74
511.858	12098.03
512.06	12255.73
512.262	12544.49
512.465	12308.97
512.667	12784.1
512.87	12825.06
513.072	12835.3
513.274	13156.83
513.477	13302.24
513.679	13386.21
513.881	13674.97
514.084	13627.87
514.286	13742.55
514.488	13726.17
514.69	14258.64
514.893	14217.68
515.095	14404.05
515.297	14236.11
515.499	14371.28
515.701	14735.82
515.904	14811.59
516.106	14834.12
516.308	14918.09
516.51	15372.74
516.712	15176.13
516.914	15471.04
517.116	15364.54
517.318	15587.77
517.52	16071.09
517.722	15974.84
517.925	15872.44
518.127	16427.44
518.329	16470.45
518.531	16548.27
518.733	16695.72
518.935	16753.07
519.136	16781.74
519.338	17148.32
519.54	17275.3
519.742	17215.91
519.944	17660.32
520.146	17664.41
520.348	17836.44
520.55	18196.88
520.752	18049.43
520.954	18401.68
521.155	18487.7
521.357	18504.08
521.559	18698.64
521.761	19016.07
521.963	18880.91
522.164	19325.32
522.366	19128.71
522.568	19263.88
522.77	19347.84
522.971	19739.01
523.173	19601.79
523.375	19908.99
523.576	19966.33
523.778	19863.93
523.98	20007.29
524.181	20441.46
524.383	20232.57
524.584	20687.21
524.786	20552.05
524.988	20537.71
525.189	20963.69
525.391	21137.77
525.592	21092.71
525.794	21309.8
525.995	21225.83
526.197	21250.41
526.398	21436.77
526.6	21825.89
526.801	21703.01
527.003	22102.36
527.204	21916
527.406	22339.93
527.607	22258.01
527.808	22202.71
528.01	21956.96
528.211	21969.24
528.412	22948.17
528.614	22583.63
528.815	22276.44
529.016	23056.71
529.218	22452.56
529.419	22765.9
529.62	22810.96
529.822	22544.72
530.023	22669.65
530.224	23296.33
530.425	22829.39
530.626	22718.8
530.828	22950.22
531.029	23439.68
531.23	22868.3
531.431	23437.64
531.632	23179.59
531.833	23163.21
532.035	23021.9
532.236	23318.85
532.437	23595.33
532.638	22864.21
532.839	23441.73
533.04	23566.66
533.241	23550.28
533.442	23996.73
533.643	23558.47
533.844	23599.43
534.045	23822.66
534.246	23435.59
534.447	23783.74
534.648	23624
534.849	24230.2
535.05	23701.82
535.251	23992.64
535.451	23730.5
535.652	24029.5
535.853	24092.99
536.054	23589.19
536.255	23836.99
536.456	23615.81
536.657	23730.5
536.857	23720.26
537.058	23767.36
537.259	23806.27
537.46	23896.38
537.66	23898.43
537.861	23937.34
538.062	23601.47
538.263	23826.75
538.463	23812.42
538.664	23916.86
538.865	23658.82
539.065	24224.06
539.266	23599.43
539.466	24058.17
539.667	23478.6
539.868	23920.96
540.068	23949.63
540.269	24111.42
540.469	23892.29
540.67	23617.86
540.87	24049.98
541.071	23791.94
541.271	23976.25
541.472	24078.65
541.672	23826.75
541.873	23966.01
542.073	23376.2
542.274	23865.66
542.474	23892.29
542.675	23599.43
542.875	24099.13
543.075	23961.92
543.276	23726.4
543.476	23906.62
543.676	23535.94
543.877	24074.56
544.077	23773.5
544.277	23494.98
544.478	23773.5
544.678	23972.16
544.878	23554.37
545.078	23859.52
545.279	23632.19
545.479	23800.13
545.679	23824.7
545.879	23527.75
546.079	23699.78
546.28	23546.18
546.48	23726.4
546.68	23810.37
546.88	23939.39
547.08	23800.13
547.28	23818.56
547.48	23492.93
547.68	23906.62
547.88	23699.78
548.081	23783.74
548.281	23662.91
548.481	23515.46
548.681	23449.92
548.881	23597.38
549.081	23605.57
549.28	23552.32
549.48	23904.57
549.68	23609.67
549.88	23951.68
550.08	23916.86
550.28	23789.89
550.48	23486.79
550.68	23730.5
550.88	23363.91
551.08	23521.6
551.279	23824.7
551.479	23507.27
551.679	23363.91
551.879	23710.02
552.079	23701.82
552.278	23656.77
552.478	23761.22
552.678	23490.88
552.878	23691.59
553.077	23535.94
553.277	23355.72
553.477	23683.39
553.676	23454.02
553.876	23404.87
554.076	23347.53
554.275	22948.17
554.475	23210.31
554.674	23482.69
554.874	23474.5
555.074	23300.42
555.273	23648.58
555.473	23554.37
555.672	23122.25
555.872	23216.46
556.071	23292.23
556.271	23263.56
556.47	23103.82
556.67	23048.52
556.869	22960.46
557.068	23107.91
557.268	22815.05
557.467	23052.62
557.667	22917.45
557.866	22923.6
558.065	22845.77
558.265	22800.72
558.464	22749.52
558.663	23181.64
558.863	22770
559.062	23064.91
559.261	22350.17
559.461	23095.63
559.66	22360.41
559.859	22868.3
560.058	22133.08
560.258	22475.09
560.457	22288.73
560.656	22440.28
560.855	22409.56
561.054	22581.59
561.253	22186.33
561.453	22096.22
561.652	22378.84
561.851	22524.24
562.05	22192.47
562.249	22122.84
562.448	22540.63
562.647	21938.52
562.846	21999.96
563.045	21952.86
563.244	22047.07
563.443	22110.55
563.642	21479.78
563.841	21754.21
564.04	21850.46
564.239	21815.65
564.438	21725.54
564.637	21709.15
564.836	21555.55
565.035	21551.46
565.234	21645.66
565.432	21393.76
565.631	21277.03
565.83	21358.95
566.029	21328.23
566.228	21244.26
566.427	21166.44
566.625	21025.13
566.824	20963.69
567.023	21168.49
567.222	20724.08
567.42	20871.53
567.619	20855.15
567.818	20722.03
568.016	20654.45
568.215	20769.13
568.414	20638.06
568.612	20785.52
568.811	20320.63
569.01	20644.21
569.208	19945.85
569.407	20468.08
569.605	20081.02
569.804	20435.31
570.002	20109.69
570.201	19976.57
570.4	20019.58
570.598	20218.23
570.797	19700.09
570.995	19794.3
571.193	19765.63
571.392	20218.23
571.59	19708.29
571.789	19730.81
571.987	19816.83
572.186	19581.31
572.384	19343.75
572.582	19351.94
572.781	19530.11
572.979	19247.49
573.177	19110.28
573.376	19630.46
573.574	19208.58
573.772	19341.7
573.971	19087.75
574.169	18897.29
574.367	18905.48
574.565	19102.09
574.763	18706.83
574.962	18672.01
575.16	18610.57
575.358	18688.4
575.556	18647.44
575.754	18932.11
575.952	18368.91
576.151	18846.09
576.349	18317.72
576.547	18098.58
576.745	18049.43
576.943	18344.34
577.141	18295.19
577.339	18184.6
577.537	18102.68
577.735	18368.91
577.933	18071.96
578.131	17998.23
578.329	17865.11
578.527	17682.84
578.725	18104.73
578.923	17957.27
579.121	17824.15
579.319	17803.67
579.516	17729.95
579.714	17766.81
579.912	17852.83
580.11	17762.72
580.308	17627.55
580.506	17480.1
580.704	17498.53
580.901	17308.07
581.099	17570.21
581.297	17361.31
581.495	17228.2
581.692	17361.31
581.89	17088.93
582.088	17265.06
582.285	16839.08
582.483	17011.11
582.681	16978.34
582.878	16880.04
583.076	16581.04
583.274	16830.89
583.471	16804.27
583.669	16982.44
583.866	16613.81
584.064	16888.23
584.262	16386.48
584.459	16818.6
584.657	16404.91
584.854	16714.16
585.052	16116.15
585.249	16140.72
585.447	16302.51
585.644	16327.09
585.841	16189.88
586.039	16312.75
586.236	16058.81
586.434	16042.42
586.631	16101.81
586.828	16138.68
587.026	15643.07
587.223	16011.7
587.42	15890.87
587.618	15909.3
587.815	15706.55
588.012	15737.27
588.21	15671.74
588.407	15604.16
588.604	15667.64
588.801	15532.48
588.999	15350.21
589.196	15190.47
589.393	15344.06
589.59	15360.45
589.787	15417.79
589.984	15354.3
590.182	14932.42
590.379	15182.27
590.576	15030.73
590.773	15151.56
590.97	14709.19
591.167	14836.17
591.364	14713.29
591.561	15010.25
591.758	14690.76
591.955	14825.93
592.152	14434.77
592.349	14641.61
592.546	14823.88
592.743	14537.16
592.94	14420.43
593.137	14625.23
593.334	14322.13
593.531	14471.63
593.727	14506.45
593.924	14373.33
594.121	14143.95
594.318	14311.89
594.515	14094.8
594.712	14381.52
594.908	14109.14
595.105	13973.97
595.302	13949.4
595.499	14260.69
595.696	14082.52
595.892	13947.35
596.089	13865.43
596.286	13818.33
596.482	13740.5
596.679	13812.18
596.876	13867.48
597.072	13674.97
597.269	13500.89
597.466	13507.04
597.662	13529.56
597.859	13668.83
598.055	13554.14
598.252	13597.15
598.448	13378.01
598.645	13294.05
598.841	13285.86
599.038	13429.21
599.234	13351.39
599.431	13234.66
599.627	12954.08
599.824	13279.71
600.02	12997.09
600.217	13355.49
600.413	13072.87
600.609	12911.08
600.806	12827.11
601.002	13021.67
601.198	12829.16
601.395	12741.1
601.591	12646.89
601.787	12616.17
601.984	12450.28
602.18	12861.93
602.376	12638.7
602.572	12632.55
602.769	12564.97
602.965	12421.61
603.161	12540.4
603.357	12454.38
603.553	12431.85
603.75	12366.32
603.946	12567.02
604.142	12331.5
604.338	12132.85
604.534	12263.92
604.73	12220.91
604.926	12259.82
605.122	12182
605.318	12032.5
605.514	12036.59
605.71	12052.98
605.906	11870.71
606.102	12022.26
606.298	11934.2
606.494	12052.98
606.69	11786.74
606.886	12012.02
607.082	11540.99
607.278	11966.96
607.474	11551.23
607.67	11839.99
607.866	11471.36
608.062	11880.95
608.257	11545.08
608.453	11481.6
608.649	11614.71
608.845	11633.15
609.041	11280.89
609.236	11659.77
609.432	11538.94
609.628	11493.88
609.824	11319.81
610.019	11373.05
610.215	11454.97
610.411	11225.6
610.606	11463.16
610.802	11106.82
610.998	11332.09
611.193	11178.5
611.389	11168.26
611.584	11203.07
611.78	10967.56
611.976	11225.6
612.171	11229.7
612.367	11141.63
612.562	11211.26
612.758	10840.58
612.953	10762.76
613.149	10963.46
613.344	10832.39
613.539	11006.47
613.735	10973.7
613.93	10926.6
614.126	10822.15
614.321	11125.25
614.517	10699.27
614.712	10529.29
614.907	10773
615.103	10756.61
615.298	10572.3
615.493	10820.1
615.688	10359.31
615.884	10863.11
616.079	10525.19
616.274	10773
616.47	10621.45
616.665	10635.78
616.86	10762.76
617.055	10443.28
617.25	10408.46
617.445	10590.73
617.641	10420.75
617.836	10230.29
618.031	10213.9
618.226	10521.1
618.421	10301.97
618.616	10269.2
618.811	10144.27
619.006	10222.09
619.201	10299.92
619.396	10340.88
619.591	10101.26
619.786	10007.06
619.981	9837.08
620.176	9939.48
620.371	9828.88
620.566	9824.79
620.761	9980.43
620.956	9716.25
621.151	9671.19
621.346	9652.76
621.541	9581.08
621.735	9617.94
621.93	9642.52
622.125	9538.07
622.32	9583.13
622.515	9605.66
622.709	9216.54
622.904	9394.72
623.099	9159.2
623.294	9460.25
623.488	9148.96
623.683	9138.72
623.878	8995.36
624.072	9048.61
624.267	9077.28
624.462	9026.08
624.656	9030.18
624.851	9009.7
625.046	8849.96
625.24	8956.45
625.435	8802.85
625.629	8798.76
625.824	8720.93
626.018	8731.17
626.213	8464.94
626.407	8460.84
626.602	8622.63
626.796	8596.01
626.991	8534.57
627.185	8329.77
627.38	8239.66
627.574	8280.62
627.768	8172.08
627.963	8221.23
628.157	8006.19
628.352	8057.39
628.546	8030.77
628.74	8079.92
628.935	7856.69
629.129	7873.07
629.323	7766.58
629.517	7834.16
629.712	7639.61
629.906	7717.43
630.1	7619.13
630.294	7617.08
630.489	7479.86
630.683	7574.07
630.877	7473.72
631.071	7518.78
631.265	7578.17
631.459	7410.23
631.653	7574.07
631.848	7475.77
632.042	7232.06
632.236	7465.53
632.43	7260.73
632.624	7195.2
632.818	7127.61
633.012	7076.41
633.206	7127.61
633.4	7004.74
633.594	7041.6
633.788	6971.97
633.982	6961.73
634.176	6922.82
634.369	6914.63
634.563	6974.02
634.757	6908.48
634.951	6820.42
635.145	6722.12
635.339	6613.57
635.533	6566.47
635.726	6545.99
635.92	6427.21
636.114	6441.54
636.308	6556.23
636.501	6466.12
636.695	6294.09
636.889	6343.24
637.083	6335.05
637.276	6441.54
637.47	6230.6
637.664	6398.54
637.857	6363.72
638.051	6185.55
638.244	6113.87
638.438	6134.35
638.632	6197.84
638.825	6113.87
639.019	5931.6
639.212	5810.77
639.406	5972.56
639.599	5990.99
639.793	6029.9
639.986	5603.93
640.18	5892.69
640.373	5800.53
640.567	5739.09
640.76	5909.07
640.954	5741.14
641.147	5677.65
641.34	5571.16
641.534	5646.93
641.727	5685.84
641.92	5491.29
642.114	5446.23
642.307	5648.98
642.5	5515.86
642.694	5556.82
642.887	5386.84
643.08	5456.47
643.273	5223
643.467	5331.55
643.66	5382.74
643.853	5126.75
644.046	5124.7
644.239	5235.29
644.432	5288.54
644.626	5122.65
644.819	5091.93
645.012	5001.82
645.205	5122.65
645.398	4938.34
645.591	5026.4
645.784	5010.01
645.977	5118.56
646.17	5063.26
646.363	4827.74
646.556	4921.95
646.749	4993.63
646.942	4815.46
647.135	4778.59
647.328	4799.07
647.521	4860.51
647.714	4758.11
647.907	4852.32
648.099	4641.38
648.292	4770.4
648.485	4612.71
648.678	4749.92
648.871	4606.56
649.064	4713.06
649.256	4547.17
649.449	4555.37
649.642	4481.64
649.835	4686.44
650.027	4479.59
650.22	4545.13
650.413	4409.96
650.605	4412.01
650.798	4323.94
650.991	4379.24
651.183	4307.56
651.376	4299.37
651.568	4385.38
651.761	4348.52
651.954	4250.22
652.146	4121.2
652.339	4184.68
652.531	4256.36
652.724	4246.12
652.916	4080.24
653.109	4153.96
653.301	4080.24
653.494	3977.84
653.686	3949.17
653.879	4121.2
654.071	3940.97
654.263	4024.94
654.456	4057.71
654.648	4006.51
654.84	3936.88
655.033	3861.1
655.225	4002.41
655.417	3760.75
655.61	3840.62
655.802	3881.58
655.994	3734.13
656.186	3791.47
656.379	3863.15
656.571	3818.1
656.763	3617.4
656.955	3547.76
657.148	3709.55
657.34	3713.65
657.532	3596.92
657.724	3590.77
657.916	3644.02
658.108	3646.07
658.3	3566.2
658.492	3484.28
658.684	3412.6
658.876	3332.73
659.068	3560.05
659.26	3510.9
659.452	3426.93
659.644	3521.14
659.836	3345.02
660.028	3377.78
660.22	3224.19
660.412	3304.06
660.604	3349.11
660.796	3310.2
660.988	3328.63
661.18	3314.3
661.372	3232.38
661.563	3211.9
661.755	3226.23
661.947	3242.62
662.139	3236.47
662.331	3291.77
662.522	3183.23
662.714	3095.16
662.906	3025.53
663.097	3193.47
663.289	3113.6
663.481	3017.34
663.673	3060.35
663.864	3101.31
664.056	3003
664.247	3035.77
664.439	3095.16
664.631	2970.24
664.822	2966.14
665.014	3095.16
665.205	3000.96
665.397	3031.68
665.588	3107.45
665.78	2902.65
665.971	2908.8
666.163	2873.98
666.354	3027.58
666.546	2986.62
666.737	2861.69
666.929	2968.19
667.12	2865.79
667.311	2800.26
667.503	2859.65
667.694	2857.6
667.885	2869.89
668.077	2794.11
668.268	2640.51
668.459	2699.91
668.651	2708.1
668.842	2704
669.033	2755.2
669.224	2597.51
669.416	2734.72
669.607	2730.62
669.798	2648.71
669.989	2710.15
670.18	2636.42
670.371	2603.65
670.563	2624.13
670.754	2615.94
670.945	2648.71
671.136	2525.83
671.327	2507.4
671.518	2644.61
671.709	2579.08
671.9	2484.87
672.091	2669.19
672.282	2534.02
672.473	2572.93
672.664	2509.44
672.855	2364.04
673.046	2546.31
673.237	2454.15
673.428	2421.38
673.619	2497.16
673.809	2366.09
674	2521.73
674.191	2349.7
674.382	2468.48
674.573	2413.19
674.764	2376.33
674.954	2466.44
675.145	2445.96
675.336	2372.23
675.527	2337.41
675.717	2378.37
675.908	2321.03
676.099	2392.71
676.289	2413.19
676.48	2312.84
676.671	2409.09
676.861	2237.06
677.052	2228.87
677.243	2288.26
677.433	2267.78
677.624	2278.02
677.814	2312.84
678.005	2267.78
678.195	2251.4
678.386	2304.65
678.576	2284.17
678.767	2372.23
678.957	2140.81
679.148	2417.29
679.338	2212.49
679.529	2337.41
679.719	2259.59
679.909	2292.36
680.1	2312.84
680.29	2118.28
680.481	2243.21
680.671	2206.34
680.861	2087.56
681.052	2171.53
681.242	2282.12
681.432	2173.58
681.622	2275.98
681.813	2169.48
682.003	2210.44
682.193	2284.17
682.383	2114.19
682.573	2271.88
682.764	2224.78
682.954	2054.8
683.144	2126.47
683.334	2165.39
683.524	2151.05
683.714	2116.23
683.904	2241.16
684.094	2204.3
684.284	2214.54
684.474	2177.67
684.664	2118.28
684.854	2171.53
685.044	2067.08
685.234	2144.91
685.424	2089.61
685.614	1976.97
685.804	1999.5
685.994	2159.24
686.184	2120.33
686.374	2028.17
686.564	2013.84
686.753	2138.76
686.943	1899.15
687.133	2032.27
687.323	2001.55
687.513	2050.7
687.702	1979.02
687.892	1899.15
688.082	2048.65
688.272	2022.03
688.461	2110.09
688.651	2034.32
688.841	1933.97
689.03	1913.49
689.22	1809.04
689.41	1893.01
689.599	1923.73
689.789	1981.07
689.979	1854.09
690.168	1911.44
690.358	1919.63
690.547	1944.2
690.737	1870.48
690.926	1915.53
691.116	1864.33
691.305	1911.44
691.495	1936.01
691.684	1821.33
691.874	1827.47
692.063	1905.29
692.252	1882.77
692.442	1858.19
692.631	1815.18
692.82	1909.39
693.01	1827.47
693.199	1792.66
693.388	1747.6
693.578	1788.56
693.767	1802.9
693.956	1774.22
694.146	1770.13
694.335	1696.4
694.524	1657.49
694.713	1774.22
694.902	1759.89
695.092	1755.79
695.281	1737.36
695.47	1690.26
695.659	1729.17
695.848	1630.87
696.037	1735.31
696.226	1821.33
696.415	1645.2
696.604	1778.32
696.793	1770.13
696.982	1733.26
697.171	1706.64
697.36	1737.36
697.549	1806.99
697.738	1538.71
697.927	1690.26
698.116	1714.83
698.305	1706.64
698.494	1729.17
698.683	1639.06
698.872	1698.45
699.061	1665.68
699.25	1747.6
699.438	1675.92
699.627	1682.06
699.816	1751.7
700.005	1573.52
700.193	1690.26
700.382	1645.2
700.571	1641.11
700.76	1692.3
700.948	1733.26
701.137	1663.63
701.326	1733.26
701.514	1671.83
701.703	1614.48
701.892	1643.15
702.08	1712.78
702.269	1677.97
702.457	1632.91
702.646	1643.15
702.834	1585.81
703.023	1653.39
703.212	1768.08
703.4	1581.71
703.589	1727.12
703.777	1649.3
703.965	1503.89
704.154	1755.79
704.342	1583.76
704.531	1669.78
704.719	1686.16
704.907	1645.2
705.096	1649.3
705.284	1649.3
705.472	1657.49
705.661	1716.88
705.849	1675.92
706.037	1737.36
706.226	1686.16
706.414	1620.63
706.602	1702.54
706.79	1663.63
706.979	1677.97
707.167	1594
707.355	1651.35
707.543	1751.7
707.731	1747.6
707.919	1688.21
708.107	1780.37
708.296	1694.35
708.484	1700.5
708.672	1608.34
708.86	1704.59
709.048	1774.22
709.236	1761.94
709.424	1696.4
709.612	1690.26
709.8	1641.11
709.988	1600.15
710.176	1657.49
710.364	1696.4
710.551	1643.15
710.739	1680.02
710.927	1763.98
711.115	1690.26
711.303	1702.54
711.491	1768.08
711.679	1682.06
711.866	1645.2
712.054	1628.82
712.242	1727.12
712.43	1559.19
712.617	1665.68
712.805	1741.46
712.993	1639.06
713.181	1645.2
713.368	1655.44
713.556	1720.98
713.744	1720.98
713.931	1663.63
714.119	1731.22
714.306	1645.2
714.494	1704.59
714.682	1602.19
714.869	1733.26
715.057	1708.69
715.244	1696.4
715.432	1766.03
715.619	1630.87
715.807	1720.98
715.994	1673.87
716.182	1802.9
716.369	1763.98
716.556	1671.83
716.744	1661.59
716.931	1720.98
717.119	1788.56
717.306	1790.61
717.493	1581.71
717.681	1690.26
717.868	1620.63
718.055	1766.03
718.242	1729.17
718.43	1700.5
718.617	1753.74
718.804	1624.72
718.991	1700.5
719.179	1737.36
719.366	1682.06
719.553	1692.3
719.74	1694.35
719.927	1733.26
720.114	1690.26
720.301	1804.94
720.488	1657.49
720.676	1694.35
720.863	1706.64
721.05	1766.03
721.237	1729.17
721.424	1657.49
721.611	1634.96
721.798	1604.24
721.985	1647.25
722.172	1698.45
722.358	1657.49
722.545	1782.42
722.732	1743.5
722.919	1778.32
723.106	1675.92
723.293	1698.45
723.48	1710.74
723.667	1632.91
723.853	1690.26
724.04	1598.1
724.227	1712.78
724.414	1657.49
724.6	1772.18
724.787	1776.27
724.974	1727.12
725.161	1712.78
725.347	1647.25
725.534	1817.23
725.72	1710.74
725.907	1759.89
726.094	1786.51
726.28	1704.59
726.467	1864.33
726.653	1751.7
726.84	1735.31
727.027	1710.74
727.213	1637.01
727.4	1723.02
727.586	1677.97
727.773	1735.31
727.959	1786.51
728.145	1792.66
728.332	1704.59
728.518	1606.29
728.705	1669.78
728.891	1723.02
729.077	1671.83
729.264	1778.32
729.45	1657.49
729.636	1745.55
729.823	1682.06
730.009	1759.89
730.195	1712.78
730.382	1723.02
730.568	1655.44
730.754	1694.35
730.94	1743.5
731.126	1751.7
731.313	1747.6
731.499	1735.31
731.685	1673.87
731.871	1823.37
732.057	1745.55
732.243	1729.17
732.429	1745.55
732.615	1841.81
732.801	1698.45
732.987	1710.74
733.173	1639.06
733.359	1694.35
733.545	1682.06
733.731	1714.83
733.917	1704.59
734.103	1763.98
734.289	1827.47
734.475	1688.21
734.661	1706.64
734.847	1675.92
735.033	1796.75
735.219	1649.3
735.404	1813.13
735.59	1755.79
735.776	1583.76
735.962	1682.06
736.148	1708.69
736.333	1813.13
736.519	1612.43
736.705	1761.94
736.89	1637.01
737.076	1682.06
737.262	1622.67
737.447	1653.39
737.633	1735.31
737.819	1710.74
738.004	1616.53
738.19	1628.82
738.375	1651.35
738.561	1684.11
738.747	1637.01
738.932	1596.05
739.118	1702.54
739.303	1653.39
739.489	1706.64
739.674	1667.73
739.859	1733.26
740.045	1647.25
740.23	1682.06
740.416	1620.63
740.601	1661.59
740.786	1637.01
740.972	1700.5
741.157	1612.43
741.342	1589.91
741.528	1579.67
741.713	1626.77
741.898	1620.63
742.084	1651.35
742.269	1671.83
742.454	1534.61
742.639	1606.29
742.824	1665.68
743.01	1643.15
743.195	1616.53
743.38	1530.52
743.565	1589.91
743.75	1467.03
743.935	1481.36
744.12	1510.04
744.305	1471.12
744.49	1540.76
744.675	1569.43
744.86	1428.12
745.045	1491.6
745.23	1514.13
745.415	1510.04
745.6	1548.95
745.785	1499.8
745.97	1483.41
746.155	1579.67
746.34	1434.26
746.525	1530.52
746.71	1419.92
746.895	1372.82
747.079	1450.64
747.264	1411.73
747.449	1510.04
747.634	1370.77
747.819	1356.44
748.003	1389.21
748.188	1393.3
748.373	1452.69
748.557	1282.71
748.742	1374.87
748.927	1338.01
749.111	1276.57
749.296	1305.24
749.481	1352.34
749.665	1381.01
749.85	1290.9
750.034	1319.57
750.219	1303.19
750.404	1254.04
750.588	1299.09
750.773	1213.08
750.957	1264.28
751.141	1303.19
751.326	1344.15
751.51	1174.17
751.695	1168.02
751.879	1192.6
752.064	1217.18
752.248	1114.78
752.432	1272.47
752.617	1141.4
752.801	1157.78
752.985	1229.46
753.17	1165.98
753.354	1188.5
753.538	1221.27
753.722	1043.1
753.907	1168.02
754.091	1039
754.275	1079.96
754.459	1131.16
754.643	1063.58
754.828	1127.07
755.012	1125.02
755.196	1104.54
755.38	1168.02
755.564	1151.64
755.748	985.76
755.932	1057.43
756.116	1055.39
756.3	1116.83
756.484	950.94
756.668	1082.01
756.852	875.17
757.036	1067.67
757.22	1008.28
757.404	940.7
757.588	891.55
757.772	957.08
757.956	1125.02
758.14	1077.91
758.323	1043.1
758.507	961.18
758.691	971.42
758.875	969.37
759.059	993.95
759.242	893.6
759.426	905.88
759.61	959.13
759.794	981.66
759.977	858.78
760.161	938.65
760.345	860.83
760.528	924.32
760.712	891.55
760.895	959.13
761.079	842.4
761.263	873.12
761.446	858.78
761.63	946.84
761.813	819.87
761.997	828.06
762.18	875.17
762.364	912.03
762.547	801.44
762.731	860.83
762.914	787.1
763.098	813.73
763.281	830.11
763.464	873.12
763.648	871.07
763.831	815.77
764.015	864.93
764.198	838.3
764.381	797.34
764.564	793.25
764.748	830.11
764.931	895.64
765.114	819.87
765.297	871.07
765.481	772.77
765.664	760.48
765.847	703.14
766.03	795.29
766.213	756.38
766.397	770.72
766.58	780.96
766.763	774.81
766.946	750.24
767.129	854.69
767.312	735.9
767.495	684.7
767.678	729.76
767.861	723.62
768.044	723.62
768.227	701.09
768.41	631.46
768.593	666.27
768.776	733.86
768.959	823.97
769.142	762.53
769.324	641.7
769.507	723.62
769.69	727.71
769.873	613.03
770.056	776.86
770.239	711.33
770.421	766.62
770.604	729.76
770.787	707.23
770.97	649.89
771.152	711.33
771.335	735.9
771.518	727.71
771.7	723.62
771.883	717.47
772.066	721.57
772.248	703.14
772.431	608.93
772.613	643.74
772.796	641.7
772.978	625.31
773.161	682.66
773.343	666.27
773.526	602.79
773.708	666.27
773.891	617.12
774.073	615.07
774.256	617.12
774.438	680.61
774.621	623.27
774.803	617.12
774.985	594.59
775.168	584.35
775.35	545.44
775.532	637.6
775.715	510.63
775.897	510.63
776.079	514.72
776.261	582.31
776.444	486.05
776.626	576.16
776.808	498.34
776.99	500.39
777.173	537.25
777.355	504.48
777.537	574.11
777.719	598.69
777.901	516.77
778.083	522.91
778.265	574.11
778.447	498.34
778.629	533.15
778.811	563.87
778.993	625.31
779.175	555.68
779.357	490.15
779.539	479.91
779.721	404.13
779.903	436.9
780.085	500.39
780.267	545.44
780.449	428.71
780.631	453.28
780.812	518.82
780.994	426.66
781.176	365.22
781.358	410.28
781.54	461.48
781.721	451.24
781.903	420.52
782.085	434.85
782.267	391.84
782.448	352.93
782.63	395.94
782.812	465.57
782.993	381.6
783.175	441
783.357	443.04
783.538	434.85
783.72	412.32
783.901	422.56
784.083	428.71
784.264	432.8
784.446	350.89
784.627	418.47
784.809	379.56
784.99	350.89
785.172	402.08
785.353	314.02
785.535	328.36
785.716	348.84
785.897	301.73
786.079	342.69
786.26	402.08
786.441	354.98
786.623	256.68
786.804	307.88
786.985	438.95
787.167	424.61
787.348	314.02
787.529	350.89
787.71	332.45
787.891	406.18
788.073	326.31
788.254	344.74
788.435	344.74
788.616	363.17
788.797	311.97
788.978	322.21
789.159	174.76
789.34	334.5
789.522	326.31
789.703	316.07
789.884	324.26
790.065	342.69
790.246	289.45
790.427	359.08
790.607	299.69
790.788	244.39
790.969	264.87
791.15	260.77
791.331	287.4
791.512	291.49
791.693	295.59
791.874	260.77
792.054	305.83
792.235	211.62
792.416	209.58
792.597	289.45
792.778	281.25
792.958	322.21
793.139	248.49
793.32	393.89
793.5	221.86
793.681	277.16
793.862	174.76
794.042	225.96
794.223	322.21
794.404	205.48
794.584	228.01
794.765	246.44
794.945	219.82
795.126	291.49
795.306	262.82
795.487	185
795.667	199.34
795.848	193.19
796.028	268.97
796.209	211.62
796.389	324.26
796.57	283.3
796.75	174.76
796.93	201.38
797.111	225.96
797.291	215.72
797.471	285.35
797.652	156.33
797.832	279.21
798.012	299.69
798.192	197.29
798.373	213.67
798.553	164.52
798.733	158.38
798.913	182.95
799.093	232.1
799.274	244.39
799.454	260.77
799.634	219.82
799.814	262.82
799.994	232.1
800.174	201.38
800.354	158.38
800.534	144.04
800.714	209.58
800.894	170.66
801.074	225.96
801.254	277.16
801.434	238.25
801.614	160.42
801.794	180.9
801.974	565.92
802.154	180.9
802.334	156.33
802.514	139.94
802.693	127.66
802.873	199.34
803.053	248.49
803.233	277.16
803.413	197.29
803.592	131.75
803.772	213.67
803.952	238.25
804.131	117.42
804.311	129.7
804.491	189.1
804.67	109.22
804.85	166.57
805.03	150.18
805.209	174.76
805.389	92.84
805.568	268.97
805.748	211.62
805.928	170.66
806.107	154.28
806.287	207.53
806.466	150.18
806.646	164.52
806.825	199.34
807.004	94.89
807.184	76.46
807.363	101.03
807.543	148.14
807.722	168.62
807.901	189.1
808.081	191.14
808.26	129.7
808.439	203.43
808.619	146.09
808.798	158.38
808.977	264.87
809.156	185
809.336	129.7
809.515	150.18
809.694	88.75
809.873	117.42
810.052	72.36
810.231	168.62
810.411	141.99
810.59	86.7
810.769	182.95
810.948	107.18
811.127	115.37
811.306	74.41
811.485	131.75
811.664	187.05
811.843	117.42
812.022	156.33
812.201	92.84
812.38	139.94
812.559	96.94
812.737	144.04
812.916	113.32
813.095	119.46
813.274	92.84
813.453	113.32
813.632	113.32
813.811	166.57
813.989	70.31
814.168	160.42
814.347	66.22
814.526	72.36
814.704	107.18
814.883	154.28
815.062	86.7
815.24	168.62
815.419	137.9
815.598	162.47
815.776	74.41
815.955	117.42
816.133	84.65
816.312	72.36
816.49	125.61
816.669	121.51
816.847	131.75
817.026	152.23
817.204	189.1
817.383	137.9
817.561	82.6
817.74	139.94
817.918	125.61
818.097	55.98
818.275	131.75
818.453	55.98
818.632	101.03
818.81	60.07
818.988	92.84
819.167	129.7
819.345	152.23
819.523	125.61
819.701	121.51
819.879	53.93
820.058	148.14
820.236	133.8
820.414	131.75
820.592	10.92
820.77	141.99
820.948	74.41
821.127	107.18
821.305	178.86
821.483	123.56
821.661	117.42
821.839	41.64
822.017	41.64
822.195	168.62
822.373	178.86
822.551	117.42
822.729	150.18
822.907	86.7
823.085	37.55
823.262	82.6
823.44	-9.56
823.618	123.56
823.796	109.22
823.974	133.8
824.152	86.7
824.329	103.08
824.507	53.93
824.685	17.07
824.863	117.42
825.04	64.17
825.218	154.28
825.396	78.51
825.574	76.46
825.751	94.89
825.929	96.94
826.107	58.03
826.284	92.84
826.462	92.84
826.639	86.7
826.817	49.83
826.994	72.36
827.172	76.46
827.349	96.94
827.527	117.42
827.704	133.8
827.882	109.22
828.059	70.31
828.237	94.89
828.414	152.23
828.591	21.16
828.769	43.69
828.946	68.27
829.124	127.66
829.301	41.64
829.478	94.89
829.655	121.51
829.833	76.46
830.01	41.64
830.187	64.17
830.364	21.16
830.542	156.33
830.719	84.65
830.896	76.46
831.073	45.74
831.25	-5.46
831.427	66.22
831.604	66.22
831.782	82.6
831.959	80.55
832.136	96.94
832.313	96.94
832.49	45.74
832.667	39.59
832.844	92.84
833.021	53.93
833.198	25.26
833.374	74.41
833.551	41.64
833.728	-3.41
833.905	105.13
834.082	31.4
834.259	125.61
834.436	68.27
834.612	121.51
834.789	119.46
834.966	90.79
835.143	12.97
835.319	43.69
835.496	84.65
835.673	55.98
835.85	105.13
836.026	47.79
836.203	-3.41
836.38	74.41
836.556	109.22
836.733	47.79
836.909	45.74
837.086	-25.94
837.262	76.46
837.439	72.36
837.616	45.74
837.792	43.69
837.968	39.59
838.145	12.97
838.321	31.4
838.498	141.99
838.674	33.45
838.851	58.03
839.027	39.59
839.203	23.21
839.38	58.03
839.556	35.5
839.732	41.64
839.909	68.27
840.085	60.07
840.261	27.31
840.437	29.35
840.614	12.97
840.79	4.78
840.966	-7.51
841.142	39.59
841.318	25.26
841.494	49.83
841.671	82.6
841.847	6.83
842.023	39.59
842.199	-21.85
842.375	-15.7
842.551	15.02
842.727	41.64
842.903	139.94
843.079	-21.85
843.255	66.22
843.431	35.5
843.607	41.64
843.783	47.79
843.959	60.07
844.134	15.02
844.31	74.41
844.486	82.6
844.662	-11.61
844.838	2.73
845.013	156.33
845.189	111.27
845.365	68.27
845.541	33.45
845.716	92.84
845.892	6.83
846.068	84.65
846.244	-17.75
846.419	68.27
846.595	103.08
846.77	39.59
846.946	8.87
847.122	76.46
847.297	82.6
847.473	25.26
847.648	-34.13
847.824	41.64
847.999	60.07
848.175	21.16
848.35	17.07
848.526	51.88
848.701	4.78
848.876	43.69
849.052	78.51
849.227	62.12
849.403	101.03
849.578	10.92
849.753	84.65
849.929	-56.66
850.104	25.26
850.279	31.4
850.454	33.45
850.63	0.68
850.805	72.36
850.98	21.16
851.155	68.27
851.33	64.17
851.505	6.83
851.681	60.07
851.856	6.83
852.031	12.97
852.206	43.69
852.381	27.31
852.556	29.35
852.731	92.84
852.906	64.17
853.081	29.35
853.256	68.27
853.431	94.89
853.606	17.07
853.781	15.02
853.956	-3.41
854.131	49.83
854.305	55.98
854.48	33.45
854.655	31.4
854.83	23.21
855.005	33.45
855.18	-11.61
855.354	10.92
855.529	60.07
855.704	47.79
855.879	74.41
856.053	55.98
856.228	84.65
856.403	2.73
856.577	66.22
856.752	-7.51
856.926	10.92
857.101	-25.94
857.276	35.5
857.45	53.93
857.625	58.03
857.799	45.74
857.974	8.87
858.148	2.73
858.323	31.4
858.497	29.35
858.672	84.65
858.846	25.26
859.02	15.02
859.195	10.92
859.369	-56.66
859.543	15.02
859.718	17.07
859.892	-21.85
860.066	12.97
860.241	-32.08
860.415	109.22
860.589	-11.61
860.763	-11.61
860.938	49.83
861.112	23.21
861.286	-38.23
861.46	-13.65
861.634	-11.61
861.808	70.31
861.982	82.6
862.157	15.02
862.331	-23.89
862.505	6.83
862.679	27.31
862.853	35.5
863.027	-40.28
863.201	60.07
863.375	43.69
863.549	31.4
863.722	62.12
863.896	12.97
864.07	41.64
864.244	-9.56
864.418	74.41
864.592	4.78
864.766	-1.37
864.939	25.26
865.113	31.4
865.287	12.97
865.461	-15.7
865.634	-38.23
865.808	-1.37
865.982	62.12
866.156	-3.41
866.329	17.07
866.503	-25.94
866.676	43.69
866.85	66.22
867.024	8.87
867.197	82.6
867.371	60.07
867.544	64.17
867.718	15.02
867.891	17.07
868.065	-11.61
868.238	80.55
868.412	-13.65
868.585	53.93
868.759	29.35
868.932	41.64
869.105	12.97
869.279	80.55
869.452	96.94
869.625	74.41
869.799	47.79
869.972	62.12
870.145	10.92
870.319	49.83
870.492	33.45
870.665	2.73
870.838	17.07
871.011	-62.8
871.185	-9.56
871.358	60.07
871.531	27.31
871.704	2.73
871.877	25.26
872.05	23.21
872.223	0.68
872.396	-21.85
872.569	17.07
872.742	-73.04
872.915	41.64
873.088	-5.46
873.261	4.78
873.434	27.31
873.607	2.73
873.78	19.11
873.953	37.55
874.126	12.97
874.299	51.88
874.471	10.92
874.644	-7.51
874.817	-48.47
874.99	51.88
875.163	17.07
875.335	80.55
875.508	-38.23
875.681	-60.76
875.853	43.69
876.026	0.68
876.199	4.78
876.371	43.69
876.544	-21.85
876.717	29.35
876.889	31.4
877.062	-7.51
877.234	-27.99
877.407	-34.13
877.579	70.31
877.752	-15.7
877.924	47.79
878.097	23.21
878.269	-56.66
878.442	2.73
878.614	-40.28
878.786	0.68
878.959	78.51
879.131	0.68
879.303	-38.23
879.476	64.17
879.648	4.78
879.82	119.46
879.993	55.98
880.165	-44.37
880.337	-40.28
880.509	72.36
880.681	-17.75
880.854	96.94
881.026	-7.51
881.198	37.55
881.37	-50.52
881.542	21.16
881.714	15.02
881.886	0.68
882.058	-25.94
882.23	2.73
882.402	2.73
882.574	-34.13
882.746	51.88
882.918	45.74
883.09	2.73
883.262	25.26
883.434	-32.08
883.606	-32.08
883.778	-15.7
883.95	-46.42
884.122	6.83
884.293	-5.46
884.465	17.07
884.637	-9.56
884.809	21.16
884.98	6.83
885.152	47.79
885.324	23.21
885.496	76.46
885.667	-15.7
885.839	-89.43
886.011	86.7
886.182	-46.42
886.354	-48.47
886.525	37.55
886.697	51.88
886.869	39.59
887.04	90.79
887.212	51.88
887.383	55.98
887.555	-15.7
887.726	62.12
887.897	53.93
888.069	-9.56
888.24	31.4
888.412	-13.65
888.583	-23.89
888.754	2.73
888.926	-79.19
889.097	-73.04
889.268	47.79
889.44	62.12
889.611	-50.52
889.782	2.73
889.953	43.69
890.125	123.56
890.296	-15.7
890.467	45.74
890.638	12.97
890.809	78.51
890.98	-30.04
891.151	31.4
891.323	-11.61
891.494	-5.46
891.665	10.92
891.836	68.27
892.007	0.68
892.178	51.88
892.349	35.5
892.52	-25.94
892.691	-73.04
892.862	31.4
893.032	-5.46
893.203	8.87
893.374	45.74
893.545	80.55
893.716	47.79
893.887	31.4
894.057	4.78
894.228	117.42
894.399	2.73
894.57	25.26
894.74	2.73
894.911	17.07
895.082	-91.48
895.253	62.12
895.423	-107.86
895.594	19.11
895.764	33.45
895.935	64.17
896.106	-1.37
896.276	51.88
896.447	33.45
896.617	-13.65
896.788	43.69
896.958	-58.71
897.129	41.64
897.299	17.07
897.47	21.16
897.64	78.51
897.81	-38.23
897.981	27.31
898.151	19.11
898.322	2.73
898.492	27.31
898.662	0.68
898.832	4.78
899.003	10.92
899.173	23.21
899.343	-7.51
899.513	-48.47
