Data from USB4F104151__29__11-05-10-232.txt Node

Date: Wed Mar 12 11:05:10 EDT 2025
User: louis
Spectrometer: USB4F10415
Trigger mode: 4
Integration Time (sec): 2.000000E-2
Scans to average: 1
Electric dark correction enabled: true
Nonlinearity correction enabled: false
Boxcar width: 0
XAxis mode: Wavelengths
Number of Pixels in Spectrum: 3648
>>>>>Begin Spectral Data<<<<<
178.204	-17.24
178.424	-17.24
178.644	-17.24
178.864	-82.77
179.084	-37.72
179.304	-19.29
179.524	-47.96
179.744	-68.44
179.964	81.07
180.184	-41.81
180.404	93.35
180.624	-2.9
180.844	-13.14
181.064	40.11
181.283	-66.39
181.503	1.19
181.723	44.2
181.943	-33.62
182.163	13.48
182.383	42.15
182.602	-7
182.822	-2.9
183.042	-15.19
183.262	62.63
183.482	76.97
183.701	1.19
183.921	66.73
184.141	-17.24
184.361	27.82
184.58	5.29
184.8	-2.9
185.02	33.96
185.239	42.15
185.459	25.77
185.679	-23.38
185.898	9.39
186.118	66.73
186.338	48.3
186.557	25.77
186.777	-33.62
186.997	33.96
187.216	15.53
187.436	17.58
187.655	23.72
187.875	54.44
188.095	3.24
188.314	70.83
188.534	89.26
188.753	13.48
188.973	70.83
189.192	19.63
189.412	29.87
189.631	19.63
189.851	-2.9
190.07	91.31
190.29	-47.96
190.509	50.35
190.729	19.63
190.948	13.48
191.168	66.73
191.387	97.45
191.607	56.49
191.826	50.35
192.045	-11.09
192.265	23.72
192.484	17.58
192.704	17.58
192.923	-62.29
193.142	33.96
193.362	-4.95
193.581	27.82
193.8	54.44
194.02	60.59
194.239	25.77
194.458	44.2
194.678	-15.19
194.897	29.87
195.116	27.82
195.335	36.01
195.555	25.77
195.774	64.68
195.993	21.67
196.212	50.35
196.432	-7
196.651	-9.05
196.87	66.73
197.089	66.73
197.308	40.11
197.528	25.77
197.747	5.29
197.966	76.97
198.185	7.34
198.404	-11.09
198.623	33.96
198.842	64.68
199.062	25.77
199.281	70.83
199.5	-33.62
199.719	-11.09
199.938	85.16
200.157	-7
200.376	46.25
200.595	56.49
200.814	-2.9
201.033	11.43
201.252	-0.85
201.471	5.29
201.69	-0.85
201.909	7.34
202.128	27.82
202.347	11.43
202.566	-4.95
202.785	-2.9
203.004	38.06
203.223	81.07
203.442	15.53
203.661	38.06
203.879	40.11
204.098	-2.9
204.317	36.01
204.536	87.21
204.755	68.78
204.974	-19.29
205.193	5.29
205.411	15.53
205.63	-35.67
205.849	23.72
206.068	81.07
206.287	9.39
206.505	3.24
206.724	31.91
206.943	-15.19
207.162	13.48
207.381	15.53
207.599	70.83
207.818	79.02
208.037	5.29
208.255	-13.14
208.474	46.25
208.693	46.25
208.911	1.19
209.13	-2.9
209.349	-68.44
209.567	-4.95
209.786	46.25
210.005	21.67
210.223	-37.72
210.442	-56.15
210.661	70.83
210.879	1.19
211.098	81.07
211.316	-27.48
211.535	19.63
211.753	19.63
211.972	42.15
212.191	64.68
212.409	-25.43
212.628	95.4
212.846	81.07
213.065	11.43
213.283	27.82
213.502	-4.95
213.72	-72.53
213.938	29.87
214.157	-13.14
214.375	25.77
214.594	-7
214.812	68.78
215.031	-52.05
215.249	9.39
215.467	25.77
215.686	1.19
215.904	27.82
216.122	40.11
216.341	66.73
216.559	-41.81
216.778	87.21
216.996	50.35
217.214	-60.24
217.432	29.87
217.651	83.11
217.869	-13.14
218.087	79.02
218.306	-50
218.524	33.96
218.742	33.96
218.96	29.87
219.179	36.01
219.397	15.53
219.615	27.82
219.833	11.43
220.051	-4.95
220.27	46.25
220.488	-11.09
220.706	23.72
220.924	11.43
221.142	-23.38
221.36	31.91
221.578	38.06
221.796	83.11
222.015	36.01
222.233	-4.95
222.451	40.11
222.669	109.74
222.887	-2.9
223.105	23.72
223.323	-9.05
223.541	-15.19
223.759	62.63
223.977	46.25
224.195	-21.33
224.413	83.11
224.631	107.69
224.849	50.35
225.067	44.2
225.285	-35.67
225.503	27.82
225.721	48.3
225.939	107.69
226.157	31.91
226.375	68.78
226.592	-17.24
226.81	-9.05
227.028	44.2
227.246	13.48
227.464	-31.57
227.682	46.25
227.9	56.49
228.117	60.59
228.335	17.58
228.553	-7
228.771	109.74
228.989	23.72
229.206	7.34
229.424	-29.52
229.642	38.06
229.86	33.96
230.077	11.43
230.295	79.02
230.513	25.77
230.731	91.31
230.948	50.35
231.166	42.15
231.384	-13.14
231.601	17.58
231.819	13.48
232.037	-23.38
232.254	-2.9
232.472	44.2
232.689	62.63
232.907	60.59
233.125	21.67
233.342	87.21
233.56	29.87
233.777	70.83
233.995	56.49
234.213	-43.86
234.43	62.63
234.648	56.49
234.865	-15.19
235.083	72.87
235.3	21.67
235.518	72.87
235.735	40.11
235.953	72.87
236.17	42.15
236.388	40.11
236.605	-13.14
236.822	7.34
237.04	42.15
237.257	56.49
237.475	21.67
237.692	23.72
237.909	-27.48
238.127	-9.05
238.344	-43.86
238.562	83.11
238.779	15.53
238.996	-21.33
239.214	74.92
239.431	46.25
239.648	-17.24
239.865	95.4
240.083	38.06
240.3	46.25
240.517	-23.38
240.735	27.82
240.952	17.58
241.169	7.34
241.386	87.21
241.603	42.15
241.821	-78.68
242.038	27.82
242.255	-33.62
242.472	-15.19
242.689	1.19
242.907	42.15
243.124	23.72
243.341	64.68
243.558	-43.86
243.775	23.72
243.992	38.06
244.209	-13.14
244.426	79.02
244.643	50.35
244.86	25.77
245.078	-17.24
245.295	95.4
245.512	46.25
245.729	-74.58
245.946	58.54
246.163	9.39
246.38	48.3
246.597	1.19
246.814	38.06
247.031	-31.57
247.248	19.63
247.464	-13.14
247.681	46.25
247.898	48.3
248.115	79.02
248.332	-35.67
248.549	60.59
248.766	42.15
248.983	50.35
249.2	87.21
249.417	66.73
249.633	25.77
249.85	40.11
250.067	122.02
250.284	46.25
250.501	29.87
250.717	-19.29
250.934	-2.9
251.151	-4.95
251.368	56.49
251.585	52.39
251.801	97.45
252.018	-90.96
252.235	38.06
252.451	-54.1
252.668	19.63
252.885	27.82
253.102	-4.95
253.318	19.63
253.535	46.25
253.752	66.73
253.968	38.06
254.185	33.96
254.401	17.58
254.618	74.92
254.835	17.58
255.051	119.98
255.268	-29.52
255.484	-9.05
255.701	105.64
255.917	81.07
256.134	-9.05
256.351	40.11
256.567	-101.2
256.784	48.3
257	-15.19
257.217	-27.48
257.433	44.2
257.65	25.77
257.866	1.19
258.082	-9.05
258.299	66.73
258.515	11.43
258.732	31.91
258.948	40.11
259.165	11.43
259.381	-33.62
259.597	23.72
259.814	-19.29
260.03	5.29
260.246	56.49
260.463	-11.09
260.679	42.15
260.895	15.53
261.112	44.2
261.328	-4.95
261.544	40.11
261.761	81.07
261.977	-9.05
262.193	44.2
262.409	46.25
262.626	1.19
262.842	36.01
263.058	-2.9
263.274	81.07
263.49	-7
263.707	95.4
263.923	38.06
264.139	-15.19
264.355	-11.09
264.571	25.77
264.787	29.87
265.004	44.2
265.22	21.67
265.436	1.19
265.652	-23.38
265.868	64.68
266.084	29.87
266.3	89.26
266.516	60.59
266.732	-11.09
266.948	-19.29
267.164	13.48
267.38	1.19
267.596	58.54
267.812	44.2
268.028	27.82
268.244	13.48
268.46	62.63
268.676	-19.29
268.892	72.87
269.108	11.43
269.324	46.25
269.54	29.87
269.756	50.35
269.972	17.58
270.188	25.77
270.403	23.72
270.619	48.3
270.835	58.54
271.051	103.59
271.267	56.49
271.483	66.73
271.698	44.2
271.914	27.82
272.13	72.87
272.346	-31.57
272.562	46.25
272.777	50.35
272.993	17.58
273.209	9.39
273.425	44.2
273.64	-56.15
273.856	72.87
274.072	56.49
274.287	11.43
274.503	119.98
274.719	-4.95
274.934	58.54
275.15	-4.95
275.366	81.07
275.581	44.2
275.797	23.72
276.012	5.29
276.228	44.2
276.444	60.59
276.659	-4.95
276.875	-25.43
277.09	29.87
277.306	3.24
277.521	33.96
277.737	48.3
277.952	105.64
278.168	17.58
278.383	17.58
278.599	83.11
278.814	50.35
279.03	5.29
279.245	56.49
279.461	64.68
279.676	48.3
279.892	-21.33
280.107	-7
280.322	17.58
280.538	103.59
280.753	9.39
280.969	60.59
281.184	74.92
281.399	42.15
281.615	-31.57
281.83	38.06
282.045	87.21
282.26	27.82
282.476	15.53
282.691	52.39
282.906	109.74
283.122	-25.43
283.337	3.24
283.552	-2.9
283.767	46.25
283.983	64.68
284.198	91.31
284.413	42.15
284.628	-27.48
284.843	109.74
285.058	66.73
285.274	87.21
285.489	29.87
285.704	19.63
285.919	72.87
286.134	72.87
286.349	-27.48
286.564	-68.44
286.779	70.83
286.995	-29.52
287.21	101.55
287.425	54.44
287.64	-11.09
287.855	-0.85
288.07	70.83
288.285	70.83
288.5	36.01
288.715	87.21
288.93	9.39
289.145	23.72
289.36	60.59
289.575	42.15
289.79	54.44
290.004	-56.15
290.219	62.63
290.434	50.35
290.649	29.87
290.864	23.72
291.079	52.39
291.294	33.96
291.509	87.21
291.724	23.72
291.938	23.72
292.153	42.15
292.368	19.63
292.583	42.15
292.798	40.11
293.012	27.82
293.227	29.87
293.442	13.48
293.657	36.01
293.871	36.01
294.086	52.39
294.301	56.49
294.516	-2.9
294.73	42.15
294.945	-58.2
295.16	62.63
295.374	60.59
295.589	74.92
295.804	-27.48
296.018	46.25
296.233	1.19
296.447	33.96
296.662	9.39
296.877	52.39
297.091	19.63
297.306	36.01
297.52	-23.38
297.735	-43.86
297.949	97.45
298.164	101.55
298.378	11.43
298.593	76.97
298.807	-0.85
299.022	60.59
299.236	3.24
299.451	17.58
299.665	60.59
299.88	38.06
300.094	-15.19
300.309	-13.14
300.523	79.02
300.737	15.53
300.952	48.3
301.166	95.4
301.381	-41.81
301.595	21.67
301.809	-19.29
302.024	60.59
302.238	-43.86
302.452	74.92
302.667	11.43
302.881	40.11
303.095	-2.9
303.309	70.83
303.524	-19.29
303.738	11.43
303.952	44.2
304.166	50.35
304.381	33.96
304.595	109.74
304.809	-50
305.023	105.64
305.237	42.15
305.452	70.83
305.666	54.44
305.88	70.83
306.094	21.67
306.308	62.63
306.522	29.87
306.736	72.87
306.95	46.25
307.164	76.97
307.379	38.06
307.593	117.93
307.807	25.77
308.021	1.19
308.235	19.63
308.449	13.48
308.663	-62.29
308.877	126.12
309.091	44.2
309.305	-21.33
309.519	-19.29
309.733	-15.19
309.947	-54.1
310.161	3.24
310.374	81.07
310.588	56.49
310.802	-21.33
311.016	42.15
311.23	-7
311.444	5.29
311.658	33.96
311.872	17.58
312.085	-0.85
312.299	95.4
312.513	91.31
312.727	-11.09
312.941	-4.95
313.154	126.12
313.368	40.11
313.582	54.44
313.796	62.63
314.009	44.2
314.223	17.58
314.437	79.02
314.651	113.83
314.864	31.91
315.078	-7
315.292	17.58
315.505	50.35
315.719	97.45
315.933	3.24
316.146	-19.29
316.36	107.69
316.573	76.97
316.787	46.25
317.001	23.72
317.214	9.39
317.428	87.21
317.641	36.01
317.855	50.35
318.068	50.35
318.282	85.16
318.495	-29.52
318.709	29.87
318.922	-23.38
319.136	52.39
319.349	46.25
319.563	-52.05
319.776	-27.48
319.99	-13.14
320.203	62.63
320.417	1.19
320.63	23.72
320.843	38.06
321.057	68.78
321.27	85.16
321.483	62.63
321.697	72.87
321.91	19.63
322.124	33.96
322.337	23.72
322.55	44.2
322.763	11.43
322.977	27.82
323.19	52.39
323.403	21.67
323.617	-11.09
323.83	-0.85
324.043	62.63
324.256	11.43
324.469	-7
324.683	-4.95
324.896	-11.09
325.109	25.77
325.322	-0.85
325.535	17.58
325.748	87.21
325.962	74.92
326.175	33.96
326.388	107.69
326.601	115.88
326.814	-13.14
327.027	-43.86
327.24	44.2
327.453	13.48
327.666	115.88
327.879	54.44
328.092	9.39
328.305	87.21
328.518	33.96
328.731	19.63
328.944	89.26
329.157	38.06
329.37	31.91
329.583	19.63
329.796	64.68
330.009	42.15
330.222	-4.95
330.435	58.54
330.648	19.63
330.861	-23.38
331.073	58.54
331.286	25.77
331.499	42.15
331.712	-2.9
331.925	93.35
332.138	-7
332.35	91.31
332.563	42.15
332.776	74.92
332.989	3.24
333.202	5.29
333.414	1.19
333.627	40.11
333.84	79.02
334.053	15.53
334.265	-23.38
334.478	38.06
334.691	62.63
334.903	52.39
335.116	-0.85
335.329	91.31
335.541	56.49
335.754	21.67
335.966	-35.67
336.179	62.63
336.392	36.01
336.604	85.16
336.817	56.49
337.029	29.87
337.242	-45.91
337.454	40.11
337.667	101.55
337.88	66.73
338.092	21.67
338.305	42.15
338.517	68.78
338.729	46.25
338.942	134.31
339.154	13.48
339.367	-7
339.579	36.01
339.792	72.87
340.004	83.11
340.217	66.73
340.429	42.15
340.641	33.96
340.854	68.78
341.066	27.82
341.278	36.01
341.491	76.97
341.703	46.25
341.915	13.48
342.128	87.21
342.34	40.11
342.552	36.01
342.764	70.83
342.977	107.69
343.189	79.02
343.401	38.06
343.613	36.01
343.826	50.35
344.038	-2.9
344.25	85.16
344.462	42.15
344.674	115.88
344.886	60.59
345.099	81.07
345.311	17.58
345.523	85.16
345.735	7.34
345.947	11.43
346.159	66.73
346.371	95.4
346.583	-35.67
346.795	23.72
347.007	-7
347.219	50.35
347.431	-33.62
347.643	-11.09
347.855	42.15
348.067	50.35
348.279	-11.09
348.491	74.92
348.703	42.15
348.915	-2.9
349.127	70.83
349.339	13.48
349.551	-60.24
349.763	17.58
349.975	5.29
350.187	9.39
350.399	-7
350.61	93.35
350.822	23.72
351.034	36.01
351.246	64.68
351.458	17.58
351.669	-0.85
351.881	66.73
352.093	79.02
352.305	3.24
352.517	81.07
352.728	44.2
352.94	54.44
353.152	-7
353.363	29.87
353.575	60.59
353.787	44.2
353.999	-13.14
354.21	79.02
354.422	17.58
354.633	58.54
354.845	21.67
355.057	25.77
355.268	31.91
355.48	-2.9
355.692	-21.33
355.903	76.97
356.115	87.21
356.326	-11.09
356.538	1.19
356.749	111.78
356.961	29.87
357.172	42.15
357.384	62.63
357.595	-19.29
357.807	48.3
358.018	46.25
358.23	87.21
358.441	103.59
358.653	36.01
358.864	62.63
359.075	33.96
359.287	87.21
359.498	113.83
359.709	97.45
359.921	23.72
360.132	-15.19
360.344	11.43
360.555	52.39
360.766	50.35
360.977	68.78
361.189	-25.43
361.4	-19.29
361.611	50.35
361.823	29.87
362.034	60.59
362.245	42.15
362.456	21.67
362.667	79.02
362.879	58.54
363.09	23.72
363.301	44.2
363.512	58.54
363.723	76.97
363.935	11.43
364.146	115.88
364.357	87.21
364.568	72.87
364.779	119.98
364.99	27.82
365.201	-56.15
365.412	99.5
365.623	-31.57
365.834	58.54
366.045	3.24
366.256	-17.24
366.467	21.67
366.678	46.25
366.889	52.39
367.1	54.44
367.311	87.21
367.522	42.15
367.733	50.35
367.944	54.44
368.155	91.31
368.366	31.91
368.577	27.82
368.788	46.25
368.999	44.2
369.209	11.43
369.42	101.55
369.631	105.64
369.842	56.49
370.053	38.06
370.264	50.35
370.474	109.74
370.685	103.59
370.896	27.82
371.107	40.11
371.317	68.78
371.528	54.44
371.739	33.96
371.95	-2.9
372.16	87.21
372.371	36.01
372.582	56.49
372.792	25.77
373.003	81.07
373.214	83.11
373.424	46.25
373.635	31.91
373.846	74.92
374.056	7.34
374.267	31.91
374.477	83.11
374.688	93.35
374.898	29.87
375.109	74.92
375.319	62.63
375.53	107.69
375.74	38.06
375.951	62.63
376.161	21.67
376.372	29.87
376.582	27.82
376.793	89.26
377.003	13.48
377.214	76.97
377.424	-19.29
377.635	17.58
377.845	-2.9
378.055	60.59
378.266	36.01
378.476	-2.9
378.686	52.39
378.897	17.58
379.107	54.44
379.317	54.44
379.528	85.16
379.738	52.39
379.948	-27.48
380.158	60.59
380.369	44.2
380.579	70.83
380.789	19.63
380.999	54.44
381.21	64.68
381.42	124.07
381.63	-11.09
381.84	72.87
382.05	58.54
382.261	103.59
382.471	38.06
382.681	89.26
382.891	54.44
383.101	68.78
383.311	-25.43
383.521	44.2
383.731	21.67
383.941	93.35
384.151	19.63
384.361	-29.52
384.571	-29.52
384.781	117.93
384.991	81.07
385.201	97.45
385.411	58.54
385.621	107.69
385.831	13.48
386.041	25.77
386.251	74.92
386.461	91.31
386.671	13.48
386.881	95.4
387.091	40.11
387.301	79.02
387.511	66.73
387.72	38.06
387.93	62.63
388.14	52.39
388.35	99.5
388.56	87.21
388.769	79.02
388.979	44.2
389.189	64.68
389.399	54.44
389.609	111.78
389.818	85.16
390.028	56.49
390.238	81.07
390.447	9.39
390.657	109.74
390.867	38.06
391.076	33.96
391.286	109.74
391.496	91.31
391.705	48.3
391.915	64.68
392.125	17.58
392.334	97.45
392.544	54.44
392.753	83.11
392.963	89.26
393.172	74.92
393.382	46.25
393.591	33.96
393.801	97.45
394.01	134.31
394.22	74.92
394.429	19.63
394.639	89.26
394.848	117.93
395.058	74.92
395.267	52.39
395.477	95.4
395.686	9.39
395.895	62.63
396.105	130.22
396.314	15.53
396.524	70.83
396.733	99.5
396.942	146.6
397.152	130.22
397.361	191.66
397.57	128.17
397.78	89.26
397.989	117.93
398.198	72.87
398.407	36.01
398.617	117.93
398.826	91.31
399.035	66.73
399.244	130.22
399.453	173.22
399.663	74.92
399.872	66.73
400.081	87.21
400.29	148.65
400.499	109.74
400.708	83.11
400.917	93.35
401.127	95.4
401.336	91.31
401.545	165.03
401.754	109.74
401.963	93.35
402.172	185.51
402.381	122.02
402.59	70.83
402.799	99.5
403.008	91.31
403.217	95.4
403.426	56.49
403.635	81.07
403.844	99.5
404.053	130.22
404.262	105.64
404.471	134.31
404.68	208.04
404.888	117.93
405.097	150.7
405.306	185.51
405.515	187.56
405.724	175.27
405.933	103.59
406.142	146.6
406.35	187.56
406.559	169.13
406.768	162.98
406.977	212.14
407.185	212.14
407.394	201.9
407.603	158.89
407.812	253.09
408.02	218.28
408.229	205.99
408.438	199.85
408.646	242.85
408.855	191.66
409.064	242.85
409.272	185.51
409.481	330.92
409.69	236.71
409.898	238.76
410.107	222.38
410.315	283.81
410.524	267.43
410.733	332.97
410.941	312.49
411.15	394.4
411.358	361.64
411.567	341.16
411.775	279.72
411.984	398.5
412.192	398.5
412.401	423.08
412.609	461.99
412.818	488.61
413.026	421.03
413.234	431.27
413.443	439.46
413.651	480.42
413.86	472.23
414.068	556.19
414.276	562.34
414.485	623.78
414.693	591.01
414.901	631.97
415.11	644.26
415.318	617.63
415.526	634.02
415.734	744.61
415.943	654.5
416.151	789.66
416.359	664.74
416.567	797.85
416.776	715.94
416.984	840.86
417.192	1027.23
417.4	908.44
417.608	816.29
417.817	861.34
418.025	994.46
418.233	982.17
418.441	1033.37
418.649	1100.95
418.857	1207.45
419.065	1307.8
419.273	1201.3
419.481	1191.06
419.689	1283.22
419.897	1408.15
420.105	1332.37
420.313	1467.54
420.521	1445.01
420.729	1571.99
420.937	1559.7
421.145	1574.03
421.353	1727.63
421.561	1803.41
421.769	1698.96
421.977	1852.56
422.185	1817.74
422.393	2145.42
422.601	2059.4
422.809	2004.11
423.017	2110.6
423.224	2129.03
423.432	2215.05
423.64	2256.01
423.848	2413.7
424.056	2436.23
424.263	2602.11
424.471	2645.12
424.679	2593.92
424.887	2802.82
425.094	2862.21
425.302	2892.93
425.51	3040.38
425.718	3028.09
425.925	3230.84
426.133	3224.7
426.341	3595.38
426.548	3591.28
426.756	3529.84
426.964	3617.91
427.171	3751.03
427.379	3978.35
427.586	3933.29
427.794	4170.86
428.001	4385.9
428.209	4500.58
428.417	4359.27
428.624	4660.32
428.832	4777.06
429.039	4727.91
429.247	4607.08
429.454	5067.87
429.662	5518.42
429.869	5172.32
430.076	5586.01
430.284	5348.44
430.491	5434.46
430.699	5989.46
430.906	5698.64
431.114	5829.71
431.321	6245.45
431.528	6362.19
431.736	6761.54
431.943	7164.99
432.15	6945.86
432.358	7035.97
432.565	7439.42
432.772	7386.17
432.979	7701.56
433.187	7863.35
433.394	7851.06
433.601	8387.63
433.808	8498.22
434.016	8373.29
434.223	8664.1
434.43	9235.49
434.637	8956.96
434.844	9442.33
435.052	9649.18
435.259	9780.25
435.466	9772.05
435.673	9702.42
435.88	10331.15
436.087	10916.87
436.294	11142.14
436.501	10699.78
436.708	10929.16
436.915	11179.01
437.122	11799.54
437.329	11785.21
437.537	12082.16
437.743	12178.42
437.95	12248.05
438.157	12790.76
438.364	13347.81
438.571	13229.02
438.778	13560.8
438.985	14631.88
439.192	14064.6
439.399	14470.09
439.606	14250.96
439.813	14863.3
440.02	15811.51
440.227	15717.31
440.433	15453.12
440.64	15942.58
440.847	16006.07
441.054	16192.44
441.261	17396.64
441.467	17208.23
441.674	17451.94
441.881	18078.61
442.088	17892.25
442.294	17902.49
442.501	18205.59
442.708	18809.74
442.914	19616.64
443.121	20269.94
443.328	19837.82
443.534	21039.98
443.741	20384.63
443.948	20114.3
444.154	21887.84
444.361	21662.56
444.568	21617.5
444.774	21932.89
444.981	22039.39
445.187	22752.08
445.394	23464.77
445.6	23249.74
445.807	25631.52
446.013	24591.16
446.22	25111.34
446.426	25723.68
446.633	25934.62
446.839	27089.68
447.046	25721.63
447.252	27257.61
447.459	27435.78
447.665	27163.4
447.871	28302.07
448.078	29373.16
448.284	28111.61
448.491	28820.21
448.697	30278.36
448.903	30794.45
449.11	30669.53
449.316	30096.1
449.522	30542.55
449.728	31347.4
449.935	31212.24
450.141	31138.51
450.347	32205.5
450.553	30962.39
450.76	31619.78
450.966	32645.82
451.172	32303.81
451.378	32629.43
451.584	32228.03
451.791	32823.99
451.997	33178.29
452.203	33465
452.409	33348.27
452.615	32838.33
452.821	32023.23
453.027	31658.7
453.233	33235.63
453.44	31476.43
453.646	32107.2
453.852	32279.23
454.058	32541.37
454.264	31593.16
454.47	32166.59
454.676	31857.35
454.882	32094.91
455.088	29588.2
455.294	29924.07
455.5	30384.86
455.705	30915.28
455.911	29485.8
456.117	28764.92
456.323	28515.06
456.529	27085.58
456.735	28076.8
456.941	27441.93
457.147	26837.78
457.352	25912.1
457.558	25635.62
457.764	25793.31
457.97	25484.07
458.176	24953.65
458.381	24754.99
458.587	23669.57
458.793	23536.45
458.999	22119.26
459.204	23896.89
459.41	23487.3
459.616	21506.91
459.821	21564.26
460.027	21551.97
460.233	21220.2
460.438	19972.99
460.644	20411.25
460.85	19327.88
461.055	19096.46
461.261	19061.64
461.466	17849.24
461.672	17195.94
461.878	18504.59
462.083	17195.94
462.289	16741.29
462.494	16647.08
462.7	15887.29
462.905	15510.46
463.111	15985.59
463.316	16202.68
463.522	15967.16
463.727	15870.9
463.932	15745.98
464.138	15401.92
464.343	15518.65
464.549	14998.47
464.754	15711.16
464.959	15592.38
465.165	15465.41
465.37	14769.1
465.575	14369.74
465.781	14932.93
465.986	15190.98
466.191	14439.37
466.397	14085.08
466.602	13650.91
466.807	14121.94
467.012	13923.29
467.218	14009.3
467.423	13908.95
467.628	13917.14
467.833	14386.13
468.038	13867.99
468.244	13442.01
468.449	14212.05
468.654	13736.92
468.859	13427.68
469.064	13337.57
469.269	13177.83
469.474	12958.69
469.679	13042.66
469.885	12903.4
470.09	13210.59
470.295	12940.26
470.5	12628.97
470.705	12647.4
470.91	12364.78
471.115	12153.84
471.32	12714.98
471.525	12254.19
471.73	12237.81
471.935	12043.25
472.139	11736.06
472.344	11754.49
472.549	11574.27
472.754	11457.53
472.959	11344.89
473.164	11064.32
473.369	10730.5
473.574	11187.2
473.778	11189.25
473.983	11133.95
474.188	10949.64
474.393	10470.41
474.598	10755.08
474.802	10468.36
475.007	10462.22
475.212	10204.17
475.417	10060.82
475.621	9982.99
475.826	9876.5
476.031	9720.85
476.235	9835.54
476.44	9843.73
476.645	9704.47
476.849	9903.12
477.054	9675.8
477.259	9493.53
477.463	9432.09
477.668	9108.51
477.872	9255.97
478.077	9133.09
478.282	8913.95
478.486	8983.59
478.691	8983.59
478.895	8920.1
479.1	8666.15
479.304	8737.83
479.509	8555.56
479.713	8590.38
479.918	8539.18
480.122	8492.07
480.326	8602.66
480.531	8516.65
480.735	8428.59
480.94	8215.6
481.144	8293.42
481.348	8217.65
481.553	8129.58
481.757	7992.37
481.961	8211.5
482.166	8346.67
482.37	8346.67
482.574	8145.97
482.778	8174.64
482.983	8344.62
483.187	8158.25
483.391	8123.44
483.595	8014.9
483.8	8156.21
484.004	8080.43
484.208	8150.06
484.412	8053.81
484.616	8193.07
484.821	8215.6
485.025	7982.13
485.229	8164.4
485.433	8059.95
485.637	8240.17
485.841	8160.3
486.045	7982.13
486.249	8074.29
486.453	8160.3
486.657	7996.46
486.861	8145.97
487.065	7834.68
487.269	7990.32
487.473	8105.01
487.677	8223.79
487.881	8379.43
488.085	8117.29
488.289	8102.96
488.493	7955.51
488.697	8199.21
488.901	8287.28
489.105	8188.97
489.309	8006.7
489.512	8252.46
489.716	8299.56
489.92	8262.7
490.124	8223.79
490.328	8354.86
490.531	8295.47
490.735	8369.19
490.939	8418.35
491.143	8422.44
491.346	8545.32
491.55	8438.83
491.754	8535.08
491.958	8692.77
492.161	8524.84
492.365	8725.54
492.569	8627.24
492.772	8487.98
492.976	8565.8
493.18	8905.76
493.383	8741.93
493.587	8928.29
493.79	8893.47
493.994	8844.32
494.197	8995.87
494.401	9098.27
494.605	9208.86
494.808	9157.66
495.012	9102.37
495.215	9190.43
495.419	9325.6
495.622	9430.04
495.825	9436.19
496.029	9569.3
496.232	9800.73
496.436	9724.95
496.639	9907.22
496.843	9870.36
497.046	10075.15
497.249	10148.88
497.453	10286.09
497.656	10226.7
497.859	10232.85
498.063	10304.53
498.266	10753.03
498.469	10695.69
498.673	10730.5
498.876	11064.32
499.079	10937.35
499.282	11074.56
499.485	11437.05
499.689	11293.69
499.892	11414.52
500.095	11561.98
500.298	11691
500.501	11748.34
500.705	11930.61
500.908	12303.34
501.111	12190.7
501.314	12514.28
501.517	12516.33
501.72	12655.59
501.923	12366.83
502.126	13065.19
502.329	13300.7
502.532	13155.3
502.735	13280.22
502.938	13480.92
503.141	13806.55
503.344	13841.37
503.547	13935.57
503.75	14050.26
503.953	14351.31
504.156	14482.38
504.359	14375.89
504.562	14545.87
504.765	15004.61
504.968	14834.63
505.17	15262.66
505.373	15143.88
505.576	15743.93
505.779	15805.37
505.982	15836.09
506.185	15895.48
506.387	16262.07
506.59	16303.03
506.793	16794.54
506.996	16835.5
507.198	17130.41
507.401	16901.03
507.604	17058.73
507.807	17548.19
508.009	17761.18
508.212	18000.79
508.415	17980.31
508.617	18246.55
508.82	18430.87
509.022	18457.49
509.225	19032.97
509.428	18799.5
509.63	19432.32
509.833	19250.05
510.035	19606.4
510.238	19420.03
510.44	19944.31
510.643	20243.32
510.845	20276.09
511.048	20325.24
511.25	20986.73
511.453	20654.96
511.655	21625.7
511.858	21283.69
512.06	21443.43
512.262	21848.93
512.465	21812.06
512.667	22664.02
512.87	22530.9
513.072	22621.01
513.274	22971.21
513.477	22883.15
513.679	23479.11
513.881	23597.89
514.084	23929.66
514.286	24154.94
514.488	23880.51
514.69	24875.82
514.893	24873.78
515.095	24953.65
515.297	25205.55
515.499	25465.64
515.701	25838.37
515.904	26098.46
516.106	26120.99
516.308	26223.39
516.51	26970.9
516.712	26829.59
516.914	27083.53
517.116	27697.92
517.318	27788.03
517.52	27734.79
517.722	27788.03
517.925	28373.75
518.127	28656.37
518.329	29053.68
518.531	29039.34
518.733	29399.79
518.935	29770.47
519.136	29706.98
519.338	30153.44
519.54	30452.44
519.742	30661.33
519.944	30808.79
520.146	30993.11
520.348	31517.39
520.55	31716.04
520.752	31988.42
520.954	32258.75
521.155	32049.86
521.357	32654.01
521.559	32905.91
521.761	33503.92
521.963	33397.42
522.164	33598.12
522.366	33624.75
522.568	34103.97
522.77	34339.49
522.971	35058.32
523.173	34949.78
523.375	34962.07
523.576	35005.08
523.778	35347.09
523.98	36106.88
524.181	35672.71
524.383	36098.69
524.584	36317.82
524.786	36543.1
524.988	36371.07
525.189	37100.15
525.391	37399.15
525.592	37548.65
525.794	37423.73
525.995	37534.32
526.197	37849.71
526.398	37915.24
526.6	38406.75
526.801	38623.84
527.003	38623.84
527.204	38701.66
527.406	38836.83
527.607	39139.93
527.808	39168.6
528.01	38832.73
528.211	38904.41
528.412	39899.72
528.614	39746.12
528.815	39946.83
529.016	40014.41
529.218	39983.69
529.419	39907.91
529.62	40188.49
529.822	39973.45
530.023	40419.91
530.224	40309.32
530.425	40264.26
530.626	40424
530.828	40370.75
531.029	41122.36
531.23	40733.25
531.431	40868.41
531.632	40901.18
531.833	41167.41
532.035	40825.4
532.236	41398.83
532.437	41507.38
532.638	41224.76
532.839	41372.21
533.04	41357.88
533.241	40798.78
533.442	42240.55
533.643	41499.19
533.844	42066.47
534.045	41687.6
534.246	41288.24
534.447	41787.95
534.648	41646.64
534.849	41794.09
535.05	41345.59
535.251	41529.9
535.451	41404.98
535.652	42103.34
535.853	41888.3
536.054	41890.35
536.255	42125.86
536.456	42099.24
536.657	42555.94
536.857	41716.27
537.058	41505.33
537.259	42232.36
537.46	41896.49
537.66	41441.84
537.861	41933.35
538.062	41679.41
538.263	41851.44
538.463	41810.48
538.664	41812.52
538.865	41968.17
539.065	41884.2
539.266	41777.71
539.466	42271.27
539.667	41556.53
539.868	42617.38
540.068	41730.61
540.269	42275.37
540.469	42175.02
540.67	41959.98
540.87	41869.87
541.071	41746.99
541.271	42111.53
541.472	42019.37
541.672	41843.24
541.873	41572.91
542.073	41321.01
542.274	41974.31
542.474	41673.26
542.675	41294.39
542.875	42072.62
543.075	41450.03
543.276	40974.91
543.476	42086.95
543.676	41710.13
543.877	41566.77
544.077	42142.25
544.277	42011.18
544.478	41390.64
544.678	41904.68
544.878	41822.76
545.078	41857.58
545.279	41562.67
545.479	41540.14
545.679	41677.36
545.879	41366.07
546.079	41767.47
546.28	41443.89
546.48	41304.63
546.68	41560.62
546.88	41663.02
547.08	41441.84
547.28	41673.26
547.48	41460.27
547.68	41591.34
547.88	41503.28
548.081	41824.81
548.281	41636.4
548.481	41220.66
548.681	41648.69
548.881	41476.66
549.081	41398.83
549.28	41220.66
549.48	41644.59
549.68	41321.01
549.88	41933.35
550.08	41544.24
550.28	41284.15
550.48	41050.68
550.68	42035.75
550.88	41396.79
551.08	41390.64
551.279	41335.35
551.479	41046.58
551.679	41312.82
551.879	41294.39
552.079	41638.45
552.278	40991.29
552.478	41200.18
552.678	41185.85
552.878	41908.78
553.077	41067.06
553.277	41108.02
553.477	41667.12
553.676	40917.56
553.876	40585.79
554.076	40741.44
554.275	40931.9
554.475	40581.7
554.674	40739.39
554.874	40741.44
555.074	40544.83
555.273	40952.38
555.473	40878.65
555.672	40587.84
555.872	40598.08
556.071	40811.07
556.271	40686.14
556.47	40774.2
556.67	40360.51
556.869	40458.82
557.068	40950.33
557.268	40106.57
557.467	40151.62
557.667	39869
557.866	40059.46
558.065	40184.39
558.265	39883.34
558.464	39727.69
558.663	39924.3
558.863	39172.69
559.062	40200.77
559.261	39314
559.461	39887.43
559.66	39006.81
559.859	39219.8
560.058	39297.62
560.258	39500.37
560.457	38842.97
560.656	39627.34
560.855	38941.27
561.054	39178.84
561.253	38836.83
561.453	39273.04
561.652	39076.44
561.851	39254.61
562.05	39090.77
562.249	38556.25
562.448	39152.21
562.647	38912.6
562.846	38601.31
563.045	38931.03
563.244	38423.14
563.443	38660.7
563.642	37960.3
563.841	38271.59
564.04	38023.78
564.239	38046.31
564.438	37800.55
564.637	38373.99
564.836	37958.25
565.035	37354.1
565.234	38132.32
565.432	37313.14
565.631	36991.61
565.83	37306.99
566.029	37190.26
566.228	37212.79
566.427	36840.06
566.625	36776.57
566.824	36215.43
567.023	37087.86
567.222	36080.26
567.42	36788.86
567.619	36590.2
567.818	36336.26
568.016	36088.45
568.215	36158.08
568.414	35971.72
568.612	36346.5
568.811	35416.72
569.01	35738.25
569.208	35431.05
569.407	35621.52
569.605	35107.47
569.804	36002.44
570.002	35097.24
570.201	35203.73
570.4	35013.27
570.598	35070.61
570.797	34724.5
570.995	35183.25
571.193	34179.75
571.392	34865.81
571.59	34306.72
571.789	34663.07
571.987	34413.21
572.186	34259.62
572.384	33919.65
572.582	34060.96
572.781	34087.59
572.979	33757.86
573.177	34085.54
573.376	33942.18
573.574	33456.81
573.772	33548.97
573.971	33471.15
574.169	32996.02
574.367	33053.36
574.565	32993.97
574.763	32996.02
574.962	32823.99
575.16	32381.63
575.358	32930.48
575.556	32232.13
575.754	32449.21
575.952	32193.22
576.151	32602.81
576.349	31826.63
576.547	32193.22
576.745	32049.86
576.943	31806.15
577.141	31724.23
577.339	31886.02
577.537	31769.29
577.735	31568.58
577.933	31148.75
578.131	31335.12
578.329	31365.84
578.527	30896.85
578.725	31046.35
578.923	31193.81
579.121	30948.05
579.319	31079.12
579.516	30927.57
579.714	30862.04
579.912	30581.46
580.11	30628.57
580.308	30298.84
580.506	30315.23
580.704	30024.42
580.901	30200.54
581.099	30073.57
581.297	29946.59
581.495	29588.2
581.692	30188.25
581.89	29582.06
582.088	30059.23
582.285	29504.23
582.483	29567.72
582.681	29381.35
582.878	28961.52
583.076	29053.68
583.274	29516.52
583.471	29059.82
583.669	29262.57
583.866	29068.02
584.064	29068.02
584.262	28578.55
584.459	28539.64
584.657	28545.78
584.854	28771.06
585.052	28154.62
585.249	28424.95
585.447	28392.19
585.644	28173.05
585.841	28007.17
586.039	28340.99
586.236	28062.46
586.434	27831.04
586.631	27362.06
586.828	27718.4
587.026	27509.51
587.223	27650.82
587.42	26966.8
587.618	27523.85
587.815	27290.38
588.012	26612.5
588.21	26825.49
588.407	27212.56
588.604	26915.6
588.801	26516.25
588.999	26643.22
589.196	26250.01
589.393	26479.38
589.59	26626.84
589.787	26596.12
589.984	26280.73
590.182	26055.45
590.379	26448.66
590.576	26028.83
590.773	26284.83
590.97	26055.45
591.167	26202.91
591.364	25809.7
591.561	25852.7
591.758	25578.28
591.955	25639.72
592.152	25609
592.349	25264.94
592.546	25357.1
592.743	25586.47
592.94	25035.56
593.137	25275.18
593.334	25232.17
593.531	24613.68
593.727	25281.32
593.924	24947.5
594.121	24390.45
594.318	24748.85
594.515	24265.53
594.712	24668.98
594.908	24552.24
595.105	24896.3
595.302	24398.65
595.499	24396.6
595.696	24150.84
595.892	24001.34
596.089	24443.7
596.286	23976.76
596.482	23921.47
596.679	23591.75
596.876	23601.99
597.072	23819.07
597.269	23647.04
597.466	23159.63
597.662	23245.64
597.859	23466.82
598.055	23509.83
598.252	23046.99
598.448	22973.26
598.645	23309.13
598.841	22940.49
599.038	22643.54
599.234	22981.45
599.431	23194.44
599.627	22668.11
599.824	22702.93
600.02	22557.52
600.217	22612.82
600.413	22365.01
600.609	22578
600.806	22412.12
601.002	22362.97
601.198	22078.3
601.395	22182.74
601.591	21820.25
601.787	22035.29
601.984	21930.84
602.18	22342.49
602.376	21726.05
602.572	21801.82
602.769	22070.11
602.965	21468
603.161	21672.8
603.357	21068.65
603.553	21406.56
603.75	21566.31
603.946	21029.74
604.142	21406.56
604.338	21039.98
604.534	21214.05
604.73	20720.49
604.926	21007.21
605.122	20775.79
605.318	20810.61
605.514	20464.5
605.71	20599.66
605.906	20405.11
606.102	20493.17
606.298	20505.46
606.494	20267.89
606.69	20331.38
606.886	20368.24
607.082	20372.34
607.278	20360.05
607.474	20118.39
607.67	19899.26
607.866	19669.89
608.062	20044.66
608.257	20063.1
608.453	19858.3
608.649	19547.01
608.845	19831.68
609.041	19749.76
609.236	19821.44
609.432	19637.12
609.628	19696.51
609.824	19577.73
610.019	19270.53
610.215	19569.54
610.411	19565.44
610.606	19297.16
610.802	19387.27
610.998	19243.91
611.193	18908.04
611.389	18854.79
611.584	18987.91
611.78	19248
611.976	18860.94
612.171	19202.95
612.367	19028.87
612.562	18844.56
612.758	18455.44
612.953	18703.25
613.149	18770.83
613.344	18672.53
613.539	18885.51
613.735	18688.91
613.93	18668.43
614.126	18453.39
614.321	18643.85
614.517	18242.45
614.712	18664.33
614.907	18209.68
615.103	18273.17
615.298	18340.75
615.493	18334.61
615.688	18056.09
615.884	18553.74
616.079	17875.87
616.274	18045.85
616.47	18117.53
616.665	18095
616.86	17793.95
617.055	17824.67
617.25	17828.76
617.445	17685.4
617.641	17654.69
617.836	17679.26
618.031	17570.72
618.226	17734.56
618.421	17580.96
618.616	17765.28
618.811	17255.33
619.006	17609.63
619.201	17034.15
619.396	17245.09
619.591	17140.65
619.786	17519.52
619.981	16880.55
620.176	17281.95
620.371	16718.76
620.566	16610.22
620.761	16788.39
620.956	17001.38
621.151	16663.47
621.346	16571.31
621.541	16288.69
621.735	16530.35
621.93	16303.03
622.125	16382.9
622.32	16042.93
622.515	16317.36
622.709	15813.56
622.904	16087.99
623.099	15797.18
623.294	15616.96
623.488	15653.82
623.683	15631.29
623.878	15066.05
624.072	15221.7
624.267	15528.89
624.462	15231.94
624.656	15096.77
624.851	15113.16
625.046	15201.22
625.24	14869.45
625.435	15016.9
625.629	14513.1
625.824	14545.87
626.018	14541.77
626.213	14533.58
626.407	14603.21
626.602	14175.19
626.796	14398.41
626.991	14429.13
627.185	14107.6
627.38	14181.33
627.574	13915.09
627.768	13781.98
627.963	13841.37
628.157	13667.29
628.352	13900.76
628.546	13536.22
628.74	13753.3
628.935	13362.14
629.129	13611.99
629.323	13528.03
629.517	13276.13
629.712	13194.21
629.906	13278.18
630.1	13198.31
630.294	13040.61
630.489	12993.51
630.683	12882.92
630.877	12790.76
631.071	12827.62
631.265	12747.75
631.459	12485.61
631.653	12581.87
631.848	12405.74
632.042	12317.68
632.236	12440.56
632.43	12090.35
632.624	12317.68
632.818	12112.88
633.012	12073.97
633.206	11963.38
633.4	12168.18
633.594	11885.56
633.788	11770.87
633.982	11844.6
634.176	11713.53
634.369	11650.04
634.563	11572.22
634.757	11502.59
634.951	11760.63
635.145	11506.68
635.339	11435
635.533	11398.14
635.726	11279.36
635.92	10994.69
636.114	11205.63
636.308	11146.24
636.501	11060.23
636.695	10945.54
636.889	10734.6
637.083	10779.65
637.276	10793.99
637.47	10810.37
637.664	10638.34
637.857	10593.29
638.051	10660.87
638.244	10363.92
638.438	10212.37
638.632	10357.77
638.825	10187.79
639.019	10122.26
639.212	9931.8
639.406	10214.41
639.599	9823.25
639.793	10257.42
639.986	9827.35
640.18	9964.56
640.373	9821.2
640.567	9638.94
640.76	9790.49
640.954	9620.5
641.147	9581.59
641.34	9602.07
641.534	9471
641.727	9597.98
641.92	9356.32
642.114	9233.44
642.307	9395.23
642.5	9192.48
642.694	9067.55
642.887	9294.88
643.08	9090.08
643.273	9028.64
643.467	9145.38
643.66	8905.76
643.853	8971.3
644.046	8758.31
644.239	8762.4
644.432	8864.8
644.626	8608.81
644.819	8569.9
645.012	8457.26
645.205	8723.49
645.398	8703.01
645.591	8549.42
645.784	8563.75
645.977	8416.3
646.17	8498.22
646.363	8229.93
646.556	8131.63
646.749	8281.13
646.942	8244.27
647.135	7947.31
647.328	8033.33
647.521	8049.71
647.714	7916.59
647.907	7951.41
648.099	7877.68
648.292	7978.03
648.485	7932.98
648.678	7799.86
648.871	7730.23
649.064	7726.13
649.256	7711.8
649.449	7564.34
649.642	7574.58
649.835	7648.31
650.027	7414.84
650.22	7472.18
650.413	7210.04
650.605	7525.43
650.798	7332.92
650.991	7337.02
651.183	7134.27
651.376	7085.12
651.568	7269.44
651.761	7214.14
651.954	7068.73
652.146	7013.44
652.339	7246.91
652.531	6962.24
652.724	6972.48
652.916	6849.6
653.109	6911.04
653.301	6837.31
653.494	6929.47
653.686	6648.9
653.879	6825.03
654.071	6716.48
654.263	6790.21
654.456	6591.56
654.648	6671.43
654.84	6511.69
655.033	6540.36
655.225	6526.02
655.417	6335.56
655.61	6388.81
655.802	6462.54
655.994	6186.06
656.186	6366.28
656.379	6360.14
656.571	6181.96
656.763	6267.98
656.955	6198.35
657.148	6175.82
657.34	6147.15
657.532	6067.28
657.724	5983.31
657.916	6028.37
658.108	5962.83
658.3	5987.41
658.492	5936.21
658.684	5885.01
658.876	5864.53
659.068	5897.3
659.26	5712.98
659.452	5692.5
659.644	5649.49
659.836	5819.47
660.028	5864.53
660.22	5561.43
660.412	5618.77
660.604	5547.09
660.796	5475.42
660.988	5575.77
661.18	5631.06
661.372	5399.64
661.563	5485.65
661.755	5385.3
661.947	5520.47
662.139	5264.47
662.331	5532.76
662.522	5340.25
662.714	5436.5
662.906	5209.18
663.097	5289.05
663.289	5184.6
663.481	4975.71
663.673	5239.9
663.864	5123.16
664.056	5184.6
664.247	5141.6
664.439	5141.6
664.631	5059.68
664.822	4979.81
665.014	5010.53
665.205	4965.47
665.397	4924.51
665.588	4897.89
665.78	4869.22
665.971	4842.59
666.163	4895.84
666.354	4715.62
666.546	4848.74
666.737	4850.78
666.929	4750.43
667.12	4607.08
667.311	4664.42
667.503	4488.29
667.694	4756.58
667.885	4721.76
668.077	4500.58
668.268	4541.54
668.459	4535.4
668.651	4607.08
668.842	4590.69
669.033	4473.96
669.224	4473.96
669.416	4553.83
669.607	4514.92
669.798	4310.12
669.989	4533.35
670.18	4402.28
670.371	4412.52
670.563	4385.9
670.754	4357.22
670.945	4260.97
671.136	4357.22
671.327	4252.78
671.518	4379.75
671.709	4287.59
671.9	4240.49
672.091	4158.57
672.282	4224.11
672.473	4217.96
672.664	4078.7
672.855	4224.11
673.046	4199.53
673.237	4291.69
673.428	4127.85
673.619	3937.39
673.809	4076.65
674	4043.88
674.191	3957.87
674.382	4033.65
674.573	4131.95
674.764	4099.18
674.954	4144.24
675.145	4129.9
675.336	3992.69
675.527	3961.97
675.717	4013.17
675.908	3742.83
676.099	3992.69
676.289	3884.14
676.48	3873.9
676.671	3945.58
676.861	3834.99
677.052	3861.62
677.243	3802.22
677.433	3789.94
677.624	3886.19
677.814	3834.99
678.005	3777.65
678.195	3708.02
678.386	3759.22
678.576	3662.96
678.767	3777.65
678.957	3757.17
679.148	3675.25
679.338	3673.2
679.529	3589.24
679.719	3753.07
679.909	3744.88
680.1	3794.03
680.29	3703.92
680.481	3701.87
680.671	3757.17
680.861	3570.8
681.052	3755.12
681.242	3579
681.432	3708.02
681.622	3470.45
681.813	3681.39
682.003	3595.38
682.193	3648.63
682.383	3544.18
682.573	3591.28
682.764	3554.42
682.954	3660.91
683.144	3546.23
683.334	3691.63
683.524	3527.8
683.714	3636.34
683.904	3507.32
684.094	3490.93
684.284	3560.56
684.474	3499.13
684.664	3566.71
684.854	3478.65
685.044	3429.49
685.234	3501.17
685.424	3525.75
685.614	3462.26
685.804	3411.06
685.994	3478.65
686.184	3517.56
686.374	3435.64
686.564	3335.29
686.753	3482.74
686.943	3404.92
687.133	3296.38
687.323	3431.54
687.513	3421.3
687.702	3298.42
687.892	3304.57
688.082	3341.43
688.272	3279.99
688.461	3327.1
688.651	3417.21
688.841	3304.57
689.03	3224.7
689.22	3236.99
689.41	3232.89
689.599	3091.58
689.789	3226.75
689.979	3220.6
690.168	3312.76
690.358	3202.17
690.547	3187.83
690.737	3091.58
690.926	3132.54
691.116	3148.92
691.305	3177.59
691.495	3069.05
691.684	3208.31
691.874	3124.35
692.063	3044.48
692.252	3085.44
692.442	3132.54
692.631	2962.56
692.82	3007.61
693.01	2993.28
693.199	3067
693.388	2823.3
693.578	3040.38
693.767	3044.48
693.956	2921.6
694.146	3001.47
694.335	2935.93
694.524	2968.7
694.713	3071.1
694.902	2954.37
695.092	3028.09
695.281	2888.83
695.47	2796.67
695.659	3048.57
695.848	2925.69
696.037	2888.83
696.226	2917.5
696.415	2940.03
696.604	2978.94
696.793	2888.83
696.982	2862.21
697.171	2935.93
697.36	3056.76
697.549	2905.21
697.738	2851.97
697.927	2890.88
698.116	2839.68
698.305	2864.25
698.494	2907.26
698.683	2851.97
698.872	2929.79
699.061	2911.36
699.25	2765.95
699.438	2864.25
699.627	2749.57
699.816	2921.6
700.005	2913.41
700.193	2937.98
700.382	2884.73
700.571	2847.87
700.76	2890.88
700.948	2886.78
701.137	2802.82
701.326	2899.07
701.514	2858.11
701.703	2833.54
701.892	2899.07
702.08	2944.13
702.269	2864.25
702.457	2966.65
702.646	2897.02
702.834	2952.32
703.023	2706.56
703.212	2778.24
703.4	2870.4
703.589	2905.21
703.777	2964.61
703.965	2808.96
704.154	2757.76
704.342	2808.96
704.531	2866.3
704.719	2958.46
704.907	2911.36
705.096	2821.25
705.284	2800.77
705.472	2776.19
705.661	2811.01
705.849	2933.89
706.037	2806.91
706.226	2886.78
706.414	2901.12
706.602	2790.53
706.79	2833.54
706.979	2813.06
707.167	2686.08
707.355	2708.61
707.543	2860.16
707.731	2796.67
707.919	2724.99
708.107	2894.97
708.296	2780.29
708.484	2841.73
708.672	2856.06
708.86	2815.1
709.048	2786.43
709.236	2786.43
709.424	2905.21
709.612	2747.52
709.8	2737.28
709.988	2708.61
710.176	2817.15
710.364	2747.52
710.551	2714.75
710.739	2788.48
710.927	2782.34
711.115	2845.82
711.303	2954.37
711.491	2796.67
711.679	2770.05
711.866	2700.42
712.054	2942.08
712.242	2655.36
712.43	2784.38
712.617	2733.18
712.805	2813.06
712.993	2747.52
713.181	2675.84
713.368	2700.42
713.556	2761.86
713.744	2598.02
713.931	2813.06
714.119	2794.62
714.306	2706.56
714.494	2839.68
714.682	2778.24
714.869	2729.09
715.057	2798.72
715.244	2720.9
715.432	2784.38
715.619	2731.14
715.807	2665.6
715.994	2753.66
716.182	2626.69
716.369	2772.1
716.556	2782.34
716.744	2761.86
716.931	2653.31
717.119	2733.18
717.306	2727.04
717.493	2704.51
717.681	2788.48
717.868	2595.97
718.055	2759.81
718.242	2663.55
718.43	2657.41
718.617	2759.81
718.804	2675.84
718.991	2796.67
719.179	2747.52
719.366	2757.76
719.553	2698.37
719.74	2645.12
719.927	2768
720.114	2593.92
720.301	2610.31
720.488	2669.7
720.676	2712.71
720.863	2727.04
721.05	2667.65
721.237	2526.34
721.424	2759.81
721.611	2688.13
721.798	2673.79
721.985	2641.03
722.172	2651.27
722.358	2661.51
722.545	2585.73
722.732	2731.14
722.919	2720.9
723.106	2622.59
723.293	2653.31
723.48	2657.41
723.667	2669.7
723.853	2571.4
724.04	2661.51
724.227	2610.31
724.414	2622.59
724.6	2559.11
724.787	2454.66
724.974	2688.13
725.161	2602.11
725.347	2585.73
725.534	2444.42
725.72	2643.07
725.907	2641.03
726.094	2530.44
726.28	2641.03
726.467	2555.01
726.653	2589.83
726.84	2555.01
727.027	2552.96
727.213	2538.63
727.4	2548.87
727.586	2520.2
727.773	2575.49
727.959	2505.86
728.145	2673.79
728.332	2675.84
728.518	2618.5
728.705	2471.04
728.891	2438.28
729.077	2561.16
729.264	2516.1
729.45	2438.28
729.636	2598.02
729.823	2444.42
730.009	2557.06
730.195	2520.2
730.382	2546.82
730.568	2466.95
730.754	2561.16
730.94	2516.1
731.126	2509.96
731.313	2520.2
731.499	2569.35
731.685	2471.04
731.871	2530.44
732.057	2532.48
732.243	2557.06
732.429	2571.4
732.615	2600.07
732.801	2540.68
732.987	2524.29
733.173	2522.24
733.359	2389.13
733.545	2471.04
733.731	2530.44
733.917	2524.29
734.103	2552.96
734.289	2446.47
734.475	2456.71
734.661	2471.04
734.847	2413.7
735.033	2481.28
735.219	2483.33
735.404	2421.89
735.59	2407.56
735.776	2315.4
735.962	2507.91
736.148	2438.28
736.333	2532.48
736.519	2477.19
736.705	2415.75
736.89	2391.17
737.076	2473.09
737.262	2305.16
737.447	2438.28
737.633	2411.65
737.819	2448.52
738.004	2493.57
738.19	2423.94
738.375	2327.69
738.561	2417.8
738.747	2323.59
738.932	2286.73
739.118	2512
739.303	2333.83
739.489	2350.21
739.674	2503.81
739.859	2469
740.045	2260.1
740.23	2344.07
740.416	2356.36
740.601	2417.8
740.786	2387.08
740.972	2229.38
741.157	2280.58
741.342	2296.97
741.528	2290.82
741.713	2229.38
741.898	2270.34
742.084	2315.4
742.269	2301.06
742.454	2223.24
742.639	2247.82
742.824	2256.01
743.01	2202.76
743.195	2176.14
743.38	2188.43
743.565	2155.66
743.75	2229.38
743.935	2063.5
744.12	2258.06
744.305	2108.55
744.49	2165.9
744.675	2110.6
744.86	2002.06
745.045	2131.08
745.23	2020.49
745.415	2073.74
745.6	2002.06
745.785	2053.26
745.97	2112.65
746.155	2104.46
746.34	2120.84
746.525	2032.78
746.71	2047.12
746.895	1995.92
747.079	1914
747.264	1922.19
747.449	1979.53
747.634	1985.68
747.819	1830.03
748.003	1858.7
748.188	1848.46
748.373	1846.41
748.557	1856.65
748.742	1938.57
748.927	1866.89
749.111	1885.33
749.296	1891.47
749.481	1909.9
749.665	1836.17
749.85	1762.45
750.034	1848.46
750.219	1768.59
750.404	1791.12
750.588	1688.72
750.773	1809.55
750.957	1713.3
751.141	1823.89
751.326	1784.98
751.51	1684.62
751.695	1688.72
751.879	1723.54
752.064	1672.34
752.248	1528.98
752.432	1739.92
752.617	1598.61
752.801	1645.71
752.985	1614.99
753.17	1580.18
753.354	1580.18
753.538	1664.15
753.722	1420.44
753.907	1524.88
754.091	1512.6
754.275	1469.59
754.459	1442.96
754.643	1557.65
754.828	1445.01
755.012	1475.73
755.196	1541.27
755.38	1518.74
755.564	1445.01
755.748	1418.39
755.932	1420.44
756.116	1453.2
756.3	1389.72
756.484	1365.14
756.668	1328.28
756.852	1379.48
757.036	1336.47
757.22	1320.09
757.404	1303.7
757.588	1379.48
757.772	1404.05
757.956	1352.85
758.14	1371.29
758.323	1330.33
758.507	1315.99
758.691	1385.62
758.875	1406.1
759.059	1352.85
759.242	1178.78
759.426	1223.83
759.61	1240.22
759.794	1229.98
759.977	1232.02
760.161	1238.17
760.345	1293.46
760.528	1225.88
760.712	1260.7
760.895	1139.87
761.079	1285.27
761.263	1168.54
761.446	1189.02
761.63	1133.72
761.813	1238.17
761.997	1055.9
762.18	1197.21
762.364	1180.82
762.547	1107.1
762.731	1119.39
762.914	1072.28
763.098	1158.3
763.281	1094.81
763.464	1158.3
763.648	1160.34
763.831	1168.54
764.015	1119.39
764.198	1086.62
764.381	1141.91
764.564	1021.08
764.748	1027.23
764.931	1150.11
765.114	1074.33
765.297	1113.24
765.481	1047.71
765.664	1049.75
765.847	1016.99
766.03	1082.52
766.213	1103
766.397	1025.18
766.58	1043.61
766.763	1045.66
766.946	1043.61
767.129	1086.62
767.312	998.56
767.495	933.02
767.678	943.26
767.861	949.4
768.044	1096.86
768.227	984.22
768.41	1025.18
768.593	955.55
768.776	941.21
768.959	976.03
769.142	1072.28
769.324	976.03
769.507	1016.99
769.69	976.03
769.873	939.16
770.056	951.45
770.239	986.27
770.421	1019.04
770.604	877.73
770.787	924.83
770.97	906.4
771.152	949.4
771.335	920.73
771.518	863.39
771.7	916.64
771.883	986.27
772.066	904.35
772.248	804
772.431	873.63
772.613	902.3
772.796	928.92
772.978	904.35
773.161	853.15
773.343	834.72
773.526	844.96
773.708	810.14
773.891	799.9
774.073	814.24
774.256	836.77
774.438	801.95
774.621	873.63
774.803	822.43
774.985	801.95
775.168	785.57
775.35	797.85
775.532	849.05
775.715	832.67
775.897	767.13
776.079	760.99
776.261	791.71
776.444	746.66
776.626	748.7
776.808	797.85
776.99	781.47
777.173	810.14
777.355	730.27
777.537	722.08
777.719	631.97
777.901	724.13
778.083	783.52
778.265	697.5
778.447	697.5
778.629	685.22
778.811	703.65
778.993	668.83
779.175	709.79
779.357	623.78
779.539	742.56
779.721	595.11
779.903	660.64
780.085	593.06
780.267	656.54
780.449	670.88
780.631	685.22
780.812	629.92
780.994	670.88
781.176	648.35
781.358	617.63
781.54	576.67
781.721	634.02
781.903	670.88
782.085	580.77
782.267	560.29
782.448	509.09
782.63	521.38
782.812	625.83
782.993	603.3
783.175	562.34
783.357	625.83
783.538	574.63
783.72	523.43
783.901	566.43
784.083	595.11
784.264	502.95
784.446	525.47
784.627	515.23
784.809	550.05
784.99	468.13
785.172	488.61
785.353	494.76
785.535	519.33
785.716	504.99
785.897	574.63
786.079	431.27
786.26	412.84
786.441	580.77
786.623	398.5
786.804	427.17
786.985	433.32
787.167	416.93
787.348	439.46
787.529	394.4
787.71	445.6
787.891	515.23
788.073	476.32
788.254	369.83
788.435	355.49
788.616	554.15
788.797	398.5
788.978	464.04
789.159	398.5
789.34	431.27
789.522	445.6
789.703	437.41
789.884	357.54
790.065	494.76
790.246	433.32
790.427	347.3
790.607	410.79
790.788	441.51
790.969	347.3
791.15	306.34
791.331	386.21
791.512	396.45
791.693	404.64
791.874	388.26
792.054	400.55
792.235	386.21
792.416	287.91
792.597	335.01
792.778	384.16
792.958	337.06
793.139	347.3
793.32	406.69
793.5	375.97
793.681	386.21
793.862	296.1
794.042	386.21
794.223	312.49
794.404	421.03
794.584	314.53
794.765	285.86
794.945	316.58
795.126	375.97
795.306	310.44
795.487	400.55
795.667	341.16
795.848	320.68
796.028	289.96
796.209	300.2
796.389	287.91
796.57	232.62
796.75	251.05
796.93	318.63
797.111	287.91
797.291	253.09
797.471	240.81
797.652	269.48
797.832	271.53
798.012	287.91
798.192	318.63
798.373	271.53
798.553	337.06
798.733	263.33
798.913	216.23
799.093	257.19
799.274	298.15
799.454	257.19
799.634	292.01
799.814	292.01
799.994	257.19
800.174	230.57
800.354	216.23
800.534	232.62
800.714	236.71
800.894	316.58
801.074	332.97
801.254	349.35
801.434	312.49
801.614	218.28
801.794	167.08
801.974	623.78
802.154	232.62
802.334	306.34
802.514	330.92
802.693	152.74
802.873	195.75
803.053	234.66
803.233	261.29
803.413	285.86
803.592	165.03
803.772	275.62
803.952	220.33
804.131	201.9
804.311	230.57
804.491	216.23
804.67	279.72
804.85	195.75
805.03	273.57
805.209	205.99
805.389	183.46
805.568	201.9
805.748	201.9
805.928	216.23
806.107	238.76
806.287	183.46
806.466	273.57
806.646	269.48
806.825	195.75
807.004	234.66
807.184	173.22
807.363	244.9
807.543	255.14
807.722	193.7
807.901	191.66
808.081	253.09
808.26	113.83
808.439	251.05
808.619	246.95
808.798	142.5
808.977	224.42
809.156	222.38
809.336	179.37
809.515	257.19
809.694	193.7
809.873	208.04
810.052	191.66
810.231	220.33
810.411	257.19
810.59	208.04
810.769	195.75
810.948	218.28
811.127	167.08
811.306	205.99
811.485	201.9
811.664	158.89
811.843	189.61
812.022	253.09
812.201	185.51
812.38	232.62
812.559	261.29
812.737	138.41
812.916	150.7
813.095	179.37
813.274	222.38
813.453	134.31
813.632	119.98
813.811	267.43
813.989	150.7
814.168	216.23
814.347	117.93
814.526	160.94
814.704	195.75
814.883	234.66
815.062	101.55
815.24	162.98
815.419	109.74
815.598	87.21
815.776	148.65
815.955	175.27
816.133	101.55
816.312	115.88
816.49	132.26
816.669	122.02
816.847	117.93
817.026	158.89
817.204	205.99
817.383	158.89
817.561	95.4
817.74	177.32
817.918	158.89
818.097	169.13
818.275	103.59
818.453	134.31
818.632	261.29
818.81	97.45
818.988	48.3
819.167	83.11
819.345	156.84
819.523	132.26
819.701	101.55
819.879	144.55
820.058	113.83
820.236	136.36
820.414	140.46
820.592	109.74
820.77	148.65
820.948	169.13
821.127	105.64
821.305	119.98
821.483	97.45
821.661	181.42
821.839	167.08
822.017	109.74
822.195	144.55
822.373	140.46
822.551	165.03
822.729	148.65
822.907	134.31
823.085	146.6
823.262	109.74
823.44	115.88
823.618	83.11
823.796	158.89
823.974	81.07
824.152	74.92
824.329	101.55
824.507	136.36
824.685	52.39
824.863	113.83
825.04	111.78
825.218	144.55
825.396	81.07
825.574	148.65
825.751	83.11
825.929	113.83
826.107	119.98
826.284	134.31
826.462	165.03
826.639	85.16
826.817	146.6
826.994	83.11
827.172	193.7
827.349	187.56
827.527	93.35
827.704	128.17
827.882	134.31
828.059	128.17
828.237	105.64
828.414	79.02
828.591	89.26
828.769	83.11
828.946	29.87
829.124	83.11
829.301	128.17
829.478	50.35
829.655	44.2
829.833	97.45
830.01	33.96
830.187	144.55
830.364	70.83
830.542	70.83
830.719	99.5
830.896	109.74
831.073	95.4
831.25	56.49
831.427	101.55
831.604	101.55
831.782	21.67
831.959	60.59
832.136	83.11
832.313	89.26
832.49	58.54
832.667	105.64
832.844	1.19
833.021	128.17
833.198	136.36
833.374	50.35
833.551	76.97
833.728	64.68
833.905	76.97
834.082	103.59
834.259	83.11
834.436	46.25
834.612	46.25
834.789	148.65
834.966	60.59
835.143	150.7
835.319	9.39
835.496	126.12
835.673	87.21
835.85	156.84
836.026	52.39
836.203	72.87
836.38	33.96
836.556	70.83
836.733	119.98
836.909	79.02
837.086	79.02
837.262	56.49
837.439	79.02
837.616	87.21
837.792	9.39
837.968	97.45
838.145	68.78
838.321	23.72
838.498	-23.38
838.674	33.96
838.851	60.59
839.027	50.35
839.203	27.82
839.38	109.74
839.556	17.58
839.732	64.68
839.909	60.59
840.085	97.45
840.261	21.67
840.437	103.59
840.614	167.08
840.79	103.59
840.966	62.63
841.142	58.54
841.318	60.59
841.494	60.59
841.671	81.07
841.847	-31.57
842.023	74.92
842.199	95.4
842.375	66.73
842.551	25.77
842.727	68.78
842.903	111.78
843.079	74.92
843.255	99.5
843.431	126.12
843.607	122.02
843.783	50.35
843.959	79.02
844.134	-4.95
844.31	52.39
844.486	29.87
844.662	33.96
844.838	97.45
845.013	15.53
845.189	60.59
845.365	50.35
845.541	36.01
845.716	68.78
845.892	68.78
846.068	58.54
846.244	7.34
846.419	109.74
846.595	66.73
846.77	70.83
846.946	74.92
847.122	70.83
847.297	52.39
847.473	162.98
847.648	48.3
847.824	54.44
847.999	19.63
848.175	23.72
848.35	83.11
848.526	99.5
848.701	130.22
848.876	25.77
849.052	-13.14
849.227	76.97
849.403	17.58
849.578	60.59
849.753	5.29
849.929	144.55
850.104	40.11
850.279	87.21
850.454	56.49
850.63	105.64
850.805	56.49
850.98	13.48
851.155	70.83
851.33	17.58
851.505	81.07
851.681	107.69
851.856	68.78
852.031	122.02
852.206	-15.19
852.381	136.36
852.556	50.35
852.731	17.58
852.906	-27.48
853.081	42.15
853.256	87.21
853.431	93.35
853.606	-0.85
853.781	-50
853.956	25.77
854.131	21.67
854.305	46.25
854.48	74.92
854.655	31.91
854.83	17.58
855.005	46.25
855.18	-39.76
855.354	62.63
855.529	93.35
855.704	-19.29
855.879	52.39
856.053	-78.68
856.228	146.6
856.403	58.54
856.577	62.63
856.752	-19.29
856.926	87.21
857.101	-7
857.276	5.29
857.45	40.11
857.625	58.54
857.799	-23.38
857.974	36.01
858.148	58.54
858.323	48.3
858.497	-60.24
858.672	68.78
858.846	38.06
859.02	3.24
859.195	66.73
859.369	21.67
859.543	9.39
859.718	3.24
859.892	83.11
860.066	62.63
860.241	5.29
860.415	7.34
860.589	7.34
860.763	44.2
860.938	5.29
861.112	-0.85
861.286	13.48
861.46	70.83
861.634	-35.67
861.808	54.44
861.982	-23.38
862.157	-9.05
862.331	-0.85
862.505	-56.15
862.679	11.43
862.853	76.97
863.027	25.77
863.201	62.63
863.375	-33.62
863.549	70.83
863.722	-13.14
863.896	85.16
864.07	5.29
864.244	-64.34
864.418	52.39
864.592	17.58
864.766	38.06
864.939	21.67
865.113	23.72
865.287	27.82
865.461	5.29
865.634	11.43
865.808	1.19
865.982	54.44
866.156	23.72
866.329	25.77
866.503	21.67
866.676	56.49
866.85	54.44
867.024	13.48
867.197	5.29
867.371	27.82
867.544	11.43
867.718	70.83
867.891	89.26
868.065	13.48
868.238	21.67
868.412	46.25
868.585	44.2
868.759	48.3
868.932	56.49
869.105	5.29
869.279	70.83
869.452	56.49
869.625	15.53
869.799	-37.72
869.972	33.96
870.145	-62.29
870.319	-19.29
870.492	17.58
870.665	-0.85
870.838	-33.62
871.011	-4.95
871.185	-39.76
871.358	42.15
871.531	52.39
871.704	5.29
871.877	33.96
872.05	52.39
872.223	-47.96
872.396	83.11
872.569	1.19
872.742	-82.77
872.915	19.63
873.088	15.53
873.261	-11.09
873.434	-37.72
873.607	44.2
873.78	-47.96
873.953	23.72
874.126	-13.14
874.299	60.59
874.471	-11.09
874.644	54.44
874.817	-0.85
874.99	31.91
875.163	54.44
875.335	74.92
875.508	50.35
875.681	72.87
875.853	27.82
876.026	38.06
876.199	60.59
876.371	29.87
876.544	52.39
876.717	-15.19
876.889	-19.29
877.062	42.15
877.234	-13.14
877.407	-13.14
877.579	-7
877.752	-60.24
877.924	21.67
878.097	76.97
878.269	-41.81
878.442	56.49
878.614	19.63
878.786	60.59
878.959	40.11
879.131	-9.05
879.303	36.01
879.476	13.48
879.648	115.88
879.82	23.72
879.993	23.72
880.165	25.77
880.337	-82.77
880.509	40.11
880.681	-43.86
880.854	17.58
881.026	66.73
881.198	70.83
881.37	-13.14
881.542	7.34
881.714	64.68
881.886	-56.15
882.058	-11.09
882.23	29.87
882.402	-17.24
882.574	1.19
882.746	9.39
882.918	113.83
883.09	13.48
883.262	15.53
883.434	15.53
883.606	-27.48
883.778	50.35
883.95	70.83
884.122	-29.52
884.293	23.72
884.465	-2.9
884.637	70.83
884.809	19.63
884.98	7.34
885.152	1.19
885.324	54.44
885.496	13.48
885.667	-11.09
885.839	11.43
886.011	64.68
886.182	25.77
886.354	7.34
886.525	-15.19
886.697	-43.86
886.869	-39.76
887.04	-23.38
887.212	5.29
887.383	132.26
887.555	-27.48
887.726	31.91
887.897	-56.15
888.069	15.53
888.24	5.29
888.412	29.87
888.583	-33.62
888.754	46.25
888.926	-62.29
889.097	17.58
889.268	-7
889.44	-2.9
889.611	-0.85
889.782	40.11
889.953	-17.24
890.125	48.3
890.296	38.06
890.467	-13.14
890.638	25.77
890.809	11.43
890.98	11.43
891.151	58.54
891.323	44.2
891.494	52.39
891.665	-29.52
891.836	-9.05
892.007	-21.33
892.178	62.63
892.349	-25.43
892.52	-17.24
892.691	-35.67
892.862	-17.24
893.032	-64.34
893.203	-0.85
893.374	-2.9
893.545	54.44
893.716	-2.9
893.887	46.25
894.057	-64.34
894.228	40.11
894.399	-4.95
894.57	-2.9
894.74	15.53
894.911	46.25
895.082	-13.14
895.253	-17.24
895.423	15.53
895.594	23.72
895.764	-50
895.935	-39.76
896.106	-27.48
896.276	33.96
896.447	-41.81
896.617	21.67
896.788	-15.19
896.958	-15.19
897.129	-37.72
897.299	-82.77
897.47	5.29
897.64	-52.05
897.81	-50
897.981	19.63
898.151	9.39
898.322	15.53
898.492	7.34
898.662	-93.01
898.832	23.72
899.003	21.67
899.173	56.49
899.343	31.91
899.513	-31.57
