Data from USB4F104151__220__11-10-46-914.txt Node

Date: Wed Mar 12 11:10:46 EDT 2025
User: louis
Spectrometer: USB4F10415
Trigger mode: 4
Integration Time (sec): 2.000000E-2
Scans to average: 1
Electric dark correction enabled: true
Nonlinearity correction enabled: false
Boxcar width: 0
XAxis mode: Wavelengths
Number of Pixels in Spectrum: 3648
>>>>>Begin Spectral Data<<<<<
178.204	-71.68
178.424	-71.68
178.644	-71.68
178.864	-75.77
179.084	-75.77
179.304	-47.1
179.524	-24.58
179.744	-26.62
179.964	-6.14
180.184	45.06
180.404	-24.58
180.624	45.06
180.844	30.72
181.064	-34.82
181.283	67.58
181.503	0
181.723	-24.58
181.943	-28.67
182.163	100.35
182.383	-63.49
182.602	36.86
182.822	6.14
183.042	-8.19
183.262	22.53
183.482	49.15
183.701	47.1
183.921	47.1
184.141	43.01
184.361	-16.38
184.58	20.48
184.8	24.58
185.02	0
185.239	-10.24
185.459	67.58
185.679	83.97
185.898	4.1
186.118	59.39
186.338	6.14
186.557	65.54
186.777	-30.72
186.997	20.48
187.216	49.15
187.436	104.45
187.655	38.91
187.875	77.82
188.095	28.67
188.314	16.38
188.534	45.06
188.753	77.82
188.973	12.29
189.192	90.11
189.412	20.48
189.631	71.68
189.851	51.2
190.07	69.63
190.29	-6.14
190.509	-61.44
190.729	26.62
190.948	73.73
191.168	122.88
191.387	55.3
191.607	-4.1
191.826	67.58
192.045	40.96
192.265	-4.1
192.484	4.1
192.704	-12.29
192.923	104.45
193.142	114.69
193.362	59.39
193.581	51.2
193.8	-22.53
194.02	131.07
194.239	-8.19
194.458	90.11
194.678	18.43
194.897	69.63
195.116	69.63
195.335	55.3
195.555	32.77
195.774	6.14
195.993	53.25
196.212	-18.43
196.432	6.14
196.651	47.1
196.87	53.25
197.089	32.77
197.308	59.39
197.528	36.86
197.747	86.01
197.966	36.86
198.185	16.38
198.404	26.62
198.623	57.34
198.842	34.82
199.062	14.34
199.281	32.77
199.5	57.34
199.719	-14.34
199.938	55.3
200.157	53.25
200.376	-45.06
200.595	65.54
200.814	61.44
201.033	47.1
201.252	10.24
201.471	57.34
201.69	32.77
201.909	59.39
202.128	36.86
202.347	6.14
202.566	57.34
202.785	45.06
203.004	26.62
203.223	86.01
203.442	-24.58
203.661	14.34
203.879	-10.24
204.098	69.63
204.317	40.96
204.536	77.82
204.755	28.67
204.974	40.96
205.193	20.48
205.411	94.21
205.63	102.4
205.849	-26.62
206.068	110.59
206.287	94.21
206.505	-2.05
206.724	38.91
206.943	28.67
207.162	22.53
207.381	-24.58
207.599	-20.48
207.818	55.3
208.037	45.06
208.255	2.05
208.474	36.86
208.693	53.25
208.911	-14.34
209.13	-34.82
209.349	-6.14
209.567	57.34
209.786	81.92
210.005	38.91
210.223	-36.86
210.442	-22.53
210.661	-10.24
210.879	34.82
211.098	-24.58
211.316	28.67
211.535	-10.24
211.753	79.87
211.972	129.02
212.191	22.53
212.409	28.67
212.628	-4.1
212.846	69.63
213.065	83.97
213.283	63.49
213.502	45.06
213.72	16.38
213.938	53.25
214.157	90.11
214.375	38.91
214.594	-47.1
214.812	8.19
215.031	2.05
215.249	49.15
215.467	83.97
215.686	77.82
215.904	4.1
216.122	96.25
216.341	90.11
216.559	-4.1
216.778	43.01
216.996	30.72
217.214	90.11
217.432	22.53
217.651	49.15
217.869	69.63
218.087	96.25
218.306	26.62
218.524	77.82
218.742	34.82
218.96	90.11
219.179	-16.38
219.397	77.82
219.615	30.72
219.833	79.87
220.051	38.91
220.27	43.01
220.488	90.11
220.706	-6.14
220.924	88.06
221.142	12.29
221.36	38.91
221.578	-57.34
221.796	40.96
222.015	-14.34
222.233	14.34
222.451	69.63
222.669	32.77
222.887	51.2
223.105	-65.53
223.323	36.86
223.541	26.62
223.759	32.77
223.977	-8.19
224.195	86.01
224.413	67.58
224.631	96.25
224.849	4.1
225.067	96.25
225.285	16.38
225.503	59.39
225.721	-22.53
225.939	0
226.157	18.43
226.375	98.3
226.592	59.39
226.81	38.91
227.028	57.34
227.246	59.39
227.464	-16.38
227.682	47.1
227.9	40.96
228.117	32.77
228.335	-10.24
228.553	36.86
228.771	59.39
228.989	65.54
229.206	16.38
229.424	-14.34
229.642	-47.1
229.86	57.34
230.077	47.1
230.295	71.68
230.513	61.44
230.731	69.63
230.948	28.67
231.166	34.82
231.384	53.25
231.601	67.58
231.819	73.73
232.037	6.14
232.254	-57.34
232.472	28.67
232.689	69.63
232.907	77.82
233.125	14.34
233.342	14.34
233.56	-28.67
233.777	53.25
233.995	12.29
234.213	81.92
234.43	40.96
234.648	36.86
234.865	55.3
235.083	102.4
235.3	155.65
235.518	22.53
235.735	63.49
235.953	81.92
236.17	28.67
236.388	8.19
236.605	47.1
236.822	83.97
237.04	0
237.257	47.1
237.475	-20.48
237.692	22.53
237.909	57.34
238.127	86.01
238.344	96.25
238.562	145.41
238.779	-49.15
238.996	59.39
239.214	-28.67
239.431	79.87
239.648	-71.68
239.865	-20.48
240.083	-38.91
240.3	38.91
240.517	45.06
240.735	8.19
240.952	49.15
241.169	77.82
241.386	73.73
241.603	24.58
241.821	98.3
242.038	8.19
242.255	90.11
242.472	-24.58
242.689	43.01
242.907	53.25
243.124	45.06
243.341	47.1
243.558	-20.48
243.775	28.67
243.992	16.38
244.209	14.34
244.426	73.73
244.643	81.92
244.86	-36.86
245.078	100.35
245.295	4.1
245.512	40.96
245.729	20.48
245.946	22.53
246.163	6.14
246.38	59.39
246.597	18.43
246.814	18.43
247.031	51.2
247.248	77.82
247.464	73.73
247.681	112.64
247.898	28.67
248.115	22.53
248.332	0
248.549	139.26
248.766	-2.05
248.983	38.91
249.2	83.97
249.417	69.63
249.633	-32.77
249.85	28.67
250.067	28.67
250.284	18.43
250.501	86.01
250.717	96.25
250.934	4.1
251.151	47.1
251.368	83.97
251.585	43.01
251.801	16.38
252.018	129.02
252.235	65.54
252.451	6.14
252.668	63.49
252.885	-45.06
253.102	32.77
253.318	53.25
253.535	4.1
253.752	32.77
253.968	67.58
254.185	16.38
254.401	-20.48
254.618	98.3
254.835	-6.14
255.051	24.58
255.268	26.62
255.484	61.44
255.701	81.92
255.917	86.01
256.134	65.54
256.351	12.29
256.567	55.3
256.784	30.72
257	49.15
257.217	61.44
257.433	122.88
257.65	65.54
257.866	-4.1
258.082	32.77
258.299	55.3
258.515	77.82
258.732	8.19
258.948	71.68
259.165	61.44
259.381	47.1
259.597	83.97
259.814	30.72
260.03	92.16
260.246	63.49
260.463	110.59
260.679	94.21
260.895	100.35
261.112	71.68
261.328	59.39
261.544	-2.05
261.761	28.67
261.977	6.14
262.193	49.15
262.409	-4.1
262.626	40.96
262.842	-2.05
263.058	32.77
263.274	65.54
263.49	6.14
263.707	43.01
263.923	43.01
264.139	83.97
264.355	92.16
264.571	61.44
264.787	24.58
265.004	75.77
265.22	4.1
265.436	133.12
265.652	-40.96
265.868	81.92
266.084	8.19
266.3	38.91
266.516	6.14
266.732	4.1
266.948	43.01
267.164	4.1
267.38	61.44
267.596	118.78
267.812	75.77
268.028	14.34
268.244	2.05
268.46	-2.05
268.676	-67.58
268.892	28.67
269.108	131.07
269.324	43.01
269.54	4.1
269.756	81.92
269.972	-43.01
270.188	24.58
270.403	14.34
270.619	16.38
270.835	-43.01
271.051	6.14
271.267	32.77
271.483	10.24
271.698	75.77
271.914	47.1
272.13	36.86
272.346	104.45
272.562	-8.19
272.777	40.96
272.993	45.06
273.209	98.3
273.425	12.29
273.64	34.82
273.856	102.4
274.072	-6.14
274.287	49.15
274.503	120.83
274.719	32.77
274.934	65.54
275.15	-30.72
275.366	-40.96
275.581	55.3
275.797	20.48
276.012	12.29
276.228	-4.1
276.444	102.4
276.659	161.79
276.875	-10.24
277.09	43.01
277.306	18.43
277.521	36.86
277.737	34.82
277.952	71.68
278.168	16.38
278.383	-6.14
278.599	-28.67
278.814	32.77
279.03	-16.38
279.245	67.58
279.461	32.77
279.676	90.11
279.892	0
280.107	18.43
280.322	-6.14
280.538	49.15
280.753	14.34
280.969	-2.05
281.184	32.77
281.399	96.25
281.615	30.72
281.83	22.53
282.045	49.15
282.26	20.48
282.476	12.29
282.691	45.06
282.906	59.39
283.122	83.97
283.337	45.06
283.552	20.48
283.767	69.63
283.983	-6.14
284.198	43.01
284.413	32.77
284.628	16.38
284.843	28.67
285.058	51.2
285.274	129.02
285.489	26.62
285.704	6.14
285.919	8.19
286.134	36.86
286.349	2.05
286.564	16.38
286.779	22.53
286.995	10.24
287.21	32.77
287.425	98.3
287.64	32.77
287.855	71.68
288.07	18.43
288.285	69.63
288.5	88.06
288.715	32.77
288.93	6.14
289.145	69.63
289.36	57.34
289.575	26.62
289.79	12.29
290.004	73.73
290.219	65.54
290.434	20.48
290.649	38.91
290.864	18.43
291.079	47.1
291.294	67.58
291.509	14.34
291.724	53.25
291.938	30.72
292.153	83.97
292.368	-12.29
292.583	8.19
292.798	18.43
293.012	24.58
293.227	-20.48
293.442	30.72
293.657	53.25
293.871	79.87
294.086	59.39
294.301	4.1
294.516	30.72
294.73	49.15
294.945	14.34
295.16	32.77
295.374	135.17
295.589	-10.24
295.804	38.91
296.018	90.11
296.233	34.82
296.447	71.68
296.662	47.1
296.877	12.29
297.091	24.58
297.306	16.38
297.52	0
297.735	32.77
297.949	28.67
298.164	24.58
298.378	-65.53
298.593	-14.34
298.807	18.43
299.022	4.1
299.236	-8.19
299.451	71.68
299.665	24.58
299.88	98.3
300.094	53.25
300.309	18.43
300.523	-22.53
300.737	65.54
300.952	90.11
301.166	45.06
301.381	-22.53
301.595	32.77
301.809	-18.43
302.024	112.64
302.238	-49.15
302.452	47.1
302.667	102.4
302.881	47.1
303.095	67.58
303.309	12.29
303.524	71.68
303.738	67.58
303.952	12.29
304.166	28.67
304.381	57.34
304.595	47.1
304.809	45.06
305.023	98.3
305.237	49.15
305.452	-18.43
305.666	63.49
305.88	26.62
306.094	8.19
306.308	43.01
306.522	-6.14
306.736	69.63
306.95	88.06
307.164	12.29
307.379	18.43
307.593	73.73
307.807	79.87
308.021	24.58
308.235	-4.1
308.449	34.82
308.663	6.14
308.877	100.35
309.091	30.72
309.305	143.36
309.519	36.86
309.733	163.84
309.947	-63.49
310.161	49.15
310.374	69.63
310.588	75.77
310.802	81.92
311.016	32.77
311.23	40.96
311.444	45.06
311.658	45.06
311.872	69.63
312.085	135.17
312.299	49.15
312.513	20.48
312.727	26.62
312.941	63.49
313.154	32.77
313.368	90.11
313.582	86.01
313.796	-12.29
314.009	20.48
314.223	108.54
314.437	81.92
314.651	49.15
314.864	98.3
315.078	26.62
315.292	61.44
315.505	10.24
315.719	14.34
315.933	38.91
316.146	0
316.36	0
316.573	83.97
316.787	-45.06
317.001	6.14
317.214	-6.14
317.428	36.86
317.641	34.82
317.855	55.3
318.068	28.67
318.282	71.68
318.495	202.75
318.709	118.78
318.922	36.86
319.136	20.48
319.349	71.68
319.563	-14.34
319.776	36.86
319.99	-22.53
320.203	73.73
320.417	59.39
320.63	34.82
320.843	38.91
321.057	81.92
321.27	83.97
321.483	28.67
321.697	67.58
321.91	86.01
322.124	26.62
322.337	30.72
322.55	69.63
322.763	36.86
322.977	71.68
323.19	-16.38
323.403	8.19
323.617	36.86
323.83	51.2
324.043	40.96
324.256	96.25
324.469	34.82
324.683	53.25
324.896	45.06
325.109	28.67
325.322	32.77
325.535	81.92
325.748	51.2
325.962	34.82
326.175	51.2
326.388	81.92
326.601	67.58
326.814	32.77
327.027	20.48
327.24	104.45
327.453	65.54
327.666	-81.92
327.879	18.43
328.092	73.73
328.305	20.48
328.518	14.34
328.731	34.82
328.944	65.54
329.157	20.48
329.37	-14.34
329.583	88.06
329.796	40.96
330.009	-30.72
330.222	-6.14
330.435	65.54
330.648	81.92
330.861	61.44
331.073	73.73
331.286	94.21
331.499	6.14
331.712	32.77
331.925	34.82
332.138	40.96
332.35	30.72
332.563	36.86
332.776	67.58
332.989	51.2
333.202	49.15
333.414	34.82
333.627	73.73
333.84	6.14
334.053	59.39
334.265	18.43
334.478	14.34
334.691	49.15
334.903	43.01
335.116	45.06
335.329	77.82
335.541	36.86
335.754	120.83
335.966	61.44
336.179	8.19
336.392	-16.38
336.604	96.25
336.817	-28.67
337.029	-55.3
337.242	18.43
337.454	22.53
337.667	12.29
337.88	86.01
338.092	90.11
338.305	20.48
338.517	22.53
338.729	40.96
338.942	38.91
339.154	-12.29
339.367	12.29
339.579	47.1
339.792	63.49
340.004	102.4
340.217	118.78
340.429	71.68
340.641	77.82
340.854	24.58
341.066	28.67
341.278	40.96
341.491	77.82
341.703	8.19
341.915	38.91
342.128	88.06
342.34	6.14
342.552	59.39
342.764	53.25
342.977	92.16
343.189	73.73
343.401	75.77
343.613	73.73
343.826	22.53
344.038	61.44
344.25	47.1
344.462	69.63
344.674	126.97
344.886	57.34
345.099	-8.19
345.311	86.01
345.523	77.82
345.735	-4.1
345.947	45.06
346.159	12.29
346.371	79.87
346.583	2.05
346.795	69.63
347.007	-28.67
347.219	88.06
347.431	-47.1
347.643	75.77
347.855	38.91
348.067	65.54
348.279	67.58
348.491	28.67
348.703	86.01
348.915	55.3
349.127	79.87
349.339	28.67
349.551	18.43
349.763	36.86
349.975	-12.29
350.187	-18.43
350.399	71.68
350.61	149.5
350.822	36.86
351.034	-6.14
351.246	92.16
351.458	83.97
351.669	49.15
351.881	2.05
352.093	32.77
352.305	20.48
352.517	63.49
352.728	61.44
352.94	53.25
353.152	57.34
353.363	30.72
353.575	100.35
353.787	4.1
353.999	61.44
354.21	67.58
354.422	30.72
354.633	-18.43
354.845	116.73
355.057	8.19
355.268	96.25
355.48	-8.19
355.692	-32.77
355.903	73.73
356.115	-28.67
356.326	53.25
356.538	55.3
356.749	61.44
356.961	47.1
357.172	20.48
357.384	20.48
357.595	40.96
357.807	49.15
358.018	12.29
358.23	73.73
358.441	96.25
358.653	100.35
358.864	28.67
359.075	47.1
359.287	28.67
359.498	34.82
359.709	40.96
359.921	26.62
360.132	65.54
360.344	114.69
360.555	4.1
360.766	67.58
360.977	67.58
361.189	67.58
361.4	18.43
361.611	88.06
361.823	49.15
362.034	49.15
362.245	0
362.456	124.93
362.667	-4.1
362.879	26.62
363.09	45.06
363.301	49.15
363.512	57.34
363.723	40.96
363.935	59.39
364.146	79.87
364.357	45.06
364.568	67.58
364.779	-16.38
364.99	77.82
365.201	57.34
365.412	22.53
365.623	26.62
365.834	71.68
366.045	22.53
366.256	106.49
366.467	143.36
366.678	57.34
366.889	14.34
367.1	59.39
367.311	159.74
367.522	28.67
367.733	81.92
367.944	79.87
368.155	2.05
368.366	149.5
368.577	40.96
368.788	100.35
368.999	28.67
369.209	114.69
369.42	14.34
369.631	47.1
369.842	88.06
370.053	47.1
370.264	135.17
370.474	96.25
370.685	-20.48
370.896	71.68
371.107	24.58
371.317	24.58
371.528	112.64
371.739	102.4
371.95	67.58
372.16	79.87
372.371	53.25
372.582	79.87
372.792	47.1
373.003	32.77
373.214	96.25
373.424	110.59
373.635	28.67
373.846	6.14
374.056	73.73
374.267	49.15
374.477	83.97
374.688	38.91
374.898	98.3
375.109	47.1
375.319	20.48
375.53	18.43
375.74	55.3
375.951	43.01
376.161	65.54
376.372	-12.29
376.582	34.82
376.793	96.25
377.003	20.48
377.214	20.48
377.424	61.44
377.635	59.39
377.845	30.72
378.055	55.3
378.266	20.48
378.476	20.48
378.686	102.4
378.897	75.77
379.107	77.82
379.317	40.96
379.528	36.86
379.738	75.77
379.948	120.83
380.158	24.58
380.369	83.97
380.579	79.87
380.789	98.3
380.999	28.67
381.21	43.01
381.42	83.97
381.63	124.93
381.84	4.1
382.05	106.49
382.261	51.2
382.471	49.15
382.681	32.77
382.891	114.69
383.101	24.58
383.311	65.54
383.521	-4.1
383.731	90.11
383.941	81.92
384.151	151.55
384.361	61.44
384.571	88.06
384.781	18.43
384.991	61.44
385.201	139.26
385.411	112.64
385.621	73.73
385.831	79.87
386.041	53.25
386.251	36.86
386.461	108.54
386.671	-20.48
386.881	86.01
387.091	73.73
387.301	53.25
387.511	40.96
387.72	135.17
387.93	131.07
388.14	81.92
388.35	8.19
388.56	49.15
388.769	86.01
388.979	110.59
389.189	-4.1
389.399	69.63
389.609	-20.48
389.818	88.06
390.028	51.2
390.238	92.16
390.447	94.21
390.657	81.92
390.867	-12.29
391.076	47.1
391.286	22.53
391.496	73.73
391.705	49.15
391.915	100.35
392.125	75.77
392.334	36.86
392.544	124.93
392.753	59.39
392.963	59.39
393.172	139.26
393.382	94.21
393.591	126.97
393.801	30.72
394.01	63.49
394.22	110.59
394.429	98.3
394.639	137.21
394.848	57.34
395.058	86.01
395.267	106.49
395.477	36.86
395.686	122.88
395.895	67.58
396.105	229.37
396.314	143.36
396.524	151.55
396.733	18.43
396.942	153.6
397.152	180.22
397.361	102.4
397.57	114.69
397.78	118.78
397.989	61.44
398.198	165.89
398.407	77.82
398.617	180.22
398.826	83.97
399.035	98.3
399.244	51.2
399.453	153.6
399.663	112.64
399.872	133.12
400.081	49.15
400.29	157.69
400.499	18.43
400.708	108.54
400.917	139.26
401.127	88.06
401.336	71.68
401.545	145.41
401.754	112.64
401.963	135.17
402.172	73.73
402.381	155.65
402.59	190.46
402.799	96.25
403.008	69.63
403.217	167.93
403.426	165.89
403.635	137.21
403.844	47.1
404.053	182.27
404.262	186.37
404.471	145.41
404.68	174.08
404.888	174.08
405.097	223.23
405.306	167.93
405.515	176.13
405.724	135.17
405.933	157.69
406.142	202.75
406.35	202.75
406.559	143.36
406.768	161.79
406.977	258.04
407.185	178.17
407.394	194.56
407.603	145.41
407.812	149.5
408.02	161.79
408.229	229.37
408.438	143.36
408.646	196.61
408.855	217.08
409.064	237.56
409.272	167.93
409.481	251.9
409.69	249.85
409.898	241.66
410.107	299
410.315	280.57
410.524	317.44
410.733	327.67
410.941	290.81
411.15	253.95
411.358	382.97
411.567	329.72
411.775	337.91
411.984	348.15
412.192	413.69
412.401	415.74
412.609	442.36
412.818	423.93
413.026	401.4
413.234	440.31
413.443	458.75
413.651	571.38
413.86	473.08
414.068	550.9
414.276	616.44
414.485	532.47
414.693	520.18
414.901	681.97
415.11	591.86
415.318	598.01
415.526	565.24
415.734	661.49
415.943	745.46
416.151	679.93
416.359	710.65
416.567	743.41
416.776	911.35
416.984	858.1
417.192	829.43
417.4	905.2
417.608	858.1
417.817	985.07
418.025	995.31
418.233	897.01
418.441	1079.28
418.649	991.22
418.857	1142.77
419.065	1167.34
419.273	1165.29
419.481	1171.44
419.689	1257.45
419.897	1415.15
420.105	1306.6
420.313	1443.82
420.521	1492.97
420.729	1513.45
420.937	1509.35
421.145	1495.02
421.353	1605.61
421.561	1822.69
421.769	1849.32
421.977	1877.99
422.185	1929.19
422.393	1918.95
422.601	2027.49
422.809	1986.53
423.017	1953.76
423.224	2068.45
423.432	2252.77
423.64	2217.95
423.848	2506.71
424.056	2308.06
424.263	2508.76
424.471	2516.95
424.679	2533.34
424.887	2672.6
425.094	2781.14
425.302	2844.63
425.51	2895.83
425.718	3022.8
425.925	2967.51
426.133	3131.34
426.341	3164.11
426.548	3368.91
426.756	3463.12
426.964	3547.08
427.171	3653.58
427.379	3774.41
427.586	3870.66
427.794	4136.9
428.001	4100.03
428.209	4356.03
428.417	4208.58
428.624	4601.79
428.832	4695.99
429.039	4421.56
429.247	4652.98
429.454	5099.44
429.662	5361.58
429.869	5109.68
430.076	5517.23
430.284	5261.23
430.491	5404.59
430.699	5834.66
430.906	5742.5
431.114	5699.5
431.321	5965.73
431.528	6283.17
431.736	6475.68
431.943	6805.4
432.15	6694.81
432.358	6737.82
432.565	6999.96
432.772	6944.66
432.979	7520.14
433.187	7673.74
433.394	7554.96
433.601	7937.93
433.808	8101.76
434.016	7972.74
434.223	8372.1
434.43	8847.22
434.637	8695.68
434.844	9361.27
435.052	9383.79
435.259	9242.48
435.466	9564.01
435.673	9449.33
435.88	9914.22
436.087	10487.65
436.294	10610.53
436.501	10282.85
436.708	10540.9
436.915	10833.75
437.122	11231.06
437.329	11300.69
437.537	11618.13
437.743	11710.29
437.95	11657.04
438.157	12220.23
438.364	12642.11
438.571	12750.65
438.778	12750.65
438.985	14108.46
439.192	13434.67
439.399	13791.02
439.606	13315.89
439.813	14176.04
440.02	15073.05
440.227	14595.87
440.433	14698.27
440.64	15136.54
440.847	15064.86
441.054	15427.35
441.261	16428.81
441.467	16412.42
441.674	16523.01
441.881	17231.61
442.088	17090.3
442.294	16758.53
442.501	17346.3
442.708	17661.68
442.914	18245.35
443.121	19224.28
443.328	18792.16
443.534	20289.23
443.741	19457.75
443.948	19214.04
444.154	20661.96
444.361	20338.38
444.568	20369.1
444.774	20774.6
444.981	21282.49
445.187	21628.6
445.394	22292.14
445.6	22222.51
445.807	23862.93
446.013	23045.79
446.22	23688.85
446.426	24313.49
446.633	24753.8
446.839	25527.93
447.046	24299.15
447.252	25788.02
447.459	25650.81
447.665	25646.71
447.871	26812.01
448.078	27991.64
448.284	26472.04
448.491	27543.13
448.697	28339.79
448.903	28870.22
449.11	28667.47
449.316	28442.19
449.522	29005.38
449.728	29578.81
449.935	29926.97
450.141	29804.09
450.347	30572.08
450.553	29451.84
450.76	29877.82
450.966	30889.51
451.172	30721.58
451.378	31229.48
451.584	30692.91
451.791	31290.91
451.997	31243.81
452.203	31831.58
452.409	31798.81
452.615	31530.53
452.821	30277.17
453.027	30268.98
453.233	31424.03
453.44	30383.66
453.646	30838.31
453.852	30883.37
454.058	31149.6
454.264	30058.04
454.47	31125.03
454.676	30099
454.882	30991.91
455.088	28579.4
455.294	28878.41
455.5	29279.81
455.705	29496.89
455.911	28571.21
456.117	27762.26
456.323	27655.77
456.529	25595.51
456.735	26971.75
456.941	26334.83
457.147	25988.72
457.352	25497.21
457.558	24604.3
457.764	24794.76
457.97	24585.86
458.176	23494.3
458.381	23807.64
458.587	22609.58
458.793	22732.45
458.999	21290.68
459.204	23266.97
459.41	22296.24
459.616	20811.46
459.821	20725.44
460.027	20711.11
460.233	20432.58
460.438	19582.68
460.644	19742.42
460.85	18845.41
461.055	18431.72
461.261	18226.92
461.466	17051.39
461.672	16498.44
461.878	17774.32
462.083	16496.39
462.289	16160.52
462.494	16121.61
462.7	15353.62
462.905	14815.01
463.111	15671.06
463.316	15591.19
463.522	15120.15
463.727	15230.74
463.932	15257.37
464.138	15036.19
464.343	14831.39
464.549	14618.4
464.754	15085.34
464.959	15163.16
465.165	14898.97
465.37	14282.53
465.575	14061.35
465.781	14491.43
465.986	14577.44
466.191	14051.11
466.397	13868.84
466.602	13043.51
466.807	13483.83
467.012	13692.72
467.218	13373.24
467.423	13248.31
467.628	13625.14
467.833	14145.32
468.038	13449.01
468.244	13264.69
468.449	13479.73
468.654	13053.75
468.859	13100.86
469.064	12937.02
469.269	12500.8
469.474	12552
469.679	12934.97
469.885	12341.06
470.09	12660.54
470.295	12549.95
470.5	12162.89
470.705	12425.03
470.91	12142.41
471.115	11976.52
471.32	12033.86
471.525	12142.41
471.73	11947.85
471.935	11503.44
472.139	11315.03
472.344	11345.75
472.549	11405.14
472.754	11235.16
472.959	11040.6
473.164	10835.8
473.369	10686.3
473.574	11001.69
473.778	10641.25
473.983	10708.83
474.188	10706.78
474.393	10213.22
474.598	10315.62
474.802	10012.52
475.007	10262.37
475.212	10022.76
475.417	9867.11
475.621	9850.73
475.826	9938.79
476.031	9555.82
476.235	9228.15
476.44	9529.2
476.645	9135.99
476.849	9492.34
477.054	9445.23
477.259	9068.41
477.463	9207.67
477.668	8937.34
477.872	8879.99
478.077	8918.9
478.282	8613.76
478.486	8796.03
478.691	8615.8
478.895	8574.85
479.1	8523.65
479.304	8449.92
479.509	8286.08
479.713	8308.61
479.918	8343.42
480.122	8157.06
480.326	8150.92
480.531	8155.01
480.735	8187.78
480.94	7901.06
481.144	8042.37
481.348	7847.82
481.553	8132.48
481.757	7776.14
481.961	7999.37
482.166	8179.59
482.37	7907.21
482.574	7933.83
482.778	7968.65
482.983	8097.67
483.187	7802.76
483.391	8038.28
483.595	7896.97
483.8	7899.02
484.004	7987.08
484.208	7960.45
484.412	7870.34
484.616	7909.26
484.821	7962.5
485.025	7616.4
485.229	8025.99
485.433	7878.54
485.637	8040.33
485.841	7704.46
486.045	7757.71
486.249	7794.57
486.453	7804.81
486.657	7884.68
486.861	7884.68
487.065	7704.46
487.269	7837.58
487.473	7827.34
487.677	7829.38
487.881	7843.72
488.085	7796.62
488.289	7972.74
488.493	7845.77
488.697	8038.28
488.901	7944.07
489.105	7817.1
489.309	7692.17
489.512	8013.7
489.716	7962.5
489.92	8036.23
490.124	7864.2
490.328	7993.22
490.531	7985.03
490.735	8163.2
490.939	8075.14
491.143	8200.07
491.346	8036.23
491.55	8112
491.754	8167.3
491.958	8155.01
492.161	8116.1
492.365	8294.27
492.569	8312.71
492.772	8163.2
492.976	8370.05
493.18	8382.34
493.383	8456.06
493.587	8484.73
493.79	8546.17
493.994	8601.47
494.197	8679.29
494.401	8718.2
494.605	8699.77
494.808	8834.94
495.012	8904.57
495.215	9047.93
495.419	9099.13
495.622	9031.54
495.825	9174.9
496.029	9113.46
496.232	9410.42
496.436	9291.63
496.639	9545.58
496.843	9441.14
497.046	9764.72
497.249	9729.9
497.453	9594.73
497.656	9842.54
497.859	9803.63
498.063	10002.28
498.266	10076.01
498.469	10137.45
498.673	10282.85
498.876	10397.54
499.079	10536.8
499.282	10477.41
499.485	10585.95
499.689	10952.54
499.892	10960.73
500.095	10946.39
500.298	11321.17
500.501	11077.46
500.705	11654.99
500.908	11589.46
501.111	11573.07
501.314	11845.45
501.517	11984.71
501.72	12103.5
501.923	11833.16
502.126	12427.07
502.329	12658.49
502.532	12525.38
502.735	12574.53
502.938	12926.78
503.141	12830.52
503.344	13059.9
503.547	13143.86
503.75	13494.07
503.953	13696.81
504.156	13565.74
504.359	13856.56
504.562	13973.29
504.765	14260.01
504.968	14411.56
505.17	14454.56
505.373	14423.84
505.576	14890.78
505.779	14704.42
505.982	15208.22
506.185	15449.88
506.387	15390.49
506.59	15808.27
506.793	15560.47
506.996	15603.47
507.198	16066.31
507.401	16002.83
507.604	16211.72
507.807	16451.33
508.009	16629.51
508.212	16664.32
508.415	16817.92
508.617	17116.92
508.82	17090.3
509.022	17331.96
509.225	17690.35
509.428	17600.24
509.63	18036.46
509.833	18040.56
510.035	18284.26
510.238	18259.69
510.44	18460.39
510.643	18820.83
510.845	18988.77
511.048	18958.05
511.25	19240.67
511.453	19531.48
511.655	20262.6
511.858	20018.89
512.06	20090.57
512.262	20215.5
512.465	20180.68
512.667	20643.53
512.87	20666.05
513.072	20643.53
513.274	21081.79
513.477	21255.87
513.679	21581.49
513.881	21571.25
514.084	22169.26
514.286	22027.95
514.488	22073.01
514.69	22886.05
514.893	22816.42
515.095	22625.96
515.297	23377.56
515.499	23391.9
515.701	23750.29
515.904	23944.85
516.106	24082.06
516.308	24278.67
516.51	24823.43
516.712	24467.08
516.914	24571.53
517.116	25345.66
517.318	25126.53
517.52	25339.52
517.722	25405.05
517.925	25874.04
518.127	26007.16
518.329	26340.97
518.531	26224.24
518.733	27018.85
518.935	27182.69
519.136	27043.43
519.338	27602.52
519.54	27641.43
519.742	27690.59
519.944	28241.49
520.146	28091.99
520.348	28249.68
520.55	28657.23
520.752	28733
520.954	29349.44
521.155	28927.56
521.357	29111.88
521.559	29607.48
521.761	30045.75
521.963	29924.92
522.164	30021.17
522.366	30537.26
522.568	30830.12
522.77	31006.25
522.971	31452.7
523.173	31368.74
523.375	31823.39
523.576	31303.2
523.778	31807
523.98	32206.36
524.181	32226.84
524.383	31966.74
524.584	32835.08
524.786	32572.94
524.988	32445.97
525.189	33123.85
525.391	33046.02
525.592	33385.99
525.794	33598.98
525.995	33125.89
526.197	33201.67
526.398	33644.03
526.6	33797.63
526.801	34049.53
527.003	34192.89
527.204	33863.16
527.406	34876.91
527.607	34510.32
527.808	35280.36
528.01	33932.79
528.211	34854.38
528.412	35583.46
528.614	35247.59
528.815	35171.82
529.016	35825.12
529.218	35055.08
529.419	35223.01
529.62	35470.82
529.822	35278.31
530.023	35726.81
530.224	35522.02
530.425	35436
530.626	35462.63
530.828	35624.42
531.029	36160.98
531.23	35872.22
531.431	35790.3
531.632	36079.07
531.833	36593.11
532.035	36122.07
532.236	36089.31
532.437	36738.51
532.638	36369.88
532.839	36554.19
533.04	36793.81
533.241	36238.81
533.442	36740.56
533.643	36111.83
533.844	36505.04
534.045	36711.89
534.246	36019.67
534.447	36681.17
534.648	36498.9
534.849	36558.29
535.05	36701.65
535.251	36804.05
535.451	36486.61
535.652	36734.42
535.853	36502.99
536.054	36871.63
536.255	36898.25
536.456	36554.19
536.657	37584.32
536.857	36765.13
537.058	36591.06
537.259	37012.94
537.46	36861.39
537.66	36660.69
537.861	36763.09
538.062	36795.85
538.263	36634.06
538.463	36996.56
538.664	36492.76
538.865	36853.2
539.065	37438.92
539.266	36402.64
539.466	36941.26
539.667	36423.12
539.868	37217.74
540.068	36593.11
540.269	36804.05
540.469	36955.6
540.67	36707.79
540.87	37064.14
541.071	36824.53
541.271	36988.36
541.472	36664.78
541.672	36505.04
541.873	36609.49
542.073	36480.47
542.274	37086.67
542.474	36367.83
542.675	36423.12
542.875	36816.33
543.075	36722.13
543.276	36392.4
543.476	36963.79
543.676	36537.81
543.877	36849.1
544.077	36537.81
544.277	36541.91
544.478	36398.55
544.678	36963.79
544.878	36574.67
545.078	36687.31
545.279	36304.34
545.479	36330.97
545.679	36312.53
545.879	36462.04
546.079	36206.04
546.28	36160.98
546.48	36480.47
546.68	36521.43
546.88	36347.35
547.08	36572.63
547.28	36128.22
547.48	35958.24
547.68	36433.36
547.88	36263.38
548.081	36423.12
548.281	36453.84
548.481	36050.39
548.681	36607.44
548.881	36296.15
549.081	36402.64
549.28	36144.6
549.48	36523.47
549.68	36091.35
549.88	36740.56
550.08	35917.28
550.28	36492.76
550.48	36019.67
550.68	36521.43
550.88	35720.67
551.08	36101.59
551.279	36267.48
551.479	36019.67
551.679	36107.74
551.879	36138.46
552.079	36011.48
552.278	35769.82
552.478	36359.64
552.678	36087.26
552.878	36224.47
553.077	36382.16
553.277	35483.11
553.477	36275.67
553.676	35788.25
553.876	35939.8
554.076	35481.06
554.275	35880.41
554.475	35599.84
554.674	35911.13
554.874	35952.09
555.074	35599.84
555.273	35898.84
555.473	35954.14
555.672	35575.27
555.872	35618.27
556.071	35526.11
556.271	35872.22
556.47	35333.6
556.67	35028.46
556.869	35331.56
557.068	35509.73
557.268	34930.15
557.467	35251.69
557.667	34983.4
557.866	35292.65
558.065	34745.84
558.265	34670.06
558.464	35010.03
558.663	35108.33
558.863	34586.1
559.062	35114.47
559.261	34463.22
559.461	35022.31
559.66	34567.66
559.859	34641.39
560.058	34416.11
560.258	34661.87
560.457	34096.63
560.656	34764.27
560.855	34373.11
561.054	34178.55
561.253	34110.97
561.453	34158.07
561.652	34123.26
561.851	34090.49
562.05	33994.23
562.249	33455.62
562.448	34100.73
562.647	33719.81
562.846	34000.38
563.045	33660.41
563.244	33472
563.443	33887.74
563.642	32968.2
563.841	33396.23
564.04	33431.04
564.239	33402.37
564.438	33039.88
564.637	33365.51
564.836	33054.22
565.035	32706.06
565.234	32871.95
565.432	32994.82
565.631	32818.7
565.83	32796.17
566.029	32767.5
566.228	32976.39
566.427	32400.91
566.625	32562.7
566.824	32095.77
567.023	32611.85
567.222	31677.98
567.42	32456.21
567.619	31794.71
567.818	32083.48
568.016	31553.05
568.215	31964.7
568.414	31614.49
568.612	32024.09
568.811	31528.48
569.01	31737.37
569.208	30756.39
569.407	31356.45
569.605	30916.14
569.804	31333.92
570.002	30635.56
570.201	31194.66
570.4	30828.07
570.598	30545.45
570.797	30574.13
570.995	30930.47
571.193	30400.05
571.392	30737.96
571.59	30316.08
571.789	30299.7
571.987	30461.49
572.186	30250.55
572.384	29791.8
572.582	30111.28
572.781	30309.94
572.979	29816.38
573.177	29756.99
573.376	29787.71
573.574	29517.37
573.772	29939.26
573.971	29384.26
574.169	29363.78
574.367	29029.96
574.565	29220.42
574.763	29068.87
574.962	28798.54
575.16	28776.01
575.358	28907.08
575.556	28733
575.754	29150.79
575.952	28646.99
576.151	28925.51
576.349	28487.25
576.547	28530.25
576.745	28642.89
576.943	28182.1
577.141	28112.47
577.339	28257.87
577.537	28065.36
577.735	27958.87
577.933	27778.65
578.131	27952.73
578.329	27780.7
578.527	27584.09
578.725	27618.91
578.923	27842.14
579.121	27321.95
579.319	27545.18
579.516	27741.78
579.714	27207.26
579.912	27217.5
580.11	26672.74
580.308	27192.93
580.506	26988.13
580.704	26375.79
580.901	26680.94
581.099	26891.88
581.297	26482.28
581.495	26377.84
581.692	26513
581.89	26377.84
582.088	26537.58
582.285	26287.73
582.483	26343.02
582.681	26394.22
582.878	26250.86
583.076	25632.38
583.274	26087.03
583.471	25771.64
583.669	25949.81
583.866	25593.47
584.064	25632.38
584.262	25247.36
584.459	25491.07
584.657	25216.64
584.854	25745.02
585.052	25230.97
585.249	25245.31
585.447	25323.13
585.644	25218.69
585.841	24893.06
586.039	25267.84
586.236	24788.61
586.434	24852.1
586.631	24647.3
586.828	24917.64
587.026	24784.52
587.223	24727.17
587.42	24037.01
587.618	24559.24
587.815	24282.77
588.012	23996.05
588.21	24202.89
588.407	24180.37
588.604	24006.29
588.801	24016.53
588.999	24127.12
589.196	23869.08
589.393	23887.51
589.59	23781.01
589.787	23559.83
589.984	23398.04
590.182	23434.91
590.379	23467.67
590.576	23541.4
590.773	23264.92
590.97	23017.12
591.167	23043.74
591.364	22830.76
591.561	23422.62
591.758	22814.37
591.955	23084.7
592.152	22810.28
592.349	22574.76
592.546	22783.65
592.743	22920.87
592.94	22306.48
593.137	22707.88
593.334	22437.55
593.531	22109.87
593.727	22550.18
593.924	22152.88
594.121	21862.07
594.318	22122.16
594.515	21759.67
594.712	22142.64
594.908	21927.6
595.105	21853.87
595.302	21675.7
595.499	21905.07
595.696	21511.86
595.892	21577.4
596.089	21726.9
596.286	21440.18
596.482	21204.67
596.679	21262.01
596.876	21110.46
597.072	21329.59
597.269	20977.34
597.466	21161.66
597.662	20860.61
597.859	20963.01
598.055	20799.17
598.252	20688.58
598.448	20678.34
598.645	20590.28
598.841	20436.68
599.038	20647.62
599.234	20485.83
599.431	20350.67
599.627	20504.26
599.824	20551.37
600.02	20168.4
600.217	20098.77
600.413	19902.16
600.609	19961.55
600.806	19840.72
601.002	19990.22
601.198	19779.28
601.395	19699.41
601.591	19764.95
601.787	19754.71
601.984	19402.46
602.18	19635.92
602.376	19463.9
602.572	19298.01
602.769	19551.96
602.965	19066.59
603.161	19271.39
603.357	18876.13
603.553	19183.32
603.75	19230.43
603.946	19070.69
604.142	19191.52
604.338	18753.25
604.534	19117.79
604.73	18736.87
604.926	18419.43
605.122	18634.47
605.318	18564.84
605.514	18669.28
605.71	18310.89
605.906	18538.21
606.102	18226.92
606.298	18419.43
606.494	18552.55
606.69	18210.54
606.886	18386.66
607.082	17633.01
607.278	18218.73
607.474	18085.61
607.67	18157.29
607.866	17432.31
608.062	18237.16
608.257	17987.31
608.453	17749.75
608.649	17991.41
608.845	17583.86
609.041	17637.11
609.236	17741.55
609.432	17684.21
609.628	17577.72
609.824	17530.61
610.019	17454.84
610.215	17643.25
610.411	17585.91
610.606	17190.65
610.802	17475.32
610.998	17493.75
611.193	17061.63
611.389	17061.63
611.584	17450.74
611.78	16926.46
611.976	17239.8
612.171	17291
612.367	16971.52
612.562	16623.36
612.758	16643.84
612.953	16680.71
613.149	16981.76
613.344	16865.02
613.539	17207.03
613.735	16740.1
613.93	16697.09
614.126	16787.2
614.321	16826.11
614.517	16584.45
614.712	16527.11
614.907	16461.57
615.103	16719.62
615.298	16418.57
615.493	16834.3
615.688	16326.41
615.884	16672.51
616.079	16119.56
616.274	16606.98
616.47	16355.08
616.665	16426.76
616.86	16342.79
617.055	16156.43
617.25	16310.02
617.445	16176.91
617.641	16023.31
617.836	16131.85
618.031	16017.16
618.226	16238.34
618.421	15691.54
618.616	15970.06
618.811	15892.24
619.006	15798.03
619.201	15355.67
619.396	15556.37
619.591	15202.07
619.786	15496.98
619.981	15394.58
620.176	15435.54
620.371	15068.95
620.566	15249.18
620.761	15195.93
620.956	15236.89
621.151	14831.39
621.346	14933.79
621.541	14882.59
621.735	14898.97
621.93	14798.62
622.125	14782.24
622.32	14571.3
622.515	14501.67
622.709	14356.26
622.904	14554.91
623.099	14415.65
623.294	14364.45
623.488	14001.96
623.683	14036.78
623.878	14165.8
624.072	13944.62
624.267	13897.52
624.462	13733.68
624.656	13705.01
624.851	13739.82
625.046	13537.07
625.24	13440.82
625.435	13510.45
625.629	13336.37
625.824	13242.17
626.018	13186.87
626.213	13090.62
626.407	13344.56
626.602	12920.63
626.796	12992.31
626.991	12734.27
627.185	12992.31
627.38	12752.7
627.574	12762.94
627.768	12674.88
627.963	12676.93
628.157	12341.06
628.352	12576.58
628.546	12226.37
628.74	12445.51
628.935	12107.59
629.129	12255.04
629.323	12121.93
629.517	11976.52
629.712	11888.46
629.906	11876.17
630.1	11814.73
630.294	11816.78
630.489	11855.69
630.683	11726.67
630.877	11503.44
631.071	11534.16
631.265	11507.54
631.459	11398.99
631.653	11405.14
631.848	11177.81
632.042	11069.27
632.236	11284.31
632.43	11208.53
632.624	11200.34
632.818	11018.07
633.012	10938.2
633.206	10966.87
633.4	10923.87
633.594	10825.56
633.788	10723.16
633.982	10573.66
634.176	10610.53
634.369	10706.78
634.563	10389.35
634.757	10452.83
634.951	10385.25
635.145	10401.63
635.339	10372.96
635.533	10307.43
635.726	10170.21
635.92	10102.63
636.114	10051.43
636.308	10102.63
636.501	10039.14
636.695	9953.13
636.889	9799.53
637.083	9883.5
637.276	9779.05
637.47	9777
637.664	9846.63
637.857	9471.86
638.051	9738.09
638.244	9437.04
638.438	9385.84
638.632	9434.99
638.825	9414.51
639.019	9377.65
639.212	9379.7
639.406	9242.48
639.599	9181.04
639.793	9228.15
639.986	9060.21
640.18	9068.41
640.373	8912.76
640.567	8894.33
640.76	9082.74
640.954	8765.31
641.147	8793.98
641.34	8699.77
641.534	8826.75
641.727	8789.88
641.92	8675.2
642.114	8589.18
642.307	8476.54
642.5	8376.19
642.694	8232.83
642.887	8351.62
643.08	8390.53
643.273	8302.47
643.467	8146.82
643.66	8226.69
643.853	8062.85
644.046	8062.85
644.239	8081.28
644.432	8077.19
644.626	7939.97
644.819	7849.86
645.012	7974.79
645.205	8103.81
645.398	7845.77
645.591	7597.96
645.784	7774.09
645.977	7565.2
646.17	7524.24
646.363	7632.78
646.556	7487.37
646.749	7479.18
646.942	7626.64
647.135	7362.45
647.328	7231.38
647.521	7346.06
647.714	7366.54
647.907	7301.01
648.099	7077.78
648.292	7303.06
648.485	7301.01
648.678	6950.81
648.871	7022.48
649.064	7051.16
649.256	7032.72
649.449	7045.01
649.642	6934.42
649.835	6872.98
650.027	6827.93
650.22	6752.15
650.413	6819.74
650.605	6610.84
650.798	6827.93
650.991	6686.62
651.183	6748.06
651.376	6565.79
651.568	6721.43
651.761	6674.33
651.954	6600.6
652.146	6590.36
652.339	6492.06
652.531	6547.36
652.724	6346.66
652.916	6383.52
653.109	6266.78
653.301	6279.07
653.494	6506.4
653.686	6287.26
653.879	6066.08
654.071	6240.16
654.263	6086.56
654.456	6256.54
654.648	6082.47
654.84	6129.57
655.033	6057.89
655.225	5980.07
655.417	5883.81
655.61	5947.3
655.802	5885.86
655.994	5844.9
656.186	5887.91
656.379	5748.65
656.571	5762.98
656.763	5545.9
656.955	5609.39
657.148	5781.42
657.34	5713.83
657.532	5621.67
657.724	5484.46
657.916	5461.93
658.108	5525.42
658.3	5502.89
658.492	5529.52
658.684	5406.64
658.876	5359.53
659.068	5394.35
659.26	5205.94
659.452	5394.35
659.644	5316.53
659.836	5158.83
660.028	5193.65
660.22	5068.72
660.412	5183.41
660.604	5126.07
660.796	5207.98
660.988	4933.56
661.18	5005.24
661.372	5001.14
661.563	5050.29
661.755	4884.41
661.947	4997.04
662.139	4786.1
662.331	4927.41
662.522	4827.06
662.714	4759.48
662.906	4773.82
663.097	4775.86
663.289	4769.72
663.481	4577.21
663.673	4677.56
663.864	4626.36
664.056	4739
664.247	4630.46
664.439	4679.61
664.631	4562.87
664.822	4487.1
665.014	4607.93
665.205	4573.11
665.397	4720.57
665.588	4599.74
665.78	4360.13
665.971	4534.2
666.163	4388.8
666.354	4392.89
666.546	4392.89
666.737	4339.65
666.929	4356.03
667.12	4429.76
667.311	4364.22
667.503	4263.87
667.694	4329.41
667.885	4190.14
668.077	4179.9
668.268	4241.34
668.459	4259.77
668.651	4206.53
668.842	4118.47
669.033	4235.2
669.224	4011.97
669.416	4067.27
669.607	4130.75
669.798	3966.92
669.989	4147.14
670.18	4050.88
670.371	4122.56
670.563	3928
670.754	3940.29
670.945	3987.4
671.136	3948.48
671.327	3850.18
671.518	3946.44
671.709	3852.23
671.9	3850.18
672.091	3833.8
672.282	3870.66
672.473	3798.98
672.664	3839.94
672.855	3669.96
673.046	3737.54
673.237	3870.66
673.428	3667.91
673.619	3850.18
673.809	3862.47
674	3680.2
674.191	3608.52
674.382	3602.38
674.573	3669.96
674.764	3665.86
674.954	3608.52
675.145	3555.27
675.336	3725.26
675.527	3428.3
675.717	3590.09
675.908	3399.63
676.099	3649.48
676.289	3489.74
676.48	3561.42
676.671	3571.66
676.861	3442.64
677.052	3442.64
677.243	3370.96
677.433	3506.12
677.624	3583.95
677.814	3354.57
678.005	3647.43
678.195	3497.93
678.386	3313.61
678.576	3260.37
678.767	3264.46
678.957	3362.76
679.148	3399.63
679.338	3352.52
679.529	3377.1
679.719	3274.7
679.909	3407.82
680.1	3184.59
680.29	3164.11
680.481	3227.6
680.671	3223.5
680.861	3196.88
681.052	3313.61
681.242	3104.72
681.432	3379.15
681.622	3069.91
681.813	3305.42
682.003	3026.9
682.193	3203.02
682.383	3164.11
682.573	3164.11
682.764	3123.15
682.954	3147.73
683.144	3166.16
683.334	3127.25
683.524	3190.74
683.714	3106.77
683.904	3086.29
684.094	3149.78
684.284	3114.96
684.474	2977.75
684.664	3061.71
684.854	3065.81
685.044	3106.77
685.234	3063.76
685.424	3112.91
685.614	3057.62
685.804	2942.93
685.994	2867.16
686.184	2981.84
686.374	2992.08
686.564	2922.45
686.753	2930.64
686.943	2947.03
687.133	2965.46
687.323	2940.88
687.513	2861.01
687.702	2815.96
687.892	2906.07
688.082	2867.16
688.272	2863.06
688.461	2949.07
688.651	2912.21
688.841	2797.53
689.03	2760.66
689.22	2764.76
689.41	2768.85
689.599	2754.52
689.789	2818.01
689.979	2715.61
690.168	2678.74
690.358	2705.37
690.547	2748.37
690.737	2756.57
690.926	2770.9
691.116	2592.73
691.305	2621.4
691.495	2727.89
691.684	2617.3
691.874	2627.54
692.063	2607.06
692.252	2658.26
692.442	2629.59
692.631	2525.15
692.82	2590.68
693.01	2582.49
693.199	2607.06
693.388	2598.87
693.578	2506.71
693.767	2602.97
693.956	2572.25
694.146	2519
694.335	2389.98
694.524	2566.1
694.713	2404.32
694.902	2562.01
695.092	2449.37
695.281	2559.96
695.47	2449.37
695.659	2349.02
695.848	2443.23
696.037	2545.63
696.226	2535.39
696.415	2457.56
696.604	2512.86
696.793	2420.7
696.982	2439.13
697.171	2420.7
697.36	2396.12
697.549	2437.08
697.738	2346.97
697.927	2414.56
698.116	2359.26
698.305	2308.06
698.494	2428.89
698.683	2451.42
698.872	2426.84
699.061	2342.88
699.25	2404.32
699.438	2385.88
699.627	2369.5
699.816	2475.99
700.005	2414.56
700.193	2432.99
700.382	2443.23
700.571	2303.96
700.76	2426.84
700.948	2346.97
701.137	2324.44
701.326	2412.51
701.514	2273.25
701.703	2428.89
701.892	2326.49
702.08	2461.66
702.269	2426.84
702.457	2385.88
702.646	2361.31
702.834	2328.54
703.023	2465.75
703.212	2349.02
703.4	2373.6
703.589	2394.08
703.777	2385.88
703.965	2375.64
704.154	2455.51
704.342	2342.88
704.531	2373.6
704.719	2349.02
704.907	2318.3
705.096	2377.69
705.284	2318.3
705.472	2269.15
705.661	2291.68
705.849	2355.16
706.037	2361.31
706.226	2310.11
706.414	2275.29
706.602	2287.58
706.79	2285.53
706.979	2371.55
707.167	2353.12
707.355	2217.95
707.543	2334.68
707.731	2453.47
707.919	2322.4
708.107	2285.53
708.296	2279.39
708.484	2312.16
708.672	2267.1
708.86	2340.83
709.048	2279.39
709.236	2248.67
709.424	2363.36
709.612	2308.06
709.8	2248.67
709.988	2310.11
710.176	2273.25
710.364	2351.07
710.551	2318.3
710.739	2289.63
710.927	2238.43
711.115	2322.4
711.303	2299.87
711.491	2299.87
711.679	2265.05
711.866	2379.74
712.054	2236.38
712.242	2246.62
712.43	2283.49
712.617	2375.64
712.805	2228.19
712.993	2291.68
713.181	2258.91
713.368	2297.82
713.556	2338.78
713.744	2129.89
713.931	2312.16
714.119	2273.25
714.306	2318.3
714.494	2406.36
714.682	2220
714.869	2174.94
715.057	2236.38
715.244	2164.7
715.432	2320.35
715.619	2263.01
715.807	2297.82
715.994	2234.33
716.182	2248.67
716.369	2211.81
716.556	2375.64
716.744	2234.33
716.931	2267.1
717.119	2256.86
717.306	2207.71
717.493	2314.2
717.681	2246.62
717.868	2244.57
718.055	2258.91
718.242	2271.2
718.43	2217.95
718.617	2246.62
718.804	2185.18
718.991	2187.23
719.179	2279.39
719.366	2164.7
719.553	2228.19
719.74	2271.2
719.927	2258.91
720.114	2310.11
720.301	2236.38
720.488	2269.15
720.676	2217.95
720.863	2297.82
721.05	2248.67
721.237	2260.96
721.424	2140.13
721.611	2263.01
721.798	2205.66
721.985	2281.44
722.172	2271.2
722.358	2105.31
722.545	2220
722.732	2252.77
722.919	2244.57
723.106	2125.79
723.293	2260.96
723.48	2199.52
723.667	2203.61
723.853	2222.05
724.04	2242.53
724.227	2142.18
724.414	2160.61
724.6	2172.89
724.787	2125.79
724.974	2318.3
725.161	2279.39
725.347	2082.78
725.534	2285.53
725.72	2226.14
725.907	2217.95
726.094	2234.33
726.28	2146.27
726.467	2199.52
726.653	2172.89
726.84	2338.78
727.027	2232.29
727.213	2271.2
727.4	2256.86
727.586	2269.15
727.773	2166.75
727.959	2136.03
728.145	2232.29
728.332	2242.53
728.518	2191.33
728.705	2166.75
728.891	2283.49
729.077	2062.3
729.264	2152.42
729.45	2230.24
729.636	2222.05
729.823	2195.42
730.009	2226.14
730.195	2125.79
730.382	2224.09
730.568	2242.53
730.754	2162.65
730.94	2117.6
731.126	2174.94
731.313	2203.61
731.499	2197.47
731.685	2187.23
731.871	2254.81
732.057	2265.05
732.243	2306.01
732.429	2183.13
732.615	2269.15
732.801	2129.89
732.987	2299.87
733.173	2146.27
733.359	2158.56
733.545	2320.35
733.731	2080.74
733.917	2265.05
734.103	2162.65
734.289	2211.81
734.475	2205.66
734.661	2226.14
734.847	2189.28
735.033	2084.83
735.219	2136.03
735.404	2138.08
735.59	2156.51
735.776	2093.02
735.962	2123.74
736.148	2170.85
736.333	2088.93
736.519	2090.98
736.705	2060.26
736.89	2129.89
737.076	2215.9
737.262	2101.22
737.447	2201.57
737.633	2052.06
737.819	1988.58
738.004	2166.75
738.19	2172.89
738.375	2037.73
738.561	2195.42
738.747	2047.97
738.932	2068.45
739.118	2166.75
739.303	2136.03
739.489	2037.73
739.674	2084.83
739.859	2050.02
740.045	2000.87
740.23	2142.18
740.416	2037.73
740.601	2076.64
740.786	2099.17
740.972	2099.17
741.157	2074.59
741.342	1925.09
741.528	1976.29
741.713	1986.53
741.898	1888.23
742.084	1982.43
742.269	1939.43
742.454	1984.48
742.639	1906.66
742.824	1992.67
743.01	1978.34
743.195	1994.72
743.38	1789.92
743.565	1927.14
743.75	1900.51
743.935	1898.47
744.12	1935.33
744.305	1867.75
744.49	1888.23
744.675	1939.43
744.86	1861.6
745.045	1855.46
745.23	1888.23
745.415	1875.94
745.6	1941.47
745.785	1767.4
745.97	1724.39
746.155	1832.93
746.34	1822.69
746.525	1777.64
746.71	1810.4
746.895	1746.92
747.079	1900.51
747.264	1716.2
747.449	1787.88
747.634	1812.45
747.819	1753.06
748.003	1642.47
748.188	1603.56
748.373	1720.29
748.557	1732.58
748.742	1654.76
748.927	1693.67
749.111	1748.97
749.296	1533.93
749.481	1636.33
749.665	1658.85
749.85	1724.39
750.034	1687.53
750.219	1593.32
750.404	1570.79
750.588	1654.76
750.773	1550.31
750.957	1613.8
751.141	1587.18
751.326	1466.35
751.51	1564.65
751.695	1585.13
751.879	1476.59
752.064	1550.31
752.248	1400.81
752.432	1492.97
752.617	1552.36
752.801	1480.68
752.985	1523.69
753.17	1419.24
753.354	1505.26
753.538	1449.96
753.722	1425.39
753.907	1470.44
754.091	1429.48
754.275	1419.24
754.459	1380.33
754.643	1456.11
754.828	1425.39
755.012	1476.59
755.196	1388.52
755.38	1277.93
755.564	1384.43
755.748	1329.13
755.932	1241.07
756.116	1359.85
756.3	1282.03
756.484	1239.02
756.668	1310.7
756.852	1222.64
757.036	1171.44
757.22	1314.8
757.404	1286.12
757.588	1185.77
757.772	1279.98
757.956	1335.28
758.14	1241.07
758.323	1267.69
758.507	1216.49
758.691	1110
758.875	1198.06
759.059	1185.77
759.242	1212.4
759.426	1118.19
759.61	1118.19
759.794	1200.11
759.977	1173.49
760.161	1216.49
760.345	1187.82
760.528	1183.73
760.712	1126.38
760.895	1159.15
761.079	1138.67
761.263	1120.24
761.446	1042.42
761.63	1032.18
761.813	1126.38
761.997	1034.22
762.18	1007.6
762.364	1075.18
762.547	1058.8
762.731	1048.56
762.914	1052.66
763.098	1085.42
763.281	1052.66
763.464	1071.09
763.648	1060.85
763.831	1003.5
764.015	1056.75
764.198	1134.57
764.381	1044.46
764.564	1028.08
764.748	976.88
764.931	1071.09
765.114	1034.22
765.297	958.45
765.481	940.02
765.664	935.92
765.847	937.97
766.03	1048.56
766.213	950.26
766.397	972.79
766.58	1021.94
766.763	1007.6
766.946	940.02
767.129	1087.47
767.312	950.26
767.495	905.2
767.678	997.36
767.861	880.63
768.044	827.38
768.227	978.93
768.41	978.93
768.593	897.01
768.776	894.96
768.959	888.82
769.142	962.55
769.324	901.11
769.507	913.39
769.69	860.15
769.873	847.86
770.056	901.11
770.239	856.05
770.421	925.68
770.604	860.15
770.787	819.19
770.97	823.28
771.152	849.91
771.335	870.39
771.518	890.87
771.7	966.64
771.883	888.82
772.066	894.96
772.248	811
772.431	813.04
772.613	847.86
772.796	716.79
772.978	724.98
773.161	886.77
773.343	856.05
773.526	770.04
773.708	841.72
773.891	770.04
774.073	757.75
774.256	802.8
774.438	823.28
774.621	841.72
774.803	757.75
774.985	737.27
775.168	755.7
775.35	761.84
775.532	776.18
775.715	757.75
775.897	735.22
776.079	731.12
776.261	759.8
776.444	714.74
776.626	706.55
776.808	665.59
776.99	739.32
777.173	706.55
777.355	739.32
777.537	722.93
777.719	753.65
777.901	665.59
778.083	632.82
778.265	612.34
778.447	714.74
778.629	681.97
778.811	667.64
778.993	671.73
779.175	729.08
779.357	669.69
779.539	573.43
779.721	686.07
779.903	622.58
780.085	620.53
780.267	614.39
780.449	559.1
780.631	565.24
780.812	544.76
780.994	604.15
781.176	630.77
781.358	641.01
781.54	577.53
781.721	602.1
781.903	573.43
782.085	485.37
782.267	577.53
782.448	495.61
782.63	579.58
782.812	499.7
782.993	536.57
783.175	598.01
783.357	495.61
783.538	471.03
783.72	548.86
783.901	522.23
784.083	511.99
784.264	489.46
784.446	546.81
784.627	581.62
784.809	438.27
784.99	507.9
785.172	499.7
785.353	471.03
785.535	473.08
785.716	493.56
785.897	415.74
786.079	382.97
786.26	487.42
786.441	405.5
786.623	434.17
786.804	448.51
786.985	489.46
787.167	473.08
787.348	425.98
787.529	522.23
787.71	479.22
787.891	391.16
788.073	493.56
788.254	452.6
788.435	405.5
788.616	454.65
788.797	385.02
788.978	417.79
789.159	413.69
789.34	511.99
789.522	425.98
789.703	393.21
789.884	413.69
790.065	387.07
790.246	389.11
790.427	497.66
790.607	387.07
790.788	382.97
790.969	356.35
791.15	389.11
791.331	346.11
791.512	346.11
791.693	356.35
791.874	350.2
792.054	399.35
792.235	348.15
792.416	407.55
792.597	368.63
792.778	374.78
792.958	419.83
793.139	358.39
793.32	403.45
793.5	243.71
793.681	364.54
793.862	237.56
794.042	333.82
794.223	337.91
794.404	327.67
794.584	309.24
794.765	327.67
794.945	288.76
795.126	366.59
795.306	305.15
795.487	286.72
795.667	307.2
795.848	315.39
796.028	249.85
796.209	348.15
796.389	389.11
796.57	294.91
796.75	305.15
796.93	329.72
797.111	335.87
797.291	346.11
797.471	335.87
797.652	348.15
797.832	315.39
798.012	313.34
798.192	208.89
798.373	198.65
798.553	280.57
798.733	241.66
798.913	339.96
799.093	292.86
799.274	235.52
799.454	217.08
799.634	309.24
799.814	346.11
799.994	258.04
800.174	247.8
800.354	192.51
800.534	221.18
800.714	337.91
800.894	294.91
801.074	290.81
801.254	245.76
801.434	206.84
801.614	208.89
801.794	241.66
801.974	653.3
802.154	219.13
802.334	251.9
802.514	266.24
802.693	215.04
802.873	243.71
803.053	229.37
803.233	210.94
803.413	264.19
803.592	249.85
803.772	210.94
803.952	208.89
804.131	182.27
804.311	260.09
804.491	217.08
804.67	192.51
804.85	210.94
805.03	225.28
805.209	198.65
805.389	184.32
805.568	210.94
805.748	239.61
805.928	251.9
806.107	253.95
806.287	200.7
806.466	217.08
806.646	266.24
806.825	200.7
807.004	249.85
807.184	258.04
807.363	286.72
807.543	192.51
807.722	137.21
807.901	200.7
808.081	200.7
808.26	163.84
808.439	206.84
808.619	223.23
808.798	210.94
808.977	202.75
809.156	219.13
809.336	198.65
809.515	200.7
809.694	184.32
809.873	157.69
810.052	157.69
810.231	217.08
810.411	192.51
810.59	258.04
810.769	204.8
810.948	235.52
811.127	210.94
811.306	161.79
811.485	210.94
811.664	108.54
811.843	102.4
812.022	225.28
812.201	194.56
812.38	208.89
812.559	167.93
812.737	147.45
812.916	94.21
813.095	163.84
813.274	124.93
813.453	192.51
813.632	122.88
813.811	206.84
813.989	200.7
814.168	167.93
814.347	110.59
814.526	71.68
814.704	219.13
814.883	153.6
815.062	176.13
815.24	155.65
815.419	157.69
815.598	169.98
815.776	200.7
815.955	161.79
816.133	96.25
816.312	180.22
816.49	124.93
816.669	114.69
816.847	241.66
817.026	219.13
817.204	169.98
817.383	163.84
817.561	124.93
817.74	151.55
817.918	159.74
818.097	149.5
818.275	161.79
818.453	215.04
818.632	169.98
818.81	161.79
818.988	192.51
819.167	61.44
819.345	143.36
819.523	153.6
819.701	104.45
819.879	167.93
820.058	155.65
820.236	155.65
820.414	65.54
820.592	77.82
820.77	57.34
820.948	194.56
821.127	96.25
821.305	120.83
821.483	169.98
821.661	200.7
821.839	198.65
822.017	133.12
822.195	40.96
822.373	86.01
822.551	124.93
822.729	141.31
822.907	114.69
823.085	141.31
823.262	133.12
823.44	108.54
823.618	106.49
823.796	77.82
823.974	147.45
824.152	157.69
824.329	36.86
824.507	98.3
824.685	106.49
824.863	122.88
825.04	163.84
825.218	165.89
825.396	122.88
825.574	114.69
825.751	92.16
825.929	186.37
826.107	116.73
826.284	116.73
826.462	133.12
826.639	159.74
826.817	98.3
826.994	194.56
827.172	30.72
827.349	110.59
827.527	118.78
827.704	43.01
827.882	90.11
828.059	137.21
828.237	151.55
828.414	75.77
828.591	73.73
828.769	133.12
828.946	102.4
829.124	169.98
829.301	124.93
829.478	155.65
829.655	28.67
829.833	131.07
830.01	98.3
830.187	61.44
830.364	102.4
830.542	81.92
830.719	135.17
830.896	90.11
831.073	118.78
831.25	92.16
831.427	122.88
831.604	-2.05
831.782	135.17
831.959	63.49
832.136	26.62
832.313	124.93
832.49	47.1
832.667	83.97
832.844	81.92
833.021	92.16
833.198	165.89
833.374	180.22
833.551	118.78
833.728	112.64
833.905	12.29
834.082	61.44
834.259	92.16
834.436	108.54
834.612	69.63
834.789	118.78
834.966	65.54
835.143	139.26
835.319	65.54
835.496	129.02
835.673	77.82
835.85	149.5
836.026	34.82
836.203	94.21
836.38	65.54
836.556	88.06
836.733	59.39
836.909	8.19
837.086	122.88
837.262	98.3
837.439	-6.14
837.616	104.45
837.792	34.82
837.968	57.34
838.145	55.3
838.321	102.4
838.498	90.11
838.674	145.41
838.851	36.86
839.027	94.21
839.203	38.91
839.38	102.4
839.556	94.21
839.732	94.21
839.909	57.34
840.085	69.63
840.261	36.86
840.437	90.11
840.614	8.19
840.79	102.4
840.966	63.49
841.142	10.24
841.318	45.06
841.494	86.01
841.671	79.87
841.847	40.96
842.023	83.97
842.199	129.02
842.375	106.49
842.551	57.34
842.727	43.01
842.903	180.22
843.079	61.44
843.255	71.68
843.431	43.01
843.607	106.49
843.783	43.01
843.959	34.82
844.134	81.92
844.31	124.93
844.486	59.39
844.662	55.3
844.838	10.24
845.013	96.25
845.189	118.78
845.365	184.32
845.541	55.3
845.716	116.73
845.892	34.82
846.068	4.1
846.244	86.01
846.419	77.82
846.595	63.49
846.77	69.63
846.946	133.12
847.122	98.3
847.297	-16.38
847.473	126.97
847.648	-8.19
847.824	102.4
847.999	32.77
848.175	45.06
848.35	49.15
848.526	88.06
848.701	-43.01
848.876	81.92
849.052	106.49
849.227	14.34
849.403	79.87
849.578	34.82
849.753	0
849.929	36.86
850.104	-36.86
850.279	86.01
850.454	-28.67
850.63	32.77
850.805	30.72
850.98	38.91
851.155	96.25
851.33	57.34
851.505	83.97
851.681	0
851.856	18.43
852.031	86.01
852.206	-10.24
852.381	-18.43
852.556	38.91
852.731	112.64
852.906	22.53
853.081	4.1
853.256	126.97
853.431	2.05
853.606	30.72
853.781	53.25
853.956	-38.91
854.131	86.01
854.305	59.39
854.48	47.1
854.655	83.97
854.83	51.2
855.005	16.38
855.18	38.91
855.354	61.44
855.529	0
855.704	83.97
855.879	51.2
856.053	45.06
856.228	92.16
856.403	12.29
856.577	28.67
856.752	26.62
856.926	40.96
857.101	0
857.276	98.3
857.45	-30.72
857.625	108.54
857.799	94.21
857.974	38.91
858.148	10.24
858.323	40.96
858.497	0
858.672	32.77
858.846	-22.53
859.02	51.2
859.195	2.05
859.369	47.1
859.543	-77.82
859.718	36.86
859.892	20.48
860.066	116.73
860.241	32.77
860.415	47.1
860.589	47.1
860.763	47.1
860.938	61.44
861.112	34.82
861.286	67.58
861.46	36.86
861.634	-20.48
861.808	59.39
861.982	53.25
862.157	28.67
862.331	-28.67
862.505	118.78
862.679	-8.19
862.853	18.43
863.027	71.68
863.201	43.01
863.375	-18.43
863.549	24.58
863.722	40.96
863.896	38.91
864.07	83.97
864.244	26.62
864.418	75.77
864.592	67.58
864.766	67.58
864.939	32.77
865.113	57.34
865.287	22.53
865.461	47.1
865.634	8.19
865.808	8.19
865.982	38.91
866.156	112.64
866.329	45.06
866.503	108.54
866.676	47.1
866.85	-38.91
867.024	79.87
867.197	40.96
867.371	61.44
867.544	43.01
867.718	32.77
867.891	71.68
868.065	-16.38
868.238	-36.86
868.412	79.87
868.585	57.34
868.759	45.06
868.932	-20.48
869.105	-26.62
869.279	-63.49
869.452	18.43
869.625	4.1
869.799	61.44
869.972	-10.24
870.145	40.96
870.319	79.87
870.492	-6.14
870.665	24.58
870.838	8.19
871.011	-20.48
871.185	90.11
871.358	0
871.531	69.63
871.704	-22.53
871.877	63.49
872.05	22.53
872.223	83.97
872.396	20.48
872.569	-2.05
872.742	53.25
872.915	73.73
873.088	65.54
873.261	26.62
873.434	43.01
873.607	12.29
873.78	47.1
873.953	90.11
874.126	86.01
874.299	24.58
874.471	-71.68
874.644	-16.38
874.817	-4.1
874.99	73.73
875.163	-28.67
875.335	14.34
875.508	-32.77
875.681	24.58
875.853	18.43
876.026	36.86
876.199	12.29
876.371	102.4
876.544	20.48
876.717	14.34
876.889	-4.1
877.062	38.91
877.234	-38.91
877.407	18.43
877.579	40.96
877.752	49.15
877.924	12.29
878.097	65.54
878.269	8.19
878.442	24.58
878.614	34.82
878.786	43.01
878.959	14.34
879.131	34.82
879.303	47.1
879.476	12.29
879.648	47.1
879.82	18.43
879.993	32.77
880.165	-6.14
880.337	57.34
880.509	53.25
880.681	12.29
880.854	-14.34
881.026	45.06
881.198	38.91
881.37	8.19
881.542	36.86
881.714	-16.38
881.886	86.01
882.058	-4.1
882.23	32.77
882.402	26.62
882.574	16.38
882.746	59.39
882.918	-8.19
883.09	-12.29
883.262	57.34
883.434	8.19
883.606	32.77
883.778	20.48
883.95	81.92
884.122	45.06
884.293	71.68
884.465	14.34
884.637	57.34
884.809	18.43
884.98	-10.24
885.152	26.62
885.324	47.1
885.496	45.06
885.667	12.29
885.839	-22.53
886.011	-2.05
886.182	55.3
886.354	6.14
886.525	-61.44
886.697	-16.38
886.869	86.01
887.04	45.06
887.212	40.96
887.383	-24.58
887.555	-8.19
887.726	-20.48
887.897	4.1
888.069	-49.15
888.24	28.67
888.412	20.48
888.583	-16.38
888.754	-28.67
888.926	-20.48
889.097	-61.44
889.268	-57.34
889.44	24.58
889.611	-40.96
889.782	16.38
889.953	12.29
890.125	22.53
890.296	2.05
890.467	20.48
890.638	12.29
890.809	-12.29
890.98	-2.05
891.151	98.3
891.323	-12.29
891.494	-10.24
891.665	-10.24
891.836	16.38
892.007	24.58
892.178	59.39
892.349	-26.62
892.52	43.01
892.691	-22.53
892.862	94.21
893.032	28.67
893.203	-38.91
893.374	-49.15
893.545	88.06
893.716	-4.1
893.887	96.25
894.057	-34.82
894.228	53.25
894.399	-49.15
894.57	73.73
894.74	34.82
894.911	-26.62
895.082	20.48
895.253	-6.14
895.423	67.58
895.594	-24.58
895.764	28.67
895.935	55.3
896.106	-16.38
896.276	-4.1
896.447	81.92
896.617	-40.96
896.788	-24.58
896.958	22.53
897.129	12.29
897.299	-22.53
897.47	36.86
897.64	16.38
897.81	69.63
897.981	-18.43
898.151	-6.14
898.322	24.58
898.492	98.3
898.662	94.21
898.832	28.67
899.003	24.58
899.173	-30.72
899.343	65.54
899.513	18.43
