Data from USB4F104151__4__11-04-30-836.txt Node

Date: Wed Mar 12 11:04:30 EDT 2025
User: louis
Spectrometer: USB4F10415
Trigger mode: 4
Integration Time (sec): 2.000000E-2
Scans to average: 1
Electric dark correction enabled: true
Nonlinearity correction enabled: false
Boxcar width: 0
XAxis mode: Wavelengths
Number of Pixels in Spectrum: 3648
>>>>>Begin Spectral Data<<<<<
178.204	-72.02
178.424	-72.02
178.644	-72.02
178.864	-53.59
179.084	-74.07
179.304	-61.78
179.524	61.1
179.744	-6.49
179.964	24.23
180.184	-16.73
180.404	-22.87
180.624	-26.96
180.844	16.04
181.064	18.09
181.283	11.95
181.503	1.71
181.723	1.71
181.943	-10.58
182.163	79.53
182.383	-2.39
182.602	-31.06
182.822	13.99
183.042	18.09
183.262	20.14
183.482	46.76
183.701	73.39
183.921	52.91
184.141	48.81
184.361	75.43
184.58	91.82
184.8	34.47
185.02	69.29
185.239	1.71
185.459	20.14
185.679	11.95
185.898	13.99
186.118	40.62
186.338	18.09
186.557	36.52
186.777	40.62
186.997	42.67
187.216	57
187.436	106.15
187.655	116.39
187.875	28.33
188.095	-10.58
188.314	46.76
188.534	104.11
188.753	48.81
188.973	85.67
189.192	18.09
189.412	34.47
189.631	-6.49
189.851	34.47
190.07	38.57
190.29	42.67
190.509	-37.2
190.729	-2.39
190.948	-14.68
191.168	95.91
191.387	46.76
191.607	-14.68
191.826	26.28
192.045	-6.49
192.265	18.09
192.484	9.9
192.704	36.52
192.923	-10.58
193.142	77.48
193.362	44.71
193.581	50.86
193.8	50.86
194.02	5.8
194.239	48.81
194.458	3.75
194.678	-26.96
194.897	20.14
195.116	18.09
195.335	-20.82
195.555	5.8
195.774	36.52
195.993	59.05
196.212	52.91
196.432	57
196.651	54.95
196.87	57
197.089	83.63
197.308	50.86
197.528	95.91
197.747	-6.49
197.966	34.47
198.185	-26.96
198.404	1.71
198.623	7.85
198.842	52.91
199.062	38.57
199.281	54.95
199.5	75.43
199.719	75.43
199.938	18.09
200.157	13.99
200.376	44.71
200.595	-35.16
200.814	46.76
201.033	34.47
201.252	65.19
201.471	-8.53
201.69	112.3
201.909	38.57
202.128	11.95
202.347	-6.49
202.566	13.99
202.785	44.71
203.004	52.91
203.223	28.33
203.442	26.28
203.661	1.71
203.879	-2.39
204.098	30.38
204.317	-2.39
204.536	7.85
204.755	93.87
204.974	67.24
205.193	44.71
205.411	54.95
205.63	100.01
205.849	63.15
206.068	26.28
206.287	22.19
206.505	75.43
206.724	57
206.943	20.14
207.162	46.76
207.381	48.81
207.599	24.23
207.818	54.95
208.037	-6.49
208.255	59.05
208.474	13.99
208.693	122.54
208.911	36.52
209.13	54.95
209.349	-24.92
209.567	77.48
209.786	136.87
210.005	42.67
210.223	36.52
210.442	16.04
210.661	77.48
210.879	-29.01
211.098	122.54
211.316	1.71
211.535	30.38
211.753	48.81
211.972	30.38
212.191	57
212.409	-0.34
212.628	81.58
212.846	20.14
213.065	71.34
213.283	97.96
213.502	108.2
213.72	-24.92
213.938	24.23
214.157	69.29
214.375	38.57
214.594	44.71
214.812	28.33
215.031	57
215.249	9.9
215.467	26.28
215.686	42.67
215.904	-20.82
216.122	106.15
216.341	28.33
216.559	71.34
216.778	3.75
216.996	7.85
217.214	79.53
217.432	3.75
217.651	57
217.869	61.1
218.087	-8.53
218.306	9.9
218.524	81.58
218.742	-6.49
218.96	50.86
219.179	108.2
219.397	36.52
219.615	87.72
219.833	57
220.051	-37.2
220.27	143.02
220.488	18.09
220.706	9.9
220.924	63.15
221.142	61.1
221.36	38.57
221.578	40.62
221.796	48.81
222.015	13.99
222.233	97.96
222.451	97.96
222.669	50.86
222.887	67.24
223.105	42.67
223.323	9.9
223.541	38.57
223.759	67.24
223.977	-14.68
224.195	85.67
224.413	54.95
224.631	69.29
224.849	5.8
225.067	42.67
225.285	57
225.503	28.33
225.721	-53.59
225.939	63.15
226.157	48.81
226.375	169.64
226.592	20.14
226.81	106.15
227.028	57
227.246	54.95
227.464	42.67
227.682	44.71
227.9	20.14
228.117	61.1
228.335	50.86
228.553	28.33
228.771	52.91
228.989	91.82
229.206	24.23
229.424	34.47
229.642	48.81
229.86	-39.25
230.077	-43.35
230.295	18.09
230.513	-55.64
230.731	63.15
230.948	32.43
231.166	-10.58
231.384	16.04
231.601	11.95
231.819	-24.92
232.037	-31.06
232.254	18.09
232.472	32.43
232.689	5.8
232.907	59.05
233.125	83.63
233.342	9.9
233.56	42.67
233.777	46.76
233.995	3.75
234.213	65.19
234.43	50.86
234.648	83.63
234.865	79.53
235.083	-39.25
235.3	69.29
235.518	13.99
235.735	69.29
235.953	106.15
236.17	44.71
236.388	54.95
236.605	30.38
236.822	77.48
237.04	-12.63
237.257	36.52
237.475	44.71
237.692	59.05
237.909	1.71
238.127	5.8
238.344	40.62
238.562	22.19
238.779	54.95
238.996	34.47
239.214	42.67
239.431	38.57
239.648	32.43
239.865	22.19
240.083	85.67
240.3	13.99
240.517	-8.53
240.735	91.82
240.952	89.77
241.169	40.62
241.386	-14.68
241.603	13.99
241.821	20.14
242.038	79.53
242.255	75.43
242.472	32.43
242.689	59.05
242.907	75.43
243.124	-2.39
243.341	-41.3
243.558	18.09
243.775	-8.53
243.992	-59.73
244.209	34.47
244.426	89.77
244.643	-2.39
244.86	-8.53
245.078	42.67
245.295	104.11
245.512	153.26
245.729	52.91
245.946	93.87
246.163	67.24
246.38	38.57
246.597	28.33
246.814	-37.2
247.031	26.28
247.248	48.81
247.464	-31.06
247.681	69.29
247.898	79.53
248.115	67.24
248.332	59.05
248.549	81.58
248.766	54.95
248.983	118.44
249.2	81.58
249.417	24.23
249.633	83.63
249.85	63.15
250.067	77.48
250.284	69.29
250.501	-4.44
250.717	-16.73
250.934	-18.77
251.151	48.81
251.368	-24.92
251.585	50.86
251.801	36.52
252.018	100.01
252.235	46.76
252.451	50.86
252.668	-2.39
252.885	-0.34
253.102	50.86
253.318	26.28
253.535	1.71
253.752	13.99
253.968	-2.39
254.185	34.47
254.401	20.14
254.618	-24.92
254.835	22.19
255.051	81.58
255.268	81.58
255.484	-59.73
255.701	5.8
255.917	114.34
256.134	-59.73
256.351	48.81
256.567	-74.07
256.784	75.43
257	42.67
257.217	7.85
257.433	50.86
257.65	50.86
257.866	52.91
258.082	136.87
258.299	-22.87
258.515	73.39
258.732	69.29
258.948	118.44
259.165	18.09
259.381	24.23
259.597	118.44
259.814	59.05
260.03	20.14
260.246	89.77
260.463	91.82
260.679	30.38
260.895	63.15
261.112	1.71
261.328	20.14
261.544	95.91
261.761	71.34
261.977	18.09
262.193	-31.06
262.409	7.85
262.626	22.19
262.842	54.95
263.058	5.8
263.274	-31.06
263.49	73.39
263.707	46.76
263.923	38.57
264.139	73.39
264.355	81.58
264.571	77.48
264.787	26.28
265.004	69.29
265.22	7.85
265.436	132.78
265.652	67.24
265.868	54.95
266.084	1.71
266.3	85.67
266.516	42.67
266.732	-8.53
266.948	-10.58
267.164	20.14
267.38	24.23
267.596	77.48
267.812	67.24
268.028	-14.68
268.244	-31.06
268.46	5.8
268.676	38.57
268.892	46.76
269.108	3.75
269.324	22.19
269.54	42.67
269.756	32.43
269.972	-14.68
270.188	42.67
270.403	40.62
270.619	-6.49
270.835	120.49
271.051	-0.34
271.267	5.8
271.483	71.34
271.698	48.81
271.914	102.06
272.13	-8.53
272.346	18.09
272.562	95.91
272.777	79.53
272.993	-24.92
273.209	46.76
273.425	-0.34
273.64	-22.87
273.856	50.86
274.072	-16.73
274.287	57
274.503	9.9
274.719	79.53
274.934	1.71
275.15	50.86
275.366	38.57
275.581	34.47
275.797	61.1
276.012	24.23
276.228	9.9
276.444	5.8
276.659	38.57
276.875	122.54
277.09	-22.87
277.306	-18.77
277.521	106.15
277.737	42.67
277.952	91.82
278.168	24.23
278.383	26.28
278.599	28.33
278.814	-18.77
279.03	61.1
279.245	65.19
279.461	57
279.676	108.2
279.892	59.05
280.107	42.67
280.322	16.04
280.538	61.1
280.753	52.91
280.969	69.29
281.184	32.43
281.399	85.67
281.615	34.47
281.83	-2.39
282.045	-35.16
282.26	50.86
282.476	-0.34
282.691	118.44
282.906	34.47
283.122	46.76
283.337	1.71
283.552	38.57
283.767	46.76
283.983	32.43
284.198	-26.96
284.413	50.86
284.628	24.23
284.843	59.05
285.058	9.9
285.274	-4.44
285.489	83.63
285.704	5.8
285.919	50.86
286.134	50.86
286.349	44.71
286.564	-33.11
286.779	50.86
286.995	106.15
287.21	52.91
287.425	18.09
287.64	-0.34
287.855	38.57
288.07	-10.58
288.285	87.72
288.5	100.01
288.715	57
288.93	-26.96
289.145	1.71
289.36	65.19
289.575	83.63
289.79	63.15
290.004	48.81
290.219	149.16
290.434	18.09
290.649	30.38
290.864	-2.39
291.079	54.95
291.294	38.57
291.509	161.45
291.724	91.82
291.938	57
292.153	71.34
292.368	32.43
292.583	87.72
292.798	52.91
293.012	73.39
293.227	114.34
293.442	63.15
293.657	83.63
293.871	104.11
294.086	79.53
294.301	67.24
294.516	9.9
294.73	-8.53
294.945	-2.39
295.16	24.23
295.374	63.15
295.589	71.34
295.804	134.82
296.018	-31.06
296.233	42.67
296.447	75.43
296.662	34.47
296.877	91.82
297.091	71.34
297.306	69.29
297.52	73.39
297.735	59.05
297.949	77.48
298.164	9.9
298.378	9.9
298.593	18.09
298.807	26.28
299.022	34.47
299.236	-55.64
299.451	69.29
299.665	16.04
299.88	77.48
300.094	-29.01
300.309	59.05
300.523	108.2
300.737	-6.49
300.952	36.52
301.166	93.87
301.381	-24.92
301.595	-18.77
301.809	5.8
302.024	46.76
302.238	75.43
302.452	30.38
302.667	-12.63
302.881	-10.58
303.095	104.11
303.309	71.34
303.524	-22.87
303.738	18.09
303.952	-14.68
304.166	95.91
304.381	16.04
304.595	42.67
304.809	52.91
305.023	163.5
305.237	44.71
305.452	97.96
305.666	75.43
305.88	57
306.094	65.19
306.308	69.29
306.522	-2.39
306.736	-0.34
306.95	114.34
307.164	9.9
307.379	26.28
307.593	20.14
307.807	75.43
308.021	106.15
308.235	130.73
308.449	145.06
308.663	9.9
308.877	79.53
309.091	38.57
309.305	85.67
309.519	93.87
309.733	71.34
309.947	52.91
310.161	59.05
310.374	24.23
310.588	71.34
310.802	59.05
311.016	36.52
311.23	77.48
311.444	73.39
311.658	65.19
311.872	128.68
312.085	67.24
312.299	38.57
312.513	73.39
312.727	34.47
312.941	75.43
313.154	87.72
313.368	61.1
313.582	18.09
313.796	26.28
314.009	-26.96
314.223	59.05
314.437	71.34
314.651	48.81
314.864	87.72
315.078	34.47
315.292	81.58
315.505	-24.92
315.719	48.81
315.933	77.48
316.146	7.85
316.36	-6.49
316.573	100.01
316.787	-0.34
317.001	87.72
317.214	-6.49
317.428	30.38
317.641	63.15
317.855	83.63
318.068	87.72
318.282	13.99
318.495	108.2
318.709	28.33
318.922	-18.77
319.136	46.76
319.349	50.86
319.563	114.34
319.776	112.3
319.99	32.43
320.203	24.23
320.417	16.04
320.63	110.25
320.843	65.19
321.057	81.58
321.27	65.19
321.483	89.77
321.697	95.91
321.91	69.29
322.124	69.29
322.337	57
322.55	30.38
322.763	91.82
322.977	34.47
323.19	108.2
323.403	42.67
323.617	81.58
323.83	81.58
324.043	22.19
324.256	79.53
324.469	9.9
324.683	18.09
324.896	30.38
325.109	71.34
325.322	46.76
325.535	38.57
325.748	42.67
325.962	9.9
326.175	-16.73
326.388	87.72
326.601	79.53
326.814	67.24
327.027	75.43
327.24	89.77
327.453	22.19
327.666	44.71
327.879	83.63
328.092	30.38
328.305	73.39
328.518	73.39
328.731	71.34
328.944	16.04
329.157	89.77
329.37	95.91
329.583	69.29
329.796	57
330.009	85.67
330.222	1.71
330.435	-4.44
330.648	91.82
330.861	81.58
331.073	57
331.286	91.82
331.499	61.1
331.712	34.47
331.925	91.82
332.138	95.91
332.35	79.53
332.563	-10.58
332.776	73.39
332.989	-24.92
333.202	63.15
333.414	114.34
333.627	36.52
333.84	-6.49
334.053	67.24
334.265	3.75
334.478	73.39
334.691	-18.77
334.903	110.25
335.116	50.86
335.329	73.39
335.541	52.91
335.754	57
335.966	50.86
336.179	48.81
336.392	71.34
336.604	42.67
336.817	71.34
337.029	71.34
337.242	71.34
337.454	18.09
337.667	32.43
337.88	114.34
338.092	34.47
338.305	7.85
338.517	59.05
338.729	52.91
338.942	48.81
339.154	59.05
339.367	67.24
339.579	114.34
339.792	75.43
340.004	34.47
340.217	116.39
340.429	38.57
340.641	81.58
340.854	85.67
341.066	110.25
341.278	108.2
341.491	67.24
341.703	18.09
341.915	20.14
342.128	40.62
342.34	59.05
342.552	97.96
342.764	22.19
342.977	67.24
343.189	36.52
343.401	83.63
343.613	-8.53
343.826	42.67
344.038	13.99
344.25	102.06
344.462	30.38
344.674	110.25
344.886	30.38
345.099	22.19
345.311	-0.34
345.523	24.23
345.735	13.99
345.947	13.99
346.159	44.71
346.371	18.09
346.583	38.57
346.795	73.39
347.007	59.05
347.219	-26.96
347.431	42.67
347.643	81.58
347.855	52.91
348.067	-12.63
348.279	18.09
348.491	120.49
348.703	93.87
348.915	-16.73
349.127	30.38
349.339	7.85
349.551	79.53
349.763	5.8
349.975	87.72
350.187	22.19
350.399	63.15
350.61	54.95
350.822	114.34
351.034	59.05
351.246	79.53
351.458	122.54
351.669	50.86
351.881	110.25
352.093	83.63
352.305	42.67
352.517	61.1
352.728	73.39
352.94	67.24
353.152	93.87
353.363	52.91
353.575	67.24
353.787	81.58
353.999	52.91
354.21	57
354.422	118.44
354.633	73.39
354.845	63.15
355.057	100.01
355.268	112.3
355.48	32.43
355.692	81.58
355.903	22.19
356.115	28.33
356.326	87.72
356.538	91.82
356.749	67.24
356.961	61.1
357.172	57
357.384	67.24
357.595	110.25
357.807	38.57
358.018	18.09
358.23	30.38
358.441	54.95
358.653	143.02
358.864	57
359.075	34.47
359.287	34.47
359.498	87.72
359.709	85.67
359.921	95.91
360.132	-2.39
360.344	38.57
360.555	30.38
360.766	69.29
360.977	9.9
361.189	44.71
361.4	83.63
361.611	83.63
361.823	85.67
362.034	-14.68
362.245	22.19
362.456	110.25
362.667	36.52
362.879	46.76
363.09	-14.68
363.301	79.53
363.512	112.3
363.723	61.1
363.935	34.47
364.146	-8.53
364.357	40.62
364.568	3.75
364.779	5.8
364.99	-63.83
365.201	50.86
365.412	130.73
365.623	-35.16
365.834	48.81
366.045	81.58
366.256	87.72
366.467	48.81
366.678	28.33
366.889	16.04
367.1	48.81
367.311	85.67
367.522	75.43
367.733	46.76
367.944	104.11
368.155	97.96
368.366	73.39
368.577	75.43
368.788	73.39
368.999	130.73
369.209	145.06
369.42	145.06
369.631	114.34
369.842	114.34
370.053	102.06
370.264	38.57
370.474	151.21
370.685	42.67
370.896	61.1
371.107	93.87
371.317	116.39
371.528	73.39
371.739	108.2
371.95	61.1
372.16	89.77
372.371	42.67
372.582	26.28
372.792	73.39
373.003	59.05
373.214	116.39
373.424	44.71
373.635	40.62
373.846	52.91
374.056	85.67
374.267	30.38
374.477	69.29
374.688	40.62
374.898	36.52
375.109	38.57
375.319	97.96
375.53	40.62
375.74	28.33
375.951	87.72
376.161	75.43
376.372	93.87
376.582	108.2
376.793	59.05
377.003	122.54
377.214	116.39
377.424	79.53
377.635	34.47
377.845	87.72
378.055	26.28
378.266	42.67
378.476	52.91
378.686	67.24
378.897	69.29
379.107	59.05
379.317	42.67
379.528	34.47
379.738	124.58
379.948	65.19
380.158	57
380.369	112.3
380.579	104.11
380.789	87.72
380.999	110.25
381.21	59.05
381.42	116.39
381.63	161.45
381.84	138.92
382.05	57
382.261	36.52
382.471	67.24
382.681	81.58
382.891	75.43
383.101	79.53
383.311	40.62
383.521	110.25
383.731	151.21
383.941	83.63
384.151	102.06
384.361	24.23
384.571	124.58
384.781	59.05
384.991	102.06
385.201	95.91
385.411	26.28
385.621	65.19
385.831	122.54
386.041	16.04
386.251	40.62
386.461	155.3
386.671	18.09
386.881	87.72
387.091	-24.92
387.301	147.11
387.511	-2.39
387.72	46.76
387.93	50.86
388.14	-0.34
388.35	93.87
388.56	130.73
388.769	124.58
388.979	110.25
389.189	106.15
389.399	100.01
389.609	128.68
389.818	26.28
390.028	59.05
390.238	71.34
390.447	83.63
390.657	120.49
390.867	52.91
391.076	22.19
391.286	110.25
391.496	130.73
391.705	59.05
391.915	42.67
392.125	179.88
392.334	-6.49
392.544	116.39
392.753	67.24
392.963	104.11
393.172	126.63
393.382	54.95
393.591	83.63
393.801	91.82
394.01	143.02
394.22	120.49
394.429	97.96
394.639	67.24
394.848	126.63
395.058	91.82
395.267	75.43
395.477	122.54
395.686	77.48
395.895	128.68
396.105	77.48
396.314	122.54
396.524	122.54
396.733	134.82
396.942	114.34
397.152	110.25
397.361	77.48
397.57	128.68
397.78	183.98
397.989	136.87
398.198	122.54
398.407	83.63
398.617	97.96
398.826	87.72
399.035	112.3
399.244	161.45
399.453	134.82
399.663	188.07
399.872	167.59
400.081	93.87
400.29	124.58
400.499	104.11
400.708	175.78
400.917	134.82
401.127	153.26
401.336	97.96
401.545	165.54
401.754	212.65
401.963	147.11
402.172	110.25
402.381	126.63
402.59	155.3
402.799	87.72
403.008	169.64
403.217	175.78
403.426	194.22
403.635	186.02
403.844	204.46
404.053	151.21
404.262	171.69
404.471	188.07
404.68	75.43
404.888	183.98
405.097	126.63
405.306	151.21
405.515	186.02
405.724	233.13
405.933	214.7
406.142	202.41
406.35	204.46
406.559	145.06
406.768	145.06
406.977	253.61
407.185	235.18
407.394	224.94
407.603	229.03
407.812	265.89
408.02	233.13
408.229	315.05
408.438	278.18
408.646	249.51
408.855	308.9
409.064	282.28
409.272	257.7
409.481	364.2
409.69	302.76
409.898	265.89
410.107	333.48
410.315	321.19
410.524	345.77
410.733	378.53
410.941	401.06
411.15	407.2
411.358	345.77
411.567	458.4
411.775	468.64
411.984	491.17
412.192	431.78
412.401	376.48
412.609	538.27
412.818	556.71
413.026	493.22
413.234	523.94
413.443	585.38
413.651	632.48
413.86	603.81
414.068	698.02
414.276	564.9
414.485	650.91
414.693	749.22
414.901	761.5
415.11	839.33
415.318	704.16
415.526	777.89
415.734	773.79
415.943	865.95
416.151	949.92
416.359	898.72
416.567	824.99
416.776	1001.12
416.984	1052.31
417.192	1050.27
417.4	1076.89
417.608	1113.75
417.817	1054.36
418.025	1230.49
418.233	1271.45
418.441	1210.01
418.649	1312.41
418.857	1320.6
419.065	1476.24
419.273	1353.37
419.481	1363.61
419.689	1570.45
419.897	1629.84
420.105	1603.22
420.313	1775.25
420.521	1871.5
420.729	1642.13
420.937	1834.64
421.145	1906.32
421.353	1934.99
421.561	2098.83
421.769	2178.7
421.977	2209.42
422.185	2240.14
422.393	2381.45
422.601	2399.88
422.809	2442.89
423.017	2381.45
423.224	2668.16
423.432	2635.39
423.64	2543.24
423.848	3028.6
424.056	2879.1
424.263	3036.8
424.471	2989.69
424.679	3202.68
424.887	3559.03
425.094	3573.36
425.302	3507.83
425.51	3612.28
425.718	3737.2
425.925	3802.74
426.133	3890.8
426.341	4116.08
426.548	4292.2
426.756	4202.09
426.964	4275.82
427.171	4542.05
427.379	4666.98
427.586	4841.06
427.794	5013.09
428.001	5144.16
428.209	5391.96
428.417	5322.33
428.624	5803.6
428.832	5629.52
429.039	5785.17
429.247	5693.01
429.454	6116.94
429.662	6538.82
429.869	6176.33
430.076	6436.42
430.284	6469.19
430.491	6671.94
430.699	7235.13
430.906	6915.65
431.114	7032.38
431.321	7474.74
431.528	7671.35
431.736	8033.84
431.943	8314.41
432.15	8179.25
432.358	8541.74
432.565	8877.6
432.772	8674.85
432.979	9192.99
433.187	9381.4
433.394	9385.5
433.601	10163.73
433.808	10184.21
434.016	9985.55
434.223	10296.85
434.43	11193.86
434.637	10890.76
434.844	11304.45
435.052	11726.33
435.259	11744.76
435.466	11634.17
435.673	11630.07
435.88	12391.92
436.087	13069.8
436.294	13137.38
436.501	12879.33
436.708	13026.79
436.915	13528.54
437.122	14132.69
437.329	14321.1
437.537	14687.69
437.743	14634.44
437.95	14636.49
438.157	15547.84
438.364	16078.26
438.571	15998.39
438.778	16012.73
438.985	17474.98
439.192	16821.67
439.399	17407.39
439.606	17120.68
439.813	18150.81
440.02	19148.17
440.227	18750.86
440.433	18666.89
440.64	19225.99
440.847	19352.96
441.054	19555.71
441.261	20729.2
441.467	20729.2
441.674	21144.94
441.881	21869.92
442.088	21714.27
442.294	21585.25
442.501	22017.37
442.708	22689.1
442.914	23776.58
443.121	24323.38
443.328	23995.71
443.534	25775.39
443.741	24839.47
443.948	24448.31
444.154	26350.87
444.361	25869.6
444.568	26656.02
444.774	26426.65
444.981	26731.79
445.187	27401.48
445.394	28478.71
445.6	28155.13
445.807	30856.4
446.013	29533.42
446.22	30084.32
446.426	31499.47
446.633	31644.87
446.839	32691.38
447.046	31161.55
447.252	33068.21
447.459	32810.17
447.665	32826.55
447.871	34213.02
448.078	35724.43
448.284	34059.43
448.491	34942.1
448.697	36191.36
448.903	36535.42
449.11	36934.78
449.316	36162.69
449.522	36877.43
449.728	37792.87
449.935	37899.37
450.141	38165.6
450.347	38818.91
450.553	37510.25
450.76	37942.38
450.966	38988.89
451.172	38474.85
451.378	39701.58
451.584	38820.95
451.791	39658.57
451.997	39590.99
452.203	40354.88
452.409	39732.3
452.615	39550.03
452.821	38390.88
453.027	37799.02
453.233	39742.54
453.44	38087.78
453.646	38702.17
453.852	38919.26
454.058	39265.36
454.264	37850.22
454.47	38890.59
454.676	37985.38
454.882	39044.18
455.088	35689.61
455.294	35908.74
455.5	36322.43
455.705	36609.15
455.911	35226.77
456.117	34561.18
456.323	34120.87
456.529	32249.02
456.735	33365.17
456.941	32918.71
457.147	32056.51
457.352	30966.99
457.558	30592.22
457.764	30993.62
457.97	30018.78
458.176	29433.07
458.381	29168.88
458.587	27849.99
458.793	27749.64
458.999	26502.42
459.204	28267.77
459.41	27743.49
459.616	25769.25
459.821	25797.92
460.027	25511.21
460.233	25392.42
460.438	23680.32
460.644	23964.99
460.85	23000.4
461.055	22824.27
461.261	22650.19
461.466	21028.2
461.672	20659.57
461.878	21701.98
462.083	20575.6
462.289	20053.37
462.494	19862.91
462.7	18955.66
462.905	18498.96
463.111	18984.33
463.316	19385.73
463.522	18650.51
463.727	18675.09
463.932	18914.7
464.138	18423.19
464.343	18564.5
464.549	18177.43
464.754	18724.24
464.959	18447.76
465.165	18441.62
465.37	17501.6
465.575	17243.56
465.781	18025.88
465.986	17823.13
466.191	17423.78
466.397	17012.14
466.602	16321.97
466.807	16983.46
467.012	16979.37
467.218	16721.32
467.423	16530.86
467.628	16696.75
467.833	17272.23
468.038	16580.01
468.244	16450.99
468.449	16678.32
468.654	16188.85
468.859	16059.83
469.064	16192.95
469.269	15627.71
469.474	15379.9
469.679	16065.97
469.885	15422.91
470.09	15648.19
470.295	15609.28
470.5	15097.28
470.705	15312.32
470.91	15279.55
471.115	14702.03
471.32	15015.37
471.525	14849.48
471.73	14552.52
471.935	14435.79
472.139	13878.74
472.344	13977.05
472.549	13901.27
472.754	13757.91
472.959	13675.99
473.164	13209.06
473.369	13143.52
473.574	13430.24
473.778	13274.59
473.983	13090.27
474.188	13041.12
474.393	12400.11
474.598	12619.24
474.802	12510.7
475.007	12436.97
475.212	12406.25
475.417	12027.38
475.621	12006.9
475.826	11980.28
476.031	11965.94
476.235	11484.67
476.44	11605.5
476.645	11566.59
476.849	11607.55
477.054	11402.75
477.259	11222.53
477.463	11339.26
477.668	10868.23
477.872	11097.6
478.077	10972.68
478.282	10585.61
478.486	10548.75
478.691	10642.95
478.895	10366.48
479.1	10505.74
479.304	10593.8
479.509	10102.29
479.713	10552.84
479.918	9905.68
480.122	10071.57
480.326	10241.55
480.531	10216.97
480.735	10034.71
480.94	9965.07
481.144	10264.08
481.348	9649.69
481.553	10057.23
481.757	9819.67
481.961	9836.05
482.166	9821.72
482.37	9766.42
482.574	9598.49
482.778	9784.85
482.983	9954.83
483.187	9596.44
483.391	9926.16
483.595	9803.29
483.8	9453.08
484.004	9713.17
484.208	9885.2
484.412	9917.97
484.616	9733.65
484.821	9674.26
485.025	9479.71
485.229	9770.52
485.433	9629.21
485.637	9856.53
485.841	9647.64
486.045	9494.04
486.249	9704.98
486.453	9629.21
486.657	9596.44
486.861	9879.06
487.065	9442.84
487.269	9602.58
487.473	9594.39
487.677	9711.13
487.881	9811.48
488.085	9791
488.289	9643.54
488.493	9702.93
488.697	9805.33
488.901	9797.14
489.105	9674.26
489.309	9774.61
489.512	9850.39
489.716	9692.69
489.92	9758.23
490.124	9807.38
490.328	9938.45
490.531	9885.2
490.735	9885.2
490.939	9999.89
491.143	9999.89
491.346	9932.31
491.55	10145.3
491.754	10067.47
491.958	10067.47
492.161	10126.86
492.365	10409.48
492.569	10163.73
492.772	10286.61
492.976	10415.63
493.18	10618.38
493.383	10526.22
493.587	10573.32
493.79	10724.87
493.994	10552.84
494.197	10585.61
494.401	10841.61
494.605	10827.27
494.808	11017.73
495.012	11240.96
495.215	11140.61
495.419	11146.75
495.622	11126.27
495.825	11298.3
496.029	11312.64
496.232	11609.59
496.436	11554.3
496.639	11798.01
496.843	11857.4
497.046	12035.57
497.249	12174.83
497.453	12127.73
497.656	12170.74
497.859	12314.09
498.063	12479.98
498.266	12778.98
498.469	12531.18
498.673	12951.01
498.876	12908.01
499.079	13180.39
499.282	13110.75
499.485	13434.33
499.689	13762.01
499.892	13807.06
500.095	13739.48
500.298	14210.51
500.501	13960.66
500.705	14409.17
500.908	14638.54
501.111	14970.31
501.314	14818.76
501.517	15003.08
501.72	15330.75
501.923	14978.5
502.126	15865.27
502.329	15877.56
502.532	16000.44
502.735	15957.43
502.938	16068.02
503.141	16139.7
503.344	16485.81
503.547	16395.7
503.75	16829.87
503.953	17085.86
504.156	17192.36
504.359	17323.43
504.562	17651.1
504.765	18132.37
504.968	17857.95
505.17	18146.71
505.373	18146.71
505.576	18472.34
505.779	18636.17
505.982	18986.38
506.185	19285.38
506.387	19342.72
506.59	19559.81
506.793	19770.75
506.996	19803.52
507.198	20491.63
507.401	20305.27
507.604	20766.06
507.807	20942.19
508.009	20987.24
508.212	21026.15
508.415	21458.28
508.617	21656.93
508.82	21482.85
509.022	21828.96
509.225	22218.07
509.428	22531.41
509.63	22797.65
509.833	22908.24
510.035	23213.38
510.238	23002.44
510.44	23747.9
510.643	23954.75
510.845	24481.08
511.048	24073.53
511.25	24495.41
511.453	24333.62
511.655	25298.22
511.858	24945.97
512.06	25460.01
512.262	25781.54
512.465	25494.82
512.667	26139.93
512.87	26225.95
513.072	26365.21
513.274	27049.23
513.477	26916.11
513.679	27448.58
513.881	27950.34
514.084	28001.54
514.286	27880.71
514.488	28273.92
514.69	29068.53
514.893	28650.74
515.095	28822.77
515.297	29453.55
515.499	29633.77
515.701	30084.32
515.904	30340.32
516.106	30541.02
516.308	30667.99
516.51	31306.96
516.712	31061.2
516.914	31419.6
517.116	32177.34
517.318	31968.45
517.52	32042.18
517.722	32437.44
517.925	32664.76
518.127	33352.88
518.329	33389.74
518.531	33451.18
518.733	33866.92
518.935	34337.95
519.136	34356.38
519.338	34634.91
519.54	35486.86
519.742	35548.3
519.944	35759.24
520.146	36301.95
520.348	36392.06
520.55	36607.1
520.752	36783.23
520.954	37549.17
521.155	37080.18
521.357	37762.15
521.559	38370.4
521.761	38712.41
521.963	38206.56
522.164	38513.76
522.366	39029.85
522.568	39414.87
522.77	39400.53
522.971	39744.59
523.173	39840.84
523.375	40340.55
523.576	40123.46
523.778	40485.95
523.98	40801.34
524.181	40897.59
524.383	41002.04
524.584	41708.59
524.786	41792.56
524.988	41763.89
525.189	41993.26
525.391	42093.61
525.592	42687.52
525.794	42531.87
525.995	42685.47
526.197	42664.99
526.398	43281.43
526.6	43236.37
526.801	43545.62
527.003	43942.92
527.204	43586.58
527.406	44370.95
527.607	44258.31
527.808	44725.25
528.01	44119.05
528.211	44160.01
528.412	45323.26
528.614	44573.7
528.815	45108.22
529.016	45392.89
529.218	44911.61
529.419	45540.34
529.62	44844.03
529.822	45171.71
530.023	45601.78
530.224	45894.64
530.425	45763.57
530.626	45822.96
530.828	45337.59
531.029	46648.29
531.23	45904.88
531.431	45958.13
531.632	46007.28
531.833	46230.51
532.035	46273.51
532.236	46420.97
532.437	46382.05
532.638	46517.22
532.839	46353.38
533.04	46818.27
533.241	46099.44
533.442	47231.96
533.643	46533.6
533.844	46707.68
534.045	46519.27
534.246	46447.59
534.447	46760.93
534.648	46388.2
534.849	46744.55
535.05	46642.15
535.251	47002.59
535.451	46644.19
535.652	46781.41
535.853	46781.41
536.054	46988.25
536.255	47453.14
536.456	46205.93
536.657	47379.42
536.857	46695.39
537.058	46787.55
537.259	47299.54
537.46	47057.88
537.66	46672.87
537.861	47035.36
538.062	46846.94
538.263	47037.4
538.463	46685.15
538.664	46674.91
538.865	47252.44
539.065	47537.11
539.266	46515.17
539.466	47129.56
539.667	46291.94
539.868	47387.61
540.068	46930.91
540.269	46570.47
540.469	47025.12
540.67	46791.65
540.87	46838.75
541.071	46994.4
541.271	47084.51
541.472	47154.14
541.672	46490.6
541.873	46410.73
542.073	46101.48
542.274	46689.25
542.474	46652.39
542.675	46111.72
542.875	47053.79
543.075	46779.36
543.276	45820.91
543.476	47205.34
543.676	46142.44
543.877	46789.6
544.077	46873.57
544.277	46726.11
544.478	46525.41
544.678	46613.48
544.878	46593
545.078	46255.08
545.279	46193.64
545.479	46695.39
545.679	46593
545.879	46615.52
546.079	46648.29
546.28	46273.51
546.48	46027.76
546.68	46629.86
546.88	46701.54
547.08	46371.82
547.28	46210.03
547.48	45923.31
547.68	46103.53
547.88	45587.44
548.081	46650.34
548.281	46384.1
548.481	46091.24
548.681	46068.72
548.881	46261.22
549.081	46210.03
549.28	46201.83
549.48	46615.52
549.68	46380.01
549.88	46912.48
550.08	46269.42
550.28	46349.29
550.48	46169.07
550.68	46593
550.88	45882.35
551.08	46109.68
551.279	46302.18
551.479	45708.27
551.679	46033.9
551.879	45870.06
552.079	46214.12
552.278	45784.05
552.478	45992.94
552.678	46279.66
552.878	46152.68
553.077	45835.25
553.277	45335.54
553.477	46197.74
553.676	45587.44
553.876	45804.53
554.076	45302.78
554.275	45753.33
554.475	44864.51
554.674	45712.37
554.874	45689.84
555.074	45265.91
555.273	46132.2
555.473	45816.82
555.672	45323.26
555.872	45427.7
556.071	45405.17
556.271	45317.11
556.47	45280.25
556.67	45274.1
556.869	45190.14
557.068	45446.13
557.268	44991.48
557.467	44954.62
557.667	45048.83
557.866	45128.7
558.065	44780.54
558.265	44463.11
558.464	44461.06
558.663	45112.31
558.863	43928.59
559.062	45206.52
559.261	43795.47
559.461	44760.06
559.66	43807.76
559.859	44444.68
560.058	43887.63
560.258	43994.12
560.457	43981.84
560.656	44334.09
560.855	44184.58
561.054	44065.8
561.253	43736.08
561.453	43885.58
561.652	44018.7
561.851	43906.06
562.05	43676.69
562.249	43191.32
562.448	43965.45
562.647	43533.33
562.846	43832.33
563.045	43254.81
563.244	42703.9
563.443	43545.62
563.642	42533.92
563.841	42740.77
564.04	42593.31
564.239	43271.19
564.438	42146.86
564.637	42818.59
564.836	42609.7
565.035	42249.25
565.234	42398.76
565.432	42574.88
565.631	42077.22
565.83	42439.72
566.029	41837.61
566.228	42023.98
566.427	41583.66
566.625	41724.97
566.824	41047.1
567.023	41892.91
567.222	40856.64
567.42	41636.91
567.619	40987.71
567.818	41186.36
568.016	40715.33
568.215	41212.98
568.414	40696.89
568.612	41464.88
568.811	40563.78
569.01	40504.38
569.208	40332.36
569.407	40414.27
569.605	40014.92
569.804	40186.95
570.002	39818.32
570.201	39724.11
570.4	39701.58
570.598	39685.2
570.797	39273.56
570.995	39912.52
571.193	39324.75
571.392	39490.64
571.59	39261.27
571.789	39224.4
571.987	38984.79
572.186	39189.59
572.384	38712.41
572.582	38720.6
572.781	39228.5
572.979	38603.87
573.177	38669.4
573.376	38698.08
573.574	38288.48
573.772	38454.37
573.971	38184.04
574.169	38081.64
574.367	37842.03
574.565	38106.21
574.763	37596.27
574.962	37694.57
575.16	37082.23
575.358	37641.32
575.556	37129.33
575.754	37469.29
575.952	37086.32
576.151	37293.17
576.349	36723.83
576.547	36770.94
576.745	36623.48
576.943	36813.94
577.141	36514.94
577.339	36371.58
577.537	36508.8
577.735	36746.36
577.933	35894.41
578.131	35974.28
578.329	35800.2
578.527	35970.18
578.725	35843.21
578.923	36002.95
579.121	35757.19
579.319	35228.82
579.516	35667.08
579.714	35533.96
579.912	35290.26
580.11	35355.79
580.308	35112.08
580.506	35044.5
580.704	34684.06
580.901	34753.69
581.099	34833.56
581.297	34757.78
581.495	34503.84
581.692	34729.11
581.89	34507.93
582.088	34694.3
582.285	34139.3
582.483	34180.26
582.681	33764.52
582.878	33916.07
583.076	33762.47
583.274	34526.36
583.471	33533.1
583.669	33402.03
583.866	33533.1
584.064	33520.81
584.262	33096.88
584.459	33385.65
584.657	33268.91
584.854	33414.32
585.052	32945.33
585.249	33191.09
585.447	32840.89
585.644	32246.97
585.841	32545.98
586.039	33098.93
586.236	32156.86
586.434	32339.13
586.631	32279.74
586.828	31917.25
587.026	32138.43
587.223	32070.85
587.42	31450.31
587.618	31925.44
587.815	31608.01
588.012	31493.32
588.21	31276.24
588.407	31831.24
588.604	31282.38
588.801	30903.51
588.999	31214.8
589.196	31028.43
589.393	31050.96
589.59	31001.81
589.787	31087.82
589.984	30749.91
590.182	30579.93
590.379	30797.01
590.576	30282.97
590.773	30635.22
590.97	30221.53
591.167	30354.65
591.364	30031.07
591.561	30100.7
591.758	29586.66
591.955	29957.35
592.152	29969.63
592.349	29744.36
592.546	30133.47
592.743	29926.63
592.94	29381.87
593.137	29256.94
593.334	29682.92
593.531	28820.72
593.727	29222.12
593.924	29115.63
594.121	28972.27
594.318	29258.99
594.515	28613.88
594.712	28953.84
594.908	28419.32
595.105	29050.1
595.302	28132.61
595.499	28906.74
595.696	28185.85
595.892	27979.01
596.089	28392.7
596.286	28204.28
596.482	28134.65
596.679	27817.22
596.876	28011.78
597.072	27839.75
597.269	27981.06
597.466	27409.67
597.662	27561.22
597.859	27692.29
598.055	27317.51
598.252	27282.7
598.448	27372.81
598.645	26922.26
598.841	26750.23
599.038	27116.81
599.234	26952.98
599.431	26699.03
599.627	26537.24
599.824	26580.25
600.02	26586.39
600.217	26791.19
600.413	26422.55
600.609	26334.49
600.806	26391.83
601.002	26326.3
601.198	25961.76
601.395	25926.94
601.591	25677.09
601.787	26098.97
601.984	25716
602.18	25982.24
602.376	25591.08
602.572	25451.81
602.769	25345.32
602.965	25253.16
603.161	25085.23
603.357	25423.14
603.553	25257.26
603.75	25187.63
603.946	25199.91
604.142	25068.84
604.338	24679.73
604.534	24687.92
604.73	24554.8
604.926	24646.96
605.122	24818.99
605.318	24460.6
605.514	24186.17
605.71	24450.36
605.906	24460.6
606.102	24296.76
606.298	24032.57
606.494	23995.71
606.69	24065.34
606.886	24026.43
607.082	23682.37
607.278	24083.77
607.474	23489.86
607.67	23876.93
607.866	23760.19
608.062	23704.9
608.257	23905.6
608.453	23582.02
608.649	23459.14
608.845	23119.18
609.041	23399.75
609.236	23194.95
609.432	23405.89
609.628	23194.95
609.824	23240.01
610.019	23031.12
610.215	23024.97
610.411	22885.71
610.606	23199.05
610.802	22844.75
610.998	22854.99
611.193	22789.45
611.389	22590.8
611.584	22715.73
611.78	22426.96
611.976	22474.07
612.171	22592.85
612.367	22562.13
612.562	22318.42
612.758	22140.25
612.953	22007.13
613.149	22422.87
613.344	22189.4
613.539	22259.03
613.735	22496.6
613.93	22138.2
614.126	21847.39
614.321	22609.23
614.517	22037.85
614.712	21908.83
614.907	21857.63
615.103	22009.18
615.298	21925.21
615.493	21835.1
615.688	21423.46
615.884	21820.77
616.079	21697.89
616.274	21906.78
616.47	21634.4
616.665	21712.22
616.86	21499.23
617.055	21409.12
617.25	21572.96
617.445	21454.18
617.641	20925.8
617.836	21495.14
618.031	21034.35
618.226	21429.6
618.421	21110.12
618.616	21163.37
618.811	20761.97
619.006	21228.9
619.201	20755.82
619.396	20841.84
619.591	20442.48
619.786	20557.17
619.981	20305.27
620.176	20542.83
620.371	20100.47
620.566	20217.21
620.761	20178.29
620.956	20166.01
621.151	19721.6
621.346	19633.54
621.541	19516.8
621.735	19719.55
621.93	19592.58
622.125	19619.2
622.32	19002.76
622.515	19613.06
622.709	19209.61
622.904	19166.6
623.099	18902.41
623.294	19127.69
623.488	18556.3
623.683	18879.88
623.878	18371.99
624.072	18699.66
624.267	18279.83
624.462	18361.75
624.656	18179.48
624.851	18232.72
625.046	18075.03
625.24	17896.86
625.435	17675.68
625.629	17835.42
625.824	17462.69
626.018	17905.05
626.213	17184.16
626.407	17651.1
626.602	17151.4
626.796	17438.11
626.991	17186.21
627.185	17135.01
627.38	16883.11
627.574	16635.31
627.768	16846.25
627.963	16905.64
628.157	16395.7
628.352	16573.87
628.546	16072.12
628.74	16510.38
628.935	16364.98
629.129	16287.15
629.323	15967.67
629.517	16012.73
629.712	15869.37
629.906	16016.82
630.1	15674.81
630.294	15562.17
630.489	15537.6
630.683	15521.21
630.877	15246.79
631.071	15351.23
631.265	15326.66
631.459	15195.59
631.653	15011.27
631.848	15070.66
632.042	15003.08
632.236	14730.7
632.43	14839.24
632.624	14761.42
632.818	14591.44
633.012	14767.56
633.206	14515.66
633.4	14644.68
633.594	14251.47
633.788	14468.56
633.982	14165.46
634.176	14093.78
634.369	14114.26
634.563	13923.8
634.757	13936.09
634.951	14005.72
635.145	13784.54
635.339	13753.82
635.533	13745.62
635.726	13563.36
635.92	13481.44
636.114	13493.72
636.308	13387.23
636.501	13571.55
636.695	13153.76
636.889	13053.41
637.083	13051.36
637.276	12994.02
637.47	12985.83
637.664	12971.49
637.857	12774.89
638.051	12795.37
638.244	12705.26
638.438	12525.04
638.632	12643.82
638.825	12533.23
639.019	12295.66
639.212	12359.15
639.406	12140.02
639.599	12281.33
639.793	12355.05
639.986	11947.51
640.18	12219.89
640.373	11984.37
640.567	11703.8
640.76	11873.78
640.954	11691.51
641.147	11560.44
641.34	11644.41
641.534	11570.68
641.727	11652.6
641.92	11499
642.114	11404.8
642.307	11580.92
642.5	11187.71
642.694	10925.57
642.887	11161.09
643.08	11173.38
643.273	11003.39
643.467	11068.93
643.66	11023.87
643.853	10798.6
644.046	10653.19
644.239	10753.54
644.432	10745.35
644.626	10700.3
644.819	10464.78
645.012	10608.14
645.205	10581.51
645.398	10544.65
645.591	10417.68
645.784	10266.13
645.977	10180.11
646.17	10366.48
646.363	9963.03
646.556	10010.13
646.749	10090
646.942	10102.29
647.135	9958.93
647.328	9809.43
647.521	9926.16
647.714	9743.89
647.907	9743.89
648.099	9596.44
648.292	9731.61
648.485	9641.5
648.678	9301.53
648.871	9405.98
649.064	9352.73
649.256	9340.44
649.449	9317.92
649.642	9418.27
649.835	9154.08
650.027	9174.56
650.22	8875.56
650.413	9147.94
650.605	9149.98
650.798	8871.46
650.991	8939.04
651.183	8893.99
651.376	8842.79
651.568	8658.47
651.761	8781.35
651.954	8771.11
652.146	8713.77
652.339	8541.74
652.531	8633.89
652.724	8506.92
652.916	8302.12
653.109	8291.88
653.301	8453.67
653.494	8361.52
653.686	8234.54
653.879	8363.56
654.071	8207.92
654.263	8128.05
654.456	8134.19
654.648	8078.9
654.84	8021.55
655.033	8103.47
655.225	7976.5
655.417	8056.37
655.61	7933.49
655.802	7904.82
655.994	7728.69
656.186	7757.36
656.379	7880.24
656.571	7755.32
656.763	7736.88
656.955	7482.94
657.148	7495.22
657.34	7521.85
657.532	7552.57
657.724	7517.75
657.916	7497.27
658.108	7562.81
658.3	7538.23
658.492	7347.77
658.684	7259.71
658.876	7237.18
659.068	7161.41
659.26	7073.34
659.452	7020.1
659.644	7149.12
659.836	6997.57
660.028	7059.01
660.22	7001.66
660.412	6868.55
660.604	6694.47
660.796	6891.07
660.988	6747.72
661.18	6676.04
661.372	6749.76
661.563	6815.3
661.755	6700.61
661.947	6618.69
662.139	6680.13
662.331	6698.56
662.522	6544.97
662.714	6508.1
662.906	6454.86
663.097	6458.95
663.289	6522.44
663.481	6377.03
663.673	6202.96
663.864	6340.17
664.056	6233.68
664.247	6188.62
664.439	6069.84
664.631	6383.18
664.822	6071.89
665.014	6178.38
665.205	6170.19
665.397	6022.73
665.588	6035.02
665.78	6221.39
665.971	5930.58
666.163	6010.45
666.354	5826.13
666.546	5955.15
666.737	5942.86
666.929	5819.99
667.12	5787.22
667.311	5822.03
667.503	5715.54
667.694	5871.19
667.885	5680.72
668.077	5803.6
668.268	5572.18
668.459	5748.31
668.651	5494.36
668.842	5482.07
669.033	5555.8
669.224	5486.17
669.416	5678.68
669.607	5525.08
669.798	5426.78
669.989	5391.96
670.18	5420.63
670.371	5461.59
670.563	5310.04
670.754	5340.76
670.945	5260.89
671.136	5336.67
671.327	5162.59
671.518	5232.22
671.709	5246.55
671.9	5293.66
672.091	5383.77
672.282	4998.75
672.473	5109.34
672.664	5119.58
672.855	5041.76
673.046	5111.39
673.237	5119.58
673.428	5101.15
673.619	5097.05
673.809	4959.84
674	4994.65
674.191	5095
674.382	5121.63
674.573	4900.45
674.764	4884.06
674.954	4773.47
675.145	4884.06
675.336	4877.92
675.527	4896.35
675.717	4779.62
675.908	4681.32
676.099	4894.3
676.289	4865.63
676.48	4812.39
676.671	4738.66
676.861	4873.82
677.052	4646.5
677.243	4742.75
677.433	4839.01
677.624	4726.37
677.814	4712.03
678.005	4761.19
678.195	4687.46
678.386	4654.69
678.576	4519.53
678.767	4583.01
678.957	4615.78
679.148	4648.55
679.338	4435.56
679.529	4705.89
679.719	4574.82
679.909	4623.97
680.1	4562.53
680.29	4617.83
680.481	4587.11
680.671	4476.52
680.861	4511.33
681.052	4515.43
681.242	4433.51
681.432	4548.2
681.622	4367.98
681.813	4408.94
682.003	4484.71
682.193	4376.17
682.383	4527.72
682.573	4523.62
682.764	4400.74
682.954	4396.65
683.144	4382.31
683.334	4353.64
683.524	4439.65
683.714	4331.11
683.904	4374.12
684.094	4202.09
684.284	4312.68
684.474	4183.66
684.664	4279.91
684.854	4255.34
685.044	4353.64
685.234	4097.64
685.424	4265.58
685.614	4279.91
685.804	4279.91
685.994	4169.32
686.184	4218.47
686.374	4150.89
686.564	4060.78
686.753	4218.47
686.943	4044.4
687.133	4224.62
687.323	3948.14
687.513	3978.86
687.702	3880.56
687.892	3886.7
688.082	3829.36
688.272	3991.15
688.461	3999.34
688.651	3958.38
688.841	4028.01
689.03	3974.77
689.22	3929.71
689.41	3874.42
689.599	3683.95
689.789	3993.2
689.979	3712.63
690.168	3931.76
690.358	3743.35
690.547	3802.74
690.737	3843.7
690.926	3696.24
691.116	3640.95
691.305	3729.01
691.495	3767.92
691.684	3616.37
691.874	3655.28
692.063	3733.11
692.252	3667.57
692.442	3714.67
692.631	3643
692.82	3599.99
693.01	3516.02
693.199	3645.04
693.388	3548.79
693.578	3563.12
693.767	3534.45
693.956	3489.4
694.146	3599.99
694.335	3458.68
694.524	3399.29
694.713	3559.03
694.902	3384.95
695.092	3446.39
695.281	3442.29
695.47	3503.73
695.659	3255.93
695.848	3454.58
696.037	3432.05
696.226	3411.57
696.415	3446.39
696.604	3260.02
696.793	3307.13
696.982	3243.64
697.171	3358.33
697.36	3475.06
697.549	3350.14
697.738	3434.1
697.927	3280.5
698.116	3321.46
698.305	3288.7
698.494	3401.33
698.683	3284.6
698.872	3405.43
699.061	3235.45
699.25	3225.21
699.438	3272.31
699.627	3380.86
699.816	3374.71
700.005	3227.26
700.193	3401.33
700.382	3370.62
700.571	3219.07
700.76	3339.9
700.948	3354.23
701.137	3350.14
701.326	3282.55
701.514	3196.54
701.703	3280.5
701.892	3311.22
702.08	3280.5
702.269	3262.07
702.457	3341.94
702.646	3243.64
702.834	3364.47
703.023	3257.98
703.212	3167.87
703.4	3249.79
703.589	3200.63
703.777	3303.03
703.965	3235.45
704.154	3227.26
704.342	3204.73
704.531	3161.72
704.719	3143.29
704.907	3241.59
705.096	3202.68
705.284	3147.39
705.472	3192.44
705.661	3243.64
705.849	3257.98
706.037	3143.29
706.226	3161.72
706.414	3315.32
706.602	3241.59
706.79	3171.96
706.979	3221.11
707.167	3186.3
707.355	3184.25
707.543	3212.92
707.731	3200.63
707.919	3112.57
708.107	3186.3
708.296	3298.94
708.484	3157.63
708.672	3075.71
708.86	3034.75
709.048	3180.15
709.236	3196.54
709.424	3139.19
709.612	3126.91
709.8	3167.87
709.988	3180.15
710.176	3231.35
710.364	3131
710.551	3100.28
710.739	2963.07
710.927	3102.33
711.115	2991.74
711.303	3083.9
711.491	3094.14
711.679	3088
711.866	2997.88
712.054	3163.77
712.242	3077.76
712.43	3217.02
712.617	3047.04
712.805	3069.56
712.993	2991.74
713.181	3096.19
713.368	3110.52
713.556	3038.84
713.744	3042.94
713.931	2997.88
714.119	3018.36
714.306	3079.8
714.494	3096.19
714.682	3001.98
714.869	3016.32
715.057	3153.53
715.244	3010.17
715.432	3171.96
715.619	3016.32
715.807	2981.5
715.994	3032.7
716.182	2936.45
716.369	3110.52
716.556	3073.66
716.744	3016.32
716.931	3137.15
717.119	3069.56
717.306	2987.65
717.493	3124.86
717.681	2989.69
717.868	3051.13
718.055	2934.4
718.242	3034.75
718.43	2997.88
718.617	2991.74
718.804	3024.51
718.991	2936.45
719.179	3016.32
719.366	2948.73
719.553	3004.03
719.74	2889.34
719.927	2961.02
720.114	2922.11
720.301	3040.89
720.488	2905.73
720.676	2848.38
720.863	2991.74
721.05	2958.97
721.237	2938.49
721.424	2905.73
721.611	2944.64
721.798	2911.87
721.985	2901.63
722.172	3016.32
722.358	3044.99
722.545	3012.22
722.732	2938.49
722.919	2997.88
723.106	2971.26
723.293	2977.41
723.48	2739.84
723.667	2829.95
723.853	2965.12
724.04	2940.54
724.227	2973.31
724.414	2897.53
724.6	2954.88
724.787	2748.03
724.974	2911.87
725.161	2836.1
725.347	2829.95
725.534	2872.96
725.72	2809.47
725.907	2920.06
726.094	2913.92
726.28	2909.82
726.467	2805.38
726.653	2922.11
726.84	2948.73
727.027	2797.18
727.213	2809.47
727.4	2952.83
727.586	2860.67
727.773	2848.38
727.959	2952.83
728.145	2918.01
728.332	2866.81
728.518	2877.05
728.705	2856.58
728.891	2989.69
729.077	2774.66
729.264	2739.84
729.45	2803.33
729.636	2868.86
729.823	2799.23
730.009	2758.27
730.195	2836.1
730.382	2836.1
730.568	2838.14
730.754	2866.81
730.94	2881.15
731.126	2827.9
731.313	2856.58
731.499	2770.56
731.685	2856.58
731.871	2807.42
732.057	2829.95
732.243	2823.81
732.429	2750.08
732.615	2940.54
732.801	2774.66
732.987	2924.16
733.173	2895.49
733.359	2760.32
733.545	2811.52
733.731	2768.51
733.917	2868.86
734.103	2754.18
734.289	2782.85
734.475	2776.7
734.661	2776.7
734.847	2696.83
735.033	2729.6
735.219	2649.73
735.404	2737.79
735.59	2793.09
735.776	2733.7
735.962	2805.38
736.148	2825.86
736.333	2721.41
736.519	2846.34
736.705	2690.69
736.89	2690.69
737.076	2717.31
737.262	2709.12
737.447	2688.64
737.633	2692.74
737.819	2690.69
738.004	2801.28
738.19	2764.42
738.375	2700.93
738.561	2690.69
738.747	2676.35
738.932	2584.2
739.118	2662.02
739.303	2725.51
739.489	2539.14
739.674	2668.16
739.859	2596.48
740.045	2604.67
740.23	2709.12
740.416	2631.3
740.601	2537.09
740.786	2584.2
740.972	2451.08
741.157	2588.29
741.342	2606.72
741.528	2520.71
741.713	2629.25
741.898	2569.86
742.084	2559.62
742.269	2477.7
742.454	2504.32
742.639	2612.87
742.824	2502.28
743.01	2520.71
743.195	2567.81
743.38	2467.46
743.565	2492.04
743.75	2483.84
743.935	2498.18
744.12	2467.46
744.305	2403.97
744.49	2401.93
744.675	2401.93
744.86	2412.17
745.045	2424.45
745.23	2449.03
745.415	2334.34
745.6	2285.19
745.785	2315.91
745.97	2285.19
746.155	2240.14
746.34	2322.06
746.525	2250.38
746.71	2340.49
746.895	2211.46
747.079	2299.53
747.264	2291.34
747.449	2317.96
747.634	2201.23
747.819	2213.51
748.003	2303.62
748.188	2233.99
748.373	2211.46
748.557	2064.01
748.742	2233.99
748.927	2131.59
749.111	2119.31
749.296	2070.16
749.481	1973.9
749.665	1975.95
749.85	2043.53
750.034	1947.28
750.219	2000.52
750.404	2031.24
750.588	2027.15
750.773	2000.52
750.957	1967.76
751.141	2006.67
751.326	2000.52
751.51	1945.23
751.695	1941.13
751.879	1894.03
752.064	1896.08
752.248	1883.79
752.432	1887.89
752.617	1914.51
752.801	1986.19
752.985	1771.15
753.17	1818.25
753.354	1685.14
753.538	1754.77
753.722	1779.34
753.907	1740.43
754.091	1791.63
754.275	1713.81
754.459	1789.58
754.643	1756.82
754.828	1728.14
755.012	1771.15
755.196	1623.7
755.38	1666.71
755.564	1582.74
755.748	1625.75
755.932	1588.88
756.116	1625.75
756.3	1644.18
756.484	1658.51
756.668	1509.01
756.852	1611.41
757.036	1586.83
757.22	1584.79
757.404	1525.4
757.588	1625.75
757.772	1570.45
757.956	1478.29
758.14	1488.53
758.323	1427.09
758.507	1457.81
758.691	1451.67
758.875	1369.75
759.059	1543.83
759.242	1427.09
759.426	1423
759.61	1408.66
759.794	1386.13
759.977	1427.09
760.161	1474.2
760.345	1490.58
760.528	1420.95
760.712	1482.39
760.895	1386.13
761.079	1371.8
761.263	1369.75
761.446	1361.56
761.63	1304.21
761.813	1390.23
761.997	1212.06
762.18	1326.74
762.364	1336.98
762.547	1275.54
762.731	1246.87
762.914	1296.02
763.098	1267.35
763.281	1232.54
763.464	1244.82
763.648	1255.06
763.831	1308.31
764.015	1261.21
764.198	1324.69
764.381	1255.06
764.564	1207.96
764.748	1218.2
764.931	1203.86
765.114	1255.06
765.297	1238.68
765.481	1242.78
765.664	1218.2
765.847	1201.82
766.03	1250.97
766.213	1183.38
766.397	1203.86
766.58	1207.96
766.763	1160.86
766.946	1236.63
767.129	1193.62
767.312	1197.72
767.495	1130.14
767.678	1148.57
767.861	1242.78
768.044	1115.8
768.227	1173.14
768.41	1126.04
768.593	1021.6
768.776	1078.94
768.959	1031.83
769.142	1128.09
769.324	1210.01
769.507	1154.71
769.69	1046.17
769.873	1197.72
770.056	1121.95
770.239	1126.04
770.421	1152.67
770.604	1169.05
770.787	1015.45
770.97	1021.6
771.152	1097.37
771.335	1023.64
771.518	1029.79
771.7	988.83
771.883	1121.95
772.066	1001.12
772.248	984.73
772.431	1052.31
772.613	921.24
772.796	1019.55
772.978	1019.55
773.161	1095.32
773.343	908.96
773.526	999.07
773.708	939.68
773.891	890.53
774.073	939.68
774.256	927.39
774.438	925.34
774.621	941.72
774.803	911
774.985	972.44
775.168	925.34
775.35	921.24
775.532	929.44
775.715	915.1
775.897	915.1
776.079	882.33
776.261	904.86
776.444	898.72
776.626	829.09
776.808	831.13
776.99	824.99
777.173	902.81
777.355	882.33
777.537	835.23
777.719	755.36
777.901	824.99
778.083	779.93
778.265	796.32
778.447	751.26
778.629	755.36
778.811	753.31
778.993	810.65
779.175	882.33
779.357	757.41
779.539	734.88
779.721	741.02
779.903	757.41
780.085	687.78
780.267	738.98
780.449	743.07
780.631	657.06
780.812	710.3
780.994	757.41
781.176	655.01
781.358	657.06
781.54	712.35
781.721	743.07
781.903	745.12
782.085	743.07
782.267	657.06
782.448	679.58
782.63	638.62
782.812	632.48
782.993	634.53
783.175	679.58
783.357	577.19
783.538	657.06
783.72	667.3
783.901	612
784.083	661.15
784.264	554.66
784.446	622.24
784.627	616.1
784.809	548.51
784.99	644.77
785.172	585.38
785.353	540.32
785.535	587.43
785.716	585.38
785.897	556.71
786.079	519.84
786.26	495.27
786.441	456.36
786.623	480.93
786.804	517.79
786.985	499.36
787.167	583.33
787.348	499.36
787.529	525.99
787.71	489.12
787.891	425.64
788.073	583.33
788.254	597.67
788.435	573.09
788.616	497.32
788.797	452.26
788.978	554.66
789.159	507.55
789.34	480.93
789.522	462.5
789.703	429.73
789.884	439.97
790.065	507.55
790.246	552.61
790.427	347.81
790.607	480.93
790.788	556.71
790.969	439.97
791.15	450.21
791.331	437.92
791.512	431.78
791.693	409.25
791.874	392.87
792.054	472.74
792.235	437.92
792.416	460.45
792.597	507.55
792.778	462.5
792.958	474.79
793.139	452.26
793.32	435.88
793.5	413.35
793.681	435.88
793.862	386.72
794.042	478.88
794.223	374.44
794.404	386.72
794.584	419.49
794.765	409.25
794.945	390.82
795.126	472.74
795.306	384.68
795.487	353.96
795.667	362.15
795.848	364.2
796.028	356.01
796.209	433.83
796.389	370.34
796.57	308.9
796.75	300.71
796.93	409.25
797.111	337.57
797.291	345.77
797.471	358.05
797.652	331.43
797.832	360.1
798.012	339.62
798.192	353.96
798.373	329.38
798.553	231.08
798.733	321.19
798.913	351.91
799.093	329.38
799.274	341.67
799.454	417.44
799.634	343.72
799.814	243.37
799.994	351.91
800.174	405.16
800.354	274.09
800.534	202.41
800.714	300.71
800.894	323.24
801.074	278.18
801.254	255.65
801.434	327.33
801.614	321.19
801.794	315.05
801.974	636.58
802.154	255.65
802.334	356.01
802.514	282.28
802.693	288.42
802.873	300.71
803.053	308.9
803.233	235.18
803.413	308.9
803.592	226.98
803.772	317.09
803.952	292.52
804.131	229.03
804.311	206.5
804.491	337.57
804.67	308.9
804.85	210.6
805.03	284.33
805.209	298.66
805.389	276.13
805.568	259.75
805.748	278.18
805.928	300.71
806.107	255.65
806.287	257.7
806.466	267.94
806.646	298.66
806.825	288.42
807.004	202.41
807.184	247.46
807.363	175.78
807.543	206.5
807.722	202.41
807.901	233.13
808.081	222.89
808.26	196.26
808.439	306.85
808.619	278.18
808.798	206.5
808.977	298.66
809.156	243.37
809.336	194.22
809.515	235.18
809.694	233.13
809.873	276.13
810.052	265.89
810.231	247.46
810.411	235.18
810.59	274.09
810.769	269.99
810.948	177.83
811.127	143.02
811.306	181.93
811.485	224.94
811.664	161.45
811.843	206.5
812.022	134.82
812.201	183.98
812.38	237.22
812.559	173.74
812.737	198.31
812.916	143.02
813.095	190.12
813.274	204.46
813.453	138.92
813.632	212.65
813.811	274.09
813.989	161.45
814.168	173.74
814.347	235.18
814.526	155.3
814.704	192.17
814.883	204.46
815.062	198.31
815.24	153.26
815.419	157.35
815.598	157.35
815.776	167.59
815.955	243.37
816.133	153.26
816.312	192.17
816.49	190.12
816.669	149.16
816.847	173.74
817.026	171.69
817.204	151.21
817.383	183.98
817.561	122.54
817.74	210.6
817.918	220.84
818.097	169.64
818.275	212.65
818.453	183.98
818.632	122.54
818.81	208.55
818.988	132.78
819.167	122.54
819.345	138.92
819.523	200.36
819.701	171.69
819.879	237.22
820.058	204.46
820.236	116.39
820.414	179.88
820.592	204.46
820.77	124.58
820.948	183.98
821.127	167.59
821.305	87.72
821.483	114.34
821.661	163.5
821.839	136.87
822.017	132.78
822.195	118.44
822.373	181.93
822.551	114.34
822.729	138.92
822.907	188.07
823.085	171.69
823.262	151.21
823.44	149.16
823.618	83.63
823.796	149.16
823.974	95.91
824.152	140.97
824.329	171.69
824.507	116.39
824.685	173.74
824.863	122.54
825.04	173.74
825.218	44.71
825.396	161.45
825.574	95.91
825.751	179.88
825.929	165.54
826.107	126.63
826.284	151.21
826.462	143.02
826.639	171.69
826.817	132.78
826.994	122.54
827.172	87.72
827.349	183.98
827.527	161.45
827.704	157.35
827.882	130.73
828.059	91.82
828.237	194.22
828.414	97.96
828.591	147.11
828.769	93.87
828.946	95.91
829.124	61.1
829.301	249.51
829.478	114.34
829.655	100.01
829.833	167.59
830.01	87.72
830.187	153.26
830.364	81.58
830.542	114.34
830.719	159.4
830.896	122.54
831.073	136.87
831.25	200.36
831.427	114.34
831.604	175.78
831.782	108.2
831.959	149.16
832.136	157.35
832.313	63.15
832.49	59.05
832.667	112.3
832.844	97.96
833.021	140.97
833.198	67.24
833.374	130.73
833.551	167.59
833.728	100.01
833.905	89.77
834.082	52.91
834.259	104.11
834.436	130.73
834.612	122.54
834.789	97.96
834.966	100.01
835.143	136.87
835.319	114.34
835.496	71.34
835.673	83.63
835.85	38.57
836.026	83.63
836.203	110.25
836.38	155.3
836.556	124.58
836.733	126.63
836.909	149.16
837.086	91.82
837.262	87.72
837.439	130.73
837.616	67.24
837.792	67.24
837.968	102.06
838.145	24.23
838.321	143.02
838.498	91.82
838.674	124.58
838.851	138.92
839.027	120.49
839.203	102.06
839.38	83.63
839.556	36.52
839.732	165.54
839.909	59.05
840.085	218.79
840.261	-10.58
840.437	63.15
840.614	106.15
840.79	177.83
840.966	75.43
841.142	83.63
841.318	46.76
841.494	63.15
841.671	130.73
841.847	73.39
842.023	44.71
842.199	83.63
842.375	61.1
842.551	100.01
842.727	-14.68
842.903	147.11
843.079	46.76
843.255	91.82
843.431	87.72
843.607	120.49
843.783	26.28
843.959	81.58
844.134	97.96
844.31	100.01
844.486	128.68
844.662	95.91
844.838	93.87
845.013	59.05
845.189	81.58
845.365	75.43
845.541	106.15
845.716	46.76
845.892	83.63
846.068	104.11
846.244	42.67
846.419	108.2
846.595	100.01
846.77	28.33
846.946	97.96
847.122	13.99
847.297	24.23
847.473	112.3
847.648	30.38
847.824	67.24
847.999	48.81
848.175	59.05
848.35	122.54
848.526	89.77
848.701	155.3
848.876	42.67
849.052	83.63
849.227	34.47
849.403	89.77
849.578	87.72
849.753	22.19
849.929	57
850.104	44.71
850.279	59.05
850.454	52.91
850.63	59.05
850.805	38.57
850.98	71.34
851.155	-35.16
851.33	165.54
851.505	57
851.681	-18.77
851.856	69.29
852.031	46.76
852.206	71.34
852.381	42.67
852.556	9.9
852.731	122.54
852.906	75.43
853.081	87.72
853.256	61.1
853.431	13.99
853.606	44.71
853.781	-2.39
853.956	3.75
854.131	155.3
854.305	46.76
854.48	-37.2
854.655	54.95
854.83	-55.64
855.005	22.19
855.18	22.19
855.354	61.1
855.529	69.29
855.704	-22.87
855.879	54.95
856.053	59.05
856.228	63.15
856.403	50.86
856.577	102.06
856.752	3.75
856.926	50.86
857.101	120.49
857.276	65.19
857.45	32.43
857.625	59.05
857.799	65.19
857.974	79.53
858.148	-12.63
858.323	42.67
858.497	-14.68
858.672	34.47
858.846	26.28
859.02	69.29
859.195	57
859.369	81.58
859.543	48.81
859.718	16.04
859.892	18.09
860.066	38.57
860.241	26.28
860.415	32.43
860.589	77.48
860.763	11.95
860.938	73.39
861.112	95.91
861.286	1.71
861.46	112.3
861.634	36.52
861.808	57
861.982	26.28
862.157	79.53
862.331	-63.83
862.505	7.85
862.679	77.48
862.853	40.62
863.027	13.99
863.201	116.39
863.375	63.15
863.549	18.09
863.722	20.14
863.896	-20.82
864.07	-24.92
864.244	69.29
864.418	57
864.592	28.33
864.766	59.05
864.939	38.57
865.113	50.86
865.287	24.23
865.461	-6.49
865.634	73.39
865.808	24.23
865.982	32.43
866.156	42.67
866.329	38.57
866.503	-2.39
866.676	32.43
866.85	26.28
867.024	16.04
867.197	42.67
867.371	87.72
867.544	36.52
867.718	7.85
867.891	-8.53
868.065	9.9
868.238	7.85
868.412	95.91
868.585	7.85
868.759	34.47
868.932	-16.73
869.105	24.23
869.279	79.53
869.452	-29.01
869.625	1.71
869.799	26.28
869.972	-35.16
870.145	-2.39
870.319	24.23
870.492	3.75
870.665	57
870.838	18.09
871.011	5.8
871.185	24.23
871.358	57
871.531	75.43
871.704	36.52
871.877	50.86
872.05	28.33
872.223	18.09
872.396	1.71
872.569	32.43
872.742	48.81
872.915	40.62
873.088	-24.92
873.261	-63.83
873.434	38.57
873.607	26.28
873.78	-4.44
873.953	-24.92
874.126	36.52
874.299	69.29
874.471	-22.87
874.644	-14.68
874.817	61.1
874.99	108.2
875.163	-6.49
875.335	36.52
875.508	18.09
875.681	38.57
875.853	-65.88
876.026	46.76
876.199	24.23
876.371	18.09
876.544	-12.63
876.717	-37.2
876.889	24.23
877.062	61.1
877.234	46.76
877.407	81.58
877.579	22.19
877.752	132.78
877.924	20.14
878.097	73.39
878.269	-0.34
878.442	24.23
878.614	-4.44
878.786	42.67
878.959	50.86
879.131	-2.39
879.303	26.28
879.476	46.76
879.648	24.23
879.82	42.67
879.993	-10.58
880.165	9.9
880.337	-12.63
880.509	65.19
880.681	48.81
880.854	13.99
881.026	-39.25
881.198	79.53
881.37	63.15
881.542	-6.49
881.714	9.9
881.886	-16.73
882.058	-8.53
882.23	71.34
882.402	9.9
882.574	-24.92
882.746	5.8
882.918	61.1
883.09	30.38
883.262	18.09
883.434	16.04
883.606	-10.58
883.778	3.75
883.95	73.39
884.122	1.71
884.293	114.34
884.465	-2.39
884.637	22.19
884.809	59.05
884.98	-22.87
885.152	28.33
885.324	5.8
885.496	24.23
885.667	36.52
885.839	50.86
886.011	114.34
886.182	11.95
886.354	36.52
886.525	-31.06
886.697	106.15
886.869	1.71
887.04	22.19
887.212	18.09
887.383	71.34
887.555	30.38
887.726	102.06
887.897	48.81
888.069	22.19
888.24	18.09
888.412	36.52
888.583	-67.92
888.754	75.43
888.926	46.76
889.097	16.04
889.268	9.9
889.44	-45.4
889.611	9.9
889.782	16.04
889.953	-33.11
890.125	-16.73
890.296	13.99
890.467	38.57
890.638	22.19
890.809	48.81
890.98	-37.2
891.151	1.71
891.323	50.86
891.494	75.43
891.665	22.19
891.836	54.95
892.007	3.75
892.178	65.19
892.349	5.8
892.52	26.28
892.691	54.95
892.862	38.57
893.032	48.81
893.203	85.67
893.374	44.71
893.545	11.95
893.716	-59.73
893.887	91.82
894.057	65.19
894.228	44.71
894.399	50.86
894.57	110.25
894.74	-22.87
894.911	52.91
895.082	11.95
895.253	54.95
895.423	5.8
895.594	48.81
895.764	34.47
895.935	26.28
896.106	46.76
896.276	-18.77
896.447	32.43
896.617	67.24
896.788	11.95
896.958	-20.82
897.129	28.33
897.299	61.1
897.47	65.19
897.64	7.85
897.81	54.95
897.981	81.58
898.151	75.43
898.322	16.04
898.492	20.14
898.662	26.28
898.832	-2.39
899.003	9.9
899.173	-16.73
899.343	11.95
899.513	-55.64
