Data from USB4F104151__193__11-09-51-521.txt Node

Date: Wed Mar 12 11:09:51 EDT 2025
User: louis
Spectrometer: USB4F10415
Trigger mode: 4
Integration Time (sec): 2.000000E-2
Scans to average: 1
Electric dark correction enabled: true
Nonlinearity correction enabled: false
Boxcar width: 0
XAxis mode: Wavelengths
Number of Pixels in Spectrum: 3648
>>>>>Begin Spectral Data<<<<<
178.204	-40.62
178.424	-40.62
178.644	-40.62
178.864	-48.81
179.084	-65.19
179.304	-11.95
179.524	-11.95
179.744	-48.81
179.964	14.68
180.184	31.06
180.404	-16.04
180.624	-3.75
180.844	-13.99
181.064	10.58
181.283	41.3
181.503	33.11
181.723	-24.23
181.943	-1.71
182.163	63.83
182.383	22.87
182.602	69.97
182.822	-9.9
183.042	57.68
183.262	6.49
183.482	-5.8
183.701	22.87
183.921	-13.99
184.141	-26.28
184.361	-3.75
184.58	39.25
184.8	51.54
185.02	39.25
185.239	88.4
185.459	24.92
185.679	98.64
185.898	24.92
186.118	41.3
186.338	8.53
186.557	69.97
186.777	-40.62
186.997	-24.23
187.216	-7.85
187.436	86.36
187.655	78.16
187.875	-48.81
188.095	45.4
188.314	80.21
188.534	-38.57
188.753	31.06
188.973	49.49
189.192	110.93
189.412	-11.95
189.631	16.73
189.851	29.01
190.07	-30.38
190.29	-93.87
190.509	39.25
190.729	43.35
190.948	72.02
191.168	139.6
191.387	22.87
191.607	22.87
191.826	14.68
192.045	22.87
192.265	43.35
192.484	35.16
192.704	-34.47
192.923	12.63
193.142	-11.95
193.362	37.2
193.581	74.07
193.8	92.5
194.02	65.88
194.239	-1.71
194.458	100.69
194.678	-13.99
194.897	26.96
195.116	31.06
195.335	10.58
195.555	22.87
195.774	39.25
195.993	74.07
196.212	49.49
196.432	-20.14
196.651	22.87
196.87	12.63
197.089	37.2
197.308	-3.75
197.528	31.06
197.747	-18.09
197.966	6.49
198.185	-20.14
198.404	51.54
198.623	35.16
198.842	84.31
199.062	-9.9
199.281	16.73
199.5	53.59
199.719	72.02
199.938	-28.33
200.157	51.54
200.376	61.78
200.595	100.69
200.814	-48.81
201.033	-54.95
201.252	26.96
201.471	63.83
201.69	110.93
201.909	-7.85
202.128	49.49
202.347	74.07
202.566	16.73
202.785	-30.38
203.004	-20.14
203.223	55.64
203.442	39.25
203.661	10.58
203.879	-83.63
204.098	-3.75
204.317	-40.62
204.536	76.12
204.755	-13.99
204.974	29.01
205.193	2.39
205.411	155.99
205.63	29.01
205.849	-24.23
206.068	2.39
206.287	-5.8
206.505	135.51
206.724	0.34
206.943	-63.15
207.162	-5.8
207.381	6.49
207.599	26.96
207.818	-22.19
208.037	-1.71
208.255	22.87
208.474	-7.85
208.693	4.44
208.911	16.73
209.13	-9.9
209.349	0.34
209.567	-36.52
209.786	78.16
210.005	-24.23
210.223	37.2
210.442	10.58
210.661	31.06
210.879	96.6
211.098	53.59
211.316	45.4
211.535	20.82
211.753	22.87
211.972	0.34
212.191	16.73
212.409	16.73
212.628	20.82
212.846	6.49
213.065	39.25
213.283	29.01
213.502	2.39
213.72	57.68
213.938	6.49
214.157	80.21
214.375	57.68
214.594	-16.04
214.812	29.01
215.031	12.63
215.249	-22.19
215.467	0.34
215.686	59.73
215.904	6.49
216.122	-34.47
216.341	6.49
216.559	-46.76
216.778	35.16
216.996	10.58
217.214	41.3
217.432	-16.04
217.651	-59.05
217.869	22.87
218.087	84.31
218.306	4.44
218.524	6.49
218.742	-30.38
218.96	37.2
219.179	78.16
219.397	110.93
219.615	94.55
219.833	86.36
220.051	10.58
220.27	84.31
220.488	49.49
220.706	16.73
220.924	-38.57
221.142	55.64
221.36	69.97
221.578	117.08
221.796	-9.9
222.015	69.97
222.233	20.82
222.451	45.4
222.669	8.53
222.887	10.58
223.105	6.49
223.323	59.73
223.541	2.39
223.759	69.97
223.977	12.63
224.195	41.3
224.413	78.16
224.631	49.49
224.849	24.92
225.067	-24.23
225.285	-18.09
225.503	20.82
225.721	18.77
225.939	43.35
226.157	-5.8
226.375	92.5
226.592	-36.52
226.81	39.25
227.028	-9.9
227.246	31.06
227.464	16.73
227.682	80.21
227.9	4.44
228.117	45.4
228.335	31.06
228.553	-5.8
228.771	49.49
228.989	33.11
229.206	53.59
229.424	94.55
229.642	-46.76
229.86	51.54
230.077	90.45
230.295	4.44
230.513	55.64
230.731	-26.28
230.948	84.31
231.166	63.83
231.384	16.73
231.601	24.92
231.819	69.97
232.037	-5.8
232.254	-20.14
232.472	-32.43
232.689	-22.19
232.907	-3.75
233.125	20.82
233.342	37.2
233.56	-11.95
233.777	-18.09
233.995	61.78
234.213	90.45
234.43	0.34
234.648	14.68
234.865	26.96
235.083	139.6
235.3	41.3
235.518	-9.9
235.735	72.02
235.953	59.73
236.17	29.01
236.388	129.36
236.605	35.16
236.822	-36.52
237.04	78.16
237.257	61.78
237.475	-3.75
237.692	57.68
237.909	53.59
238.127	43.35
238.344	-44.71
238.562	33.11
238.779	14.68
238.996	-61.1
239.214	33.11
239.431	26.96
239.648	-30.38
239.865	110.93
240.083	102.74
240.3	53.59
240.517	-16.04
240.735	16.73
240.952	45.4
241.169	33.11
241.386	63.83
241.603	61.78
241.821	-28.33
242.038	-20.14
242.255	115.03
242.472	14.68
242.689	59.73
242.907	31.06
243.124	29.01
243.341	6.49
243.558	35.16
243.775	-48.81
243.992	-50.86
244.209	49.49
244.426	65.88
244.643	10.58
244.86	-9.9
245.078	94.55
245.295	20.82
245.512	92.5
245.729	33.11
245.946	65.88
246.163	43.35
246.38	65.88
246.597	-36.52
246.814	-18.09
247.031	-22.19
247.248	78.16
247.464	-3.75
247.681	10.58
247.898	-5.8
248.115	8.53
248.332	29.01
248.549	102.74
248.766	76.12
248.983	35.16
249.2	67.92
249.417	82.26
249.633	-104.11
249.85	57.68
250.067	35.16
250.284	123.22
250.501	16.73
250.717	53.59
250.934	37.2
251.151	-3.75
251.368	80.21
251.585	14.68
251.801	47.44
252.018	45.4
252.235	31.06
252.451	31.06
252.668	8.53
252.885	31.06
253.102	33.11
253.318	31.06
253.535	4.44
253.752	-32.43
253.968	-3.75
254.185	-54.95
254.401	8.53
254.618	72.02
254.835	-5.8
255.051	14.68
255.268	-7.85
255.484	12.63
255.701	-13.99
255.917	37.2
256.134	22.87
256.351	63.83
256.567	-48.81
256.784	24.92
257	39.25
257.217	22.87
257.433	-30.38
257.65	59.73
257.866	16.73
258.082	43.35
258.299	12.63
258.515	-40.62
258.732	-61.1
258.948	39.25
259.165	61.78
259.381	57.68
259.597	-9.9
259.814	35.16
260.03	-1.71
260.246	6.49
260.463	90.45
260.679	45.4
260.895	-7.85
261.112	14.68
261.328	53.59
261.544	37.2
261.761	108.88
261.977	-13.99
262.193	-9.9
262.409	12.63
262.626	59.73
262.842	57.68
263.058	-20.14
263.274	57.68
263.49	-40.62
263.707	20.82
263.923	24.92
264.139	10.58
264.355	39.25
264.571	14.68
264.787	4.44
265.004	16.73
265.22	61.78
265.436	51.54
265.652	20.82
265.868	37.2
266.084	29.01
266.3	26.96
266.516	2.39
266.732	67.92
266.948	4.44
267.164	2.39
267.38	51.54
267.596	6.49
267.812	37.2
268.028	49.49
268.244	29.01
268.46	-5.8
268.676	-24.23
268.892	31.06
269.108	33.11
269.324	39.25
269.54	-26.28
269.756	18.77
269.972	-30.38
270.188	29.01
270.403	-34.47
270.619	-11.95
270.835	53.59
271.051	20.82
271.267	41.3
271.483	20.82
271.698	55.64
271.914	-9.9
272.13	-3.75
272.346	12.63
272.562	65.88
272.777	80.21
272.993	-32.43
273.209	-44.71
273.425	-13.99
273.64	18.77
273.856	33.11
274.072	53.59
274.287	-22.19
274.503	94.55
274.719	51.54
274.934	-34.47
275.15	-42.67
275.366	-1.71
275.581	24.92
275.797	45.4
276.012	45.4
276.228	33.11
276.444	61.78
276.659	72.02
276.875	-44.71
277.09	35.16
277.306	8.53
277.521	12.63
277.737	59.73
277.952	-30.38
278.168	-9.9
278.383	51.54
278.599	41.3
278.814	-9.9
279.03	67.92
279.245	33.11
279.461	-5.8
279.676	4.44
279.892	47.44
280.107	65.88
280.322	16.73
280.538	57.68
280.753	-24.23
280.969	-38.57
281.184	41.3
281.399	37.2
281.615	20.82
281.83	59.73
282.045	-9.9
282.26	-18.09
282.476	2.39
282.691	16.73
282.906	-3.75
283.122	24.92
283.337	16.73
283.552	49.49
283.767	53.59
283.983	74.07
284.198	67.92
284.413	43.35
284.628	10.58
284.843	43.35
285.058	20.82
285.274	-13.99
285.489	43.35
285.704	16.73
285.919	-65.19
286.134	26.96
286.349	-16.04
286.564	57.68
286.779	86.36
286.995	57.68
287.21	2.39
287.425	41.3
287.64	12.63
287.855	24.92
288.07	37.2
288.285	98.64
288.5	20.82
288.715	29.01
288.93	65.88
289.145	86.36
289.36	4.44
289.575	24.92
289.79	-34.47
290.004	-32.43
290.219	18.77
290.434	72.02
290.649	-5.8
290.864	47.44
291.079	-20.14
291.294	84.31
291.509	0.34
291.724	94.55
291.938	-11.95
292.153	-57
292.368	18.77
292.583	41.3
292.798	67.92
293.012	-5.8
293.227	0.34
293.442	8.53
293.657	67.92
293.871	74.07
294.086	43.35
294.301	24.92
294.516	8.53
294.73	-26.28
294.945	24.92
295.16	6.49
295.374	-16.04
295.589	29.01
295.804	-9.9
296.018	24.92
296.233	0.34
296.447	78.16
296.662	35.16
296.877	49.49
297.091	74.07
297.306	26.96
297.52	24.92
297.735	67.92
297.949	10.58
298.164	26.96
298.378	61.78
298.593	-11.95
298.807	-5.8
299.022	-22.19
299.236	82.26
299.451	-40.62
299.665	12.63
299.88	-1.71
300.094	4.44
300.309	41.3
300.523	12.63
300.737	-30.38
300.952	49.49
301.166	59.73
301.381	106.84
301.595	33.11
301.809	31.06
302.024	-81.58
302.238	-18.09
302.452	86.36
302.667	-13.99
302.881	43.35
303.095	78.16
303.309	86.36
303.524	6.49
303.738	33.11
303.952	72.02
304.166	37.2
304.381	-22.19
304.595	6.49
304.809	-9.9
305.023	33.11
305.237	55.64
305.452	39.25
305.666	20.82
305.88	69.97
306.094	12.63
306.308	-1.71
306.522	59.73
306.736	45.4
306.95	-16.04
307.164	39.25
307.379	8.53
307.593	108.88
307.807	14.68
308.021	37.2
308.235	147.8
308.449	-67.24
308.663	43.35
308.877	72.02
309.091	82.26
309.305	53.59
309.519	-22.19
309.733	100.69
309.947	-30.38
310.161	0.34
310.374	29.01
310.588	22.87
310.802	53.59
311.016	47.44
311.23	-3.75
311.444	26.96
311.658	-5.8
311.872	31.06
312.085	94.55
312.299	26.96
312.513	26.96
312.727	-5.8
312.941	-1.71
313.154	22.87
313.368	24.92
313.582	57.68
313.796	74.07
314.009	-22.19
314.223	-3.75
314.437	-3.75
314.651	-28.33
314.864	39.25
315.078	63.83
315.292	-7.85
315.505	49.49
315.719	-30.38
315.933	4.44
316.146	0.34
316.36	-36.52
316.573	-24.23
316.787	33.11
317.001	69.97
317.214	51.54
317.428	53.59
317.641	-5.8
317.855	37.2
318.068	61.78
318.282	29.01
318.495	22.87
318.709	65.88
318.922	-3.75
319.136	59.73
319.349	-13.99
319.563	20.82
319.776	18.77
319.99	-28.33
320.203	47.44
320.417	10.58
320.63	4.44
320.843	57.68
321.057	29.01
321.27	43.35
321.483	14.68
321.697	43.35
321.91	0.34
322.124	74.07
322.337	29.01
322.55	26.96
322.763	2.39
322.977	-18.09
323.19	31.06
323.403	-5.8
323.617	-20.14
323.83	4.44
324.043	16.73
324.256	10.58
324.469	24.92
324.683	106.84
324.896	45.4
325.109	-67.24
325.322	78.16
325.535	80.21
325.748	-7.85
325.962	-36.52
326.175	33.11
326.388	55.64
326.601	-16.04
326.814	20.82
327.027	-9.9
327.24	39.25
327.453	-9.9
327.666	59.73
327.879	18.77
328.092	18.77
328.305	51.54
328.518	8.53
328.731	35.16
328.944	-3.75
329.157	4.44
329.37	-9.9
329.583	100.69
329.796	143.7
330.009	37.2
330.222	-7.85
330.435	4.44
330.648	33.11
330.861	20.82
331.073	24.92
331.286	45.4
331.499	-3.75
331.712	41.3
331.925	47.44
332.138	-11.95
332.35	4.44
332.563	-1.71
332.776	43.35
332.989	4.44
333.202	-57
333.414	16.73
333.627	-3.75
333.84	24.92
334.053	94.55
334.265	22.87
334.478	0.34
334.691	78.16
334.903	31.06
335.116	-11.95
335.329	69.97
335.541	39.25
335.754	20.82
335.966	35.16
336.179	33.11
336.392	43.35
336.604	-11.95
336.817	-24.23
337.029	88.4
337.242	-7.85
337.454	24.92
337.667	24.92
337.88	98.64
338.092	12.63
338.305	43.35
338.517	12.63
338.729	88.4
338.942	51.54
339.154	92.5
339.367	33.11
339.579	112.98
339.792	-20.14
340.004	-22.19
340.217	-46.76
340.429	6.49
340.641	76.12
340.854	-61.1
341.066	16.73
341.278	-5.8
341.491	41.3
341.703	0.34
341.915	-11.95
342.128	102.74
342.34	-52.91
342.552	10.58
342.764	67.92
342.977	29.01
343.189	45.4
343.401	72.02
343.613	49.49
343.826	65.88
344.038	-5.8
344.25	37.2
344.462	39.25
344.674	49.49
344.886	29.01
345.099	137.56
345.311	78.16
345.523	51.54
345.735	-3.75
345.947	29.01
346.159	82.26
346.371	2.39
346.583	8.53
346.795	115.03
347.007	-26.28
347.219	94.55
347.431	8.53
347.643	127.32
347.855	10.58
348.067	78.16
348.279	8.53
348.491	4.44
348.703	53.59
348.915	35.16
349.127	12.63
349.339	67.92
349.551	49.49
349.763	29.01
349.975	33.11
350.187	31.06
350.399	61.78
350.61	37.2
350.822	-5.8
351.034	39.25
351.246	31.06
351.458	51.54
351.669	10.58
351.881	88.4
352.093	24.92
352.305	65.88
352.517	4.44
352.728	45.4
352.94	65.88
353.152	8.53
353.363	-20.14
353.575	92.5
353.787	100.69
353.999	72.02
354.21	31.06
354.422	4.44
354.633	-30.38
354.845	10.58
355.057	29.01
355.268	6.49
355.48	31.06
355.692	4.44
355.903	65.88
356.115	6.49
356.326	-32.43
356.538	57.68
356.749	53.59
356.961	53.59
357.172	-3.75
357.384	20.82
357.595	24.92
357.807	20.82
358.018	-26.28
358.23	98.64
358.441	29.01
358.653	80.21
358.864	14.68
359.075	49.49
359.287	41.3
359.498	24.92
359.709	-5.8
359.921	-52.91
360.132	61.78
360.344	69.97
360.555	-83.63
360.766	31.06
360.977	-24.23
361.189	22.87
361.4	33.11
361.611	18.77
361.823	22.87
362.034	78.16
362.245	49.49
362.456	10.58
362.667	72.02
362.879	-9.9
363.09	14.68
363.301	74.07
363.512	65.88
363.723	0.34
363.935	-5.8
364.146	59.73
364.357	16.73
364.568	63.83
364.779	88.4
364.99	-24.23
365.201	82.26
365.412	65.88
365.623	-73.39
365.834	123.22
366.045	-16.04
366.256	29.01
366.467	-5.8
366.678	-5.8
366.889	14.68
367.1	2.39
367.311	59.73
367.522	4.44
367.733	41.3
367.944	41.3
368.155	10.58
368.366	26.96
368.577	12.63
368.788	61.78
368.999	0.34
369.209	49.49
369.42	61.78
369.631	94.55
369.842	-22.19
370.053	-7.85
370.264	41.3
370.474	31.06
370.685	0.34
370.896	26.96
371.107	51.54
371.317	20.82
371.528	35.16
371.739	84.31
371.95	10.58
372.16	-1.71
372.371	51.54
372.582	16.73
372.792	0.34
373.003	72.02
373.214	69.97
373.424	78.16
373.635	26.96
373.846	90.45
374.056	-18.09
374.267	-28.33
374.477	67.92
374.688	51.54
374.898	22.87
375.109	22.87
375.319	-11.95
375.53	26.96
375.74	0.34
375.951	10.58
376.161	-34.47
376.372	82.26
376.582	35.16
376.793	76.12
377.003	53.59
377.214	55.64
377.424	61.78
377.635	86.36
377.845	-13.99
378.055	63.83
378.266	12.63
378.476	4.44
378.686	53.59
378.897	20.82
379.107	33.11
379.317	-1.71
379.528	24.92
379.738	110.93
379.948	22.87
380.158	63.83
380.369	-40.62
380.579	92.5
380.789	47.44
380.999	-3.75
381.21	0.34
381.42	55.64
381.63	20.82
381.84	18.77
382.05	24.92
382.261	-26.28
382.471	4.44
382.681	8.53
382.891	88.4
383.101	59.73
383.311	-9.9
383.521	-28.33
383.731	104.79
383.941	72.02
384.151	39.25
384.361	53.59
384.571	41.3
384.781	-9.9
384.991	115.03
385.201	86.36
385.411	110.93
385.621	41.3
385.831	104.79
386.041	47.44
386.251	67.92
386.461	22.87
386.671	6.49
386.881	10.58
387.091	45.4
387.301	96.6
387.511	108.88
387.72	98.64
387.93	51.54
388.14	-5.8
388.35	31.06
388.56	45.4
388.769	16.73
388.979	61.78
389.189	-5.8
389.399	61.78
389.609	33.11
389.818	141.65
390.028	29.01
390.238	33.11
390.447	26.96
390.657	80.21
390.867	69.97
391.076	-26.28
391.286	67.92
391.496	115.03
391.705	59.73
391.915	4.44
392.125	59.73
392.334	61.78
392.544	119.12
392.753	59.73
392.963	74.07
393.172	96.6
393.382	63.83
393.591	84.31
393.801	110.93
394.01	2.39
394.22	82.26
394.429	76.12
394.639	33.11
394.848	-1.71
395.058	80.21
395.267	0.34
395.477	100.69
395.686	12.63
395.895	55.64
396.105	102.74
396.314	82.26
396.524	63.83
396.733	18.77
396.942	82.26
397.152	37.2
397.361	108.88
397.57	129.36
397.78	112.98
397.989	69.97
398.198	100.69
398.407	59.73
398.617	121.17
398.826	33.11
399.035	55.64
399.244	-5.8
399.453	76.12
399.663	145.75
399.872	121.17
400.081	63.83
400.29	145.75
400.499	55.64
400.708	59.73
400.917	63.83
401.127	100.69
401.336	26.96
401.545	129.36
401.754	16.73
401.963	82.26
402.172	55.64
402.381	20.82
402.59	100.69
402.799	100.69
403.008	59.73
403.217	72.02
403.426	49.49
403.635	47.44
403.844	74.07
404.053	98.64
404.262	47.44
404.471	135.51
404.68	80.21
404.888	162.13
405.097	82.26
405.306	141.65
405.515	57.68
405.724	115.03
405.933	123.22
406.142	80.21
406.35	149.84
406.559	135.51
406.768	110.93
406.977	76.12
407.185	84.31
407.394	155.99
407.603	121.17
407.812	178.51
408.02	123.22
408.229	162.13
408.438	127.32
408.646	135.51
408.855	67.92
409.064	108.88
409.272	172.37
409.481	139.6
409.69	203.09
409.898	160.08
410.107	201.04
410.315	108.88
410.524	205.14
410.733	203.09
410.941	176.47
411.15	192.85
411.358	186.71
411.567	280.91
411.775	160.08
411.984	311.63
412.192	203.09
412.401	278.87
412.609	311.63
412.818	291.15
413.026	317.78
413.234	323.92
413.443	272.72
413.651	229.71
413.86	291.15
414.068	414.03
414.276	336.21
414.485	358.74
414.693	442.7
414.901	391.5
415.11	409.94
415.318	430.41
415.526	409.94
415.734	414.03
415.943	520.53
416.151	508.24
416.359	442.7
416.567	489.81
416.776	512.33
416.984	512.33
417.192	504.14
417.4	559.44
417.608	590.16
417.817	567.63
418.025	678.22
418.233	737.61
418.441	627.02
418.649	643.4
418.857	749.9
419.065	698.7
419.273	766.28
419.481	762.19
419.689	868.68
419.897	887.11
420.105	797
420.313	880.97
420.521	917.83
420.729	872.78
420.937	932.17
421.145	948.55
421.353	1007.94
421.561	1098.05
421.769	1089.86
421.977	1159.49
422.185	1175.88
422.393	1149.25
422.601	1222.98
422.809	1288.51
423.017	1270.08
423.224	1337.66
423.432	1349.95
423.64	1323.33
423.848	1556.8
424.056	1421.63
424.263	1599.8
424.471	1612.09
424.679	1538.37
424.887	1771.83
425.094	1698.11
425.302	1763.64
425.51	1808.7
425.718	1933.62
425.925	1818.94
426.133	1982.78
426.341	2031.93
426.548	2228.53
426.756	2298.16
426.964	2289.97
427.171	2330.93
427.379	2412.85
427.586	2457.9
427.794	2554.16
428.001	2570.54
428.209	2666.8
428.417	2718
428.624	2832.68
428.832	2906.41
429.039	2847.02
429.247	2703.66
429.454	3229.99
429.662	3397.92
429.869	3049.77
430.076	3318.05
430.284	3252.52
430.491	3416.35
430.699	3551.52
430.906	3490.08
431.114	3598.62
431.321	3764.51
431.528	3784.99
431.736	4063.51
431.943	4170.01
432.15	4266.26
432.358	4151.57
432.565	4489.49
432.772	4358.42
432.979	4489.49
433.187	4841.74
433.394	4731.15
433.601	4952.33
433.808	4989.19
434.016	5091.59
434.223	5132.55
434.43	5634.3
434.637	5396.74
434.844	5859.58
435.052	5890.3
435.259	5722.37
435.466	5888.25
435.673	5845.24
435.88	6095.1
436.087	6525.17
436.294	6529.27
436.501	6301.94
436.708	6557.94
436.915	6639.86
437.122	6975.72
437.329	6934.76
437.537	7198.95
437.743	7413.99
437.95	7129.32
438.157	7665.89
438.364	8106.2
438.571	8044.76
438.778	7987.42
438.985	8583.38
439.192	8429.78
439.399	8388.82
439.606	8505.56
439.813	8923.34
440.02	9191.63
440.227	9013.45
440.433	9146.57
440.64	9267.4
440.847	9312.46
441.054	9603.27
441.261	10193.08
441.467	10035.39
441.674	10389.69
441.881	10645.68
442.088	10350.78
442.294	10655.92
442.501	10950.83
442.708	11157.68
442.914	11440.29
443.121	11985.05
443.328	11663.52
443.534	12429.46
443.741	12066.97
443.948	11825.31
444.154	12738.71
444.361	12716.18
444.568	12664.98
444.774	12918.93
444.981	12851.35
445.187	13242.51
445.394	14020.74
445.6	13523.08
445.807	14905.46
446.013	14368.89
446.22	14489.72
446.426	15192.17
446.633	15329.39
446.839	15691.88
447.046	14989.42
447.252	15984.74
447.459	16119.9
447.665	16005.22
447.871	16437.34
448.078	17219.66
448.284	16466.01
448.491	17045.59
448.697	17496.14
448.903	18010.18
449.11	17840.2
449.316	17670.22
449.522	17901.64
449.728	18401.34
449.935	18577.47
450.141	18681.91
450.347	18970.68
450.553	18227.26
450.76	18591.8
450.966	19138.61
451.172	18927.67
451.378	19251.25
451.584	19036.21
451.791	19181.62
451.997	19677.23
452.203	19595.31
452.409	19615.79
452.615	19349.55
452.821	18853.94
453.027	18360.38
453.233	19683.37
453.44	18649.14
453.646	18931.76
453.852	19183.66
454.058	19554.35
454.264	18622.52
454.47	19173.42
454.676	18681.91
454.882	19251.25
455.088	17823.81
455.294	17717.32
455.5	18190.4
455.705	18389.05
455.911	17522.76
456.117	17365.07
456.323	16799.83
456.529	16009.31
456.735	16691.29
456.941	16287.84
457.147	16076.9
457.352	15689.83
457.558	15530.09
457.764	15415.4
457.97	15200.37
458.176	14731.38
458.381	14655.61
458.587	14065.79
458.793	13817.99
458.999	13197.45
459.204	14372.99
459.41	13908.1
459.616	12785.81
459.821	12861.59
460.027	12886.16
460.233	12570.77
460.438	11989.15
460.644	12089.5
460.85	11554.98
461.055	11464.87
461.261	11507.88
461.466	10617.01
461.672	10121.4
461.878	10897.58
462.083	10289.34
462.289	10031.29
462.494	9830.59
462.7	9482.44
462.905	9457.86
463.111	9584.84
463.316	9642.18
463.522	9418.95
463.727	9380.04
463.932	9425.09
464.138	9322.7
464.343	9146.57
464.549	9287.88
464.754	9322.7
464.959	9605.31
465.165	9365.7
465.37	8980.68
465.575	8712.4
465.781	8937.68
465.986	9070.79
466.191	8554.71
466.397	8634.58
466.602	8020.19
466.807	8540.37
467.012	8351.96
467.218	8351.96
467.423	8169.69
467.628	8263.9
467.833	8638.67
468.038	8401.11
468.244	8143.07
468.449	8523.99
468.654	8179.93
468.859	8102.11
469.064	7995.61
469.269	7758.05
469.474	7782.62
469.679	7909.6
469.885	7633.12
470.09	7704.8
470.295	7766.24
470.5	7491.81
470.705	7559.39
470.91	7375.08
471.115	7422.18
471.32	7342.31
471.525	7377.12
471.73	7338.21
471.935	7366.88
472.139	7076.07
472.344	7012.59
472.549	7035.11
472.754	6981.87
472.959	6910.19
473.164	6686.96
473.369	6674.67
473.574	6834.41
473.778	6680.82
473.983	6699.25
474.188	6697.2
474.393	6236.41
474.598	6447.35
474.802	6199.54
475.007	6187.25
475.212	6473.97
475.417	5982.46
475.621	6066.42
475.826	6052.09
476.031	6066.42
476.235	5808.38
476.44	5974.27
476.645	5748.99
476.849	5681.41
477.054	5685.5
477.259	5689.6
477.463	5595.39
477.668	5634.3
477.872	5609.73
478.077	5540.1
478.282	5345.54
478.486	5417.22
478.691	5310.72
478.895	5247.24
479.1	5277.96
479.304	5290.24
479.509	5091.59
479.713	5316.87
479.918	5056.78
480.122	5040.39
480.326	5028.1
480.531	5142.79
480.735	4966.67
480.94	4845.84
481.144	5050.63
481.348	4868.36
481.553	5024.01
481.757	4876.55
481.961	4903.18
482.166	5048.58
482.37	5026.06
482.574	4782.35
482.778	4811.02
482.983	5017.86
483.187	4837.64
483.391	4784.4
483.595	4829.45
483.8	4847.88
484.004	4995.34
484.208	4868.36
484.412	4964.62
484.616	4915.47
484.821	4886.79
485.025	4749.58
485.229	4845.84
485.433	4950.28
485.637	4722.96
485.841	4778.25
486.045	4808.97
486.249	4919.56
486.453	4690.19
486.657	4811.02
486.861	4808.97
487.065	4851.98
487.269	4763.92
487.473	4600.08
487.677	4960.52
487.881	4987.15
488.085	4827.4
488.289	4919.56
488.493	4864.27
488.697	4997.39
488.901	4862.22
489.105	4915.47
489.309	4903.18
489.512	4981
489.716	4880.65
489.92	5120.26
490.124	4817.16
490.328	5011.72
490.531	4974.86
490.735	5075.21
490.939	4948.23
491.143	4942.09
491.346	4956.43
491.55	5058.82
491.754	5054.73
491.958	5052.68
492.161	4862.22
492.365	5112.07
492.569	5161.22
492.772	5019.91
492.976	5095.69
493.18	5196.04
493.383	5064.97
493.587	5224.71
493.79	5421.31
493.994	5251.33
494.197	5177.61
494.401	5374.21
494.605	5464.32
494.808	5429.51
495.012	5495.04
495.215	5570.82
495.419	5617.92
495.622	5595.39
495.825	5597.44
496.029	5495.04
496.232	5835
496.436	5851.39
496.639	5982.46
496.843	5818.62
497.046	5806.33
497.249	6117.62
497.453	5984.51
497.656	6160.63
497.859	6117.62
498.063	6252.79
498.266	6320.37
498.469	6312.18
498.673	6258.93
498.876	6465.78
499.079	6461.68
499.282	6680.82
499.485	6660.34
499.689	6676.72
499.892	6723.82
500.095	6932.72
500.298	7018.73
500.501	6928.62
500.705	7162.09
500.908	7067.88
501.111	7262.44
501.314	7262.44
501.517	7518.43
501.72	7598.31
501.923	7506.15
502.126	7790.81
502.329	7690.46
502.532	7772.38
502.735	7850.21
502.938	7928.03
503.141	8061.15
503.344	8204.5
503.547	8112.35
503.75	8296.66
503.953	8433.88
504.156	8628.43
504.359	8603.86
504.562	8788.18
504.765	8839.37
504.968	9068.75
505.17	9154.76
505.373	8917.2
505.576	9248.97
505.779	9095.37
505.982	9359.56
506.185	9556.16
506.387	9601.22
506.59	9478.34
506.793	9765.06
506.996	9900.22
507.198	10117.31
507.401	10053.82
507.604	10260.66
507.807	10547.38
508.009	10330.3
508.212	10743.99
508.415	10807.47
508.617	10643.63
508.82	10889.39
509.022	10729.65
509.225	11059.37
509.428	11262.12
509.63	11440.29
509.833	11325.61
510.035	11671.72
510.238	11395.24
510.44	11747.49
510.643	11901.09
510.845	11878.56
511.048	12032.16
511.25	12261.53
511.453	12087.45
511.655	12615.83
511.858	12834.96
512.06	12816.53
512.262	12925.07
512.465	12853.39
512.667	13176.97
512.87	13039.76
513.072	13215.88
513.274	13359.24
513.477	13580.42
513.679	13799.55
513.881	13885.57
514.084	13936.77
514.286	13781.12
514.488	14246.01
514.69	14385.27
514.893	14471.29
515.095	14526.58
515.297	14895.22
515.499	14950.51
515.701	14977.14
515.904	15423.59
516.106	15493.22
516.308	15665.25
516.51	15951.97
516.712	15923.3
516.914	15798.37
517.116	16541.78
517.318	16169.05
517.52	16584.79
517.722	16615.51
517.925	16832.6
518.127	16885.84
518.329	17084.5
518.531	17107.02
518.733	17619.02
518.935	17625.16
519.136	17680.46
519.338	17819.72
519.54	18288.7
519.742	18085.95
519.944	18192.45
520.146	18546.75
520.348	18847.8
520.55	18655.29
520.752	19284.02
520.954	19241.01
521.155	19208.24
521.357	19548.2
521.559	19497
521.761	19857.45
521.963	20017.19
522.164	19800.1
522.366	20119.59
522.568	20262.94
522.77	20690.97
522.971	21043.22
523.173	20736.02
523.375	21002.26
523.576	20961.3
523.778	21264.4
523.98	21176.34
524.181	21524.49
524.383	21497.87
524.584	22034.44
524.786	21938.18
524.988	21942.28
525.189	22257.67
525.391	22390.78
525.592	22515.71
525.794	22595.58
525.995	22769.66
526.197	22730.75
526.398	22939.64
526.6	22888.44
526.801	22820.86
527.003	23338.99
527.204	23373.81
527.406	23533.55
527.607	23726.06
527.808	23898.09
528.01	23304.18
528.211	23541.74
528.412	24098.79
528.614	24000.49
528.815	23926.76
529.016	24338.4
529.218	24315.87
529.419	24379.36
529.62	24731.61
529.822	24236
530.023	24459.23
530.224	24197.09
530.425	24539.1
530.626	24059.88
530.828	24432.61
531.029	24788.96
531.23	24606.69
531.431	24911.83
531.632	24678.36
531.833	25149.4
532.035	24965.08
532.236	24911.83
532.437	24952.79
532.638	24907.74
532.839	25051.1
533.04	25085.91
533.241	25126.87
533.442	25657.29
533.643	25548.75
533.844	25468.88
534.045	25358.29
534.246	25090.01
534.447	25333.71
534.648	25239.51
534.849	25130.97
535.05	24903.64
535.251	25444.31
535.451	25292.76
535.652	25538.51
535.853	25645.01
536.054	25438.16
536.255	25532.37
536.456	25403.35
536.657	26075.08
536.857	25305.04
537.058	25118.68
537.259	25503.7
537.46	25509.84
537.66	25524.18
537.861	25649.1
538.062	25733.07
538.263	25888.71
538.463	25526.22
538.664	25602
538.865	25567.18
539.065	26138.57
539.266	25311.19
539.466	25681.87
539.667	25272.28
539.868	25657.29
540.068	25587.66
540.269	25661.39
540.469	25726.92
540.67	25530.32
540.87	25393.11
541.071	25679.82
541.271	25466.83
541.472	25346
541.672	25403.35
541.873	25292.76
542.073	25364.43
542.274	25602
542.474	25405.39
542.675	25196.5
542.875	25509.84
543.075	25446.35
543.276	25421.78
543.476	25722.83
543.676	25081.81
543.877	25468.88
544.077	24999.9
544.277	25524.18
544.478	25425.87
544.678	25774.03
544.878	25403.35
545.078	25456.59
545.279	25391.06
545.479	25307.09
545.679	25628.62
545.879	25491.41
546.079	25423.83
546.28	25540.56
546.48	25081.81
546.68	25290.71
546.88	25466.83
547.08	25376.72
547.28	25272.28
547.48	25176.02
547.68	25515.98
547.88	25049.05
548.081	25389.01
548.281	25333.71
548.481	25331.67
548.681	25354.19
548.881	25339.86
549.081	25071.57
549.28	25305.04
549.48	25305.04
549.68	25147.35
549.88	25634.77
550.08	25094.1
550.28	25628.62
550.48	25130.97
550.68	25518.03
550.88	24903.64
551.08	25188.31
551.279	25298.9
551.479	25028.57
551.679	25190.36
551.879	25098.2
552.079	25001.94
552.278	25130.97
552.478	24938.46
552.678	25081.81
552.878	25233.36
553.077	25153.49
553.277	24661.98
553.477	25417.68
553.676	24903.64
553.876	24778.72
554.076	24942.55
554.275	25198.55
554.475	24823.77
554.674	24932.31
554.874	25028.57
555.074	24635.36
555.273	24932.31
555.473	25081.81
555.672	24334.31
555.872	24557.53
556.071	24791
556.271	24991.7
556.47	24659.93
556.67	24369.12
556.869	24561.63
557.068	24504.29
557.268	24279.01
557.467	24514.53
557.667	24303.59
557.866	24283.11
558.065	24182.76
558.265	24236
558.464	24123.37
558.663	24342.5
558.863	23969.77
559.062	24399.84
559.261	24002.54
559.461	24399.84
559.66	23877.61
559.859	24061.93
560.058	23910.38
560.258	23912.42
560.457	23764.97
560.656	24111.08
560.855	23619.56
561.054	23789.55
561.253	23590.89
561.453	23422.96
561.652	23541.74
561.851	23789.55
562.05	23363.57
562.249	23461.87
562.448	23451.63
562.647	23379.95
562.846	23345.14
563.045	23070.71
563.244	22956.02
563.443	23443.44
563.642	23072.76
563.841	22915.06
564.04	23019.51
564.239	22999.03
564.438	22693.88
564.637	22857.72
564.836	23144.44
565.035	22480.89
565.234	22685.69
565.432	22521.85
565.631	22472.7
565.83	22558.72
566.029	22237.19
566.228	22286.34
566.427	22382.59
566.625	22315.01
566.824	22134.79
567.023	21692.43
567.222	21733.39
567.42	22337.54
567.619	21747.72
567.818	21811.21
568.016	21614.6
568.215	21829.64
568.414	21649.42
568.612	21858.31
568.811	21190.67
569.01	21641.23
569.208	21143.57
569.407	21190.67
569.605	20924.44
569.804	21315.6
570.002	21053.46
570.201	21012.5
570.4	20779.03
570.598	20838.42
570.797	20650.01
570.995	20672.54
571.193	20324.38
571.392	20936.73
571.59	20178.98
571.789	20467.74
571.987	20604.95
572.186	20150.31
572.384	20140.07
572.582	20224.03
572.781	20283.42
572.979	20049.96
573.177	19845.16
573.376	20242.46
573.574	19781.67
573.772	19626.03
573.971	19689.51
574.169	19609.64
574.367	19513.39
574.565	19626.03
574.763	19511.34
574.962	19521.58
575.16	19361.84
575.358	19318.83
575.556	19032.11
575.754	19218.48
575.952	18706.49
576.151	19214.38
576.349	19015.73
576.547	19097.65
576.745	18952.24
576.943	19046.45
577.141	18731.06
577.339	18860.09
577.537	18677.82
577.735	18772.02
577.933	18694.2
578.131	18739.26
578.329	18219.07
578.527	18438.2
578.725	18440.25
578.923	18421.82
579.121	17979.46
579.319	18389.05
579.516	18286.65
579.714	18217.02
579.912	17709.13
580.11	17911.88
580.308	18020.42
580.506	17965.12
580.704	17399.88
580.901	17868.87
581.099	18006.08
581.297	17502.28
581.495	17471.56
581.692	17752.13
581.89	17481.8
582.088	17616.97
582.285	17461.32
582.483	17344.59
582.681	17565.77
582.878	17229.9
583.076	17190.99
583.274	17098.83
583.471	17104.98
583.669	17262.67
583.866	16826.45
584.064	17035.35
584.262	16674.9
584.459	16986.19
584.657	16588.89
584.854	16754.77
585.052	16455.77
585.249	16570.46
585.447	16627.8
585.644	16535.64
585.841	16300.12
586.039	16216.16
586.236	16304.22
586.434	16414.81
586.631	15984.74
586.828	16226.4
587.026	16216.16
587.223	16189.53
587.42	16105.57
587.618	16205.92
587.815	15894.63
588.012	16142.43
588.21	15820.9
588.407	16046.18
588.604	15534.18
588.801	15569
588.999	15638.63
589.196	15734.89
589.393	15552.62
589.59	15282.28
589.787	15564.9
589.984	15622.25
590.182	15292.52
590.379	15577.19
590.576	15196.27
590.773	15296.62
590.97	15124.59
591.167	15132.78
591.364	15112.3
591.561	15192.17
591.758	14862.45
591.955	14841.97
592.152	14981.23
592.349	14516.34
592.546	14907.51
592.743	14631.03
592.94	14616.69
593.137	14585.97
593.334	14835.83
593.531	14616.69
593.727	14372.99
593.924	14545.02
594.121	14243.96
594.318	14469.24
594.515	14393.47
594.712	14415.99
594.908	14284.92
595.105	14387.32
595.302	14065.79
595.499	14192.76
595.696	14196.86
595.892	14014.59
596.089	14157.95
596.286	14049.41
596.482	13770.88
596.679	13707.4
596.876	13975.68
597.072	13842.56
597.269	13744.26
597.466	13906.05
597.662	13559.94
597.859	13750.4
598.055	13729.92
598.252	13658.24
598.448	13379.72
598.645	13430.92
598.841	13242.51
599.038	13312.14
599.234	13490.31
599.431	13129.87
599.627	13273.23
599.824	13402.25
600.02	13219.98
600.217	13217.93
600.413	13160.59
600.609	12963.98
600.806	12779.67
601.002	12949.65
601.198	12759.19
601.395	12671.12
601.591	12814.48
601.787	12785.81
601.984	12820.63
602.18	12939.41
602.376	12664.98
602.572	12851.35
602.769	12843.15
602.965	12519.57
603.161	12552.34
603.357	12327.07
603.553	12445.85
603.75	12644.5
603.946	12425.37
604.142	12478.61
604.338	12099.74
604.534	12294.3
604.73	12085.4
604.926	11989.15
605.122	12251.29
605.318	12226.71
605.514	12212.38
605.71	12107.93
605.906	12114.08
606.102	12044.45
606.298	11944.1
606.494	11880.61
606.69	11899.04
606.886	11776.16
607.082	11524.26
607.278	11970.72
607.474	11657.38
607.67	11788.45
607.866	11602.08
608.062	12013.73
608.257	11587.75
608.453	11516.07
608.649	11520.17
608.845	11620.52
609.041	11452.58
609.236	11456.68
609.432	11341.99
609.628	11557.03
609.824	11331.75
610.019	11344.04
610.215	11341.99
610.411	11374.76
610.606	11178.15
610.802	11217.07
610.998	11190.44
611.193	11083.95
611.389	11182.25
611.584	11286.7
611.78	11219.11
611.976	10907.82
612.171	11112.62
612.367	11235.5
612.562	11042.99
612.758	10944.69
612.953	10881.2
613.149	10936.49
613.344	10774.7
613.539	10965.17
613.735	10862.77
613.93	10846.38
614.126	10817.71
614.321	11073.71
614.517	10510.52
614.712	10705.07
614.907	10727.6
615.103	10922.16
615.298	10643.63
615.493	10766.51
615.688	10528.95
615.884	10625.2
616.079	10467.51
616.274	10586.29
616.47	10479.8
616.665	10578.1
616.86	10528.95
617.055	10588.34
617.25	10191.03
617.445	10660.02
617.641	10277.05
617.836	10502.33
618.031	10287.29
618.226	10293.43
618.421	10246.33
618.616	10201.27
618.811	9961.66
619.006	10135.74
619.201	10102.97
619.396	10225.85
619.591	9969.85
619.786	9998.52
619.981	9758.91
620.176	10016.96
620.371	9717.95
620.566	9904.32
620.761	9812.16
620.956	9726.14
621.151	9736.38
621.346	9689.28
621.541	9590.98
621.735	9812.16
621.93	9511.11
622.125	9593.03
622.32	9361.61
622.515	9351.37
622.709	9175.24
622.904	9347.27
623.099	9038.03
623.294	9148.62
623.488	9038.03
623.683	9167.05
623.878	9038.03
624.072	8958.16
624.267	8945.87
624.462	9003.21
624.656	8747.22
624.851	8872.14
625.046	8628.43
625.24	8659.15
625.435	8657.11
625.629	8741.07
625.824	8456.4
626.018	8708.3
626.213	8255.7
626.407	8382.68
626.602	8214.74
626.796	8413.4
626.991	8292.57
627.185	8216.79
627.38	8198.36
627.574	7997.66
627.768	8126.68
627.963	7940.32
628.157	7966.94
628.352	8036.57
628.546	7882.97
628.74	8048.86
628.935	7819.49
629.129	7756
629.323	7694.56
629.517	7809.25
629.712	7749.86
629.906	7577.83
630.1	7540.96
630.294	7440.61
630.489	7409.89
630.683	7500
630.877	7344.36
631.071	7416.04
631.265	7387.36
631.459	7254.25
631.653	7330.02
631.848	7450.85
632.042	7092.46
632.236	7305.45
632.43	7129.32
632.624	7092.46
632.818	7090.41
633.012	7014.63
633.206	6928.62
633.4	7033.07
633.594	6977.77
633.788	6828.27
633.982	6879.47
634.176	6893.8
634.369	6828.27
634.563	6908.14
634.757	6729.97
634.951	6740.21
635.145	6588.66
635.339	6674.67
635.533	6435.06
635.726	6615.28
635.92	6379.76
636.114	6469.87
636.308	6498.55
636.501	6338.8
636.695	6508.79
636.889	6373.62
637.083	6320.37
637.276	6254.84
637.47	6238.45
637.664	6197.49
637.857	6224.12
638.051	6068.47
638.244	6205.69
638.438	6050.04
638.632	6101.24
638.825	6035.71
639.019	5972.22
639.212	6072.57
639.406	5849.34
639.599	6009.08
639.793	5939.45
639.986	5667.07
640.18	5933.31
640.373	5718.27
640.567	5812.48
640.76	5638.4
640.954	5689.6
641.147	5619.97
641.34	5695.74
641.534	5632.26
641.727	5542.14
641.92	5603.58
642.114	5411.07
642.307	5427.46
642.5	5398.79
642.694	5288.2
642.887	5316.87
643.08	5331.2
643.273	5314.82
643.467	5212.42
643.66	5255.43
643.853	5050.63
644.046	5110.02
644.239	5234.95
644.432	5196.04
644.626	5021.96
644.819	5034.25
645.012	4985.1
645.205	5089.54
645.398	4925.71
645.591	4970.76
645.784	4931.85
645.977	5001.48
646.17	4757.77
646.363	4837.64
646.556	4694.29
646.749	4663.57
646.942	4815.12
647.135	4653.33
647.328	4763.92
647.521	4718.86
647.714	4802.83
647.907	4686.09
648.099	4638.99
648.292	4528.4
648.485	4673.81
648.678	4497.68
648.871	4448.53
649.064	4446.48
649.256	4561.17
649.449	4436.24
649.642	4444.43
649.835	4333.84
650.027	4458.77
650.22	4303.12
650.413	4382.99
650.605	4327.7
650.798	4194.58
650.991	4270.36
651.183	4348.18
651.376	4178.2
651.568	4309.27
651.761	4067.61
651.954	4194.58
652.146	4043.03
652.339	4073.75
652.531	4176.15
652.724	4155.67
652.916	3971.35
653.109	3930.39
653.301	4086.04
653.494	4079.9
653.686	4008.22
653.879	3965.21
654.071	3852.57
654.263	3866.91
654.456	3916.06
654.648	3957.02
654.84	3844.38
655.033	3651.87
655.225	3701.02
655.417	3690.78
655.61	3703.07
655.802	3737.88
655.994	3762.46
656.186	3705.12
656.379	3655.97
656.571	3631.39
656.763	3625.25
656.955	3586.33
657.148	3537.18
657.34	3596.57
657.532	3629.34
657.724	3682.59
657.916	3619.1
658.108	3549.47
658.3	3520.8
658.492	3535.14
658.684	3578.14
658.876	3436.83
659.068	3395.87
659.26	3438.88
659.452	3344.67
659.644	3301.67
659.836	3320.1
660.028	3379.49
660.22	3346.72
660.412	3246.37
660.604	3193.12
660.796	3332.39
660.988	3275.04
661.18	3232.04
661.372	3184.93
661.563	3344.67
661.755	3170.6
661.947	3178.79
662.139	3105.06
662.331	3244.32
662.522	3223.84
662.714	3141.93
662.906	3240.23
663.097	3098.92
663.289	3057.96
663.481	3010.86
663.673	2820.39
663.864	3010.86
664.056	3066.15
664.247	3019.05
664.439	2990.38
664.631	2920.74
664.822	3010.86
665.014	3092.77
665.205	2892.07
665.397	2912.55
665.588	2804.01
665.78	2781.48
665.971	2844.97
666.163	2883.88
666.354	2890.03
666.546	2871.59
666.737	2783.53
666.929	2787.63
667.12	2816.3
667.311	2771.24
667.503	2699.56
667.694	2789.67
667.885	2810.15
668.077	2746.67
668.268	2847.02
668.459	2709.8
668.651	2959.66
668.842	2722.09
669.033	2607.41
669.224	2740.52
669.416	2887.98
669.607	2603.31
669.798	2564.4
669.989	2634.03
670.18	2631.98
670.371	2666.8
670.563	2615.6
670.754	2656.56
670.945	2681.13
671.136	2595.12
671.327	2564.4
671.518	2539.82
671.709	2609.45
671.9	2572.59
672.091	2541.87
672.282	2535.73
672.473	2550.06
672.664	2500.91
672.855	2554.16
673.046	2500.91
673.237	2498.86
673.428	2505.01
673.619	2529.58
673.809	2474.29
674	2576.69
674.191	2535.73
674.382	2537.77
674.573	2586.93
674.764	2468.14
674.954	2429.23
675.145	2421.04
675.336	2384.18
675.527	2412.85
675.717	2492.72
675.908	2314.55
676.099	2351.41
676.289	2382.13
676.48	2363.7
676.671	2427.18
676.861	2443.57
677.052	2382.13
677.243	2355.51
677.433	2443.57
677.624	2355.51
677.814	2375.99
678.005	2472.24
678.195	2484.53
678.386	2296.11
678.576	2380.08
678.767	2363.7
678.957	2392.37
679.148	2310.45
679.338	2410.8
679.529	2165.04
679.719	2382.13
679.909	2287.92
680.1	2335.03
680.29	2281.78
680.481	2259.25
680.671	2380.08
680.861	2275.63
681.052	2369.84
681.242	2259.25
681.432	2326.83
681.622	2312.5
681.813	2238.77
682.003	2357.55
682.193	2236.72
682.383	2355.51
682.573	2232.63
682.764	2201.91
682.954	2199.86
683.144	2363.7
683.334	2306.35
683.524	2261.3
683.714	2261.3
683.904	2158.9
684.094	2337.07
684.284	2275.63
684.474	2296.11
684.664	2246.96
684.854	2318.64
685.044	2232.63
685.234	2197.81
685.424	2255.15
685.614	2187.57
685.804	2259.25
685.994	2330.93
686.184	2275.63
686.374	2201.91
686.564	2277.68
686.753	2158.9
686.943	2234.68
687.133	2171.19
687.323	2138.42
687.513	2134.32
687.702	2152.76
687.892	2226.48
688.082	2126.13
688.272	2216.24
688.461	2154.8
688.651	2144.56
688.841	2177.33
689.03	2154.8
689.22	2175.28
689.41	2064.69
689.599	2122.04
689.789	2197.81
689.979	2093.37
690.168	2097.46
690.358	1995.06
690.547	2060.6
690.737	2033.97
690.926	1956.15
691.116	1929.53
691.305	1984.82
691.495	1999.16
691.684	1898.81
691.874	1923.38
692.063	1968.44
692.252	2005.3
692.442	2001.21
692.631	1993.01
692.82	1947.96
693.01	1954.1
693.199	1958.2
693.388	1857.85
693.578	1915.19
693.767	1843.51
693.956	1921.34
694.146	1888.57
694.335	1831.23
694.524	1966.39
694.713	1937.72
694.902	1966.39
695.092	1845.56
695.281	1917.24
695.47	1880.38
695.659	2027.83
695.848	1904.95
696.037	1884.47
696.226	1788.22
696.415	1775.93
696.604	1802.55
696.793	1857.85
696.982	1814.84
697.171	1878.33
697.36	1872.18
697.549	1804.6
697.738	1753.4
697.927	1833.27
698.116	1876.28
698.305	1868.09
698.494	2007.35
698.683	1872.18
698.872	1814.84
699.061	1999.16
699.25	1935.67
699.438	1841.47
699.627	1876.28
699.816	1720.64
700.005	1872.18
700.193	1853.75
700.382	1857.85
700.571	1896.76
700.76	1759.55
700.948	1790.27
701.137	1886.52
701.326	1911.1
701.514	1863.99
701.703	1780.03
701.892	1849.66
702.08	1814.84
702.269	1773.88
702.457	1814.84
702.646	1851.71
702.834	1845.56
703.023	1814.84
703.212	1966.39
703.4	1886.52
703.589	1886.52
703.777	1993.01
703.965	1806.65
704.154	1917.24
704.342	1833.27
704.531	1882.42
704.719	1917.24
704.907	1878.33
705.096	1839.42
705.284	1884.47
705.472	1878.33
705.661	1775.93
705.849	1972.54
706.037	1923.38
706.226	1804.6
706.414	1933.62
706.602	1898.81
706.79	1812.79
706.979	1921.34
707.167	1851.71
707.355	1978.68
707.543	1876.28
707.731	1896.76
707.919	2001.21
708.107	1907
708.296	1919.29
708.484	1907
708.672	1980.73
708.86	1966.39
709.048	1888.57
709.236	1904.95
709.424	1902.9
709.612	1894.71
709.8	1825.08
709.988	1818.94
710.176	1882.42
710.364	1970.49
710.551	1974.58
710.739	1902.9
710.927	1909.05
711.115	1927.48
711.303	2031.93
711.491	1876.28
711.679	2001.21
711.866	1925.43
712.054	1935.67
712.242	1880.38
712.43	2040.12
712.617	1907
712.805	1993.01
712.993	1919.29
713.181	1925.43
713.368	1921.34
713.556	2044.21
713.744	1843.51
713.931	2050.36
714.119	1966.39
714.306	1925.43
714.494	1847.61
714.682	1984.82
714.869	2011.45
715.057	1880.38
715.244	1966.39
715.432	1986.87
715.619	2122.04
715.807	2015.54
715.994	2017.59
716.182	1974.58
716.369	1966.39
716.556	1896.76
716.744	1863.99
716.931	1900.86
717.119	1982.78
717.306	2044.21
717.493	2009.4
717.681	1995.06
717.868	1986.87
718.055	2027.83
718.242	2101.56
718.43	1927.48
718.617	1923.38
718.804	1970.49
718.991	2017.59
719.179	1929.53
719.366	1943.86
719.553	2015.54
719.74	1986.87
719.927	1958.2
720.114	2033.97
720.301	1988.92
720.488	1884.47
720.676	1995.06
720.863	1933.62
721.05	2070.84
721.237	2009.4
721.424	1929.53
721.611	1995.06
721.798	2040.12
721.985	2003.25
722.172	2011.45
722.358	2046.26
722.545	1904.95
722.732	2062.65
722.919	2019.64
723.106	2033.97
723.293	2031.93
723.48	2003.25
723.667	2066.74
723.853	1993.01
724.04	1902.9
724.227	1970.49
724.414	1960.25
724.6	2023.73
724.787	1997.11
724.974	2054.45
725.161	2011.45
725.347	1913.14
725.534	2113.85
725.72	2001.21
725.907	2029.88
726.094	2048.31
726.28	2160.95
726.467	1978.68
726.653	2138.42
726.84	1941.82
727.027	2140.47
727.213	2038.07
727.4	2027.83
727.586	1966.39
727.773	1911.1
727.959	2083.13
728.145	2099.51
728.332	2019.64
728.518	2087.22
728.705	2033.97
728.891	2036.02
729.077	2054.45
729.264	2021.69
729.45	2115.89
729.636	2152.76
729.823	1929.53
730.009	2167.09
730.195	2044.21
730.382	2064.69
730.568	2011.45
730.754	2173.24
730.94	2054.45
731.126	2095.41
731.313	2083.13
731.499	2091.32
731.685	2056.5
731.871	2064.69
732.057	1933.62
732.243	2093.37
732.429	2089.27
732.615	1978.68
732.801	2031.93
732.987	1976.63
733.173	1997.11
733.359	2021.69
733.545	2124.08
733.731	2040.12
733.917	2050.36
734.103	2140.47
734.289	2052.41
734.475	2036.02
734.661	2101.56
734.847	2023.73
735.033	2081.08
735.219	2064.69
735.404	2111.8
735.59	2036.02
735.776	1927.48
735.962	2050.36
736.148	2015.54
736.333	2070.84
736.519	2052.41
736.705	2079.03
736.89	1980.73
737.076	2003.25
737.262	1993.01
737.447	2117.94
737.633	1878.33
737.819	2036.02
738.004	1966.39
738.19	1939.77
738.375	1896.76
738.561	2005.3
738.747	1978.68
738.932	2070.84
739.118	2009.4
739.303	2036.02
739.489	2019.64
739.674	1993.01
739.859	1952.06
740.045	2085.17
740.23	1954.1
740.416	1960.25
740.601	1960.25
740.786	2021.69
740.972	1878.33
741.157	2046.26
741.342	1907
741.528	1941.82
741.713	2068.79
741.898	1884.47
742.084	1999.16
742.269	1943.86
742.454	1952.06
742.639	1853.75
742.824	1960.25
743.01	1937.72
743.195	1841.47
743.38	1915.19
743.565	1798.46
743.75	1954.1
743.935	1868.09
744.12	1841.47
744.305	1773.88
744.49	1737.02
744.675	1913.14
744.86	1708.35
745.045	1763.64
745.23	1855.8
745.415	1835.32
745.6	1847.61
745.785	1737.02
745.97	1831.23
746.155	1749.31
746.34	1769.79
746.525	1810.75
746.71	1800.51
746.895	1728.83
747.079	1702.2
747.264	1769.79
747.449	1669.44
747.634	1734.97
747.819	1765.69
748.003	1651
748.188	1605.95
748.373	1564.99
748.557	1632.57
748.742	1642.81
748.927	1665.34
749.111	1605.95
749.296	1540.41
749.481	1638.72
749.665	1601.85
749.85	1599.8
750.034	1585.47
750.219	1560.89
750.404	1538.37
750.588	1526.08
750.773	1493.31
750.957	1427.78
751.141	1438.02
751.326	1444.16
751.51	1419.58
751.695	1530.17
751.879	1540.41
752.064	1358.14
752.248	1515.84
752.432	1581.37
752.617	1472.83
752.801	1317.19
752.985	1431.87
753.17	1460.54
753.354	1282.37
753.538	1423.68
753.722	1327.43
753.907	1347.9
754.091	1415.49
754.275	1366.34
754.459	1333.57
754.643	1356.1
754.828	1204.55
755.012	1411.39
755.196	1294.66
755.38	1227.07
755.564	1257.79
755.748	1216.83
755.932	1313.09
756.116	1306.95
756.3	1171.78
756.484	1251.65
756.668	1210.69
756.852	1284.42
757.036	1202.5
757.22	1141.06
757.404	1149.25
757.588	1075.52
757.772	1165.64
757.956	1265.99
758.14	1200.45
758.323	1112.39
758.507	1157.44
758.691	1147.2
758.875	1096
759.059	1173.83
759.242	1153.35
759.426	1130.82
759.61	1106.24
759.794	1059.14
759.977	1163.59
760.161	1089.86
760.345	1106.24
760.528	1093.96
760.712	1044.81
760.895	1124.68
761.079	1042.76
761.263	1028.42
761.446	962.89
761.63	1018.18
761.813	1122.63
761.997	983.37
762.18	969.03
762.364	1081.67
762.547	1042.76
762.731	960.84
762.914	1012.04
763.098	938.31
763.281	1003.85
763.464	960.84
763.648	1053
763.831	1026.37
764.015	895.3
764.198	995.65
764.381	901.45
764.564	940.36
764.748	1034.57
764.931	946.5
765.114	1005.89
765.297	878.92
765.481	921.93
765.664	903.5
765.847	971.08
766.03	1042.76
766.213	977.22
766.397	1065.29
766.58	944.45
766.763	1018.18
766.946	919.88
767.129	944.45
767.312	813.38
767.495	831.82
767.678	844.1
767.861	979.27
768.044	897.35
768.227	897.35
768.41	850.25
768.593	876.87
768.776	782.67
768.959	825.67
769.142	870.73
769.324	809.29
769.507	837.96
769.69	842.06
769.873	864.58
770.056	852.3
770.239	770.38
770.421	891.21
770.604	837.96
770.787	751.95
770.97	837.96
771.152	704.84
771.335	874.82
771.518	764.23
771.7	792.91
771.883	813.38
772.066	756.04
772.248	762.19
772.431	811.34
772.613	813.38
772.796	739.66
772.978	831.82
773.161	803.15
773.343	790.86
773.526	721.23
773.708	708.94
773.891	749.9
774.073	713.03
774.256	725.32
774.438	721.23
774.621	700.75
774.803	758.09
774.985	678.22
775.168	741.71
775.35	635.21
775.532	725.32
775.715	753.99
775.897	680.27
776.079	665.93
776.261	723.27
776.444	635.21
776.626	653.64
776.808	651.6
776.99	690.51
777.173	569.68
777.355	631.12
777.537	588.11
777.719	590.16
777.901	688.46
778.083	590.16
778.265	553.29
778.447	561.48
778.629	649.55
778.811	577.87
778.993	584.01
779.175	663.88
779.357	594.25
779.539	551.24
779.721	555.34
779.903	635.21
780.085	596.3
780.267	600.4
780.449	571.72
780.631	536.91
780.812	528.72
780.994	590.16
781.176	493.9
781.358	543.05
781.54	530.77
781.721	481.61
781.903	573.77
782.085	467.28
782.267	475.47
782.448	459.09
782.63	479.57
782.812	565.58
782.993	471.37
783.175	489.81
783.357	528.72
783.538	452.94
783.72	397.65
783.901	500.05
784.083	504.14
784.264	461.13
784.446	403.79
784.627	477.52
784.809	422.22
784.99	438.61
785.172	465.23
785.353	512.33
785.535	448.85
785.716	436.56
785.897	346.45
786.079	414.03
786.26	379.22
786.441	422.22
786.623	336.21
786.804	321.87
786.985	360.78
787.167	391.5
787.348	403.79
787.529	342.35
787.71	514.38
787.891	362.83
788.073	368.98
788.254	379.22
788.435	348.5
788.616	362.83
788.797	440.65
788.978	344.4
789.159	379.22
789.34	362.83
789.522	248.15
789.703	352.59
789.884	334.16
790.065	330.06
790.246	364.88
790.427	377.17
790.607	389.46
790.788	287.06
790.969	209.23
791.15	280.91
791.331	391.5
791.512	317.78
791.693	344.4
791.874	346.45
792.054	371.02
792.235	371.02
792.416	264.53
792.597	301.39
792.778	393.55
792.958	287.06
793.139	323.92
793.32	305.49
793.5	383.31
793.681	250.19
793.862	270.67
794.042	256.34
794.223	309.58
794.404	323.92
794.584	244.05
794.765	309.58
794.945	307.54
795.126	278.87
795.306	356.69
795.487	321.87
795.667	217.43
795.848	303.44
796.028	297.3
796.209	303.44
796.389	301.39
796.57	274.77
796.75	293.2
796.93	266.58
797.111	256.34
797.291	237.91
797.471	280.91
797.652	262.48
797.832	223.57
798.012	235.86
798.192	256.34
798.373	172.37
798.553	258.39
798.733	330.06
798.913	213.33
799.093	201.04
799.274	217.43
799.454	328.02
799.634	270.67
799.814	276.82
799.994	213.33
800.174	168.27
800.354	248.15
800.534	158.03
800.714	250.19
800.894	272.72
801.074	178.51
801.254	188.75
801.434	174.42
801.614	233.81
801.794	198.99
801.974	549.2
802.154	203.09
802.334	246.1
802.514	239.95
802.693	223.57
802.873	215.38
803.053	274.77
803.233	272.72
803.413	178.51
803.592	227.67
803.772	137.56
803.952	242
804.131	217.43
804.311	221.52
804.491	229.71
804.67	168.27
804.85	190.8
805.03	186.71
805.209	184.66
805.389	225.62
805.568	274.77
805.748	246.1
805.928	168.27
806.107	237.91
806.287	155.99
806.466	233.81
806.646	192.85
806.825	151.89
807.004	151.89
807.184	192.85
807.363	180.56
807.543	201.04
807.722	192.85
807.901	217.43
808.081	219.47
808.26	63.83
808.439	201.04
808.619	196.95
808.798	190.8
808.977	160.08
809.156	198.99
809.336	182.61
809.515	121.17
809.694	151.89
809.873	125.27
810.052	155.99
810.231	180.56
810.411	254.29
810.59	186.71
810.769	209.23
810.948	176.47
811.127	147.8
811.306	254.29
811.485	174.42
811.664	258.39
811.843	207.19
812.022	127.32
812.201	153.94
812.38	172.37
812.559	112.98
812.737	211.28
812.916	149.84
813.095	92.5
813.274	121.17
813.453	170.32
813.632	166.23
813.811	162.13
813.989	115.03
814.168	160.08
814.347	186.71
814.526	147.8
814.704	102.74
814.883	207.19
815.062	108.88
815.24	166.23
815.419	104.79
815.598	192.85
815.776	110.93
815.955	131.41
816.133	147.8
816.312	127.32
816.49	123.22
816.669	168.27
816.847	135.51
817.026	67.92
817.204	67.92
817.383	143.7
817.561	86.36
817.74	186.71
817.918	168.27
818.097	98.64
818.275	112.98
818.453	69.97
818.632	125.27
818.81	178.51
818.988	180.56
819.167	127.32
819.345	82.26
819.523	203.09
819.701	215.38
819.879	133.46
820.058	78.16
820.236	119.12
820.414	82.26
820.592	155.99
820.77	143.7
820.948	176.47
821.127	110.93
821.305	65.88
821.483	82.26
821.661	117.08
821.839	94.55
822.017	141.65
822.195	84.31
822.373	117.08
822.551	57.68
822.729	88.4
822.907	104.79
823.085	67.92
823.262	143.7
823.44	110.93
823.618	12.63
823.796	108.88
823.974	94.55
824.152	215.38
824.329	139.6
824.507	96.6
824.685	90.45
824.863	162.13
825.04	88.4
825.218	115.03
825.396	102.74
825.574	76.12
825.751	125.27
825.929	69.97
826.107	98.64
826.284	61.78
826.462	33.11
826.639	47.44
826.817	112.98
826.994	57.68
827.172	123.22
827.349	86.36
827.527	104.79
827.704	96.6
827.882	22.87
828.059	69.97
828.237	63.83
828.414	76.12
828.591	90.45
828.769	108.88
828.946	18.77
829.124	141.65
829.301	98.64
829.478	53.59
829.655	94.55
829.833	104.79
830.01	-16.04
830.187	90.45
830.364	121.17
830.542	69.97
830.719	96.6
830.896	125.27
831.073	65.88
831.25	31.06
831.427	84.31
831.604	45.4
831.782	37.2
831.959	129.36
832.136	63.83
832.313	141.65
832.49	39.25
832.667	78.16
832.844	119.12
833.021	147.8
833.198	53.59
833.374	57.68
833.551	141.65
833.728	4.44
833.905	106.84
834.082	67.92
834.259	31.06
834.436	123.22
834.612	108.88
834.789	100.69
834.966	39.25
835.143	39.25
835.319	82.26
835.496	110.93
835.673	78.16
835.85	110.93
836.026	127.32
836.203	76.12
836.38	-13.99
836.556	53.59
836.733	119.12
836.909	135.51
837.086	139.6
837.262	8.53
837.439	84.31
837.616	47.44
837.792	18.77
837.968	100.69
838.145	4.44
838.321	53.59
838.498	205.14
838.674	78.16
838.851	92.5
839.027	67.92
839.203	61.78
839.38	90.45
839.556	29.01
839.732	78.16
839.909	125.27
840.085	29.01
840.261	61.78
840.437	45.4
840.614	53.59
840.79	63.83
840.966	20.82
841.142	29.01
841.318	51.54
841.494	65.88
841.671	0.34
841.847	51.54
842.023	59.73
842.199	37.2
842.375	51.54
842.551	57.68
842.727	20.82
842.903	133.46
843.079	43.35
843.255	29.01
843.431	35.16
843.607	39.25
843.783	-73.39
843.959	94.55
844.134	12.63
844.31	80.21
844.486	35.16
844.662	39.25
844.838	41.3
845.013	59.73
845.189	110.93
845.365	98.64
845.541	100.69
845.716	90.45
845.892	63.83
846.068	-24.23
846.244	49.49
846.419	37.2
846.595	10.58
846.77	57.68
846.946	10.58
847.122	55.64
847.297	41.3
847.473	84.31
847.648	33.11
847.824	41.3
847.999	41.3
848.175	94.55
848.35	59.73
848.526	155.99
848.701	82.26
848.876	98.64
849.052	0.34
849.227	20.82
849.403	31.06
849.578	-28.33
849.753	16.73
849.929	26.96
850.104	39.25
850.279	-36.52
850.454	49.49
850.63	26.96
850.805	18.77
850.98	-5.8
851.155	82.26
851.33	24.92
851.505	-42.67
851.681	20.82
851.856	18.77
852.031	29.01
852.206	69.97
852.381	2.39
852.556	53.59
852.731	-3.75
852.906	110.93
853.081	49.49
853.256	90.45
853.431	33.11
853.606	24.92
853.781	33.11
853.956	2.39
854.131	-16.04
854.305	10.58
854.48	-11.95
854.655	43.35
854.83	33.11
855.005	53.59
855.18	63.83
855.354	-42.67
855.529	112.98
855.704	-52.91
855.879	61.78
856.053	29.01
856.228	94.55
856.403	39.25
856.577	76.12
856.752	-22.19
856.926	-93.87
857.101	-18.09
857.276	35.16
857.45	69.97
857.625	47.44
857.799	47.44
857.974	47.44
858.148	51.54
858.323	106.84
858.497	-1.71
858.672	47.44
858.846	104.79
859.02	53.59
859.195	16.73
859.369	10.58
859.543	20.82
859.718	29.01
859.892	100.69
860.066	65.88
860.241	33.11
860.415	26.96
860.589	33.11
860.763	88.4
860.938	-3.75
861.112	-38.57
861.286	31.06
861.46	14.68
861.634	2.39
861.808	72.02
861.982	-18.09
862.157	-20.14
862.331	31.06
862.505	53.59
862.679	22.87
862.853	-22.19
863.027	-57
863.201	37.2
863.375	-20.14
863.549	115.03
863.722	88.4
863.896	22.87
864.07	-1.71
864.244	-3.75
864.418	88.4
864.592	33.11
864.766	53.59
864.939	55.64
865.113	55.64
865.287	67.92
865.461	20.82
865.634	33.11
865.808	43.35
865.982	-32.43
866.156	24.92
866.329	0.34
866.503	41.3
866.676	12.63
866.85	20.82
867.024	2.39
867.197	24.92
867.371	-28.33
867.544	76.12
867.718	65.88
867.891	35.16
868.065	6.49
868.238	0.34
868.412	6.49
868.585	49.49
868.759	2.39
868.932	61.78
869.105	26.96
869.279	41.3
869.452	63.83
869.625	115.03
869.799	53.59
869.972	53.59
870.145	72.02
870.319	86.36
870.492	6.49
870.665	-79.53
870.838	-48.81
871.011	-71.34
871.185	41.3
871.358	-26.28
871.531	67.92
871.704	41.3
871.877	61.78
872.05	76.12
872.223	67.92
872.396	108.88
872.569	61.78
872.742	14.68
872.915	29.01
873.088	2.39
873.261	16.73
873.434	8.53
873.607	47.44
873.78	-28.33
873.953	45.4
874.126	-16.04
874.299	65.88
874.471	2.39
874.644	100.69
874.817	29.01
874.99	0.34
875.163	29.01
875.335	-57
875.508	-9.9
875.681	-1.71
875.853	-26.28
876.026	-3.75
876.199	-65.19
876.371	45.4
876.544	-13.99
876.717	47.44
876.889	-24.23
877.062	20.82
877.234	49.49
877.407	65.88
877.579	22.87
877.752	-81.58
877.924	94.55
878.097	-61.1
878.269	45.4
878.442	-9.9
878.614	0.34
878.786	94.55
878.959	0.34
879.131	-36.52
879.303	-11.95
879.476	-18.09
879.648	-20.14
879.82	-5.8
879.993	-18.09
880.165	45.4
880.337	26.96
880.509	18.77
880.681	65.88
880.854	-32.43
881.026	57.68
881.198	26.96
881.37	41.3
881.542	35.16
881.714	2.39
881.886	37.2
882.058	4.44
882.23	-3.75
882.402	39.25
882.574	51.54
882.746	41.3
882.918	41.3
883.09	72.02
883.262	41.3
883.434	26.96
883.606	-18.09
883.778	8.53
883.95	67.92
884.122	12.63
884.293	35.16
884.465	-3.75
884.637	104.79
884.809	-20.14
884.98	0.34
885.152	10.58
885.324	18.77
885.496	-40.62
885.667	41.3
885.839	61.78
886.011	26.96
886.182	-40.62
886.354	-30.38
886.525	6.49
886.697	20.82
886.869	-5.8
887.04	90.45
887.212	31.06
887.383	35.16
887.555	33.11
887.726	-36.52
887.897	0.34
888.069	33.11
888.24	-16.04
888.412	10.58
888.583	-67.24
888.754	0.34
888.926	-42.67
889.097	33.11
889.268	61.78
889.44	10.58
889.611	37.2
889.782	-44.71
889.953	14.68
890.125	-20.14
890.296	-102.06
890.467	41.3
890.638	31.06
890.809	33.11
890.98	63.83
891.151	-9.9
891.323	78.16
891.494	82.26
891.665	-7.85
891.836	-50.86
892.007	26.96
892.178	6.49
892.349	49.49
892.52	2.39
892.691	20.82
892.862	0.34
893.032	-44.71
893.203	-13.99
893.374	-24.23
893.545	47.44
893.716	6.49
893.887	49.49
894.057	12.63
894.228	-5.8
894.399	4.44
894.57	22.87
894.74	-13.99
894.911	74.07
895.082	-20.14
895.253	-28.33
895.423	4.44
895.594	29.01
895.764	26.96
895.935	-11.95
896.106	86.36
896.276	78.16
896.447	-30.38
896.617	-7.85
896.788	-28.33
896.958	-3.75
897.129	-28.33
897.299	-3.75
897.47	69.97
897.64	45.4
897.81	74.07
897.981	12.63
898.151	-30.38
898.322	102.74
898.492	37.2
898.662	-5.8
898.832	39.25
899.003	18.77
899.173	45.4
899.343	26.96
899.513	-34.47
