Data from USB4F104151__25__11-05-07-912.txt Node

Date: Wed Mar 12 11:05:07 EDT 2025
User: louis
Spectrometer: USB4F10415
Trigger mode: 4
Integration Time (sec): 2.000000E-2
Scans to average: 1
Electric dark correction enabled: true
Nonlinearity correction enabled: false
Boxcar width: 0
XAxis mode: Wavelengths
Number of Pixels in Spectrum: 3648
>>>>>Begin Spectral Data<<<<<
178.204	-36.01
178.424	-36.01
178.644	-36.01
178.864	-66.73
179.084	-36.01
179.304	-62.63
179.524	15.19
179.744	52.05
179.964	58.2
180.184	-62.63
180.404	-11.43
180.624	-7.34
180.844	-3.24
181.064	19.29
181.283	33.62
181.503	-58.54
181.723	27.48
181.943	11.09
182.163	21.33
182.383	23.38
182.602	-5.29
182.822	39.76
183.042	2.9
183.262	54.1
183.482	23.38
183.701	13.14
183.921	43.86
184.141	-15.53
184.361	45.91
184.58	-36.01
184.8	7
185.02	-3.24
185.239	107.35
185.459	21.33
185.679	52.05
185.898	-42.15
186.118	86.87
186.338	47.96
186.557	66.39
186.777	35.67
186.997	-7.34
187.216	-44.2
187.436	7
187.655	33.62
187.875	93.01
188.095	13.14
188.314	2.9
188.534	84.82
188.753	35.67
188.973	-33.96
189.192	25.43
189.412	35.67
189.631	41.81
189.851	23.38
190.07	54.1
190.29	13.14
190.509	68.44
190.729	68.44
190.948	21.33
191.168	90.96
191.387	19.29
191.607	64.34
191.826	93.01
192.045	-56.49
192.265	-17.58
192.484	66.39
192.704	99.16
192.923	54.1
193.142	68.44
193.362	62.29
193.581	7
193.8	-1.19
194.02	-25.77
194.239	50
194.458	37.72
194.678	7
194.897	-17.58
195.116	-23.72
195.335	27.48
195.555	56.15
195.774	-13.48
195.993	60.24
196.212	-15.53
196.432	41.81
196.651	37.72
196.87	33.62
197.089	62.29
197.308	56.15
197.528	-15.53
197.747	78.68
197.966	11.09
198.185	74.58
198.404	29.52
198.623	21.33
198.842	60.24
199.062	90.96
199.281	74.58
199.5	76.63
199.719	-9.39
199.938	23.38
200.157	29.52
200.376	54.1
200.595	31.57
200.814	84.82
201.033	47.96
201.252	-13.48
201.471	0.85
201.69	-13.48
201.909	29.52
202.128	47.96
202.347	31.57
202.566	-42.15
202.785	86.87
203.004	56.15
203.223	25.43
203.442	64.34
203.661	47.96
203.879	-36.01
204.098	74.58
204.317	50
204.536	11.09
204.755	15.19
204.974	23.38
205.193	-5.29
205.411	107.35
205.63	78.68
205.849	23.38
206.068	74.58
206.287	33.62
206.505	76.63
206.724	93.01
206.943	66.39
207.162	50
207.381	41.81
207.599	60.24
207.818	-31.91
208.037	17.24
208.255	82.77
208.474	29.52
208.693	-5.29
208.911	31.57
209.13	2.9
209.349	115.54
209.567	101.2
209.786	19.29
210.005	52.05
210.223	52.05
210.442	-3.24
210.661	78.68
210.879	25.43
211.098	93.01
211.316	78.68
211.535	4.95
211.753	-42.15
211.972	93.01
212.191	45.91
212.409	-25.77
212.628	23.38
212.846	60.24
213.065	29.52
213.283	-13.48
213.502	90.96
213.72	0.85
213.938	-27.82
214.157	-5.29
214.375	93.01
214.594	90.96
214.812	-70.83
215.031	15.19
215.249	-15.53
215.467	37.72
215.686	29.52
215.904	37.72
216.122	50
216.341	117.59
216.559	50
216.778	70.48
216.996	52.05
217.214	13.14
217.432	78.68
217.651	-7.34
217.869	52.05
218.087	7
218.306	76.63
218.524	43.86
218.742	-3.24
218.96	105.3
219.179	-9.39
219.397	23.38
219.615	21.33
219.833	-3.24
220.051	33.62
220.27	0.85
220.488	39.76
220.706	62.29
220.924	-27.82
221.142	25.43
221.36	37.72
221.578	84.82
221.796	60.24
222.015	31.57
222.233	2.9
222.451	-17.58
222.669	64.34
222.887	21.33
223.105	66.39
223.323	4.95
223.541	84.82
223.759	0.85
223.977	9.05
224.195	25.43
224.413	127.83
224.631	27.48
224.849	-5.29
225.067	62.29
225.285	-15.53
225.503	27.48
225.721	-29.87
225.939	64.34
226.157	-5.29
226.375	60.24
226.592	29.52
226.81	121.68
227.028	2.9
227.246	21.33
227.464	25.43
227.682	117.59
227.9	13.14
228.117	70.48
228.335	84.82
228.553	31.57
228.771	31.57
228.989	35.67
229.206	-5.29
229.424	52.05
229.642	-17.58
229.86	0.85
230.077	33.62
230.295	39.76
230.513	-3.24
230.731	35.67
230.948	37.72
231.166	66.39
231.384	4.95
231.601	7
231.819	50
232.037	25.43
232.254	27.48
232.472	7
232.689	-17.58
232.907	93.01
233.125	9.05
233.342	27.48
233.56	47.96
233.777	93.01
233.995	29.52
234.213	33.62
234.43	11.09
234.648	70.48
234.865	-46.25
235.083	74.58
235.3	62.29
235.518	9.05
235.735	97.11
235.953	50
236.17	68.44
236.388	17.24
236.605	13.14
236.822	50
237.04	109.4
237.257	-11.43
237.475	39.76
237.692	2.9
237.909	35.67
238.127	-23.72
238.344	37.72
238.562	58.2
238.779	41.81
238.996	-13.48
239.214	47.96
239.431	86.87
239.648	25.43
239.865	2.9
240.083	17.24
240.3	23.38
240.517	68.44
240.735	68.44
240.952	62.29
241.169	52.05
241.386	29.52
241.603	56.15
241.821	-7.34
242.038	113.49
242.255	99.16
242.472	47.96
242.689	86.87
242.907	27.48
243.124	31.57
243.341	47.96
243.558	17.24
243.775	70.48
243.992	-13.48
244.209	45.91
244.426	78.68
244.643	31.57
244.86	7
245.078	27.48
245.295	47.96
245.512	11.09
245.729	-11.43
245.946	74.58
246.163	101.2
246.38	-3.24
246.597	47.96
246.814	60.24
247.031	56.15
247.248	11.09
247.464	2.9
247.681	45.91
247.898	19.29
248.115	70.48
248.332	37.72
248.549	47.96
248.766	29.52
248.983	72.53
249.2	76.63
249.417	58.2
249.633	95.06
249.85	111.44
250.067	52.05
250.284	15.19
250.501	21.33
250.717	90.96
250.934	45.91
251.151	142.16
251.368	64.34
251.585	115.54
251.801	15.19
252.018	-13.48
252.235	37.72
252.451	-9.39
252.668	50
252.885	82.77
253.102	27.48
253.318	9.05
253.535	50
253.752	13.14
253.968	15.19
254.185	19.29
254.401	97.11
254.618	2.9
254.835	-25.77
255.051	97.11
255.268	13.14
255.484	84.82
255.701	-38.06
255.917	29.52
256.134	50
256.351	43.86
256.567	-9.39
256.784	52.05
257	4.95
257.217	37.72
257.433	17.24
257.65	70.48
257.866	60.24
258.082	-21.67
258.299	29.52
258.515	58.2
258.732	13.14
258.948	37.72
259.165	33.62
259.381	-9.39
259.597	-9.39
259.814	-1.19
260.03	41.81
260.246	-21.67
260.463	-11.43
260.679	74.58
260.895	-3.24
261.112	17.24
261.328	70.48
261.544	45.91
261.761	127.83
261.977	41.81
262.193	60.24
262.409	70.48
262.626	45.91
262.842	103.25
263.058	31.57
263.274	33.62
263.49	17.24
263.707	80.72
263.923	54.1
264.139	-44.2
264.355	54.1
264.571	72.53
264.787	52.05
265.004	47.96
265.22	25.43
265.436	-9.39
265.652	-36.01
265.868	13.14
266.084	19.29
266.3	31.57
266.516	72.53
266.732	15.19
266.948	35.67
267.164	17.24
267.38	-11.43
267.596	17.24
267.812	9.05
268.028	127.83
268.244	84.82
268.46	72.53
268.676	-99.5
268.892	76.63
269.108	60.24
269.324	29.52
269.54	-9.39
269.756	56.15
269.972	19.29
270.188	78.68
270.403	-23.72
270.619	78.68
270.835	23.38
271.051	47.96
271.267	17.24
271.483	43.86
271.698	31.57
271.914	80.72
272.13	35.67
272.346	70.48
272.562	-50.35
272.777	119.64
272.993	-13.48
273.209	23.38
273.425	31.57
273.64	25.43
273.856	82.77
274.072	-70.83
274.287	35.67
274.503	64.34
274.719	25.43
274.934	52.05
275.15	43.86
275.366	4.95
275.581	37.72
275.797	45.91
276.012	68.44
276.228	27.48
276.444	39.76
276.659	101.2
276.875	-7.34
277.09	37.72
277.306	15.19
277.521	50
277.737	80.72
277.952	39.76
278.168	13.14
278.383	62.29
278.599	-33.96
278.814	88.92
279.03	43.86
279.245	50
279.461	86.87
279.676	23.38
279.892	-13.48
280.107	64.34
280.322	86.87
280.538	7
280.753	72.53
280.969	-31.91
281.184	39.76
281.399	41.81
281.615	35.67
281.83	27.48
282.045	-52.39
282.26	41.81
282.476	56.15
282.691	60.24
282.906	27.48
283.122	19.29
283.337	64.34
283.552	88.92
283.767	19.29
283.983	39.76
284.198	99.16
284.413	86.87
284.628	43.86
284.843	-5.29
285.058	54.1
285.274	56.15
285.489	54.1
285.704	31.57
285.919	4.95
286.134	0.85
286.349	78.68
286.564	95.06
286.779	80.72
286.995	66.39
287.21	25.43
287.425	19.29
287.64	66.39
287.855	72.53
288.07	37.72
288.285	-1.19
288.5	103.25
288.715	103.25
288.93	29.52
289.145	23.38
289.36	78.68
289.575	31.57
289.79	113.49
290.004	15.19
290.219	54.1
290.434	-9.39
290.649	11.09
290.864	25.43
291.079	23.38
291.294	25.43
291.509	39.76
291.724	43.86
291.938	0.85
292.153	117.59
292.368	33.62
292.583	74.58
292.798	60.24
293.012	-15.53
293.227	68.44
293.442	68.44
293.657	-13.48
293.871	74.58
294.086	17.24
294.301	138.07
294.516	54.1
294.73	41.81
294.945	23.38
295.16	-62.63
295.374	50
295.589	76.63
295.804	45.91
296.018	56.15
296.233	37.72
296.447	-5.29
296.662	47.96
296.877	39.76
297.091	66.39
297.306	60.24
297.52	19.29
297.735	93.01
297.949	66.39
298.164	86.87
298.378	33.62
298.593	37.72
298.807	21.33
299.022	95.06
299.236	31.57
299.451	17.24
299.665	-48.3
299.88	52.05
300.094	-1.19
300.309	54.1
300.523	56.15
300.737	33.62
300.952	7
301.166	60.24
301.381	15.19
301.595	58.2
301.809	78.68
302.024	17.24
302.238	15.19
302.452	58.2
302.667	41.81
302.881	78.68
303.095	58.2
303.309	60.24
303.524	21.33
303.738	50
303.952	15.19
304.166	13.14
304.381	68.44
304.595	0.85
304.809	-1.19
305.023	29.52
305.237	86.87
305.452	45.91
305.666	58.2
305.88	43.86
306.094	2.9
306.308	43.86
306.522	-3.24
306.736	64.34
306.95	21.33
307.164	62.29
307.379	7
307.593	43.86
307.807	62.29
308.021	13.14
308.235	50
308.449	35.67
308.663	31.57
308.877	138.07
309.091	41.81
309.305	50
309.519	27.48
309.733	50
309.947	-19.63
310.161	19.29
310.374	111.44
310.588	58.2
310.802	70.48
311.016	2.9
311.23	86.87
311.444	84.82
311.658	11.09
311.872	109.4
312.085	15.19
312.299	62.29
312.513	23.38
312.727	84.82
312.941	25.43
313.154	31.57
313.368	-1.19
313.582	84.82
313.796	54.1
314.009	31.57
314.223	35.67
314.437	90.96
314.651	66.39
314.864	-44.2
315.078	50
315.292	-9.39
315.505	-13.48
315.719	27.48
315.933	66.39
316.146	82.77
316.36	4.95
316.573	21.33
316.787	23.38
317.001	78.68
317.214	62.29
317.428	70.48
317.641	-5.29
317.855	21.33
318.068	23.38
318.282	113.49
318.495	97.11
318.709	2.9
318.922	-50.35
319.136	82.77
319.349	119.64
319.563	86.87
319.776	39.76
319.99	74.58
320.203	-21.67
320.417	47.96
320.63	37.72
320.843	76.63
321.057	64.34
321.27	47.96
321.483	76.63
321.697	72.53
321.91	90.96
322.124	45.91
322.337	52.05
322.55	-5.29
322.763	-9.39
322.977	21.33
323.19	-31.91
323.403	70.48
323.617	84.82
323.83	9.05
324.043	-27.82
324.256	7
324.469	29.52
324.683	-42.15
324.896	-33.96
325.109	54.1
325.322	15.19
325.535	43.86
325.748	54.1
325.962	23.38
326.175	39.76
326.388	82.77
326.601	25.43
326.814	39.76
327.027	70.48
327.24	13.14
327.453	39.76
327.666	56.15
327.879	84.82
328.092	97.11
328.305	7
328.518	45.91
328.731	66.39
328.944	64.34
329.157	25.43
329.37	-11.43
329.583	62.29
329.796	129.88
330.009	29.52
330.222	39.76
330.435	27.48
330.648	78.68
330.861	136.02
331.073	13.14
331.286	50
331.499	39.76
331.712	29.52
331.925	90.96
332.138	15.19
332.35	84.82
332.563	13.14
332.776	68.44
332.989	90.96
333.202	47.96
333.414	82.77
333.627	-36.01
333.84	2.9
334.053	68.44
334.265	-15.53
334.478	62.29
334.691	21.33
334.903	105.3
335.116	-21.67
335.329	25.43
335.541	-27.82
335.754	35.67
335.966	-64.68
336.179	93.01
336.392	-13.48
336.604	70.48
336.817	58.2
337.029	50
337.242	60.24
337.454	80.72
337.667	105.3
337.88	99.16
338.092	97.11
338.305	-13.48
338.517	78.68
338.729	76.63
338.942	76.63
339.154	-89.26
339.367	17.24
339.579	41.81
339.792	13.14
340.004	50
340.217	64.34
340.429	29.52
340.641	58.2
340.854	21.33
341.066	19.29
341.278	29.52
341.491	56.15
341.703	23.38
341.915	11.09
342.128	-3.24
342.34	-9.39
342.552	105.3
342.764	7
342.977	50
343.189	58.2
343.401	39.76
343.613	0.85
343.826	31.57
344.038	2.9
344.25	35.67
344.462	82.77
344.674	82.77
344.886	2.9
345.099	31.57
345.311	19.29
345.523	29.52
345.735	-11.43
345.947	52.05
346.159	54.1
346.371	-19.63
346.583	-52.39
346.795	58.2
347.007	101.2
347.219	29.52
347.431	127.83
347.643	27.48
347.855	-109.74
348.067	45.91
348.279	31.57
348.491	68.44
348.703	13.14
348.915	56.15
349.127	15.19
349.339	33.62
349.551	68.44
349.763	80.72
349.975	88.92
350.187	19.29
350.399	35.67
350.61	37.72
350.822	11.09
351.034	76.63
351.246	9.05
351.458	-7.34
351.669	86.87
351.881	27.48
352.093	158.55
352.305	72.53
352.517	86.87
352.728	64.34
352.94	60.24
353.152	72.53
353.363	121.68
353.575	99.16
353.787	47.96
353.999	109.4
354.21	76.63
354.422	72.53
354.633	78.68
354.845	37.72
355.057	76.63
355.268	66.39
355.48	9.05
355.692	-13.48
355.903	2.9
356.115	9.05
356.326	-15.53
356.538	64.34
356.749	121.68
356.961	35.67
357.172	-11.43
357.384	29.52
357.595	113.49
357.807	121.68
358.018	25.43
358.23	70.48
358.441	17.24
358.653	54.1
358.864	7
359.075	29.52
359.287	31.57
359.498	105.3
359.709	68.44
359.921	54.1
360.132	76.63
360.344	84.82
360.555	60.24
360.766	88.92
360.977	4.95
361.189	101.2
361.4	-54.44
361.611	27.48
361.823	129.88
362.034	86.87
362.245	-5.29
362.456	9.05
362.667	76.63
362.879	33.62
363.09	-1.19
363.301	68.44
363.512	52.05
363.723	95.06
363.935	97.11
364.146	125.78
364.357	29.52
364.568	76.63
364.779	-5.29
364.99	31.57
365.201	76.63
365.412	15.19
365.623	62.29
365.834	62.29
366.045	78.68
366.256	82.77
366.467	54.1
366.678	82.77
366.889	54.1
367.1	7
367.311	58.2
367.522	101.2
367.733	50
367.944	107.35
368.155	-15.53
368.366	119.64
368.577	7
368.788	58.2
368.999	21.33
369.209	60.24
369.42	95.06
369.631	152.4
369.842	47.96
370.053	138.07
370.264	76.63
370.474	27.48
370.685	-9.39
370.896	29.52
371.107	88.92
371.317	101.2
371.528	41.81
371.739	109.4
371.95	37.72
372.16	50
372.371	-42.15
372.582	43.86
372.792	56.15
373.003	7
373.214	-31.91
373.424	76.63
373.635	97.11
373.846	37.72
374.056	60.24
374.267	47.96
374.477	31.57
374.688	62.29
374.898	99.16
375.109	39.76
375.319	23.38
375.53	-7.34
375.74	25.43
375.951	52.05
376.161	31.57
376.372	58.2
376.582	37.72
376.793	-44.2
377.003	-58.54
377.214	47.96
377.424	109.4
377.635	111.44
377.845	58.2
378.055	70.48
378.266	2.9
378.476	15.19
378.686	54.1
378.897	68.44
379.107	88.92
379.317	86.87
379.528	76.63
379.738	47.96
379.948	2.9
380.158	41.81
380.369	7
380.579	37.72
380.789	84.82
380.999	25.43
381.21	35.67
381.42	93.01
381.63	74.58
381.84	41.81
382.05	129.88
382.261	148.31
382.471	70.48
382.681	41.81
382.891	113.49
383.101	41.81
383.311	56.15
383.521	43.86
383.731	37.72
383.941	45.91
384.151	70.48
384.361	33.62
384.571	115.54
384.781	86.87
384.991	121.68
385.201	103.25
385.411	45.91
385.621	113.49
385.831	27.48
386.041	47.96
386.251	47.96
386.461	115.54
386.671	119.64
386.881	56.15
387.091	-13.48
387.301	103.25
387.511	17.24
387.72	84.82
387.93	43.86
388.14	84.82
388.35	25.43
388.56	66.39
388.769	45.91
388.979	23.38
389.189	62.29
389.399	76.63
389.609	72.53
389.818	52.05
390.028	45.91
390.238	21.33
390.447	97.11
390.657	105.3
390.867	23.38
391.076	-1.19
391.286	50
391.496	74.58
391.705	123.73
391.915	97.11
392.125	99.16
392.334	17.24
392.544	197.46
392.753	68.44
392.963	15.19
393.172	88.92
393.382	99.16
393.591	54.1
393.801	76.63
394.01	72.53
394.22	129.88
394.429	13.14
394.639	80.72
394.848	43.86
395.058	115.54
395.267	109.4
395.477	150.36
395.686	66.39
395.895	168.79
396.105	90.96
396.314	54.1
396.524	86.87
396.733	148.31
396.942	162.64
397.152	127.83
397.361	97.11
397.57	105.3
397.78	43.86
397.989	121.68
398.198	117.59
398.407	105.3
398.617	123.73
398.826	166.74
399.035	86.87
399.244	121.68
399.453	103.25
399.663	84.82
399.872	52.05
400.081	111.44
400.29	146.26
400.499	86.87
400.708	119.64
400.917	54.1
401.127	99.16
401.336	162.64
401.545	136.02
401.754	105.3
401.963	142.16
402.172	23.38
402.381	176.98
402.59	103.25
402.799	72.53
403.008	215.89
403.217	131.92
403.426	123.73
403.635	123.73
403.844	125.78
404.053	142.16
404.262	88.92
404.471	166.74
404.68	154.45
404.888	78.68
405.097	156.5
405.306	129.88
405.515	107.35
405.724	187.22
405.933	158.55
406.142	138.07
406.35	148.31
406.559	199.51
406.768	111.44
406.977	219.99
407.185	191.31
407.394	262.99
407.603	127.83
407.812	211.79
408.02	224.08
408.229	279.38
408.438	160.59
408.646	187.22
408.855	131.92
409.064	256.85
409.272	199.51
409.481	246.61
409.69	365.39
409.898	244.56
410.107	209.75
410.315	297.81
410.524	248.66
410.733	287.57
410.941	295.76
411.15	359.25
411.358	379.73
411.567	338.77
411.775	379.73
411.984	428.88
412.192	344.91
412.401	383.82
412.609	521.04
412.818	414.54
413.026	461.65
413.234	430.93
413.443	414.54
413.651	529.23
413.86	430.93
414.068	516.94
414.276	570.19
414.485	627.53
414.693	650.06
414.901	654.16
415.11	656.2
415.318	629.58
415.526	688.97
415.734	774.99
415.943	752.46
416.151	797.51
416.359	691.02
416.567	828.23
416.776	803.66
416.984	848.71
417.192	949.06
417.4	979.78
417.608	877.38
417.817	967.49
418.025	953.16
418.233	975.69
418.441	1039.17
418.649	1098.56
418.857	1170.24
419.065	1164.1
419.273	1145.67
419.481	1325.89
419.689	1250.11
419.897	1327.94
420.105	1479.49
420.313	1413.95
420.521	1432.38
420.729	1532.73
420.937	1585.98
421.145	1561.41
421.353	1667.9
421.561	1798.97
421.769	1788.73
421.977	1846.07
422.185	1848.12
422.393	1983.29
422.601	2022.2
422.809	2059.06
423.017	2147.12
423.224	2157.36
423.432	2386.74
423.64	2323.25
423.848	2468.66
424.056	2417.46
424.263	2599.73
424.471	2636.59
424.679	2609.97
424.887	2736.94
425.094	2894.63
425.302	2810.67
425.51	2919.21
425.718	3181.35
425.925	3044.13
426.133	3386.15
426.341	3576.61
426.548	3564.32
426.756	3539.74
426.964	3652.38
427.171	3889.95
427.379	3963.67
427.586	4098.84
427.794	4092.69
428.001	4428.56
428.209	4537.1
428.417	4449.04
428.624	4756.24
428.832	4631.31
429.039	4735.76
429.247	4715.28
429.454	5210.89
429.662	5618.43
429.869	5071.62
430.076	5470.98
430.284	5339.91
430.491	5579.52
430.699	5886.72
430.906	5997.31
431.114	5978.87
431.321	6257.4
431.528	6427.38
431.736	6863.6
431.943	7125.74
432.15	6855.4
432.358	6996.71
432.565	7322.34
432.772	7236.33
432.979	7670.5
433.187	7881.44
433.394	7961.31
433.601	8276.7
433.808	8461.01
434.016	8530.64
434.223	8579.79
434.43	9145.03
434.637	8911.57
434.844	9519.81
435.052	9880.25
435.259	9886.4
435.466	9773.76
435.673	9792.19
435.88	10316.47
436.087	10814.13
436.294	11094.7
436.501	10709.68
436.708	10922.67
436.915	11139.76
437.122	11831.97
437.329	11778.72
437.537	12012.19
437.743	12216.99
437.95	12155.55
438.157	12794.51
438.364	13349.51
438.571	13496.97
438.778	13363.85
438.985	14551.67
439.192	13902.47
439.399	14369.4
439.606	13904.51
439.813	15250.03
440.02	15661.67
440.227	15731.3
440.433	15649.38
440.64	16085.6
440.847	15790.69
441.054	16224.86
441.261	17349.2
441.467	17312.33
441.674	17564.23
441.881	18096.71
442.088	18201.15
442.294	17904.2
442.501	18502.2
442.708	18786.87
442.914	19737.13
443.121	20275.74
443.328	19960.36
443.534	21223.95
443.741	20455.97
443.948	20679.19
444.154	21676.55
444.361	21770.76
444.568	21795.34
444.774	21848.58
444.981	22387.2
445.187	22688.25
445.394	23663.08
445.6	23220.72
445.807	25969.1
446.013	24306.15
446.22	24869.34
446.426	26083.78
446.633	26388.93
446.839	26767.8
447.046	25678.29
447.252	27154.87
447.459	27249.08
447.665	26948.03
447.871	28471.71
448.078	29499.8
448.284	28068.27
448.491	29114.78
448.697	30089.61
448.903	30421.38
449.11	30310.79
449.316	29671.82
449.522	30728.58
449.728	31621.49
449.935	31318.39
450.141	31211.9
450.347	32012.65
450.553	31283.58
450.76	31721.84
450.966	32835.94
451.172	32332.14
451.378	32844.13
451.584	32153.96
451.791	33026.4
451.997	33093.98
452.203	33630.55
452.409	33313.11
452.615	33061.21
452.821	31693.17
453.027	31678.83
453.233	33263.96
453.44	31693.17
453.646	31981.93
453.852	31949.17
454.058	32704.87
454.264	31375.73
454.47	32401.77
454.676	31584.63
454.882	32665.95
455.088	29907.34
455.294	30249.35
455.5	30419.33
455.705	30787.97
455.911	29456.79
456.117	29168.02
456.323	28338.6
456.529	26900.92
456.735	28117.42
456.941	27310.52
457.147	27097.53
457.352	25790.92
457.558	25625.04
457.764	25876.94
457.97	25274.84
458.176	24736.22
458.381	24855
458.587	23390.7
458.793	23654.89
458.999	22178.31
459.204	23841.26
459.41	23161.33
459.616	21778.95
459.821	21645.84
460.027	21514.77
460.233	20857.37
460.438	20093.47
460.644	20283.94
460.85	19354.16
461.055	18860.6
461.261	18999.86
461.466	17646.15
461.672	16968.27
461.878	18221.63
462.083	17044.05
462.289	16951.89
462.494	16642.65
462.7	15788.64
462.905	15286.89
463.111	15938.15
463.316	16134.75
463.522	15735.4
463.727	15829.6
463.932	15686.25
464.138	15639.14
464.343	15624.81
464.549	14895.73
464.754	15589.99
464.959	15620.71
465.165	15438.44
465.37	14588.53
465.575	14422.65
465.781	15037.04
465.986	15196.78
466.191	14615.16
466.397	14115.45
466.602	13562.5
466.807	14125.69
467.012	14109.31
467.218	13859.46
467.423	13861.51
467.628	13898.37
467.833	14762.61
468.038	13959.81
468.244	13701.76
468.449	14275.2
468.654	13453.96
468.859	13462.15
469.064	13365.9
469.269	12941.97
469.474	12880.53
469.679	12970.64
469.885	12982.93
470.09	13062.8
470.295	12858
470.5	12391.06
470.705	12737.17
470.91	12405.4
471.115	12303
471.32	12532.37
471.525	12415.64
471.73	12016.29
471.935	12057.25
472.139	11827.87
472.344	11807.39
472.549	11532.97
472.754	11440.81
472.959	11512.49
473.164	11172.52
473.369	11010.73
473.574	11365.03
473.778	11193
473.983	11039.4
474.188	10889.9
474.393	10590.9
474.598	10689.2
474.802	10463.93
475.007	10595
475.212	10275.51
475.417	10152.63
475.621	10074.81
475.826	10087.1
476.031	9812.67
476.235	9597.63
476.44	9962.17
476.645	9536.2
476.849	9497.28
477.054	9489.09
477.259	9536.2
477.463	9448.13
477.668	9419.46
477.872	9091.79
478.077	9114.31
478.282	8944.33
478.486	8760.02
478.691	8899.28
478.895	8757.97
479.1	8690.38
479.304	8784.59
479.509	8549.07
479.713	8721.1
479.918	8397.53
480.122	8213.21
480.326	8446.68
480.531	8397.53
480.735	8352.47
480.94	8190.68
481.144	8501.97
481.348	8166.1
481.553	8385.24
481.757	8237.78
481.961	8278.74
482.166	8227.54
482.37	8162.01
482.574	8008.41
482.778	8174.3
482.983	8145.63
483.187	7906.01
483.391	8188.63
483.595	8207.06
483.8	8090.33
484.004	8149.72
484.208	8403.67
484.412	8073.95
484.616	8262.36
484.821	8127.19
485.025	7992.03
485.229	8368.85
485.433	8096.47
485.637	8022.75
485.841	7938.78
486.045	8145.63
486.249	8096.47
486.453	8075.99
486.657	8159.96
486.861	8205.02
487.065	8032.99
487.269	8075.99
487.473	7953.12
487.677	8481.49
487.881	8104.67
488.085	8045.27
488.289	8245.98
488.493	8211.16
488.697	8157.91
488.901	8028.89
489.105	8194.78
489.309	8145.63
489.512	8266.46
489.716	8043.23
489.92	8190.68
490.124	8114.91
490.328	8479.44
490.531	8278.74
490.735	8286.93
490.939	8456.92
491.143	8377.05
491.346	8405.72
491.55	8387.29
491.754	8311.51
491.958	8526.55
492.161	8547.03
492.365	8512.21
492.569	8563.41
492.772	8540.88
492.976	8733.39
493.18	8749.78
493.383	8837.84
493.587	8772.3
493.79	9030.35
493.994	8696.53
494.197	8962.76
494.401	9095.88
494.605	9038.54
494.808	9099.98
495.012	9171.66
495.215	9448.13
495.419	9458.37
495.622	9501.38
495.825	9538.24
496.029	9431.75
496.232	9827.01
496.436	9693.89
496.639	9953.98
496.843	9882.3
497.046	10087.1
497.249	10212.03
497.453	9964.22
497.656	10316.47
497.859	10402.49
498.063	10486.45
498.266	10713.78
498.469	10850.99
498.673	10760.88
498.876	10871.47
499.079	11164.33
499.282	11090.6
499.485	11152.04
499.689	11426.47
499.892	11522.73
500.095	11438.76
500.298	11838.11
500.501	11745.95
500.705	12044.96
500.908	12237.47
501.111	12186.27
501.314	12462.74
501.517	12706.45
501.72	12837.52
501.923	12892.82
502.126	13200.01
502.329	12944.02
502.532	13177.48
502.735	13410.95
502.938	13718.15
503.141	13597.32
503.344	13607.56
503.547	13863.55
503.75	14283.39
503.953	14455.42
504.156	14330.49
504.359	14609.01
504.562	14957.17
504.765	14981.74
504.968	15069.81
505.17	15209.07
505.373	15317.61
505.576	15477.35
505.779	15735.4
505.982	15805.03
506.185	16298.59
506.387	16388.7
506.59	16628.31
506.793	16792.15
506.996	16738.9
507.198	17113.68
507.401	16906.84
507.604	17422.92
507.807	17658.44
508.009	17615.43
508.212	17680.97
508.415	18190.91
508.617	18448.96
508.82	18543.16
509.022	18278.97
509.225	18940.47
509.428	18989.62
509.63	19175.98
509.833	19186.22
510.035	19724.84
510.238	19520.04
510.44	19821.09
510.643	20408.86
510.845	20568.6
511.048	20410.91
511.25	20836.89
511.453	20916.76
511.655	21645.84
511.858	21250.58
512.06	21637.64
512.262	21924.36
512.465	22161.92
512.667	22282.75
512.87	22303.23
513.072	22708.73
513.274	23026.17
513.477	23007.73
513.679	23249.39
513.881	23644.65
514.084	23871.98
514.286	23888.36
514.488	24068.58
514.69	24779.23
514.893	24666.59
515.095	24818.14
515.297	25182.68
515.499	25301.46
515.701	25684.43
515.904	26180.04
516.106	26159.56
516.308	26493.38
516.51	26696.13
516.712	26786.24
516.914	27263.41
517.116	27292.08
517.318	27527.6
517.52	27736.49
517.722	27855.28
517.925	28402.08
518.127	28627.36
518.329	28565.92
518.531	28860.83
518.733	29391.25
518.935	29806.99
519.136	29792.65
519.338	30329.22
519.54	30632.32
519.742	30902.65
519.944	31134.07
520.146	31347.06
520.348	31246.71
520.55	31598.96
520.752	31736.18
520.954	32559.46
521.155	32239.98
521.357	32862.56
521.559	33220.95
521.761	33601.88
521.963	33571.16
522.164	33993.04
522.366	33655.12
522.568	34249.03
522.77	34328.91
522.971	35029.31
523.173	34578.76
523.375	35098.94
523.576	35313.98
523.778	35467.58
523.98	35850.55
524.181	35815.73
524.383	35801.4
524.584	36786.47
524.786	36573.48
524.988	36589.86
525.189	37095.71
525.391	36995.36
525.592	37372.19
525.794	37708.05
525.995	37701.91
526.197	37814.55
526.398	37744.92
526.6	38160.66
526.801	38615.3
527.003	38564.1
527.204	38693.13
527.406	39125.25
527.607	39295.23
527.808	39272.7
528.01	38789.38
528.211	38973.7
528.412	39549.18
528.614	39641.34
528.815	39913.72
529.016	40470.76
529.218	39518.46
529.419	40483.05
529.62	40200.43
529.822	40001.78
530.023	40438
530.224	40370.41
530.425	40607.98
530.626	40521.96
530.828	40382.7
531.029	41054.43
531.23	40882.41
531.431	40667.37
531.632	40894.69
531.833	41072.87
532.035	40874.21
532.236	40685.8
532.437	41513.18
532.638	41001.19
532.839	41369.82
533.04	41664.73
533.241	41205.98
533.442	41971.92
533.643	41451.74
533.844	41586.91
534.045	41883.86
534.246	41535.71
534.447	41640.15
534.648	41650.39
534.849	41771.22
535.05	41621.72
535.251	41414.88
535.451	41578.71
535.652	42019.03
535.853	41855.19
536.054	41896.15
536.255	41849.05
536.456	41732.31
536.657	42404.05
536.857	41732.31
537.058	41638.11
537.259	42199.25
537.46	42164.43
537.66	41734.36
537.861	41801.94
538.062	42148.05
538.263	41799.9
538.463	41763.03
538.664	41847
538.865	41781.46
539.065	42225.87
539.266	42148.05
539.466	42182.87
539.667	41457.88
539.868	42180.82
540.068	41857.24
540.269	41726.17
540.469	41840.85
540.67	41382.11
540.87	41748.7
541.071	41920.73
541.271	42078.42
541.472	41779.42
541.672	41730.26
541.873	41689.31
542.073	41308.38
542.274	41609.43
542.474	41791.7
542.675	41810.14
542.875	42139.86
543.075	41437.41
543.276	41314.53
543.476	42041.56
543.676	41763.03
543.877	42027.22
544.077	41464.03
544.277	41861.33
544.478	41529.56
544.678	42019.03
544.878	41451.74
545.078	41824.47
545.279	41674.97
545.479	41179.36
545.679	41822.42
545.879	41451.74
546.079	41492.7
546.28	41697.5
546.48	41418.97
546.68	41504.99
546.88	41277.66
547.08	41701.59
547.28	41232.61
547.48	41406.69
547.68	41801.94
547.88	41468.12
548.081	42021.08
548.281	41384.16
548.481	41181.41
548.681	41836.76
548.881	41179.36
549.081	41005.28
549.28	40820.97
549.48	41459.93
549.68	41709.78
549.88	41769.18
550.08	41240.8
550.28	41433.31
550.48	41302.24
550.68	41826.52
550.88	40960.23
551.08	41629.91
551.279	41365.73
551.479	41173.22
551.679	41392.35
551.879	41449.69
552.079	41607.39
552.278	41304.29
552.478	41167.07
552.678	41183.46
552.878	41355.49
553.077	41310.43
553.277	40640.75
553.477	41244.9
553.676	41023.72
553.876	40732.9
554.076	40999.14
554.275	40784.1
554.475	40515.82
554.674	40853.73
554.874	41015.52
555.074	40675.56
555.273	40667.37
555.473	40906.98
555.672	40679.66
555.872	40415.47
556.071	40775.91
556.271	41025.76
556.47	40270.06
556.67	40442.09
556.869	40212.72
557.068	40286.45
557.268	40087.79
557.467	40394.99
557.667	40081.65
557.866	40300.78
558.065	40208.62
558.265	39883
558.464	39487.74
558.663	40067.31
558.863	39434.49
559.062	40308.97
559.261	39760.12
559.461	40184.05
559.66	39332.09
559.859	39776.5
560.058	39391.48
560.258	39518.46
560.457	38734.09
560.656	39805.17
560.855	38908.16
561.054	39119.1
561.253	38859.01
561.453	38656.26
561.652	39205.12
561.851	39067.91
562.05	38953.22
562.249	38508.81
562.448	38729.99
562.647	38684.94
562.846	38625.54
563.045	38693.13
563.244	38273.29
563.443	38689.03
563.642	37816.6
563.841	38248.72
564.04	37943.57
564.239	38592.78
564.438	37648.66
564.637	37994.77
564.836	37605.66
565.035	37376.28
565.234	37757.21
565.432	37402.91
565.631	37417.24
565.83	37251.36
566.029	36858.15
566.228	37382.43
566.427	36856.1
566.625	36684.07
566.824	36442.41
567.023	37036.32
567.222	36221.23
567.42	36509.99
567.619	36536.62
567.818	36430.12
568.016	36303.15
568.215	36446.51
568.414	36276.52
568.612	36428.07
568.811	35715.38
569.01	36030.77
569.208	35307.83
569.407	35864.88
569.605	35283.26
569.804	35647.8
570.002	34976.06
570.201	35281.21
570.4	34959.68
570.598	34591.05
570.797	34763.07
570.995	35041.6
571.193	34789.7
571.392	34662.72
571.59	34386.25
571.789	34427.21
571.987	34357.58
572.186	34222.41
572.384	33962.32
572.582	34152.78
572.781	33933.65
572.979	33171.8
573.177	33851.73
573.376	33913.17
573.574	33388.89
573.772	33724.75
573.971	33438.04
574.169	32901.47
574.367	32770.4
574.565	33149.28
574.763	32813.41
574.962	32756.07
575.16	32391.53
575.358	32702.82
575.556	32123.24
575.754	32561.51
575.952	32483.69
576.151	32442.73
576.349	32223.59
576.547	31953.26
576.745	32117.1
576.943	32063.85
577.141	31900.01
577.339	32008.56
577.537	31371.64
577.735	31752.56
577.933	31162.75
578.131	31639.92
578.329	31021.44
578.527	31244.66
578.725	31375.73
578.923	31287.67
579.121	30878.08
579.319	30671.23
579.516	31218.04
579.714	30785.92
579.912	30439.81
580.11	30515.59
580.308	30269.83
580.506	30181.77
580.704	30067.08
580.901	29804.94
581.099	30433.67
581.297	29821.33
581.495	30048.65
581.692	29806.99
581.89	29731.22
582.088	29782.41
582.285	29264.28
582.483	30019.98
582.681	29297.05
582.878	29249.94
583.076	29270.42
583.274	29421.97
583.471	28959.13
583.669	29096.35
583.866	28740
584.064	29002.14
584.262	28606.88
584.459	28645.79
584.657	28467.62
584.854	28557.73
585.052	28172.71
585.249	28635.55
585.447	28182.95
585.644	28072.36
585.841	28336.55
586.039	28365.22
586.236	27570.61
586.434	27603.38
586.631	27912.62
586.828	28004.78
587.026	27462.07
587.223	27380.15
587.42	27367.86
587.618	27783.6
587.815	26978.75
588.012	27126.2
588.21	27052.47
588.407	27273.65
588.604	26757.57
588.801	26630.59
588.999	26814.91
589.196	26667.45
589.393	26579.39
589.59	26640.83
589.787	26440.13
589.984	26278.34
590.182	26259.91
590.379	26567.1
590.576	26161.61
590.773	26102.22
590.97	25811.4
591.167	26036.68
591.364	25600.46
591.561	25729.48
591.758	25584.08
591.955	25250.26
592.152	26065.35
592.349	25407.95
592.546	25747.92
592.743	25364.95
592.94	25407.95
593.137	25410
593.334	25336.27
593.531	24811.99
593.727	25065.94
593.924	24713.69
594.121	24637.92
594.318	24977.88
594.515	24515.04
594.712	24953.3
594.908	24361.44
595.105	24525.28
595.302	24304.1
595.499	24363.49
595.696	24308.19
595.892	23902.7
596.089	23984.62
596.286	24058.34
596.482	23751.15
596.679	23826.92
596.876	23757.29
597.072	23564.78
597.269	23636.46
597.466	23276.02
597.662	23220.72
597.859	23294.45
598.055	23577.07
598.252	23007.73
598.448	23267.83
598.645	23087.61
598.841	22934.01
599.038	22882.81
599.234	22759.93
599.431	22596.09
599.627	22594.04
599.824	22905.34
600.02	22413.82
600.217	22358.53
600.413	22284.8
600.609	22321.66
600.806	22245.89
601.002	22372.86
601.198	22118.92
601.395	22004.23
601.591	22217.22
601.787	22094.34
601.984	21819.91
602.18	22233.6
602.376	21930.5
602.572	21817.86
602.769	21469.71
602.965	21352.98
603.161	21608.97
603.357	20953.62
603.553	21324.3
603.75	21252.63
603.946	21139.99
604.142	21256.72
604.338	20863.51
604.534	20916.76
604.73	20859.42
604.926	20785.69
605.122	20746.78
605.318	20728.35
605.514	20793.88
605.71	20328.99
605.906	20423.2
606.102	20658.71
606.298	20535.84
606.494	20519.45
606.69	20560.41
606.886	20314.66
607.082	19978.79
607.278	20398.62
607.474	19857.96
607.67	20191.78
607.866	19812.9
608.062	19999.27
608.257	20009.51
608.453	19653.16
608.649	19831.33
608.845	19745.32
609.041	19808.81
609.236	19862.05
609.432	19763.75
609.628	19466.8
609.824	19481.13
610.019	19413.55
610.215	19202.61
610.411	19249.71
610.606	19286.58
610.802	19247.66
610.998	19171.89
611.193	19075.63
611.389	19098.16
611.584	18965.04
611.78	18854.45
611.976	19018.29
612.171	18960.95
612.367	18868.79
612.562	18942.52
612.758	18627.13
612.953	18565.69
613.149	18790.97
613.344	18399.8
613.539	18801.21
613.735	18698.81
613.93	18836.02
614.126	18420.28
614.321	18610.75
614.517	18448.96
614.712	18494.01
614.907	18545.21
615.103	18246.21
615.298	18311.74
615.493	18557.5
615.688	17830.47
615.884	18426.43
616.079	18164.29
616.274	18174.53
616.47	18385.47
616.665	18278.97
616.86	17914.44
617.055	17904.2
617.25	17787.46
617.445	18016.83
617.641	17578.57
617.836	17908.29
618.031	17685.06
618.226	17603.14
618.421	17549.9
618.616	17818.18
618.811	17414.73
619.006	17467.98
619.201	17103.44
619.396	17392.2
619.591	16857.68
619.786	17259.09
619.981	16892.5
620.176	16990.8
620.371	16644.7
620.566	16673.37
620.761	16777.81
620.956	16783.96
621.151	16777.81
621.346	16482.91
621.541	16476.76
621.735	16525.91
621.93	16327.26
622.125	16140.9
622.32	15905.38
622.515	16222.81
622.709	15932
622.904	15815.27
623.099	16065.12
623.294	15827.56
623.488	15608.42
623.683	15884.9
623.878	15223.41
624.072	15424.11
624.267	15127.15
624.462	15247.98
624.656	15231.6
624.851	15022.7
625.046	14948.98
625.24	14668.41
625.435	14582.39
625.629	14738.04
625.824	14871.15
626.018	14656.12
626.213	14389.88
626.407	14432.89
626.602	14281.34
626.796	14250.62
626.991	14301.82
627.185	14094.97
627.38	14109.31
627.574	14113.41
627.768	13636.23
627.963	13869.7
628.157	13773.44
628.352	13785.73
628.546	13671.04
628.74	13589.13
628.935	13337.23
629.129	13298.31
629.323	13296.27
629.517	13341.32
629.712	13302.41
629.906	13171.34
630.1	13087.37
630.294	13093.52
630.489	12741.27
630.683	12905.1
630.877	12608.15
631.071	12685.97
631.265	12880.53
631.459	12675.73
631.653	12571.29
631.848	12663.44
632.042	12389.02
632.236	12442.26
632.43	12143.26
632.624	12288.67
632.818	12438.17
633.012	12120.73
633.206	12227.23
633.4	12133.02
633.594	11993.76
633.788	11860.64
633.982	11743.91
634.176	11797.15
634.369	11616.93
634.563	11670.18
634.757	11471.53
634.951	11502.25
635.145	11362.98
635.339	11356.84
635.533	11049.64
635.726	11209.39
635.92	11193
636.114	11281.07
636.308	10922.67
636.501	11147.95
636.695	11070.12
636.889	11041.45
637.083	10803.89
637.276	10715.83
637.47	10867.38
637.664	10760.88
637.857	10615.48
638.051	10631.86
638.244	10566.32
638.438	10435.25
638.632	10484.41
638.825	10375.86
639.019	10064.57
639.212	10113.72
639.406	10318.52
639.599	10054.33
639.793	10056.38
639.986	9958.08
640.18	9863.87
640.373	9769.66
640.567	9732.8
640.76	9614.02
640.954	9464.52
641.147	9622.21
641.34	9423.56
641.534	9497.28
641.727	9480.9
641.92	9458.37
642.114	9253.58
642.307	9306.82
642.5	9349.83
642.694	9196.23
642.887	9130.7
643.08	9190.09
643.273	9161.42
643.467	9052.88
643.66	8989.39
643.853	8993.48
644.046	8948.43
644.239	8737.49
644.432	8694.48
644.626	8602.32
644.819	8647.38
645.012	8764.11
645.205	8676.05
645.398	8573.65
645.591	8440.53
645.784	8430.29
645.977	8336.09
646.17	8456.92
646.363	8241.88
646.556	8196.82
646.749	8424.15
646.942	8147.67
647.135	8317.65
647.328	8202.97
647.521	8137.43
647.714	8045.27
647.907	8096.47
648.099	7852.77
648.292	7895.77
648.485	7936.73
648.678	7647.97
648.871	7719.65
649.064	7557.86
649.256	7766.75
649.449	7758.56
649.642	7541.47
649.835	7351.01
650.027	7473.89
650.22	7377.64
650.413	7375.59
650.605	7404.26
650.798	7156.46
650.991	7226.09
651.183	7213.8
651.376	7213.8
651.568	7230.18
651.761	7049.96
651.954	7129.83
652.146	7006.95
652.339	7035.63
652.531	7056.11
652.724	6853.36
652.916	6898.41
653.109	6890.22
653.301	6804.21
653.494	6943.47
653.686	6787.82
653.879	6845.16
654.071	6818.54
654.263	6685.42
654.456	6662.9
654.648	6601.46
654.84	6421.24
655.033	6324.98
655.225	6535.92
655.417	6359.8
655.61	6484.72
655.802	6384.37
655.994	6384.37
656.186	6320.88
656.379	6290.17
656.571	6257.4
656.763	6204.15
656.955	6060.79
657.148	6124.28
657.34	6236.92
657.532	6103.8
657.724	5991.16
657.916	6179.58
658.108	6028.03
658.3	5917.44
658.492	6089.46
658.684	5837.56
658.876	5827.32
659.068	5909.24
659.26	5827.32
659.452	5829.37
659.644	5839.61
659.836	5767.93
660.028	5716.73
660.22	5700.35
660.412	5679.87
660.604	5544.7
660.796	5593.86
660.988	5706.49
661.18	5618.43
661.372	5614.34
661.563	5479.17
661.755	5368.58
661.947	5341.96
662.139	5274.37
662.331	5430.02
662.522	5245.7
662.714	5206.79
662.906	5147.4
663.097	5255.94
663.289	5139.21
663.481	5169.93
663.673	5210.89
663.864	5126.92
664.056	5032.71
664.247	5249.8
664.439	4954.89
664.631	5143.3
664.822	5036.81
665.014	5004.04
665.205	4973.32
665.397	4913.93
665.588	5004.04
665.78	4975.37
665.971	4889.35
666.163	4743.95
666.354	4762.38
666.546	4762.38
666.737	4817.68
666.929	4838.16
667.12	4789
667.311	4778.76
667.503	4629.26
667.694	4717.33
667.885	4614.93
668.077	4664.08
668.268	4666.13
668.459	4670.22
668.651	4502.29
668.842	4533.01
669.033	4369.17
669.224	4543.25
669.416	4530.96
669.607	4604.69
669.798	4477.71
669.989	4537.1
670.18	4465.43
670.371	4395.79
670.563	4381.46
670.754	4297.49
670.945	4125.46
671.136	4289.3
671.327	4338.45
671.518	4305.68
671.709	4283.16
671.9	4338.45
672.091	4297.49
672.282	4260.63
672.473	4133.65
672.664	4029.21
672.855	4096.79
673.046	4354.83
673.237	4234
673.428	4039.45
673.619	4274.96
673.809	3922.71
674	4139.8
674.191	4010.78
674.382	3986.2
674.573	4109.08
674.764	4053.78
674.954	4131.61
675.145	4039.45
675.336	3980.06
675.527	3996.44
675.717	3941.15
675.908	3961.62
676.099	3963.67
676.289	3969.82
676.48	3869.47
676.671	3797.79
676.861	3887.9
677.052	3851.03
677.243	3803.93
677.433	3932.95
677.624	3871.51
677.814	3762.97
678.005	3922.71
678.195	3793.69
678.386	3824.41
678.576	3881.75
678.767	3816.22
678.957	3797.79
679.148	3867.42
679.338	3783.45
679.529	3705.63
679.719	3703.58
679.909	3871.51
680.1	3670.81
680.29	3744.54
680.481	3748.64
680.671	3859.23
680.861	3824.41
681.052	3779.36
681.242	3685.15
681.432	3777.31
681.622	3711.77
681.813	3601.18
682.003	3681.05
682.193	3644.19
682.383	3797.79
682.573	3699.48
682.764	3689.25
682.954	3707.68
683.144	3549.98
683.334	3582.75
683.524	3676.96
683.714	3621.66
683.904	3529.5
684.094	3650.33
684.284	3447.58
684.474	3625.76
684.664	3515.17
684.854	3631.9
685.044	3558.18
685.234	3408.67
685.424	3500.83
685.614	3441.44
685.804	3615.52
685.994	3556.13
686.184	3382.05
686.374	3513.12
686.564	3412.77
686.753	3332.9
686.943	3429.15
687.133	3468.06
687.323	3506.98
687.513	3506.98
687.702	3459.87
687.892	3412.77
688.082	3330.85
688.272	3226.4
688.461	3269.41
688.651	3449.63
688.841	3269.41
689.03	3423.01
689.22	3308.32
689.41	3275.56
689.599	3298.08
689.789	3250.98
689.979	3193.64
690.168	3353.38
690.358	3216.16
690.547	3265.32
690.737	3183.4
690.926	3250.98
691.116	3142.44
691.305	3132.2
691.495	3134.25
691.684	3068.71
691.874	3130.15
692.063	3113.77
692.252	3083.05
692.442	3160.87
692.631	3056.42
692.82	3078.95
693.01	3070.76
693.199	3068.71
693.388	3031.85
693.578	3095.33
693.767	3011.37
693.956	2935.59
694.146	2960.17
694.335	3124.01
694.524	3091.24
694.713	3136.29
694.902	2972.46
695.092	3066.66
695.281	2997.03
695.47	2886.44
695.659	2947.88
695.848	3058.47
696.037	3003.18
696.226	3095.33
696.415	2923.3
696.604	2911.02
696.793	2865.96
696.982	2771.76
697.171	2933.54
697.36	2978.6
697.549	2931.5
697.738	2868.01
697.927	2978.6
698.116	2994.98
698.305	2904.87
698.494	2921.26
698.683	2954.02
698.872	2933.54
699.061	2994.98
699.25	2921.26
699.438	2943.78
699.627	2890.54
699.816	3054.37
700.005	2958.12
700.193	2958.12
700.382	2978.6
700.571	3001.13
700.76	2814.76
700.948	3011.37
701.137	2882.35
701.326	2976.55
701.514	2845.48
701.703	2812.71
701.892	2902.83
702.08	2837.29
702.269	2863.91
702.457	2904.87
702.646	2925.35
702.834	2935.59
703.023	2964.26
703.212	2937.64
703.4	2878.25
703.589	2861.87
703.777	2927.4
703.965	2894.63
704.154	2990.89
704.342	2849.58
704.531	2788.14
704.719	2796.33
704.907	2810.67
705.096	2868.01
705.284	2857.77
705.472	2874.15
705.661	2937.64
705.849	2865.96
706.037	2890.54
706.226	2878.25
706.414	2974.5
706.602	2829.1
706.79	2937.64
706.979	2882.35
707.167	2876.2
707.355	2857.77
707.543	2870.06
707.731	2829.1
707.919	2861.87
708.107	2857.77
708.296	2947.88
708.484	2886.44
708.672	2933.54
708.86	2906.92
709.048	2888.49
709.236	2892.59
709.424	2802.47
709.612	2841.39
709.8	2902.83
709.988	2937.64
710.176	2790.19
710.364	2886.44
710.551	2781.99
710.739	2816.81
710.927	2831.15
711.115	2915.11
711.303	2833.19
711.491	2765.61
711.679	2784.04
711.866	2812.71
712.054	2761.52
712.242	2859.82
712.43	2691.88
712.617	2825
712.805	2843.43
712.993	2865.96
713.181	2777.9
713.368	2853.67
713.556	2806.57
713.744	2708.27
713.931	2753.32
714.119	2837.29
714.306	2728.75
714.494	2681.64
714.682	2745.13
714.869	2788.14
715.057	2765.61
715.244	2614.06
715.432	2831.15
715.619	2706.22
715.807	2786.09
715.994	2878.25
716.182	2861.87
716.369	2771.76
716.556	2779.95
716.744	2710.32
716.931	2728.75
717.119	2827.05
717.306	2886.44
717.493	2767.66
717.681	2865.96
717.868	2724.65
718.055	2857.77
718.242	2726.7
718.43	2886.44
718.617	2855.72
718.804	2745.13
718.991	2779.95
719.179	2626.35
719.366	2677.55
719.553	2745.13
719.74	2835.24
719.927	2751.28
720.114	2769.71
720.301	2769.71
720.488	2659.12
720.676	2689.84
720.863	2743.08
721.05	2650.92
721.237	2706.22
721.424	2659.12
721.611	2685.74
721.798	2689.84
721.985	2583.34
722.172	2609.97
722.358	2644.78
722.545	2720.56
722.732	2599.73
722.919	2652.97
723.106	2642.73
723.293	2614.06
723.48	2704.17
723.667	2607.92
723.853	2669.36
724.04	2710.32
724.227	2634.54
724.414	2659.12
724.6	2724.65
724.787	2550.57
724.974	2562.86
725.161	2693.93
725.347	2581.29
725.534	2558.77
725.72	2634.54
725.907	2571.05
726.094	2597.68
726.28	2738.99
726.467	2585.39
726.653	2683.69
726.84	2650.92
727.027	2577.2
727.213	2648.88
727.4	2620.21
727.586	2612.01
727.773	2612.01
727.959	2620.21
728.145	2771.76
728.332	2542.38
728.518	2562.86
728.705	2648.88
728.891	2454.32
729.077	2599.73
729.264	2538.29
729.45	2532.14
729.636	2562.86
729.823	2644.78
730.009	2671.4
730.195	2532.14
730.382	2526
730.568	2470.7
730.754	2474.8
730.94	2597.68
731.126	2536.24
731.313	2546.48
731.499	2612.01
731.685	2646.83
731.871	2546.48
732.057	2573.1
732.243	2665.26
732.429	2599.73
732.615	2646.83
732.801	2605.87
732.987	2478.9
733.173	2566.96
733.359	2577.2
733.545	2591.53
733.731	2556.72
733.917	2562.86
734.103	2554.67
734.289	2521.9
734.475	2450.22
734.661	2538.29
734.847	2577.2
735.033	2554.67
735.219	2536.24
735.404	2421.55
735.59	2507.57
735.776	2403.12
735.962	2444.08
736.148	2485.04
736.333	2655.02
736.519	2519.85
736.705	2356.02
736.89	2450.22
737.076	2448.18
737.262	2394.93
737.447	2394.93
737.633	2401.07
737.819	2497.33
738.004	2380.59
738.19	2435.89
738.375	2403.12
738.561	2528.05
738.747	2351.92
738.932	2450.22
739.118	2439.98
739.303	2571.05
739.489	2482.99
739.674	2337.59
739.859	2317.11
740.045	2399.02
740.23	2384.69
740.416	2364.21
740.601	2396.98
740.786	2372.4
740.972	2263.86
741.157	2274.1
741.342	2390.83
741.528	2347.83
741.713	2376.5
741.898	2263.86
742.084	2296.63
742.269	2429.74
742.454	2263.86
742.639	2257.71
742.824	2247.48
743.01	2345.78
743.195	2292.53
743.38	2257.71
743.565	2267.95
743.75	2229.04
743.935	2196.28
744.12	2220.85
744.305	2210.61
744.49	2169.65
744.675	2161.46
744.86	2143.03
745.045	2112.31
745.23	2227
745.415	2192.18
745.6	2227
745.785	2198.32
745.97	2102.07
746.155	1991.48
746.34	1997.62
746.525	2022.2
746.71	2186.04
746.895	2046.77
747.079	2063.16
747.264	1954.62
747.449	2116.41
747.634	2126.64
747.819	2089.78
748.003	2089.78
748.188	2032.44
748.373	2011.96
748.557	1819.45
748.742	1934.14
748.927	1999.67
749.111	1825.59
749.296	1919.8
749.481	1893.18
749.665	1884.98
749.85	1839.93
750.034	1809.21
750.219	1801.02
750.404	1813.31
750.588	1932.09
750.773	1778.49
750.957	1850.17
751.141	1766.2
751.326	1798.97
751.51	1835.83
751.695	1790.78
751.879	1698.62
752.064	1768.25
752.248	1751.87
752.432	1801.02
752.617	1698.62
752.801	1684.28
752.985	1588.03
753.17	1794.87
753.354	1651.52
753.538	1637.18
753.722	1575.74
753.907	1628.99
754.091	1669.95
754.275	1563.45
754.459	1596.22
754.643	1514.3
754.828	1477.44
755.012	1532.73
755.196	1506.11
755.38	1422.14
755.564	1542.97
755.748	1452.86
755.932	1512.25
756.116	1493.82
756.3	1430.34
756.484	1436.48
756.668	1422.14
756.852	1430.34
757.036	1473.34
757.22	1385.28
757.404	1416
757.588	1379.14
757.772	1459.01
757.956	1368.9
758.14	1379.14
758.323	1377.09
758.507	1319.75
758.691	1303.36
758.875	1334.08
759.059	1342.27
759.242	1325.89
759.426	1350.46
759.61	1299.27
759.794	1248.07
759.977	1289.03
760.161	1356.61
760.345	1295.17
760.528	1262.4
760.712	1272.64
760.895	1192.77
761.079	1256.26
761.263	1264.45
761.446	1233.73
761.63	1266.5
761.813	1215.3
761.997	1170.24
762.18	1217.35
762.364	1147.72
762.547	1180.48
762.731	1106.76
762.914	1186.63
763.098	1160
763.281	1143.62
763.464	1190.72
763.648	1153.86
763.831	1117
764.015	1123.14
764.198	1106.76
764.381	1069.89
764.564	1217.35
764.748	1104.71
764.931	1114.95
765.114	1170.24
765.297	1102.66
765.481	1119.04
765.664	1104.71
765.847	1080.13
766.03	1053.51
766.213	1055.56
766.397	1041.22
766.58	1014.6
766.763	1041.22
766.946	1129.28
767.129	1059.65
767.312	1035.08
767.495	1063.75
767.678	1020.74
767.861	1033.03
768.044	1035.08
768.227	1059.65
768.41	1045.32
768.593	1049.41
768.776	1000.26
768.959	885.58
769.142	1014.6
769.324	994.12
769.507	1018.69
769.69	973.64
769.873	979.78
770.056	1035.08
770.239	1059.65
770.421	1096.52
770.604	885.58
770.787	940.87
770.97	865.1
771.152	928.58
771.335	969.54
771.518	863.05
771.7	885.58
771.883	869.19
772.066	877.38
772.248	908.1
772.431	850.76
772.613	934.73
772.796	916.3
772.978	904.01
773.161	879.43
773.343	924.49
773.526	781.13
773.708	867.14
773.891	846.66
774.073	924.49
774.256	850.76
774.438	899.91
774.621	809.8
774.803	856.9
774.985	793.42
775.168	848.71
775.35	807.75
775.532	908.1
775.715	842.57
775.897	830.28
776.079	873.29
776.261	731.98
776.444	662.35
776.626	744.27
776.808	762.7
776.99	738.12
777.173	719.69
777.355	756.55
777.537	721.74
777.719	660.3
777.901	793.42
778.083	752.46
778.265	688.97
778.447	777.03
778.629	691.02
778.811	672.59
778.993	779.08
779.175	740.17
779.357	627.53
779.539	600.91
779.721	674.64
779.903	772.94
780.085	623.44
780.267	637.77
780.449	654.16
780.631	656.2
780.812	672.59
780.994	643.92
781.176	609.1
781.358	660.3
781.54	658.25
781.721	596.81
781.903	615.24
782.085	607.05
782.267	621.39
782.448	652.11
782.63	609.1
782.812	625.48
782.993	623.44
783.175	570.19
783.357	570.19
783.538	564.04
783.72	463.69
783.901	541.52
784.083	547.66
784.264	588.62
784.446	523.09
784.627	570.19
784.809	551.76
784.99	490.32
785.172	461.65
785.353	572.24
785.535	467.79
785.716	590.67
785.897	455.5
786.079	547.66
786.26	490.32
786.441	492.37
786.623	416.59
786.804	461.65
786.985	496.46
787.167	490.32
787.348	529.23
787.529	486.22
787.71	529.23
787.891	506.7
788.073	527.18
788.254	410.45
788.435	402.26
788.616	488.27
788.797	369.49
788.978	529.23
789.159	379.73
789.34	396.11
789.522	445.26
789.703	416.59
789.884	453.45
790.065	422.73
790.246	463.69
790.427	392.02
790.607	392.02
790.788	555.85
790.969	396.11
791.15	357.2
791.331	383.82
791.512	465.74
791.693	379.73
791.874	416.59
792.054	443.21
792.235	379.73
792.416	269.14
792.597	293.71
792.778	361.3
792.958	435.02
793.139	312.14
793.32	447.31
793.5	359.25
793.681	398.16
793.862	310.1
794.042	322.38
794.223	365.39
794.404	394.06
794.584	340.82
794.765	373.58
794.945	355.15
795.126	369.49
795.306	416.59
795.487	281.43
795.667	291.66
795.848	367.44
796.028	314.19
796.209	324.43
796.389	359.25
796.57	351.06
796.75	346.96
796.93	275.28
797.111	406.35
797.291	301.9
797.471	349.01
797.652	297.81
797.832	258.9
798.012	283.47
798.192	336.72
798.373	308.05
798.553	289.62
798.733	242.51
798.913	228.18
799.093	299.86
799.274	254.8
799.454	363.34
799.634	267.09
799.814	355.15
799.994	277.33
800.174	279.38
800.354	281.43
800.534	228.18
800.714	291.66
800.894	246.61
801.074	240.47
801.254	295.76
801.434	258.9
801.614	242.51
801.794	285.52
801.974	615.24
802.154	310.1
802.334	273.23
802.514	336.72
802.693	322.38
802.873	316.24
803.053	271.19
803.233	258.9
803.413	289.62
803.592	269.14
803.772	295.76
803.952	285.52
804.131	252.75
804.311	230.23
804.491	287.57
804.67	242.51
804.85	236.37
805.03	283.47
805.209	236.37
805.389	217.94
805.568	318.29
805.748	252.75
805.928	256.85
806.107	252.75
806.287	277.33
806.466	250.71
806.646	224.08
806.825	168.79
807.004	228.18
807.184	299.86
807.363	185.17
807.543	242.51
807.722	193.36
807.901	248.66
808.081	238.42
808.26	181.07
808.439	232.27
808.619	316.24
808.798	176.98
808.977	211.79
809.156	211.79
809.336	185.17
809.515	181.07
809.694	166.74
809.873	199.51
810.052	195.41
810.231	164.69
810.411	275.28
810.59	285.52
810.769	154.45
810.948	230.23
811.127	244.56
811.306	217.94
811.485	170.83
811.664	176.98
811.843	176.98
812.022	191.31
812.201	111.44
812.38	154.45
812.559	236.37
812.737	228.18
812.916	154.45
813.095	201.55
813.274	265.04
813.453	183.12
813.632	189.27
813.811	256.85
813.989	138.07
814.168	117.59
814.347	138.07
814.526	201.55
814.704	170.83
814.883	185.17
815.062	195.41
815.24	142.16
815.419	150.36
815.598	205.65
815.776	133.97
815.955	170.83
816.133	109.4
816.312	172.88
816.49	183.12
816.669	179.03
816.847	105.3
817.026	164.69
817.204	74.58
817.383	176.98
817.561	222.03
817.74	113.49
817.918	179.03
818.097	150.36
818.275	107.35
818.453	219.99
818.632	82.77
818.81	140.12
818.988	176.98
819.167	131.92
819.345	232.27
819.523	181.07
819.701	101.2
819.879	166.74
820.058	105.3
820.236	109.4
820.414	158.55
820.592	121.68
820.77	80.72
820.948	176.98
821.127	101.2
821.305	162.64
821.483	152.4
821.661	115.54
821.839	215.89
822.017	144.21
822.195	97.11
822.373	119.64
822.551	193.36
822.729	154.45
822.907	160.59
823.085	39.76
823.262	168.79
823.44	156.5
823.618	109.4
823.796	52.05
823.974	162.64
824.152	148.31
824.329	127.83
824.507	154.45
824.685	183.12
824.863	136.02
825.04	166.74
825.218	156.5
825.396	140.12
825.574	150.36
825.751	142.16
825.929	160.59
826.107	136.02
826.284	129.88
826.462	140.12
826.639	138.07
826.817	50
826.994	146.26
827.172	109.4
827.349	121.68
827.527	86.87
827.704	142.16
827.882	142.16
828.059	156.5
828.237	209.75
828.414	129.88
828.591	27.48
828.769	127.83
828.946	58.2
829.124	33.62
829.301	101.2
829.478	152.4
829.655	158.55
829.833	152.4
830.01	84.82
830.187	58.2
830.364	86.87
830.542	150.36
830.719	138.07
830.896	101.2
831.073	101.2
831.25	127.83
831.427	109.4
831.604	176.98
831.782	113.49
831.959	146.26
832.136	13.14
832.313	74.58
832.49	74.58
832.667	123.73
832.844	90.96
833.021	187.22
833.198	105.3
833.374	82.77
833.551	93.01
833.728	52.05
833.905	185.17
834.082	27.48
834.259	101.2
834.436	133.97
834.612	119.64
834.789	84.82
834.966	82.77
835.143	150.36
835.319	0.85
835.496	95.06
835.673	39.76
835.85	76.63
836.026	78.68
836.203	88.92
836.38	43.86
836.556	86.87
836.733	117.59
836.909	88.92
837.086	21.33
837.262	113.49
837.439	66.39
837.616	-17.58
837.792	105.3
837.968	125.78
838.145	43.86
838.321	80.72
838.498	207.7
838.674	80.72
838.851	25.43
839.027	29.52
839.203	97.11
839.38	74.58
839.556	95.06
839.732	166.74
839.909	-9.39
840.085	74.58
840.261	27.48
840.437	72.53
840.614	103.25
840.79	95.06
840.966	88.92
841.142	117.59
841.318	60.24
841.494	21.33
841.671	76.63
841.847	-5.29
842.023	72.53
842.199	66.39
842.375	64.34
842.551	80.72
842.727	9.05
842.903	84.82
843.079	95.06
843.255	80.72
843.431	41.81
843.607	66.39
843.783	58.2
843.959	84.82
844.134	35.67
844.31	156.5
844.486	39.76
844.662	78.68
844.838	74.58
845.013	60.24
845.189	-33.96
845.365	99.16
845.541	119.64
845.716	52.05
845.892	45.91
846.068	37.72
846.244	86.87
846.419	97.11
846.595	-33.96
846.77	21.33
846.946	66.39
847.122	76.63
847.297	140.12
847.473	84.82
847.648	-27.82
847.824	54.1
847.999	-25.77
848.175	107.35
848.35	2.9
848.526	117.59
848.701	131.92
848.876	70.48
849.052	64.34
849.227	35.67
849.403	47.96
849.578	84.82
849.753	113.49
849.929	99.16
850.104	43.86
850.279	31.57
850.454	19.29
850.63	97.11
850.805	37.72
850.98	70.48
851.155	64.34
851.33	109.4
851.505	58.2
851.681	72.53
851.856	13.14
852.031	84.82
852.206	103.25
852.381	88.92
852.556	72.53
852.731	60.24
852.906	66.39
853.081	27.48
853.256	64.34
853.431	52.05
853.606	82.77
853.781	27.48
853.956	50
854.131	70.48
854.305	-31.91
854.48	-3.24
854.655	121.68
854.83	-13.48
855.005	-11.43
855.18	62.29
855.354	33.62
855.529	47.96
855.704	-3.24
855.879	113.49
856.053	35.67
856.228	45.91
856.403	37.72
856.577	0.85
856.752	41.81
856.926	0.85
857.101	29.52
857.276	27.48
857.45	37.72
857.625	70.48
857.799	160.59
857.974	35.67
858.148	-11.43
858.323	0.85
858.497	99.16
858.672	15.19
858.846	101.2
859.02	45.91
859.195	19.29
859.369	29.52
859.543	62.29
859.718	50
859.892	15.19
860.066	17.24
860.241	93.01
860.415	45.91
860.589	97.11
860.763	27.48
860.938	27.48
861.112	21.33
861.286	84.82
861.46	4.95
861.634	39.76
861.808	50
861.982	-11.43
862.157	62.29
862.331	66.39
862.505	0.85
862.679	56.15
862.853	19.29
863.027	17.24
863.201	29.52
863.375	29.52
863.549	31.57
863.722	13.14
863.896	72.53
864.07	11.09
864.244	105.3
864.418	25.43
864.592	82.77
864.766	15.19
864.939	43.86
865.113	31.57
865.287	62.29
865.461	2.9
865.634	7
865.808	15.19
865.982	47.96
866.156	84.82
866.329	74.58
866.503	11.09
866.676	25.43
866.85	7
867.024	7
867.197	58.2
867.371	70.48
867.544	25.43
867.718	21.33
867.891	90.96
868.065	-11.43
868.238	23.38
868.412	64.34
868.585	39.76
868.759	64.34
868.932	11.09
869.105	25.43
869.279	0.85
869.452	-48.3
869.625	66.39
869.799	31.57
869.972	31.57
870.145	19.29
870.319	93.01
870.492	121.68
870.665	-19.63
870.838	-15.53
871.011	-13.48
871.185	50
871.358	35.67
871.531	52.05
871.704	68.44
871.877	25.43
872.05	19.29
872.223	-7.34
872.396	54.1
872.569	47.96
872.742	-36.01
872.915	121.68
873.088	2.9
873.261	43.86
873.434	2.9
873.607	29.52
873.78	58.2
873.953	-17.58
874.126	25.43
874.299	88.92
874.471	-21.67
874.644	50
874.817	4.95
874.99	17.24
875.163	99.16
875.335	9.05
875.508	-7.34
875.681	23.38
875.853	-50.35
876.026	-3.24
876.199	-23.72
876.371	9.05
876.544	37.72
876.717	21.33
876.889	-60.59
877.062	23.38
877.234	-27.82
877.407	84.82
877.579	31.57
877.752	31.57
877.924	33.62
878.097	70.48
878.269	-19.63
878.442	50
878.614	7
878.786	-3.24
878.959	72.53
879.131	7
879.303	15.19
879.476	84.82
879.648	31.57
879.82	52.05
879.993	9.05
880.165	33.62
880.337	15.19
880.509	70.48
880.681	0.85
880.854	23.38
881.026	43.86
881.198	13.14
881.37	35.67
881.542	66.39
881.714	-1.19
881.886	-17.58
882.058	-5.29
882.23	31.57
882.402	7
882.574	33.62
882.746	82.77
882.918	66.39
883.09	19.29
883.262	0.85
883.434	23.38
883.606	-40.11
883.778	7
883.95	84.82
884.122	-33.96
884.293	54.1
884.465	-1.19
884.637	123.73
884.809	41.81
884.98	15.19
885.152	21.33
885.324	4.95
885.496	-15.53
885.667	-50.35
885.839	-38.06
886.011	50
886.182	21.33
886.354	-5.29
886.525	4.95
886.697	13.14
886.869	39.76
887.04	107.35
887.212	43.86
887.383	-23.72
887.555	50
887.726	-21.67
887.897	-17.58
888.069	-3.24
888.24	-13.48
888.412	47.96
888.583	35.67
888.754	19.29
888.926	35.67
889.097	47.96
889.268	-31.91
889.44	-50.35
889.611	17.24
889.782	29.52
889.953	-5.29
890.125	68.44
890.296	27.48
890.467	105.3
890.638	11.09
890.809	7
890.98	27.48
891.151	7
891.323	60.24
891.494	-29.87
891.665	23.38
891.836	23.38
892.007	0.85
892.178	29.52
892.349	-25.77
892.52	-13.48
892.691	27.48
892.862	-3.24
893.032	-33.96
893.203	9.05
893.374	23.38
893.545	13.14
893.716	4.95
893.887	-11.43
894.057	39.76
894.228	2.9
894.399	2.9
894.57	52.05
894.74	-60.59
894.911	9.05
895.082	9.05
895.253	31.57
895.423	19.29
895.594	-1.19
895.764	0.85
895.935	-62.63
896.106	68.44
896.276	35.67
896.447	39.76
896.617	-60.59
896.788	29.52
896.958	-7.34
897.129	17.24
897.299	7
897.47	47.96
897.64	15.19
897.81	4.95
897.981	11.09
898.151	-19.63
898.322	52.05
898.492	4.95
898.662	-23.72
898.832	-46.25
899.003	-38.06
899.173	0.85
899.343	-58.54
899.513	25.43
