Data from USB4F104151__254__11-11-45-268.txt Node

Date: Wed Mar 12 11:11:45 EDT 2025
User: louis
Spectrometer: USB4F10415
Trigger mode: 4
Integration Time (sec): 2.000000E-2
Scans to average: 1
Electric dark correction enabled: true
Nonlinearity correction enabled: false
Boxcar width: 0
XAxis mode: Wavelengths
Number of Pixels in Spectrum: 3648
>>>>>Begin Spectral Data<<<<<
178.204	-87.38
178.424	-87.38
178.644	-87.38
178.864	-107.86
179.084	-81.24
179.304	-34.13
179.524	19.11
179.744	12.97
179.964	4.78
180.184	27.31
180.404	21.16
180.624	12.97
180.844	2.73
181.064	-38.23
181.283	2.73
181.503	-46.42
181.723	15.02
181.943	-1.37
182.163	84.65
182.383	-13.65
182.602	43.69
182.822	19.11
183.042	43.69
183.262	39.59
183.482	15.02
183.701	60.07
183.921	43.69
184.141	76.46
184.361	70.31
184.58	-25.94
184.8	0.68
185.02	27.31
185.239	17.07
185.459	33.45
185.679	66.22
185.898	10.92
186.118	31.4
186.338	78.51
186.557	39.59
186.777	29.35
186.997	96.94
187.216	43.69
187.436	31.4
187.655	12.97
187.875	0.68
188.095	0.68
188.314	37.55
188.534	88.75
188.753	-21.85
188.973	47.79
189.192	60.07
189.412	0.68
189.631	62.12
189.851	82.6
190.07	76.46
190.29	-46.42
190.509	45.74
190.729	-54.61
190.948	47.79
191.168	98.99
191.387	33.45
191.607	35.5
191.826	-9.56
192.045	25.26
192.265	-3.41
192.484	49.83
192.704	58.03
192.923	23.21
193.142	74.41
193.362	6.83
193.581	10.92
193.8	-9.56
194.02	-17.75
194.239	53.93
194.458	33.45
194.678	45.74
194.897	10.92
195.116	78.51
195.335	31.4
195.555	72.36
195.774	-11.61
195.993	170.66
196.212	80.55
196.432	35.5
196.651	96.94
196.87	35.5
197.089	33.45
197.308	-3.41
197.528	6.83
197.747	15.02
197.966	39.59
198.185	43.69
198.404	82.6
198.623	78.51
198.842	0.68
199.062	80.55
199.281	4.78
199.5	-25.94
199.719	-34.13
199.938	-30.04
200.157	55.98
200.376	80.55
200.595	15.02
200.814	78.51
201.033	51.88
201.252	49.83
201.471	-25.94
201.69	60.07
201.909	53.93
202.128	49.83
202.347	0.68
202.566	55.98
202.785	-7.51
203.004	-17.75
203.223	113.32
203.442	37.55
203.661	-3.41
203.879	17.07
204.098	72.36
204.317	84.65
204.536	2.73
204.755	23.21
204.974	72.36
205.193	15.02
205.411	125.61
205.63	133.8
205.849	51.88
206.068	-30.04
206.287	-50.52
206.505	45.74
206.724	19.11
206.943	-3.41
207.162	-1.37
207.381	68.27
207.599	12.97
207.818	6.83
208.037	31.4
208.255	4.78
208.474	94.89
208.693	78.51
208.911	131.75
209.13	39.59
209.349	109.22
209.567	8.87
209.786	23.21
210.005	53.93
210.223	2.73
210.442	-38.23
210.661	76.46
210.879	41.64
211.098	15.02
211.316	62.12
211.535	10.92
211.753	62.12
211.972	23.21
212.191	41.64
212.409	-5.46
212.628	51.88
212.846	70.31
213.065	21.16
213.283	66.22
213.502	-3.41
213.72	84.65
213.938	19.11
214.157	47.79
214.375	68.27
214.594	68.27
214.812	35.5
215.031	8.87
215.249	12.97
215.467	49.83
215.686	119.46
215.904	19.11
216.122	12.97
216.341	19.11
216.559	47.79
216.778	19.11
216.996	135.85
217.214	6.83
217.432	29.35
217.651	4.78
217.869	-48.47
218.087	25.26
218.306	58.03
218.524	43.69
218.742	-1.37
218.96	51.88
219.179	92.84
219.397	6.83
219.615	60.07
219.833	49.83
220.051	27.31
220.27	43.69
220.488	35.5
220.706	51.88
220.924	-87.38
221.142	58.03
221.36	70.31
221.578	-19.8
221.796	-15.7
222.015	-9.56
222.233	-40.28
222.451	62.12
222.669	21.16
222.887	43.69
223.105	49.83
223.323	43.69
223.541	-1.37
223.759	-1.37
223.977	111.27
224.195	123.56
224.413	60.07
224.631	49.83
224.849	60.07
225.067	23.21
225.285	10.92
225.503	78.51
225.721	21.16
225.939	19.11
226.157	113.32
226.375	96.94
226.592	-25.94
226.81	64.17
227.028	2.73
227.246	82.6
227.464	21.16
227.682	10.92
227.9	-5.46
228.117	-23.89
228.335	27.31
228.553	27.31
228.771	-34.13
228.989	78.51
229.206	-15.7
229.424	-9.56
229.642	94.89
229.86	12.97
230.077	39.59
230.295	23.21
230.513	47.79
230.731	19.11
230.948	64.17
231.166	8.87
231.384	78.51
231.601	-11.61
231.819	80.55
232.037	53.93
232.254	15.02
232.472	78.51
232.689	21.16
232.907	84.65
233.125	53.93
233.342	51.88
233.56	53.93
233.777	39.59
233.995	80.55
234.213	-21.85
234.43	31.4
234.648	88.75
234.865	29.35
235.083	2.73
235.3	41.64
235.518	78.51
235.735	123.56
235.953	68.27
236.17	105.13
236.388	0.68
236.605	17.07
236.822	-9.56
237.04	80.55
237.257	23.21
237.475	27.31
237.692	4.78
237.909	-3.41
238.127	49.83
238.344	39.59
238.562	12.97
238.779	8.87
238.996	37.55
239.214	17.07
239.431	-9.56
239.648	55.98
239.865	41.64
240.083	101.03
240.3	31.4
240.517	43.69
240.735	23.21
240.952	19.11
241.169	-7.51
241.386	51.88
241.603	-68.95
241.821	68.27
242.038	78.51
242.255	-1.37
242.472	25.26
242.689	72.36
242.907	15.02
243.124	45.74
243.341	29.35
243.558	45.74
243.775	-17.75
243.992	12.97
244.209	-3.41
244.426	-17.75
244.643	98.99
244.86	-15.7
245.078	103.08
245.295	-5.46
245.512	21.16
245.729	-38.23
245.946	6.83
246.163	35.5
246.38	90.79
246.597	49.83
246.814	23.21
247.031	-38.23
247.248	103.08
247.464	47.79
247.681	29.35
247.898	10.92
248.115	0.68
248.332	25.26
248.549	60.07
248.766	76.46
248.983	10.92
249.2	-9.56
249.417	111.27
249.633	109.22
249.85	21.16
250.067	58.03
250.284	-7.51
250.501	160.42
250.717	-30.04
250.934	-3.41
251.151	53.93
251.368	0.68
251.585	107.18
251.801	-56.66
252.018	-23.89
252.235	72.36
252.451	80.55
252.668	27.31
252.885	72.36
253.102	64.17
253.318	60.07
253.535	-11.61
253.752	47.79
253.968	21.16
254.185	33.45
254.401	49.83
254.618	43.69
254.835	35.5
255.051	109.22
255.268	37.55
255.484	-1.37
255.701	37.55
255.917	137.9
256.134	84.65
256.351	66.22
256.567	60.07
256.784	35.5
257	17.07
257.217	-5.46
257.433	60.07
257.65	51.88
257.866	55.98
258.082	-1.37
258.299	66.22
258.515	-46.42
258.732	27.31
258.948	-3.41
259.165	84.65
259.381	43.69
259.597	33.45
259.814	103.08
260.03	25.26
260.246	37.55
260.463	51.88
260.679	68.27
260.895	33.45
261.112	12.97
261.328	70.31
261.544	66.22
261.761	-1.37
261.977	-23.89
262.193	45.74
262.409	23.21
262.626	21.16
262.842	41.64
263.058	4.78
263.274	27.31
263.49	27.31
263.707	41.64
263.923	4.78
264.139	29.35
264.355	92.84
264.571	70.31
264.787	12.97
265.004	31.4
265.22	58.03
265.436	-34.13
265.652	23.21
265.868	29.35
266.084	8.87
266.3	27.31
266.516	-17.75
266.732	92.84
266.948	84.65
267.164	78.51
267.38	21.16
267.596	41.64
267.812	66.22
268.028	43.69
268.244	27.31
268.46	10.92
268.676	39.59
268.892	45.74
269.108	19.11
269.324	-32.08
269.54	-30.04
269.756	64.17
269.972	12.97
270.188	58.03
270.403	-27.99
270.619	84.65
270.835	37.55
271.051	47.79
271.267	41.64
271.483	31.4
271.698	64.17
271.914	51.88
272.13	78.51
272.346	111.27
272.562	-1.37
272.777	58.03
272.993	47.79
273.209	-42.32
273.425	10.92
273.64	25.26
273.856	84.65
274.072	-25.94
274.287	-3.41
274.503	94.89
274.719	10.92
274.934	76.46
275.15	25.26
275.366	84.65
275.581	-11.61
275.797	-13.65
276.012	-1.37
276.228	84.65
276.444	27.31
276.659	-1.37
276.875	37.55
277.09	17.07
277.306	72.36
277.521	0.68
277.737	74.41
277.952	51.88
278.168	55.98
278.383	-30.04
278.599	-7.51
278.814	101.03
279.03	35.5
279.245	29.35
279.461	35.5
279.676	33.45
279.892	21.16
280.107	8.87
280.322	23.21
280.538	72.36
280.753	33.45
280.969	115.37
281.184	66.22
281.399	96.94
281.615	60.07
281.83	68.27
282.045	37.55
282.26	27.31
282.476	107.18
282.691	94.89
282.906	41.64
283.122	98.99
283.337	-1.37
283.552	74.41
283.767	43.69
283.983	51.88
284.198	-9.56
284.413	-7.51
284.628	-9.56
284.843	8.87
285.058	21.16
285.274	4.78
285.489	-17.75
285.704	49.83
285.919	-1.37
286.134	70.31
286.349	62.12
286.564	-3.41
286.779	51.88
286.995	70.31
287.21	23.21
287.425	10.92
287.64	-1.37
287.855	-11.61
288.07	10.92
288.285	53.93
288.5	29.35
288.715	10.92
288.93	35.5
289.145	31.4
289.36	60.07
289.575	23.21
289.79	64.17
290.004	-3.41
290.219	-34.13
290.434	45.74
290.649	45.74
290.864	53.93
291.079	-21.85
291.294	-7.51
291.509	-1.37
291.724	74.41
291.938	4.78
292.153	27.31
292.368	-17.75
292.583	55.98
292.798	21.16
293.012	21.16
293.227	94.89
293.442	27.31
293.657	-5.46
293.871	8.87
294.086	21.16
294.301	141.99
294.516	33.45
294.73	58.03
294.945	-21.85
295.16	60.07
295.374	45.74
295.589	43.69
295.804	4.78
296.018	96.94
296.233	121.51
296.447	29.35
296.662	58.03
296.877	74.41
297.091	35.5
297.306	10.92
297.52	23.21
297.735	29.35
297.949	23.21
298.164	25.26
298.378	88.75
298.593	70.31
298.807	31.4
299.022	-11.61
299.236	105.13
299.451	-15.7
299.665	39.59
299.88	19.11
300.094	101.03
300.309	70.31
300.523	51.88
300.737	51.88
300.952	60.07
301.166	43.69
301.381	25.26
301.595	2.73
301.809	-1.37
302.024	-81.24
302.238	8.87
302.452	8.87
302.667	58.03
302.881	0.68
303.095	109.22
303.309	12.97
303.524	17.07
303.738	27.31
303.952	-11.61
304.166	23.21
304.381	-3.41
304.595	70.31
304.809	25.26
305.023	113.32
305.237	53.93
305.452	31.4
305.666	74.41
305.88	82.6
306.094	72.36
306.308	53.93
306.522	21.16
306.736	51.88
306.95	64.17
307.164	-5.46
307.379	19.11
307.593	37.55
307.807	72.36
308.021	127.66
308.235	76.46
308.449	37.55
308.663	33.45
308.877	49.83
309.091	29.35
309.305	129.7
309.519	39.59
309.733	98.99
309.947	-21.85
310.161	-21.85
310.374	31.4
310.588	35.5
310.802	33.45
311.016	10.92
311.23	84.65
311.444	-32.08
311.658	31.4
311.872	49.83
312.085	19.11
312.299	105.13
312.513	21.16
312.727	15.02
312.941	64.17
313.154	96.94
313.368	-17.75
313.582	60.07
313.796	70.31
314.009	10.92
314.223	70.31
314.437	43.69
314.651	31.4
314.864	23.21
315.078	31.4
315.292	37.55
315.505	21.16
315.719	70.31
315.933	-1.37
316.146	10.92
316.36	35.5
316.573	-23.89
316.787	76.46
317.001	47.79
317.214	-85.33
317.428	68.27
317.641	27.31
317.855	29.35
318.068	39.59
318.282	21.16
318.495	74.41
318.709	19.11
318.922	6.83
319.136	68.27
319.349	58.03
319.563	78.51
319.776	43.69
319.99	105.13
320.203	-7.51
320.417	10.92
320.63	39.59
320.843	111.27
321.057	62.12
321.27	43.69
321.483	43.69
321.697	12.97
321.91	17.07
322.124	41.64
322.337	10.92
322.55	92.84
322.763	37.55
322.977	82.6
323.19	12.97
323.403	82.6
323.617	29.35
323.83	45.74
324.043	92.84
324.256	96.94
324.469	-9.56
324.683	60.07
324.896	12.97
325.109	15.02
325.322	-46.42
325.535	78.51
325.748	68.27
325.962	64.17
326.175	45.74
326.388	76.46
326.601	12.97
326.814	72.36
327.027	31.4
327.24	62.12
327.453	-11.61
327.666	90.79
327.879	37.55
328.092	64.17
328.305	105.13
328.518	53.93
328.731	39.59
328.944	47.79
329.157	76.46
329.37	29.35
329.583	37.55
329.796	37.55
330.009	27.31
330.222	72.36
330.435	86.7
330.648	-19.8
330.861	51.88
331.073	62.12
331.286	31.4
331.499	78.51
331.712	27.31
331.925	58.03
332.138	33.45
332.35	17.07
332.563	37.55
332.776	88.75
332.989	74.41
333.202	-1.37
333.414	125.61
333.627	33.45
333.84	53.93
334.053	31.4
334.265	15.02
334.478	58.03
334.691	-73.04
334.903	101.03
335.116	-9.56
335.329	2.73
335.541	88.75
335.754	121.51
335.966	39.59
336.179	12.97
336.392	76.46
336.604	0.68
336.817	0.68
337.029	53.93
337.242	-1.37
337.454	31.4
337.667	51.88
337.88	47.79
338.092	55.98
338.305	47.79
338.517	23.21
338.729	47.79
338.942	68.27
339.154	35.5
339.367	27.31
339.579	115.37
339.792	64.17
340.004	98.99
340.217	-17.75
340.429	53.93
340.641	60.07
340.854	25.26
341.066	23.21
341.278	84.65
341.491	62.12
341.703	-25.94
341.915	-13.65
342.128	107.18
342.34	25.26
342.552	15.02
342.764	62.12
342.977	88.75
343.189	29.35
343.401	47.79
343.613	4.78
343.826	80.55
344.038	0.68
344.25	121.51
344.462	-11.61
344.674	-3.41
344.886	47.79
345.099	6.83
345.311	70.31
345.523	72.36
345.735	-1.37
345.947	55.98
346.159	21.16
346.371	92.84
346.583	35.5
346.795	117.42
347.007	-9.56
347.219	111.27
347.431	98.99
347.643	31.4
347.855	27.31
348.067	19.11
348.279	23.21
348.491	41.64
348.703	-1.37
348.915	-7.51
349.127	51.88
349.339	39.59
349.551	27.31
349.763	53.93
349.975	96.94
350.187	17.07
350.399	92.84
350.61	92.84
350.822	-13.65
351.034	45.74
351.246	35.5
351.458	8.87
351.669	-27.99
351.881	107.18
352.093	80.55
352.305	-15.7
352.517	53.93
352.728	55.98
352.94	58.03
353.152	96.94
353.363	45.74
353.575	80.55
353.787	66.22
353.999	64.17
354.21	70.31
354.422	53.93
354.633	98.99
354.845	-17.75
355.057	109.22
355.268	-7.51
355.48	60.07
355.692	0.68
355.903	35.5
356.115	25.26
356.326	10.92
356.538	74.41
356.749	33.45
356.961	123.56
357.172	10.92
357.384	35.5
357.595	47.79
357.807	47.79
358.018	98.99
358.23	23.21
358.441	53.93
358.653	4.78
358.864	-5.46
359.075	12.97
359.287	60.07
359.498	58.03
359.709	-19.8
359.921	35.5
360.132	64.17
360.344	12.97
360.555	72.36
360.766	21.16
360.977	-1.37
361.189	98.99
361.4	43.69
361.611	133.8
361.823	117.42
362.034	74.41
362.245	47.79
362.456	68.27
362.667	74.41
362.879	8.87
363.09	92.84
363.301	-17.75
363.512	-3.41
363.723	-30.04
363.935	43.69
364.146	121.51
364.357	-15.7
364.568	19.11
364.779	0.68
364.99	35.5
365.201	98.99
365.412	84.65
365.623	49.83
365.834	62.12
366.045	51.88
366.256	17.07
366.467	-25.94
366.678	29.35
366.889	37.55
367.1	64.17
367.311	72.36
367.522	4.78
367.733	8.87
367.944	45.74
368.155	45.74
368.366	37.55
368.577	51.88
368.788	101.03
368.999	12.97
369.209	37.55
369.42	6.83
369.631	49.83
369.842	21.16
370.053	55.98
370.264	43.69
370.474	-11.61
370.685	17.07
370.896	148.14
371.107	53.93
371.317	68.27
371.528	-30.04
371.739	37.55
371.95	70.31
372.16	51.88
372.371	92.84
372.582	25.26
372.792	72.36
373.003	80.55
373.214	49.83
373.424	51.88
373.635	12.97
373.846	129.7
374.056	96.94
374.267	64.17
374.477	33.45
374.688	51.88
374.898	31.4
375.109	74.41
375.319	29.35
375.53	47.79
375.74	31.4
375.951	68.27
376.161	64.17
376.372	51.88
376.582	35.5
376.793	-1.37
377.003	58.03
377.214	17.07
377.424	133.8
377.635	84.65
377.845	39.59
378.055	94.89
378.266	-25.94
378.476	60.07
378.686	25.26
378.897	103.08
379.107	72.36
379.317	19.11
379.528	58.03
379.738	4.78
379.948	-19.8
380.158	80.55
380.369	133.8
380.579	60.07
380.789	47.79
380.999	17.07
381.21	33.45
381.42	2.73
381.63	12.97
381.84	4.78
382.05	41.64
382.261	49.83
382.471	123.56
382.681	96.94
382.891	21.16
383.101	64.17
383.311	23.21
383.521	62.12
383.731	90.79
383.941	10.92
384.151	47.79
384.361	78.51
384.571	6.83
384.781	31.4
384.991	80.55
385.201	62.12
385.411	21.16
385.621	64.17
385.831	-32.08
386.041	66.22
386.251	-1.37
386.461	12.97
386.671	12.97
386.881	23.21
387.091	2.73
387.301	66.22
387.511	55.98
387.72	47.79
387.93	35.5
388.14	51.88
388.35	-30.04
388.56	92.84
388.769	-3.41
388.979	96.94
389.189	6.83
389.399	23.21
389.609	39.59
389.818	41.64
390.028	55.98
390.238	66.22
390.447	53.93
390.657	62.12
390.867	-1.37
391.076	-27.99
391.286	86.7
391.496	53.93
391.705	35.5
391.915	15.02
392.125	66.22
392.334	76.46
392.544	82.6
392.753	70.31
392.963	45.74
393.172	121.51
393.382	-1.37
393.591	117.42
393.801	92.84
394.01	94.89
394.22	92.84
394.429	152.23
394.639	-3.41
394.848	103.08
395.058	47.79
395.267	90.79
395.477	43.69
395.686	49.83
395.895	43.69
396.105	64.17
396.314	66.22
396.524	74.41
396.733	4.78
396.942	17.07
397.152	72.36
397.361	39.59
397.57	35.5
397.78	96.94
397.989	80.55
398.198	55.98
398.407	29.35
398.617	58.03
398.826	29.35
399.035	115.37
399.244	53.93
399.453	37.55
399.663	51.88
399.872	141.99
400.081	35.5
400.29	64.17
400.499	33.45
400.708	68.27
400.917	-13.65
401.127	60.07
401.336	76.46
401.545	105.13
401.754	76.46
401.963	119.46
402.172	80.55
402.381	60.07
402.59	37.55
402.799	53.93
403.008	90.79
403.217	58.03
403.426	33.45
403.635	86.7
403.844	19.11
404.053	66.22
404.262	51.88
404.471	94.89
404.68	148.14
404.888	185
405.097	113.32
405.306	119.46
405.515	109.22
405.724	109.22
405.933	51.88
406.142	127.66
406.35	98.99
406.559	129.7
406.768	96.94
406.977	55.98
407.185	158.38
407.394	127.66
407.603	60.07
407.812	133.8
408.02	129.7
408.229	76.46
408.438	80.55
408.646	111.27
408.855	154.28
409.064	135.85
409.272	141.99
409.481	215.72
409.69	168.62
409.898	141.99
410.107	125.61
410.315	129.7
410.524	154.28
410.733	244.39
410.941	189.1
411.15	203.43
411.358	197.29
411.567	205.48
411.775	168.62
411.984	156.33
412.192	230.06
412.401	250.53
412.609	289.45
412.818	250.53
413.026	301.73
413.234	236.2
413.443	273.06
413.651	144.04
413.86	303.78
414.068	303.78
414.276	285.35
414.485	336.55
414.693	334.5
414.901	445.09
415.11	359.08
415.318	395.94
415.526	369.32
415.734	420.52
415.943	379.56
416.151	445.09
416.359	463.52
416.567	426.66
416.776	479.91
416.984	559.78
417.192	465.57
417.4	533.15
417.608	496.29
417.817	527.01
418.025	656.03
418.233	649.89
418.441	586.4
418.649	688.8
418.857	666.27
419.065	705.18
419.273	602.79
419.481	707.23
419.689	815.77
419.897	875.17
420.105	848.54
420.313	871.07
420.521	866.97
420.729	944.8
420.937	973.47
421.145	922.27
421.353	942.75
421.561	1061.53
421.769	1008.28
421.977	1082.01
422.185	1176.22
422.393	1141.4
422.601	1153.69
422.809	1225.37
423.017	1198.74
423.224	1338.01
423.432	1333.91
423.64	1317.53
423.848	1458.84
424.056	1387.16
424.263	1491.6
424.471	1514.13
424.679	1589.91
424.887	1639.06
425.094	1665.68
425.302	1706.64
425.51	1833.61
425.718	1753.74
425.925	1725.07
426.133	1936.01
426.341	2120.33
426.548	2067.08
426.756	2099.85
426.964	2179.72
427.171	2151.05
427.379	2284.17
427.586	2308.74
427.794	2333.32
428.001	2558.6
428.209	2579.08
428.417	2519.68
428.624	2636.42
428.832	2724.48
429.039	2652.8
429.247	2683.52
429.454	2906.75
429.662	3101.31
429.869	2873.98
430.076	3117.69
430.284	3074.68
430.491	3156.6
430.699	3408.5
430.906	3422.84
431.114	3443.32
431.321	3551.86
431.528	3744.37
431.736	3844.72
431.943	4096.62
432.15	3840.62
432.358	3920.49
432.565	4192.87
432.772	4045.42
432.979	4325.99
433.187	4360.81
433.394	4461.16
433.601	4766.31
433.808	4909.66
434.016	4764.26
434.223	5016.16
434.43	5196.38
434.637	5093.98
434.844	5284.44
435.052	5681.75
435.259	5532.25
435.466	5536.34
435.673	5358.17
435.88	5880.4
436.087	6023.76
436.294	6193.74
436.501	6060.62
436.708	6136.4
436.915	6244.94
437.122	6617.67
437.329	6666.82
437.537	6806.08
437.743	6947.39
437.95	6894.15
438.157	7254.59
438.364	7471.67
438.571	7447.1
438.778	7619.13
438.985	8235.56
439.192	7821.88
439.399	8120.88
439.606	7969.33
439.813	8518.18
440.02	8890.91
440.227	8710.69
440.433	8626.73
440.64	9026.08
440.847	8882.72
441.054	9136.67
441.261	9689.62
441.467	9681.43
441.674	9650.71
441.881	10148.37
442.088	10279.44
442.294	9986.58
442.501	10082.83
442.708	10412.56
442.914	10850.82
443.121	11256.32
443.328	10971.65
443.534	11762.17
443.741	11360.77
443.948	11379.2
444.154	12206.58
444.361	12063.22
444.568	12138.99
444.774	12190.19
444.981	12364.27
445.187	12556.78
445.394	13365.73
445.6	12986.85
445.807	14168.53
446.013	13330.91
446.22	14027.22
446.426	14434.77
446.633	14348.75
446.839	14875.08
447.046	14488.01
447.252	15081.92
447.459	15245.76
447.665	15202.75
447.871	15638.97
448.078	16425.39
448.284	15696.32
448.491	16136.63
448.697	16640.43
448.903	17133.99
449.11	16974.25
449.316	16896.42
449.522	16943.53
449.728	17543.58
449.935	17811.87
450.141	17938.84
450.347	17942.94
450.553	17666.46
450.76	17838.49
450.966	18293.14
451.172	18074.01
451.378	18733.45
451.584	18098.58
451.791	18514.32
451.997	18530.7
452.203	18887.05
452.409	18542.99
452.615	18633.1
452.821	17883.55
453.027	17809.82
453.233	18743.69
453.44	17990.04
453.646	18200.98
453.852	18094.49
454.058	18626.96
454.264	17861.02
454.47	18297.24
454.676	17971.61
454.882	18307.48
455.088	16945.58
455.294	17103.27
455.5	17512.86
455.705	17572.25
455.911	16937.38
456.117	16726.44
456.323	16441.78
456.529	15681.98
456.735	16320.95
456.941	15679.93
457.147	15432.13
457.352	15040.97
457.558	14911.94
457.764	14930.37
457.97	14721.48
458.176	14336.46
458.381	14336.46
458.587	13648.35
458.793	13744.6
458.999	12909.03
459.204	13920.73
459.41	13132.26
459.616	12345.84
459.821	12517.87
460.027	12554.73
460.233	12214.77
460.438	11497.98
460.644	11700.73
460.85	11280.89
461.055	11115.01
461.261	11080.19
461.466	10193.42
461.672	9966.1
461.878	10605.06
462.083	9867.8
462.289	9581.08
462.494	9663
462.7	9189.92
462.905	9015.84
463.111	9382.43
463.316	9423.39
463.522	9224.73
463.727	9079.33
463.932	8950.31
464.138	8837.67
464.343	8923.68
464.549	8786.47
464.754	9058.85
464.959	9026.08
465.165	8895.01
465.37	8526.38
465.575	8305.2
465.781	8806.95
465.986	8811.04
466.191	8313.39
466.397	8309.29
466.602	7785.01
466.807	8059.44
467.012	7959.09
467.218	7862.83
467.423	7932.47
467.628	7926.32
467.833	8333.87
468.038	8106.54
468.244	7973.43
468.449	8081.97
468.654	7928.37
468.859	7877.17
469.064	7811.64
469.269	7459.38
469.474	7539.26
469.679	7658.04
469.885	7354.94
470.09	7653.94
470.295	7635.51
470.5	7178.81
470.705	7369.27
470.91	7053.89
471.115	7066.17
471.32	7221.82
471.525	7129.66
471.73	6961.73
471.935	7051.84
472.139	6761.03
472.344	6902.34
472.549	6912.58
472.754	6824.51
472.959	6705.73
473.164	6353.48
473.369	6378.06
473.574	6468.17
473.778	6554.18
473.983	6404.68
474.188	6445.64
474.393	6163.02
474.598	5972.56
474.802	6242.89
475.007	6068.81
475.212	6144.59
475.417	5974.61
475.621	5780.05
475.826	5909.07
476.031	5823.06
476.235	5694.04
476.44	5716.56
476.645	5597.78
476.849	5605.97
477.054	5485.14
477.259	5493.33
477.463	5624.4
477.668	5321.31
477.872	5524.05
478.077	5204.57
478.282	5067.36
478.486	5124.7
478.691	5136.99
478.895	5173.85
479.1	5190.24
479.304	5157.47
479.509	4895.33
479.713	5089.89
479.918	4895.33
480.122	4852.32
480.326	4938.34
480.531	5016.16
480.735	4862.56
480.94	4794.98
481.144	5028.45
481.348	4809.31
481.553	4870.75
481.757	4708.96
481.961	4817.51
482.166	4829.79
482.37	4817.51
482.574	4768.35
482.778	4840.03
482.983	4790.88
483.187	4659.81
483.391	4696.68
483.595	4751.97
483.8	4778.59
484.004	4674.15
484.208	4741.73
484.412	4682.34
484.616	4604.52
484.821	4678.24
485.025	4565.6
485.229	4739.68
485.433	4721.25
485.637	4594.28
485.841	4625
486.045	4610.66
486.249	4674.15
486.453	4629.09
486.657	4713.06
486.861	4727.39
487.065	4502.12
487.269	4723.3
487.473	4477.54
487.677	4579.94
487.881	4721.25
488.085	4586.08
488.289	4678.24
488.493	4651.62
488.697	4797.03
488.901	4815.46
489.105	4713.06
489.309	4786.79
489.512	4751.97
489.716	4846.18
489.92	4584.04
490.124	4774.5
490.328	4698.72
490.531	4629.09
490.735	4864.61
490.939	4790.88
491.143	4768.35
491.346	4844.13
491.55	5065.31
491.754	4842.08
491.958	4956.77
492.161	4889.18
492.365	4989.53
492.569	4864.61
492.772	5005.92
492.976	4960.86
493.18	4962.91
493.383	5036.64
493.587	5153.37
493.79	5153.37
493.994	5048.93
494.197	5175.9
494.401	5241.43
494.605	5145.18
494.808	5249.63
495.012	5235.29
495.215	5302.87
495.419	5435.99
495.622	5364.31
495.825	5364.31
496.029	5321.31
496.232	5548.63
496.436	5569.11
496.639	5638.74
496.843	5577.3
497.046	5679.7
497.249	5798.48
497.453	5757.52
497.656	5802.58
497.859	5915.22
498.063	5884.5
498.266	5984.85
498.469	6019.66
498.673	6273.61
498.876	6183.5
499.079	6220.36
499.282	6206.03
499.485	6414.92
499.689	6384.2
499.892	6576.71
500.095	6695.49
500.298	6658.63
500.501	6679.11
500.705	6761.03
500.908	7014.98
501.111	6828.61
501.314	6941.25
501.517	7043.65
501.72	7113.28
501.923	7014.98
502.126	7230.01
502.329	7561.78
502.532	7481.91
502.735	7447.1
502.938	7533.11
503.141	7744.05
503.344	7744.05
503.547	7793.2
503.75	7862.83
503.953	7891.51
504.156	8172.08
504.359	8313.39
504.562	8264.24
504.765	8407.59
504.968	8548.9
505.17	8606.25
505.373	8436.27
505.576	8837.67
505.779	8999.46
505.982	8829.48
506.185	9087.52
506.387	9005.6
506.59	9179.68
506.793	9388.57
506.996	9298.46
507.198	9447.96
507.401	9464.35
507.604	9632.28
507.807	9892.37
508.009	9957.91
508.212	9984.53
508.415	10177.04
508.617	10123.79
508.82	10299.92
509.022	10127.89
509.225	10252.81
509.428	10605.06
509.63	10861.06
509.833	10592.78
510.035	11115.01
510.238	10705.42
510.44	11020.8
510.643	11332.09
510.845	11305.47
511.048	11198.98
511.25	11620.86
511.453	11321.85
511.655	11844.09
511.858	11809.27
512.06	11889.14
512.262	12028.4
512.465	11905.52
512.667	12425.71
512.87	12524.01
513.072	12325.36
513.274	12675.56
513.477	12724.71
513.679	12784.1
513.881	12872.17
514.084	13111.78
514.286	12976.61
514.488	13189.6
514.69	13601.24
514.893	13496.8
515.095	13576.67
515.297	13857.24
515.499	14053.84
515.701	13924.82
515.904	14313.94
516.106	14313.94
516.308	14547.4
516.51	14586.32
516.712	14721.48
516.914	14608.84
517.116	15249.86
517.318	14995.91
517.52	15292.87
517.722	15190.47
517.925	15483.33
518.127	15870.39
518.329	15690.17
518.531	15673.79
518.733	15823.29
518.935	16478.64
519.136	16007.61
519.338	16462.26
519.54	16521.65
519.742	16511.41
519.944	16824.75
520.146	17047.97
520.348	16990.63
520.55	17166.76
520.752	17037.73
520.954	17656.22
521.155	17621.41
521.357	17729.95
521.559	18045.34
521.761	18385.3
521.963	18225.56
522.164	18303.38
522.366	18305.43
522.568	18489.74
522.77	18434.45
522.971	18794.89
523.173	18762.12
523.375	19036.55
523.576	18813.32
523.778	19136.9
523.98	19257.73
524.181	19415.43
524.383	19403.14
524.584	19714.43
524.786	19503.49
524.988	19911.03
525.189	19951.99
525.391	20162.94
525.592	20130.17
525.794	20294.01
525.995	20607.34
526.197	20169.08
526.398	20291.96
526.6	20488.56
526.801	20672.88
527.003	20603.25
527.204	20910.44
527.406	21018.99
527.607	21205.35
527.808	21174.63
528.01	20947.31
528.211	21207.4
528.412	21432.68
528.614	21387.62
528.815	21528.93
529.016	21535.07
529.218	21580.13
529.419	21674.34
529.62	22012.25
529.822	21700.96
530.023	21793.12
530.224	21981.53
530.425	21983.58
530.626	21950.81
530.828	21924.19
531.029	22643.03
531.23	21680.48
531.431	22202.71
531.632	22350.17
531.833	22176.09
532.035	22141.27
532.236	22315.35
532.437	22352.21
532.638	22159.7
532.839	22421.84
533.04	22528.34
533.241	22204.76
533.442	22806.86
533.643	22348.12
533.844	22698.32
534.045	22600.02
534.246	22448.47
534.447	22853.97
534.648	22411.6
534.849	22616.4
535.05	22268.25
535.251	22477.14
535.451	22559.06
535.652	22409.56
535.853	22899.02
536.054	22548.82
536.255	22624.59
536.456	22655.31
536.657	23114.06
536.857	22757.71
537.058	22487.38
537.259	22737.23
537.46	22815.05
537.66	22835.53
537.861	22796.62
538.062	22860.11
538.263	22929.74
538.463	22669.65
538.664	22706.51
538.865	22929.74
539.065	22950.22
539.266	22401.36
539.466	22978.89
539.667	22577.49
539.868	22864.21
540.068	22686.03
540.269	23077.19
540.469	22782.29
540.67	22638.93
540.87	22876.49
541.071	23011.66
541.271	22798.67
541.472	22630.74
541.672	22917.45
541.873	22309.21
542.073	22419.8
542.274	22669.65
542.474	22759.76
542.675	22335.83
542.875	22911.31
543.075	22698.32
543.276	22636.88
543.476	22939.98
543.676	22876.49
543.877	22651.22
544.077	22733.14
544.277	22821.2
544.478	22686.03
544.678	22632.79
544.878	22896.97
545.078	22612.31
545.279	22499.67
545.479	22477.14
545.679	22878.54
545.879	22790.48
546.079	22720.85
546.28	22741.33
546.48	22673.74
546.68	22704.46
546.88	22944.08
547.08	22587.73
547.28	22471
547.48	22626.64
547.68	22593.87
547.88	22577.49
548.081	23009.61
548.281	22698.32
548.481	22569.3
548.681	22839.63
548.881	22632.79
549.081	22411.6
549.28	22839.63
549.48	22774.1
549.68	22407.51
549.88	22866.25
550.08	22681.94
550.28	22585.68
550.48	22634.83
550.68	22597.97
550.88	22534.48
551.08	22378.84
551.279	22694.22
551.479	22708.56
551.679	22464.85
551.879	22382.93
552.079	22624.59
552.278	22487.38
552.478	22493.52
552.678	22800.72
552.878	22557.01
553.077	22565.2
553.277	22290.77
553.477	22774.1
553.676	22258.01
553.876	22427.99
554.076	22200.66
554.275	22215
554.475	21985.63
554.674	22356.31
554.874	22391.12
555.074	22092.12
555.273	22532.43
555.473	22477.14
555.672	22235.48
555.872	22374.74
556.071	22122.84
556.271	22294.87
556.47	21879.13
556.67	21643.62
556.869	21971.29
557.068	22106.46
557.268	22098.27
557.467	22153.56
557.667	21815.65
557.866	21850.46
558.065	21983.58
558.265	21819.74
558.464	21717.34
558.663	21946.72
558.863	21516.64
559.062	21991.77
559.261	21692.77
559.461	21961.05
559.66	21680.48
559.859	21504.35
560.058	21524.83
560.258	21475.68
560.457	21361
560.656	21565.79
560.855	21287.27
561.054	21246.31
561.253	21086.57
561.453	21244.26
561.652	21217.64
561.851	21254.5
562.05	21291.37
562.249	21025.13
562.448	21225.83
562.647	21285.22
562.846	20949.35
563.045	21051.75
563.244	20701.55
563.443	21070.19
563.642	20920.68
563.841	21008.75
564.04	20679.02
564.239	20920.68
564.438	20627.82
564.637	20650.35
564.836	20877.68
565.035	20593.01
565.234	20705.65
565.432	20513.14
565.631	20484.47
565.83	20580.72
566.029	20320.63
566.228	19982.71
566.427	20275.57
566.625	20189.56
566.824	20025.72
567.023	20175.22
567.222	19796.35
567.42	19818.88
567.619	20019.58
567.818	19906.94
568.016	19710.33
568.215	19863.93
568.414	19906.94
568.612	19687.81
568.811	19581.31
569.01	19782.01
569.208	19415.43
569.407	19564.93
569.605	19308.93
569.804	19583.36
570.002	19292.55
570.201	19292.55
570.4	19272.07
570.598	19069.32
570.797	18878.86
570.995	19227.01
571.193	18635.15
571.392	18745.74
571.59	18762.12
571.789	18966.92
571.987	18809.23
572.186	18733.45
572.384	18637.2
572.582	18631.05
572.781	18682.25
572.979	18239.89
573.177	18508.18
573.376	18438.55
573.574	18315.67
573.772	18647.44
573.971	18227.6
574.169	18168.21
574.367	18035.1
574.565	18475.41
574.763	18145.69
574.962	17936.79
575.16	17916.31
575.358	18088.34
575.556	17742.24
575.754	17834.39
575.952	17568.16
576.151	17901.98
576.349	17400.23
576.547	17527.2
576.745	17664.41
576.943	17568.16
577.141	17557.92
577.339	17512.86
577.537	17271.2
577.735	17273.25
577.933	17316.26
578.131	17199.52
578.329	17070.5
578.527	17172.9
578.725	17142.18
578.923	17316.26
579.121	16939.43
579.319	16871.85
579.516	16884.14
579.714	16873.9
579.912	16923.05
580.11	16751.02
580.308	16693.68
580.506	16710.06
580.704	16292.27
580.901	16718.25
581.099	16824.75
581.297	16474.54
581.495	16374.19
581.692	16710.06
581.89	16355.76
582.088	16470.45
582.285	16228.79
582.483	16568.75
582.681	16091.57
582.878	16011.7
583.076	16026.04
583.274	16187.83
583.471	16255.41
583.669	16056.76
583.866	15888.82
584.064	16001.46
584.262	15925.69
584.459	16021.94
584.657	15858.1
584.854	15972.79
585.052	15677.88
585.249	15577.53
585.447	15806.91
585.644	15405.5
585.841	15569.34
586.039	15616.44
586.236	15569.34
586.434	15227.33
586.631	15258.05
586.828	15362.5
587.026	15278.53
587.223	15223.23
587.42	15262.15
587.618	15331.78
587.815	14840.26
588.012	15241.67
588.21	14950.85
588.407	14938.57
588.604	15038.92
588.801	14649.8
588.999	14875.08
589.196	14545.36
589.393	14879.18
589.59	14492.11
589.787	14477.77
589.984	14590.41
590.182	14604.75
590.379	14569.93
590.576	14522.83
590.773	14653.9
590.97	14594.51
591.167	14488.01
591.364	14258.64
591.561	14395.85
591.758	14449.1
591.955	14232.02
592.152	14215.63
592.349	14252.5
592.546	13847
592.743	14025.17
592.94	13857.24
593.137	13984.21
593.334	13976.02
593.531	13855.19
593.727	14047.7
593.924	13726.17
594.121	13699.55
594.318	13838.81
594.515	13474.27
594.712	13687.26
594.908	13627.87
595.105	13474.27
595.302	13593.05
595.499	13517.28
595.696	13435.36
595.892	13107.68
596.089	13242.85
596.286	13228.51
596.482	13453.79
596.679	12982.76
596.876	13251.04
597.072	13025.76
597.269	13183.46
597.466	13025.76
597.662	13013.48
597.859	13074.92
598.055	13054.44
598.252	13042.15
598.448	12837.35
598.645	12904.93
598.841	12685.8
599.038	12827.11
599.234	12802.54
599.431	12550.64
599.627	12509.68
599.824	12808.68
600.02	12435.95
600.217	12456.43
600.413	12497.39
600.609	12429.8
600.806	12212.72
601.002	12536.3
601.198	12184.05
601.395	12300.78
601.591	12417.52
601.787	12321.26
601.984	11964.92
602.18	12247.54
602.376	11813.37
602.572	12061.17
602.769	12050.93
602.965	12012.02
603.161	12059.12
603.357	12075.51
603.553	11919.86
603.75	11653.62
603.946	11860.47
604.142	11747.83
604.338	11799.03
604.534	11463.16
604.73	11586.04
604.926	11428.35
605.122	11837.94
605.318	11565.56
605.514	11549.18
605.71	11627
605.906	11297.28
606.102	11295.23
606.298	11579.9
606.494	11446.78
606.69	11297.28
606.886	11487.74
607.082	11332.09
607.278	11557.37
607.474	11096.58
607.67	11258.37
607.866	11151.87
608.062	11276.8
608.257	11084.29
608.453	11078.15
608.649	11096.58
608.845	11074.05
609.041	10957.32
609.236	11121.15
609.432	10955.27
609.628	11002.37
609.824	11002.37
610.019	10934.79
610.215	10764.81
610.411	10947.08
610.606	10736.13
610.802	10740.23
610.998	10883.59
611.193	10740.23
611.389	10748.42
611.584	10689.03
611.78	10637.83
611.976	10756.61
612.171	10574.35
612.367	10596.87
612.562	10682.89
612.758	10312.21
612.953	10304.01
613.149	10447.37
613.344	10344.97
613.539	10506.76
613.735	10564.11
613.93	10441.23
614.126	10383.88
614.321	10707.46
614.517	10402.32
614.712	10258.96
614.907	10066.45
615.103	10215.95
615.298	10224.14
615.493	10211.85
615.688	10131.98
615.884	10205.71
616.079	10058.26
616.274	10045.97
616.47	10070.54
616.665	10070.54
616.86	10240.53
617.055	10156.56
617.25	10017.3
617.445	10215.95
617.641	9798.17
617.836	10048.02
618.031	9878.04
618.226	9800.21
618.421	9843.22
618.616	9826.84
618.811	9632.28
619.006	10056.21
619.201	9765.4
619.396	9663
619.591	9638.42
619.786	9531.93
619.981	9611.8
620.176	9470.49
620.371	9435.67
620.566	9509.4
620.761	9531.93
620.956	9734.68
621.151	9222.69
621.346	9370.14
621.541	9247.26
621.735	9327.13
621.93	8958.5
622.125	9263.65
622.32	9089.57
622.515	9097.76
622.709	9142.82
622.904	9046.56
623.099	8919.59
623.294	9017.89
623.488	8811.04
623.683	8671.78
623.878	8765.99
624.072	8868.39
624.267	8663.59
624.462	8593.96
624.656	8548.9
624.851	8690.21
625.046	8409.64
625.24	8329.77
625.435	8440.36
625.629	8415.79
625.824	8127.02
626.018	8196.65
626.213	8163.89
626.407	8200.75
626.602	7873.07
626.796	8307.24
626.991	8178.22
627.185	8028.72
627.38	7916.08
627.574	7815.73
627.768	7922.23
627.963	7795.25
628.157	7694.9
628.352	7739.96
628.546	7633.46
628.74	7680.57
628.935	7533.11
629.129	7608.89
629.323	7561.78
629.517	7449.14
629.712	7492.15
629.906	7600.69
630.1	7508.54
630.294	7375.42
630.489	7447.1
630.683	7408.19
630.877	7187.01
631.071	7172.67
631.265	7115.33
631.459	7203.39
631.653	7172.67
631.848	7164.48
632.042	7082.56
632.236	6912.58
632.43	6842.95
632.624	6978.11
632.818	6910.53
633.012	6967.87
633.206	6783.56
633.4	6906.43
633.594	6691.4
633.788	6720.07
633.982	6664.77
634.176	6607.43
634.369	6623.81
634.563	6715.97
634.757	6679.11
634.951	6451.78
635.145	6423.11
635.339	6611.53
635.533	6406.73
635.726	6492.74
635.92	6310.47
636.114	6150.73
636.308	6064.72
636.501	6201.93
636.695	6087.25
636.889	6210.12
637.083	6023.76
637.276	6132.3
637.47	6003.28
637.664	5968.46
637.857	5911.12
638.051	6007.38
638.244	5902.93
638.438	5790.29
638.632	5780.05
638.825	5663.32
639.019	5812.82
639.212	5694.04
639.406	5866.07
639.599	5747.28
639.793	5743.19
639.986	5395.03
640.18	5575.25
640.373	5612.12
640.567	5653.08
640.76	5608.02
640.954	5603.93
641.147	5409.37
641.34	5345.88
641.534	5421.66
641.727	5464.66
641.92	5339.74
642.114	5401.18
642.307	5378.65
642.5	5130.84
642.694	4942.43
642.887	5114.46
643.08	5266.01
643.273	5163.61
643.467	5151.32
643.66	5085.79
643.853	5093.98
644.046	4987.49
644.239	5014.11
644.432	5042.78
644.626	4901.47
644.819	4921.95
645.012	5026.4
645.205	4708.96
645.398	4842.08
645.591	4827.74
645.784	4754.02
645.977	4770.4
646.17	4817.51
646.363	4700.77
646.556	4657.76
646.749	4735.59
646.942	4457.06
647.135	4641.38
647.328	4674.15
647.521	4504.17
647.714	4573.8
647.907	4672.1
648.099	4538.98
648.292	4428.39
648.485	4381.29
648.678	4434.53
648.871	4336.23
649.064	4369
649.256	4407.91
649.449	4457.06
649.642	4291.18
649.835	4285.03
650.027	4092.52
650.22	4313.7
650.413	4174.44
650.605	4156.01
650.798	4153.96
650.991	4078.19
651.183	4147.82
651.376	4100.72
651.568	4067.95
651.761	4045.42
651.954	4145.77
652.146	4117.1
652.339	3873.39
652.531	3945.07
652.724	4022.89
652.916	3885.68
653.109	3867.25
653.301	3992.17
653.494	3906.16
653.686	3895.92
653.879	3900.02
654.071	3730.03
654.263	3744.37
654.456	3816.05
654.648	3852.91
654.84	3717.75
655.033	3562.1
655.225	3758.71
655.417	3582.58
655.61	3580.53
655.802	3691.12
655.994	3662.45
656.186	3637.88
656.379	3641.97
656.571	3687.03
656.763	3564.15
656.955	3582.58
657.148	3482.23
657.34	3496.57
657.532	3439.22
657.724	3402.36
657.916	3445.37
658.108	3404.41
658.3	3291.77
658.492	3377.78
658.684	3340.92
658.876	3345.02
659.068	3373.69
659.26	3252.86
659.452	3336.82
659.644	3299.96
659.836	3345.02
660.028	3238.52
660.22	3232.38
660.412	3172.99
660.604	3259
660.796	3119.74
660.988	3213.95
661.18	3033.72
661.372	3119.74
661.563	3056.25
661.755	3056.25
661.947	3023.48
662.139	3021.44
662.331	2949.76
662.522	3009.15
662.714	3058.3
662.906	2964.09
663.097	3000.96
663.289	2902.65
663.481	2933.37
663.673	2904.7
663.864	2906.75
664.056	2921.09
664.247	2904.7
664.439	2849.41
664.631	2943.61
664.822	2888.32
665.014	2847.36
665.205	2843.26
665.397	2820.74
665.588	2851.46
665.78	2839.17
665.971	2835.07
666.163	2683.52
666.354	2728.58
666.546	2785.92
666.737	2699.91
666.929	2781.82
667.12	2677.38
667.311	2691.71
667.503	2675.33
667.694	2620.03
667.885	2628.23
668.077	2673.28
668.268	2542.21
668.459	2663.04
668.651	2607.75
668.842	2519.68
669.033	2493.06
669.224	2472.58
669.416	2605.7
669.607	2513.54
669.798	2554.5
669.989	2622.08
670.18	2450.05
670.371	2550.4
670.563	2445.96
670.754	2480.77
670.945	2529.92
671.136	2380.42
671.327	2341.51
671.518	2398.85
671.709	2294.41
671.9	2394.76
672.091	2355.85
672.282	2361.99
672.473	2249.35
672.664	2329.22
672.855	2232.97
673.046	2288.26
673.237	2415.24
673.428	2419.33
673.619	2474.63
673.809	2321.03
674	2243.21
674.191	2290.31
674.382	2316.94
674.573	2337.41
674.764	2228.87
674.954	2194.06
675.145	2265.74
675.336	2282.12
675.527	2361.99
675.717	2173.58
675.908	2226.82
676.099	2214.54
676.289	2296.46
676.48	2208.39
676.671	2069.13
676.861	2243.21
677.052	2157.19
677.243	2114.19
677.433	2206.35
677.624	2161.29
677.814	2118.28
678.005	2036.36
678.195	2167.43
678.386	2112.14
678.576	2060.94
678.767	2087.56
678.957	2097.8
679.148	2134.67
679.338	2196.11
679.529	2060.94
679.719	2009.74
679.909	2065.04
680.1	2071.18
680.29	2091.66
680.481	1987.21
680.671	2095.75
680.861	2009.74
681.052	2069.13
681.242	2038.41
681.432	2036.36
681.622	2038.41
681.813	2065.04
682.003	2046.6
682.193	1979.02
682.383	2009.74
682.573	1907.34
682.764	1974.92
682.954	1860.24
683.144	1981.07
683.334	1946.25
683.524	1833.61
683.714	2024.08
683.904	1878.67
684.094	1940.11
684.284	1911.44
684.474	1983.12
684.664	2003.6
684.854	1905.29
685.044	2005.64
685.234	1921.68
685.424	1856.14
685.614	1938.06
685.804	1850
685.994	1813.13
686.184	1809.04
686.374	1905.29
686.564	1751.7
686.753	1864.33
686.943	1817.23
687.133	1872.53
687.323	1944.2
687.513	1852.05
687.702	1704.59
687.892	1813.13
688.082	1858.19
688.272	1827.47
688.461	1665.68
688.651	1847.95
688.841	1733.26
689.03	1757.84
689.22	1845.9
689.41	1776.27
689.599	1763.98
689.789	1759.89
689.979	1682.06
690.168	1739.41
690.358	1716.88
690.547	1645.2
690.737	1796.75
690.926	1798.8
691.116	1714.83
691.305	1645.2
691.495	1665.68
691.684	1614.48
691.874	1677.97
692.063	1737.36
692.252	1618.58
692.442	1542.8
692.631	1620.63
692.82	1700.5
693.01	1651.35
693.199	1596.05
693.388	1655.44
693.578	1614.48
693.767	1634.96
693.956	1540.76
694.146	1522.32
694.335	1669.78
694.524	1561.23
694.713	1559.19
694.902	1600.15
695.092	1522.32
695.281	1596.05
695.47	1632.91
695.659	1393.3
695.848	1563.28
696.037	1489.56
696.226	1553.04
696.415	1485.46
696.604	1456.79
696.793	1454.74
696.982	1469.08
697.171	1555.09
697.36	1475.22
697.549	1462.93
697.738	1493.65
697.927	1366.68
698.116	1634.96
698.305	1528.47
698.494	1540.76
698.683	1493.65
698.872	1546.9
699.061	1487.51
699.25	1391.25
699.438	1567.38
699.627	1467.03
699.816	1553.04
700.005	1464.98
700.193	1573.52
700.382	1583.76
700.571	1487.51
700.76	1440.4
700.948	1477.27
701.137	1491.6
701.326	1483.41
701.514	1411.73
701.703	1555.09
701.892	1510.04
702.08	1501.84
702.269	1471.12
702.457	1467.03
702.646	1446.55
702.834	1456.79
703.023	1407.64
703.212	1546.9
703.4	1475.22
703.589	1489.56
703.777	1577.62
703.965	1464.98
704.154	1495.7
704.342	1548.95
704.531	1534.61
704.719	1475.22
704.907	1469.08
705.096	1520.28
705.284	1591.95
705.472	1546.9
705.661	1522.32
705.849	1571.47
706.037	1571.47
706.226	1499.8
706.414	1569.43
706.602	1469.08
706.79	1538.71
706.979	1452.69
707.167	1452.69
707.355	1462.93
707.543	1540.76
707.731	1442.45
707.919	1467.03
708.107	1475.22
708.296	1454.74
708.484	1596.05
708.672	1454.74
708.86	1497.75
709.048	1489.56
709.236	1417.88
709.424	1477.27
709.612	1485.46
709.8	1550.99
709.988	1471.12
710.176	1421.97
710.364	1497.75
710.551	1491.6
710.739	1510.04
710.927	1430.16
711.115	1514.13
711.303	1550.99
711.491	1491.6
711.679	1581.71
711.866	1471.12
712.054	1460.88
712.242	1493.65
712.43	1614.48
712.617	1403.54
712.805	1528.47
712.993	1546.9
713.181	1464.98
713.368	1487.51
713.556	1405.59
713.744	1456.79
713.931	1417.88
714.119	1516.18
714.306	1577.62
714.494	1426.07
714.682	1495.7
714.869	1424.02
715.057	1520.28
715.244	1444.5
715.432	1499.8
715.619	1456.79
715.807	1512.08
715.994	1438.36
716.182	1467.03
716.369	1544.85
716.556	1405.59
716.744	1532.56
716.931	1522.32
717.119	1432.21
717.306	1512.08
717.493	1458.84
717.681	1452.69
717.868	1514.13
718.055	1524.37
718.242	1524.37
718.43	1432.21
718.617	1491.6
718.804	1491.6
718.991	1516.18
719.179	1458.84
719.366	1491.6
719.553	1430.16
719.74	1421.97
719.927	1456.79
720.114	1514.13
720.301	1446.55
720.488	1505.94
720.676	1555.09
720.863	1501.84
721.05	1479.32
721.237	1512.08
721.424	1399.45
721.611	1417.88
721.798	1405.59
721.985	1522.32
722.172	1385.11
722.358	1391.25
722.545	1405.59
722.732	1362.58
722.919	1522.32
723.106	1460.88
723.293	1370.77
723.48	1419.92
723.667	1561.23
723.853	1512.08
724.04	1397.4
724.227	1444.5
724.414	1491.6
724.6	1467.03
724.787	1454.74
724.974	1493.65
725.161	1424.02
725.347	1424.02
725.534	1440.4
725.72	1419.92
725.907	1477.27
726.094	1499.8
726.28	1485.46
726.467	1462.93
726.653	1452.69
726.84	1462.93
727.027	1489.56
727.213	1448.6
727.4	1462.93
727.586	1442.45
727.773	1440.4
727.959	1464.98
728.145	1489.56
728.332	1563.28
728.518	1366.68
728.705	1555.09
728.891	1561.23
729.077	1550.99
729.264	1456.79
729.45	1430.16
729.636	1522.32
729.823	1399.45
730.009	1436.31
730.195	1376.92
730.382	1432.21
730.568	1407.64
730.754	1481.36
730.94	1458.84
731.126	1417.88
731.313	1458.84
731.499	1522.32
731.685	1534.61
731.871	1405.59
732.057	1407.64
732.243	1473.17
732.429	1440.4
732.615	1329.81
732.801	1436.31
732.987	1462.93
733.173	1415.83
733.359	1399.45
733.545	1426.07
733.731	1389.21
733.917	1428.12
734.103	1430.16
734.289	1360.53
734.475	1467.03
734.661	1383.06
734.847	1442.45
735.033	1405.59
735.219	1489.56
735.404	1407.64
735.59	1356.44
735.776	1442.45
735.962	1458.84
736.148	1460.88
736.333	1331.86
736.519	1381.01
736.705	1391.25
736.89	1409.69
737.076	1383.06
737.262	1397.4
737.447	1374.87
737.633	1342.1
737.819	1374.87
738.004	1364.63
738.19	1403.54
738.375	1354.39
738.561	1356.44
738.747	1311.38
738.932	1315.48
739.118	1417.88
739.303	1381.01
739.489	1364.63
739.674	1327.77
739.859	1286.81
740.045	1450.64
740.23	1225.37
740.416	1290.9
740.601	1426.07
740.786	1342.1
740.972	1299.09
741.157	1387.16
741.342	1276.57
741.528	1340.05
741.713	1235.61
741.898	1303.19
742.084	1303.19
742.269	1303.19
742.454	1387.16
742.639	1262.23
742.824	1297.05
743.01	1249.94
743.195	1311.38
743.38	1217.18
743.565	1239.7
743.75	1223.32
743.935	1280.66
744.12	1198.74
744.305	1280.66
744.49	1251.99
744.675	1276.57
744.86	1178.26
745.045	1225.37
745.23	1165.98
745.415	1223.32
745.6	1288.85
745.785	1268.38
745.97	1208.98
746.155	1190.55
746.34	1184.41
746.525	1172.12
746.71	1174.17
746.895	1178.26
747.079	1139.35
747.264	1096.35
747.449	1258.14
747.634	1145.5
747.819	1063.58
748.003	1102.49
748.188	1145.5
748.373	1073.82
748.557	1100.44
748.742	1090.2
748.927	1092.25
749.111	1071.77
749.296	1065.63
749.481	1129.11
749.665	1030.81
749.85	1077.91
750.034	1108.63
750.219	1084.06
750.404	959.13
750.588	1043.1
750.773	981.66
750.957	1110.68
751.141	1088.15
751.326	1018.52
751.51	985.76
751.695	912.03
751.879	858.78
752.064	975.52
752.248	952.99
752.432	989.85
752.617	887.45
752.801	983.71
752.985	948.89
753.17	969.37
753.354	897.69
753.538	959.13
753.722	866.97
753.907	897.69
754.091	873.12
754.275	1022.62
754.459	912.03
754.643	938.65
754.828	821.92
755.012	944.8
755.196	869.02
755.38	826.01
755.564	875.17
755.748	860.83
755.932	844.45
756.116	811.68
756.3	866.97
756.484	877.21
756.668	799.39
756.852	828.06
757.036	866.97
757.22	774.81
757.404	791.2
757.588	848.54
757.772	801.44
757.956	801.44
758.14	897.69
758.323	815.77
758.507	748.19
758.691	807.58
758.875	762.53
759.059	793.25
759.242	774.81
759.426	803.49
759.61	789.15
759.794	758.43
759.977	817.82
760.161	774.81
760.345	787.1
760.528	856.73
760.712	748.19
760.895	815.77
761.079	815.77
761.263	703.14
761.446	731.81
761.63	705.18
761.813	721.57
761.997	713.38
762.18	713.38
762.364	727.71
762.547	709.28
762.731	721.57
762.914	711.33
763.098	705.18
763.281	744.1
763.464	729.76
763.648	635.55
763.831	723.62
764.015	733.86
764.198	682.66
764.381	713.38
764.564	645.79
764.748	629.41
764.931	647.84
765.114	723.62
765.297	631.46
765.481	701.09
765.664	637.6
765.847	633.5
766.03	690.85
766.213	694.94
766.397	682.66
766.58	680.61
766.763	598.69
766.946	645.79
767.129	625.31
767.312	660.13
767.495	639.65
767.678	635.55
767.861	688.8
768.044	582.31
768.227	619.17
768.41	602.79
768.593	649.89
768.776	524.96
768.959	666.27
769.142	580.26
769.324	610.98
769.507	563.87
769.69	578.21
769.873	610.98
770.056	561.83
770.239	602.79
770.421	574.11
770.604	662.18
770.787	627.36
770.97	662.18
771.152	559.78
771.335	570.02
771.518	473.76
771.7	694.94
771.883	635.55
772.066	567.97
772.248	608.93
772.431	606.88
772.613	596.64
772.796	586.4
772.978	522.91
773.161	617.12
773.343	541.35
773.526	533.15
773.708	531.11
773.891	490.15
774.073	555.68
774.256	527.01
774.438	625.31
774.621	486.05
774.803	508.58
774.985	506.53
775.168	496.29
775.35	545.44
775.532	492.2
775.715	496.29
775.897	543.39
776.079	516.77
776.261	481.96
776.444	572.07
776.626	529.06
776.808	510.63
776.99	438.95
777.173	469.67
777.355	514.72
777.537	527.01
777.719	539.3
777.901	467.62
778.083	537.25
778.265	424.61
778.447	453.28
778.629	406.18
778.811	453.28
778.993	467.62
779.175	375.46
779.357	430.76
779.539	428.71
779.721	359.08
779.903	408.23
780.085	365.22
780.267	453.28
780.449	342.69
780.631	430.76
780.812	420.52
780.994	361.13
781.176	484
781.358	467.62
781.54	371.37
781.721	393.89
781.903	361.13
782.085	402.08
782.267	397.99
782.448	303.78
782.63	395.94
782.812	334.5
782.993	391.84
783.175	338.6
783.357	338.6
783.538	354.98
783.72	344.74
783.901	430.76
784.083	447.14
784.264	334.5
784.446	379.56
784.627	330.41
784.809	404.13
784.99	295.59
785.172	375.46
785.353	354.98
785.535	289.45
785.716	326.31
785.897	275.11
786.079	301.73
786.26	301.73
786.441	283.3
786.623	187.05
786.804	332.45
786.985	332.45
787.167	307.88
787.348	305.83
787.529	359.08
787.71	301.73
787.891	318.12
788.073	307.88
788.254	203.43
788.435	242.34
788.616	244.39
788.797	342.69
788.978	295.59
789.159	271.01
789.34	285.35
789.522	316.07
789.703	277.16
789.884	301.73
790.065	289.45
790.246	271.01
790.427	285.35
790.607	301.73
790.788	203.43
790.969	281.25
791.15	187.05
791.331	191.14
791.512	193.19
791.693	275.11
791.874	182.95
792.054	305.83
792.235	244.39
792.416	234.15
792.597	221.86
792.778	240.29
792.958	250.53
793.139	219.82
793.32	207.53
793.5	219.82
793.681	277.16
793.862	197.29
794.042	219.82
794.223	182.95
794.404	217.77
794.584	166.57
794.765	207.53
794.945	170.66
795.126	266.92
795.306	199.34
795.487	219.82
795.667	195.24
795.848	205.48
796.028	264.87
796.209	205.48
796.389	213.67
796.57	277.16
796.75	174.76
796.93	228.01
797.111	236.2
797.291	137.9
797.471	137.9
797.652	209.58
797.832	80.55
798.012	242.34
798.192	187.05
798.373	213.67
798.553	166.57
798.733	223.91
798.913	207.53
799.093	170.66
799.274	129.7
799.454	176.81
799.634	219.82
799.814	215.72
799.994	158.38
800.174	215.72
800.354	174.76
800.534	150.18
800.714	203.43
800.894	170.66
801.074	158.38
801.254	168.62
801.434	187.05
801.614	252.58
801.794	125.61
801.974	529.06
802.154	258.73
802.334	141.99
802.514	152.23
802.693	172.71
802.873	180.9
803.053	221.86
803.233	139.94
803.413	195.24
803.592	92.84
803.772	109.22
803.952	135.85
804.131	137.9
804.311	199.34
804.491	197.29
804.67	152.23
804.85	74.41
805.03	115.37
805.209	248.49
805.389	101.03
805.568	121.51
805.748	94.89
805.928	141.99
806.107	139.94
806.287	90.79
806.466	86.7
806.646	125.61
806.825	152.23
807.004	131.75
807.184	105.13
807.363	125.61
807.543	187.05
807.722	137.9
807.901	107.18
808.081	125.61
808.26	90.79
808.439	131.75
808.619	162.47
808.798	144.04
808.977	146.09
809.156	154.28
809.336	96.94
809.515	191.14
809.694	66.22
809.873	158.38
810.052	168.62
810.231	135.85
810.411	109.22
810.59	107.18
810.769	137.9
810.948	49.83
811.127	33.45
811.306	103.08
811.485	166.57
811.664	215.72
811.843	78.51
812.022	152.23
812.201	43.69
812.38	109.22
812.559	113.32
812.737	131.75
812.916	88.75
813.095	135.85
813.274	94.89
813.453	115.37
813.632	113.32
813.811	146.09
813.989	148.14
814.168	84.65
814.347	105.13
814.526	135.85
814.704	78.51
814.883	125.61
815.062	88.75
815.24	119.46
815.419	51.88
815.598	92.84
815.776	117.42
815.955	53.93
816.133	76.46
816.312	111.27
816.49	96.94
816.669	96.94
816.847	103.08
817.026	76.46
817.204	98.99
817.383	60.07
817.561	107.18
817.74	49.83
817.918	88.75
818.097	8.87
818.275	162.47
818.453	119.46
818.632	207.53
818.81	166.57
818.988	70.31
819.167	76.46
819.345	88.75
819.523	96.94
819.701	125.61
819.879	76.46
820.058	115.37
820.236	152.23
820.414	53.93
820.592	58.03
820.77	105.13
820.948	119.46
821.127	62.12
821.305	55.98
821.483	47.79
821.661	88.75
821.839	62.12
822.017	78.51
822.195	4.78
822.373	76.46
822.551	33.45
822.729	39.59
822.907	111.27
823.085	19.11
823.262	105.13
823.44	78.51
823.618	84.65
823.796	27.31
823.974	25.26
824.152	53.93
824.329	92.84
824.507	58.03
824.685	92.84
824.863	105.13
825.04	96.94
825.218	25.26
825.396	117.42
825.574	84.65
825.751	96.94
825.929	84.65
826.107	29.35
826.284	80.55
826.462	68.27
826.639	6.83
826.817	88.75
826.994	82.6
827.172	53.93
827.349	137.9
827.527	92.84
827.704	111.27
827.882	103.08
828.059	78.51
828.237	96.94
828.414	10.92
828.591	-134.48
828.769	51.88
828.946	80.55
829.124	109.22
829.301	80.55
829.478	103.08
829.655	88.75
829.833	131.75
830.01	111.27
830.187	64.17
830.364	21.16
830.542	31.4
830.719	70.31
830.896	72.36
831.073	53.93
831.25	119.46
831.427	121.51
831.604	55.98
831.782	47.79
831.959	2.73
832.136	49.83
832.313	86.7
832.49	96.94
832.667	64.17
832.844	55.98
833.021	113.32
833.198	39.59
833.374	0.68
833.551	55.98
833.728	111.27
833.905	88.75
834.082	-30.04
834.259	47.79
834.436	15.02
834.612	60.07
834.789	82.6
834.966	90.79
835.143	76.46
835.319	6.83
835.496	84.65
835.673	64.17
835.85	27.31
836.026	86.7
836.203	58.03
836.38	8.87
836.556	90.79
836.733	55.98
836.909	121.51
837.086	23.21
837.262	49.83
837.439	113.32
837.616	-38.23
837.792	111.27
837.968	19.11
838.145	41.64
838.321	45.74
838.498	72.36
838.674	49.83
838.851	55.98
839.027	45.74
839.203	109.22
839.38	113.32
839.556	70.31
839.732	-30.04
839.909	86.7
840.085	60.07
840.261	88.75
840.437	58.03
840.614	17.07
840.79	78.51
840.966	39.59
841.142	-17.75
841.318	92.84
841.494	74.41
841.671	78.51
841.847	43.69
842.023	27.31
842.199	47.79
842.375	62.12
842.551	6.83
842.727	-3.41
842.903	94.89
843.079	74.41
843.255	35.5
843.431	86.7
843.607	31.4
843.783	12.97
843.959	49.83
844.134	47.79
844.31	84.65
844.486	29.35
844.662	78.51
844.838	43.69
845.013	-9.56
845.189	49.83
845.365	74.41
845.541	27.31
845.716	31.4
845.892	-5.46
846.068	19.11
846.244	35.5
846.419	41.64
846.595	12.97
846.77	-7.51
846.946	58.03
847.122	35.5
847.297	21.16
847.473	10.92
847.648	17.07
847.824	43.69
847.999	-52.56
848.175	58.03
848.35	98.99
848.526	60.07
848.701	84.65
848.876	58.03
849.052	23.21
849.227	82.6
849.403	84.65
849.578	-9.56
849.753	103.08
849.929	72.36
850.104	68.27
850.279	60.07
850.454	-34.13
850.63	82.6
850.805	66.22
850.98	135.85
851.155	70.31
851.33	15.02
851.505	33.45
851.681	55.98
851.856	-34.13
852.031	58.03
852.206	25.26
852.381	113.32
852.556	37.55
852.731	80.55
852.906	55.98
853.081	70.31
853.256	111.27
853.431	37.55
853.606	21.16
853.781	29.35
853.956	53.93
854.131	39.59
854.305	58.03
854.48	-21.85
854.655	0.68
854.83	58.03
855.005	-54.61
855.18	45.74
855.354	10.92
855.529	94.89
855.704	-46.42
855.879	33.45
856.053	31.4
856.228	51.88
856.403	92.84
856.577	64.17
856.752	-34.13
856.926	4.78
857.101	84.65
857.276	72.36
857.45	68.27
857.625	0.68
857.799	12.97
857.974	0.68
858.148	33.45
858.323	103.08
858.497	72.36
858.672	19.11
858.846	-44.37
859.02	0.68
859.195	12.97
859.369	27.31
859.543	137.9
859.718	35.5
859.892	35.5
860.066	86.7
860.241	39.59
860.415	55.98
860.589	39.59
860.763	55.98
860.938	-89.43
861.112	66.22
861.286	53.93
861.46	127.66
861.634	23.21
861.808	141.99
861.982	53.93
862.157	23.21
862.331	15.02
862.505	68.27
862.679	33.45
862.853	27.31
863.027	64.17
863.201	6.83
863.375	-3.41
863.549	49.83
863.722	55.98
863.896	76.46
864.07	-13.65
864.244	43.69
864.418	49.83
864.592	47.79
864.766	86.7
864.939	-48.47
865.113	-1.37
865.287	72.36
865.461	68.27
865.634	0.68
865.808	115.37
865.982	10.92
866.156	60.07
866.329	-64.85
866.503	41.64
866.676	19.11
866.85	49.83
867.024	-9.56
867.197	31.4
867.371	76.46
867.544	31.4
867.718	96.94
867.891	55.98
868.065	35.5
868.238	35.5
868.412	51.88
868.585	45.74
868.759	53.93
868.932	60.07
869.105	-64.85
869.279	43.69
869.452	94.89
869.625	25.26
869.799	92.84
869.972	23.21
870.145	68.27
870.319	101.03
870.492	41.64
870.665	21.16
870.838	53.93
871.011	-34.13
871.185	58.03
871.358	41.64
871.531	35.5
871.704	62.12
871.877	-5.46
872.05	15.02
872.223	74.41
872.396	45.74
872.569	58.03
872.742	-3.41
872.915	82.6
873.088	43.69
873.261	6.83
873.434	58.03
873.607	72.36
873.78	45.74
873.953	10.92
874.126	-83.28
874.299	-3.41
874.471	-5.46
874.644	-3.41
874.817	17.07
874.99	8.87
875.163	31.4
875.335	19.11
875.508	2.73
875.681	41.64
875.853	37.55
876.026	-7.51
876.199	-50.52
876.371	74.41
876.544	-21.85
876.717	90.79
876.889	62.12
877.062	125.61
877.234	-15.7
877.407	19.11
877.579	107.18
877.752	19.11
877.924	53.93
878.097	10.92
878.269	39.59
878.442	23.21
878.614	35.5
878.786	29.35
878.959	41.64
879.131	72.36
879.303	27.31
879.476	2.73
879.648	23.21
879.82	94.89
879.993	72.36
880.165	39.59
880.337	-5.46
880.509	55.98
880.681	45.74
880.854	8.87
881.026	2.73
881.198	70.31
881.37	31.4
881.542	74.41
881.714	19.11
881.886	35.5
882.058	39.59
882.23	25.26
882.402	-30.04
882.574	-23.89
882.746	62.12
882.918	66.22
883.09	60.07
883.262	96.94
883.434	47.79
883.606	88.75
883.778	27.31
883.95	35.5
884.122	21.16
884.293	19.11
884.465	23.21
884.637	23.21
884.809	10.92
884.98	41.64
885.152	60.07
885.324	-62.8
885.496	-1.37
885.667	31.4
885.839	43.69
886.011	53.93
886.182	-3.41
886.354	43.69
886.525	8.87
886.697	80.55
886.869	6.83
887.04	101.03
887.212	-36.18
887.383	17.07
887.555	51.88
887.726	0.68
887.897	6.83
888.069	-9.56
888.24	51.88
888.412	10.92
888.583	8.87
888.754	4.78
888.926	88.75
889.097	84.65
889.268	-17.75
889.44	84.65
889.611	-1.37
889.782	53.93
889.953	29.35
890.125	53.93
890.296	-79.19
890.467	62.12
890.638	23.21
890.809	4.78
890.98	-15.7
891.151	47.79
891.323	15.02
891.494	2.73
891.665	-11.61
891.836	6.83
892.007	-58.71
892.178	-7.51
892.349	84.65
892.52	43.69
892.691	66.22
892.862	68.27
893.032	15.02
893.203	35.5
893.374	70.31
893.545	43.69
893.716	-38.23
893.887	8.87
894.057	70.31
894.228	80.55
894.399	29.35
894.57	23.21
894.74	2.73
894.911	2.73
895.082	15.02
895.253	6.83
895.423	25.26
895.594	6.83
895.764	-34.13
895.935	-3.41
896.106	-9.56
896.276	-52.56
896.447	70.31
896.617	-23.89
896.788	17.07
896.958	2.73
897.129	64.17
897.299	45.74
897.47	60.07
897.64	35.5
897.81	72.36
897.981	6.83
898.151	-9.56
898.322	6.83
898.492	2.73
898.662	4.78
898.832	109.22
899.003	72.36
899.173	27.31
899.343	2.73
899.513	35.5
