Data from USB4F104151__141__11-08-10-532.txt Node

Date: Wed Mar 12 11:08:10 EDT 2025
User: louis
Spectrometer: USB4F10415
Trigger mode: 4
Integration Time (sec): 2.000000E-2
Scans to average: 1
Electric dark correction enabled: true
Nonlinearity correction enabled: false
Boxcar width: 0
XAxis mode: Wavelengths
Number of Pixels in Spectrum: 3648
>>>>>Begin Spectral Data<<<<<
178.204	-107.18
178.424	-107.18
178.644	-107.18
178.864	-115.37
179.084	-146.09
179.304	-6.83
179.524	27.99
179.744	-6.83
179.964	50.52
180.184	38.23
180.404	-41.64
180.624	54.61
180.844	1.37
181.064	-68.27
181.283	-6.83
181.503	-45.74
181.723	3.41
181.943	-37.55
182.163	71
182.383	-0.68
182.602	50.52
182.822	5.46
183.042	-25.26
183.262	-51.88
183.482	44.37
183.701	17.75
183.921	-15.02
184.141	23.89
184.361	-41.64
184.58	52.56
184.8	-27.31
185.02	11.61
185.239	50.52
185.459	19.8
185.679	114
185.898	-51.88
186.118	30.04
186.338	44.37
186.557	111.96
186.777	-0.68
186.997	50.52
187.216	48.47
187.436	36.18
187.655	40.28
187.875	27.99
188.095	62.8
188.314	54.61
188.534	17.75
188.753	11.61
188.973	3.41
189.192	87.38
189.412	15.7
189.631	-8.87
189.851	-82.6
190.07	89.43
190.29	44.37
190.509	-47.79
190.729	13.65
190.948	30.04
191.168	118.1
191.387	-15.02
191.607	3.41
191.826	27.99
192.045	19.8
192.265	62.8
192.484	-2.73
192.704	-2.73
192.923	19.8
193.142	17.75
193.362	21.85
193.581	1.37
193.8	32.08
194.02	30.04
194.239	-55.98
194.458	77.14
194.678	54.61
194.897	-35.5
195.116	66.9
195.335	60.76
195.555	-35.5
195.774	32.08
195.993	36.18
196.212	9.56
196.432	1.37
196.651	54.61
196.87	5.46
197.089	58.71
197.308	21.85
197.528	-58.03
197.747	-0.68
197.966	17.75
198.185	9.56
198.404	-4.78
198.623	54.61
198.842	15.7
199.062	42.32
199.281	52.56
199.5	109.91
199.719	-29.35
199.938	68.95
200.157	13.65
200.376	68.95
200.595	34.13
200.814	87.38
201.033	-6.83
201.252	50.52
201.471	15.7
201.69	-4.78
201.909	17.75
202.128	77.14
202.347	19.8
202.566	-25.26
202.785	32.08
203.004	-4.78
203.223	42.32
203.442	36.18
203.661	27.99
203.879	48.47
204.098	48.47
204.317	25.94
204.536	52.56
204.755	15.7
204.974	19.8
205.193	68.95
205.411	77.14
205.63	13.65
205.849	99.67
206.068	-49.83
206.287	50.52
206.505	9.56
206.724	17.75
206.943	58.71
207.162	42.32
207.381	75.09
207.599	-23.21
207.818	73.04
208.037	32.08
208.255	52.56
208.474	11.61
208.693	-10.92
208.911	7.51
209.13	36.18
209.349	66.9
209.567	1.37
209.786	60.76
210.005	44.37
210.223	5.46
210.442	19.8
210.661	34.13
210.879	23.89
211.098	60.76
211.316	-2.73
211.535	-74.41
211.753	-49.83
211.972	46.42
212.191	-27.31
212.409	66.9
212.628	9.56
212.846	-6.83
213.065	50.52
213.283	23.89
213.502	1.37
213.72	25.94
213.938	25.94
214.157	-0.68
214.375	9.56
214.594	77.14
214.812	19.8
215.031	97.62
215.249	50.52
215.467	7.51
215.686	54.61
215.904	1.37
216.122	46.42
216.341	62.8
216.559	-10.92
216.778	73.04
216.996	34.13
217.214	44.37
217.432	42.32
217.651	40.28
217.869	34.13
218.087	25.94
218.306	30.04
218.524	71
218.742	-8.87
218.96	-2.73
219.179	30.04
219.397	60.76
219.615	73.04
219.833	66.9
220.051	54.61
220.27	7.51
220.488	25.94
220.706	38.23
220.924	60.76
221.142	9.56
221.36	3.41
221.578	25.94
221.796	25.94
222.015	-6.83
222.233	89.43
222.451	25.94
222.669	-0.68
222.887	13.65
223.105	-6.83
223.323	-0.68
223.541	17.75
223.759	27.99
223.977	-12.97
224.195	46.42
224.413	9.56
224.631	38.23
224.849	-12.97
225.067	66.9
225.285	-49.83
225.503	9.56
225.721	15.7
225.939	-21.16
226.157	5.46
226.375	64.85
226.592	68.95
226.81	36.18
227.028	-29.35
227.246	34.13
227.464	19.8
227.682	79.19
227.9	44.37
228.117	146.77
228.335	25.94
228.553	50.52
228.771	3.41
228.989	-4.78
229.206	25.94
229.424	-0.68
229.642	-49.83
229.86	-25.26
230.077	64.85
230.295	48.47
230.513	46.42
230.731	48.47
230.948	48.47
231.166	34.13
231.384	87.38
231.601	9.56
231.819	87.38
232.037	3.41
232.254	23.89
232.472	13.65
232.689	9.56
232.907	87.38
233.125	25.94
233.342	93.52
233.56	11.61
233.777	38.23
233.995	13.65
234.213	42.32
234.43	7.51
234.648	-31.4
234.865	50.52
235.083	-0.68
235.3	27.99
235.518	5.46
235.735	-2.73
235.953	99.67
236.17	17.75
236.388	-47.79
236.605	-31.4
236.822	87.38
237.04	79.19
237.257	15.7
237.475	-2.73
237.692	15.7
237.909	54.61
238.127	-0.68
238.344	71
238.562	21.85
238.779	52.56
238.996	32.08
239.214	15.7
239.431	-58.03
239.648	19.8
239.865	58.71
240.083	60.76
240.3	-17.07
240.517	40.28
240.735	56.66
240.952	99.67
241.169	-25.26
241.386	19.8
241.603	25.94
241.821	9.56
242.038	40.28
242.255	34.13
242.472	-10.92
242.689	52.56
242.907	124.24
243.124	1.37
243.341	23.89
243.558	-25.26
243.775	-12.97
243.992	1.37
244.209	120.15
244.426	21.85
244.643	38.23
244.86	15.7
245.078	83.28
245.295	-25.26
245.512	15.7
245.729	1.37
245.946	56.66
246.163	17.75
246.38	54.61
246.597	56.66
246.814	9.56
247.031	62.8
247.248	25.94
247.464	62.8
247.681	105.81
247.898	54.61
248.115	48.47
248.332	-2.73
248.549	122.2
248.766	58.71
248.983	62.8
249.2	50.52
249.417	38.23
249.633	52.56
249.85	87.38
250.067	46.42
250.284	19.8
250.501	7.51
250.717	-23.21
250.934	-23.21
251.151	-12.97
251.368	21.85
251.585	68.95
251.801	56.66
252.018	34.13
252.235	95.57
252.451	-17.07
252.668	11.61
252.885	3.41
253.102	30.04
253.318	58.71
253.535	-12.97
253.752	5.46
253.968	13.65
254.185	15.7
254.401	46.42
254.618	58.71
254.835	-0.68
255.051	109.91
255.268	44.37
255.484	13.65
255.701	60.76
255.917	-10.92
256.134	9.56
256.351	75.09
256.567	-8.87
256.784	9.56
257	-10.92
257.217	-43.69
257.433	79.19
257.65	1.37
257.866	-33.45
258.082	27.99
258.299	3.41
258.515	44.37
258.732	-2.73
258.948	52.56
259.165	-4.78
259.381	48.47
259.597	1.37
259.814	40.28
260.03	38.23
260.246	13.65
260.463	40.28
260.679	99.67
260.895	46.42
261.112	62.8
261.328	7.51
261.544	66.9
261.761	56.66
261.977	68.95
262.193	5.46
262.409	93.52
262.626	5.46
262.842	48.47
263.058	54.61
263.274	89.43
263.49	46.42
263.707	23.89
263.923	-8.87
264.139	25.94
264.355	40.28
264.571	81.24
264.787	36.18
265.004	85.33
265.22	85.33
265.436	50.52
265.652	87.38
265.868	23.89
266.084	3.41
266.3	7.51
266.516	-19.11
266.732	-2.73
266.948	64.85
267.164	38.23
267.38	-17.07
267.596	46.42
267.812	-27.31
268.028	-6.83
268.244	9.56
268.46	46.42
268.676	-25.26
268.892	54.61
269.108	36.18
269.324	1.37
269.54	-45.74
269.756	32.08
269.972	-74.41
270.188	54.61
270.403	7.51
270.619	93.52
270.835	36.18
271.051	13.65
271.267	122.2
271.483	50.52
271.698	36.18
271.914	23.89
272.13	38.23
272.346	27.99
272.562	77.14
272.777	42.32
272.993	50.52
273.209	75.09
273.425	21.85
273.64	81.24
273.856	17.75
274.072	15.7
274.287	50.52
274.503	52.56
274.719	15.7
274.934	-23.21
275.15	-15.02
275.366	46.42
275.581	-15.02
275.797	36.18
276.012	-23.21
276.228	17.75
276.444	-0.68
276.659	73.04
276.875	17.75
277.09	21.85
277.306	23.89
277.521	101.72
277.737	-23.21
277.952	15.7
278.168	54.61
278.383	50.52
278.599	-2.73
278.814	81.24
279.03	13.65
279.245	114
279.461	68.95
279.676	87.38
279.892	7.51
280.107	-53.93
280.322	-41.64
280.538	9.56
280.753	44.37
280.969	-19.11
281.184	71
281.399	146.77
281.615	79.19
281.83	52.56
282.045	25.94
282.26	-27.31
282.476	32.08
282.691	-15.02
282.906	-25.26
283.122	-8.87
283.337	-19.11
283.552	-0.68
283.767	5.46
283.983	36.18
284.198	68.95
284.413	83.28
284.628	19.8
284.843	52.56
285.058	11.61
285.274	27.99
285.489	40.28
285.704	64.85
285.919	30.04
286.134	-35.5
286.349	-17.07
286.564	-4.78
286.779	32.08
286.995	21.85
287.21	-35.5
287.425	-0.68
287.64	5.46
287.855	68.95
288.07	17.75
288.285	118.1
288.5	25.94
288.715	-33.45
288.93	30.04
289.145	25.94
289.36	64.85
289.575	103.76
289.79	27.99
290.004	87.38
290.219	66.9
290.434	19.8
290.649	-12.97
290.864	1.37
291.079	50.52
291.294	25.94
291.509	58.71
291.724	7.51
291.938	46.42
292.153	62.8
292.368	30.04
292.583	32.08
292.798	11.61
293.012	42.32
293.227	50.52
293.442	3.41
293.657	66.9
293.871	111.96
294.086	73.04
294.301	34.13
294.516	21.85
294.73	89.43
294.945	34.13
295.16	-10.92
295.374	23.89
295.589	95.57
295.804	38.23
296.018	36.18
296.233	-12.97
296.447	89.43
296.662	30.04
296.877	66.9
297.091	50.52
297.306	30.04
297.52	77.14
297.735	19.8
297.949	-39.59
298.164	15.7
298.378	56.66
298.593	46.42
298.807	25.94
299.022	-6.83
299.236	126.29
299.451	46.42
299.665	21.85
299.88	-8.87
300.094	40.28
300.309	144.72
300.523	40.28
300.737	36.18
300.952	85.33
301.166	1.37
301.381	21.85
301.595	27.99
301.809	36.18
302.024	50.52
302.238	66.9
302.452	-31.4
302.667	30.04
302.881	54.61
303.095	17.75
303.309	50.52
303.524	5.46
303.738	48.47
303.952	95.57
304.166	54.61
304.381	34.13
304.595	58.71
304.809	-19.11
305.023	87.38
305.237	30.04
305.452	-0.68
305.666	-2.73
305.88	27.99
306.094	75.09
306.308	34.13
306.522	13.65
306.736	54.61
306.95	50.52
307.164	11.61
307.379	50.52
307.593	21.85
307.807	25.94
308.021	1.37
308.235	56.66
308.449	46.42
308.663	68.95
308.877	77.14
309.091	-12.97
309.305	71
309.519	25.94
309.733	48.47
309.947	17.75
310.161	81.24
310.374	-27.31
310.588	64.85
310.802	48.47
311.016	27.99
311.23	114
311.444	5.46
311.658	-29.35
311.872	136.53
312.085	-23.21
312.299	60.76
312.513	-39.59
312.727	32.08
312.941	-29.35
313.154	42.32
313.368	64.85
313.582	19.8
313.796	42.32
314.009	3.41
314.223	15.7
314.437	64.85
314.651	42.32
314.864	-8.87
315.078	-21.16
315.292	-21.16
315.505	56.66
315.719	75.09
315.933	-2.73
316.146	7.51
316.36	-10.92
316.573	-4.78
316.787	79.19
317.001	5.46
317.214	-31.4
317.428	46.42
317.641	64.85
317.855	17.75
318.068	13.65
318.282	77.14
318.495	44.37
318.709	54.61
318.922	-2.73
319.136	62.8
319.349	62.8
319.563	36.18
319.776	34.13
319.99	25.94
320.203	-2.73
320.417	40.28
320.63	75.09
320.843	152.92
321.057	56.66
321.27	62.8
321.483	91.48
321.697	11.61
321.91	17.75
322.124	32.08
322.337	79.19
322.55	34.13
322.763	75.09
322.977	19.8
323.19	27.99
323.403	15.7
323.617	1.37
323.83	23.89
324.043	-31.4
324.256	83.28
324.469	19.8
324.683	-35.5
324.896	-10.92
325.109	79.19
325.322	13.65
325.535	3.41
325.748	114
325.962	46.42
326.175	77.14
326.388	38.23
326.601	122.2
326.814	38.23
327.027	50.52
327.24	-21.16
327.453	23.89
327.666	50.52
327.879	40.28
328.092	58.71
328.305	79.19
328.518	11.61
328.731	13.65
328.944	-19.11
329.157	44.37
329.37	17.75
329.583	48.47
329.796	148.82
330.009	-4.78
330.222	52.56
330.435	71
330.648	71
330.861	34.13
331.073	-4.78
331.286	36.18
331.499	17.75
331.712	-49.83
331.925	46.42
332.138	56.66
332.35	-10.92
332.563	-4.78
332.776	42.32
332.989	13.65
333.202	91.48
333.414	66.9
333.627	32.08
333.84	58.71
334.053	140.63
334.265	21.85
334.478	68.95
334.691	52.56
334.903	9.56
335.116	97.62
335.329	116.05
335.541	19.8
335.754	62.8
335.966	7.51
336.179	5.46
336.392	71
336.604	17.75
336.817	118.1
337.029	32.08
337.242	38.23
337.454	66.9
337.667	-4.78
337.88	68.95
338.092	27.99
338.305	62.8
338.517	-8.87
338.729	60.76
338.942	46.42
339.154	77.14
339.367	-31.4
339.579	71
339.792	-19.11
340.004	68.95
340.217	-27.31
340.429	81.24
340.641	64.85
340.854	109.91
341.066	34.13
341.278	42.32
341.491	42.32
341.703	54.61
341.915	-4.78
342.128	17.75
342.34	-12.97
342.552	23.89
342.764	36.18
342.977	60.76
343.189	9.56
343.401	79.19
343.613	-6.83
343.826	15.7
344.038	-37.55
344.25	54.61
344.462	40.28
344.674	75.09
344.886	11.61
345.099	111.96
345.311	56.66
345.523	34.13
345.735	62.8
345.947	44.37
346.159	44.37
346.371	19.8
346.583	17.75
346.795	36.18
347.007	46.42
347.219	58.71
347.431	62.8
347.643	52.56
347.855	13.65
348.067	9.56
348.279	34.13
348.491	114
348.703	25.94
348.915	83.28
349.127	21.85
349.339	-2.73
349.551	-10.92
349.763	95.57
349.975	-2.73
350.187	30.04
350.399	40.28
350.61	32.08
350.822	40.28
351.034	32.08
351.246	-19.11
351.458	140.63
351.669	9.56
351.881	-27.31
352.093	25.94
352.305	34.13
352.517	9.56
352.728	95.57
352.94	42.32
353.152	75.09
353.363	27.99
353.575	-12.97
353.787	87.38
353.999	44.37
354.21	38.23
354.422	27.99
354.633	19.8
354.845	50.52
355.057	3.41
355.268	60.76
355.48	9.56
355.692	-10.92
355.903	52.56
356.115	56.66
356.326	30.04
356.538	71
356.749	64.85
356.961	107.86
357.172	42.32
357.384	-15.02
357.595	83.28
357.807	-6.83
358.018	54.61
358.23	25.94
358.441	54.61
358.653	44.37
358.864	64.85
359.075	46.42
359.287	-2.73
359.498	44.37
359.709	13.65
359.921	-23.21
360.132	46.42
360.344	48.47
360.555	3.41
360.766	36.18
360.977	23.89
361.189	50.52
361.4	54.61
361.611	23.89
361.823	50.52
362.034	109.91
362.245	77.14
362.456	71
362.667	32.08
362.879	15.7
363.09	30.04
363.301	77.14
363.512	56.66
363.723	1.37
363.935	-35.5
364.146	-8.87
364.357	21.85
364.568	62.8
364.779	-15.02
364.99	32.08
365.201	68.95
365.412	79.19
365.623	-4.78
365.834	-4.78
366.045	30.04
366.256	105.81
366.467	62.8
366.678	58.71
366.889	23.89
367.1	85.33
367.311	101.72
367.522	27.99
367.733	7.51
367.944	107.86
368.155	32.08
368.366	30.04
368.577	-0.68
368.788	44.37
368.999	105.81
369.209	93.52
369.42	99.67
369.631	71
369.842	73.04
370.053	130.39
370.264	27.99
370.474	73.04
370.685	68.95
370.896	83.28
371.107	54.61
371.317	9.56
371.528	11.61
371.739	62.8
371.95	99.67
372.16	89.43
372.371	64.85
372.582	30.04
372.792	-2.73
373.003	83.28
373.214	85.33
373.424	-23.21
373.635	25.94
373.846	40.28
374.056	23.89
374.267	60.76
374.477	54.61
374.688	21.85
374.898	91.48
375.109	5.46
375.319	-15.02
375.53	95.57
375.74	62.8
375.951	64.85
376.161	50.52
376.372	15.7
376.582	42.32
376.793	60.76
377.003	54.61
377.214	60.76
377.424	71
377.635	46.42
377.845	34.13
378.055	87.38
378.266	150.87
378.476	36.18
378.686	46.42
378.897	91.48
379.107	62.8
379.317	62.8
379.528	25.94
379.738	50.52
379.948	116.05
380.158	5.46
380.369	30.04
380.579	34.13
380.789	11.61
380.999	34.13
381.21	42.32
381.42	97.62
381.63	34.13
381.84	-0.68
382.05	58.71
382.261	42.32
382.471	83.28
382.681	23.89
382.891	77.14
383.101	34.13
383.311	93.52
383.521	64.85
383.731	58.71
383.941	91.48
384.151	-2.73
384.361	91.48
384.571	99.67
384.781	124.24
384.991	71
385.201	58.71
385.411	81.24
385.621	77.14
385.831	75.09
386.041	66.9
386.251	5.46
386.461	120.15
386.671	-0.68
386.881	66.9
387.091	7.51
387.301	23.89
387.511	38.23
387.72	124.24
387.93	-17.07
388.14	1.37
388.35	103.76
388.56	89.43
388.769	62.8
388.979	-17.07
389.189	91.48
389.399	7.51
389.609	42.32
389.818	87.38
390.028	81.24
390.238	60.76
390.447	34.13
390.657	46.42
390.867	85.33
391.076	68.95
391.286	23.89
391.496	34.13
391.705	42.32
391.915	85.33
392.125	95.57
392.334	50.52
392.544	122.2
392.753	48.47
392.963	1.37
393.172	77.14
393.382	52.56
393.591	66.9
393.801	81.24
394.01	95.57
394.22	73.04
394.429	101.72
394.639	56.66
394.848	44.37
395.058	111.96
395.267	83.28
395.477	99.67
395.686	214.35
395.895	124.24
396.105	89.43
396.314	83.28
396.524	144.72
396.733	77.14
396.942	34.13
397.152	193.87
397.361	114
397.57	95.57
397.78	83.28
397.989	60.76
398.198	105.81
398.407	46.42
398.617	83.28
398.826	109.91
399.035	140.63
399.244	138.58
399.453	97.62
399.663	79.19
399.872	75.09
400.081	103.76
400.29	93.52
400.499	-4.78
400.708	126.29
400.917	56.66
401.127	60.76
401.336	91.48
401.545	120.15
401.754	107.86
401.963	109.91
402.172	91.48
402.381	136.53
402.59	146.77
402.799	34.13
403.008	109.91
403.217	116.05
403.426	40.28
403.635	81.24
403.844	118.1
404.053	124.24
404.262	25.94
404.471	234.83
404.68	142.68
404.888	161.11
405.097	126.29
405.306	200.02
405.515	175.44
405.724	132.44
405.933	163.15
406.142	202.07
406.35	216.4
406.559	269.65
406.768	204.11
406.977	206.16
407.185	210.26
407.394	259.41
407.603	140.63
407.812	189.78
408.02	173.39
408.229	240.98
408.438	134.48
408.646	161.11
408.855	251.22
409.064	314.7
409.272	220.5
409.481	283.99
409.69	234.83
409.898	312.66
410.107	265.55
410.315	292.18
410.524	310.61
410.733	320.85
410.941	351.57
411.15	275.79
411.358	378.19
411.567	386.38
411.775	365.9
411.984	451.92
412.192	376.14
412.401	367.95
412.609	451.92
412.818	443.73
413.026	421.2
413.234	429.39
413.443	554.32
413.651	453.97
413.86	503.12
414.068	570.7
414.276	570.7
414.485	511.31
414.693	626
414.901	638.28
415.11	640.33
415.318	572.75
415.526	640.33
415.734	648.52
415.943	726.35
416.151	783.69
416.359	818.5
416.567	804.17
416.776	867.66
416.984	869.7
417.192	927.05
417.4	939.34
417.608	1027.4
417.817	949.57
418.025	1004.87
418.233	1072.45
418.441	1008.97
418.649	1103.17
418.857	1213.76
419.065	1328.45
419.273	1103.17
419.481	1185.09
419.689	1387.84
419.897	1301.83
420.105	1486.14
420.313	1426.75
420.521	1527.1
420.729	1484.09
420.937	1584.45
421.145	1643.84
421.353	1629.5
421.561	1809.72
421.769	1862.97
421.977	1817.91
422.185	1885.5
422.393	1926.46
422.601	2159.92
422.809	2055.48
423.017	2174.26
423.224	2313.52
423.432	2274.61
423.64	2368.82
423.848	2465.07
424.056	2463.02
424.263	2694.44
424.471	2671.92
424.679	2680.11
424.887	2741.55
425.094	2895.15
425.302	2938.15
425.51	3032.36
425.718	3167.53
425.925	3200.29
426.133	3265.83
426.341	3441.95
426.548	3708.19
426.756	3671.33
426.964	3712.28
427.171	3898.65
427.379	3984.66
427.586	4035.86
427.794	4070.68
428.001	4209.94
428.209	4531.47
428.417	4414.74
428.624	4750.6
428.832	4711.69
429.039	4754.7
429.247	4689.17
429.454	5354.76
429.662	5451.01
429.869	5195.01
430.076	5655.81
430.284	5467.39
430.491	5704.96
430.699	5897.47
430.906	5911.8
431.114	6081.78
431.321	6268.15
431.528	6372.6
431.736	6759.66
431.943	7175.4
432.15	6937.84
432.358	6915.31
432.565	7294.18
432.772	7324.9
432.979	7558.37
433.187	7709.92
433.394	7648.48
433.601	8457.43
433.808	8453.33
434.016	8269.02
434.223	8783.06
434.43	9241.8
434.637	9284.81
434.844	9796.8
435.052	10060.99
435.259	9628.87
435.466	9919.68
435.673	9751.74
435.88	10394.81
436.087	11115.69
436.294	11132.08
436.501	10564.79
436.708	10972.33
436.915	11392.17
437.122	11670.69
437.329	11758.75
437.537	12215.45
437.743	12203.16
437.95	12332.19
438.157	12831.89
438.364	13200.52
438.571	13157.52
438.778	13497.48
438.985	14750.84
439.192	13997.18
439.399	14574.71
439.606	13972.61
439.813	14894.19
440.02	15621.22
440.227	15389.8
440.433	15342.7
440.64	15899.75
440.847	15887.46
441.054	16057.44
441.261	17495.11
441.467	16927.83
441.674	17380.43
441.881	17876.04
442.088	18062.4
442.294	17976.39
442.501	18273.34
442.708	18740.28
442.914	19530.8
443.121	20143.14
443.328	19780.65
443.534	21113.88
443.741	20728.86
443.948	19973.16
444.154	21842.95
444.361	21523.47
444.568	21769.23
444.774	21822.47
444.981	21910.53
445.187	22318.08
445.394	23620.59
445.6	23116.79
445.807	25357.27
446.013	24538.08
446.22	24701.92
446.426	25859.02
446.633	26022.86
446.839	26762.17
447.046	25797.58
447.252	27087.8
447.459	26950.59
447.665	27167.67
447.871	28220.33
448.078	29252.5
448.284	28003.24
448.491	28861.34
448.697	29784.97
448.903	30495.62
449.11	30604.16
449.316	29918.09
449.522	30288.78
449.728	31148.92
449.935	31325.05
450.141	31400.82
450.347	32050.03
450.553	30968.7
450.76	31349.62
450.966	32775.01
451.172	32271.21
451.378	32865.12
451.584	32488.29
451.791	32955.23
451.997	32918.37
452.203	33200.99
452.409	33180.51
452.615	32942.94
452.821	31933.29
453.027	31671.15
453.233	33039.2
453.44	31734.64
453.646	32119.66
453.852	32043.88
454.058	33137.5
454.264	31888.24
454.47	32236.39
454.676	31695.73
454.882	32846.69
455.088	29987.72
455.294	30399.37
455.5	30524.29
455.705	31267.7
455.911	30002.06
456.117	29371.29
456.323	28623.78
456.529	27433.91
456.735	28105.64
456.941	27540.4
457.147	27253.69
457.352	26371.01
457.558	26031.05
457.764	26162.12
457.97	25861.07
458.176	25177.05
458.381	25199.57
458.587	23632.88
458.793	23741.42
458.999	22522.88
459.204	24507.36
459.41	23634.92
459.616	21949.45
459.821	21830.66
460.027	22109.19
460.233	21595.15
460.438	20134.95
460.644	20706.33
460.85	19690.54
461.055	19479.6
461.261	19274.8
461.466	18033.73
461.672	17468.49
461.878	18697.27
462.083	17302.61
462.289	17142.86
462.494	16782.42
462.7	16419.93
462.905	16006.24
463.111	16378.97
463.316	16395.36
463.522	16086.11
463.727	16305.24
463.932	15957.09
464.138	15561.83
464.343	15512.68
464.549	15500.39
464.754	15823.97
464.959	15895.65
465.165	15633.51
465.37	14945.39
465.575	14677.11
465.781	15223.92
465.986	15463.53
466.191	14580.85
466.397	14421.11
466.602	13655.17
466.807	14324.86
467.012	14359.67
467.218	14214.27
467.423	14115.97
467.628	14347.39
467.833	14513.27
468.038	14441.59
468.244	13679.75
468.449	14386.3
468.654	13960.32
468.859	13808.77
469.064	13575.3
469.269	13094.03
469.474	13606.02
469.679	13575.3
469.885	13182.09
470.09	13180.04
470.295	13214.86
470.5	13081.74
470.705	13085.84
470.91	12752.02
471.115	12364.95
471.32	12567.7
471.525	12526.74
471.73	12407.96
471.935	12303.51
472.139	11961.5
472.344	12029.09
472.549	11924.64
472.754	11836.58
472.959	11762.85
473.164	11377.83
473.369	11234.47
473.574	11588.77
473.778	11349.16
473.983	11314.34
474.188	11330.73
474.393	10890.42
474.598	10824.88
474.802	10634.42
475.007	10902.7
475.212	10790.06
475.417	10269.88
475.621	10233.02
475.826	10269.88
476.031	10359.99
476.235	10093.76
476.44	10034.36
476.645	9784.51
476.849	9845.95
477.054	9596.1
477.259	9772.22
477.463	9610.43
477.668	9360.58
477.872	9475.27
478.077	9483.46
478.282	9180.36
478.486	9139.4
478.691	9241.8
478.895	9219.27
479.1	8838.35
479.304	8944.84
479.509	8670.42
479.713	8682.7
479.918	8643.79
480.122	8350.93
480.326	8563.92
480.531	8694.99
480.735	8469.72
480.94	8492.24
481.144	8717.52
481.348	8344.79
481.553	8486.1
481.757	8420.56
481.961	8441.04
482.166	8436.95
482.37	8629.46
482.574	8318.17
482.778	8471.76
482.983	8559.83
483.187	8449.24
483.391	8305.88
483.595	8269.02
483.8	8203.48
484.004	8322.26
484.208	8262.87
484.412	8254.68
484.616	8215.77
484.821	8238.3
485.025	8068.31
485.229	8254.68
485.433	8307.93
485.637	8350.93
485.841	8387.8
486.045	8228.06
486.249	8221.91
486.453	8164.57
486.657	8262.87
486.861	8365.27
487.065	8180.95
487.269	8395.99
487.473	8174.81
487.677	8371.41
487.881	8377.56
488.085	8250.58
488.289	8479.96
488.493	8162.52
488.697	8522.96
488.901	8361.17
489.105	8275.16
489.309	8391.89
489.512	8418.52
489.716	8443.09
489.92	8537.3
490.124	8320.21
490.328	8537.3
490.531	8422.61
490.735	8443.09
490.939	8549.59
491.143	8453.33
491.346	8584.4
491.55	8670.42
491.754	8654.03
491.958	8727.76
492.161	8770.77
492.365	8830.16
492.569	8783.06
492.772	8846.54
492.976	8963.28
493.18	8864.97
493.383	9016.52
493.587	9057.48
493.79	9055.44
493.994	9120.97
494.197	9049.29
494.401	9190.6
494.605	9286.86
494.808	9518.28
495.012	9422.02
495.215	9340.1
495.419	9784.51
495.622	9649.35
495.825	9620.67
496.029	9780.42
496.232	9821.38
496.436	9700.55
496.639	9944.25
496.843	9905.34
497.046	10198.2
497.249	10325.18
497.453	10355.9
497.656	10394.81
497.859	10607.8
498.063	10476.73
498.266	10798.26
498.469	10732.72
498.673	10962.09
498.876	10974.38
499.079	10984.62
499.282	11199.66
499.485	11400.36
499.689	11332.78
499.892	11680.93
500.095	11455.65
500.298	12061.85
500.501	11742.37
500.705	12280.99
500.908	12235.93
501.111	12446.87
501.314	12694.68
501.517	12524.69
501.72	12948.62
501.923	12842.13
502.126	13143.18
502.329	13384.84
502.532	13526.15
502.735	13339.79
502.938	13419.66
503.141	13689.99
503.344	13651.08
503.547	13882.5
503.75	14072.96
503.953	14244.99
504.156	14412.92
504.359	14478.46
504.562	15002.74
504.765	15142
504.968	15027.31
505.17	15256.68
505.373	15363.18
505.576	15815.78
505.779	15973.47
505.982	15828.07
506.185	16510.04
506.387	16372.83
506.59	16534.62
506.793	16794.71
506.996	16696.41
507.198	17140.82
507.401	17013.84
507.604	17341.52
507.807	17476.68
508.009	17886.28
508.212	17861.7
508.415	18074.69
508.617	18381.88
508.82	18603.07
509.022	18209.86
509.225	18949.17
509.428	18936.88
509.63	18926.64
509.833	19239.98
510.035	19555.37
510.238	19600.43
510.44	19668.01
510.643	20175.91
510.845	20347.93
511.048	20284.45
511.25	20517.92
511.453	20595.74
511.655	21330.96
511.858	21134.35
512.06	21337.1
512.262	21433.36
512.465	21783.56
512.667	21779.46
512.87	22123.52
513.072	22289.41
513.274	22780.92
513.477	22651.9
513.679	22928.38
513.881	23307.25
514.084	23411.7
514.286	23524.33
514.488	23618.54
514.69	24585.18
514.893	24267.75
515.095	24224.74
515.297	24685.53
515.499	24699.87
515.701	24900.57
515.904	25332.69
516.106	25680.85
516.308	25889.74
516.51	26186.69
516.712	26106.82
516.914	26112.97
517.116	27208.63
517.318	27083.7
517.52	27100.09
517.722	27163.57
517.925	27632.56
518.127	27898.8
518.329	28095.4
518.531	28179.37
518.733	28615.58
518.935	28908.44
519.136	28687.26
519.338	29338.52
519.54	29447.06
519.742	29995.92
519.944	29887.37
520.146	30524.29
520.348	30405.51
520.55	30407.56
520.752	30684.03
520.954	31155.07
521.155	31150.97
521.357	31458.17
521.559	31746.93
521.761	32093.04
521.963	32123.76
522.164	32269.16
522.366	32312.17
522.568	32703.33
522.77	32940.89
522.971	33669.97
523.173	33379.16
523.375	33760.08
523.576	33563.48
523.778	34075.47
523.98	33897.3
524.181	34085.71
524.383	34218.83
524.584	34642.76
524.786	34863.94
524.988	35171.13
525.189	34992.96
525.391	35144.51
525.592	35832.63
525.794	35857.2
525.995	35810.1
526.197	35619.64
526.398	35963.7
526.6	35961.65
526.801	36469.54
527.003	36782.88
527.204	36567.85
527.406	37108.51
527.607	37083.94
527.808	37493.53
528.01	36608.81
528.211	37090.08
528.412	38023.95
528.614	37305.12
528.815	37309.21
529.016	38193.93
529.218	37784.34
529.419	37552.92
529.62	37880.6
529.822	37964.56
530.023	38005.52
530.224	38032.14
530.425	38187.79
530.626	37966.61
530.828	37909.27
531.029	38853.38
531.23	38413.07
531.431	38349.58
531.632	38640.39
531.833	38556.42
532.035	38368.01
532.236	38779.65
532.437	38918.92
532.638	38558.47
532.839	38918.92
533.04	38847.24
533.241	38441.74
533.442	39379.71
533.643	38916.87
533.844	39312.13
534.045	39275.26
534.246	39066.37
534.447	39406.33
534.648	39021.31
534.849	39025.41
535.05	38648.58
535.251	39064.32
535.451	39172.86
535.652	39420.67
535.853	39502.59
536.054	38918.92
536.255	39211.77
536.456	38691.59
536.657	39377.66
536.857	38902.53
537.058	39453.44
537.259	39009.03
537.46	39201.54
537.66	39152.38
537.861	39742.2
538.062	39027.46
538.263	39258.88
538.463	38931.2
538.664	39097.09
538.865	39199.49
539.065	39772.92
539.266	38859.52
539.466	39684.86
539.667	38732.55
539.868	39594.75
540.068	39430.91
540.269	39041.79
540.469	39897.84
540.67	38816.52
540.87	38898.44
541.071	39176.96
541.271	39514.87
541.472	39217.92
541.672	39080.7
541.873	39041.79
542.073	38550.28
542.274	39103.23
542.474	39054.08
542.675	38671.11
542.875	39353.08
543.075	39156.48
543.276	38685.45
543.476	39348.99
543.676	38732.55
543.877	39224.06
544.077	38667.02
544.277	39035.65
544.478	39230.21
544.678	38943.49
544.878	38880
545.078	39287.55
545.279	38757.13
545.479	38867.72
545.679	38937.35
545.879	39287.55
546.079	38818.56
546.28	38822.66
546.48	38310.67
546.68	38918.92
546.88	38800.13
547.08	39068.42
547.28	39107.33
547.48	38277.9
547.68	38765.32
547.88	38656.78
548.081	38898.44
548.281	38492.94
548.481	38857.48
548.681	39076.61
548.881	38654.73
549.081	38703.88
549.28	38568.71
549.48	38576.9
549.68	39084.8
549.88	38882.05
550.08	38773.51
550.28	38642.44
550.48	38691.59
550.68	38968.07
550.88	38654.73
551.08	38191.89
551.279	38595.34
551.479	38314.76
551.679	38593.29
551.879	38591.24
552.079	38595.34
552.278	38288.14
552.478	38390.54
552.678	38652.68
552.878	38417.16
553.077	38447.88
553.277	38034.19
553.477	38707.97
553.676	38423.31
553.876	38161.17
554.076	37948.18
554.275	37759.77
554.475	37868.31
554.674	38572.81
554.874	38523.66
555.074	37985.04
555.273	38009.62
555.473	38306.57
555.672	37712.66
555.872	38132.5
556.071	38288.14
556.271	38609.67
556.47	38034.19
556.67	37698.33
556.869	37518.1
557.068	38138.64
557.268	37522.2
557.467	37610.26
557.667	37190.43
557.866	37577.5
558.065	37815.06
558.265	37350.17
558.464	37399.32
558.663	37530.39
558.863	37350.17
559.062	37702.42
559.261	36991.78
559.461	37655.32
559.66	36797.22
559.859	37118.75
560.058	37169.95
560.258	36985.63
560.457	36500.26
560.656	37131.04
560.855	36395.82
561.054	36877.09
561.253	36680.49
561.453	36567.85
561.652	36770.6
561.851	36870.95
562.05	36344.62
562.249	36330.28
562.448	36657.96
562.647	36215.6
562.846	36315.95
563.045	36330.28
563.244	36027.18
563.443	36387.63
563.642	35593.01
563.841	36039.47
564.04	35455.8
564.239	35967.79
564.438	35642.17
564.637	35617.59
564.836	35392.31
565.035	35183.42
565.234	35273.53
565.432	35380.03
565.631	35076.93
565.83	35463.99
566.029	34745.16
566.228	34988.86
566.427	35103.55
566.625	34417.48
566.824	34564.93
567.023	34990.91
567.222	33952.59
567.42	35029.82
567.619	34577.22
567.818	34493.25
568.016	34153.29
568.215	34622.28
568.414	34270.03
568.612	34663.24
568.811	33858.38
569.01	34009.93
569.208	33590.1
569.407	34212.68
569.605	33586
569.804	33870.67
570.002	33389.4
570.201	33522.52
570.4	33313.62
570.598	33299.29
570.797	32758.63
570.995	33217.37
571.193	32916.32
571.392	33426.26
571.59	32697.19
571.789	33117.02
571.987	32664.42
572.186	32740.19
572.384	32621.41
572.582	32602.98
572.781	32770.91
572.979	32164.71
573.177	32240.49
573.376	32240.49
573.574	31779.7
573.772	32344.94
573.971	32033.64
574.169	31591.28
574.367	31669.11
574.565	31843.18
574.763	31359.86
574.962	31689.59
575.16	31069.05
575.358	31476.6
575.556	31204.22
575.754	31771.5
575.952	30925.69
576.151	31429.49
576.349	30862.21
576.547	30837.63
576.745	31050.62
576.943	30935.93
577.141	30806.91
577.339	30811.01
577.537	30501.76
577.735	30262.15
577.933	30223.24
578.131	30430.08
578.329	30139.27
578.527	30096.27
578.725	30034.83
578.923	30092.17
579.121	29774.73
579.319	29805.45
579.516	29664.14
579.714	29797.26
579.912	29791.12
580.11	29465.49
580.308	29731.73
580.506	29262.74
580.704	29162.39
580.901	29371.29
581.099	29475.73
581.297	29086.62
581.495	29105.05
581.692	29143.96
581.89	28683.17
582.088	28828.57
582.285	28908.44
582.483	28611.49
582.681	28482.47
582.878	28597.15
583.076	28179.37
583.274	28504.99
583.471	27929.52
583.669	28535.71
583.866	28040.11
584.064	28476.32
584.262	27773.87
584.459	27876.27
584.657	27675.57
584.854	28292.01
585.052	27351.99
585.249	27464.63
585.447	27538.35
585.644	27288.5
585.841	27302.84
586.039	27548.59
586.236	26958.78
586.434	27022.26
586.631	27245.49
586.828	26911.67
587.026	26534.85
587.223	27167.67
587.42	26801.08
587.618	26686.4
587.815	26266.56
588.012	26489.79
588.21	26637.25
588.407	26684.35
588.604	26356.68
588.801	26065.86
588.999	26024.9
589.196	25715.66
589.393	26147.78
589.59	25891.79
589.787	26094.54
589.984	25879.5
590.182	25666.51
590.379	25955.27
590.576	25250.77
590.773	25697.23
590.97	25412.56
591.167	25463.76
591.364	25175
591.561	25058.26
591.758	25170.9
591.955	24941.53
592.152	25224.15
592.349	24947.67
592.546	24964.06
592.743	24884.19
592.94	24525.79
593.137	24947.67
593.334	24712.16
593.531	24458.21
593.727	24660.96
593.924	24386.53
594.121	24247.27
594.318	24357.86
594.515	23968.74
594.712	24155.11
594.908	23892.97
595.105	23970.79
595.302	24015.85
595.499	23837.67
595.696	23892.97
595.892	23880.68
596.089	23731.18
596.286	23784.43
596.482	23524.33
596.679	23530.48
596.876	23528.43
597.072	23237.62
597.269	23219.19
597.466	22811.64
597.662	23065.59
597.859	22938.62
598.055	22858.74
598.252	22770.68
598.448	22621.18
598.645	22692.86
598.841	22670.33
599.038	22666.24
599.234	22690.81
599.431	22426.62
599.627	22662.14
599.824	22408.19
600.02	22180.87
600.217	22400
600.413	22092.8
600.609	22082.56
600.806	21969.93
601.002	21910.53
601.198	21783.56
601.395	21840.9
601.591	21488.65
601.787	21957.64
601.984	21775.37
602.18	21867.53
602.376	21314.58
602.572	21433.36
602.769	21496.85
602.965	20902.93
603.161	21232.66
603.357	21214.23
603.553	21249.04
603.75	21072.92
603.946	21109.78
604.142	20755.48
604.338	20780.06
604.534	21249.04
604.73	21009.43
604.926	20634.65
605.122	20806.68
605.318	20612.12
605.514	20560.92
605.71	20550.68
605.906	20476.96
606.102	20409.37
606.298	20190.24
606.494	20231.2
606.69	20286.5
606.886	20147.23
607.082	19926.05
607.278	20290.59
607.474	19651.63
607.67	19915.81
607.866	19594.28
608.062	19774.5
608.257	19926.05
608.453	19424.3
608.649	19821.61
608.845	19467.31
609.041	19487.79
609.236	19280.94
609.432	19522.6
609.628	19592.23
609.824	19446.83
610.019	19336.24
610.215	19186.74
610.411	19280.94
610.606	19090.48
610.802	19317.81
610.998	19356.72
611.193	19078.19
611.389	18818.1
611.584	19170.35
611.78	18981.94
611.976	18848.82
612.171	18840.63
612.367	18697.27
612.562	18945.08
612.758	18484.28
612.953	18660.41
613.149	18603.07
613.344	18766.9
613.539	18996.28
613.735	18590.78
613.93	18629.69
614.126	18484.28
614.321	18623.55
614.517	18586.68
614.712	18410.56
614.907	18365.5
615.103	18469.95
615.298	18461.76
615.493	18467.9
615.688	17742.92
615.884	18543.67
616.079	18168.9
616.274	18373.69
616.47	18080.83
616.665	18136.13
616.86	18050.11
617.055	17951.81
617.25	17900.61
617.445	18201.66
617.641	17658.95
617.836	18068.55
618.031	17835.08
618.226	17687.62
618.421	17548.36
618.616	17855.56
618.811	17499.21
619.006	17687.62
619.201	17497.16
619.396	17415.24
619.591	17251.41
619.786	17185.87
619.981	16991.31
620.176	17122.38
620.371	17097.81
620.566	16987.22
620.761	16931.92
620.956	17017.94
621.151	16907.35
621.346	16827.48
621.541	16460.89
621.735	16641.11
621.93	16419.93
622.125	16180.32
622.32	16165.98
622.515	16413.79
622.709	16348.25
622.904	16090.21
623.099	15920.23
623.294	16065.63
623.488	15545.45
623.683	15809.64
623.878	15789.16
624.072	15737.96
624.267	15645.8
624.462	15699.05
624.656	15260.78
624.851	15361.13
625.046	15236.2
625.24	15174.77
625.435	15047.79
625.629	15066.22
625.824	14916.72
626.018	15008.88
626.213	14394.49
626.407	14677.11
626.602	14351.48
626.796	14517.37
626.991	14310.52
627.185	14412.92
627.38	14292.09
627.574	14062.72
627.768	14150.78
627.963	14019.71
628.157	13880.45
628.352	13935.74
628.546	13862.02
628.74	13743.24
628.935	13735.04
629.129	13589.64
629.323	13337.74
629.517	13192.33
629.712	13175.95
629.906	13036.69
630.1	13012.11
630.294	13161.61
630.489	13003.92
630.683	13100.17
630.877	12770.45
631.071	12899.47
631.265	12897.42
631.459	12749.97
631.653	12764.31
631.848	12590.23
632.042	12385.43
632.236	12698.77
632.43	12397.72
632.624	12393.62
632.818	12328.09
633.012	12348.57
633.206	12127.39
633.4	12092.57
633.594	11799.71
633.788	12010.65
633.982	12117.15
634.176	11879.58
634.369	11820.19
634.563	11412.65
634.757	11590.82
634.951	11531.43
635.145	11521.19
635.339	11433.13
635.533	11480.23
635.726	11388.07
635.92	11467.94
636.114	11453.61
636.308	11173.03
636.501	11160.75
636.695	11060.4
636.889	11056.3
637.083	10943.66
637.276	10935.47
637.47	10914.99
637.664	10699.95
637.857	10867.89
638.051	10634.42
638.244	10777.78
638.438	10712.24
638.632	10646.71
638.825	10509.49
639.019	10536.12
639.212	10353.85
639.406	10525.88
639.599	10286.26
639.793	10300.6
639.986	9995.45
640.18	10126.52
640.373	10073.28
640.567	10130.62
640.76	9944.25
640.954	9819.33
641.147	9786.56
641.34	9784.51
641.534	9598.15
641.727	9643.2
641.92	9614.53
642.114	9616.58
642.307	9573.57
642.5	9282.76
642.694	9223.37
642.887	9477.32
643.08	9485.51
643.273	9211.08
643.467	9159.88
643.66	9073.87
643.853	9010.38
644.046	8946.89
644.239	9157.83
644.432	8989.9
644.626	9063.63
644.819	8926.41
645.012	9004.24
645.205	8848.59
645.398	8846.54
645.591	8647.89
645.784	8752.34
645.977	8588.5
646.17	8760.53
646.363	8535.25
646.556	8449.24
646.749	8602.83
646.942	8449.24
647.135	8275.16
647.328	8561.87
647.521	8406.23
647.714	8025.31
647.907	8084.7
648.099	8072.41
648.292	8172.76
648.485	7947.48
648.678	8062.17
648.871	7937.24
649.064	7931.1
649.256	7922.91
649.449	7855.33
649.642	7797.98
649.835	7605.47
650.027	7789.79
650.22	7601.38
650.413	7597.28
650.605	7544.03
650.798	7621.86
650.991	7455.97
651.183	7322.85
651.376	7548.13
651.568	7347.43
651.761	7240.93
651.954	7245.03
652.146	7376.1
652.339	7279.85
652.531	7412.96
652.724	7191.78
652.916	7029.99
653.109	7034.09
653.301	7015.66
653.494	6948.08
653.686	7013.61
653.879	6790.38
654.071	6911.21
654.263	6843.63
654.456	6696.18
654.648	6821.1
654.84	6577.39
655.033	6769.9
655.225	6700.27
655.417	6706.41
655.61	6743.28
655.802	6677.74
655.994	6474.99
656.186	6530.29
656.379	6501.62
656.571	6425.84
656.763	6276.34
656.955	6327.54
657.148	6245.62
657.34	6380.79
657.532	6292.73
657.724	6165.75
657.916	6051.07
658.108	5987.58
658.3	6114.55
658.492	6079.74
658.684	6038.78
658.876	6008.06
659.068	6118.65
659.26	5979.39
659.452	6063.35
659.644	5919.99
659.836	5856.51
660.028	5895.42
660.22	5741.82
660.412	5678.33
660.604	5692.67
660.796	5829.88
660.988	5702.91
661.18	5573.89
661.372	5649.66
661.563	5666.05
661.755	5594.37
661.947	5516.55
662.139	5332.23
662.331	5397.76
662.522	5494.02
662.714	5367.04
662.906	5428.48
663.097	5442.82
663.289	5428.48
663.481	5448.96
663.673	5367.04
663.864	5252.36
664.056	5197.06
664.247	5281.03
664.439	5002.51
664.631	5264.65
664.822	5373.19
665.014	5207.3
665.205	5043.46
665.397	5035.27
665.588	4982.03
665.78	5008.65
665.971	4971.79
666.163	5098.76
666.354	4979.98
666.546	4988.17
666.737	4885.77
666.929	4969.74
667.12	4920.59
667.311	4715.79
667.503	4877.58
667.694	4924.68
667.885	4799.76
668.077	4859.15
668.268	4721.93
668.459	4625.68
668.651	4678.93
668.842	4650.25
669.033	4701.45
669.224	4551.95
669.416	4805.9
669.607	4658.45
669.798	4635.92
669.989	4656.4
670.18	4467.99
670.371	4445.46
670.563	4519.18
670.754	4646.16
670.945	4437.27
671.136	4551.95
671.327	4394.26
671.518	4535.57
671.709	4367.63
671.9	4502.8
672.091	4439.31
672.282	4310.29
672.473	4189.46
672.664	4412.69
672.855	4261.14
673.046	4316.44
673.237	4289.81
673.428	4265.24
673.619	4318.48
673.809	4156.69
674	4183.32
674.191	4273.43
674.382	4115.73
674.573	4197.65
674.764	4193.56
674.954	4054.3
675.145	4080.92
675.336	4019.48
675.527	4080.92
675.717	4029.72
675.908	3978.52
676.099	3933.47
676.289	4154.65
676.48	3880.22
676.671	3943.71
676.861	3890.46
677.052	3974.42
677.243	3872.03
677.433	3935.51
677.624	4007.19
677.814	3822.88
678.005	3949.85
678.195	3986.71
678.386	4027.67
678.576	3740.96
678.767	3808.54
678.957	3847.45
679.148	3853.59
679.338	3718.43
679.529	3808.54
679.719	3831.07
679.909	3757.34
680.1	3783.96
680.29	3792.16
680.481	3704.09
680.671	3792.16
680.861	3613.98
681.052	3810.59
681.242	3642.65
681.432	3749.15
681.622	3740.96
681.813	3659.04
682.003	3757.34
682.193	3646.75
682.383	3745.05
682.573	3704.09
682.764	3530.02
682.954	3720.48
683.144	3609.89
683.334	3585.31
683.524	3603.74
683.714	3679.52
683.904	3536.16
684.094	3671.33
684.284	3474.72
684.474	3497.25
684.664	3538.21
684.854	3530.02
685.044	3482.91
685.234	3456.29
685.424	3558.69
685.614	3364.13
685.804	3466.53
685.994	3472.67
686.184	3464.48
686.374	3392.8
686.564	3421.47
686.753	3409.19
686.943	3237.16
687.133	3286.31
687.323	3271.97
687.513	3425.57
687.702	3323.17
687.892	3298.6
688.082	3214.63
688.272	3298.6
688.461	3251.49
688.651	3335.46
688.841	3134.76
689.03	3235.11
689.22	3118.37
689.41	3202.34
689.599	3323.17
689.789	3220.77
689.979	3132.71
690.168	3224.87
690.358	3081.51
690.547	3155.24
690.737	3075.37
690.926	3046.69
691.116	3114.28
691.305	3134.76
691.495	3054.89
691.684	3083.56
691.874	3097.89
692.063	3093.8
692.252	3077.41
692.442	3112.23
692.631	2962.73
692.82	3007.78
693.01	2966.82
693.199	2985.26
693.388	2983.21
693.578	2954.54
693.767	2876.71
693.956	2950.44
694.146	2925.86
694.335	2800.94
694.524	2817.32
694.713	2886.95
694.902	2917.67
695.092	2942.25
695.281	2848.04
695.47	2805.03
695.659	2889
695.848	2833.71
696.037	2825.51
696.226	2692.4
696.415	2741.55
696.604	2743.6
696.793	2886.95
696.982	2727.21
697.171	2829.61
697.36	2774.32
697.549	2729.26
697.738	2733.36
697.927	2731.31
698.116	2651.44
698.305	2735.4
698.494	2794.79
698.683	2848.04
698.872	2673.96
699.061	2729.26
699.25	2762.03
699.438	2755.88
699.627	2700.59
699.816	2708.78
700.005	2729.26
700.193	2663.72
700.382	2710.83
700.571	2665.77
700.76	2620.72
700.948	2739.5
701.137	2757.93
701.326	2725.16
701.514	2659.63
701.703	2710.83
701.892	2706.73
702.08	2526.51
702.269	2762.03
702.457	2577.71
702.646	2721.07
702.834	2727.21
703.023	2553.13
703.212	2630.96
703.4	2673.96
703.589	2592.05
703.777	2626.86
703.965	2616.62
704.154	2671.92
704.342	2671.92
704.531	2520.37
704.719	2647.34
704.907	2645.29
705.096	2485.55
705.284	2514.22
705.472	2704.68
705.661	2553.13
705.849	2522.41
706.037	2620.72
706.226	2655.53
706.414	2538.8
706.602	2587.95
706.79	2481.46
706.979	2628.91
707.167	2624.81
707.355	2569.52
707.543	2485.55
707.731	2530.61
707.919	2526.51
708.107	2471.22
708.296	2553.13
708.484	2465.07
708.672	2635.05
708.86	2600.24
709.048	2477.36
709.236	2530.61
709.424	2659.63
709.612	2491.7
709.8	2571.57
709.988	2581.81
710.176	2553.13
710.364	2618.67
710.551	2549.04
710.739	2479.41
710.927	2434.35
711.115	2630.96
711.303	2512.18
711.491	2520.37
711.679	2536.75
711.866	2530.61
712.054	2571.57
712.242	2514.22
712.43	2526.51
712.617	2708.78
712.805	2542.89
712.993	2559.28
713.181	2522.41
713.368	2493.74
713.556	2520.37
713.744	2460.98
713.931	2460.98
714.119	2571.57
714.306	2581.81
714.494	2338.1
714.682	2483.5
714.869	2424.11
715.057	2596.14
715.244	2557.23
715.432	2506.03
715.619	2532.65
715.807	2618.67
715.994	2424.11
716.182	2409.78
716.369	2479.41
716.556	2551.09
716.744	2432.3
716.931	2551.09
717.119	2551.09
717.306	2530.61
717.493	2559.28
717.681	2487.6
717.868	2571.57
718.055	2481.46
718.242	2471.22
718.43	2510.13
718.617	2471.22
718.804	2473.26
718.991	2489.65
719.179	2612.53
719.366	2385.2
719.553	2579.76
719.74	2417.97
719.927	2557.23
720.114	2469.17
720.301	2499.89
720.488	2409.78
720.676	2501.94
720.863	2434.35
721.05	2528.56
721.237	2479.41
721.424	2420.02
721.611	2430.26
721.798	2428.21
721.985	2454.83
722.172	2471.22
722.358	2506.03
722.545	2426.16
722.732	2401.58
722.919	2434.35
723.106	2454.83
723.293	2510.13
723.48	2424.11
723.667	2430.26
723.853	2575.66
724.04	2448.69
724.227	2465.07
724.414	2342.19
724.6	2413.87
724.787	2413.87
724.974	2381.11
725.161	2454.83
725.347	2352.43
725.534	2340.15
725.72	2485.55
725.907	2391.34
726.094	2491.7
726.28	2389.3
726.467	2413.87
726.653	2460.98
726.84	2415.92
727.027	2446.64
727.213	2471.22
727.4	2481.46
727.586	2383.15
727.773	2389.3
727.959	2370.87
728.145	2385.2
728.332	2467.12
728.518	2469.17
728.705	2575.66
728.891	2469.17
729.077	2546.99
729.264	2409.78
729.45	2284.85
729.636	2436.4
729.823	2463.02
730.009	2434.35
730.195	2489.65
730.382	2469.17
730.568	2383.15
730.754	2428.21
730.94	2340.15
731.126	2381.11
731.313	2409.78
731.499	2379.06
731.685	2407.73
731.871	2487.6
732.057	2368.82
732.243	2327.86
732.429	2377.01
732.615	2440.5
732.801	2465.07
732.987	2344.24
733.173	2452.78
733.359	2338.1
733.545	2407.73
733.731	2334
733.917	2356.53
734.103	2368.82
734.289	2454.83
734.475	2352.43
734.661	2512.18
734.847	2432.3
735.033	2434.35
735.219	2426.16
735.404	2417.97
735.59	2348.34
735.776	2299.19
735.962	2501.94
736.148	2290.99
736.333	2323.76
736.519	2405.68
736.705	2368.82
736.89	2338.1
737.076	2354.48
737.262	2327.86
737.447	2307.38
737.633	2356.53
737.819	2323.76
738.004	2340.15
738.19	2383.15
738.375	2280.75
738.561	2307.38
738.747	2319.67
738.932	2266.42
739.118	2315.57
739.303	2247.99
739.489	2254.13
739.674	2331.95
739.859	2239.8
740.045	2235.7
740.23	2331.95
740.416	2254.13
740.601	2192.69
740.786	2303.28
740.972	2196.79
741.157	2364.72
741.342	2215.22
741.528	2252.08
741.713	2147.64
741.898	2278.71
742.084	2241.84
742.269	2180.4
742.454	2237.75
742.639	2241.84
742.824	2157.88
743.01	2207.03
743.195	2204.98
743.38	2207.03
743.565	2137.4
743.75	2188.6
743.935	2192.69
744.12	2182.45
744.305	2073.91
744.49	2149.68
744.675	2131.25
744.86	2139.44
745.045	2063.67
745.23	2047.29
745.415	2106.68
745.6	2032.95
745.785	2114.87
745.97	1991.99
746.155	2006.33
746.34	2065.72
746.525	2063.67
746.71	1963.32
746.895	2053.43
747.079	2016.57
747.264	1932.6
747.449	1994.04
747.634	2014.52
747.819	2002.23
748.003	1963.32
748.188	1934.65
748.373	1811.77
748.557	1930.55
748.742	1846.59
748.927	1901.88
749.111	1973.56
749.296	1883.45
749.481	1883.45
749.665	1901.88
749.85	1819.96
750.034	1862.97
750.219	1787.19
750.404	1701.18
750.588	1756.47
750.773	1813.82
750.957	1842.49
751.141	1762.62
751.326	1688.89
751.51	1647.93
751.695	1672.51
751.879	1754.43
752.064	1752.38
752.248	1649.98
752.432	1725.76
752.617	1703.23
752.801	1682.75
752.985	1676.6
753.17	1512.77
753.354	1596.73
753.538	1570.11
753.722	1439.04
753.907	1563.97
754.091	1598.78
754.275	1471.81
754.459	1533.25
754.643	1549.63
754.828	1459.52
755.012	1426.75
755.196	1422.66
755.38	1469.76
755.564	1473.85
755.748	1484.09
755.932	1516.86
756.116	1404.22
756.3	1457.47
756.484	1504.57
756.668	1348.93
756.852	1430.85
757.036	1299.78
757.22	1348.93
757.404	1445.18
757.588	1414.46
757.772	1420.61
757.956	1355.07
758.14	1400.13
758.323	1254.72
758.507	1301.83
758.691	1385.79
758.875	1191.24
759.059	1387.84
759.242	1285.44
759.426	1269.06
759.61	1258.82
759.794	1250.63
759.977	1166.66
760.161	1332.55
760.345	1224
760.528	1181
760.712	1301.83
760.895	1293.63
761.079	1254.72
761.263	1312.07
761.446	1181
761.63	1256.77
761.813	1166.66
761.997	1209.67
762.18	1097.03
762.364	1164.61
762.547	1146.18
762.731	1097.03
762.914	1197.38
763.098	1164.61
763.281	1181
763.464	1195.33
763.648	1189.19
763.831	1090.88
764.015	1103.17
764.198	1127.75
764.381	1140.04
764.564	1131.84
764.748	1035.59
764.931	1103.17
765.114	1115.46
765.297	1121.6
765.481	1062.21
765.664	1064.26
765.847	1051.97
766.03	1103.17
766.213	1021.25
766.397	1107.27
766.58	992.58
766.763	1037.64
766.946	1078.6
767.129	955.72
767.312	1037.64
767.495	1101.12
767.678	1000.77
767.861	1017.16
768.044	1017.16
768.227	972.1
768.41	898.38
768.593	1025.35
768.776	1056.07
768.959	951.62
769.142	1002.82
769.324	986.44
769.507	953.67
769.69	904.52
769.873	994.63
770.056	875.85
770.239	955.72
770.421	959.81
770.604	1045.83
770.787	1060.17
770.97	943.43
771.152	916.81
771.335	912.71
771.518	947.53
771.7	918.86
771.883	963.91
772.066	890.18
772.248	916.81
772.431	1011.01
772.613	902.47
772.796	927.05
772.978	906.57
773.161	841.03
773.343	849.22
773.526	914.76
773.708	908.62
773.891	836.94
774.073	814.41
774.256	867.66
774.438	863.56
774.621	814.41
774.803	881.99
774.985	826.7
775.168	851.27
775.35	802.12
775.532	875.85
775.715	775.5
775.897	781.64
776.079	793.93
776.261	828.74
776.444	769.35
776.626	732.49
776.808	806.22
776.99	853.32
777.173	804.17
777.355	691.53
777.537	689.48
777.719	742.73
777.901	742.73
778.083	744.78
778.265	673.1
778.447	746.83
778.629	617.8
778.811	791.88
778.993	716.11
779.175	650.57
779.357	734.54
779.539	650.57
779.721	603.47
779.903	744.78
780.085	650.57
780.267	718.15
780.449	683.34
780.631	646.48
780.812	677.2
780.994	638.28
781.176	652.62
781.358	599.37
781.54	615.76
781.721	626
781.903	621.9
782.085	636.24
782.267	654.67
782.448	591.18
782.63	556.36
782.812	613.71
782.993	585.04
783.175	605.52
783.357	529.74
783.538	582.99
783.72	521.55
783.901	568.65
784.083	501.07
784.264	552.27
784.446	566.6
784.627	492.88
784.809	511.31
784.99	550.22
785.172	482.64
785.353	505.17
785.535	511.31
785.716	535.89
785.897	480.59
786.079	537.93
786.26	517.45
786.441	552.27
786.623	529.74
786.804	529.74
786.985	478.54
787.167	480.59
787.348	494.93
787.529	462.16
787.71	472.4
787.891	404.82
788.073	484.69
788.254	398.67
788.435	447.82
788.616	433.49
788.797	456.01
788.978	449.87
789.159	458.06
789.34	425.29
789.522	384.34
789.703	404.82
789.884	396.62
790.065	431.44
790.246	374.1
790.427	490.83
790.607	384.34
790.788	429.39
790.969	322.9
791.15	410.96
791.331	390.48
791.512	372.05
791.693	390.48
791.874	365.9
792.054	449.87
792.235	363.86
792.416	316.75
792.597	365.9
792.778	404.82
792.958	408.91
793.139	388.43
793.32	304.46
793.5	335.18
793.681	335.18
793.862	392.53
794.042	402.77
794.223	410.96
794.404	304.46
794.584	300.37
794.765	326.99
794.945	283.99
795.126	259.41
795.306	374.1
795.487	324.94
795.667	279.89
795.848	406.86
796.028	292.18
796.209	290.13
796.389	329.04
796.57	349.52
796.75	318.8
796.93	339.28
797.111	329.04
797.291	337.23
797.471	378.19
797.652	302.42
797.832	283.99
798.012	261.46
798.192	314.7
798.373	224.59
798.553	339.28
798.733	271.7
798.913	257.36
799.093	329.04
799.274	228.69
799.454	345.42
799.634	320.85
799.814	329.04
799.994	306.51
800.174	179.54
800.354	290.13
800.534	269.65
800.714	304.46
800.894	228.69
801.074	290.13
801.254	326.99
801.434	329.04
801.614	236.88
801.794	281.94
801.974	578.89
802.154	283.99
802.334	269.65
802.514	247.12
802.693	259.41
802.873	216.4
803.053	210.26
803.233	179.54
803.413	265.55
803.592	240.98
803.772	202.07
803.952	222.55
804.131	255.31
804.311	204.11
804.491	279.89
804.67	249.17
804.85	238.93
805.03	220.5
805.209	238.93
805.389	163.15
805.568	95.57
805.748	255.31
805.928	277.84
806.107	245.07
806.287	191.83
806.466	210.26
806.646	214.35
806.825	222.55
807.004	257.36
807.184	234.83
807.363	210.26
807.543	220.5
807.722	195.92
807.901	181.59
808.081	185.68
808.26	200.02
808.439	245.07
808.619	208.21
808.798	220.5
808.977	238.93
809.156	189.78
809.336	181.59
809.515	154.96
809.694	109.91
809.873	161.11
810.052	208.21
810.231	173.39
810.411	228.69
810.59	191.83
810.769	214.35
810.948	208.21
811.127	189.78
811.306	251.22
811.485	173.39
811.664	263.51
811.843	169.3
812.022	200.02
812.201	138.58
812.38	165.2
812.559	251.22
812.737	189.78
812.916	226.64
813.095	175.44
813.274	218.45
813.453	175.44
813.632	247.12
813.811	181.59
813.989	89.43
814.168	234.83
814.347	105.81
814.526	177.49
814.704	136.53
814.883	193.87
815.062	120.15
815.24	177.49
815.419	197.97
815.598	228.69
815.776	85.33
815.955	124.24
816.133	161.11
816.312	179.54
816.49	89.43
816.669	204.11
816.847	142.68
817.026	142.68
817.204	163.15
817.383	146.77
817.561	189.78
817.74	202.07
817.918	124.24
818.097	214.35
818.275	175.44
818.453	193.87
818.632	224.59
818.81	152.92
818.988	109.91
819.167	161.11
819.345	109.91
819.523	165.2
819.701	105.81
819.879	179.54
820.058	185.68
820.236	173.39
820.414	54.61
820.592	101.72
820.77	95.57
820.948	138.58
821.127	136.53
821.305	132.44
821.483	146.77
821.661	146.77
821.839	191.83
822.017	101.72
822.195	183.63
822.373	163.15
822.551	128.34
822.729	177.49
822.907	152.92
823.085	175.44
823.262	87.38
823.44	132.44
823.618	150.87
823.796	50.52
823.974	111.96
824.152	138.58
824.329	77.14
824.507	185.68
824.685	163.15
824.863	103.76
825.04	169.3
825.218	85.33
825.396	71
825.574	152.92
825.751	77.14
825.929	71
826.107	79.19
826.284	130.39
826.462	79.19
826.639	111.96
826.817	79.19
826.994	116.05
827.172	148.82
827.349	193.87
827.527	111.96
827.704	75.09
827.882	83.28
828.059	97.62
828.237	107.86
828.414	165.2
828.591	118.1
828.769	83.28
828.946	111.96
829.124	185.68
829.301	75.09
829.478	62.8
829.655	66.9
829.833	175.44
830.01	105.81
830.187	116.05
830.364	130.39
830.542	87.38
830.719	114
830.896	175.44
831.073	77.14
831.25	79.19
831.427	118.1
831.604	99.67
831.782	5.46
831.959	122.2
832.136	40.28
832.313	91.48
832.49	36.18
832.667	91.48
832.844	120.15
833.021	89.43
833.198	79.19
833.374	103.76
833.551	118.1
833.728	118.1
833.905	68.95
834.082	58.71
834.259	68.95
834.436	154.96
834.612	50.52
834.789	89.43
834.966	105.81
835.143	140.63
835.319	56.66
835.496	132.44
835.673	87.38
835.85	138.58
836.026	87.38
836.203	87.38
836.38	25.94
836.556	116.05
836.733	71
836.909	177.49
837.086	50.52
837.262	38.23
837.439	34.13
837.616	21.85
837.792	85.33
837.968	118.1
838.145	32.08
838.321	99.67
838.498	85.33
838.674	152.92
838.851	132.44
839.027	83.28
839.203	79.19
839.38	120.15
839.556	64.85
839.732	126.29
839.909	66.9
840.085	73.04
840.261	38.23
840.437	62.8
840.614	128.34
840.79	177.49
840.966	48.47
841.142	36.18
841.318	75.09
841.494	-15.02
841.671	60.76
841.847	36.18
842.023	87.38
842.199	60.76
842.375	105.81
842.551	87.38
842.727	79.19
842.903	128.34
843.079	21.85
843.255	48.47
843.431	109.91
843.607	58.71
843.783	7.51
843.959	99.67
844.134	9.56
844.31	107.86
844.486	93.52
844.662	60.76
844.838	13.65
845.013	116.05
845.189	7.51
845.365	60.76
845.541	93.52
845.716	48.47
845.892	87.38
846.068	42.32
846.244	50.52
846.419	97.62
846.595	62.8
846.77	-21.16
846.946	77.14
847.122	7.51
847.297	48.47
847.473	134.48
847.648	3.41
847.824	89.43
847.999	46.42
848.175	66.9
848.35	13.65
848.526	66.9
848.701	101.72
848.876	25.94
849.052	126.29
849.227	75.09
849.403	-2.73
849.578	46.42
849.753	60.76
849.929	85.33
850.104	27.99
850.279	30.04
850.454	107.86
850.63	32.08
850.805	64.85
850.98	64.85
851.155	85.33
851.33	46.42
851.505	52.56
851.681	146.77
851.856	56.66
852.031	38.23
852.206	-43.69
852.381	91.48
852.556	-19.11
852.731	118.1
852.906	66.9
853.081	46.42
853.256	27.99
853.431	97.62
853.606	71
853.781	23.89
853.956	-39.59
854.131	50.52
854.305	-17.07
854.48	34.13
854.655	66.9
854.83	7.51
855.005	-31.4
855.18	48.47
855.354	60.76
855.529	17.75
855.704	34.13
855.879	83.28
856.053	-23.21
856.228	83.28
856.403	13.65
856.577	81.24
856.752	5.46
856.926	-35.5
857.101	-31.4
857.276	56.66
857.45	46.42
857.625	-6.83
857.799	77.14
857.974	83.28
858.148	11.61
858.323	3.41
858.497	21.85
858.672	46.42
858.846	-17.07
859.02	46.42
859.195	73.04
859.369	17.75
859.543	34.13
859.718	50.52
859.892	3.41
860.066	36.18
860.241	-2.73
860.415	66.9
860.589	9.56
860.763	34.13
860.938	62.8
861.112	-47.79
861.286	17.75
861.46	7.51
861.634	-27.31
861.808	75.09
861.982	-8.87
862.157	30.04
862.331	-15.02
862.505	19.8
862.679	91.48
862.853	161.11
863.027	7.51
863.201	30.04
863.375	-35.5
863.549	60.76
863.722	38.23
863.896	52.56
864.07	-8.87
864.244	-15.02
864.418	111.96
864.592	-10.92
864.766	-17.07
864.939	19.8
865.113	21.85
865.287	73.04
865.461	5.46
865.634	30.04
865.808	34.13
865.982	13.65
866.156	-8.87
866.329	68.95
866.503	46.42
866.676	21.85
866.85	109.91
867.024	9.56
867.197	95.57
867.371	38.23
867.544	13.65
867.718	27.99
867.891	-12.97
868.065	48.47
868.238	-96.94
868.412	-19.11
868.585	-45.74
868.759	-2.73
868.932	85.33
869.105	-47.79
869.279	-39.59
869.452	38.23
869.625	60.76
869.799	64.85
869.972	13.65
870.145	-43.69
870.319	91.48
870.492	-29.35
870.665	17.75
870.838	9.56
871.011	5.46
871.185	62.8
871.358	7.51
871.531	62.8
871.704	-43.69
871.877	48.47
872.05	1.37
872.223	13.65
872.396	-12.97
872.569	27.99
872.742	48.47
872.915	105.81
873.088	1.37
873.261	75.09
873.434	38.23
873.607	54.61
873.78	87.38
873.953	19.8
874.126	34.13
874.299	7.51
874.471	23.89
874.644	13.65
874.817	38.23
874.99	116.05
875.163	21.85
875.335	54.61
875.508	73.04
875.681	-33.45
875.853	5.46
876.026	5.46
876.199	81.24
876.371	79.19
876.544	21.85
876.717	13.65
876.889	79.19
877.062	15.7
877.234	15.7
877.407	81.24
877.579	-55.98
877.752	-8.87
877.924	42.32
878.097	-62.12
878.269	5.46
878.442	3.41
878.614	-8.87
878.786	21.85
878.959	54.61
879.131	-4.78
879.303	19.8
879.476	-0.68
879.648	50.52
879.82	-53.93
879.993	-27.31
880.165	-8.87
880.337	-39.59
880.509	42.32
880.681	3.41
880.854	-6.83
881.026	34.13
881.198	83.28
881.37	50.52
881.542	58.71
881.714	-31.4
881.886	30.04
882.058	30.04
882.23	36.18
882.402	89.43
882.574	64.85
882.746	-19.11
882.918	13.65
883.09	-55.98
883.262	-45.74
883.434	5.46
883.606	32.08
883.778	25.94
883.95	73.04
884.122	11.61
884.293	27.99
884.465	71
884.637	42.32
884.809	3.41
884.98	15.7
885.152	19.8
885.324	19.8
885.496	19.8
885.667	109.91
885.839	-19.11
886.011	11.61
886.182	46.42
886.354	13.65
886.525	7.51
886.697	9.56
886.869	-43.69
887.04	13.65
887.212	38.23
887.383	52.56
887.555	68.95
887.726	34.13
887.897	-35.5
888.069	-21.16
888.24	-58.03
888.412	42.32
888.583	11.61
888.754	9.56
888.926	17.75
889.097	134.48
889.268	27.99
889.44	93.52
889.611	7.51
889.782	11.61
889.953	21.85
890.125	17.75
890.296	-23.21
890.467	15.7
890.638	50.52
890.809	34.13
890.98	5.46
891.151	17.75
891.323	11.61
891.494	77.14
891.665	19.8
891.836	40.28
892.007	44.37
892.178	-35.5
892.349	34.13
892.52	13.65
892.691	-37.55
892.862	-2.73
893.032	30.04
893.203	99.67
893.374	62.8
893.545	7.51
893.716	-53.93
893.887	-39.59
894.057	-2.73
894.228	7.51
894.399	-10.92
894.57	85.33
894.74	17.75
894.911	23.89
895.082	3.41
895.253	-31.4
895.423	103.76
895.594	-2.73
895.764	64.85
895.935	-45.74
896.106	-23.21
896.276	5.46
896.447	5.46
896.617	1.37
896.788	-51.88
896.958	30.04
897.129	23.89
897.299	54.61
897.47	23.89
897.64	46.42
897.81	-12.97
897.981	21.85
898.151	-12.97
898.322	11.61
898.492	11.61
898.662	-37.55
898.832	73.04
899.003	-23.21
899.173	38.23
899.343	68.95
899.513	-72.36
