Data from USB4F104151__104__11-07-08-079.txt Node

Date: Wed Mar 12 11:07:08 EDT 2025
User: louis
Spectrometer: USB4F10415
Trigger mode: 4
Integration Time (sec): 2.000000E-2
Scans to average: 1
Electric dark correction enabled: true
Nonlinearity correction enabled: false
Boxcar width: 0
XAxis mode: Wavelengths
Number of Pixels in Spectrum: 3648
>>>>>Begin Spectral Data<<<<<
178.204	-104.11
178.424	-104.11
178.644	-104.11
178.864	-83.63
179.084	-77.48
179.304	-7.85
179.524	-1.71
179.744	-16.04
179.964	8.53
180.184	-44.71
180.404	119.12
180.624	-63.15
180.844	-18.09
181.064	-30.38
181.283	16.73
181.503	10.58
181.723	26.96
181.943	-89.77
182.163	49.49
182.383	14.68
182.602	18.77
182.822	4.44
183.042	8.53
183.262	-20.14
183.482	-9.9
183.701	-20.14
183.921	6.49
184.141	16.73
184.361	18.77
184.58	-7.85
184.8	29.01
185.02	8.53
185.239	33.11
185.459	-3.75
185.679	24.92
185.898	-5.8
186.118	16.73
186.338	-9.9
186.557	49.49
186.777	4.44
186.997	-40.62
187.216	-3.75
187.436	37.2
187.655	12.63
187.875	-5.8
188.095	18.77
188.314	31.06
188.534	22.87
188.753	10.58
188.973	24.92
189.192	65.88
189.412	53.59
189.631	-24.23
189.851	55.64
190.07	26.96
190.29	-3.75
190.509	43.35
190.729	29.01
190.948	22.87
191.168	59.73
191.387	59.73
191.607	74.07
191.826	37.2
192.045	8.53
192.265	24.92
192.484	41.3
192.704	53.59
192.923	2.39
193.142	67.92
193.362	14.68
193.581	45.4
193.8	43.35
194.02	115.03
194.239	-91.82
194.458	53.59
194.678	-7.85
194.897	-32.43
195.116	49.49
195.335	-34.47
195.555	47.44
195.774	41.3
195.993	45.4
196.212	-3.75
196.432	6.49
196.651	-9.9
196.87	8.53
197.089	63.83
197.308	45.4
197.528	-13.99
197.747	-5.8
197.966	39.25
198.185	24.92
198.404	51.54
198.623	0.34
198.842	12.63
199.062	-16.04
199.281	16.73
199.5	41.3
199.719	-26.28
199.938	37.2
200.157	12.63
200.376	59.73
200.595	61.78
200.814	96.6
201.033	74.07
201.252	-1.71
201.471	-22.19
201.69	59.73
201.909	53.59
202.128	2.39
202.347	18.77
202.566	31.06
202.785	12.63
203.004	47.44
203.223	39.25
203.442	57.68
203.661	-5.8
203.879	41.3
204.098	67.92
204.317	-61.1
204.536	29.01
204.755	39.25
204.974	12.63
205.193	69.97
205.411	29.01
205.63	55.64
205.849	8.53
206.068	86.36
206.287	-34.47
206.505	-3.75
206.724	53.59
206.943	29.01
207.162	53.59
207.381	-85.67
207.599	6.49
207.818	47.44
208.037	-13.99
208.255	-3.75
208.474	12.63
208.693	-7.85
208.911	20.82
209.13	100.69
209.349	57.68
209.567	45.4
209.786	-1.71
210.005	-32.43
210.223	-9.9
210.442	16.73
210.661	49.49
210.879	4.44
211.098	-52.91
211.316	-42.67
211.535	37.2
211.753	-44.71
211.972	8.53
212.191	8.53
212.409	6.49
212.628	37.2
212.846	59.73
213.065	39.25
213.283	78.16
213.502	74.07
213.72	20.82
213.938	-13.99
214.157	-24.23
214.375	16.73
214.594	18.77
214.812	108.88
215.031	63.83
215.249	4.44
215.467	-1.71
215.686	2.39
215.904	61.78
216.122	4.44
216.341	14.68
216.559	6.49
216.778	24.92
216.996	-3.75
217.214	-79.53
217.432	31.06
217.651	-1.71
217.869	20.82
218.087	24.92
218.306	-3.75
218.524	22.87
218.742	-69.29
218.96	33.11
219.179	86.36
219.397	-3.75
219.615	33.11
219.833	37.2
220.051	33.11
220.27	72.02
220.488	4.44
220.706	57.68
220.924	88.4
221.142	4.44
221.36	67.92
221.578	-3.75
221.796	6.49
222.015	20.82
222.233	-32.43
222.451	31.06
222.669	-32.43
222.887	53.59
223.105	31.06
223.323	-3.75
223.541	-30.38
223.759	69.97
223.977	-30.38
224.195	14.68
224.413	24.92
224.631	55.64
224.849	67.92
225.067	18.77
225.285	26.96
225.503	-11.95
225.721	-28.33
225.939	76.12
226.157	41.3
226.375	61.78
226.592	-22.19
226.81	12.63
227.028	110.93
227.246	96.6
227.464	-42.67
227.682	-36.52
227.9	-18.09
228.117	49.49
228.335	80.21
228.553	90.45
228.771	47.44
228.989	53.59
229.206	41.3
229.424	121.17
229.642	-26.28
229.86	-44.71
230.077	-67.24
230.295	-65.19
230.513	-54.95
230.731	47.44
230.948	51.54
231.166	-36.52
231.384	-3.75
231.601	45.4
231.819	4.44
232.037	29.01
232.254	4.44
232.472	74.07
232.689	-7.85
232.907	2.39
233.125	88.4
233.342	22.87
233.56	-34.47
233.777	61.78
233.995	76.12
234.213	43.35
234.43	18.77
234.648	53.59
234.865	-44.71
235.083	22.87
235.3	20.82
235.518	55.64
235.735	61.78
235.953	59.73
236.17	2.39
236.388	20.82
236.605	-36.52
236.822	24.92
237.04	24.92
237.257	-18.09
237.475	24.92
237.692	4.44
237.909	37.2
238.127	29.01
238.344	45.4
238.562	65.88
238.779	-7.85
238.996	22.87
239.214	20.82
239.431	26.96
239.648	-3.75
239.865	6.49
240.083	37.2
240.3	59.73
240.517	-81.58
240.735	12.63
240.952	53.59
241.169	57.68
241.386	72.02
241.603	41.3
241.821	-20.14
242.038	47.44
242.255	53.59
242.472	-1.71
242.689	76.12
242.907	14.68
243.124	8.53
243.341	-11.95
243.558	-11.95
243.775	2.39
243.992	-20.14
244.209	35.16
244.426	94.55
244.643	37.2
244.86	20.82
245.078	0.34
245.295	12.63
245.512	-13.99
245.729	22.87
245.946	16.73
246.163	18.77
246.38	16.73
246.597	-54.95
246.814	63.83
247.031	-7.85
247.248	-34.47
247.464	65.88
247.681	2.39
247.898	8.53
248.115	26.96
248.332	-44.71
248.549	2.39
248.766	92.5
248.983	0.34
249.2	39.25
249.417	76.12
249.633	-7.85
249.85	22.87
250.067	29.01
250.284	-3.75
250.501	10.58
250.717	-9.9
250.934	-3.75
251.151	74.07
251.368	20.82
251.585	20.82
251.801	-44.71
252.018	86.36
252.235	65.88
252.451	8.53
252.668	41.3
252.885	43.35
253.102	63.83
253.318	4.44
253.535	14.68
253.752	137.56
253.968	16.73
254.185	-34.47
254.401	-36.52
254.618	82.26
254.835	-20.14
255.051	53.59
255.268	37.2
255.484	33.11
255.701	14.68
255.917	43.35
256.134	-40.62
256.351	72.02
256.567	12.63
256.784	-22.19
257	4.44
257.217	51.54
257.433	24.92
257.65	41.3
257.866	90.45
258.082	67.92
258.299	45.4
258.515	76.12
258.732	-9.9
258.948	72.02
259.165	55.64
259.381	-50.86
259.597	2.39
259.814	-24.23
260.03	8.53
260.246	-18.09
260.463	-63.15
260.679	59.73
260.895	35.16
261.112	43.35
261.328	45.4
261.544	39.25
261.761	45.4
261.977	8.53
262.193	26.96
262.409	0.34
262.626	55.64
262.842	43.35
263.058	-5.8
263.274	43.35
263.49	20.82
263.707	45.4
263.923	100.69
264.139	33.11
264.355	24.92
264.571	65.88
264.787	-26.28
265.004	41.3
265.22	4.44
265.436	-5.8
265.652	29.01
265.868	59.73
266.084	53.59
266.3	69.97
266.516	-20.14
266.732	41.3
266.948	-65.19
267.164	16.73
267.38	-52.91
267.596	-5.8
267.812	12.63
268.028	90.45
268.244	55.64
268.46	10.58
268.676	102.74
268.892	24.92
269.108	39.25
269.324	57.68
269.54	-20.14
269.756	-5.8
269.972	-18.09
270.188	8.53
270.403	-44.71
270.619	24.92
270.835	-13.99
271.051	57.68
271.267	24.92
271.483	106.84
271.698	86.36
271.914	96.6
272.13	82.26
272.346	10.58
272.562	-20.14
272.777	18.77
272.993	26.96
273.209	102.74
273.425	24.92
273.64	-16.04
273.856	84.31
274.072	24.92
274.287	-34.47
274.503	26.96
274.719	-32.43
274.934	-11.95
275.15	-13.99
275.366	24.92
275.581	-52.91
275.797	10.58
276.012	12.63
276.228	0.34
276.444	45.4
276.659	69.97
276.875	33.11
277.09	88.4
277.306	-7.85
277.521	39.25
277.737	31.06
277.952	-7.85
278.168	26.96
278.383	31.06
278.599	-34.47
278.814	90.45
279.03	4.44
279.245	37.2
279.461	26.96
279.676	-9.9
279.892	4.44
280.107	47.44
280.322	-3.75
280.538	57.68
280.753	-7.85
280.969	41.3
281.184	18.77
281.399	57.68
281.615	47.44
281.83	-11.95
282.045	-7.85
282.26	8.53
282.476	94.55
282.691	47.44
282.906	29.01
283.122	45.4
283.337	-1.71
283.552	20.82
283.767	65.88
283.983	69.97
284.198	20.82
284.413	18.77
284.628	-24.23
284.843	8.53
285.058	29.01
285.274	31.06
285.489	29.01
285.704	37.2
285.919	33.11
286.134	16.73
286.349	0.34
286.564	22.87
286.779	-9.9
286.995	49.49
287.21	37.2
287.425	-63.15
287.64	-7.85
287.855	0.34
288.07	33.11
288.285	4.44
288.5	51.54
288.715	53.59
288.93	26.96
289.145	47.44
289.36	94.55
289.575	57.68
289.79	76.12
290.004	53.59
290.219	106.84
290.434	6.49
290.649	18.77
290.864	-18.09
291.079	14.68
291.294	90.45
291.509	57.68
291.724	-20.14
291.938	24.92
292.153	47.44
292.368	-9.9
292.583	2.39
292.798	4.44
293.012	-11.95
293.227	29.01
293.442	-42.67
293.657	43.35
293.871	31.06
294.086	12.63
294.301	121.17
294.516	35.16
294.73	59.73
294.945	35.16
295.16	22.87
295.374	53.59
295.589	33.11
295.804	-16.04
296.018	12.63
296.233	16.73
296.447	80.21
296.662	37.2
296.877	31.06
297.091	4.44
297.306	24.92
297.52	37.2
297.735	102.74
297.949	45.4
298.164	37.2
298.378	-3.75
298.593	4.44
298.807	-7.85
299.022	61.78
299.236	20.82
299.451	84.31
299.665	-38.57
299.88	26.96
300.094	8.53
300.309	26.96
300.523	35.16
300.737	-30.38
300.952	76.12
301.166	6.49
301.381	-7.85
301.595	8.53
301.809	102.74
302.024	16.73
302.238	69.97
302.452	31.06
302.667	29.01
302.881	33.11
303.095	53.59
303.309	12.63
303.524	12.63
303.738	63.83
303.952	43.35
304.166	96.6
304.381	-1.71
304.595	92.5
304.809	61.78
305.023	-32.43
305.237	12.63
305.452	-48.81
305.666	57.68
305.88	0.34
306.094	12.63
306.308	-11.95
306.522	37.2
306.736	90.45
306.95	78.16
307.164	18.77
307.379	33.11
307.593	53.59
307.807	72.02
308.021	82.26
308.235	49.49
308.449	35.16
308.663	51.54
308.877	61.78
309.091	22.87
309.305	2.39
309.519	10.58
309.733	-13.99
309.947	12.63
310.161	-9.9
310.374	39.25
310.588	69.97
310.802	98.64
311.016	43.35
311.23	35.16
311.444	-1.71
311.658	-61.1
311.872	80.21
312.085	2.39
312.299	37.2
312.513	39.25
312.727	43.35
312.941	31.06
313.154	29.01
313.368	37.2
313.582	22.87
313.796	43.35
314.009	22.87
314.223	110.93
314.437	-16.04
314.651	-30.38
314.864	-59.05
315.078	18.77
315.292	-20.14
315.505	-20.14
315.719	41.3
315.933	84.31
316.146	-5.8
316.36	-13.99
316.573	4.44
316.787	16.73
317.001	84.31
317.214	-36.52
317.428	90.45
317.641	43.35
317.855	31.06
318.068	26.96
318.282	123.22
318.495	55.64
318.709	90.45
318.922	-26.28
319.136	80.21
319.349	-118.44
319.563	82.26
319.776	-5.8
319.99	-1.71
320.203	35.16
320.417	-5.8
320.63	129.36
320.843	108.88
321.057	12.63
321.27	22.87
321.483	-36.52
321.697	31.06
321.91	-18.09
322.124	0.34
322.337	16.73
322.55	94.55
322.763	-3.75
322.977	-38.57
323.19	47.44
323.403	-7.85
323.617	0.34
323.83	72.02
324.043	94.55
324.256	-34.47
324.469	43.35
324.683	33.11
324.896	29.01
325.109	55.64
325.322	10.58
325.535	37.2
325.748	88.4
325.962	24.92
326.175	61.78
326.388	24.92
326.601	39.25
326.814	37.2
327.027	45.4
327.24	16.73
327.453	-36.52
327.666	53.59
327.879	86.36
328.092	22.87
328.305	26.96
328.518	29.01
328.731	6.49
328.944	-20.14
329.157	55.64
329.37	100.69
329.583	104.79
329.796	110.93
330.009	0.34
330.222	-57
330.435	-36.52
330.648	69.97
330.861	-28.33
331.073	65.88
331.286	57.68
331.499	-11.95
331.712	-11.95
331.925	22.87
332.138	-20.14
332.35	100.69
332.563	-48.81
332.776	18.77
332.989	-3.75
333.202	94.55
333.414	41.3
333.627	35.16
333.84	41.3
334.053	14.68
334.265	-16.04
334.478	41.3
334.691	-59.05
334.903	88.4
335.116	26.96
335.329	-24.23
335.541	112.98
335.754	16.73
335.966	-26.28
336.179	49.49
336.392	53.59
336.604	26.96
336.817	45.4
337.029	96.6
337.242	80.21
337.454	-61.1
337.667	-44.71
337.88	63.83
338.092	-32.43
338.305	84.31
338.517	49.49
338.729	45.4
338.942	-16.04
339.154	-38.57
339.367	33.11
339.579	-11.95
339.792	61.78
340.004	96.6
340.217	-3.75
340.429	24.92
340.641	-3.75
340.854	-7.85
341.066	-24.23
341.278	24.92
341.491	41.3
341.703	-11.95
341.915	-20.14
342.128	69.97
342.34	2.39
342.552	-11.95
342.764	94.55
342.977	-30.38
343.189	0.34
343.401	-54.95
343.613	8.53
343.826	92.5
344.038	-7.85
344.25	78.16
344.462	-73.39
344.674	61.78
344.886	-13.99
345.099	10.58
345.311	24.92
345.523	59.73
345.735	135.51
345.947	14.68
346.159	12.63
346.371	8.53
346.583	84.31
346.795	33.11
347.007	76.12
347.219	98.64
347.431	45.4
347.643	49.49
347.855	49.49
348.067	76.12
348.279	0.34
348.491	0.34
348.703	63.83
348.915	-34.47
349.127	4.44
349.339	145.75
349.551	26.96
349.763	49.49
349.975	0.34
350.187	115.03
350.399	20.82
350.61	63.83
350.822	24.92
351.034	43.35
351.246	0.34
351.458	16.73
351.669	-5.8
351.881	26.96
352.093	-44.71
352.305	41.3
352.517	35.16
352.728	72.02
352.94	6.49
353.152	94.55
353.363	-42.67
353.575	16.73
353.787	80.21
353.999	22.87
354.21	69.97
354.422	6.49
354.633	39.25
354.845	-16.04
355.057	-11.95
355.268	22.87
355.48	22.87
355.692	29.01
355.903	61.78
356.115	29.01
356.326	-11.95
356.538	98.64
356.749	20.82
356.961	0.34
357.172	20.82
357.384	-20.14
357.595	2.39
357.807	82.26
358.018	80.21
358.23	106.84
358.441	90.45
358.653	2.39
358.864	6.49
359.075	-36.52
359.287	49.49
359.498	-1.71
359.709	4.44
359.921	55.64
360.132	20.82
360.344	90.45
360.555	16.73
360.766	-7.85
360.977	20.82
361.189	69.97
361.4	-22.19
361.611	65.88
361.823	-13.99
362.034	47.44
362.245	2.39
362.456	78.16
362.667	20.82
362.879	10.58
363.09	-13.99
363.301	61.78
363.512	76.12
363.723	20.82
363.935	67.92
364.146	84.31
364.357	-36.52
364.568	45.4
364.779	-44.71
364.99	45.4
365.201	33.11
365.412	74.07
365.623	47.44
365.834	18.77
366.045	45.4
366.256	-3.75
366.467	45.4
366.678	47.44
366.889	-1.71
367.1	57.68
367.311	4.44
367.522	10.58
367.733	-5.8
367.944	69.97
368.155	135.51
368.366	31.06
368.577	86.36
368.788	78.16
368.999	-85.67
369.209	74.07
369.42	74.07
369.631	92.5
369.842	76.12
370.053	-9.9
370.264	-7.85
370.474	37.2
370.685	-13.99
370.896	4.44
371.107	57.68
371.317	24.92
371.528	119.12
371.739	110.93
371.95	92.5
372.16	12.63
372.371	74.07
372.582	14.68
372.792	-7.85
373.003	37.2
373.214	47.44
373.424	55.64
373.635	-3.75
373.846	92.5
374.056	-18.09
374.267	131.41
374.477	63.83
374.688	22.87
374.898	-26.28
375.109	6.49
375.319	31.06
375.53	117.08
375.74	20.82
375.951	37.2
376.161	47.44
376.372	63.83
376.582	-24.23
376.793	78.16
377.003	39.25
377.214	86.36
377.424	59.73
377.635	31.06
377.845	24.92
378.055	141.65
378.266	69.97
378.476	-22.19
378.686	65.88
378.897	67.92
379.107	59.73
379.317	37.2
379.528	-13.99
379.738	100.69
379.948	29.01
380.158	63.83
380.369	82.26
380.579	96.6
380.789	59.73
380.999	145.75
381.21	61.78
381.42	33.11
381.63	26.96
381.84	29.01
382.05	59.73
382.261	61.78
382.471	43.35
382.681	94.55
382.891	8.53
383.101	166.23
383.311	16.73
383.521	-1.71
383.731	78.16
383.941	61.78
384.151	45.4
384.361	33.11
384.571	-5.8
384.781	41.3
384.991	98.64
385.201	98.64
385.411	119.12
385.621	74.07
385.831	33.11
386.041	37.2
386.251	-13.99
386.461	65.88
386.671	0.34
386.881	47.44
387.091	57.68
387.301	108.88
387.511	51.54
387.72	110.93
387.93	24.92
388.14	61.78
388.35	37.2
388.56	10.58
388.769	29.01
388.979	-9.9
389.189	72.02
389.399	69.97
389.609	63.83
389.818	78.16
390.028	-7.85
390.238	43.35
390.447	49.49
390.657	0.34
390.867	35.16
391.076	59.73
391.286	86.36
391.496	24.92
391.705	67.92
391.915	125.27
392.125	-3.75
392.334	37.2
392.544	22.87
392.753	108.88
392.963	47.44
393.172	8.53
393.382	20.82
393.591	35.16
393.801	51.54
394.01	65.88
394.22	82.26
394.429	43.35
394.639	69.97
394.848	39.25
395.058	33.11
395.267	51.54
395.477	33.11
395.686	84.31
395.895	47.44
396.105	94.55
396.314	39.25
396.524	37.2
396.733	53.59
396.942	63.83
397.152	8.53
397.361	90.45
397.57	94.55
397.78	147.8
397.989	153.94
398.198	98.64
398.407	88.4
398.617	37.2
398.826	153.94
399.035	86.36
399.244	117.08
399.453	78.16
399.663	67.92
399.872	92.5
400.081	98.64
400.29	139.6
400.499	18.77
400.708	78.16
400.917	20.82
401.127	127.32
401.336	76.12
401.545	84.31
401.754	121.17
401.963	51.54
402.172	18.77
402.381	143.7
402.59	143.7
402.799	158.03
403.008	57.68
403.217	135.51
403.426	125.27
403.635	74.07
403.844	121.17
404.053	110.93
404.262	125.27
404.471	176.47
404.68	86.36
404.888	143.7
405.097	137.56
405.306	129.36
405.515	135.51
405.724	98.64
405.933	65.88
406.142	117.08
406.35	211.28
406.559	137.56
406.768	135.51
406.977	242
407.185	176.47
407.394	209.23
407.603	168.27
407.812	246.1
408.02	221.52
408.229	227.67
408.438	160.08
408.646	264.53
408.855	237.91
409.064	264.53
409.272	248.15
409.481	217.43
409.69	317.78
409.898	313.68
410.107	282.96
410.315	254.29
410.524	254.29
410.733	330.06
410.941	188.75
411.15	258.39
411.358	332.11
411.567	352.59
411.775	393.55
411.984	385.36
412.192	280.91
412.401	420.17
412.609	434.51
412.818	411.98
413.026	477.52
413.234	428.37
413.443	377.17
413.651	473.42
413.86	547.15
414.068	512.33
414.276	581.96
414.485	461.13
414.693	551.24
414.901	575.82
415.11	584.01
415.318	629.07
415.526	680.27
415.734	680.27
415.943	725.32
416.151	819.53
416.359	715.08
416.567	715.08
416.776	721.23
416.984	774.47
417.192	887.11
417.4	950.6
417.608	858.44
417.817	854.34
418.025	971.08
418.233	966.98
418.441	958.79
418.649	1032.52
418.857	1059.14
419.065	1214.79
419.273	1053
419.481	1192.26
419.689	1245.51
419.897	1370.43
420.105	1413.44
420.313	1454.4
420.521	1345.86
420.729	1376.58
420.937	1483.07
421.145	1564.99
421.353	1648.96
421.561	1708.35
421.769	1724.73
421.977	1839.42
422.185	1720.64
422.393	1886.52
422.601	1904.95
422.809	1995.06
423.017	2003.25
423.224	2068.79
423.432	2236.72
423.64	2099.51
423.848	2347.31
424.056	2289.97
424.263	2457.9
424.471	2451.76
424.679	2498.86
424.887	2728.24
425.094	2677.04
425.302	2724.14
425.51	2863.4
425.718	2930.98
425.925	3010.86
426.133	2967.85
426.341	3199.27
426.548	3305.76
426.756	3215.65
426.964	3461.41
427.171	3692.83
427.379	3594.53
427.586	3856.67
427.794	3825.95
428.001	3989.78
428.209	4313.36
428.417	4165.91
428.624	4567.31
428.832	4442.39
429.039	4469.01
429.247	4458.77
429.454	4950.28
429.662	5267.72
429.869	4833.55
430.076	5339.4
430.284	5163.27
430.491	5280
430.699	5480.71
430.906	5531.9
431.114	5550.34
431.321	5853.44
431.528	5966.07
431.736	6342.9
431.943	6840.56
432.15	6488.31
432.358	6543.6
432.565	6897.9
432.772	6930.67
432.979	7364.84
433.187	7399.65
433.394	7532.77
433.601	7788.77
433.808	8032.47
434.016	7725.28
434.223	8321.24
434.43	8616.15
434.637	8591.57
434.844	9081.03
435.052	9277.64
435.259	9332.93
435.466	9392.33
435.673	9097.42
435.88	9863.36
436.087	10080.44
436.294	10148.03
436.501	10172.6
436.708	10485.94
436.915	10733.75
437.122	11317.42
437.329	11172.01
437.537	11491.49
437.743	11729.06
437.95	11385
438.157	11991.2
438.364	12517.53
438.571	12394.65
438.778	12482.71
438.985	13697.16
439.192	13219.98
439.399	13580.42
439.606	13252.75
439.813	13785.22
440.02	14876.79
440.227	14540.92
440.433	14616.69
440.64	14995.57
440.847	14989.42
441.054	15267.95
441.261	16541.78
441.467	16121.95
441.674	16558.17
441.881	17082.45
442.088	16967.76
442.294	16867.41
442.501	17434.7
442.708	17659.98
442.914	18473.02
443.121	19234.86
443.328	18518.07
443.534	20035.62
443.741	19281.97
443.948	19056.69
444.154	20469.79
444.361	20314.14
444.568	20600.86
444.774	20475.93
444.981	20676.63
445.187	21272.59
445.394	22241.28
445.6	22093.83
445.807	23918.57
446.013	23166.96
446.22	23572.46
446.426	24385.51
446.633	24571.87
446.839	25112.53
447.046	24287.2
447.252	25630.67
447.459	25526.22
447.665	25511.89
447.871	26591.17
448.078	27754.41
448.284	26345.41
448.491	27170.74
448.697	28280.74
448.903	28610.46
449.11	28901.28
449.316	28176.3
449.522	28407.72
449.728	29542.29
449.935	29419.41
450.141	29683.6
450.347	30533.51
450.553	29546.39
450.76	29917.07
450.966	30891.9
451.172	30115.72
451.378	31223.67
451.584	30730.11
451.791	31113.08
451.997	30961.53
452.203	31643.51
452.409	31733.62
452.615	31455.09
452.821	30355.33
453.027	29970.32
453.233	31760.24
453.44	30422.92
453.646	30621.57
453.852	31174.52
454.058	31393.65
454.264	30164.87
454.47	30551.94
454.676	30384.01
454.882	31137.66
455.088	28473.25
455.294	28972.96
455.5	29388.69
455.705	29556.63
455.911	28342.18
456.117	27889.58
456.323	27477.94
456.529	25716.68
456.735	27252.66
456.941	26353.6
457.147	26101.7
457.352	25024.47
457.558	25036.76
457.764	25120.73
457.97	24575.97
458.176	23767.02
458.381	24125.41
458.587	22722.55
458.793	22491.13
458.999	21612.56
459.204	23318.51
459.41	22333.44
459.616	20867.09
459.821	20965.4
460.027	20920.34
460.233	20940.82
460.438	19456.04
460.644	19978.28
460.85	19048.5
461.055	18847.8
461.261	18485.31
461.466	17209.42
461.672	16654.42
461.878	18018.37
462.083	16609.37
462.289	16420.95
462.494	16097.38
462.7	15542.38
462.905	15222.89
463.111	15587.43
463.316	15722.6
463.522	15186.03
463.727	15138.93
463.932	15351.92
464.138	15124.59
464.343	15390.83
464.549	14780.53
464.754	15317.1
464.959	15216.75
465.165	15032.43
465.37	14424.19
465.575	14092.41
465.781	14608.5
465.986	14678.13
466.191	14041.22
466.397	13783.17
466.602	13279.37
466.807	13645.96
467.012	13795.46
467.218	13820.03
467.423	13553.8
467.628	13787.27
467.833	14291.07
468.038	13488.26
468.244	13267.08
468.449	13684.87
468.654	13269.13
468.859	13322.38
469.064	13408.39
469.269	12775.57
469.474	12658.84
469.679	12935.31
469.885	12476.57
470.09	12849.3
470.295	12660.88
470.5	12384.41
470.705	12523.67
470.91	12239
471.115	12030.11
471.32	12161.18
471.525	12122.27
471.73	11872.42
471.935	11835.55
472.139	11366.57
472.344	11763.87
472.549	11524.26
472.754	11102.38
472.959	11135.15
473.164	10729.65
473.369	10707.12
473.574	11270.31
473.778	10993.84
473.983	10909.87
474.188	10731.7
474.393	10438.84
474.598	10485.94
474.802	10549.43
475.007	10301.62
475.212	10029.24
475.417	9806.02
475.621	9810.11
475.826	9881.79
476.031	9627.84
476.235	9769.15
476.44	9906.37
476.645	9654.47
476.849	9728.19
477.054	9095.37
477.259	9298.12
477.463	9271.5
477.668	9060.56
477.872	9124.04
478.077	9107.66
478.282	8782.03
478.486	8745.17
478.691	8794.32
478.895	8675.54
479.1	8743.12
479.304	8542.42
479.509	8464.6
479.713	8683.73
479.918	8319.19
480.122	8423.64
480.326	8487.12
480.531	8431.83
480.735	8212.7
480.94	8231.13
481.144	8399.06
481.348	8161.5
481.553	8184.02
481.757	7968.99
481.961	8186.07
482.166	8245.46
482.37	8061.15
482.574	7993.56
482.778	8007.9
482.983	8075.48
483.187	8026.33
483.391	7915.74
483.595	7966.94
483.8	7839.97
484.004	7987.42
484.208	8102.11
484.412	8075.48
484.616	8126.68
484.821	7893.21
485.025	7893.21
485.229	8171.74
485.433	7885.02
485.637	8012
485.841	7917.79
486.045	7921.88
486.249	7868.64
486.453	7844.06
486.657	8102.11
486.861	7977.18
487.065	7784.67
487.269	7925.98
487.473	7925.98
487.677	7901.4
487.881	8048.86
488.085	7968.99
488.289	8171.74
488.493	7897.31
488.697	8106.2
488.901	8239.32
489.105	8028.38
489.309	7973.08
489.512	8022.23
489.716	8048.86
489.92	8149.21
490.124	7866.59
490.328	8272.09
490.531	8272.09
490.735	8267.99
490.939	8149.21
491.143	8179.93
491.346	8276.18
491.55	8331.48
491.754	8329.43
491.958	8286.42
492.161	8220.89
492.365	8659.15
492.569	8521.94
492.772	8620.24
492.976	8493.27
493.18	8702.16
493.383	8583.38
493.587	8743.12
493.79	8849.61
493.994	8765.65
494.197	8827.09
494.401	8822.99
494.605	8980.68
494.808	8943.82
495.012	9064.65
495.215	9113.8
495.419	9275.59
495.622	9244.87
495.825	9486.53
496.029	9306.31
496.232	9679.04
496.436	9539.78
496.639	9670.85
496.843	9793.73
497.046	9908.41
497.249	9961.66
497.453	9892.03
497.656	10039.48
497.859	10178.75
498.063	10293.43
498.266	10535.09
498.469	10547.38
498.673	10682.55
498.876	10764.47
499.079	10844.34
499.282	10746.03
499.485	11133.1
499.689	11067.56
499.892	11366.57
500.095	11354.28
500.298	11550.89
500.501	11600.04
500.705	11673.76
500.908	12114.08
501.111	11919.52
501.314	12130.46
501.517	12236.95
501.72	12624.02
501.923	12218.52
502.126	12816.53
502.329	12867.73
502.532	12941.46
502.735	13062.29
502.938	13428.87
503.141	13213.84
503.344	13693.06
503.547	13613.19
503.75	13731.97
503.953	13887.62
504.156	14155.9
504.359	14246.01
504.562	14299.26
504.765	14526.58
504.968	14723.19
505.17	14938.23
505.373	14850.16
505.576	15313
505.779	15302.76
505.982	15108.21
506.185	15667.3
506.387	15781.99
506.59	15931.49
506.793	16273.5
506.996	15911.01
507.198	16812.12
507.401	16629.85
507.604	16760.92
507.807	17182.8
508.009	17074.26
508.212	17344.59
508.415	17621.06
508.617	17954.88
508.82	18077.76
509.022	18012.23
509.225	18413.63
509.428	18522.17
509.63	18731.06
509.833	18520.12
510.035	18950.2
510.238	19093.55
510.44	19318.83
510.643	19306.54
510.845	19810.34
511.048	19451.95
511.25	20181.03
511.453	20246.56
511.655	20842.52
511.858	20742.17
512.06	20944.92
512.262	20824.09
512.465	21086.23
512.667	21596.17
512.87	21780.49
513.072	21587.98
513.274	22161.41
513.477	22597.63
513.679	22603.77
513.881	22671.36
514.084	22966.26
514.286	23173.11
514.488	23101.43
514.69	24162.28
514.893	24031.21
515.095	23760.87
515.297	24279.01
515.499	24410.08
515.701	24637.41
515.904	25196.5
516.106	25069.53
516.308	25526.22
516.51	26038.22
516.712	25354.19
516.914	26169.29
517.116	26314.69
517.318	26417.09
517.52	26621.89
517.722	27025.34
517.925	26994.62
518.127	27131.83
518.329	27903.92
518.531	27387.83
518.733	28096.42
518.935	28463.01
519.136	28493.73
519.338	28747.68
519.54	28929.95
519.742	29120.41
519.944	29220.76
520.146	30177.16
520.348	30099.34
520.55	30431.11
520.752	30308.23
520.954	31092.6
521.155	30769.02
521.357	31303.54
521.559	31377.27
521.761	31907.69
521.963	31870.83
522.164	32266.09
522.366	32298.86
522.568	32411.49
522.77	32665.44
522.971	33208.15
523.173	33025.89
523.375	33154.91
523.576	33498.97
523.778	33978.19
523.98	34207.56
524.181	34211.66
524.383	34301.77
524.584	34602.82
524.786	34862.91
524.988	34961.22
525.189	35002.18
525.391	35346.23
525.592	35700.53
525.794	35796.79
525.995	35569.46
526.197	35880.75
526.398	35911.47
526.6	36112.17
526.801	36339.5
527.003	36706.09
527.204	36114.22
527.406	36845.35
527.607	37105.44
527.808	37377.82
528.01	36833.06
528.211	37068.58
528.412	37943.06
528.614	37386.01
528.815	37758.74
529.016	38246.16
529.218	37803.8
529.419	38280.97
529.62	37740.31
529.822	38199.05
530.023	38350.6
530.224	38154
530.425	38590.22
530.626	38321.93
530.828	38301.45
531.029	38940.42
531.23	38622.98
531.431	38897.41
531.632	38897.41
531.833	39001.86
532.035	39163.65
532.236	38938.37
532.437	38917.89
532.638	38942.47
532.839	39388.92
533.04	39175.94
533.241	39151.36
533.442	39577.34
533.643	39427.84
533.844	39417.6
534.045	39569.15
534.246	39319.29
534.447	39368.44
534.648	39337.73
534.849	39458.56
535.05	39452.41
535.251	39483.13
535.451	39388.92
535.652	39483.13
535.853	39585.53
536.054	39487.23
536.255	39241.47
536.456	39386.88
536.657	39724.79
536.857	39810.81
537.058	39249.66
537.259	39902.96
537.46	40101.62
537.66	39491.32
537.861	39667.45
538.062	39016.19
538.263	39929.59
538.463	39436.03
538.664	39616.25
538.865	39939.83
539.065	39956.21
539.266	39593.72
539.466	39972.6
539.667	39016.19
539.868	39751.41
540.068	39563
540.269	39585.53
540.469	39651.06
540.67	39663.35
540.87	39726.84
541.071	39374.59
541.271	39771.89
541.472	39819
541.672	39567.1
541.873	40015.6
542.073	39266.05
542.274	39778.04
542.474	39456.51
542.675	39257.85
542.875	39788.28
543.075	39714.55
543.276	39171.84
543.476	39716.6
543.676	39104.26
543.877	39419.64
544.077	39659.26
544.277	39192.32
544.478	39726.84
544.678	39644.92
544.878	39151.36
545.078	39511.8
545.279	39724.79
545.479	39405.31
545.679	39608.06
545.879	39417.6
546.079	39519.99
546.28	39130.88
546.48	38735.62
546.68	39141.12
546.88	39354.11
547.08	39362.3
547.28	39345.92
547.48	39020.29
547.68	39415.55
547.88	39255.81
548.081	39530.23
548.281	39376.64
548.481	39214.85
548.681	39702.26
548.881	39264
549.081	39515.9
549.28	38891.27
549.48	39237.37
549.68	39102.21
549.88	39735.03
550.08	39073.54
550.28	39409.4
550.48	39188.22
550.68	39491.32
550.88	39022.34
551.08	38850.31
551.279	39036.67
551.479	38651.66
551.679	39251.71
551.879	39163.65
552.079	39130.88
552.278	38717.19
552.478	39216.89
552.678	39208.7
552.878	39433.98
553.077	38844.16
553.277	38749.96
553.477	39089.92
553.676	39483.13
553.876	38752.01
554.076	38549.26
554.275	38991.62
554.475	38420.24
554.674	38526.73
554.874	38694.66
555.074	38704.9
555.273	38889.22
555.473	39005.95
555.672	38532.87
555.872	38545.16
556.071	38278.93
556.271	38928.13
556.47	38674.18
556.67	38268.69
556.869	38057.74
557.068	38412.04
557.268	38682.38
557.467	37842.71
557.667	38399.76
557.866	38082.32
558.065	38223.63
558.265	37992.21
558.464	37592.86
558.663	38164.24
558.863	37742.36
559.062	38256.4
559.261	37369.63
559.461	38242.06
559.66	37451.55
559.859	37431.07
560.058	37689.11
560.258	37531.42
560.457	37490.46
560.656	37365.53
560.855	37574.42
561.054	37525.27
561.253	36996.9
561.453	37222.17
561.652	37246.75
561.851	37302.04
562.05	36824.87
562.249	36607.78
562.448	36919.07
562.647	37003.04
562.846	36708.13
563.045	36884.26
563.244	36478.76
563.443	36622.12
563.642	36157.23
563.841	36581.16
564.04	36568.87
564.239	36568.87
564.438	36224.81
564.637	36507.43
564.836	36161.33
565.035	35743.54
565.234	36267.82
565.432	35544.89
565.631	35585.85
565.83	35628.85
566.029	35755.83
566.228	35225.4
566.427	35686.2
566.625	35350.33
566.824	34854.72
567.023	35807.03
567.222	34740.04
567.42	35497.78
567.619	35092.29
567.818	35252.03
568.016	34813.76
568.215	35012.42
568.414	34674.5
568.612	34715.46
568.811	34447.18
569.01	34641.73
569.208	34275.15
569.407	34447.18
569.605	33924.94
569.804	34418.5
570.002	34166.6
570.201	34215.76
570.4	33671
570.598	33636.18
570.797	33447.77
570.995	33771.35
571.193	33302.36
571.392	33507.16
571.59	33202.01
571.789	33283.93
571.987	33003.36
572.186	33257.31
572.384	33365.85
572.582	32839.52
572.781	33040.22
572.979	32313.19
573.177	32917.34
573.376	33009.5
573.574	32690.02
573.772	32847.71
573.971	32065.39
574.169	32079.72
574.367	31846.26
574.565	32587.62
574.763	32003.95
574.962	32106.35
575.16	31647.6
575.358	31754.1
575.556	31471.48
575.754	31776.62
575.952	31201.15
576.151	31600.5
576.349	31186.81
576.547	31414.13
576.745	31199.1
576.943	31356.79
577.141	31113.08
577.339	31219.58
577.537	31240.06
577.735	30932.86
577.933	30758.78
578.131	30887.81
578.329	30488.45
578.527	30072.71
578.725	30654.34
578.923	30490.5
579.121	30287.75
579.319	30220.17
579.516	30326.66
579.714	30111.63
579.912	30074.76
580.11	29673.36
580.308	29982.6
580.506	29964.17
580.704	29446.04
580.901	29575.06
581.099	29736.85
581.297	29167.51
581.495	29224.86
581.692	29755.28
581.89	28913.56
582.088	29732.75
582.285	28981.15
582.483	29599.63
582.681	29104.03
582.878	28815.26
583.076	28626.85
583.274	29183.9
583.471	28442.53
583.669	28942.24
583.866	28778.4
584.064	28288.93
584.262	28346.28
584.459	28362.66
584.657	28315.56
584.854	28612.51
585.052	27953.07
585.249	27963.31
585.447	28139.43
585.644	27785.13
585.841	27879.34
586.039	27977.64
586.236	27574.19
586.434	27463.6
586.631	27287.48
586.828	27541.43
587.026	27252.66
587.223	27205.56
587.42	26875.84
587.618	27404.21
587.815	27080.63
588.012	26677.18
588.21	26894.27
588.407	27000.76
588.604	26701.76
588.801	26593.22
588.999	26894.27
589.196	26642.37
589.393	26677.18
589.59	26658.75
589.787	26210.25
589.984	26222.53
590.182	25925.58
590.379	26181.57
590.576	25587.66
590.773	26222.53
590.97	26070.98
591.167	25964.49
591.364	25626.57
591.561	25757.64
591.758	25368.53
591.955	25487.31
592.152	25608.14
592.349	25513.94
592.546	25423.83
592.743	25282.52
592.94	25096.15
593.137	25241.56
593.334	25165.78
593.531	24727.52
593.727	24985.56
593.924	24813.53
594.121	24395.75
594.318	24770.52
594.515	24524.77
594.712	24930.26
594.908	24528.86
595.105	24350.69
595.302	24492
595.499	24416.22
595.696	24203.24
595.892	24100.84
596.089	24182.76
596.286	24080.36
596.482	24182.76
596.679	23850.99
596.876	24006.63
597.072	23539.69
597.269	23715.82
597.466	23513.07
597.662	23386.1
597.859	23373.81
598.055	23474.16
598.252	23447.54
598.448	23343.09
598.645	23175.16
598.841	23097.33
599.038	23011.32
599.234	23187.44
599.431	22771.71
599.627	22769.66
599.824	23056.37
600.02	22843.38
600.217	22929.4
600.413	22700.03
600.609	22558.72
600.806	22231.04
601.002	22886.39
601.198	21962.76
601.395	22362.11
601.591	22177.79
601.787	22196.23
601.984	22110.21
602.18	22077.44
602.376	21905.42
602.572	22120.45
602.769	22034.44
602.965	21583.88
603.161	21641.23
603.357	21719.05
603.553	21673.99
603.75	21590.03
603.946	21475.34
604.142	21262.35
604.338	21028.88
604.534	21520.4
604.73	21010.45
604.926	20944.92
605.122	21372.94
605.318	21153.81
605.514	20815.9
605.71	20791.32
605.906	20721.69
606.102	21043.22
606.298	21020.69
606.494	20967.45
606.69	20744.22
606.886	20598.81
607.082	20252.7
607.278	20498.46
607.474	20334.62
607.67	20594.72
607.866	20252.7
608.062	20514.84
608.257	20209.7
608.453	20281.38
608.649	20043.81
608.845	19937.32
609.041	20082.72
609.236	19959.84
609.432	20105.25
609.628	20025.38
609.824	20004.9
610.019	19552.3
610.215	19822.63
610.411	20080.67
610.606	19689.51
610.802	19804.2
610.998	19695.66
611.193	19509.29
611.389	19603.5
611.584	19607.59
611.78	19494.96
611.976	19466.28
612.171	19359.79
612.367	19310.64
612.562	19576.87
612.758	19271.73
612.953	19343.41
613.149	19288.11
613.344	19095.6
613.539	19431.47
613.735	19210.29
613.93	19279.92
614.126	18907.19
614.321	19427.37
614.517	18948.15
614.712	18919.48
614.907	18968.63
615.103	18907.19
615.298	18925.62
615.493	19187.76
615.688	18634.81
615.884	19212.34
616.079	18669.62
616.274	18753.59
616.47	18716.73
616.665	18616.38
616.86	18821.17
617.055	18794.55
617.25	18540.6
617.445	18710.58
617.641	18202.69
617.836	18430.01
618.031	18247.74
618.226	18415.68
618.421	18233.41
618.616	18430.01
618.811	17772.61
619.006	18335.81
619.201	17840.2
619.396	18010.18
619.591	17754.18
619.786	18169.92
619.981	17672.26
620.176	17745.99
620.371	17567.82
620.566	17459.27
620.761	17539.15
620.956	17449.04
621.151	17190.99
621.346	17113.17
621.541	17234
621.735	17416.27
621.93	17260.62
622.125	17076.3
622.32	16838.74
622.515	16769.11
622.709	16713.81
622.904	16732.25
623.099	16533.59
623.294	16463.96
623.488	16095.33
623.683	16269.41
623.878	16062.56
624.072	16271.45
624.267	16189.53
624.462	15976.55
624.656	15685.73
624.851	15845.48
625.046	15652.97
625.24	15632.49
625.435	15296.62
625.629	15493.22
625.824	15435.88
626.018	15306.86
626.213	15007.86
626.407	15202.41
626.602	14913.65
626.796	15263.85
626.991	15011.95
627.185	14979.18
627.38	14952.56
627.574	14899.31
627.768	14577.78
627.963	14540.92
628.157	14542.97
628.352	14569.59
628.546	14258.3
628.74	14338.17
628.935	14069.89
629.129	14137.47
629.323	13920.38
629.517	13967.49
629.712	13727.88
629.906	13920.38
630.1	13471.88
630.294	13680.77
630.489	13334.67
630.683	13637.77
630.877	13316.23
631.071	13484.17
631.265	13523.08
631.459	13183.12
631.653	13074.57
631.848	13017.23
632.042	12861.59
632.236	13226.12
632.43	12800.15
632.624	12937.36
632.818	12923.02
633.012	12646.55
633.206	12480.66
633.4	12746.9
633.594	12292.25
633.788	12525.72
633.982	12329.11
634.176	12136.6
634.369	12146.84
634.563	12208.28
634.757	12236.95
634.951	12062.88
635.145	12062.88
635.339	12146.84
635.533	11872.42
635.726	11860.13
635.92	11454.63
636.114	11788.45
636.308	11602.08
636.501	11761.83
636.695	11448.49
636.889	11323.56
637.083	11397.29
637.276	11241.64
637.47	11151.53
637.664	11331.75
637.857	11174.06
638.051	11245.74
638.244	11075.76
638.438	10948.78
638.632	10834.1
638.825	10930.35
639.019	10961.07
639.212	10678.45
639.406	10727.6
639.599	10574
639.793	10430.65
639.986	10596.53
640.18	10494.13
640.373	10371.26
640.567	10336.44
640.76	10365.11
640.954	10334.39
641.147	10412.21
641.34	10158.27
641.534	10186.94
641.727	10016.96
641.92	9951.42
642.114	9826.5
642.307	9900.22
642.5	9846.98
642.694	9619.65
642.887	9535.68
643.08	9658.56
643.273	9529.54
643.467	9523.4
643.66	9631.94
643.853	9429.19
644.046	9279.69
644.239	9515.2
644.432	9418.95
644.626	9136.33
644.819	9349.32
645.012	9212.1
645.205	9181.39
645.398	9056.46
645.591	8939.72
645.784	9027.79
645.977	8900.81
646.17	8949.96
646.363	8847.57
646.556	8767.7
646.749	8818.89
646.942	8822.99
647.135	8747.22
647.328	8610
647.521	8503.51
647.714	8460.5
647.907	8327.38
648.099	8499.41
648.292	8364.25
648.485	8347.86
648.678	8380.63
648.871	8145.11
649.064	8061.15
649.256	8216.79
649.449	8044.76
649.642	8130.78
649.835	7844.06
650.027	8102.11
650.22	7999.71
650.413	7819.49
650.605	7803.1
650.798	7764.19
650.991	7790.81
651.183	7788.77
651.376	7723.23
651.568	7645.41
651.761	7667.94
651.954	7598.31
652.146	7559.39
652.339	7579.87
652.531	7594.21
652.724	7483.62
652.916	7293.16
653.109	7389.41
653.301	7459.04
653.494	7428.32
653.686	7278.82
653.879	7272.68
654.071	7246.05
654.263	7039.21
654.456	7092.46
654.648	6965.48
654.84	7110.89
655.033	7031.02
655.225	6924.52
655.417	6869.23
655.61	7045.35
655.802	6805.74
655.994	6807.79
656.186	7033.07
656.379	6834.41
656.571	6764.78
656.763	6480.11
656.955	6502.64
657.148	6707.44
657.34	6535.41
657.532	6459.63
657.724	6353.14
657.916	6508.79
658.108	6295.8
658.3	6242.55
658.492	6453.49
658.684	6277.37
658.876	6226.17
659.068	6234.36
659.26	6244.6
659.452	6148.34
659.644	6115.58
659.836	6099.19
660.028	5972.22
660.22	6088.95
660.412	6052.09
660.604	6041.85
660.796	6105.34
660.988	5857.53
661.18	5916.92
661.372	5806.33
661.563	5880.06
661.755	5869.82
661.947	5761.28
662.139	5738.75
662.331	5726.46
662.522	5738.75
662.714	5777.66
662.906	5804.28
663.097	5525.76
663.289	5642.5
663.481	5609.73
663.673	5718.27
663.864	5513.47
664.056	5404.93
664.247	5458.18
664.439	5331.2
664.631	5443.84
664.822	5282.05
665.014	5495.04
665.205	5304.58
665.397	5198.09
665.588	5232.9
665.78	5155.08
665.971	5255.43
666.163	5204.23
666.354	5288.2
666.546	5212.42
666.737	4962.57
666.929	4989.19
667.12	5163.27
667.311	5075.21
667.503	5013.77
667.694	4952.33
667.885	4974.86
668.077	4968.71
668.268	4753.68
668.459	4860.17
668.651	4788.49
668.842	4854.03
669.033	4772.11
669.224	4940.04
669.416	4925.71
669.607	4864.27
669.798	4731.15
669.989	4684.05
670.18	4772.11
670.371	4659.47
670.563	4714.77
670.754	4753.68
670.945	4714.77
671.136	4616.46
671.327	4550.93
671.518	4661.52
671.709	4522.26
671.9	4524.3
672.091	4555.02
672.282	4374.8
672.473	4331.8
672.664	4389.14
672.855	4401.43
673.046	4522.26
673.237	4440.34
673.428	4393.23
673.619	4083.99
673.809	4315.41
674	4348.18
674.191	4272.4
674.382	4184.34
674.573	4215.06
674.764	4120.85
674.954	4342.04
675.145	4266.26
675.336	4182.29
675.527	4178.2
675.717	4157.72
675.908	4176.15
676.099	4288.79
676.289	4118.81
676.48	3967.26
676.671	4137.24
676.861	4100.37
677.052	3961.11
677.243	3942.68
677.433	3963.16
677.624	3950.87
677.814	4026.65
678.005	4008.22
678.195	4030.74
678.386	3957.02
678.576	3885.34
678.767	4020.5
678.957	3932.44
679.148	4030.74
679.338	3948.83
679.529	3899.67
679.719	4026.65
679.909	3877.15
680.1	3858.71
680.29	3891.48
680.481	3737.88
680.671	3860.76
680.861	3805.47
681.052	3821.85
681.242	3766.56
681.432	3809.56
681.622	3674.4
681.813	3664.16
682.003	3692.83
682.193	3563.81
682.383	3774.75
682.573	3750.17
682.764	3600.67
682.954	3641.63
683.144	3637.53
683.334	3727.64
683.524	3545.38
683.714	3723.55
683.904	3606.81
684.094	3563.81
684.284	3694.88
684.474	3647.77
684.664	3606.81
684.854	3584.29
685.044	3600.67
685.234	3420.45
685.424	3631.39
685.614	3416.35
685.804	3590.43
685.994	3422.5
686.184	3449.12
686.374	3531.04
686.564	3557.66
686.753	3451.17
686.943	3412.26
687.133	3445.02
687.323	3313.95
687.513	3373.35
687.702	3471.65
687.892	3330.34
688.082	3428.64
688.272	3285.28
688.461	3313.95
688.651	3285.28
688.841	3279.14
689.03	3152.17
689.22	3289.38
689.41	3354.91
689.599	3209.51
689.789	3238.18
689.979	3242.28
690.168	3260.71
690.358	3103.01
690.547	3143.97
690.737	3293.48
690.926	3213.6
691.116	3242.28
691.305	3068.2
691.495	3090.73
691.684	3064.1
691.874	3119.4
692.063	3121.45
692.252	3035.43
692.442	3123.49
692.631	2957.61
692.82	3080.49
693.01	3031.34
693.199	3010.86
693.388	2971.94
693.578	2930.98
693.767	3076.39
693.956	3019.05
694.146	3043.62
694.335	3035.43
694.524	2859.31
694.713	3000.62
694.902	2996.52
695.092	2902.31
695.281	2939.18
695.47	3002.66
695.659	2916.65
695.848	2834.73
696.037	2838.83
696.226	2955.56
696.415	2806.06
696.604	2900.27
696.793	2812.2
696.982	2873.64
697.171	2855.21
697.36	2789.67
697.549	2904.36
697.738	2918.7
697.927	2836.78
698.116	2804.01
698.305	2810.15
698.494	2896.17
698.683	2881.83
698.872	2955.56
699.061	2836.78
699.25	2824.49
699.438	2808.11
699.627	2871.59
699.816	2902.31
700.005	2806.06
700.193	2806.06
700.382	2785.58
700.571	2812.2
700.76	2861.35
700.948	2865.45
701.137	2609.45
701.326	2849.07
701.514	2783.53
701.703	2828.59
701.892	2814.25
702.08	2750.76
702.269	2695.47
702.457	2840.87
702.646	2761
702.834	2713.9
703.023	2869.55
703.212	2746.67
703.4	2789.67
703.589	2808.11
703.777	2765.1
703.965	2746.67
704.154	2767.15
704.342	2773.29
704.531	2789.67
704.719	2754.86
704.907	2779.43
705.096	2775.34
705.284	2763.05
705.472	2765.1
705.661	2828.59
705.849	2697.52
706.037	2699.56
706.226	2779.43
706.414	2732.33
706.602	2799.91
706.79	2744.62
706.979	2740.52
707.167	2654.51
707.355	2806.06
707.543	2822.44
707.731	2754.86
707.919	2685.23
708.107	2707.76
708.296	2826.54
708.484	2677.04
708.672	2695.47
708.86	2664.75
709.048	2834.73
709.236	2720.04
709.424	2787.63
709.612	2650.41
709.8	2601.26
709.988	2775.34
710.176	2679.08
710.364	2720.04
710.551	2601.26
710.739	2562.35
710.927	2576.69
711.115	2744.62
711.303	2777.39
711.491	2670.89
711.679	2662.7
711.866	2595.12
712.054	2787.63
712.242	2629.93
712.43	2699.56
712.617	2644.27
712.805	2545.97
712.993	2789.67
713.181	2576.69
713.368	2629.93
713.556	2599.21
713.744	2578.73
713.931	2738.48
714.119	2621.74
714.306	2560.3
714.494	2656.56
714.682	2642.22
714.869	2580.78
715.057	2701.61
715.244	2670.89
715.432	2681.13
715.619	2595.12
715.807	2625.84
715.994	2640.17
716.182	2746.67
716.369	2488.62
716.556	2746.67
716.744	2502.96
716.931	2724.14
717.119	2625.84
717.306	2611.5
717.493	2586.93
717.681	2615.6
717.868	2625.84
718.055	2621.74
718.242	2552.11
718.43	2674.99
718.617	2580.78
718.804	2531.63
718.991	2531.63
719.179	2556.21
719.366	2576.69
719.553	2527.53
719.74	2629.93
719.927	2517.29
720.114	2574.64
720.301	2715.95
720.488	2455.86
720.676	2529.58
720.863	2613.55
721.05	2578.73
721.237	2492.72
721.424	2595.12
721.611	2472.24
721.798	2480.43
721.985	2515.25
722.172	2521.39
722.358	2517.29
722.545	2545.97
722.732	2421.04
722.919	2603.31
723.106	2490.67
723.293	2521.39
723.48	2658.6
723.667	2496.82
723.853	2529.58
724.04	2564.4
724.227	2545.97
724.414	2406.7
724.6	2443.57
724.787	2525.49
724.974	2502.96
725.161	2451.76
725.347	2404.66
725.534	2462
725.72	2437.42
725.907	2427.18
726.094	2537.77
726.28	2459.95
726.467	2511.15
726.653	2423.09
726.84	2521.39
727.027	2453.81
727.213	2392.37
727.4	2365.75
727.586	2466.1
727.773	2531.63
727.959	2457.9
728.145	2404.66
728.332	2386.22
728.518	2326.83
728.705	2507.06
728.891	2414.9
729.077	2464.05
729.264	2326.83
729.45	2490.67
729.636	2449.71
729.823	2517.29
730.009	2418.99
730.195	2492.72
730.382	2371.89
730.568	2482.48
730.754	2421.04
730.94	2367.79
731.126	2427.18
731.313	2400.56
731.499	2459.95
731.685	2318.64
731.871	2351.41
732.057	2521.39
732.243	2423.09
732.429	2441.52
732.615	2343.22
732.801	2347.31
732.987	2324.79
733.173	2421.04
733.359	2423.09
733.545	2384.18
733.731	2257.2
733.917	2384.18
734.103	2337.07
734.289	2298.16
734.475	2464.05
734.661	2363.7
734.847	2267.44
735.033	2343.22
735.219	2302.26
735.404	2324.79
735.59	2269.49
735.776	2298.16
735.962	2357.55
736.148	2310.45
736.333	2292.02
736.519	2220.34
736.705	2208.05
736.89	2253.11
737.076	2318.64
737.262	2214.2
737.447	2218.29
737.633	2283.83
737.819	2281.78
738.004	2206
738.19	2175.28
738.375	2273.59
738.561	2249.01
738.747	2285.87
738.932	2259.25
739.118	2296.11
739.303	2265.39
739.489	2320.69
739.674	2236.72
739.859	2167.09
740.045	2224.44
740.23	2179.38
740.416	2128.18
740.601	2238.77
740.786	2218.29
740.972	2236.72
741.157	2119.99
741.342	2046.26
741.528	2058.55
741.713	2160.95
741.898	2089.27
742.084	2013.49
742.269	2009.4
742.454	2060.6
742.639	2167.09
742.824	2015.54
743.01	2052.41
743.195	2130.23
743.38	2103.61
743.565	2003.25
743.75	2031.93
743.935	2001.21
744.12	2064.69
744.305	1923.38
744.49	2011.45
744.675	1964.34
744.86	1972.54
745.045	2050.36
745.23	1997.11
745.415	1984.82
745.6	1954.1
745.785	1993.01
745.97	1904.95
746.155	1966.39
746.34	1911.1
746.525	1868.09
746.71	1909.05
746.895	1859.9
747.079	1757.5
747.264	1931.58
747.449	1771.83
747.634	1771.83
747.819	1841.47
748.003	1802.55
748.188	1861.94
748.373	1761.59
748.557	1823.03
748.742	1798.46
748.927	1685.82
749.111	1671.48
749.296	1720.64
749.481	1710.4
749.665	1640.76
749.85	1644.86
750.034	1698.11
750.219	1593.66
750.404	1687.87
750.588	1724.73
750.773	1651
750.957	1597.76
751.141	1605.95
751.326	1597.76
751.51	1585.47
751.695	1489.21
751.879	1591.61
752.064	1646.91
752.248	1542.46
752.432	1552.7
752.617	1509.69
752.801	1564.99
752.985	1528.13
753.17	1567.04
753.354	1528.13
753.538	1481.02
753.722	1501.5
753.907	1511.74
754.091	1528.13
754.275	1481.02
754.459	1388.86
754.643	1388.86
754.828	1392.96
755.012	1368.38
755.196	1392.96
755.38	1395.01
755.564	1315.14
755.748	1438.02
755.932	1368.38
756.116	1343.81
756.3	1317.19
756.484	1378.62
756.668	1259.84
756.852	1194.31
757.036	1286.47
757.22	1335.62
757.404	1286.47
757.588	1282.37
757.772	1216.83
757.956	1255.75
758.14	1263.94
758.323	1212.74
758.507	1349.95
758.691	1292.61
758.875	1110.34
759.059	1161.54
759.242	1169.73
759.426	1241.41
759.61	1167.68
759.794	1231.17
759.977	1141.06
760.161	1233.22
760.345	1120.58
760.528	1225.03
760.712	1190.21
760.895	1214.79
761.079	1130.82
761.263	1141.06
761.446	1030.47
761.63	1020.23
761.813	1071.43
761.997	1081.67
762.18	1100.1
762.364	1050.95
762.547	1050.95
762.731	1024.33
762.914	1179.97
763.098	1038.66
763.281	1136.96
763.464	981.32
763.648	1057.09
763.831	1038.66
764.015	1077.57
764.198	1122.63
764.381	1069.38
764.564	999.75
764.748	983.37
764.931	964.93
765.114	1003.85
765.297	958.79
765.481	946.5
765.664	975.17
765.847	1065.29
766.03	962.89
766.213	962.89
766.397	981.32
766.58	1155.4
766.763	948.55
766.946	997.7
767.129	1042.76
767.312	921.93
767.495	928.07
767.678	971.08
767.861	993.61
768.044	985.41
768.227	1034.57
768.41	911.69
768.593	946.5
768.776	887.11
768.959	1012.04
769.142	872.78
769.324	926.02
769.507	913.74
769.69	827.72
769.873	889.16
770.056	940.36
770.239	848.2
770.421	917.83
770.604	827.72
770.787	862.54
770.97	833.86
771.152	846.15
771.335	872.78
771.518	887.11
771.7	932.17
771.883	932.17
772.066	840.01
772.248	809.29
772.431	807.24
772.613	848.2
772.796	829.77
772.978	792.91
773.161	823.62
773.343	782.67
773.526	797
773.708	760.14
773.891	803.15
774.073	813.38
774.256	768.33
774.438	797
774.621	772.43
774.803	756.04
774.985	663.88
775.168	770.38
775.35	737.61
775.532	825.67
775.715	774.47
775.897	848.2
776.079	723.27
776.261	762.19
776.444	747.85
776.626	686.41
776.808	653.64
776.99	741.71
777.173	727.37
777.355	704.84
777.537	807.24
777.719	676.17
777.901	655.69
778.083	704.84
778.265	627.02
778.447	725.32
778.629	731.47
778.811	698.7
778.993	719.18
779.175	641.36
779.357	614.73
779.539	588.11
779.721	614.73
779.903	610.64
780.085	627.02
780.267	627.02
780.449	649.55
780.631	545.1
780.812	684.36
780.994	549.2
781.176	606.54
781.358	614.73
781.54	538.96
781.721	610.64
781.903	723.27
782.085	551.24
782.267	555.34
782.448	579.92
782.63	516.43
782.812	538.96
782.993	563.53
783.175	502.09
783.357	586.06
783.538	592.2
783.72	538.96
783.901	485.71
784.083	450.89
784.264	471.37
784.446	498
784.627	481.61
784.809	454.99
784.99	471.37
785.172	594.25
785.353	534.86
785.535	504.14
785.716	485.71
785.897	461.13
786.079	479.57
786.26	485.71
786.441	436.56
786.623	401.74
786.804	430.41
786.985	491.85
787.167	506.19
787.348	401.74
787.529	422.22
787.71	416.08
787.891	426.32
788.073	354.64
788.254	411.98
788.435	487.76
788.616	467.28
788.797	364.88
788.978	420.17
789.159	491.85
789.34	371.02
789.522	452.94
789.703	342.35
789.884	448.85
790.065	430.41
790.246	366.93
790.427	348.5
790.607	401.74
790.788	426.32
790.969	311.63
791.15	397.65
791.331	311.63
791.512	448.85
791.693	377.17
791.874	362.83
792.054	348.5
792.235	352.59
792.416	364.88
792.597	233.81
792.778	340.3
792.958	360.78
793.139	371.02
793.32	373.07
793.5	274.77
793.681	307.54
793.862	350.54
794.042	270.67
794.223	274.77
794.404	248.15
794.584	289.1
794.765	321.87
794.945	282.96
795.126	366.93
795.306	332.11
795.487	313.68
795.667	362.83
795.848	295.25
796.028	307.54
796.209	364.88
796.389	305.49
796.57	242
796.75	368.98
796.93	268.63
797.111	268.63
797.291	231.76
797.471	266.58
797.652	309.58
797.832	205.14
798.012	424.27
798.192	170.32
798.373	297.3
798.553	319.82
798.733	235.86
798.913	225.62
799.093	270.67
799.274	215.38
799.454	285.01
799.634	231.76
799.814	332.11
799.994	285.01
800.174	268.63
800.354	260.43
800.534	217.43
800.714	260.43
800.894	207.19
801.074	192.85
801.254	239.95
801.434	319.82
801.614	303.44
801.794	287.06
801.974	530.77
802.154	186.71
802.334	190.8
802.514	254.29
802.693	198.99
802.873	192.85
803.053	342.35
803.233	160.08
803.413	209.23
803.592	223.57
803.772	233.81
803.952	285.01
804.131	235.86
804.311	248.15
804.491	209.23
804.67	227.67
804.85	125.27
805.03	215.38
805.209	151.89
805.389	262.48
805.568	244.05
805.748	198.99
805.928	242
806.107	192.85
806.287	143.7
806.466	147.8
806.646	198.99
806.825	153.94
807.004	260.43
807.184	143.7
807.363	213.33
807.543	198.99
807.722	231.76
807.901	188.75
808.081	196.95
808.26	221.52
808.439	227.67
808.619	280.91
808.798	219.47
808.977	166.23
809.156	172.37
809.336	147.8
809.515	225.62
809.694	186.71
809.873	123.22
810.052	182.61
810.231	225.62
810.411	190.8
810.59	213.33
810.769	170.32
810.948	112.98
811.127	151.89
811.306	174.42
811.485	127.32
811.664	196.95
811.843	147.8
812.022	198.99
812.201	158.03
812.38	184.66
812.559	184.66
812.737	180.56
812.916	112.98
813.095	158.03
813.274	147.8
813.453	198.99
813.632	143.7
813.811	194.9
813.989	170.32
814.168	149.84
814.347	147.8
814.526	164.18
814.704	86.36
814.883	219.47
815.062	100.69
815.24	186.71
815.419	90.45
815.598	162.13
815.776	72.02
815.955	119.12
816.133	53.59
816.312	98.64
816.49	147.8
816.669	166.23
816.847	96.6
817.026	129.36
817.204	100.69
817.383	115.03
817.561	153.94
817.74	149.84
817.918	125.27
818.097	141.65
818.275	184.66
818.453	217.43
818.632	147.8
818.81	137.56
818.988	137.56
819.167	88.4
819.345	76.12
819.523	86.36
819.701	92.5
819.879	94.55
820.058	67.92
820.236	117.08
820.414	72.02
820.592	61.78
820.77	182.61
820.948	88.4
821.127	117.08
821.305	221.52
821.483	129.36
821.661	72.02
821.839	69.97
822.017	143.7
822.195	194.9
822.373	117.08
822.551	137.56
822.729	196.95
822.907	78.16
823.085	94.55
823.262	55.64
823.44	96.6
823.618	49.49
823.796	108.88
823.974	76.12
824.152	112.98
824.329	119.12
824.507	164.18
824.685	117.08
824.863	145.75
825.04	158.03
825.218	123.22
825.396	33.11
825.574	61.78
825.751	94.55
825.929	115.03
826.107	67.92
826.284	88.4
826.462	53.59
826.639	127.32
826.817	108.88
826.994	104.79
827.172	155.99
827.349	147.8
827.527	123.22
827.704	143.7
827.882	96.6
828.059	170.32
828.237	108.88
828.414	92.5
828.591	29.01
828.769	98.64
828.946	61.78
829.124	123.22
829.301	127.32
829.478	96.6
829.655	92.5
829.833	137.56
830.01	-36.52
830.187	90.45
830.364	127.32
830.542	72.02
830.719	94.55
830.896	90.45
831.073	43.35
831.25	57.68
831.427	59.73
831.604	4.44
831.782	16.73
831.959	69.97
832.136	123.22
832.313	102.74
832.49	49.49
832.667	57.68
832.844	110.93
833.021	139.6
833.198	96.6
833.374	92.5
833.551	45.4
833.728	-18.09
833.905	100.69
834.082	168.27
834.259	119.12
834.436	29.01
834.612	51.54
834.789	102.74
834.966	67.92
835.143	110.93
835.319	63.83
835.496	90.45
835.673	74.07
835.85	129.36
836.026	131.41
836.203	84.31
836.38	51.54
836.556	53.59
836.733	65.88
836.909	125.27
837.086	29.01
837.262	59.73
837.439	104.79
837.616	69.97
837.792	72.02
837.968	90.45
838.145	33.11
838.321	39.25
838.498	88.4
838.674	94.55
838.851	-16.04
839.027	65.88
839.203	43.35
839.38	72.02
839.556	29.01
839.732	102.74
839.909	69.97
840.085	96.6
840.261	131.41
840.437	49.49
840.614	51.54
840.79	139.6
840.966	-7.85
841.142	31.06
841.318	18.77
841.494	31.06
841.671	37.2
841.847	35.16
842.023	29.01
842.199	31.06
842.375	65.88
842.551	31.06
842.727	-5.8
842.903	112.98
843.079	33.11
843.255	-11.95
843.431	-44.71
843.607	121.17
843.783	2.39
843.959	53.59
844.134	8.53
844.31	135.51
844.486	29.01
844.662	104.79
844.838	92.5
845.013	29.01
845.189	63.83
845.365	20.82
845.541	69.97
845.716	31.06
845.892	37.2
846.068	61.78
846.244	72.02
846.419	51.54
846.595	4.44
846.77	49.49
846.946	22.87
847.122	49.49
847.297	-7.85
847.473	63.83
847.648	43.35
847.824	59.73
847.999	-13.99
848.175	78.16
848.35	143.7
848.526	49.49
848.701	102.74
848.876	12.63
849.052	43.35
849.227	26.96
849.403	67.92
849.578	4.44
849.753	76.12
849.929	-9.9
850.104	6.49
850.279	-7.85
850.454	12.63
850.63	76.12
850.805	4.44
850.98	24.92
851.155	-1.71
851.33	37.2
851.505	-7.85
851.681	24.92
851.856	-16.04
852.031	88.4
852.206	-16.04
852.381	-7.85
852.556	67.92
852.731	33.11
852.906	39.25
853.081	37.2
853.256	88.4
853.431	53.59
853.606	72.02
853.781	-20.14
853.956	-13.99
854.131	31.06
854.305	53.59
854.48	72.02
854.655	20.82
854.83	47.44
855.005	0.34
855.18	43.35
855.354	55.64
855.529	55.64
855.704	-11.95
855.879	57.68
856.053	-36.52
856.228	72.02
856.403	8.53
856.577	51.54
856.752	-65.19
856.926	-16.04
857.101	92.5
857.276	-28.33
857.45	26.96
857.625	45.4
857.799	37.2
857.974	-3.75
858.148	-38.57
858.323	-3.75
858.497	29.01
858.672	4.44
858.846	-36.52
859.02	80.21
859.195	-59.05
859.369	-24.23
859.543	35.16
859.718	90.45
859.892	76.12
860.066	61.78
860.241	51.54
860.415	-32.43
860.589	8.53
860.763	-32.43
860.938	45.4
861.112	4.44
861.286	37.2
861.46	35.16
861.634	-13.99
861.808	86.36
861.982	98.64
862.157	14.68
862.331	6.49
862.505	39.25
862.679	45.4
862.853	18.77
863.027	-28.33
863.201	61.78
863.375	-40.62
863.549	80.21
863.722	6.49
863.896	78.16
864.07	-3.75
864.244	43.35
864.418	-61.1
864.592	-7.85
864.766	6.49
864.939	-22.19
865.113	31.06
865.287	84.31
865.461	-1.71
865.634	47.44
865.808	47.44
865.982	2.39
866.156	69.97
866.329	12.63
866.503	16.73
866.676	-147.11
866.85	20.82
867.024	18.77
867.197	43.35
867.371	16.73
867.544	-3.75
867.718	108.88
867.891	35.16
868.065	12.63
868.238	43.35
868.412	55.64
868.585	96.6
868.759	59.73
868.932	20.82
869.105	-20.14
869.279	12.63
869.452	-20.14
869.625	10.58
869.799	-52.91
869.972	10.58
870.145	-36.52
870.319	29.01
870.492	-11.95
870.665	18.77
870.838	24.92
871.011	20.82
871.185	16.73
871.358	59.73
871.531	-30.38
871.704	-40.62
871.877	90.45
872.05	37.2
872.223	26.96
872.396	20.82
872.569	-11.95
872.742	39.25
872.915	108.88
873.088	-7.85
873.261	37.2
873.434	31.06
873.607	-20.14
873.78	35.16
873.953	-34.47
874.126	-67.24
874.299	43.35
874.471	2.39
874.644	102.74
874.817	2.39
874.99	55.64
875.163	16.73
875.335	-30.38
875.508	12.63
875.681	-9.9
875.853	45.4
876.026	-3.75
876.199	39.25
876.371	39.25
876.544	-13.99
876.717	35.16
876.889	-18.09
877.062	47.44
877.234	8.53
877.407	14.68
877.579	-7.85
877.752	-50.86
877.924	-3.75
878.097	24.92
878.269	-32.43
878.442	37.2
878.614	-85.67
878.786	35.16
878.959	12.63
879.131	57.68
879.303	16.73
879.476	61.78
879.648	-9.9
879.82	14.68
879.993	-18.09
880.165	-73.39
880.337	-13.99
880.509	20.82
880.681	41.3
880.854	-50.86
881.026	-3.75
881.198	94.55
881.37	100.69
881.542	2.39
881.714	-18.09
881.886	-5.8
882.058	-5.8
882.23	61.78
882.402	24.92
882.574	-3.75
882.746	-22.19
882.918	-13.99
883.09	-44.71
883.262	20.82
883.434	37.2
883.606	-22.19
883.778	20.82
883.95	49.49
884.122	-71.34
884.293	-5.8
884.465	78.16
884.637	35.16
884.809	0.34
884.98	74.07
885.152	45.4
885.324	69.97
885.496	-3.75
885.667	-7.85
885.839	8.53
886.011	12.63
886.182	39.25
886.354	61.78
886.525	-1.71
886.697	10.58
886.869	0.34
887.04	39.25
887.212	35.16
887.383	20.82
887.555	10.58
887.726	-5.8
887.897	-24.23
888.069	10.58
888.24	12.63
888.412	22.87
888.583	-3.75
888.754	-11.95
888.926	69.97
889.097	26.96
889.268	2.39
889.44	63.83
889.611	-46.76
889.782	43.35
889.953	-24.23
890.125	24.92
890.296	20.82
890.467	12.63
890.638	-16.04
890.809	-1.71
890.98	16.73
891.151	18.77
891.323	43.35
891.494	-16.04
891.665	72.02
891.836	49.49
892.007	45.4
892.178	65.88
892.349	-20.14
892.52	-50.86
892.691	-16.04
892.862	4.44
893.032	33.11
893.203	29.01
893.374	-57
893.545	10.58
893.716	24.92
893.887	37.2
894.057	12.63
894.228	20.82
894.399	14.68
894.57	86.36
894.74	35.16
894.911	-3.75
895.082	-77.48
895.253	55.64
895.423	-32.43
895.594	-22.19
895.764	-24.23
895.935	82.26
896.106	29.01
896.276	-30.38
896.447	-61.1
896.617	96.6
896.788	-59.05
896.958	37.2
897.129	35.16
897.299	-26.28
897.47	-16.04
897.64	78.16
897.81	-81.58
897.981	-26.28
898.151	2.39
898.322	-32.43
898.492	2.39
898.662	-26.28
898.832	-11.95
899.003	-34.47
899.173	96.6
899.343	-32.43
899.513	43.35
