Data from USB4F104151__246__11-11-36-489.txt Node

Date: Wed Mar 12 11:11:36 EDT 2025
User: louis
Spectrometer: USB4F10415
Trigger mode: 4
Integration Time (sec): 2.000000E-2
Scans to average: 1
Electric dark correction enabled: true
Nonlinearity correction enabled: false
Boxcar width: 0
XAxis mode: Wavelengths
Number of Pixels in Spectrum: 3648
>>>>>Begin Spectral Data<<<<<
178.204	-19.97
178.424	-19.97
178.644	-19.97
178.864	-128.51
179.084	10.75
179.304	-13.82
179.524	10.75
179.744	10.75
179.964	16.9
180.184	-9.73
180.404	-54.78
180.624	-17.92
180.844	49.66
181.064	-58.88
181.283	51.71
181.503	16.9
181.723	-1.54
181.943	-22.02
182.163	78.33
182.383	53.76
182.602	35.33
182.822	33.28
183.042	59.9
183.262	47.62
183.482	55.81
183.701	61.95
183.921	29.18
184.141	72.19
184.361	31.23
184.58	12.8
184.8	47.62
185.02	12.8
185.239	96.77
185.459	29.18
185.679	51.71
185.898	96.77
186.118	25.09
186.338	27.14
186.557	90.62
186.777	14.85
186.997	119.29
187.216	57.86
187.436	92.67
187.655	104.96
187.875	31.23
188.095	86.53
188.314	119.29
188.534	100.86
188.753	80.38
188.973	66.05
189.192	61.95
189.412	59.9
189.631	49.66
189.851	78.33
190.07	90.62
190.29	43.52
190.509	90.62
190.729	-7.68
190.948	76.29
191.168	123.39
191.387	127.49
191.607	51.71
191.826	66.05
192.045	96.77
192.265	76.29
192.484	115.2
192.704	109.05
192.923	68.09
193.142	61.95
193.362	70.14
193.581	100.86
193.8	39.42
194.02	49.66
194.239	35.33
194.458	84.48
194.678	72.19
194.897	51.71
195.116	-54.78
195.335	-11.78
195.555	53.76
195.774	160.25
195.993	72.19
196.212	80.38
196.432	111.1
196.651	61.95
196.87	47.62
197.089	98.81
197.308	127.49
197.528	49.66
197.747	66.05
197.966	39.42
198.185	59.9
198.404	74.24
198.623	82.43
198.842	88.57
199.062	96.77
199.281	78.33
199.5	14.85
199.719	43.52
199.938	57.86
200.157	72.19
200.376	41.47
200.595	94.72
200.814	113.15
201.033	61.95
201.252	0.51
201.471	111.1
201.69	100.86
201.909	76.29
202.128	59.9
202.347	94.72
202.566	6.66
202.785	35.33
203.004	16.9
203.223	12.8
203.442	-24.06
203.661	12.8
203.879	92.67
204.098	143.87
204.317	20.99
204.536	43.52
204.755	47.62
204.974	150.01
205.193	86.53
205.411	133.63
205.63	18.94
205.849	43.52
206.068	55.81
206.287	147.97
206.505	64
206.724	76.29
206.943	37.38
207.162	94.72
207.381	94.72
207.599	47.62
207.818	-26.11
208.037	59.9
208.255	92.67
208.474	68.09
208.693	113.15
208.911	59.9
209.13	100.86
209.349	64
209.567	72.19
209.786	64
210.005	123.39
210.223	143.87
210.442	29.18
210.661	82.43
210.879	49.66
211.098	53.76
211.316	23.04
211.535	100.86
211.753	57.86
211.972	94.72
212.191	53.76
212.409	55.81
212.628	-24.06
212.846	88.57
213.065	76.29
213.283	18.94
213.502	20.99
213.72	123.39
213.938	72.19
214.157	10.75
214.375	80.38
214.594	82.43
214.812	96.77
215.031	102.91
215.249	55.81
215.467	82.43
215.686	113.15
215.904	98.81
216.122	68.09
216.341	55.81
216.559	45.57
216.778	111.1
216.996	150.01
217.214	37.38
217.432	-15.87
217.651	18.94
217.869	70.14
218.087	94.72
218.306	-7.68
218.524	43.52
218.742	37.38
218.96	57.86
219.179	45.57
219.397	55.81
219.615	78.33
219.833	92.67
220.051	49.66
220.27	72.19
220.488	-5.63
220.706	80.38
220.924	39.42
221.142	72.19
221.36	66.05
221.578	154.11
221.796	47.62
222.015	55.81
222.233	59.9
222.451	96.77
222.669	4.61
222.887	45.57
223.105	31.23
223.323	39.42
223.541	107.01
223.759	109.05
223.977	59.9
224.195	80.38
224.413	64
224.631	78.33
224.849	113.15
225.067	94.72
225.285	47.62
225.503	92.67
225.721	35.33
225.939	18.94
226.157	47.62
226.375	121.34
226.592	51.71
226.81	2.56
227.028	84.48
227.246	84.48
227.464	-19.97
227.682	96.77
227.9	78.33
228.117	57.86
228.335	76.29
228.553	113.15
228.771	80.38
228.989	117.25
229.206	64
229.424	0.51
229.642	59.9
229.86	64
230.077	141.82
230.295	117.25
230.513	23.04
230.731	27.14
230.948	78.33
231.166	35.33
231.384	45.57
231.601	96.77
231.819	55.81
232.037	74.24
232.254	-11.78
232.472	55.81
232.689	104.96
232.907	152.06
233.125	43.52
233.342	117.25
233.56	-13.82
233.777	121.34
233.995	92.67
234.213	94.72
234.43	78.33
234.648	90.62
234.865	141.82
235.083	100.86
235.3	119.29
235.518	45.57
235.735	80.38
235.953	59.9
236.17	41.47
236.388	57.86
236.605	96.77
236.822	143.87
237.04	61.95
237.257	25.09
237.475	45.57
237.692	59.9
237.909	31.23
238.127	68.09
238.344	82.43
238.562	-3.58
238.779	41.47
238.996	41.47
239.214	68.09
239.431	154.11
239.648	41.47
239.865	68.09
240.083	66.05
240.3	107.01
240.517	45.57
240.735	96.77
240.952	72.19
241.169	27.14
241.386	47.62
241.603	86.53
241.821	78.33
242.038	129.53
242.255	152.06
242.472	-32.26
242.689	2.56
242.907	117.25
243.124	16.9
243.341	86.53
243.558	137.73
243.775	33.28
243.992	35.33
244.209	80.38
244.426	47.62
244.643	57.86
244.86	74.24
245.078	84.48
245.295	57.86
245.512	35.33
245.729	31.23
245.946	80.38
246.163	119.29
246.38	94.72
246.597	0.51
246.814	76.29
247.031	51.71
247.248	47.62
247.464	57.86
247.681	31.23
247.898	61.95
248.115	100.86
248.332	74.24
248.549	64
248.766	154.11
248.983	64
249.2	39.42
249.417	98.81
249.633	51.71
249.85	156.16
250.067	14.85
250.284	104.96
250.501	104.96
250.717	90.62
250.934	16.9
251.151	68.09
251.368	49.66
251.585	98.81
251.801	84.48
252.018	55.81
252.235	51.71
252.451	55.81
252.668	74.24
252.885	49.66
253.102	78.33
253.318	109.05
253.535	53.76
253.752	68.09
253.968	43.52
254.185	66.05
254.401	53.76
254.618	12.8
254.835	12.8
255.051	84.48
255.268	66.05
255.484	16.9
255.701	55.81
255.917	80.38
256.134	-5.63
256.351	111.1
256.567	29.18
256.784	10.75
257	39.42
257.217	86.53
257.433	39.42
257.65	104.96
257.866	96.77
258.082	16.9
258.299	10.75
258.515	113.15
258.732	61.95
258.948	10.75
259.165	100.86
259.381	49.66
259.597	61.95
259.814	94.72
260.03	86.53
260.246	59.9
260.463	61.95
260.679	31.23
260.895	145.92
261.112	117.25
261.328	129.53
261.544	117.25
261.761	94.72
261.977	92.67
262.193	109.05
262.409	61.95
262.626	96.77
262.842	70.14
263.058	82.43
263.274	18.94
263.49	94.72
263.707	80.38
263.923	29.18
264.139	51.71
264.355	61.95
264.571	84.48
264.787	45.57
265.004	96.77
265.22	78.33
265.436	49.66
265.652	55.81
265.868	96.77
266.084	61.95
266.3	43.52
266.516	18.94
266.732	53.76
266.948	86.53
267.164	43.52
267.38	35.33
267.596	51.71
267.812	111.1
268.028	43.52
268.244	59.9
268.46	70.14
268.676	39.42
268.892	96.77
269.108	51.71
269.324	51.71
269.54	51.71
269.756	123.39
269.972	84.48
270.188	104.96
270.403	0.51
270.619	80.38
270.835	27.14
271.051	72.19
271.267	82.43
271.483	88.57
271.698	59.9
271.914	80.38
272.13	80.38
272.346	94.72
272.562	82.43
272.777	61.95
272.993	96.77
273.209	74.24
273.425	100.86
273.64	113.15
273.856	31.23
274.072	55.81
274.287	43.52
274.503	49.66
274.719	70.14
274.934	145.92
275.15	53.76
275.366	82.43
275.581	-9.73
275.797	104.96
276.012	107.01
276.228	70.14
276.444	107.01
276.659	98.81
276.875	8.7
277.09	168.45
277.306	121.34
277.521	61.95
277.737	57.86
277.952	20.99
278.168	88.57
278.383	35.33
278.599	53.76
278.814	53.76
279.03	74.24
279.245	68.09
279.461	61.95
279.676	100.86
279.892	88.57
280.107	64
280.322	84.48
280.538	59.9
280.753	70.14
280.969	43.52
281.184	53.76
281.399	156.16
281.615	70.14
281.83	92.67
282.045	16.9
282.26	29.18
282.476	74.24
282.691	66.05
282.906	37.38
283.122	90.62
283.337	31.23
283.552	104.96
283.767	51.71
283.983	70.14
284.198	88.57
284.413	113.15
284.628	37.38
284.843	39.42
285.058	129.53
285.274	51.71
285.489	10.75
285.704	98.81
285.919	39.42
286.134	86.53
286.349	72.19
286.564	35.33
286.779	104.96
286.995	123.39
287.21	-71.17
287.425	182.78
287.64	94.72
287.855	66.05
288.07	59.9
288.285	166.4
288.5	82.43
288.715	78.33
288.93	45.57
289.145	2.56
289.36	98.81
289.575	33.28
289.79	133.63
290.004	68.09
290.219	84.48
290.434	98.81
290.649	8.7
290.864	68.09
291.079	35.33
291.294	55.81
291.509	109.05
291.724	78.33
291.938	39.42
292.153	31.23
292.368	127.49
292.583	94.72
292.798	31.23
293.012	16.9
293.227	59.9
293.442	88.57
293.657	160.25
293.871	102.91
294.086	88.57
294.301	92.67
294.516	111.1
294.73	94.72
294.945	27.14
295.16	23.04
295.374	20.99
295.589	115.2
295.804	18.94
296.018	74.24
296.233	90.62
296.447	74.24
296.662	150.01
296.877	51.71
297.091	109.05
297.306	117.25
297.52	123.39
297.735	104.96
297.949	72.19
298.164	147.97
298.378	94.72
298.593	53.76
298.807	23.04
299.022	90.62
299.236	39.42
299.451	43.52
299.665	80.38
299.88	51.71
300.094	88.57
300.309	39.42
300.523	113.15
300.737	113.15
300.952	100.86
301.166	100.86
301.381	27.14
301.595	29.18
301.809	92.67
302.024	53.76
302.238	68.09
302.452	64
302.667	119.29
302.881	143.87
303.095	39.42
303.309	145.92
303.524	92.67
303.738	61.95
303.952	123.39
304.166	92.67
304.381	-9.73
304.595	84.48
304.809	31.23
305.023	72.19
305.237	104.96
305.452	55.81
305.666	150.01
305.88	98.81
306.094	59.9
306.308	113.15
306.522	61.95
306.736	84.48
306.95	59.9
307.164	59.9
307.379	39.42
307.593	98.81
307.807	98.81
308.021	92.67
308.235	64
308.449	104.96
308.663	100.86
308.877	96.77
309.091	143.87
309.305	12.8
309.519	47.62
309.733	150.01
309.947	23.04
310.161	43.52
310.374	78.33
310.588	80.38
310.802	90.62
311.016	78.33
311.23	78.33
311.444	88.57
311.658	117.25
311.872	72.19
312.085	49.66
312.299	102.91
312.513	154.11
312.727	102.91
312.941	111.1
313.154	45.57
313.368	18.94
313.582	109.05
313.796	102.91
314.009	64
314.223	64
314.437	18.94
314.651	78.33
314.864	-24.06
315.078	27.14
315.292	98.81
315.505	70.14
315.719	47.62
315.933	113.15
316.146	119.29
316.36	51.71
316.573	70.14
316.787	88.57
317.001	66.05
317.214	-1.54
317.428	66.05
317.641	55.81
317.855	35.33
318.068	117.25
318.282	80.38
318.495	137.73
318.709	35.33
318.922	-15.87
319.136	100.86
319.349	10.75
319.563	74.24
319.776	84.48
319.99	119.29
320.203	127.49
320.417	33.28
320.63	113.15
320.843	174.59
321.057	37.38
321.27	135.68
321.483	125.44
321.697	135.68
321.91	76.29
322.124	45.57
322.337	94.72
322.55	109.05
322.763	84.48
322.977	82.43
323.19	125.44
323.403	123.39
323.617	111.1
323.83	162.3
324.043	4.61
324.256	92.67
324.469	100.86
324.683	76.29
324.896	84.48
325.109	57.86
325.322	43.52
325.535	180.73
325.748	61.95
325.962	133.63
326.175	-24.06
326.388	45.57
326.601	109.05
326.814	59.9
327.027	70.14
327.24	201.21
327.453	125.44
327.666	53.76
327.879	98.81
328.092	2.56
328.305	55.81
328.518	78.33
328.731	57.86
328.944	150.01
329.157	37.38
329.37	96.77
329.583	39.42
329.796	96.77
330.009	154.11
330.222	-19.97
330.435	96.77
330.648	143.87
330.861	100.86
331.073	53.76
331.286	199.16
331.499	129.53
331.712	84.48
331.925	121.34
332.138	102.91
332.35	64
332.563	72.19
332.776	61.95
332.989	84.48
333.202	82.43
333.414	80.38
333.627	61.95
333.84	88.57
334.053	18.94
334.265	94.72
334.478	72.19
334.691	111.1
334.903	90.62
335.116	43.52
335.329	113.15
335.541	102.91
335.754	90.62
335.966	47.62
336.179	41.47
336.392	109.05
336.604	92.67
336.817	125.44
337.029	51.71
337.242	-9.73
337.454	51.71
337.667	23.04
337.88	125.44
338.092	104.96
338.305	43.52
338.517	127.49
338.729	84.48
338.942	31.23
339.154	49.66
339.367	23.04
339.579	66.05
339.792	39.42
340.004	145.92
340.217	84.48
340.429	72.19
340.641	66.05
340.854	39.42
341.066	59.9
341.278	84.48
341.491	61.95
341.703	139.77
341.915	43.52
342.128	29.18
342.34	141.82
342.552	35.33
342.764	39.42
342.977	117.25
343.189	6.66
343.401	107.01
343.613	4.61
343.826	55.81
344.038	88.57
344.25	88.57
344.462	90.62
344.674	45.57
344.886	29.18
345.099	78.33
345.311	68.09
345.523	131.58
345.735	55.81
345.947	111.1
346.159	119.29
346.371	107.01
346.583	14.85
346.795	123.39
347.007	12.8
347.219	80.38
347.431	98.81
347.643	115.2
347.855	98.81
348.067	158.21
348.279	-7.68
348.491	76.29
348.703	70.14
348.915	96.77
349.127	82.43
349.339	84.48
349.551	102.91
349.763	113.15
349.975	66.05
350.187	96.77
350.399	117.25
350.61	111.1
350.822	23.04
351.034	59.9
351.246	102.91
351.458	88.57
351.669	174.59
351.881	111.1
352.093	53.76
352.305	70.14
352.517	57.86
352.728	158.21
352.94	6.66
353.152	150.01
353.363	102.91
353.575	70.14
353.787	119.29
353.999	53.76
354.21	51.71
354.422	57.86
354.633	74.24
354.845	166.4
355.057	117.25
355.268	88.57
355.48	76.29
355.692	47.62
355.903	92.67
356.115	92.67
356.326	74.24
356.538	127.49
356.749	143.87
356.961	74.24
357.172	109.05
357.384	88.57
357.595	166.4
357.807	98.81
358.018	117.25
358.23	100.86
358.441	107.01
358.653	129.53
358.864	59.9
359.075	70.14
359.287	158.21
359.498	72.19
359.709	88.57
359.921	10.75
360.132	86.53
360.344	98.81
360.555	49.66
360.766	121.34
360.977	55.81
361.189	121.34
361.4	80.38
361.611	111.1
361.823	96.77
362.034	47.62
362.245	117.25
362.456	143.87
362.667	66.05
362.879	80.38
363.09	47.62
363.301	78.33
363.512	88.57
363.723	119.29
363.935	100.86
364.146	113.15
364.357	102.91
364.568	88.57
364.779	119.29
364.99	174.59
365.201	96.77
365.412	147.97
365.623	72.19
365.834	55.81
366.045	150.01
366.256	57.86
366.467	176.64
366.678	92.67
366.889	76.29
367.1	72.19
367.311	82.43
367.522	55.81
367.733	125.44
367.944	66.05
368.155	68.09
368.366	117.25
368.577	133.63
368.788	96.77
368.999	80.38
369.209	117.25
369.42	162.3
369.631	197.12
369.842	84.48
370.053	45.57
370.264	70.14
370.474	47.62
370.685	107.01
370.896	53.76
371.107	102.91
371.317	76.29
371.528	100.86
371.739	76.29
371.95	35.33
372.16	92.67
372.371	39.42
372.582	117.25
372.792	113.15
373.003	80.38
373.214	111.1
373.424	82.43
373.635	14.85
373.846	119.29
374.056	82.43
374.267	158.21
374.477	70.14
374.688	92.67
374.898	113.15
375.109	113.15
375.319	78.33
375.53	55.81
375.74	16.9
375.951	86.53
376.161	129.53
376.372	143.87
376.582	117.25
376.793	12.8
377.003	76.29
377.214	53.76
377.424	109.05
377.635	141.82
377.845	119.29
378.055	94.72
378.266	111.1
378.476	66.05
378.686	123.39
378.897	121.34
379.107	172.54
379.317	131.58
379.528	64
379.738	-11.78
379.948	74.24
380.158	94.72
380.369	23.04
380.579	133.63
380.789	98.81
380.999	68.09
381.21	141.82
381.42	125.44
381.63	39.42
381.84	109.05
382.05	82.43
382.261	133.63
382.471	80.38
382.681	172.54
382.891	76.29
383.101	78.33
383.311	31.23
383.521	92.67
383.731	121.34
383.941	98.81
384.151	88.57
384.361	90.62
384.571	27.14
384.781	55.81
384.991	82.43
385.201	127.49
385.411	64
385.621	107.01
385.831	80.38
386.041	104.96
386.251	53.76
386.461	150.01
386.671	55.81
386.881	66.05
387.091	25.09
387.301	152.06
387.511	129.53
387.72	143.87
387.93	78.33
388.14	98.81
388.35	86.53
388.56	109.05
388.769	129.53
388.979	100.86
389.189	29.18
389.399	100.86
389.609	78.33
389.818	137.73
390.028	123.39
390.238	154.11
390.447	96.77
390.657	111.1
390.867	133.63
391.076	31.23
391.286	133.63
391.496	131.58
391.705	78.33
391.915	109.05
392.125	55.81
392.334	154.11
392.544	102.91
392.753	174.59
392.963	127.49
393.172	113.15
393.382	129.53
393.591	164.35
393.801	70.14
394.01	90.62
394.22	137.73
394.429	166.4
394.639	131.58
394.848	154.11
395.058	27.14
395.267	123.39
395.477	78.33
395.686	154.11
395.895	84.48
396.105	252.41
396.314	47.62
396.524	119.29
396.733	133.63
396.942	102.91
397.152	117.25
397.361	166.4
397.57	64
397.78	154.11
397.989	154.11
398.198	174.59
398.407	100.86
398.617	70.14
398.826	182.78
399.035	158.21
399.244	162.3
399.453	137.73
399.663	164.35
399.872	207.36
400.081	125.44
400.29	152.06
400.499	96.77
400.708	150.01
400.917	143.87
401.127	188.93
401.336	150.01
401.545	207.36
401.754	193.02
401.963	215.55
402.172	160.25
402.381	158.21
402.59	137.73
402.799	184.83
403.008	227.84
403.217	172.54
403.426	195.07
403.635	141.82
403.844	164.35
404.053	184.83
404.262	244.22
404.471	236.03
404.68	102.91
404.888	176.64
405.097	197.12
405.306	180.73
405.515	264.7
405.724	207.36
405.933	219.64
406.142	254.46
406.35	223.74
406.559	291.32
406.768	297.47
406.977	301.56
407.185	254.46
407.394	369.15
407.603	242.17
407.812	297.47
408.02	340.47
408.229	301.56
408.438	338.43
408.646	242.17
408.855	350.71
409.064	348.67
409.272	295.42
409.481	340.47
409.69	332.28
409.898	324.09
410.107	399.87
410.315	414.2
410.524	375.29
410.733	446.97
410.941	389.63
411.15	412.15
411.358	438.78
411.567	428.54
411.775	451.07
411.984	489.98
412.192	516.6
412.401	537.08
412.609	586.23
412.818	547.32
413.026	606.71
413.234	614.9
413.443	524.79
413.651	582.14
413.86	639.48
414.068	694.77
414.276	733.68
414.485	657.91
414.693	748.02
414.901	764.4
415.11	801.27
415.318	831.99
415.526	819.7
415.734	881.14
415.943	866.8
416.151	940.53
416.359	973.3
416.567	993.78
416.776	1014.26
416.984	1042.93
417.192	1092.08
417.4	1018.35
417.608	1171.95
417.817	1208.81
418.025	1200.62
418.233	1268.2
418.441	1237.49
418.649	1364.46
418.857	1446.38
419.065	1432.04
419.273	1470.95
419.481	1587.69
419.689	1602.02
419.897	1743.33
420.105	1688.04
420.313	1737.19
420.521	1855.97
420.729	1749.48
420.937	2034.14
421.145	2056.67
421.353	2060.77
421.561	2120.16
421.769	2195.93
421.977	2294.24
422.185	2210.27
422.393	2339.29
422.601	2513.37
422.809	2492.89
423.017	2539.99
423.224	2697.69
423.432	2783.7
423.64	2775.51
423.848	2980.31
424.056	2894.29
424.263	3146.19
424.471	3234.25
424.679	3185.1
424.887	3338.7
425.094	3475.91
425.302	3463.63
425.51	3488.2
425.718	3693
425.925	3819.97
426.133	3860.93
426.341	4116.93
426.548	4370.88
426.756	4364.73
426.964	4340.16
427.171	4655.54
427.379	4868.53
427.586	4735.42
427.794	5015.99
428.001	5188.02
428.209	5429.68
428.417	5169.59
428.624	5593.51
428.832	5831.08
429.039	5646.76
429.247	5661.1
429.454	6117.79
429.662	6668.7
429.869	6158.75
430.076	6551.96
430.284	6463.9
430.491	6562.2
430.699	7125.4
430.906	7027.09
431.114	7324.05
431.321	7563.66
431.528	7805.32
431.736	8149.38
431.943	8302.98
432.15	8139.14
432.358	8333.7
432.565	8700.28
432.772	8640.89
432.979	9073.01
433.187	9093.49
433.394	9261.43
433.601	9927.02
433.808	9976.17
434.016	10103.14
434.223	10410.34
434.43	11061.59
434.637	10803.55
434.844	11518.29
435.052	11614.54
435.259	11495.76
435.466	11731.28
435.673	11565.39
435.88	12489.03
436.087	13084.98
436.294	13074.74
436.501	12566.85
436.708	12702.01
436.915	13293.88
437.122	13728.05
437.329	13930.8
437.537	14426.4
437.743	14721.31
437.95	14596.39
438.157	15141.14
438.364	15685.9
438.571	15317.27
438.778	15653.14
438.985	17289.46
439.192	16640.26
439.399	17006.84
439.606	16808.19
439.813	17654
440.02	18505.96
440.227	18501.86
440.433	18120.94
440.64	18743.52
440.847	18452.71
441.054	18927.84
441.261	20320.46
441.467	20195.53
441.674	20453.58
441.881	21188.8
442.088	21156.03
442.294	21110.97
442.501	21489.85
442.708	22024.37
442.914	22698.15
443.121	23906.45
443.328	23054.5
443.534	24715.4
443.741	24006.8
443.948	23580.82
444.154	25389.18
444.361	25438.33
444.568	25452.67
444.774	25448.57
444.981	25809.01
445.187	26663.02
445.394	27553.88
445.6	27015.27
445.807	29986.87
446.013	28762.19
446.22	28893.26
446.426	30023.73
446.633	30335.03
446.839	31520.8
447.046	30246.96
447.252	31821.85
447.459	31911.96
447.665	31946.78
447.871	32954.38
448.078	34400.24
448.284	32831.5
448.491	33662.97
448.697	34965.48
448.903	35690.46
449.11	35790.81
449.316	34820.08
449.522	35876.83
449.728	36618.19
449.935	36622.29
450.141	36806.61
450.347	37574.59
450.553	36962.25
450.76	36886.48
450.966	38049.72
451.172	37552.07
451.378	38576.05
451.584	37967.8
451.791	38631.35
451.997	38698.93
452.203	39208.87
452.409	39083.95
452.615	38944.69
452.821	37402.57
453.027	36775.89
453.233	39061.42
453.44	37257.16
453.646	37855.17
453.852	38123.45
454.058	38578.1
454.264	37412.81
454.47	38166.46
454.676	37277.64
454.882	38649.78
455.088	34924.52
455.294	35612.64
455.5	36175.83
455.705	36466.64
455.911	34795.5
456.117	34498.55
456.323	33738.75
456.529	31850.52
456.735	33814.52
456.941	32489.49
457.147	31834.14
457.352	31254.56
457.558	30875.69
457.764	30875.69
457.97	29882.42
458.176	29696.06
458.381	29440.06
458.587	28176.47
458.793	28315.73
458.999	26757.22
459.204	28692.55
459.41	28008.53
459.616	26017.91
459.821	25802.87
460.027	25997.43
460.233	25454.72
460.438	24236.17
460.644	24600.71
460.85	23087.26
461.055	23029.92
461.261	22855.84
461.466	21153.98
461.672	20773.06
461.878	22132.91
462.083	20601.03
462.289	20209.87
462.494	20029.65
462.7	19067.1
462.905	18575.59
463.111	18976.99
463.316	19450.07
463.522	18897.12
463.727	19239.13
463.932	18960.61
464.138	18688.23
464.343	18520.29
464.549	18049.26
464.754	18905.31
464.959	18890.98
465.165	18587.88
465.37	18010.35
465.575	17174.78
465.781	17893.61
465.986	18024.68
466.191	17209.59
466.397	17111.29
466.602	16005.39
466.807	16871.68
467.012	16820.48
467.218	16804.1
467.423	16611.59
467.628	16679.17
467.833	17291.51
468.038	16537.86
468.244	16165.13
468.449	17029.37
468.654	16081.16
468.859	16310.54
469.064	16208.14
469.269	15569.17
469.474	15749.39
469.679	16021.77
469.885	15376.66
470.09	15765.78
470.295	15792.4
470.5	15196.44
470.705	15522.07
470.91	14907.68
471.115	14823.71
471.32	15042.84
471.525	14745.89
471.73	14340.39
471.935	14551.33
472.139	14250.28
472.344	14260.52
472.549	14102.82
472.754	14065.96
472.959	13707.57
473.164	13381.94
473.369	13138.23
473.574	13791.53
473.778	13621.55
473.983	13533.49
474.188	13388.08
474.393	12646.72
474.598	12826.94
474.802	12718.4
475.007	12534.08
475.212	12437.83
475.417	12134.73
475.621	12116.3
475.826	12216.65
476.031	11974.99
476.235	11757.9
476.44	11917.64
476.645	11698.51
476.849	11655.5
477.054	11493.71
477.259	11358.55
477.463	11417.94
477.668	11108.69
477.872	11303.25
478.077	11026.78
478.282	10920.28
478.486	10715.48
478.691	10697.05
478.895	10631.52
479.1	10707.29
479.304	10762.59
479.509	10412.39
479.713	10506.59
479.918	10008.94
480.122	10135.91
480.326	9951.59
480.531	10148.2
480.735	9902.44
480.94	9861.48
481.144	10297.7
481.348	9750.89
481.553	10019.18
481.757	9623.92
481.961	10053.99
482.166	9865.58
482.37	9879.91
482.574	9789.8
482.778	9683.31
482.983	9986.41
483.187	9863.53
483.391	9929.06
483.595	9716.08
483.8	9562.48
484.004	9763.18
484.208	9933.16
484.412	9687.4
484.616	9779.56
484.821	9634.16
485.025	9525.61
485.229	9875.82
485.433	9607.53
485.637	9722.22
485.841	9615.73
486.045	9771.37
486.249	9650.54
486.453	9730.41
486.657	9697.64
486.861	9752.94
487.065	9388.4
487.269	9922.92
487.473	9476.46
487.677	9875.82
487.881	9734.51
488.085	9625.97
488.289	9869.67
488.493	9709.93
488.697	9886.06
488.901	9730.41
489.105	9640.3
489.309	9861.48
489.512	9810.28
489.716	9734.51
489.92	9963.88
490.124	9836.91
490.328	9861.48
490.531	9972.07
490.735	10021.22
490.939	10101.09
491.143	9939.3
491.346	10064.23
491.55	10193.25
491.754	10033.51
491.958	10215.78
492.161	9965.93
492.365	10211.68
492.569	9939.3
492.772	10164.58
492.976	10195.3
493.18	10355.04
493.383	10451.3
493.587	10586.46
493.79	10682.72
493.994	10479.97
494.197	10654.05
494.401	10738.01
494.605	10686.81
494.808	10910.04
495.012	11063.64
495.215	10936.67
495.419	11180.37
495.622	11077.97
495.825	11290.96
496.029	11229.52
496.232	11503.95
496.436	11579.73
496.639	11735.37
496.843	11616.59
497.046	11868.49
497.249	12325.19
497.453	12134.73
497.656	12157.25
497.859	12169.54
498.063	12155.21
498.266	12560.7
498.469	12593.47
498.673	12603.71
498.876	13019.45
499.079	13107.51
499.282	12896.57
499.485	13273.4
499.689	13427
499.892	13527.35
500.095	13613.36
500.298	13820.21
500.501	13541.68
500.705	14039.34
500.908	14360.87
501.111	14113.06
501.314	14686.5
501.517	14672.16
501.72	14938.4
501.923	14848.29
502.126	15354.13
502.329	15251.74
502.532	15472.92
502.735	15585.55
502.938	15841.55
503.141	15788.3
503.344	16158.99
503.547	16187.66
503.75	16576.77
503.953	16505.09
504.156	16630.02
504.359	17004.8
504.562	17086.72
504.765	17615.09
504.968	17506.55
505.17	17656.05
505.373	17811.7
505.576	17987.82
505.779	18147.56
505.982	18563.3
506.185	18845.92
506.387	18790.63
506.59	18880.74
506.793	19343.58
506.996	19273.95
507.198	19636.44
507.401	19724.5
507.604	20035.79
507.807	20308.17
508.009	20791.49
508.212	20641.99
508.415	20969.66
508.617	21086.4
508.82	21151.93
509.022	21047.49
509.225	21627.06
509.428	21899.44
509.63	22077.62
509.833	21930.16
510.035	22554.79
510.238	22456.49
510.44	22868.13
510.643	22894.75
510.845	23402.65
511.048	23382.17
511.25	23648.41
511.453	23775.38
511.655	24696.97
511.858	24086.67
512.06	24291.47
512.262	24547.47
512.465	24686.73
512.667	25108.61
512.87	25426.04
513.072	25217.15
513.274	26009.72
513.477	25976.95
513.679	26404.97
513.881	26171.5
514.084	26792.04
514.286	26863.72
514.488	26814.57
514.69	27637.85
514.893	27717.72
515.095	28020.82
515.297	28608.59
515.499	28358.74
515.701	28713.03
515.904	29218.88
516.106	29163.59
516.308	29225.03
516.51	29528.13
516.712	29579.32
516.914	30105.65
517.116	30681.13
517.318	30308.4
517.52	30836.78
517.722	30853.16
517.925	31326.24
518.127	31590.43
518.329	31586.33
518.531	31840.28
518.733	32249.88
518.935	31973.4
519.136	32739.34
519.338	33263.62
519.54	33114.12
519.742	33542.14
519.944	33800.19
520.146	34242.55
520.348	34246.65
520.55	34287.6
520.752	34643.95
520.954	35352.55
521.155	35065.83
521.357	35557.35
521.559	35473.38
521.761	36194.26
521.963	36253.65
522.164	36489.17
522.366	36515.79
522.568	36480.98
522.77	36947.92
522.971	37507.01
523.173	37343.17
523.375	37720
523.576	37695.42
523.778	37978.04
523.98	38336.44
524.181	38408.12
524.383	38291.38
524.584	39034.8
524.786	38584.24
524.988	39006.12
525.189	39600.04
525.391	39321.51
525.592	39833.5
525.794	39536.55
525.995	39681.95
526.197	39858.08
526.398	40230.81
526.6	40435.61
526.801	40730.51
527.003	41213.84
527.204	40558.49
527.406	41371.53
527.607	41158.54
527.808	41201.55
528.01	40978.32
528.211	41275.27
528.412	41686.92
528.614	41678.72
528.815	41836.42
529.016	41977.73
529.218	41652.1
529.419	41867.14
529.62	41994.11
529.822	42078.08
530.023	42164.09
530.224	42237.82
530.425	42280.83
530.626	42090.37
530.828	42133.37
531.029	43175.79
531.23	42669.94
531.431	42624.89
531.632	42921.84
531.833	42850.16
532.035	43042.67
532.236	42684.28
532.437	43065.2
532.638	43114.35
532.839	42975.09
533.04	43071.34
533.241	42762.1
533.442	43521.9
533.643	43085.68
533.844	43243.37
534.045	42854.26
534.246	42663.8
534.447	43310.96
534.648	43192.17
534.849	43476.84
535.05	42839.92
535.251	43368.3
535.451	43399.02
535.652	43560.81
535.853	43212.65
536.054	43196.27
536.255	43188.08
536.456	43073.39
536.657	43822.95
536.857	43270
537.058	43032.43
537.259	43622.25
537.46	43278.19
537.66	43114.35
537.861	43194.22
538.062	43333.48
538.263	43612.01
538.463	43245.42
538.664	43419.5
538.865	43294.57
539.065	43310.96
539.266	42839.92
539.466	43872.1
539.667	42827.63
539.868	43870.05
540.068	43329.39
540.269	43327.34
540.469	43540.33
540.67	42944.37
540.87	43173.74
541.071	43511.66
541.271	42862.45
541.472	43265.9
541.672	42930.03
541.873	42950.51
542.073	42506.1
542.274	43466.6
542.474	43155.31
542.675	42708.85
542.875	43030.38
543.075	42893.17
543.276	42540.92
543.476	43087.73
543.676	42981.23
543.877	43057.01
544.077	43292.52
544.277	42950.51
544.478	42829.68
544.678	42817.39
544.878	42659.7
545.078	43186.03
545.279	42803.06
545.479	42600.31
545.679	42573.69
545.879	42909.55
546.079	42987.38
546.28	42884.98
546.48	42682.23
546.68	43202.41
546.88	42719.09
547.08	42923.89
547.28	42489.72
547.48	42123.13
547.68	42927.98
547.88	41820.03
548.081	42774.39
548.281	42790.77
548.481	42350.46
548.681	42805.11
548.881	42422.14
549.081	42622.84
549.28	42026.88
549.48	42770.29
549.68	42514.3
549.88	42907.51
550.08	42213.24
550.28	42590.07
550.48	42139.52
550.68	43018.1
550.88	42237.82
551.08	42608.5
551.279	42448.76
551.479	42295.16
551.679	42295.16
551.879	42366.84
552.079	42667.89
552.278	42336.12
552.478	42200.96
552.678	42354.55
552.878	42397.56
553.077	42231.68
553.277	41947.01
553.477	42446.71
553.676	42026.88
553.876	42129.28
554.076	42151.8
554.275	42497.91
554.475	41328.52
554.674	42264.44
554.874	41897.86
555.074	41852.8
555.273	42215.29
555.473	42035.07
555.672	41523.08
555.872	41682.82
556.071	41777.03
556.271	41729.92
556.47	41518.98
556.67	41408.39
556.869	41238.41
557.068	41842.56
557.268	41035.66
557.467	41197.45
557.667	41396.1
557.866	41269.13
558.065	41475.98
558.265	41066.38
558.464	41447.3
558.663	41557.89
558.863	40388.5
559.062	41521.03
559.261	40839.06
559.461	41219.98
559.66	40724.37
559.859	40978.32
560.058	40767.38
560.258	40707.99
560.457	40353.69
560.656	40490.9
560.855	40509.33
561.054	40750.99
561.253	40241.05
561.453	40083.36
561.652	40361.88
561.851	40335.26
562.05	39921.57
562.249	39788.45
562.448	40277.91
562.647	40761.23
562.846	40155.04
563.045	40007.58
563.244	39413.67
563.443	40341.4
563.642	39573.41
563.841	39755.68
564.04	39294.89
564.239	39516.07
564.438	39354.28
564.637	39425.96
564.836	39641
565.035	38920.11
565.234	39255.98
565.432	39075.76
565.631	39040.94
565.83	39428.01
566.029	38797.23
566.228	38641.59
566.427	38731.7
566.625	38502.32
566.824	38109.11
567.023	38727.6
567.222	37697.47
567.42	38539.19
567.619	38487.99
567.818	38143.93
568.016	37937.09
568.215	38168.51
568.414	38244.28
568.612	38045.63
568.811	37957.56
569.01	37720
569.208	37244.87
569.407	37748.67
569.605	37285.83
569.804	37631.94
570.002	37060.55
570.201	37453.76
570.4	37154.76
570.598	37261.26
570.797	37117.9
570.995	36728.78
571.193	36325.33
571.392	37117.9
571.59	36591.57
571.789	36255.7
571.987	36511.7
572.186	36120.54
572.384	36095.96
572.582	36419.54
572.781	36415.44
572.979	35659.74
573.177	36128.73
573.376	36130.78
573.574	35393.51
573.772	36134.87
573.971	35702.75
574.169	35151.85
574.367	35280.87
574.565	35633.12
574.763	35334.12
574.962	35512.29
575.16	34940.91
575.358	35209.19
575.556	34684.91
575.754	35307.49
575.952	34826.22
576.151	34861.04
576.349	34422.77
576.547	34525.17
576.745	34525.17
576.943	34297.84
577.141	34093.05
577.339	34641.9
577.537	34076.66
577.735	34041.85
577.933	33878.01
578.131	34148.34
578.329	33558.53
578.527	33714.17
578.725	33787.9
578.923	33671.17
579.121	33452.03
579.319	33730.56
579.516	33939.45
579.714	33267.72
579.912	33370.11
580.11	32741.39
580.308	32733.2
580.506	32882.7
580.704	32645.13
580.901	33075.21
581.099	32987.14
581.297	32380.95
581.495	32407.57
581.692	32747.53
581.89	32249.88
582.088	32485.39
582.285	32026.65
582.483	32329.75
582.681	32108.57
582.878	31903.77
583.076	31739.93
583.274	32356.37
583.471	31494.18
583.669	31684.64
583.866	31211.56
584.064	31801.37
584.262	31141.92
584.459	31830.04
584.657	31098.92
584.854	31426.59
585.052	30873.64
585.249	31170.6
585.447	30859.31
585.644	30449.71
585.841	30795.82
586.039	31055.91
586.236	30255.15
586.434	30726.19
586.631	30277.68
586.828	30509.1
587.026	30343.22
587.223	30160.95
587.42	30324.79
587.618	29935.67
587.815	29665.34
588.012	29618.24
588.21	29761.59
588.407	30031.93
588.604	29767.74
588.801	29427.77
588.999	29669.44
589.196	29411.39
589.393	29376.58
589.59	29460.54
589.787	29395.01
589.984	29319.23
590.182	28799.05
590.379	29007.94
590.576	28479.57
590.773	28895.3
590.97	28635.21
591.167	28665.93
591.364	28446.8
591.561	28512.33
591.758	28295.25
591.955	28104.79
592.152	28291.15
592.349	27951.19
592.546	28047.44
592.743	28117.07
592.94	27519.07
593.137	28000.34
593.334	28020.82
593.531	27650.14
593.727	27508.83
593.924	27795.54
594.121	27377.76
594.318	27613.27
594.515	27013.22
594.712	27277.41
594.908	27142.24
595.105	27283.55
595.302	26959.97
595.499	26757.22
595.696	26617.96
595.892	26585.19
596.089	26740.84
596.286	26749.03
596.482	26658.92
596.679	26443.88
596.876	26472.56
597.072	26355.82
597.269	26050.67
597.466	26228.85
597.662	25841.78
597.859	26019.95
598.055	25944.18
598.252	25776.25
598.448	25727.1
598.645	25675.9
598.841	25655.42
599.038	25559.16
599.234	25530.49
599.431	25122.94
599.627	25135.23
599.824	25436.28
600.02	25245.82
600.217	25190.53
600.413	24981.63
600.609	24993.92
600.806	24969.35
601.002	24854.66
601.198	24664.2
601.395	24453.26
601.591	24496.27
601.787	24461.45
601.984	24477.83
602.18	24545.42
602.376	24365.2
602.572	24107.15
602.769	24330.38
602.965	23744.66
603.161	24119.44
603.357	24068.24
603.553	24180.88
603.75	23652.5
603.946	23818.39
604.142	23885.97
604.338	23115.94
604.534	23675.03
604.73	23087.26
604.926	23171.23
605.122	23503
605.318	22954.15
605.514	23109.79
605.71	23031.97
605.906	23048.35
606.102	22810.79
606.298	23111.84
606.494	22886.56
606.69	22671.53
606.886	22864.04
607.082	22692.01
607.278	22667.43
607.474	22380.71
607.67	22511.78
607.866	22048.94
608.062	22706.34
608.257	22194.35
608.453	22169.77
608.649	22505.64
608.845	22007.98
609.041	21977.26
609.236	22104.24
609.432	22038.7
609.628	22255.79
609.824	21987.5
610.019	21977.26
610.215	21905.59
610.411	21727.41
610.606	21850.29
610.802	21870.77
610.998	21811.38
611.193	21735.6
611.389	21600.44
611.584	21360.83
611.78	21502.14
611.976	21483.7
612.171	21514.42
612.367	21381.31
612.562	21227.71
612.758	21049.53
612.953	21045.44
613.149	21174.46
613.344	21108.93
613.539	21336.25
613.735	21147.84
613.93	21278.91
614.126	21084.35
614.321	21149.89
614.517	21235.9
614.712	21106.88
614.907	20947.14
615.103	21072.06
615.298	20693.19
615.493	21209.28
615.688	20752.58
615.884	21020.86
616.079	20543.69
616.274	20814.02
616.47	20359.37
616.665	20502.73
616.86	20596.93
617.055	20615.37
617.25	20521.16
617.445	20685
617.641	20256.97
617.836	20279.5
618.031	19941.58
618.226	20199.63
618.421	20113.61
618.616	20316.36
618.811	19720.4
619.006	19949.78
619.201	19693.78
619.396	19841.23
619.591	19558.61
619.786	19706.07
619.981	19695.83
620.176	19593.43
620.371	19316.95
620.566	19597.52
620.761	19425.5
620.956	19288.28
621.151	18909.41
621.346	19060.96
621.541	18467.05
621.735	18882.78
621.93	18686.18
622.125	18696.42
622.32	18522.34
622.515	18702.56
622.709	18575.59
622.904	18454.76
623.099	18090.22
623.294	18473.19
623.488	18165.99
623.683	17948.91
623.878	17533.17
624.072	17862.9
624.267	17438.97
624.462	17455.35
624.656	17383.67
624.851	17307.9
625.046	17064.19
625.24	17244.41
625.435	17045.76
625.629	17027.32
625.824	17051.9
626.018	16894.21
626.213	16607.49
626.407	16701.7
626.602	16136.46
626.796	16546.05
626.991	16660.74
627.185	16402.69
627.38	16267.53
627.574	15761.68
627.768	15925.52
627.963	16079.11
628.157	15823.12
628.352	15776.02
628.546	15528.21
628.74	15759.63
628.935	15474.96
629.129	15513.88
629.323	15388.95
629.517	15135
629.712	15161.62
629.906	15016.22
630.1	14991.64
630.294	15147.29
630.489	14674.21
630.683	14844.19
630.877	14833.95
631.071	14725.41
631.265	14762.27
631.459	14272.81
631.653	14604.58
631.848	14399.78
632.042	13986.09
632.236	14096.68
632.43	14135.59
632.624	14197.03
632.818	13881.64
633.012	13832.49
633.206	13906.22
633.4	13824.3
633.594	13715.76
633.788	13691.18
633.982	13758.77
634.176	13500.72
634.369	13330.74
634.563	13201.72
634.757	13326.64
634.951	13175.09
635.145	13207.86
635.339	13252.92
635.533	13109.56
635.726	12855.61
635.92	12892.48
636.114	12802.36
636.308	12708.16
636.501	12669.25
636.695	12720.45
636.889	12439.87
637.083	12460.35
637.276	12351.81
637.47	12435.78
637.664	12501.31
637.857	12343.62
638.051	12329.28
638.244	11977.03
638.438	12063.05
638.632	12034.38
638.825	12013.9
639.019	11893.07
639.212	11762
639.406	11710.8
639.599	11825.48
639.793	11651.41
639.986	11555.15
640.18	11628.88
640.373	11626.83
640.567	11323.73
640.76	11483.47
640.954	11137.37
641.147	11012.44
641.34	11077.97
641.534	11123.03
641.727	11106.65
641.92	11135.32
642.114	10885.47
642.307	10684.76
642.5	10852.7
642.694	10582.37
642.887	10893.66
643.08	10692.96
643.273	10572.13
643.467	10510.69
643.66	10486.11
643.853	10531.17
644.046	10336.61
644.239	10316.13
644.432	10236.26
644.626	10017.13
644.819	10107.24
645.012	10117.48
645.205	10107.24
645.398	10205.54
645.591	9818.47
645.784	10051.94
645.977	9922.92
646.17	9849.19
646.363	9808.23
646.556	9546.09
646.749	9593.2
646.942	9527.66
647.135	9585.01
647.328	9386.35
647.521	9511.28
647.714	9363.83
647.907	9263.47
648.099	9230.71
648.292	9441.65
648.485	9300.34
648.678	9021.81
648.871	9023.86
649.064	8868.22
649.256	9173.36
649.449	8892.79
649.642	8823.16
649.835	8620.41
650.027	8817.02
650.22	8663.42
650.413	8677.76
650.605	8905.08
650.798	8561.02
650.991	8618.36
651.183	8466.81
651.376	8421.76
651.568	8421.76
651.761	8493.44
651.954	8466.81
652.146	8180.1
652.339	8288.64
652.531	8104.32
652.724	8503.68
652.916	7963.01
653.109	8278.4
653.301	8036.74
653.494	7942.53
653.686	7825.8
653.879	8096.13
654.071	7895.43
654.263	7999.88
654.456	7879.05
654.648	7842.18
654.84	7561.61
655.033	7616.91
655.225	7578
655.417	7567.76
655.61	7737.74
655.802	7371.15
655.994	7496.08
656.186	7530.89
656.379	7494.03
656.571	7397.78
656.763	7268.75
656.955	7254.42
657.148	7172.5
657.34	7215.51
657.532	7281.04
657.724	7137.68
657.916	7043.48
658.108	7055.76
658.3	6949.27
658.492	6932.89
658.684	7109.01
658.876	6941.08
659.068	6893.97
659.26	7020.95
659.452	7049.62
659.644	6744.47
659.836	6760.86
660.028	6736.28
660.22	6506.91
660.412	6801.82
660.604	6576.54
660.796	6511
660.988	6490.52
661.18	6613.4
661.372	6527.39
661.563	6558.11
661.755	6248.86
661.947	6324.64
662.139	6308.26
662.331	6377.89
662.522	6312.35
662.714	6302.11
662.906	6265.25
663.097	6218.15
663.289	6146.47
663.481	6224.29
663.673	6197.67
663.864	6013.35
664.056	5790.12
664.247	5974.44
664.439	5839.27
664.631	5996.96
664.822	6011.3
665.014	5886.37
665.205	5839.27
665.397	5800.36
665.588	5775.78
665.78	5661.1
665.971	5851.56
666.163	5728.68
666.354	5751.21
666.546	5697.96
666.737	5683.63
666.929	5554.6
667.12	5646.76
667.311	5542.32
667.503	5525.93
667.694	5681.58
667.885	5448.11
668.077	5314.99
668.268	5431.73
668.459	5417.39
668.651	5384.62
668.842	5405.1
669.033	5376.43
669.224	5218.74
669.416	5310.89
669.607	5200.3
669.798	5231.02
669.989	5261.74
670.18	5239.22
670.371	5104.05
670.563	5341.61
670.754	4966.84
670.945	5032.37
671.136	5132.72
671.327	5058.99
671.518	5106.1
671.709	5079.47
671.9	5192.11
672.091	5020.08
672.282	4940.21
672.473	4821.43
672.664	4864.44
672.855	4796.85
673.046	4907.45
673.237	4710.84
673.428	5040.56
673.619	4673.98
673.809	4837.81
674	4678.07
674.191	4678.07
674.382	4622.78
674.573	4811.19
674.764	4698.55
674.954	4866.49
675.145	4676.02
675.336	4690.36
675.527	4579.77
675.717	4575.67
675.908	4465.08
676.099	4467.13
676.289	4520.38
676.48	4448.7
676.671	4622.78
676.861	4463.04
677.052	4454.84
677.243	4452.8
677.433	4452.8
677.624	4432.32
677.814	4340.16
678.005	4463.04
678.195	4260.29
678.386	4432.32
678.576	4321.73
678.767	4368.83
678.957	4393.4
679.148	4362.69
679.338	4323.77
679.529	4329.92
679.719	4217.28
679.909	4321.73
680.1	4260.29
680.29	4217.28
680.481	4139.46
680.671	4164.03
680.861	4250.05
681.052	4241.86
681.242	4237.76
681.432	4282.81
681.622	4114.88
681.813	4223.42
682.003	4237.76
682.193	4086.21
682.383	3953.09
682.573	4094.4
682.764	4104.64
682.954	4084.16
683.144	4131.26
683.334	4168.13
683.524	4075.97
683.714	4172.22
683.904	3953.09
684.094	4084.16
684.284	3971.52
684.474	3918.28
684.664	3897.8
684.854	4022.72
685.044	4008.39
685.234	3905.99
685.424	3840.45
685.614	3797.45
685.804	3697.1
685.994	3789.25
686.184	3895.75
686.374	3819.97
686.564	3791.3
686.753	3793.35
686.943	3715.53
687.133	3633.61
687.323	3797.45
687.513	3824.07
687.702	3729.86
687.892	3701.19
688.082	3596.75
688.272	3664.33
688.461	3703.24
688.651	3641.8
688.841	3672.52
689.03	3615.18
689.22	3625.42
689.41	3619.27
689.599	3641.8
689.789	3563.98
689.979	3563.98
690.168	3445.2
690.358	3502.54
690.547	3445.2
690.737	3490.25
690.926	3496.39
691.116	3396.04
691.305	3527.11
691.495	3510.73
691.684	3379.66
691.874	3668.42
692.063	3346.89
692.252	3365.32
692.442	3330.51
692.631	3293.65
692.82	3398.09
693.01	3359.18
693.199	3258.83
693.388	3285.45
693.578	3260.88
693.767	3178.96
693.956	3248.59
694.146	3183.06
694.335	3152.34
694.524	3115.47
694.713	3144.14
694.902	3219.92
695.092	3142.1
695.281	3029.46
695.47	3119.57
695.659	3011.03
695.848	3029.46
696.037	3019.22
696.226	2910.68
696.415	3006.93
696.604	3215.82
696.793	3074.51
696.982	3031.51
697.171	3119.57
697.36	3039.7
697.549	2957.78
697.738	3006.93
697.927	2795.99
698.116	3031.51
698.305	2976.21
698.494	2922.96
698.683	2955.73
698.872	3051.99
699.061	3008.98
699.25	3033.55
699.438	2918.87
699.627	2918.87
699.816	2851.28
700.005	2851.28
700.193	2927.06
700.382	2974.16
700.571	2894.29
700.76	2718.17
700.948	2810.33
701.137	2957.78
701.326	3054.03
701.514	2931.16
701.703	2804.18
701.892	2795.99
702.08	2816.47
702.269	2787.8
702.457	2812.37
702.646	2863.57
702.834	2906.58
703.023	2879.96
703.212	2847.19
703.4	2816.47
703.589	2826.71
703.777	2847.19
703.965	2832.85
704.154	2767.32
704.342	2736.6
704.531	2789.85
704.719	2791.89
704.907	2841.04
705.096	2783.7
705.284	2855.38
705.472	2789.85
705.661	2769.37
705.849	2742.74
706.037	2775.51
706.226	2714.07
706.414	2759.13
706.602	2691.54
706.79	2658.78
706.979	2787.8
707.167	2699.73
707.355	2767.32
707.543	2849.24
707.731	2814.42
707.919	2826.71
708.107	2634.2
708.296	2783.7
708.484	2849.24
708.672	2666.97
708.86	2767.32
709.048	2777.56
709.236	2791.89
709.424	2671.06
709.612	2718.17
709.8	2628.06
709.988	2642.39
710.176	2656.73
710.364	2738.65
710.551	2638.3
710.739	2685.4
710.927	2693.59
711.115	2652.63
711.303	2771.41
711.491	2644.44
711.679	2550.23
711.866	2669.02
712.054	2666.97
712.242	2681.3
712.43	2779.61
712.617	2636.25
712.805	2660.82
712.993	2652.63
713.181	2591.19
713.368	2558.42
713.556	2648.54
713.744	2615.77
713.931	2619.86
714.119	2535.9
714.306	2601.43
714.494	2669.02
714.682	2626.01
714.869	2613.72
715.057	2757.08
715.244	2640.34
715.432	2705.88
715.619	2564.57
715.807	2593.24
715.994	2640.34
716.182	2666.97
716.369	2609.62
716.556	2646.49
716.744	2535.9
716.931	2640.34
717.119	2656.73
717.306	2615.77
717.493	2517.47
717.681	2542.04
717.868	2542.04
718.055	2683.35
718.242	2650.58
718.43	2464.22
718.617	2642.39
718.804	2644.44
718.991	2574.81
719.179	2558.42
719.366	2562.52
719.553	2601.43
719.74	2472.41
719.927	2777.56
720.114	2699.73
720.301	2636.25
720.488	2535.9
720.676	2578.9
720.863	2527.71
721.05	2525.66
721.237	2664.92
721.424	2660.82
721.611	2714.07
721.798	2484.7
721.985	2542.04
722.172	2544.09
722.358	2609.62
722.545	2630.1
722.732	2515.42
722.919	2589.14
723.106	2595.29
723.293	2583
723.48	2595.29
723.667	2476.51
723.853	2562.52
724.04	2529.75
724.227	2482.65
724.414	2527.71
724.6	2546.14
724.787	2546.14
724.974	2636.25
725.161	2562.52
725.347	2490.84
725.534	2564.57
725.72	2607.58
725.907	2548.19
726.094	2562.52
726.28	2539.99
726.467	2449.88
726.653	2433.5
726.84	2517.47
727.027	2533.85
727.213	2572.76
727.4	2617.82
727.586	2505.18
727.773	2517.47
727.959	2523.61
728.145	2566.62
728.332	2664.92
728.518	2550.23
728.705	2632.15
728.891	2535.9
729.077	2589.14
729.264	2529.75
729.45	2548.19
729.636	2650.58
729.823	2621.91
730.009	2558.42
730.195	2527.71
730.382	2587.1
730.568	2433.5
730.754	2521.56
730.94	2564.57
731.126	2572.76
731.313	2439.64
731.499	2466.27
731.685	2525.66
731.871	2494.94
732.057	2570.71
732.243	2517.47
732.429	2601.43
732.615	2605.53
732.801	2435.55
732.987	2539.99
733.173	2501.08
733.359	2574.81
733.545	2548.19
733.731	2558.42
733.917	2437.59
734.103	2601.43
734.289	2490.84
734.475	2503.13
734.661	2505.18
734.847	2476.51
735.033	2417.12
735.219	2613.72
735.404	2437.59
735.59	2421.21
735.776	2316.76
735.962	2410.97
736.148	2496.99
736.333	2484.7
736.519	2398.68
736.705	2466.27
736.89	2607.58
737.076	2427.35
737.262	2496.99
737.447	2324.96
737.633	2503.13
737.819	2447.83
738.004	2488.79
738.19	2394.59
738.375	2408.92
738.561	2372.06
738.747	2390.49
738.932	2472.41
739.118	2453.98
739.303	2380.25
739.489	2390.49
739.674	2367.96
739.859	2415.07
740.045	2417.12
740.23	2310.62
740.416	2382.3
740.601	2322.91
740.786	2382.3
740.972	2302.43
741.157	2390.49
741.342	2320.86
741.528	2318.81
741.713	2335.2
741.898	2238.94
742.084	2290.14
742.269	2290.14
742.454	2359.77
742.639	2333.15
742.824	2331.1
743.01	2292.19
743.195	2292.19
743.38	2236.89
743.565	2261.47
743.75	2269.66
743.935	2091.49
744.12	2300.38
744.305	2154.98
744.49	2163.17
744.675	2165.21
744.86	2152.93
745.045	2191.84
745.23	2259.42
745.415	2191.84
745.6	2157.02
745.785	2087.39
745.97	2208.22
746.155	2095.58
746.34	2095.58
746.525	2128.35
746.71	2046.43
746.895	2028
747.079	2054.62
747.264	2126.3
747.449	2089.44
747.634	1991.14
747.819	1954.27
748.003	2050.53
748.188	2021.86
748.373	2019.81
748.557	1970.66
748.742	1853.92
748.927	1954.27
749.111	1958.37
749.296	1999.33
749.481	1903.07
749.665	1948.13
749.85	2017.76
750.034	1901.03
750.219	1884.64
750.404	1878.5
750.588	1882.6
750.773	1868.26
750.957	1964.51
751.141	1751.53
751.326	1888.74
751.51	1800.68
751.695	1784.29
751.879	1571.3
752.064	1806.82
752.248	1710.57
752.432	1751.53
752.617	1675.75
752.801	1749.48
752.985	1661.41
753.17	1739.24
753.354	1790.44
753.538	1690.09
753.722	1606.12
753.907	1569.26
754.091	1602.02
754.275	1692.13
754.459	1530.34
754.643	1595.88
754.828	1729
755.012	1655.27
755.196	1579.5
755.38	1610.22
755.564	1550.82
755.748	1495.53
755.932	1554.92
756.116	1475.05
756.3	1593.83
756.484	1507.82
756.668	1532.39
756.852	1450.47
757.036	1440.23
757.22	1501.67
757.404	1432.04
757.588	1423.85
757.772	1346.03
757.956	1423.85
758.14	1446.38
758.323	1393.13
758.507	1444.33
758.691	1384.94
758.875	1405.42
759.059	1462.76
759.242	1444.33
759.426	1311.21
759.61	1386.99
759.794	1325.55
759.977	1397.23
760.161	1335.79
760.345	1317.36
760.528	1417.71
760.712	1266.16
760.895	1309.16
761.079	1278.44
761.263	1288.68
761.446	1272.3
761.63	1358.32
761.813	1182.19
761.997	1266.16
762.18	1126.89
762.364	1290.73
762.547	1272.3
762.731	1290.73
762.914	1231.34
763.098	1292.78
763.281	1202.67
763.464	1237.49
763.648	1204.72
763.831	1198.57
764.015	1196.53
764.198	1163.76
764.381	1141.23
764.564	1176.05
764.748	1106.42
764.931	1169.9
765.114	1126.89
765.297	1190.38
765.481	1042.93
765.664	1145.33
765.847	1094.13
766.03	1135.09
766.213	1167.85
766.397	1174
766.58	1133.04
766.763	1120.75
766.946	1092.08
767.129	1061.36
767.312	1075.7
767.495	1042.93
767.678	1030.64
767.861	1079.79
768.044	1161.71
768.227	1145.33
768.41	1087.98
768.593	1055.22
768.776	1061.36
768.959	1047.02
769.142	1053.17
769.324	1087.98
769.507	1112.56
769.69	1085.94
769.873	1001.97
770.056	1057.26
770.239	1073.65
770.421	1083.89
770.604	1038.83
770.787	967.15
770.97	1020.4
771.152	1087.98
771.335	956.91
771.518	920.05
771.7	1012.21
771.883	1004.02
772.066	961.01
772.248	958.96
772.431	950.77
772.613	975.35
772.796	967.15
772.978	895.47
773.161	983.54
773.343	877.04
773.526	905.71
773.708	877.04
773.891	907.76
774.073	942.58
774.256	860.66
774.438	920.05
774.621	885.23
774.803	944.63
774.985	930.29
775.168	883.19
775.35	899.57
775.532	846.32
775.715	895.47
775.897	791.03
776.079	864.75
776.261	829.94
776.444	881.14
776.626	788.98
776.808	838.13
776.99	756.21
777.173	850.42
777.355	786.93
777.537	883.19
777.719	815.6
777.901	721.4
778.083	854.51
778.265	836.08
778.447	854.51
778.629	803.32
778.811	666.1
778.993	856.56
779.175	752.12
779.357	772.6
779.539	666.1
779.721	741.88
779.903	729.59
780.085	717.3
780.267	743.92
780.449	682.49
780.631	795.12
780.812	760.31
780.994	688.63
781.176	709.11
781.358	629.24
781.54	610.81
781.721	676.34
781.903	686.58
782.085	623.09
782.267	655.86
782.448	645.62
782.63	666.1
782.812	621.05
782.993	629.24
783.175	596.47
783.357	657.91
783.538	657.91
783.72	586.23
783.901	545.27
784.083	594.42
784.264	694.77
784.446	619
784.627	649.72
784.809	604.66
784.99	592.37
785.172	582.14
785.353	539.13
785.535	612.85
785.716	541.18
785.897	588.28
786.079	598.52
786.26	543.22
786.441	489.98
786.623	524.79
786.804	592.37
786.985	514.55
787.167	569.85
787.348	514.55
787.529	530.94
787.71	555.51
787.891	543.22
788.073	530.94
788.254	496.12
788.435	526.84
788.616	498.17
788.797	508.41
788.978	438.78
789.159	461.3
789.34	504.31
789.522	567.8
789.703	492.02
789.884	393.72
790.065	479.74
790.246	494.07
790.427	428.54
790.607	498.17
790.788	514.55
790.969	383.48
791.15	453.11
791.331	408.06
791.512	442.87
791.693	449.02
791.874	463.35
792.054	473.59
792.235	467.45
792.416	489.98
792.597	451.07
792.778	387.58
792.958	383.48
793.139	449.02
793.32	438.78
793.5	424.44
793.681	412.15
793.862	426.49
794.042	381.43
794.223	358.91
794.404	397.82
794.584	418.3
794.765	381.43
794.945	473.59
795.126	377.34
795.306	406.01
795.487	395.77
795.667	303.61
795.848	473.59
796.028	379.39
796.209	455.16
796.389	381.43
796.57	395.77
796.75	330.23
796.93	371.19
797.111	379.39
797.291	383.48
797.471	293.37
797.652	344.57
797.832	381.43
798.012	360.95
798.192	326.14
798.373	301.56
798.553	381.43
798.733	315.9
798.913	408.06
799.093	358.91
799.274	320
799.454	322.04
799.634	330.23
799.814	373.24
799.994	328.19
800.174	375.29
800.354	408.06
800.534	313.85
800.714	340.47
800.894	334.33
801.074	270.84
801.254	305.66
801.434	367.1
801.614	354.81
801.794	297.47
801.974	670.2
802.154	285.18
802.334	291.32
802.514	248.32
802.693	299.52
802.873	250.36
803.053	373.24
803.233	291.32
803.413	281.08
803.592	276.99
803.772	350.71
803.952	309.76
804.131	315.9
804.311	320
804.491	285.18
804.67	264.7
804.85	250.36
805.03	244.22
805.209	264.7
805.389	244.22
805.568	344.57
805.748	264.7
805.928	301.56
806.107	322.04
806.287	260.6
806.466	334.33
806.646	307.71
806.825	276.99
807.004	236.03
807.184	270.84
807.363	328.19
807.543	240.12
807.722	233.98
807.901	281.08
808.081	307.71
808.26	264.7
808.439	260.6
808.619	289.28
808.798	246.27
808.977	252.41
809.156	309.76
809.336	231.93
809.515	240.12
809.694	203.26
809.873	240.12
810.052	207.36
810.231	260.6
810.411	248.32
810.59	320
810.769	285.18
810.948	291.32
811.127	238.08
811.306	182.78
811.485	244.22
811.664	184.83
811.843	227.84
812.022	246.27
812.201	203.26
812.38	190.97
812.559	162.3
812.737	246.27
812.916	176.64
813.095	268.8
813.274	219.64
813.453	225.79
813.632	223.74
813.811	188.93
813.989	266.75
814.168	270.84
814.347	147.97
814.526	244.22
814.704	246.27
814.883	266.75
815.062	119.29
815.24	190.97
815.419	197.12
815.598	193.02
815.776	137.73
815.955	233.98
816.133	162.3
816.312	178.69
816.49	168.45
816.669	154.11
816.847	231.93
817.026	193.02
817.204	152.06
817.383	119.29
817.561	217.6
817.74	256.51
817.918	143.87
818.097	248.32
818.275	92.67
818.453	160.25
818.632	227.84
818.81	117.25
818.988	209.4
819.167	213.5
819.345	166.4
819.523	164.35
819.701	168.45
819.879	264.7
820.058	170.49
820.236	213.5
820.414	156.16
820.592	190.97
820.77	127.49
820.948	233.98
821.127	174.59
821.305	156.16
821.483	113.15
821.661	236.03
821.839	242.17
822.017	141.82
822.195	137.73
822.373	182.78
822.551	170.49
822.729	170.49
822.907	233.98
823.085	102.91
823.262	199.16
823.44	174.59
823.618	141.82
823.796	221.69
823.974	111.1
824.152	188.93
824.329	203.26
824.507	113.15
824.685	184.83
824.863	88.57
825.04	145.92
825.218	211.45
825.396	154.11
825.574	182.78
825.751	178.69
825.929	164.35
826.107	135.68
826.284	244.22
826.462	109.05
826.639	197.12
826.817	152.06
826.994	164.35
827.172	90.62
827.349	197.12
827.527	199.16
827.704	125.44
827.882	113.15
828.059	195.07
828.237	66.05
828.414	240.12
828.591	111.1
828.769	117.25
828.946	125.44
829.124	164.35
829.301	78.33
829.478	182.78
829.655	170.49
829.833	160.25
830.01	92.67
830.187	176.64
830.364	150.01
830.542	111.1
830.719	137.73
830.896	168.45
831.073	125.44
831.25	168.45
831.427	127.49
831.604	156.16
831.782	59.9
831.959	154.11
832.136	113.15
832.313	84.48
832.49	168.45
832.667	131.58
832.844	129.53
833.021	98.81
833.198	137.73
833.374	125.44
833.551	14.85
833.728	174.59
833.905	96.77
834.082	125.44
834.259	156.16
834.436	107.01
834.612	76.29
834.789	115.2
834.966	139.77
835.143	193.02
835.319	117.25
835.496	109.05
835.673	168.45
835.85	154.11
836.026	137.73
836.203	104.96
836.38	78.33
836.556	125.44
836.733	162.3
836.909	152.06
837.086	121.34
837.262	133.63
837.439	123.39
837.616	131.58
837.792	107.01
837.968	90.62
838.145	100.86
838.321	117.25
838.498	96.77
838.674	129.53
838.851	135.68
839.027	35.33
839.203	182.78
839.38	127.49
839.556	102.91
839.732	162.3
839.909	59.9
840.085	90.62
840.261	129.53
840.437	115.2
840.614	55.81
840.79	111.1
840.966	51.71
841.142	74.24
841.318	18.94
841.494	137.73
841.671	109.05
841.847	135.68
842.023	131.58
842.199	113.15
842.375	168.45
842.551	61.95
842.727	90.62
842.903	145.92
843.079	100.86
843.255	127.49
843.431	139.77
843.607	107.01
843.783	100.86
843.959	113.15
844.134	94.72
844.31	137.73
844.486	55.81
844.662	84.48
844.838	102.91
845.013	107.01
845.189	64
845.365	113.15
845.541	76.29
845.716	92.67
845.892	121.34
846.068	51.71
846.244	109.05
846.419	123.39
846.595	111.1
846.77	76.29
846.946	47.62
847.122	90.62
847.297	96.77
847.473	139.77
847.648	47.62
847.824	123.39
847.999	64
848.175	72.19
848.35	92.67
848.526	61.95
848.701	49.66
848.876	182.78
849.052	92.67
849.227	74.24
849.403	88.57
849.578	31.23
849.753	111.1
849.929	14.85
850.104	104.96
850.279	107.01
850.454	53.76
850.63	109.05
850.805	121.34
850.98	59.9
851.155	74.24
851.33	150.01
851.505	64
851.681	100.86
851.856	139.77
852.031	121.34
852.206	76.29
852.381	100.86
852.556	39.42
852.731	100.86
852.906	174.59
853.081	61.95
853.256	113.15
853.431	76.29
853.606	96.77
853.781	82.43
853.956	8.7
854.131	98.81
854.305	164.35
854.48	64
854.655	117.25
854.83	70.14
855.005	55.81
855.18	90.62
855.354	29.18
855.529	72.19
855.704	31.23
855.879	123.39
856.053	8.7
856.228	115.2
856.403	23.04
856.577	152.06
856.752	35.33
856.926	64
857.101	33.28
857.276	-5.63
857.45	47.62
857.625	104.96
857.799	51.71
857.974	49.66
858.148	10.75
858.323	150.01
858.497	68.09
858.672	57.86
858.846	125.44
859.02	100.86
859.195	51.71
859.369	129.53
859.543	39.42
859.718	168.45
859.892	76.29
860.066	70.14
860.241	6.66
860.415	80.38
860.589	64
860.763	84.48
860.938	12.8
861.112	88.57
861.286	51.71
861.46	121.34
861.634	78.33
861.808	90.62
861.982	0.51
862.157	10.75
862.331	72.19
862.505	143.87
862.679	70.14
862.853	61.95
863.027	41.47
863.201	80.38
863.375	86.53
863.549	80.38
863.722	129.53
863.896	51.71
864.07	100.86
864.244	68.09
864.418	76.29
864.592	61.95
864.766	53.76
864.939	61.95
865.113	35.33
865.287	51.71
865.461	4.61
865.634	35.33
865.808	27.14
865.982	74.24
866.156	80.38
866.329	12.8
866.503	100.86
866.676	25.09
866.85	31.23
867.024	23.04
867.197	53.76
867.371	100.86
867.544	82.43
867.718	-7.68
867.891	150.01
868.065	74.24
868.238	29.18
868.412	43.52
868.585	51.71
868.759	113.15
868.932	66.05
869.105	72.19
869.279	6.66
869.452	96.77
869.625	18.94
869.799	109.05
869.972	33.28
870.145	-15.87
870.319	78.33
870.492	92.67
870.665	76.29
870.838	8.7
871.011	70.14
871.185	16.9
871.358	2.56
871.531	31.23
871.704	121.34
871.877	98.81
872.05	55.81
872.223	96.77
872.396	86.53
872.569	94.72
872.742	59.9
872.915	96.77
873.088	61.95
873.261	121.34
873.434	14.85
873.607	-13.82
873.78	33.28
873.953	45.57
874.126	74.24
874.299	55.81
874.471	39.42
874.644	45.57
874.817	-15.87
874.99	64
875.163	76.29
875.335	123.39
875.508	25.09
875.681	94.72
875.853	35.33
876.026	25.09
876.199	49.66
876.371	39.42
876.544	74.24
876.717	-15.87
876.889	-11.78
877.062	123.39
877.234	16.9
877.407	18.94
877.579	47.62
877.752	88.57
877.924	88.57
878.097	107.01
878.269	29.18
878.442	57.86
878.614	82.43
878.786	76.29
878.959	-58.88
879.131	27.14
879.303	-44.54
879.476	84.48
879.648	74.24
879.82	143.87
879.993	14.85
880.165	0.51
880.337	18.94
880.509	-1.54
880.681	92.67
880.854	55.81
881.026	133.63
881.198	117.25
881.37	57.86
881.542	96.77
881.714	66.05
881.886	2.56
882.058	20.99
882.23	35.33
882.402	57.86
882.574	57.86
882.746	80.38
882.918	74.24
883.09	133.63
883.262	68.09
883.434	-11.78
883.606	35.33
883.778	-1.54
883.95	98.81
884.122	70.14
884.293	45.57
884.465	23.04
884.637	86.53
884.809	27.14
884.98	84.48
885.152	80.38
885.324	94.72
885.496	31.23
885.667	39.42
885.839	33.28
886.011	156.16
886.182	64
886.354	104.96
886.525	80.38
886.697	-7.68
886.869	88.57
887.04	82.43
887.212	10.75
887.383	160.25
887.555	111.1
887.726	41.47
887.897	107.01
888.069	41.47
888.24	98.81
888.412	6.66
888.583	72.19
888.754	55.81
888.926	45.57
889.097	31.23
889.268	41.47
889.44	35.33
889.611	43.52
889.782	86.53
889.953	16.9
890.125	66.05
890.296	-11.78
890.467	53.76
890.638	-5.63
890.809	86.53
890.98	35.33
891.151	94.72
891.323	39.42
891.494	68.09
891.665	86.53
891.836	102.91
892.007	92.67
892.178	51.71
892.349	35.33
892.52	100.86
892.691	55.81
892.862	27.14
893.032	68.09
893.203	23.04
893.374	2.56
893.545	139.77
893.716	53.76
893.887	59.9
894.057	2.56
894.228	59.9
894.399	35.33
894.57	113.15
894.74	37.38
894.911	10.75
895.082	-17.92
895.253	-34.3
895.423	55.81
895.594	57.86
895.764	115.2
895.935	27.14
896.106	14.85
896.276	51.71
896.447	31.23
896.617	37.38
896.788	66.05
896.958	123.39
897.129	76.29
897.299	41.47
897.47	98.81
897.64	102.91
897.81	16.9
897.981	76.29
898.151	55.81
898.322	102.91
898.492	72.19
898.662	35.33
898.832	27.14
899.003	4.61
899.173	68.09
899.343	107.01
899.513	39.42
