Data from USB4F104151__184__11-09-40-202.txt Node

Date: Wed Mar 12 11:09:40 EDT 2025
User: louis
Spectrometer: USB4F10415
Trigger mode: 4
Integration Time (sec): 2.000000E-2
Scans to average: 1
Electric dark correction enabled: true
Nonlinearity correction enabled: false
Boxcar width: 0
XAxis mode: Wavelengths
Number of Pixels in Spectrum: 3648
>>>>>Begin Spectral Data<<<<<
178.204	-83.8
178.424	-83.8
178.644	-83.8
178.864	-77.65
179.084	-32.6
179.304	-32.6
179.524	22.7
179.744	-24.4
179.964	75.95
180.184	30.89
180.404	39.08
180.624	-28.5
180.844	18.6
181.064	-67.41
181.283	-46.93
181.503	34.99
181.723	-22.36
181.943	-51.03
182.163	69.8
182.383	39.08
182.602	59.56
182.822	32.94
183.042	0.17
183.262	-34.64
183.482	4.27
183.701	39.08
183.921	16.55
184.141	43.18
184.361	61.61
184.58	-10.07
184.8	43.18
185.02	0.17
185.239	-1.88
185.459	10.41
185.679	30.89
185.898	-53.08
186.118	43.18
186.338	6.31
186.557	55.47
186.777	-59.22
186.997	6.31
187.216	24.75
187.436	2.22
187.655	69.8
187.875	-20.31
188.095	-57.17
188.314	32.94
188.534	10.41
188.753	45.23
188.973	22.7
189.192	57.51
189.412	-30.55
189.631	-12.12
189.851	14.51
190.07	24.75
190.29	-20.31
190.509	-16.21
190.729	-1.88
190.948	41.13
191.168	114.86
191.387	14.51
191.607	-42.84
191.826	-16.21
192.045	22.7
192.265	92.33
192.484	41.13
192.704	-12.12
192.923	-26.45
193.142	37.03
193.362	22.7
193.581	43.18
193.8	-8.02
194.02	-24.4
194.239	18.6
194.458	61.61
194.678	-55.12
194.897	10.41
195.116	-42.84
195.335	2.22
195.555	22.7
195.774	-53.08
195.993	57.51
196.212	2.22
196.432	41.13
196.651	73.9
196.87	28.84
197.089	-10.07
197.308	30.89
197.528	24.75
197.747	28.84
197.966	-8.02
198.185	-36.69
198.404	16.55
198.623	18.6
198.842	2.22
199.062	116.9
199.281	12.46
199.5	24.75
199.719	4.27
199.938	-22.36
200.157	30.89
200.376	-16.21
200.595	30.89
200.814	-73.56
201.033	-14.17
201.252	8.36
201.471	92.33
201.69	-55.12
201.909	26.79
202.128	73.9
202.347	34.99
202.566	47.27
202.785	14.51
203.004	-40.79
203.223	47.27
203.442	12.46
203.661	-8.02
203.879	67.75
204.098	-24.4
204.317	-20.31
204.536	22.7
204.755	65.71
204.974	24.75
205.193	8.36
205.411	77.99
205.63	86.19
205.849	47.27
206.068	2.22
206.287	-53.08
206.505	-1.88
206.724	0.17
206.943	-53.08
207.162	26.79
207.381	-14.17
207.599	57.51
207.818	8.36
208.037	43.18
208.255	16.55
208.474	34.99
208.693	43.18
208.911	-1.88
209.13	-1.88
209.349	4.27
209.567	18.6
209.786	26.79
210.005	43.18
210.223	22.7
210.442	4.27
210.661	-12.12
210.879	45.23
211.098	-53.08
211.316	22.7
211.535	73.9
211.753	12.46
211.972	61.61
212.191	-14.17
212.409	63.66
212.628	37.03
212.846	0.17
213.065	47.27
213.283	18.6
213.502	-24.4
213.72	59.56
213.938	14.51
214.157	-32.6
214.375	-14.17
214.594	16.55
214.812	45.23
215.031	-22.36
215.249	20.65
215.467	102.57
215.686	-8.02
215.904	30.89
216.122	8.36
216.341	28.84
216.559	69.8
216.778	18.6
216.996	41.13
217.214	0.17
217.432	37.03
217.651	-30.55
217.869	-8.02
218.087	-5.97
218.306	32.94
218.524	-16.21
218.742	-1.88
218.96	39.08
219.179	22.7
219.397	-5.97
219.615	63.66
219.833	-1.88
220.051	8.36
220.27	30.89
220.488	39.08
220.706	63.66
220.924	69.8
221.142	30.89
221.36	80.04
221.578	57.51
221.796	28.84
222.015	69.8
222.233	39.08
222.451	-20.31
222.669	51.37
222.887	-12.12
223.105	2.22
223.323	-57.17
223.541	18.6
223.759	59.56
223.977	53.42
224.195	80.04
224.413	-14.17
224.631	10.41
224.849	26.79
225.067	6.31
225.285	86.19
225.503	65.71
225.721	-14.17
225.939	-5.97
226.157	34.99
226.375	45.23
226.592	-1.88
226.81	32.94
227.028	-10.07
227.246	28.84
227.464	-8.02
227.682	98.47
227.9	39.08
228.117	43.18
228.335	51.37
228.553	47.27
228.771	-10.07
228.989	24.75
229.206	43.18
229.424	34.99
229.642	69.8
229.86	-26.45
230.077	-46.93
230.295	71.85
230.513	51.37
230.731	98.47
230.948	24.75
231.166	2.22
231.384	2.22
231.601	0.17
231.819	8.36
232.037	65.71
232.254	-16.21
232.472	-5.97
232.689	51.37
232.907	47.27
233.125	32.94
233.342	18.6
233.56	37.03
233.777	-5.97
233.995	32.94
234.213	84.14
234.43	-16.21
234.648	30.89
234.865	-16.21
235.083	45.23
235.3	-8.02
235.518	75.95
235.735	104.62
235.953	82.09
236.17	-3.93
236.388	57.51
236.605	26.79
236.822	49.32
237.04	2.22
237.257	-14.17
237.475	51.37
237.692	69.8
237.909	49.32
238.127	8.36
238.344	53.42
238.562	82.09
238.779	-22.36
238.996	12.46
239.214	28.84
239.431	49.32
239.648	37.03
239.865	-5.97
240.083	2.22
240.3	2.22
240.517	37.03
240.735	2.22
240.952	73.9
241.169	37.03
241.386	30.89
241.603	28.84
241.821	-94.04
242.038	30.89
242.255	-46.93
242.472	18.6
242.689	0.17
242.907	55.47
243.124	14.51
243.341	26.79
243.558	73.9
243.775	-20.31
243.992	-34.64
244.209	30.89
244.426	82.09
244.643	77.99
244.86	-24.4
245.078	82.09
245.295	49.32
245.512	41.13
245.729	67.75
245.946	26.79
246.163	0.17
246.38	-14.17
246.597	-30.55
246.814	41.13
247.031	26.79
247.248	18.6
247.464	6.31
247.681	88.23
247.898	-1.88
248.115	32.94
248.332	22.7
248.549	-38.74
248.766	49.32
248.983	-8.02
249.2	-65.36
249.417	-36.69
249.633	34.99
249.85	6.31
250.067	39.08
250.284	-26.45
250.501	-28.5
250.717	26.79
250.934	-12.12
251.151	-42.84
251.368	-40.79
251.585	8.36
251.801	59.56
252.018	-1.88
252.235	24.75
252.451	-22.36
252.668	30.89
252.885	94.38
253.102	34.99
253.318	73.9
253.535	0.17
253.752	0.17
253.968	28.84
254.185	-51.03
254.401	-24.4
254.618	37.03
254.835	24.75
255.051	-42.84
255.268	51.37
255.484	30.89
255.701	-36.69
255.917	6.31
256.134	30.89
256.351	51.37
256.567	-28.5
256.784	22.7
257	30.89
257.217	71.85
257.433	-42.84
257.65	-10.07
257.866	32.94
258.082	45.23
258.299	30.89
258.515	100.52
258.732	24.75
258.948	-28.5
259.165	0.17
259.381	10.41
259.597	12.46
259.814	4.27
260.03	22.7
260.246	-28.5
260.463	18.6
260.679	30.89
260.895	55.47
261.112	-22.36
261.328	14.51
261.544	73.9
261.761	20.65
261.977	41.13
262.193	57.51
262.409	26.79
262.626	-10.07
262.842	2.22
263.058	-18.26
263.274	-12.12
263.49	39.08
263.707	20.65
263.923	65.71
264.139	51.37
264.355	28.84
264.571	-3.93
264.787	-5.97
265.004	59.56
265.22	-18.26
265.436	-44.88
265.652	-42.84
265.868	24.75
266.084	4.27
266.3	-30.55
266.516	-1.88
266.732	22.7
266.948	-12.12
267.164	63.66
267.38	12.46
267.596	65.71
267.812	108.71
268.028	67.75
268.244	-24.4
268.46	43.18
268.676	67.75
268.892	55.47
269.108	-18.26
269.324	2.22
269.54	39.08
269.756	2.22
269.972	-10.07
270.188	24.75
270.403	-5.97
270.619	-8.02
270.835	77.99
271.051	26.79
271.267	10.41
271.483	-8.02
271.698	47.27
271.914	116.9
272.13	45.23
272.346	14.51
272.562	-36.69
272.777	12.46
272.993	-32.6
273.209	135.34
273.425	67.75
273.64	-22.36
273.856	53.42
274.072	-24.4
274.287	10.41
274.503	49.32
274.719	65.71
274.934	-48.98
275.15	14.51
275.366	-36.69
275.581	39.08
275.797	75.95
276.012	34.99
276.228	-12.12
276.444	30.89
276.659	-34.64
276.875	14.51
277.09	65.71
277.306	-65.36
277.521	55.47
277.737	8.36
277.952	82.09
278.168	39.08
278.383	24.75
278.599	32.94
278.814	65.71
279.03	-46.93
279.245	57.51
279.461	-10.07
279.676	41.13
279.892	73.9
280.107	-28.5
280.322	22.7
280.538	-26.45
280.753	2.22
280.969	24.75
281.184	-8.02
281.399	65.71
281.615	-46.93
281.83	61.61
282.045	-36.69
282.26	8.36
282.476	28.84
282.691	84.14
282.906	61.61
283.122	45.23
283.337	12.46
283.552	51.37
283.767	22.7
283.983	88.23
284.198	71.85
284.413	16.55
284.628	0.17
284.843	34.99
285.058	0.17
285.274	24.75
285.489	86.19
285.704	37.03
285.919	63.66
286.134	-26.45
286.349	65.71
286.564	14.51
286.779	-10.07
286.995	4.27
287.21	-22.36
287.425	57.51
287.64	8.36
287.855	55.47
288.07	-28.5
288.285	86.19
288.5	39.08
288.715	41.13
288.93	-73.56
289.145	-16.21
289.36	45.23
289.575	-8.02
289.79	2.22
290.004	34.99
290.219	34.99
290.434	45.23
290.649	18.6
290.864	16.55
291.079	-81.75
291.294	37.03
291.509	51.37
291.724	12.46
291.938	47.27
292.153	0.17
292.368	-26.45
292.583	-12.12
292.798	-20.31
293.012	41.13
293.227	2.22
293.442	84.14
293.657	57.51
293.871	14.51
294.086	16.55
294.301	28.84
294.516	96.43
294.73	22.7
294.945	28.84
295.16	14.51
295.374	69.8
295.589	-14.17
295.804	39.08
296.018	86.19
296.233	75.95
296.447	65.71
296.662	-20.31
296.877	104.62
297.091	94.38
297.306	14.51
297.52	26.79
297.735	43.18
297.949	2.22
298.164	53.42
298.378	30.89
298.593	-14.17
298.807	-22.36
299.022	-22.36
299.236	37.03
299.451	22.7
299.665	20.65
299.88	8.36
300.094	-28.5
300.309	22.7
300.523	-26.45
300.737	26.79
300.952	2.22
301.166	8.36
301.381	4.27
301.595	37.03
301.809	37.03
302.024	-3.93
302.238	123.05
302.452	32.94
302.667	-10.07
302.881	10.41
303.095	71.85
303.309	63.66
303.524	34.99
303.738	49.32
303.952	-18.26
304.166	-10.07
304.381	-5.97
304.595	39.08
304.809	14.51
305.023	10.41
305.237	10.41
305.452	30.89
305.666	-14.17
305.88	14.51
306.094	6.31
306.308	47.27
306.522	-32.6
306.736	96.43
306.95	51.37
307.164	-38.74
307.379	-8.02
307.593	14.51
307.807	26.79
308.021	37.03
308.235	-85.84
308.449	-12.12
308.663	59.56
308.877	14.51
309.091	77.99
309.305	102.57
309.519	20.65
309.733	26.79
309.947	51.37
310.161	75.95
310.374	-14.17
310.588	41.13
310.802	80.04
311.016	-26.45
311.23	0.17
311.444	-34.64
311.658	-12.12
311.872	80.04
312.085	26.79
312.299	8.36
312.513	2.22
312.727	45.23
312.941	10.41
313.154	32.94
313.368	47.27
313.582	32.94
313.796	16.55
314.009	26.79
314.223	67.75
314.437	71.85
314.651	63.66
314.864	26.79
315.078	26.79
315.292	-12.12
315.505	47.27
315.719	2.22
315.933	53.42
316.146	51.37
316.36	8.36
316.573	10.41
316.787	-5.97
317.001	96.43
317.214	4.27
317.428	34.99
317.641	34.99
317.855	22.7
318.068	2.22
318.282	16.55
318.495	57.51
318.709	57.51
318.922	51.37
319.136	14.51
319.349	80.04
319.563	39.08
319.776	0.17
319.99	-36.69
320.203	-1.88
320.417	63.66
320.63	24.75
320.843	116.9
321.057	26.79
321.27	-61.27
321.483	28.84
321.697	30.89
321.91	57.51
322.124	55.47
322.337	41.13
322.55	45.23
322.763	49.32
322.977	-14.17
323.19	-34.64
323.403	6.31
323.617	8.36
323.83	12.46
324.043	55.47
324.256	18.6
324.469	65.71
324.683	53.42
324.896	8.36
325.109	24.75
325.322	-8.02
325.535	30.89
325.748	24.75
325.962	-65.36
326.175	-44.88
326.388	61.61
326.601	69.8
326.814	-14.17
327.027	-42.84
327.24	24.75
327.453	-51.03
327.666	39.08
327.879	53.42
328.092	30.89
328.305	28.84
328.518	-30.55
328.731	2.22
328.944	22.7
329.157	57.51
329.37	8.36
329.583	67.75
329.796	100.52
330.009	-34.64
330.222	-14.17
330.435	75.95
330.648	-1.88
330.861	32.94
331.073	-24.4
331.286	-8.02
331.499	-42.84
331.712	61.61
331.925	145.58
332.138	20.65
332.35	41.13
332.563	112.81
332.776	53.42
332.989	37.03
333.202	51.37
333.414	26.79
333.627	-26.45
333.84	125.1
334.053	-24.4
334.265	-14.17
334.478	28.84
334.691	-18.26
334.903	12.46
335.116	-36.69
335.329	43.18
335.541	22.7
335.754	92.33
335.966	63.66
336.179	71.85
336.392	28.84
336.604	96.43
336.817	53.42
337.029	43.18
337.242	32.94
337.454	18.6
337.667	-1.88
337.88	39.08
338.092	65.71
338.305	71.85
338.517	24.75
338.729	20.65
338.942	51.37
339.154	16.55
339.367	20.65
339.579	47.27
339.792	-73.56
340.004	14.51
340.217	10.41
340.429	94.38
340.641	65.71
340.854	49.32
341.066	-10.07
341.278	-14.17
341.491	80.04
341.703	-53.08
341.915	20.65
342.128	32.94
342.34	18.6
342.552	71.85
342.764	49.32
342.977	8.36
343.189	12.46
343.401	20.65
343.613	-114.52
343.826	43.18
344.038	43.18
344.25	8.36
344.462	47.27
344.674	32.94
344.886	39.08
345.099	22.7
345.311	10.41
345.523	-5.97
345.735	16.55
345.947	-10.07
346.159	47.27
346.371	-8.02
346.583	-30.55
346.795	20.65
347.007	43.18
347.219	39.08
347.431	10.41
347.643	86.19
347.855	112.81
348.067	24.75
348.279	-48.98
348.491	12.46
348.703	51.37
348.915	30.89
349.127	-55.12
349.339	2.22
349.551	32.94
349.763	28.84
349.975	53.42
350.187	22.7
350.399	26.79
350.61	10.41
350.822	14.51
351.034	32.94
351.246	86.19
351.458	-30.55
351.669	0.17
351.881	39.08
352.093	0.17
352.305	16.55
352.517	104.62
352.728	41.13
352.94	6.31
353.152	16.55
353.363	0.17
353.575	37.03
353.787	59.56
353.999	55.47
354.21	129.19
354.422	-65.36
354.633	37.03
354.845	39.08
355.057	-42.84
355.268	59.56
355.48	75.95
355.692	28.84
355.903	125.1
356.115	4.27
356.326	-1.88
356.538	96.43
356.749	14.51
356.961	18.6
357.172	49.32
357.384	43.18
357.595	127.14
357.807	-48.98
358.018	69.8
358.23	0.17
358.441	26.79
358.653	84.14
358.864	53.42
359.075	12.46
359.287	-28.5
359.498	41.13
359.709	39.08
359.921	51.37
360.132	30.89
360.344	12.46
360.555	8.36
360.766	45.23
360.977	-44.88
361.189	-22.36
361.4	63.66
361.611	67.75
361.823	8.36
362.034	59.56
362.245	45.23
362.456	80.04
362.667	10.41
362.879	20.65
363.09	39.08
363.301	28.84
363.512	34.99
363.723	12.46
363.935	-30.55
364.146	22.7
364.357	88.23
364.568	-14.17
364.779	24.75
364.99	14.51
365.201	-3.93
365.412	59.56
365.623	-22.36
365.834	-18.26
366.045	-3.93
366.256	53.42
366.467	20.65
366.678	18.6
366.889	-5.97
367.1	51.37
367.311	-8.02
367.522	16.55
367.733	-10.07
367.944	53.42
368.155	-10.07
368.366	-24.4
368.577	69.8
368.788	57.51
368.999	34.99
369.209	43.18
369.42	80.04
369.631	-3.93
369.842	-3.93
370.053	26.79
370.264	96.43
370.474	12.46
370.685	-40.79
370.896	32.94
371.107	20.65
371.317	10.41
371.528	-1.88
371.739	100.52
371.95	6.31
372.16	-18.26
372.371	30.89
372.582	-18.26
372.792	90.28
373.003	-1.88
373.214	88.23
373.424	45.23
373.635	-65.36
373.846	6.31
374.056	20.65
374.267	155.82
374.477	24.75
374.688	26.79
374.898	6.31
375.109	20.65
375.319	26.79
375.53	47.27
375.74	-20.31
375.951	-8.02
376.161	65.71
376.372	20.65
376.582	30.89
376.793	51.37
377.003	4.27
377.214	20.65
377.424	-5.97
377.635	14.51
377.845	24.75
378.055	32.94
378.266	4.27
378.476	24.75
378.686	-1.88
378.897	71.85
379.107	37.03
379.317	71.85
379.528	2.22
379.738	47.27
379.948	-40.79
380.158	88.23
380.369	-53.08
380.579	34.99
380.789	71.85
380.999	57.51
381.21	59.56
381.42	82.09
381.63	0.17
381.84	45.23
382.05	14.51
382.261	-14.17
382.471	39.08
382.681	22.7
382.891	41.13
383.101	26.79
383.311	88.23
383.521	-14.17
383.731	20.65
383.941	55.47
384.151	-24.4
384.361	-1.88
384.571	28.84
384.781	61.61
384.991	39.08
385.201	75.95
385.411	41.13
385.621	-57.17
385.831	59.56
386.041	41.13
386.251	2.22
386.461	39.08
386.671	26.79
386.881	55.47
387.091	2.22
387.301	90.28
387.511	-1.88
387.72	10.41
387.93	77.99
388.14	-3.93
388.35	-12.12
388.56	51.37
388.769	51.37
388.979	67.75
389.189	24.75
389.399	-10.07
389.609	10.41
389.818	100.52
390.028	2.22
390.238	63.66
390.447	51.37
390.657	43.18
390.867	8.36
391.076	16.55
391.286	51.37
391.496	14.51
391.705	32.94
391.915	84.14
392.125	10.41
392.334	125.1
392.544	2.22
392.753	71.85
392.963	41.13
393.172	16.55
393.382	51.37
393.591	63.66
393.801	75.95
394.01	102.57
394.22	0.17
394.429	96.43
394.639	-22.36
394.848	88.23
395.058	51.37
395.267	51.37
395.477	114.86
395.686	53.42
395.895	6.31
396.105	61.61
396.314	51.37
396.524	96.43
396.733	2.22
396.942	80.04
397.152	75.95
397.361	37.03
397.57	112.81
397.78	47.27
397.989	59.56
398.198	147.62
398.407	51.37
398.617	53.42
398.826	-24.4
399.035	77.99
399.244	80.04
399.453	45.23
399.663	108.71
399.872	8.36
400.081	49.32
400.29	51.37
400.499	28.84
400.708	26.79
400.917	16.55
401.127	106.67
401.336	71.85
401.545	98.47
401.754	0.17
401.963	100.52
402.172	59.56
402.381	57.51
402.59	49.32
402.799	63.66
403.008	61.61
403.217	92.33
403.426	100.52
403.635	-5.97
403.844	16.55
404.053	65.71
404.262	65.71
404.471	123.05
404.68	65.71
404.888	73.9
405.097	157.86
405.306	77.99
405.515	47.27
405.724	80.04
405.933	88.23
406.142	102.57
406.35	88.23
406.559	65.71
406.768	159.91
406.977	129.19
407.185	129.19
407.394	182.44
407.603	75.95
407.812	168.1
408.02	159.91
408.229	57.51
408.438	121
408.646	118.95
408.855	127.14
409.064	164.01
409.272	139.43
409.481	129.19
409.69	82.09
409.898	98.47
410.107	157.86
410.315	153.77
410.524	123.05
410.733	67.75
410.941	139.43
411.15	170.15
411.358	213.16
411.567	159.91
411.775	159.91
411.984	247.97
412.192	280.74
412.401	260.26
412.609	272.55
412.818	256.17
413.026	194.73
413.234	309.41
413.443	235.69
413.651	202.92
413.86	374.95
414.068	309.41
414.276	293.03
414.485	319.65
414.693	370.85
414.901	358.57
415.11	350.37
415.318	325.8
415.526	331.94
415.734	411.81
415.943	434.34
416.151	383.14
416.359	440.48
416.567	465.06
416.776	387.24
416.984	479.4
417.192	532.64
417.4	463.01
417.608	532.64
417.817	487.59
418.025	583.84
418.233	561.31
418.441	569.51
418.649	618.66
418.857	635.04
419.065	614.56
419.273	721.06
419.481	628.9
419.689	733.34
419.897	768.16
420.105	764.06
420.313	852.13
420.521	821.41
420.729	905.37
420.937	741.54
421.145	929.95
421.353	944.28
421.561	962.72
421.769	985.24
421.977	1044.63
422.185	1108.12
422.393	1138.84
422.601	1163.42
422.809	1173.66
423.017	1101.98
423.224	1173.66
423.432	1329.3
423.64	1245.34
423.848	1472.66
424.056	1400.98
424.263	1405.08
424.471	1435.8
424.679	1521.81
424.887	1573.01
425.094	1697.94
425.302	1523.86
425.51	1607.83
425.718	1755.28
425.925	1788.05
426.133	1845.39
426.341	1820.81
426.548	1915.02
426.756	1992.84
426.964	2111.63
427.171	2107.53
427.379	2226.31
427.586	2375.81
427.794	2201.74
428.001	2277.51
428.209	2406.53
428.417	2541.7
428.624	2680.96
428.832	2693.25
429.039	2697.35
429.247	2629.76
429.454	2934.91
429.662	3115.13
429.869	2701.44
430.076	3108.99
430.284	3012.73
430.491	3074.17
430.699	3315.83
430.906	3309.69
431.114	3319.93
431.321	3379.32
431.528	3393.65
431.736	3745.91
431.943	3901.55
432.15	3950.7
432.358	3893.36
432.565	4044.91
432.772	4081.77
432.979	4196.46
433.187	4266.09
433.394	4300.91
433.601	4614.24
433.808	4681.83
434.016	4604
434.223	4708.45
434.43	5179.48
434.637	4989.02
434.844	5165.15
435.052	5376.09
435.259	5183.58
435.466	5417.05
435.673	5425.24
435.88	5834.83
436.087	5963.86
436.294	5941.33
436.501	5836.88
436.708	5873.75
436.915	6150.22
437.122	6332.49
437.329	6512.71
437.537	6752.32
437.743	6860.87
437.95	6688.84
438.157	7112.77
438.364	7333.95
438.571	7260.22
438.778	7217.21
438.985	8054.83
439.192	7831.6
439.399	7839.8
439.606	7776.31
439.813	8304.68
440.02	8583.21
440.227	8605.74
440.433	8370.22
440.64	8689.7
440.847	8658.98
441.054	8775.72
441.261	9529.37
441.467	9256.99
441.674	9574.42
441.881	9703.45
442.088	9834.52
442.294	9652.25
442.501	10141.71
442.708	10274.83
442.914	10545.16
443.121	10993.67
443.328	10709
443.534	11700.22
443.741	10926.08
443.948	10938.37
444.154	11868.15
444.361	11630.59
444.568	11878.39
444.774	11651.06
444.981	11898.87
445.187	12261.36
445.394	12722.15
445.6	12605.42
445.807	13848.54
446.013	13258.72
446.22	13365.21
446.426	13823.96
446.633	14149.59
446.839	14532.56
447.046	13924.31
447.252	14604.24
447.459	14991.3
447.665	14694.35
447.871	15409.09
448.078	16003
448.284	15337.41
448.491	15943.61
448.697	16349.11
448.903	16299.95
449.11	16476.08
449.316	16256.95
449.522	16711.6
449.728	17115.05
449.935	17055.65
450.141	17057.7
450.347	17581.98
450.553	16879.53
450.76	17158.05
450.966	17727.39
451.172	17252.26
451.378	17817.5
451.584	17633.18
451.791	17821.59
451.997	18050.97
452.203	18546.58
452.409	18196.37
452.615	18358.16
452.821	17375.14
453.027	17086.37
453.233	18134.93
453.44	17262.5
453.646	17647.52
453.852	17526.69
454.058	17948.57
454.264	17285.03
454.47	17797.02
454.676	17315.75
454.882	17903.51
455.088	16361.39
455.294	16621.49
455.5	16861.1
455.705	16967.59
455.911	16316.34
456.117	16017.33
456.323	15617.98
456.529	14966.73
456.735	15843.26
456.941	14970.82
457.147	14962.63
457.352	14294.99
457.558	14327.76
457.764	14010.32
457.97	13920.21
458.176	13772.76
458.381	13537.24
458.587	13035.49
458.793	12918.76
458.999	12484.59
459.204	13240.29
459.41	12902.37
459.616	12074.99
459.821	12036.08
460.027	11876.34
460.233	11757.56
460.438	11204.61
460.644	11302.91
460.85	10778.63
461.055	10682.38
461.261	10719.24
461.466	9828.37
461.672	9392.16
461.878	10154
462.083	9281.57
462.289	9230.37
462.494	9508.89
462.7	8677.41
462.905	8673.32
463.111	9263.13
463.316	8859.68
463.522	8749.09
463.727	8753.19
463.932	8714.28
464.138	8482.86
464.343	8658.98
464.549	8448.04
464.754	8638.5
464.959	8599.59
465.165	8390.7
465.37	8450.09
465.575	8075.31
465.781	8409.13
465.986	8319.02
466.191	8185.9
466.397	7888.95
466.602	7518.26
466.807	7729.2
467.012	7774.26
467.218	7661.62
467.423	7671.86
467.628	7747.64
467.833	7950.39
468.038	7774.26
468.244	7518.26
468.449	7815.22
468.654	7585.85
468.859	7536.7
469.064	7493.69
469.269	7196.73
469.474	7288.89
469.679	7209.02
469.885	7194.68
470.09	7350.33
470.295	7184.45
470.5	7145.53
470.705	7059.52
470.91	6891.59
471.115	6967.36
471.32	7053.38
471.525	6897.73
471.73	6737.99
471.935	6797.38
472.139	6412.36
472.344	6600.77
472.549	6555.72
472.754	6557.77
472.959	6287.43
473.164	6121.55
473.369	6131.79
473.574	6211.66
473.778	6080.59
473.983	6230.09
474.188	6303.82
474.393	5898.32
474.598	6010.96
474.802	5933.14
475.007	5765.2
475.212	5861.46
475.417	5449.82
475.621	5591.13
475.826	5539.93
476.031	5505.11
476.235	5408.86
476.44	5582.93
476.645	5292.12
476.849	5335.13
477.054	5339.23
477.259	5363.8
477.463	5179.48
477.668	5105.76
477.872	5210.2
478.077	5169.24
478.282	5036.13
478.486	4896.86
478.691	5029.98
478.895	5072.99
479.1	4888.67
479.304	4896.86
479.509	4755.55
479.713	4782.18
479.918	4769.89
480.122	4712.55
480.326	4794.47
480.531	4814.95
480.735	4720.74
480.94	4784.23
481.144	4921.44
481.348	4657.25
481.553	4728.93
481.757	4489.32
481.961	4634.72
482.166	4624.48
482.37	4788.32
482.574	4513.89
482.778	4481.13
482.983	4624.48
483.187	4702.31
483.391	4610.15
483.595	4520.04
483.8	4561
484.004	4614.24
484.208	4561
484.412	4325.48
484.616	4388.97
484.821	4546.66
485.025	4597.86
485.229	4337.77
485.433	4501.61
485.637	4530.28
485.841	4503.65
486.045	4360.3
486.249	4558.95
486.453	4593.76
486.657	4577.38
486.861	4694.12
487.065	4378.73
487.269	4556.9
487.473	4460.65
487.677	4505.7
487.881	4636.77
488.085	4464.74
488.289	4567.14
488.493	4575.33
488.697	4589.67
488.901	4515.94
489.105	4554.85
489.309	4558.95
489.512	4413.54
489.716	4687.97
489.92	4483.17
490.124	4550.76
490.328	4565.09
490.531	4667.49
490.735	4894.82
490.939	4632.68
491.143	4798.56
491.346	4747.36
491.55	4821.09
491.754	4798.56
491.958	4745.31
492.161	4706.4
492.365	4794.47
492.569	4702.31
492.772	4700.26
492.976	4821.09
493.18	4954.21
493.383	4892.77
493.587	4898.91
493.79	4903.01
493.994	4954.21
494.197	5040.22
494.401	4923.49
494.605	5064.8
494.808	5146.72
495.012	5120.09
495.215	5142.62
495.419	5167.2
495.622	5351.51
495.825	5283.93
496.029	5242.97
496.232	5486.68
496.436	5408.86
496.639	5482.58
496.843	5417.05
497.046	5697.62
497.249	5627.99
497.453	5656.66
497.656	5726.29
497.859	5711.96
498.063	5769.3
498.266	5843.03
498.469	5912.66
498.673	5732.44
498.876	6090.83
499.079	6146.12
499.282	6035.53
499.485	6430.79
499.689	6223.95
499.892	6240.33
500.095	6496.33
500.298	6629.45
500.501	6455.37
500.705	6674.5
500.908	6660.17
501.111	6889.54
501.314	6803.52
501.517	6971.46
501.72	6893.63
501.923	6781
502.126	7184.45
502.329	7252.03
502.532	7200.83
502.735	7268.41
502.938	7524.41
503.141	7561.27
503.344	7567.42
503.547	7714.87
503.75	7718.96
503.953	7811.12
504.156	8003.63
504.359	7927.86
504.562	8034.35
504.765	8079.41
504.968	8249.39
505.17	8579.11
505.373	8570.92
505.576	8577.06
505.779	8665.13
505.982	8583.21
506.185	8800.29
506.387	8800.29
506.59	8747.05
506.793	9164.83
506.996	8935.46
507.198	9386.01
507.401	9457.69
507.604	9629.72
507.807	9492.51
508.009	9678.87
508.212	9758.74
508.415	10004.5
508.617	9826.32
508.82	10057.75
509.022	9855
509.225	10410
509.428	10272.78
509.63	10403.85
509.833	10401.8
510.035	10766.34
510.238	10674.18
510.44	10860.55
510.643	11128.83
510.845	11114.5
511.048	11081.73
511.25	11378.69
511.453	11472.89
511.655	12042.23
511.858	11673.59
512.06	11927.54
512.262	11837.43
512.465	12183.54
512.667	12111.86
512.87	11999.22
513.072	12257.26
513.274	12566.51
513.477	12783.59
513.679	12552.17
513.881	12881.89
514.084	13074.4
514.286	12924.9
514.488	12978.15
514.69	13594.59
514.893	13539.29
515.095	13578.2
515.297	13744.09
515.499	13780.95
515.701	13985.75
515.904	14202.83
516.106	14122.96
516.308	14391.25
516.51	14606.28
516.712	14495.69
516.914	14524.37
517.116	14786.51
517.318	15056.84
517.52	14903.24
517.722	15185.86
517.925	15245.25
518.127	15359.94
518.329	15570.88
518.531	15878.07
518.733	16017.33
518.935	15943.61
519.136	15968.18
519.338	16222.13
519.54	16502.7
519.742	16779.18
519.944	16848.81
520.146	17106.85
520.348	17217.44
520.55	17297.31
520.752	17217.44
520.954	17735.58
521.155	17426.34
521.357	18100.12
521.559	17930.14
521.761	18200.47
521.963	18188.18
522.164	18546.58
522.366	18298.77
522.568	18593.68
522.77	18907.02
522.971	19171.21
523.173	18997.13
523.375	19126.15
523.576	19179.4
523.778	19105.67
523.98	19615.62
524.181	19744.64
524.383	19464.07
524.584	19943.29
524.786	19955.58
524.988	20174.71
525.189	20074.36
525.391	20455.28
525.592	20473.71
525.794	20610.93
525.995	20572.02
526.197	20672.37
526.398	20756.33
526.6	20828.01
526.801	21114.73
527.003	21329.77
527.204	21055.34
527.406	21124.97
527.607	21360.48
527.808	21383.01
528.01	21004.14
528.211	21202.79
528.412	21972.83
528.614	21825.37
528.815	21874.52
529.016	22009.69
529.218	21761.89
529.419	22138.71
529.62	21907.29
529.822	22069.08
530.023	22177.62
530.224	21989.21
530.425	22234.97
530.626	22189.91
530.828	22214.49
531.029	22695.76
531.23	22282.07
531.431	22361.94
531.632	22804.3
531.833	22556.5
532.035	22417.24
532.236	22787.92
532.437	22925.13
532.638	22366.04
532.839	22714.19
533.04	22863.69
533.241	22495.06
533.442	23045.96
533.643	23107.4
533.844	22970.19
534.045	23097.16
534.246	22810.45
534.447	23252.81
534.648	22873.93
534.849	23142.22
535.05	23078.73
535.251	23031.63
535.451	23043.92
535.652	23193.42
535.853	22871.89
536.054	23234.38
536.255	23240.52
536.456	23099.21
536.657	23226.18
536.857	22974.28
537.058	22931.28
537.259	23355.21
537.46	22898.51
537.66	23351.11
537.861	23207.75
538.062	23099.21
538.263	23308.1
538.463	23072.59
538.664	23127.88
538.865	23056.2
539.065	23439.17
539.266	23105.35
539.466	23422.79
539.667	23177.03
539.868	23572.29
540.068	23174.99
540.269	22937.42
540.469	23359.3
540.67	23131.98
540.87	22984.52
541.071	23119.69
541.271	23344.97
541.472	23068.49
541.672	23304.01
541.873	23273.29
542.073	22781.78
542.274	23537.48
542.474	22921.04
542.675	23007.05
542.875	23408.45
543.075	23347.01
543.276	22957.9
543.476	23482.18
543.676	22828.88
543.877	23289.67
544.077	23129.93
544.277	23121.74
544.478	23170.89
544.678	23203.66
544.878	23134.03
545.078	23021.39
545.279	23113.55
545.479	23103.31
545.679	23377.73
545.879	23363.4
546.079	23281.48
546.28	22837.07
546.48	23025.48
546.68	23039.82
546.88	23093.07
547.08	23189.32
547.28	23146.31
547.48	22564.69
547.68	22781.78
547.88	22984.52
548.081	23048.01
548.281	22912.85
548.481	22830.93
548.681	23029.58
548.881	22931.28
549.081	22951.76
549.28	23129.93
549.48	22701.9
549.68	22773.58
549.88	22994.76
550.08	22916.94
550.28	22996.81
550.48	23080.78
550.68	23062.35
550.88	22843.21
551.08	22927.18
551.279	23029.58
551.479	22867.79
551.679	22878.03
551.879	22951.76
552.079	23111.5
552.278	22714.19
552.478	22843.21
552.678	22724.43
552.878	23068.49
553.077	22925.13
553.277	22656.85
553.477	23068.49
553.676	22894.41
553.876	22792.01
554.076	22646.61
554.275	22628.18
554.475	22628.18
554.674	22427.48
554.874	22880.08
555.074	22579.03
555.273	22609.75
555.473	22605.65
555.672	22622.03
555.872	22632.27
556.071	22628.18
556.271	22546.26
556.47	22370.13
556.67	22355.8
556.869	22261.59
557.068	22611.79
557.268	22445.91
557.467	22212.44
557.667	22253.4
557.866	22062.94
558.065	22165.34
558.265	21739.36
558.464	22316.89
558.663	22454.1
558.863	21823.33
559.062	22234.97
559.261	21733.22
559.461	22370.13
559.66	21874.52
559.859	21618.53
560.058	21753.69
560.258	21696.35
560.457	21733.22
560.656	22032.22
560.855	21876.57
561.054	21352.29
561.253	21585.76
561.453	21493.6
561.652	21618.53
561.851	21878.62
562.05	21387.11
562.249	21454.69
562.448	21383.01
562.647	21671.78
562.846	21106.54
563.045	21284.71
563.244	21153.64
563.443	21471.08
563.642	20922.22
563.841	20969.32
564.04	21122.92
564.239	21059.43
564.438	21024.62
564.637	20805.49
564.836	21104.49
565.035	20340.6
565.234	20828.01
565.432	20600.69
565.631	20502.39
565.83	20574.06
566.029	20172.66
566.228	20041.59
566.427	20131.7
566.625	20238.2
566.824	19908.47
567.023	20332.4
567.222	19799.93
567.42	20152.18
567.619	19836.8
567.818	19834.75
568.016	20131.7
568.215	19933.05
568.414	19652.48
568.612	20260.73
568.811	19736.45
569.01	19656.57
569.208	19408.77
569.407	19625.86
569.605	19339.14
569.804	19511.17
570.002	19189.64
570.201	19468.16
570.4	19126.15
570.598	19203.97
570.797	18626.45
570.995	18986.89
571.193	18931.59
571.392	19072.9
571.59	18612.11
571.789	18702.22
571.987	18618.25
572.186	18642.83
572.384	18610.06
572.582	18667.41
572.781	18567.06
572.979	18159.51
573.177	18390.93
573.376	18433.94
573.574	18143.13
573.772	18562.96
573.971	18028.44
574.169	17874.84
574.367	18155.41
574.565	18220.95
574.763	17997.72
574.962	18327.44
575.16	17547.17
575.358	17579.93
575.556	17721.24
575.754	18061.21
575.952	17635.23
576.151	17639.33
576.349	17301.41
576.547	17727.39
576.745	17508.26
576.943	17571.74
577.141	17217.44
577.339	17258.4
577.537	17219.49
577.735	17098.66
577.933	17026.98
578.131	17078.18
578.329	17022.89
578.527	16961.45
578.725	16654.25
578.923	17006.5
579.121	16672.68
579.319	16525.23
579.516	16961.45
579.714	16809.9
579.912	16672.68
580.11	16574.38
580.308	16607.15
580.506	16672.68
580.704	16011.19
580.901	16514.99
581.099	16297.91
581.297	16152.5
581.495	16101.3
581.692	16525.23
581.89	16148.4
582.088	16115.64
582.285	15923.13
582.483	16349.11
582.681	15882.17
582.878	15642.56
583.076	15724.47
583.274	15882.17
583.471	15777.72
583.669	15773.63
583.866	15609.79
584.064	15904.7
584.262	15777.72
584.459	15660.99
584.657	15280.07
584.854	15550.4
585.052	15353.79
585.249	15284.16
585.447	15458.24
585.644	15329.22
585.841	15349.7
586.039	15251.39
586.236	15196.1
586.434	15097.8
586.631	14913.48
586.828	14970.82
587.026	14815.18
587.223	14870.47
587.42	14829.51
587.618	14882.76
587.815	14546.89
588.012	14575.56
588.21	14471.12
588.407	14849.99
588.604	14557.13
588.801	14651.34
588.999	14403.53
589.196	14512.08
589.393	14393.3
589.59	14274.51
589.787	14358.48
589.984	14161.87
590.182	14190.55
590.379	14299.09
590.576	14168.02
590.773	14198.74
590.97	14090.2
591.167	14020.56
591.364	13613.02
591.561	13957.08
591.758	13840.34
591.955	13801.43
592.152	13965.27
592.349	13645.79
592.546	13852.63
592.743	13703.13
592.94	13563.87
593.137	13504.48
593.334	13565.92
593.531	13514.72
593.727	13305.82
593.924	13522.91
594.121	13219.81
594.318	13457.37
594.515	13228
594.712	13424.61
594.908	13225.95
595.105	13236.19
595.302	12959.72
595.499	13182.95
595.696	13047.78
595.892	12834.79
596.089	13111.27
596.286	13017.06
596.482	13080.55
596.679	12679.15
596.876	12871.65
597.072	12550.12
597.269	12873.7
597.466	12883.94
597.662	12617.71
597.859	12457.96
598.055	12664.81
598.252	12527.6
598.448	12355.57
598.645	12656.62
598.841	12337.13
599.038	12304.37
599.234	12445.68
599.431	12294.13
599.627	12175.34
599.824	12433.39
600.02	12138.48
600.217	12191.73
600.413	12222.45
600.609	11943.92
600.806	11982.84
601.002	12179.44
601.198	12011.51
601.395	11900.92
601.591	11913.2
601.787	11839.48
601.984	12036.08
602.18	11767.8
602.376	11929.59
602.572	11597.82
602.769	11565.05
602.965	11628.54
603.161	11626.49
603.357	11614.2
603.553	11528.19
603.75	11388.92
603.946	11501.56
604.142	11370.49
604.338	11331.58
604.534	11487.23
604.73	11247.62
604.926	11196.42
605.122	11177.98
605.318	11384.83
605.514	11059.2
605.71	11134.98
605.906	10889.22
606.102	11200.51
606.298	11124.74
606.494	11159.55
606.69	11018.24
606.886	10999.81
607.082	10868.74
607.278	11106.31
607.474	10862.6
607.67	11053.06
607.866	10764.29
608.062	10889.22
608.257	10735.62
608.453	10749.96
608.649	10620.94
608.845	10545.16
609.041	10565.64
609.236	10594.31
609.432	10631.18
609.628	10539.02
609.824	10403.85
610.019	10586.12
610.215	10639.37
610.411	10471.43
610.606	10434.57
610.802	10471.43
610.998	10541.07
611.193	10307.6
611.389	10207.25
611.584	10332.17
611.78	10180.62
611.976	10113.04
612.171	10371.08
612.367	10225.68
612.562	10197.01
612.758	10154
612.953	10106.9
613.149	10170.38
613.344	10012.69
613.539	10237.97
613.735	10022.93
613.93	10160.14
614.126	9850.9
614.321	10254.35
614.517	9971.73
614.712	9867.28
614.907	10074.13
615.103	10061.84
615.298	9947.15
615.493	10229.77
615.688	9975.83
615.884	9869.33
616.079	9785.37
616.274	9910.29
616.47	9678.87
616.665	9658.39
616.86	9768.98
617.055	9879.57
617.25	9629.72
617.445	9814.04
617.641	9695.25
617.836	9752.6
618.031	9449.5
618.226	9732.12
618.421	9527.32
618.616	9599
618.811	9449.5
619.006	9568.28
619.201	9154.59
619.396	9246.75
619.591	9271.33
619.786	9312.28
619.981	9191.45
620.176	9152.54
620.371	9162.78
620.566	9078.82
620.761	9113.63
620.956	9156.64
621.151	8972.32
621.346	8974.37
621.541	8878.12
621.735	9039.9
621.93	8859.68
622.125	9003.04
622.32	8740.9
622.515	8898.59
622.709	8534.06
622.904	8861.73
623.099	8601.64
623.294	8540.2
623.488	8540.2
623.683	8622.12
623.878	8271.92
624.072	8339.5
624.267	8255.53
624.462	8302.64
624.656	8190
624.851	8065.07
625.046	8091.7
625.24	7987.25
625.435	8163.37
625.629	8009.78
625.824	7981.1
626.018	8073.26
626.213	7694.39
626.407	8026.16
626.602	7780.4
626.796	7802.93
626.991	7770.16
627.185	7751.73
627.38	7485.5
627.574	7567.42
627.768	7450.68
627.963	7422.01
628.157	7460.92
628.352	7557.18
628.546	7323.71
628.74	7325.75
628.935	7323.71
629.129	7313.47
629.323	7360.57
629.517	7153.73
629.712	7233.6
629.906	7065.66
630.1	7051.33
630.294	7196.73
630.489	7030.85
630.683	6983.74
630.877	6789.19
631.071	6955.07
631.265	6973.5
631.459	6840.39
631.653	6828.1
631.848	6737.99
632.042	6703.17
632.236	6860.87
632.43	6656.07
632.624	6656.07
632.818	6531.14
633.012	6672.45
633.206	6514.76
633.4	6502.47
633.594	6412.36
633.788	6422.6
633.982	6559.81
634.176	6484.04
634.369	6471.75
634.563	6201.42
634.757	6074.45
634.951	6316.11
635.145	6269
635.339	6236.24
635.533	6182.99
635.726	6027.34
635.92	6086.73
636.114	6092.88
636.308	6000.72
636.501	5976.14
636.695	6000.72
636.889	5935.18
637.083	5849.17
637.276	5781.59
637.47	5752.91
637.664	5673.04
637.857	5781.59
638.051	5789.78
638.244	5580.89
638.438	5664.85
638.632	5707.86
638.825	5535.83
639.019	5517.4
639.212	5587.03
639.406	5511.25
639.599	5429.34
639.793	5435.48
639.986	5314.65
640.18	5390.42
640.373	5396.57
640.567	5371.99
640.76	5320.79
640.954	5300.31
641.147	5238.87
641.34	5230.68
641.534	5154.91
641.727	5267.55
641.92	5214.3
642.114	5085.28
642.307	4974.69
642.5	5101.66
642.694	4794.47
642.887	5005.41
643.08	5001.31
643.273	4927.58
643.467	4974.69
643.66	4763.75
643.853	4872.29
644.046	4810.85
644.239	4737.12
644.432	4636.77
644.626	4874.34
644.819	4737.12
645.012	4581.48
645.205	4657.25
645.398	4552.81
645.591	4622.44
645.784	4581.48
645.977	4546.66
646.17	4425.83
646.363	4442.21
646.556	4530.28
646.749	4425.83
646.942	4511.85
647.135	4337.77
647.328	4495.46
647.521	4477.03
647.714	4272.23
647.907	4325.48
648.099	4272.23
648.292	4249.71
648.485	4251.75
648.678	4200.55
648.871	4331.62
649.064	4182.12
649.256	4098.16
649.449	4122.73
649.642	4139.12
649.835	4044.91
650.027	3948.65
650.22	4073.58
650.413	4036.72
650.605	4032.62
650.798	3950.7
650.991	4024.43
651.183	3893.36
651.376	3979.37
651.568	3864.69
651.761	3926.13
651.954	3819.63
652.146	3842.16
652.339	3819.63
652.531	3782.77
652.724	3897.46
652.916	3586.16
653.109	3706.99
653.301	3858.54
653.494	3735.67
653.686	3717.23
653.879	3696.75
654.071	3502.2
654.263	3623.03
654.456	3713.14
654.648	3696.75
654.84	3555.44
655.033	3668.08
655.225	3479.67
655.417	3582.07
655.61	3541.11
655.802	3530.87
655.994	3393.65
656.186	3491.96
656.379	3340.41
656.571	3315.83
656.763	3383.42
656.955	3385.46
657.148	3360.89
657.34	3336.31
657.532	3321.98
657.724	3391.61
657.916	3254.39
658.108	3297.4
658.3	3162.23
658.492	3235.96
658.684	3246.2
658.876	3172.47
659.068	3254.39
659.26	3100.8
659.452	3162.23
659.644	3221.63
659.836	3192.95
660.028	3256.44
660.22	3135.61
660.412	3104.89
660.604	3043.45
660.796	2971.77
660.988	3084.41
661.18	2881.66
661.372	2963.58
661.563	3100.8
661.755	2963.58
661.947	3031.16
662.139	2910.33
662.331	2977.92
662.522	2904.19
662.714	2963.58
662.906	2900.09
663.097	2842.75
663.289	2918.53
663.481	2758.78
663.673	2869.37
663.864	2781.31
664.056	2699.39
664.247	2848.9
664.439	2711.68
664.631	2818.18
664.822	2726.02
665.014	2711.68
665.205	2719.87
665.397	2699.39
665.588	2730.11
665.78	2832.51
665.971	2709.63
666.163	2592.9
666.354	2576.52
666.546	2578.56
666.737	2599.04
666.929	2621.57
667.12	2576.52
667.311	2650.24
667.503	2431.11
667.694	2455.69
667.885	2510.98
668.077	2500.74
668.268	2582.66
668.459	2594.95
668.651	2633.86
668.842	2433.16
669.033	2523.27
669.224	2281.61
669.416	2545.8
669.607	2482.31
669.798	2353.29
669.989	2365.57
670.18	2386.05
670.371	2416.77
670.563	2418.82
670.754	2490.5
670.945	2384.01
671.136	2246.79
671.327	2394.25
671.518	2349.19
671.709	2318.47
671.9	2283.66
672.091	2345.09
672.282	2291.85
672.473	2211.98
672.664	2271.37
672.855	2277.51
673.046	2326.66
673.237	2359.43
673.428	2246.79
673.619	2279.56
673.809	2336.9
674	2211.98
674.191	2177.16
674.382	2130.06
674.573	2162.83
674.764	2183.31
674.954	2291.85
675.145	2216.07
675.336	2103.43
675.527	2146.44
675.717	2066.57
675.908	2166.92
676.099	2183.31
676.289	2132.11
676.48	2136.2
676.671	2140.3
676.861	2222.22
677.052	2078.86
677.243	2099.34
677.433	2042
677.624	2125.96
677.814	2021.52
678.005	2021.52
678.195	2062.48
678.386	2056.33
678.576	2015.37
678.767	2103.43
678.957	2168.97
679.148	1996.94
679.338	1962.12
679.529	2042
679.719	1984.65
679.909	2181.26
680.1	2009.23
680.29	2119.82
680.481	2019.47
680.671	2058.38
680.861	1960.08
681.052	1927.31
681.242	1906.83
681.432	2009.23
681.622	1878.16
681.813	1943.69
682.003	2017.42
682.193	2013.32
682.383	1968.27
682.573	1917.07
682.764	1915.02
682.954	1974.41
683.144	1986.7
683.334	1904.78
683.524	1859.73
683.714	1894.54
683.904	1855.63
684.094	1970.32
684.284	1902.73
684.474	1933.45
684.664	1886.35
684.854	1851.53
685.044	1869.97
685.234	1798.29
685.424	1929.36
685.614	1906.83
685.804	1945.74
685.994	1853.58
686.184	1904.78
686.374	1859.73
686.564	1695.89
686.753	1917.07
686.943	1822.86
687.133	1884.3
687.323	1767.57
687.513	1728.66
687.702	1829.01
687.892	1816.72
688.082	1794.19
688.272	1716.37
688.461	1790.1
688.651	1747.09
688.841	1892.49
689.03	1724.56
689.22	1839.25
689.41	1681.55
689.599	1718.42
689.789	1759.38
689.979	1659.03
690.168	1771.66
690.358	1738.9
690.547	1714.32
690.737	1665.17
690.926	1704.08
691.116	1648.79
691.305	1863.82
691.495	1597.59
691.684	1587.35
691.874	1636.5
692.063	1646.74
692.252	1736.85
692.442	1695.89
692.631	1583.25
692.82	1747.09
693.01	1611.92
693.199	1695.89
693.388	1628.31
693.578	1699.98
693.767	1665.17
693.956	1640.59
694.146	1581.2
694.335	1599.63
694.524	1558.67
694.713	1575.06
694.902	1503.38
695.092	1632.4
695.281	1622.16
695.47	1513.62
695.659	1593.49
695.848	1558.67
696.037	1613.97
696.226	1601.68
696.415	1515.67
696.604	1550.48
696.793	1585.3
696.982	1638.55
697.171	1534.1
697.36	1525.91
697.549	1484.95
697.738	1564.82
697.927	1579.15
698.116	1605.78
698.305	1632.4
698.494	1589.39
698.683	1530
698.872	1638.55
699.061	1480.85
699.25	1640.59
699.438	1532.05
699.627	1607.83
699.816	1460.37
700.005	1538.2
700.193	1505.43
700.382	1552.53
700.571	1579.15
700.76	1634.45
700.948	1583.25
701.137	1661.07
701.326	1589.39
701.514	1527.96
701.703	1532.05
701.892	1552.53
702.08	1583.25
702.269	1616.02
702.457	1665.17
702.646	1546.39
702.834	1597.59
703.023	1515.67
703.212	1603.73
703.4	1558.67
703.589	1566.87
703.777	1677.46
703.965	1636.5
704.154	1552.53
704.342	1675.41
704.531	1589.39
704.719	1599.63
704.907	1587.35
705.096	1540.24
705.284	1616.02
705.472	1616.02
705.661	1634.45
705.849	1683.6
706.037	1687.7
706.226	1497.24
706.414	1613.97
706.602	1665.17
706.79	1583.25
706.979	1577.11
707.167	1616.02
707.355	1597.59
707.543	1630.35
707.731	1595.54
707.919	1591.44
708.107	1611.92
708.296	1552.53
708.484	1636.5
708.672	1616.02
708.86	1613.97
709.048	1681.55
709.236	1634.45
709.424	1558.67
709.612	1583.25
709.8	1554.58
709.988	1570.96
710.176	1652.88
710.364	1720.46
710.551	1728.66
710.739	1519.76
710.927	1638.55
711.115	1648.79
711.303	1654.93
711.491	1618.07
711.679	1622.16
711.866	1562.77
712.054	1646.74
712.242	1661.07
712.43	1613.97
712.617	1566.87
712.805	1671.31
712.993	1558.67
713.181	1603.73
713.368	1697.94
713.556	1630.35
713.744	1665.17
713.931	1679.51
714.119	1652.88
714.306	1575.06
714.494	1683.6
714.682	1712.27
714.869	1564.82
715.057	1632.4
715.244	1542.29
715.432	1687.7
715.619	1663.12
715.807	1652.88
715.994	1636.5
716.182	1622.16
716.369	1616.02
716.556	1667.22
716.744	1624.21
716.931	1640.59
717.119	1646.74
717.306	1679.51
717.493	1593.49
717.681	1622.16
717.868	1570.96
718.055	1585.3
718.242	1648.79
718.43	1656.98
718.617	1603.73
718.804	1622.16
718.991	1640.59
719.179	1747.09
719.366	1591.44
719.553	1697.94
719.74	1755.28
719.927	1624.21
720.114	1648.79
720.301	1589.39
720.488	1630.35
720.676	1581.2
720.863	1683.6
721.05	1689.74
721.237	1802.38
721.424	1669.27
721.611	1665.17
721.798	1730.7
721.985	1611.92
722.172	1613.97
722.358	1513.62
722.545	1699.98
722.732	1648.79
722.919	1630.35
723.106	1620.11
723.293	1634.45
723.48	1642.64
723.667	1685.65
723.853	1636.5
724.04	1693.84
724.227	1599.63
724.414	1667.22
724.6	1642.64
724.787	1548.44
724.974	1710.22
725.161	1558.67
725.347	1656.98
725.534	1722.51
725.72	1585.3
725.907	1665.17
726.094	1665.17
726.28	1630.35
726.467	1642.64
726.653	1632.4
726.84	1646.74
727.027	1677.46
727.213	1593.49
727.4	1587.35
727.586	1628.31
727.773	1575.06
727.959	1661.07
728.145	1665.17
728.332	1677.46
728.518	1575.06
728.705	1603.73
728.891	1583.25
729.077	1601.68
729.264	1677.46
729.45	1597.59
729.636	1704.08
729.823	1591.44
730.009	1626.26
730.195	1624.21
730.382	1650.83
730.568	1636.5
730.754	1648.79
730.94	1589.39
731.126	1716.37
731.313	1648.79
731.499	1573.01
731.685	1714.32
731.871	1661.07
732.057	1616.02
732.243	1495.19
732.429	1628.31
732.615	1630.35
732.801	1659.03
732.987	1634.45
733.173	1632.4
733.359	1654.93
733.545	1587.35
733.731	1587.35
733.917	1740.94
734.103	1634.45
734.289	1704.08
734.475	1601.68
734.661	1618.07
734.847	1640.59
735.033	1683.6
735.219	1603.73
735.404	1642.64
735.59	1669.27
735.776	1644.69
735.962	1679.51
736.148	1624.21
736.333	1589.39
736.519	1527.96
736.705	1640.59
736.89	1575.06
737.076	1597.59
737.262	1593.49
737.447	1538.2
737.633	1489.04
737.819	1511.57
738.004	1595.54
738.19	1611.92
738.375	1570.96
738.561	1472.66
738.747	1536.15
738.932	1517.72
739.118	1583.25
739.303	1470.61
739.489	1525.91
739.674	1603.73
739.859	1507.48
740.045	1542.29
740.23	1530
740.416	1570.96
740.601	1554.58
740.786	1482.9
740.972	1429.65
741.157	1519.76
741.342	1511.57
741.528	1542.29
741.713	1417.37
741.898	1429.65
742.084	1456.28
742.269	1452.18
742.454	1495.19
742.639	1536.15
742.824	1530
743.01	1542.29
743.195	1546.39
743.38	1458.32
743.565	1443.99
743.75	1413.27
743.935	1366.17
744.12	1493.14
744.305	1464.47
744.49	1517.72
744.675	1380.5
744.86	1448.08
745.045	1448.08
745.23	1333.4
745.415	1380.5
745.6	1470.61
745.785	1271.96
745.97	1443.99
746.155	1454.23
746.34	1360.02
746.525	1357.97
746.71	1362.07
746.895	1327.25
747.079	1317.01
747.264	1335.45
747.449	1353.88
747.634	1304.73
747.819	1241.24
748.003	1278.1
748.188	1321.11
748.373	1314.97
748.557	1286.3
748.742	1282.2
748.927	1206.42
749.111	1243.29
749.296	1280.15
749.481	1274.01
749.665	1261.72
749.85	1169.56
750.034	1345.69
750.219	1222.81
750.404	1317.01
750.588	1243.29
750.773	1204.38
750.957	1224.86
751.141	1169.56
751.326	1216.66
751.51	1089.69
751.695	1099.93
751.879	1239.19
752.064	1263.77
752.248	1116.31
752.432	1222.81
752.617	1007.77
752.801	1079.45
752.985	1167.51
753.17	1052.83
753.354	1083.55
753.538	1003.68
753.722	1044.63
753.907	1058.97
754.091	1069.21
754.275	991.39
754.459	1052.83
754.643	993.44
754.828	1069.21
755.012	1005.72
755.196	1091.74
755.38	964.76
755.564	1003.68
755.748	983.2
755.932	1042.59
756.116	905.37
756.3	964.76
756.484	1040.54
756.668	1052.83
756.852	897.18
757.036	907.42
757.22	1042.59
757.404	903.32
757.588	886.94
757.772	909.47
757.956	952.48
758.14	972.96
758.323	874.65
758.507	878.75
758.691	899.23
758.875	895.13
759.059	886.94
759.242	784.54
759.426	938.14
759.61	823.45
759.794	817.31
759.977	833.69
760.161	901.28
760.345	864.41
760.528	825.5
760.712	878.75
760.895	825.5
761.079	919.71
761.263	852.13
761.446	755.87
761.63	848.03
761.813	876.7
761.997	843.93
762.18	800.93
762.364	800.93
762.547	755.87
762.731	776.35
762.914	704.67
763.098	798.88
763.281	714.91
763.464	809.12
763.648	802.97
763.831	745.63
764.015	780.45
764.198	770.21
764.381	762.02
764.564	802.97
764.748	755.87
764.931	733.34
765.114	827.55
765.297	727.2
765.481	739.49
765.664	719.01
765.847	735.39
766.03	704.67
766.213	696.48
766.397	673.95
766.58	671.9
766.763	727.2
766.946	663.71
767.129	729.25
767.312	735.39
767.495	768.16
767.678	739.49
767.861	686.24
768.044	813.21
768.227	772.25
768.41	618.66
768.593	690.34
768.776	669.86
768.959	706.72
769.142	694.43
769.324	706.72
769.507	727.2
769.69	690.34
769.873	657.57
770.056	690.34
770.239	749.73
770.421	716.96
770.604	659.62
770.787	678.05
770.97	710.82
771.152	714.91
771.335	606.37
771.518	624.8
771.7	667.81
771.883	606.37
772.066	571.55
772.248	606.37
772.431	655.52
772.613	684.19
772.796	573.6
772.978	604.32
773.161	585.89
773.343	682.14
773.526	503.97
773.708	530.59
773.891	569.51
774.073	551.07
774.256	557.22
774.438	551.07
774.621	561.31
774.803	575.65
774.985	473.25
775.168	626.85
775.35	579.75
775.532	561.31
775.715	571.55
775.897	473.25
776.079	569.51
776.261	528.55
776.444	520.35
776.626	530.59
776.808	592.03
776.99	526.5
777.173	442.53
777.355	596.13
777.537	565.41
777.719	450.72
777.901	473.25
778.083	460.96
778.265	450.72
778.447	579.75
778.629	409.76
778.811	446.63
778.993	446.63
779.175	506.02
779.357	596.13
779.539	387.24
779.721	434.34
779.903	458.92
780.085	440.48
780.267	405.67
780.449	436.39
780.631	506.02
780.812	395.43
780.994	456.87
781.176	432.29
781.358	356.52
781.54	379.04
781.721	485.54
781.903	442.53
782.085	409.76
782.267	424.1
782.448	342.18
782.63	362.66
782.812	387.24
782.993	319.65
783.175	487.59
783.357	321.7
783.538	366.76
783.72	401.57
783.901	389.28
784.083	448.68
784.264	333.99
784.446	381.09
784.627	317.61
784.809	311.46
784.99	411.81
785.172	395.43
785.353	329.89
785.535	333.99
785.716	387.24
785.897	290.98
786.079	342.18
786.26	387.24
786.441	282.79
786.623	309.41
786.804	385.19
786.985	311.46
787.167	342.18
787.348	327.85
787.529	303.27
787.71	370.85
787.891	413.86
788.073	254.12
788.254	268.45
788.435	352.42
788.616	262.31
788.797	198.82
788.978	344.23
789.159	303.27
789.34	268.45
789.522	258.21
789.703	284.84
789.884	256.17
790.065	317.61
790.246	338.09
790.427	221.35
790.607	329.89
790.788	282.79
790.969	186.54
791.15	217.26
791.331	202.92
791.512	276.65
791.693	243.88
791.874	313.51
792.054	239.78
792.235	323.75
792.416	231.59
792.597	239.78
792.778	307.37
792.958	252.07
793.139	239.78
793.32	239.78
793.5	247.97
793.681	270.5
793.862	258.21
794.042	258.21
794.223	170.15
794.404	229.54
794.584	270.5
794.765	319.65
794.945	225.45
795.126	184.49
795.306	215.21
795.487	239.78
795.667	276.65
795.848	198.82
796.028	207.02
796.209	256.17
796.389	198.82
796.57	243.88
796.75	256.17
796.93	262.31
797.111	278.69
797.291	211.11
797.471	188.58
797.652	241.83
797.832	276.65
798.012	247.97
798.192	223.4
798.373	190.63
798.553	178.34
798.733	127.14
798.913	250.02
799.093	182.44
799.274	247.97
799.454	256.17
799.634	178.34
799.814	190.63
799.994	272.55
800.174	166.06
800.354	235.69
800.534	194.73
800.714	213.16
800.894	204.97
801.074	243.88
801.254	174.25
801.434	207.02
801.614	182.44
801.794	141.48
801.974	645.28
802.154	166.06
802.334	198.82
802.514	166.06
802.693	147.62
802.873	237.74
803.053	198.82
803.233	264.36
803.413	82.09
803.592	159.91
803.772	147.62
803.952	207.02
804.131	149.67
804.311	157.86
804.491	198.82
804.67	174.25
804.85	106.67
805.03	180.39
805.209	157.86
805.389	104.62
805.568	80.04
805.748	112.81
805.928	186.54
806.107	174.25
806.287	186.54
806.466	161.96
806.646	178.34
806.825	137.38
807.004	209.06
807.184	137.38
807.363	174.25
807.543	164.01
807.722	121
807.901	71.85
808.081	108.71
808.26	88.23
808.439	143.53
808.619	116.9
808.798	133.29
808.977	180.39
809.156	133.29
809.336	149.67
809.515	123.05
809.694	135.34
809.873	182.44
810.052	161.96
810.231	215.21
810.411	112.81
810.59	137.38
810.769	170.15
810.948	186.54
811.127	131.24
811.306	94.38
811.485	129.19
811.664	168.1
811.843	129.19
812.022	129.19
812.201	104.62
812.38	92.33
812.559	67.75
812.737	157.86
812.916	59.56
813.095	94.38
813.274	90.28
813.453	190.63
813.632	121
813.811	121
813.989	67.75
814.168	88.23
814.347	174.25
814.526	104.62
814.704	106.67
814.883	153.77
815.062	90.28
815.24	92.33
815.419	67.75
815.598	96.43
815.776	55.47
815.955	151.72
816.133	67.75
816.312	188.58
816.49	145.58
816.669	166.06
816.847	84.14
817.026	131.24
817.204	75.95
817.383	51.37
817.561	161.96
817.74	94.38
817.918	65.71
818.097	157.86
818.275	26.79
818.453	121
818.632	190.63
818.81	53.42
818.988	55.47
819.167	53.42
819.345	2.22
819.523	39.08
819.701	123.05
819.879	121
820.058	141.48
820.236	100.52
820.414	106.67
820.592	106.67
820.77	53.42
820.948	63.66
821.127	112.81
821.305	161.96
821.483	100.52
821.661	61.61
821.839	145.58
822.017	55.47
822.195	75.95
822.373	24.75
822.551	118.95
822.729	102.57
822.907	94.38
823.085	71.85
823.262	139.43
823.44	71.85
823.618	108.71
823.796	94.38
823.974	71.85
824.152	61.61
824.329	73.9
824.507	77.99
824.685	94.38
824.863	77.99
825.04	61.61
825.218	80.04
825.396	94.38
825.574	204.97
825.751	67.75
825.929	65.71
826.107	71.85
826.284	112.81
826.462	104.62
826.639	73.9
826.817	14.51
826.994	84.14
827.172	-20.31
827.349	77.99
827.527	57.51
827.704	104.62
827.882	63.66
828.059	65.71
828.237	37.03
828.414	28.84
828.591	73.9
828.769	57.51
828.946	47.27
829.124	108.71
829.301	47.27
829.478	69.8
829.655	108.71
829.833	84.14
830.01	41.13
830.187	94.38
830.364	20.65
830.542	24.75
830.719	141.48
830.896	116.9
831.073	26.79
831.25	80.04
831.427	104.62
831.604	82.09
831.782	75.95
831.959	114.86
832.136	100.52
832.313	110.76
832.49	32.94
832.667	92.33
832.844	-3.93
833.021	10.41
833.198	90.28
833.374	69.8
833.551	55.47
833.728	-5.97
833.905	90.28
834.082	86.19
834.259	67.75
834.436	94.38
834.612	30.89
834.789	-18.26
834.966	102.57
835.143	53.42
835.319	84.14
835.496	118.95
835.673	59.56
835.85	2.22
836.026	55.47
836.203	73.9
836.38	14.51
836.556	24.75
836.733	39.08
836.909	47.27
837.086	82.09
837.262	51.37
837.439	-26.45
837.616	69.8
837.792	30.89
837.968	51.37
838.145	-14.17
838.321	26.79
838.498	6.31
838.674	96.43
838.851	73.9
839.027	28.84
839.203	45.23
839.38	-3.93
839.556	-10.07
839.732	106.67
839.909	39.08
840.085	59.56
840.261	4.27
840.437	28.84
840.614	57.51
840.79	12.46
840.966	84.14
841.142	55.47
841.318	43.18
841.494	41.13
841.671	69.8
841.847	-10.07
842.023	24.75
842.199	67.75
842.375	80.04
842.551	-8.02
842.727	43.18
842.903	92.33
843.079	59.56
843.255	57.51
843.431	71.85
843.607	80.04
843.783	30.89
843.959	-22.36
844.134	73.9
844.31	51.37
844.486	80.04
844.662	30.89
844.838	20.65
845.013	39.08
845.189	-5.97
845.365	-5.97
845.541	51.37
845.716	28.84
845.892	16.55
846.068	47.27
846.244	-42.84
846.419	6.31
846.595	16.55
846.77	55.47
846.946	45.23
847.122	22.7
847.297	10.41
847.473	84.14
847.648	28.84
847.824	51.37
847.999	-32.6
848.175	37.03
848.35	-20.31
848.526	166.06
848.701	-1.88
848.876	71.85
849.052	96.43
849.227	88.23
849.403	-8.02
849.578	20.65
849.753	51.37
849.929	77.99
850.104	14.51
850.279	-5.97
850.454	92.33
850.63	71.85
850.805	0.17
850.98	34.99
851.155	69.8
851.33	51.37
851.505	28.84
851.681	75.95
851.856	53.42
852.031	30.89
852.206	30.89
852.381	2.22
852.556	30.89
852.731	49.32
852.906	12.46
853.081	10.41
853.256	-40.79
853.431	26.79
853.606	28.84
853.781	47.27
853.956	-38.74
854.131	2.22
854.305	12.46
854.48	-18.26
854.655	-16.21
854.83	-36.69
855.005	-12.12
855.18	69.8
855.354	59.56
855.529	-65.36
855.704	67.75
855.879	131.24
856.053	30.89
856.228	84.14
856.403	-24.4
856.577	-10.07
856.752	-53.08
856.926	26.79
857.101	47.27
857.276	32.94
857.45	10.41
857.625	88.23
857.799	-18.26
857.974	86.19
858.148	10.41
858.323	0.17
858.497	49.32
858.672	98.47
858.846	0.17
859.02	37.03
859.195	43.18
859.369	-10.07
859.543	30.89
859.718	69.8
859.892	-12.12
860.066	14.51
860.241	67.75
860.415	24.75
860.589	-3.93
860.763	43.18
860.938	82.09
861.112	32.94
861.286	18.6
861.46	-22.36
861.634	80.04
861.808	22.7
861.982	-30.55
862.157	4.27
862.331	67.75
862.505	-8.02
862.679	6.31
862.853	10.41
863.027	-14.17
863.201	30.89
863.375	-28.5
863.549	88.23
863.722	32.94
863.896	131.24
864.07	14.51
864.244	-10.07
864.418	12.46
864.592	98.47
864.766	6.31
864.939	53.42
865.113	-79.7
865.287	108.71
865.461	-20.31
865.634	59.56
865.808	28.84
865.982	28.84
866.156	-24.4
866.329	20.65
866.503	-38.74
866.676	53.42
866.85	-5.97
867.024	0.17
867.197	43.18
867.371	2.22
867.544	32.94
867.718	-8.02
867.891	-28.5
868.065	125.1
868.238	32.94
868.412	-14.17
868.585	-5.97
868.759	-8.02
868.932	43.18
869.105	51.37
869.279	45.23
869.452	-32.6
869.625	75.95
869.799	-67.41
869.972	4.27
870.145	10.41
870.319	22.7
870.492	-10.07
870.665	-42.84
870.838	-3.93
871.011	-1.88
871.185	-3.93
871.358	55.47
871.531	63.66
871.704	4.27
871.877	-32.6
872.05	61.61
872.223	-22.36
872.396	49.32
872.569	0.17
872.742	2.22
872.915	10.41
873.088	73.9
873.261	-38.74
873.434	10.41
873.607	4.27
873.78	41.13
873.953	-30.55
874.126	-22.36
874.299	32.94
874.471	-28.5
874.644	39.08
874.817	34.99
874.99	108.71
875.163	-71.51
875.335	30.89
875.508	-18.26
875.681	98.47
875.853	47.27
876.026	-57.17
876.199	55.47
876.371	26.79
876.544	67.75
876.717	59.56
876.889	30.89
877.062	82.09
877.234	16.55
877.407	57.51
877.579	18.6
877.752	22.7
877.924	18.6
878.097	4.27
878.269	55.47
878.442	-1.88
878.614	4.27
878.786	45.23
878.959	100.52
879.131	-1.88
879.303	-1.88
879.476	41.13
879.648	-10.07
879.82	39.08
879.993	-1.88
880.165	34.99
880.337	30.89
880.509	-5.97
880.681	41.13
880.854	75.95
881.026	80.04
881.198	106.67
881.37	55.47
881.542	-5.97
881.714	-34.64
881.886	-5.97
882.058	20.65
882.23	20.65
882.402	-38.74
882.574	51.37
882.746	-81.75
882.918	24.75
883.09	34.99
883.262	-53.08
883.434	71.85
883.606	-53.08
883.778	34.99
883.95	28.84
884.122	-18.26
884.293	-28.5
884.465	4.27
884.637	24.75
884.809	-10.07
884.98	14.51
885.152	-3.93
885.324	53.42
885.496	-28.5
885.667	-1.88
885.839	-32.6
886.011	2.22
886.182	26.79
886.354	-14.17
886.525	10.41
886.697	-22.36
886.869	-42.84
887.04	6.31
887.212	63.66
887.383	34.99
887.555	-55.12
887.726	0.17
887.897	-5.97
888.069	-26.45
888.24	77.99
888.412	10.41
888.583	41.13
888.754	63.66
888.926	-36.69
889.097	14.51
889.268	-34.64
889.44	-122.71
889.611	0.17
889.782	-14.17
889.953	14.51
890.125	51.37
890.296	-65.36
890.467	2.22
890.638	6.31
890.809	-3.93
890.98	-24.4
891.151	-18.26
891.323	-63.32
891.494	59.56
891.665	61.61
891.836	59.56
892.007	18.6
892.178	51.37
892.349	-104.28
892.52	-32.6
892.691	10.41
892.862	10.41
893.032	63.66
893.203	-30.55
893.374	10.41
893.545	73.9
893.716	-30.55
893.887	18.6
894.057	10.41
894.228	32.94
894.399	-32.6
894.57	24.75
894.74	65.71
894.911	-34.64
895.082	-61.27
895.253	-36.69
895.423	4.27
895.594	30.89
895.764	-18.26
895.935	16.55
896.106	-40.79
896.276	26.79
896.447	4.27
896.617	-65.36
896.788	22.7
896.958	-8.02
897.129	-26.45
897.299	30.89
897.47	-12.12
897.64	-1.88
897.81	37.03
897.981	55.47
898.151	-22.36
898.322	75.95
898.492	-16.21
898.662	43.18
898.832	-12.12
899.003	18.6
899.173	14.51
899.343	-16.21
899.513	43.18
