Data from USB4F104151__235__11-11-15-852.txt Node

Date: Wed Mar 12 11:11:15 EDT 2025
User: louis
Spectrometer: USB4F10415
Trigger mode: 4
Integration Time (sec): 2.000000E-2
Scans to average: 1
Electric dark correction enabled: true
Nonlinearity correction enabled: false
Boxcar width: 0
XAxis mode: Wavelengths
Number of Pixels in Spectrum: 3648
>>>>>Begin Spectral Data<<<<<
178.204	-97.79
178.424	-97.79
178.644	-97.79
178.864	-44.54
179.084	-85.5
179.304	-30.21
179.524	25.09
179.744	-22.02
179.964	49.66
180.184	-22.02
180.404	2.56
180.624	35.33
180.844	-7.68
181.064	51.71
181.283	8.7
181.503	-40.45
181.723	-50.69
181.943	10.75
182.163	41.47
182.383	39.42
182.602	43.52
182.822	78.33
183.042	94.72
183.262	-19.97
183.482	8.7
183.701	16.9
183.921	33.28
184.141	-1.54
184.361	6.66
184.58	68.09
184.8	10.75
185.02	51.71
185.239	45.57
185.459	88.57
185.679	12.8
185.898	-5.63
186.118	39.42
186.338	31.23
186.557	16.9
186.777	-32.26
186.997	25.09
187.216	8.7
187.436	47.62
187.655	16.9
187.875	-7.68
188.095	18.94
188.314	92.67
188.534	27.14
188.753	6.66
188.973	49.66
189.192	57.86
189.412	-5.63
189.631	-11.78
189.851	29.18
190.07	31.23
190.29	-1.54
190.509	39.42
190.729	-26.11
190.948	-7.68
191.168	123.39
191.387	-1.54
191.607	55.81
191.826	23.04
192.045	-19.97
192.265	84.48
192.484	16.9
192.704	37.38
192.923	43.52
193.142	98.81
193.362	23.04
193.581	4.61
193.8	-15.87
194.02	-11.78
194.239	80.38
194.458	43.52
194.678	6.66
194.897	68.09
195.116	20.99
195.335	16.9
195.555	10.75
195.774	47.62
195.993	-22.02
196.212	37.38
196.432	49.66
196.651	6.66
196.87	-17.92
197.089	96.77
197.308	113.15
197.528	57.86
197.747	-44.54
197.966	39.42
198.185	51.71
198.404	37.38
198.623	59.9
198.842	84.48
199.062	100.86
199.281	92.67
199.5	-9.73
199.719	16.9
199.938	-9.73
200.157	-48.64
200.376	33.28
200.595	76.29
200.814	8.7
201.033	16.9
201.252	29.18
201.471	68.09
201.69	31.23
201.909	49.66
202.128	-7.68
202.347	29.18
202.566	20.99
202.785	37.38
203.004	35.33
203.223	64
203.442	20.99
203.661	20.99
203.879	57.86
204.098	39.42
204.317	-7.68
204.536	37.38
204.755	-5.63
204.974	12.8
205.193	-22.02
205.411	104.96
205.63	121.34
205.849	94.72
206.068	-17.92
206.287	-1.54
206.505	35.33
206.724	37.38
206.943	43.52
207.162	55.81
207.381	25.09
207.599	10.75
207.818	55.81
208.037	-34.3
208.255	72.19
208.474	37.38
208.693	-22.02
208.911	25.09
209.13	45.57
209.349	-5.63
209.567	47.62
209.786	100.86
210.005	68.09
210.223	33.28
210.442	14.85
210.661	35.33
210.879	45.57
211.098	37.38
211.316	51.71
211.535	14.85
211.753	10.75
211.972	-17.92
212.191	-56.83
212.409	51.71
212.628	113.15
212.846	-5.63
213.065	-36.35
213.283	23.04
213.502	10.75
213.72	49.66
213.938	45.57
214.157	59.9
214.375	-42.5
214.594	72.19
214.812	37.38
215.031	-9.73
215.249	14.85
215.467	37.38
215.686	64
215.904	47.62
216.122	53.76
216.341	27.14
216.559	-15.87
216.778	41.47
216.996	39.42
217.214	14.85
217.432	49.66
217.651	100.86
217.869	29.18
218.087	51.71
218.306	6.66
218.524	39.42
218.742	-1.54
218.96	51.71
219.179	29.18
219.397	98.81
219.615	-17.92
219.833	27.14
220.051	68.09
220.27	78.33
220.488	-5.63
220.706	33.28
220.924	31.23
221.142	23.04
221.36	23.04
221.578	8.7
221.796	25.09
222.015	55.81
222.233	57.86
222.451	131.58
222.669	25.09
222.887	80.38
223.105	10.75
223.323	20.99
223.541	-17.92
223.759	27.14
223.977	8.7
224.195	80.38
224.413	94.72
224.631	16.9
224.849	4.61
225.067	158.21
225.285	78.33
225.503	68.09
225.721	45.57
225.939	64
226.157	45.57
226.375	84.48
226.592	10.75
226.81	113.15
227.028	25.09
227.246	39.42
227.464	-42.5
227.682	-73.21
227.9	37.38
228.117	18.94
228.335	25.09
228.553	18.94
228.771	-26.11
228.989	72.19
229.206	84.48
229.424	41.47
229.642	-65.02
229.86	88.57
230.077	53.76
230.295	49.66
230.513	4.61
230.731	68.09
230.948	92.67
231.166	43.52
231.384	-11.78
231.601	-19.97
231.819	47.62
232.037	-5.63
232.254	16.9
232.472	76.29
232.689	-56.83
232.907	86.53
233.125	35.33
233.342	2.56
233.56	20.99
233.777	-15.87
233.995	-15.87
234.213	29.18
234.43	57.86
234.648	66.05
234.865	-5.63
235.083	8.7
235.3	-13.82
235.518	14.85
235.735	39.42
235.953	33.28
236.17	33.28
236.388	68.09
236.605	18.94
236.822	104.96
237.04	35.33
237.257	-13.82
237.475	-38.4
237.692	23.04
237.909	4.61
238.127	-7.68
238.344	27.14
238.562	141.82
238.779	8.7
238.996	12.8
239.214	25.09
239.431	-13.82
239.648	-42.5
239.865	70.14
240.083	84.48
240.3	-11.78
240.517	39.42
240.735	29.18
240.952	59.9
241.169	131.58
241.386	10.75
241.603	0.51
241.821	33.28
242.038	37.38
242.255	53.76
242.472	29.18
242.689	35.33
242.907	76.29
243.124	94.72
243.341	-75.26
243.558	29.18
243.775	59.9
243.992	2.56
244.209	94.72
244.426	41.47
244.643	68.09
244.86	14.85
245.078	-7.68
245.295	121.34
245.512	-17.92
245.729	6.66
245.946	12.8
246.163	41.47
246.38	49.66
246.597	6.66
246.814	35.33
247.031	16.9
247.248	104.96
247.464	53.76
247.681	64
247.898	88.57
248.115	-11.78
248.332	55.81
248.549	35.33
248.766	92.67
248.983	0.51
249.2	31.23
249.417	59.9
249.633	-7.68
249.85	-5.63
250.067	72.19
250.284	66.05
250.501	41.47
250.717	4.61
250.934	-26.11
251.151	-26.11
251.368	35.33
251.585	80.38
251.801	14.85
252.018	-36.35
252.235	80.38
252.451	-13.82
252.668	18.94
252.885	8.7
253.102	76.29
253.318	47.62
253.535	10.75
253.752	14.85
253.968	-3.58
254.185	6.66
254.401	64
254.618	-26.11
254.835	-13.82
255.051	78.33
255.268	49.66
255.484	-1.54
255.701	4.61
255.917	84.48
256.134	0.51
256.351	92.67
256.567	-5.63
256.784	-1.54
257	111.1
257.217	29.18
257.433	51.71
257.65	64
257.866	55.81
258.082	-38.4
258.299	-13.82
258.515	90.62
258.732	25.09
258.948	35.33
259.165	-22.02
259.381	37.38
259.597	23.04
259.814	59.9
260.03	-17.92
260.246	51.71
260.463	70.14
260.679	74.24
260.895	64
261.112	59.9
261.328	25.09
261.544	-22.02
261.761	66.05
261.977	90.62
262.193	0.51
262.409	27.14
262.626	39.42
262.842	8.7
263.058	55.81
263.274	-7.68
263.49	10.75
263.707	102.91
263.923	16.9
264.139	18.94
264.355	23.04
264.571	72.19
264.787	51.71
265.004	16.9
265.22	-1.54
265.436	47.62
265.652	-7.68
265.868	-19.97
266.084	74.24
266.3	10.75
266.516	-13.82
266.732	53.76
266.948	109.05
267.164	64
267.38	20.99
267.596	70.14
267.812	53.76
268.028	129.53
268.244	102.91
268.46	27.14
268.676	61.95
268.892	25.09
269.108	-77.31
269.324	57.86
269.54	61.95
269.756	59.9
269.972	92.67
270.188	64
270.403	-17.92
270.619	-1.54
270.835	107.01
271.051	86.53
271.267	27.14
271.483	20.99
271.698	14.85
271.914	14.85
272.13	-1.54
272.346	23.04
272.562	-44.54
272.777	68.09
272.993	14.85
273.209	59.9
273.425	-13.82
273.64	4.61
273.856	43.52
274.072	41.47
274.287	66.05
274.503	25.09
274.719	80.38
274.934	-30.21
275.15	0.51
275.366	-28.16
275.581	35.33
275.797	2.56
276.012	14.85
276.228	35.33
276.444	16.9
276.659	78.33
276.875	43.52
277.09	104.96
277.306	-13.82
277.521	86.53
277.737	-7.68
277.952	88.57
278.168	18.94
278.383	-54.78
278.599	27.14
278.814	12.8
279.03	68.09
279.245	49.66
279.461	-32.26
279.676	31.23
279.892	104.96
280.107	14.85
280.322	16.9
280.538	20.99
280.753	59.9
280.969	31.23
281.184	4.61
281.399	109.05
281.615	57.86
281.83	-26.11
282.045	-38.4
282.26	47.62
282.476	27.14
282.691	18.94
282.906	37.38
283.122	23.04
283.337	8.7
283.552	-9.73
283.767	43.52
283.983	43.52
284.198	-15.87
284.413	-28.16
284.628	43.52
284.843	33.28
285.058	-28.16
285.274	31.23
285.489	27.14
285.704	55.81
285.919	27.14
286.134	27.14
286.349	12.8
286.564	18.94
286.779	82.43
286.995	61.95
287.21	-3.58
287.425	23.04
287.64	82.43
287.855	90.62
288.07	2.56
288.285	102.91
288.5	47.62
288.715	-3.58
288.93	-1.54
289.145	43.52
289.36	64
289.575	18.94
289.79	80.38
290.004	35.33
290.219	64
290.434	6.66
290.649	-11.78
290.864	33.28
291.079	16.9
291.294	18.94
291.509	39.42
291.724	98.81
291.938	-30.21
292.153	25.09
292.368	-5.63
292.583	6.66
292.798	76.29
293.012	29.18
293.227	25.09
293.442	20.99
293.657	35.33
293.871	66.05
294.086	6.66
294.301	35.33
294.516	-1.54
294.73	-17.92
294.945	4.61
295.16	18.94
295.374	92.67
295.589	39.42
295.804	0.51
296.018	45.57
296.233	55.81
296.447	49.66
296.662	-9.73
296.877	51.71
297.091	55.81
297.306	43.52
297.52	20.99
297.735	84.48
297.949	84.48
298.164	25.09
298.378	45.57
298.593	39.42
298.807	-22.02
299.022	45.57
299.236	23.04
299.451	20.99
299.665	33.28
299.88	70.14
300.094	59.9
300.309	78.33
300.523	29.18
300.737	86.53
300.952	49.66
301.166	57.86
301.381	41.47
301.595	47.62
301.809	37.38
302.024	-5.63
302.238	-112.13
302.452	12.8
302.667	37.38
302.881	78.33
303.095	80.38
303.309	8.7
303.524	-22.02
303.738	-22.02
303.952	47.62
304.166	-36.35
304.381	4.61
304.595	23.04
304.809	16.9
305.023	31.23
305.237	29.18
305.452	2.56
305.666	35.33
305.88	37.38
306.094	53.76
306.308	90.62
306.522	33.28
306.736	139.77
306.95	59.9
307.164	41.47
307.379	59.9
307.593	20.99
307.807	14.85
308.021	16.9
308.235	64
308.449	53.76
308.663	-13.82
308.877	45.57
309.091	12.8
309.305	53.76
309.519	37.38
309.733	76.29
309.947	-42.5
310.161	-13.82
310.374	98.81
310.588	66.05
310.802	27.14
311.016	-5.63
311.23	51.71
311.444	4.61
311.658	6.66
311.872	66.05
312.085	-1.54
312.299	37.38
312.513	86.53
312.727	-5.63
312.941	14.85
313.154	16.9
313.368	53.76
313.582	92.67
313.796	35.33
314.009	-17.92
314.223	18.94
314.437	43.52
314.651	55.81
314.864	88.57
315.078	39.42
315.292	12.8
315.505	39.42
315.719	37.38
315.933	-40.45
316.146	23.04
316.36	25.09
316.573	16.9
316.787	39.42
317.001	29.18
317.214	10.75
317.428	31.23
317.641	-48.64
317.855	-3.58
318.068	39.42
318.282	14.85
318.495	14.85
318.709	27.14
318.922	-11.78
319.136	72.19
319.349	41.47
319.563	-28.16
319.776	66.05
319.99	35.33
320.203	68.09
320.417	31.23
320.63	39.42
320.843	35.33
321.057	29.18
321.27	-50.69
321.483	31.23
321.697	78.33
321.91	-24.06
322.124	47.62
322.337	39.42
322.55	29.18
322.763	66.05
322.977	57.86
323.19	70.14
323.403	47.62
323.617	84.48
323.83	76.29
324.043	-9.73
324.256	51.71
324.469	86.53
324.683	35.33
324.896	37.38
325.109	-22.02
325.322	59.9
325.535	18.94
325.748	61.95
325.962	111.1
326.175	25.09
326.388	-26.11
326.601	-17.92
326.814	12.8
327.027	35.33
327.24	59.9
327.453	-1.54
327.666	96.77
327.879	107.01
328.092	27.14
328.305	92.67
328.518	-11.78
328.731	-9.73
328.944	-44.54
329.157	57.86
329.37	51.71
329.583	74.24
329.796	125.44
330.009	68.09
330.222	23.04
330.435	33.28
330.648	12.8
330.861	49.66
331.073	51.71
331.286	14.85
331.499	64
331.712	51.71
331.925	-1.54
332.138	49.66
332.35	86.53
332.563	-5.63
332.776	47.62
332.989	31.23
333.202	14.85
333.414	76.29
333.627	76.29
333.84	-1.54
334.053	98.81
334.265	64
334.478	-34.3
334.691	-5.63
334.903	74.24
335.116	29.18
335.329	59.9
335.541	-5.63
335.754	49.66
335.966	-3.58
336.179	64
336.392	39.42
336.604	12.8
336.817	61.95
337.029	68.09
337.242	-26.11
337.454	82.43
337.667	25.09
337.88	68.09
338.092	76.29
338.305	43.52
338.517	111.1
338.729	47.62
338.942	27.14
339.154	61.95
339.367	-36.35
339.579	27.14
339.792	18.94
340.004	43.52
340.217	59.9
340.429	39.42
340.641	113.15
340.854	-22.02
341.066	20.99
341.278	109.05
341.491	35.33
341.703	51.71
341.915	8.7
342.128	0.51
342.34	20.99
342.552	27.14
342.764	27.14
342.977	49.66
343.189	25.09
343.401	82.43
343.613	18.94
343.826	25.09
344.038	14.85
344.25	78.33
344.462	43.52
344.674	-34.3
344.886	-36.35
345.099	12.8
345.311	6.66
345.523	27.14
345.735	-28.16
345.947	113.15
346.159	8.7
346.371	43.52
346.583	59.9
346.795	47.62
347.007	27.14
347.219	20.99
347.431	-1.54
347.643	41.47
347.855	59.9
348.067	37.38
348.279	-9.73
348.491	25.09
348.703	27.14
348.915	86.53
349.127	37.38
349.339	100.86
349.551	14.85
349.763	8.7
349.975	88.57
350.187	68.09
350.399	64
350.61	12.8
350.822	49.66
351.034	23.04
351.246	41.47
351.458	68.09
351.669	80.38
351.881	109.05
352.093	72.19
352.305	82.43
352.517	51.71
352.728	23.04
352.94	74.24
353.152	41.47
353.363	-26.11
353.575	88.57
353.787	84.48
353.999	-7.68
354.21	49.66
354.422	96.77
354.633	33.28
354.845	51.71
355.057	70.14
355.268	-3.58
355.48	-3.58
355.692	35.33
355.903	80.38
356.115	35.33
356.326	-11.78
356.538	47.62
356.749	68.09
356.961	92.67
357.172	49.66
357.384	104.96
357.595	6.66
357.807	27.14
358.018	86.53
358.23	78.33
358.441	23.04
358.653	64
358.864	59.9
359.075	6.66
359.287	92.67
359.498	80.38
359.709	57.86
359.921	51.71
360.132	68.09
360.344	59.9
360.555	-38.4
360.766	55.81
360.977	23.04
361.189	84.48
361.4	6.66
361.611	104.96
361.823	111.1
362.034	49.66
362.245	-1.54
362.456	20.99
362.667	39.42
362.879	23.04
363.09	43.52
363.301	109.05
363.512	33.28
363.723	51.71
363.935	-3.58
364.146	115.2
364.357	27.14
364.568	49.66
364.779	18.94
364.99	125.44
365.201	-13.82
365.412	102.91
365.623	29.18
365.834	4.61
366.045	53.76
366.256	80.38
366.467	74.24
366.678	51.71
366.889	47.62
367.1	82.43
367.311	74.24
367.522	8.7
367.733	33.28
367.944	68.09
368.155	53.76
368.366	76.29
368.577	25.09
368.788	27.14
368.999	39.42
369.209	59.9
369.42	115.2
369.631	49.66
369.842	92.67
370.053	8.7
370.264	59.9
370.474	-11.78
370.685	47.62
370.896	23.04
371.107	-9.73
371.317	76.29
371.528	18.94
371.739	96.77
371.95	55.81
372.16	68.09
372.371	-67.07
372.582	-71.17
372.792	14.85
373.003	39.42
373.214	82.43
373.424	84.48
373.635	47.62
373.846	18.94
374.056	88.57
374.267	14.85
374.477	43.52
374.688	16.9
374.898	-1.54
375.109	12.8
375.319	39.42
375.53	115.2
375.74	43.52
375.951	92.67
376.161	33.28
376.372	72.19
376.582	2.56
376.793	70.14
377.003	76.29
377.214	94.72
377.424	47.62
377.635	72.19
377.845	78.33
378.055	94.72
378.266	96.77
378.476	61.95
378.686	35.33
378.897	14.85
379.107	23.04
379.317	14.85
379.528	8.7
379.738	92.67
379.948	18.94
380.158	72.19
380.369	47.62
380.579	64
380.789	70.14
380.999	12.8
381.21	90.62
381.42	141.82
381.63	72.19
381.84	94.72
382.05	76.29
382.261	31.23
382.471	33.28
382.681	6.66
382.891	41.47
383.101	2.56
383.311	41.47
383.521	104.96
383.731	68.09
383.941	78.33
384.151	55.81
384.361	4.61
384.571	107.01
384.781	6.66
384.991	119.29
385.201	55.81
385.411	-3.58
385.621	70.14
385.831	68.09
386.041	78.33
386.251	-32.26
386.461	78.33
386.671	31.23
386.881	0.51
387.091	31.23
387.301	68.09
387.511	55.81
387.72	86.53
387.93	6.66
388.14	-17.92
388.35	64
388.56	31.23
388.769	84.48
388.979	4.61
389.189	10.75
389.399	68.09
389.609	70.14
389.818	47.62
390.028	72.19
390.238	66.05
390.447	78.33
390.657	102.91
390.867	12.8
391.076	68.09
391.286	107.01
391.496	76.29
391.705	90.62
391.915	59.9
392.125	78.33
392.334	66.05
392.544	84.48
392.753	68.09
392.963	51.71
393.172	6.66
393.382	25.09
393.591	96.77
393.801	55.81
394.01	172.54
394.22	129.53
394.429	90.62
394.639	0.51
394.848	107.01
395.058	27.14
395.267	98.81
395.477	86.53
395.686	49.66
395.895	164.35
396.105	156.16
396.314	115.2
396.524	61.95
396.733	23.04
396.942	80.38
397.152	33.28
397.361	76.29
397.57	109.05
397.78	59.9
397.989	141.82
398.198	162.3
398.407	78.33
398.617	107.01
398.826	68.09
399.035	145.92
399.244	59.9
399.453	68.09
399.663	162.3
399.872	113.15
400.081	78.33
400.29	86.53
400.499	123.39
400.708	68.09
400.917	174.59
401.127	74.24
401.336	100.86
401.545	166.4
401.754	154.11
401.963	131.58
402.172	98.81
402.381	31.23
402.59	68.09
402.799	94.72
403.008	170.49
403.217	98.81
403.426	104.96
403.635	186.88
403.844	78.33
404.053	158.21
404.262	76.29
404.471	184.83
404.68	133.63
404.888	113.15
405.097	113.15
405.306	96.77
405.515	90.62
405.724	178.69
405.933	166.4
406.142	80.38
406.35	188.93
406.559	221.69
406.768	113.15
406.977	201.21
407.185	119.29
407.394	150.01
407.603	147.97
407.812	193.02
408.02	156.16
408.229	195.07
408.438	209.4
408.646	207.36
408.855	211.45
409.064	256.51
409.272	170.49
409.481	252.41
409.69	252.41
409.898	252.41
410.107	207.36
410.315	248.32
410.524	199.16
410.733	217.6
410.941	244.22
411.15	303.61
411.358	276.99
411.567	287.23
411.775	301.56
411.984	320
412.192	295.42
412.401	338.43
412.609	375.29
412.818	291.32
413.026	428.54
413.234	410.11
413.443	412.15
413.651	471.54
413.86	379.39
414.068	526.84
414.276	500.22
414.485	565.75
414.693	537.08
414.901	641.53
415.11	483.83
415.318	555.51
415.526	610.81
415.734	664.05
415.943	582.14
416.151	723.44
416.359	629.24
416.567	655.86
416.776	643.57
416.984	780.79
417.192	764.4
417.4	741.88
417.608	786.93
417.817	766.45
418.025	963.06
418.233	922.1
418.441	911.86
418.649	958.96
418.857	905.71
419.065	1057.26
419.273	1096.18
419.481	1036.78
419.689	1124.85
419.897	1065.46
420.105	1212.91
420.313	1210.86
420.521	1268.2
420.729	1231.34
420.937	1413.61
421.145	1456.62
421.353	1534.44
421.561	1477.1
421.769	1464.81
421.977	1501.67
422.185	1597.93
422.393	1720.81
422.601	1819.11
422.809	1780.2
423.017	1694.18
423.224	1835.49
423.432	1849.83
423.64	1948.13
423.848	2089.44
424.056	1980.9
424.263	2204.13
424.471	2071.01
424.679	2238.94
424.887	2294.24
425.094	2427.35
425.302	2466.27
425.51	2572.76
425.718	2603.48
425.925	2736.6
426.133	2849.24
426.341	2853.33
426.548	3070.42
426.756	3207.63
426.964	3101.14
427.171	3201.49
427.379	3283.41
427.586	3418.57
427.794	3705.29
428.001	3578.31
428.209	3918.28
428.417	3772.87
428.624	4000.19
428.832	3959.24
429.039	4053.44
429.247	3936.71
429.454	4401.6
429.662	4686.26
429.869	4379.07
430.076	4538.81
430.284	4571.58
430.491	4807.09
430.699	5097.91
430.906	4911.54
431.114	5018.04
431.321	5310.89
431.528	5351.85
431.736	5646.76
431.943	6039.97
432.15	5654.95
432.358	5839.27
432.565	6152.61
432.772	6138.27
432.979	6566.3
433.187	6500.76
433.394	6732.19
433.601	7207.31
433.808	7158.16
434.016	6967.7
434.223	7231.89
434.43	7821.7
434.637	7854.47
434.844	8272.26
435.052	8206.72
435.259	8227.2
435.466	8362.37
435.673	8219.01
435.88	8669.56
436.087	9263.47
436.294	9453.94
436.501	8956.28
436.708	9126.26
436.915	9445.74
437.122	9797.99
437.329	9906.54
437.537	10131.81
437.743	10484.06
437.95	10348.9
438.157	10717.53
438.364	10973.53
438.571	11002.2
438.778	10983.77
438.985	12046.66
439.192	11772.24
439.399	12192.07
439.606	11893.07
439.813	12300.61
440.02	13281.59
440.227	13029.69
440.433	12865.85
440.64	13443.38
440.847	13111.61
441.054	13551.92
441.261	14524.71
441.467	14498.08
441.674	14553.38
441.881	15249.69
442.088	15044.89
442.294	15014.17
442.501	15391
442.708	15581.46
442.914	16263.43
443.121	17045.76
443.328	16331.01
443.534	17602.8
443.741	16906.49
443.948	16920.83
444.154	18247.91
444.361	17901.81
444.568	18268.39
444.774	18239.72
444.981	18335.98
445.187	18858.21
445.394	19523.8
445.6	19321.05
445.807	21264.57
446.013	20103.37
446.22	20678.85
446.426	21342.39
446.633	21551.29
446.839	22186.16
447.046	21280.96
447.252	22706.34
447.459	22503.59
447.665	22653.09
447.871	23695.51
448.078	24502.41
448.284	23437.47
448.491	24195.21
448.697	24549.51
448.903	25237.63
449.11	25176.19
449.316	24682.63
449.522	25612.41
449.728	26003.57
449.935	25774.2
450.141	25862.26
450.347	26740.84
450.553	25503.87
450.76	26380.4
450.966	26779.75
451.172	26566.76
451.378	27093.09
451.584	26574.95
451.791	27506.78
451.997	27562.08
452.203	28061.78
452.409	27746.39
452.615	27557.98
452.821	26722.41
453.027	26230.9
453.233	27648.09
453.44	26351.73
453.646	26802.28
453.852	26996.84
454.058	27265.12
454.264	26171.5
454.47	27107.43
454.676	26226.8
454.882	27336.8
455.088	24674.44
455.294	25405.56
455.5	25487.48
455.705	25895.03
455.911	24782.98
456.117	24406.16
456.323	23550.1
456.529	22579.37
456.735	23371.93
456.941	22761.64
457.147	22784.16
457.352	21825.71
457.558	21301.43
457.764	21729.46
457.97	21336.25
458.176	20742.34
458.381	20850.88
458.587	19677.4
458.793	19443.93
458.999	18981.09
459.204	19878.1
459.41	19386.58
459.616	18215.15
459.821	18225.39
460.027	17973.49
460.233	17772.78
460.438	16949.5
460.644	17084.67
460.85	16201.99
461.055	16156.94
461.261	16021.77
461.466	15001.88
461.672	14524.71
461.878	15526.16
462.083	14442.79
462.289	14135.59
462.494	13721.9
462.7	13381.94
462.905	13013.31
463.111	13506.87
463.316	13660.46
463.522	13265.21
463.727	13336.88
463.932	13183.29
464.138	13144.38
464.343	13218.1
464.549	12646.72
464.754	13066.55
464.959	13187.38
465.165	12921.15
465.37	12345.67
465.575	12179.78
465.781	12626.24
465.986	12915
466.191	12233.03
466.397	11977.03
466.602	11473.23
466.807	11854.16
467.012	11766.09
467.218	11997.51
467.423	11770.19
467.628	11772.24
467.833	12325.19
468.038	11637.07
468.244	11549.01
468.449	11827.53
468.654	11508.05
468.859	11295.06
469.064	11399.51
469.269	10932.57
469.474	10942.81
469.679	11372.88
469.885	10715.48
470.09	10907.99
470.295	10903.9
470.5	10783.07
470.705	10754.4
470.91	10428.77
471.115	10154.34
471.32	10586.46
471.525	10680.67
471.73	10180.96
471.935	10060.13
472.139	9943.4
472.344	10017.13
472.549	10105.19
472.754	9922.92
472.959	9714.03
473.164	9382.26
473.369	9171.32
473.574	9834.86
473.778	9410.93
473.983	9400.69
474.188	9390.45
474.393	9099.64
474.598	8995.19
474.802	8845.69
475.007	8792.44
475.212	8931.7
475.417	8475.01
475.621	8460.67
475.826	8515.97
476.031	8358.27
476.235	8292.74
476.44	8407.42
476.645	8067.46
476.849	8329.6
477.054	8094.08
477.259	8081.8
477.463	8212.87
477.668	7723.4
477.872	7997.83
478.077	7709.07
478.282	7524.75
478.486	7569.8
478.691	7383.44
478.895	7485.84
479.1	7432.59
479.304	7428.49
479.509	7098.77
479.713	7152.02
479.918	7250.32
480.122	7002.52
480.326	7254.42
480.531	7154.07
480.735	7029.14
480.94	6992.28
481.144	7342.48
481.348	6939.03
481.553	6902.17
481.757	6916.5
481.961	6896.02
482.166	6936.98
482.37	6936.98
482.574	6791.58
482.778	6914.45
482.983	7012.76
483.187	7057.81
483.391	6984.09
483.595	6850.97
483.8	6801.82
484.004	6955.41
484.208	6916.5
484.412	6791.58
484.616	6838.68
484.821	6832.54
485.025	6691.23
485.229	6920.6
485.433	6734.23
485.637	6908.31
485.841	6814.1
486.045	6601.12
486.249	6832.54
486.453	6726.04
486.657	6752.66
486.861	6906.26
487.065	6637.98
487.269	6840.73
487.473	6750.62
487.677	7127.44
487.881	6961.56
488.085	6949.27
488.289	6777.24
488.493	6861.21
488.697	6842.78
488.901	6953.37
489.105	6941.08
489.309	6896.02
489.512	6910.36
489.716	6975.89
489.92	7037.33
490.124	6914.45
490.328	6959.51
490.531	6998.42
490.735	7090.58
490.939	7037.33
491.143	7023
491.346	6787.48
491.55	7242.13
491.754	7223.7
491.958	7100.82
492.161	7061.91
492.365	7227.79
492.569	7131.54
492.772	7235.99
492.976	7467.41
493.18	7295.38
493.383	7563.66
493.587	7551.37
493.79	7483.79
493.994	7258.51
494.197	7457.17
494.401	7532.94
494.605	7629.2
494.808	7848.33
495.012	7692.68
495.215	7829.9
495.419	7985.54
495.622	7938.44
495.825	8159.62
496.029	7901.58
496.232	8237.44
496.436	7944.58
496.639	8079.75
496.843	8176
497.046	8493.44
497.249	8464.77
497.453	8532.35
497.656	8395.14
497.859	8571.26
498.063	8685.95
498.266	8915.32
498.469	8814.97
498.673	9062.77
498.876	9339.25
499.079	9240.95
499.282	9116.02
499.485	9404.78
499.689	9447.79
499.892	9537.9
500.095	9675.12
500.298	9824.62
500.501	9630.06
500.705	10064.23
500.908	10084.71
501.111	10301.79
501.314	10301.79
501.517	10516.83
501.72	10615.13
501.923	10412.39
502.126	10912.09
502.329	10877.27
502.532	10889.56
502.735	11006.3
502.938	11221.33
503.141	11442.51
503.344	11614.54
503.547	11645.26
503.75	11639.12
503.953	11823.44
504.156	11817.29
504.359	11913.55
504.562	12206.41
504.765	12312.9
504.968	12628.29
505.17	12605.76
505.373	12478.79
505.576	12935.48
505.779	13084.98
505.982	13009.21
506.185	13201.72
506.387	13181.24
506.59	13629.74
506.793	13558.07
506.996	13631.79
507.198	13812.01
507.401	13916.46
507.604	14166.31
507.807	14313.77
508.009	14586.15
508.212	14465.32
508.415	14553.38
508.617	15083.8
508.82	14965.02
509.022	14905.63
509.225	15524.12
509.428	15454.48
509.63	15431.96
509.833	15575.31
510.035	16120.07
510.238	15991.05
510.44	16449.8
510.643	16429.32
510.845	16546.05
511.048	16476.42
511.25	16730.37
511.453	16636.16
511.655	17469.69
511.858	17438.97
512.06	17344.76
512.262	17606.9
512.465	17615.09
512.667	17785.07
512.87	18075.88
513.072	18108.65
513.274	18446.57
513.477	18798.82
513.679	18968.8
513.881	18856.16
514.084	19077.34
514.286	18884.83
514.488	19251.42
514.69	19960.02
514.893	19843.28
515.095	19857.62
515.297	20039.89
515.499	20168.91
515.701	20449.48
515.904	20594.89
516.106	20988.1
516.308	20938.94
516.51	21199.04
516.712	21477.56
516.914	21653.69
517.116	22091.95
517.318	22161.58
517.52	22034.61
517.722	22145.2
517.925	22474.92
518.127	22814.88
518.329	22808.74
518.531	23300.25
518.733	22986.91
518.935	23541.91
519.136	23529.62
519.338	23875.73
519.54	23584.92
519.742	24049.81
519.944	24445.07
520.146	24694.92
520.348	25022.59
520.55	24918.15
520.752	25114.75
520.954	25571.45
521.155	25409.66
521.357	25702.52
521.559	26052.72
521.761	26280.05
521.963	26386.54
522.164	26392.69
522.366	26441.84
522.568	26568.81
522.77	27148.39
522.971	27680.86
523.173	27107.43
523.375	27492.44
523.576	27643.99
523.778	27723.86
523.98	28084.31
524.181	28274.77
524.383	28039.25
524.584	28651.59
524.786	28659.79
524.988	28379.21
525.189	28676.17
525.391	28913.73
525.592	29067.33
525.794	29204.55
525.995	29151.3
526.197	29229.12
526.398	29222.98
526.6	29835.32
526.801	29696.06
527.003	29595.71
527.204	29694.01
527.406	29769.79
527.607	30394.42
527.808	30648.36
528.01	29712.44
528.211	29984.82
528.412	31074.34
528.614	30429.23
528.815	30726.19
529.016	30869.54
529.218	30535.73
529.419	31027.24
529.62	30885.93
529.822	30976.04
530.023	31037.48
530.224	31258.66
530.425	31428.64
530.626	31168.55
530.828	30842.92
531.029	31651.87
531.23	31252.52
531.431	31447.07
531.632	31748.12
531.833	31684.64
532.035	31588.38
532.236	31772.7
532.437	31383.59
532.638	31662.11
532.839	31871
533.04	32026.65
533.241	31557.66
533.442	32163.86
533.643	32172.05
533.844	32002.07
534.045	32079.89
534.246	31756.32
534.447	31924.25
534.648	31948.82
534.849	32253.97
535.05	31748.12
535.251	32204.82
535.451	32114.71
535.652	32151.57
535.853	31909.91
536.054	32292.88
536.255	32237.59
536.456	31954.97
536.657	32505.87
536.857	31879.19
537.058	31971.35
537.259	32243.73
537.46	32206.87
537.66	32102.42
537.861	32407.57
538.062	31809.56
538.263	32227.35
538.463	31895.58
538.664	31926.3
538.865	32170.01
539.065	32204.82
539.266	31627.29
539.466	32198.68
539.667	31725.6
539.868	32567.31
540.068	32210.96
540.269	31678.49
540.469	32202.77
540.67	32032.79
540.87	32022.55
541.071	32114.71
541.271	32104.47
541.472	32235.54
541.672	31834.14
541.873	31954.97
542.073	31557.66
542.274	32217.11
542.474	32036.89
542.675	31760.41
542.875	32141.33
543.075	32223.25
543.276	31705.12
543.476	32317.46
543.676	31858.71
543.877	32067.61
544.077	31948.82
544.277	31903.77
544.478	31705.12
544.678	31936.54
544.878	31842.33
545.078	31795.23
545.279	31809.56
545.479	31741.98
545.679	32129.05
545.879	31948.82
546.079	31807.51
546.28	31940.63
546.48	31488.03
546.68	32034.84
546.88	31770.65
547.08	32090.13
547.28	31739.93
547.48	31299.62
547.68	32022.55
547.88	31461.41
548.081	31832.09
548.281	31821.85
548.481	32008.22
548.681	31811.61
548.881	31834.14
549.081	31662.11
549.28	31471.65
549.48	32284.69
549.68	31805.47
549.88	31766.56
550.08	31578.14
550.28	31811.61
550.48	32446.48
550.68	32018.46
550.88	31629.34
551.08	31606.81
551.279	31764.51
551.479	31346.72
551.679	31887.39
551.879	31537.18
552.079	31778.84
552.278	31395.87
552.478	31602.72
552.678	31281.19
552.878	31504.42
553.077	31426.59
553.277	31434.78
553.477	31940.63
553.676	31295.52
553.876	31307.81
554.076	31395.87
554.275	31402.02
554.475	31199.27
554.674	31578.14
554.874	31641.63
555.074	31049.77
555.273	31567.9
555.473	31617.05
555.672	31168.55
555.872	31088.68
556.071	31057.96
556.271	31088.68
556.47	31027.24
556.67	31002.66
556.869	30789.67
557.068	31223.84
557.268	30918.7
557.467	31191.08
557.667	30832.68
557.866	30976.04
558.065	30449.71
558.265	30572.59
558.464	30750.76
558.663	30912.55
558.863	30525.49
559.062	31156.26
559.261	30285.87
559.461	30842.92
559.66	30296.11
559.859	30658.6
560.058	30113.84
560.258	30337.07
560.457	30017.59
560.656	30769.19
560.855	30392.37
561.054	30179.38
561.253	30093.36
561.453	29964.34
561.652	30072.89
561.851	30076.98
562.05	29888.57
562.249	29691.96
562.448	30191.67
562.647	29954.1
562.846	29986.87
563.045	29521.98
563.244	29165.63
563.443	29847.61
563.642	28952.65
563.841	29440.06
564.04	29513.79
564.239	29601.85
564.438	29173.83
564.637	29577.28
564.836	29284.42
565.035	28829.77
565.234	29077.57
565.432	28686.41
565.631	29126.72
565.83	29286.47
566.029	28815.43
566.228	28932.17
566.427	28561.48
566.625	28555.34
566.824	28432.46
567.023	28735.56
567.222	28248.14
567.42	28891.21
567.619	28610.64
567.818	28383.31
568.016	28383.31
568.215	28285.01
568.414	27986
568.612	28315.73
568.811	28067.92
569.01	28123.22
569.208	27562.08
569.407	27949.14
569.605	27801.69
569.804	27971.67
570.002	27301.98
570.201	27641.95
570.4	27525.21
570.598	27388
570.797	27576.41
570.995	27603.03
571.193	26974.31
571.392	27547.74
571.59	27088.99
571.789	26984.55
571.987	26900.58
572.186	27146.34
572.384	26888.29
572.582	27088.99
572.781	26640.49
572.979	26622.06
573.177	26568.81
573.376	26558.57
573.574	26648.68
573.772	26452.08
573.971	26224.75
574.169	26243.18
574.367	25968.76
574.565	26263.66
574.763	25868.41
574.962	25833.59
575.16	25454.72
575.358	25903.22
575.556	25358.46
575.754	26085.49
575.952	25170.05
576.151	25757.81
576.349	25208.96
576.547	25374.84
576.745	25399.42
576.943	25401.47
577.141	25014.4
577.339	25389.18
577.537	25200.77
577.735	25102.46
577.933	24967.3
578.131	25100.42
578.329	24701.06
578.527	24426.64
578.725	24801.41
578.923	24791.17
579.121	24619.14
579.319	24633.48
579.516	24490.12
579.714	24387.72
579.912	24369.29
580.11	24119.44
580.308	24432.78
580.506	24090.77
580.704	23539.86
580.901	24311.95
581.099	24051.86
581.297	24002.71
581.495	23812.24
581.692	23789.72
581.89	23679.13
582.088	23666.84
582.285	23400.6
582.483	23824.53
582.681	23703.7
582.878	23232.67
583.076	23226.53
583.274	23449.75
583.471	23091.36
583.669	23457.95
583.866	23089.31
584.064	23195.81
584.262	22876.32
584.459	22941.86
584.657	22804.64
584.854	22692.01
585.052	22540.46
585.249	22745.25
585.447	22696.1
585.644	22481.06
585.841	22425.77
586.039	22458.54
586.236	22323.37
586.434	22212.78
586.631	22444.2
586.828	22286.51
587.026	22333.61
587.223	21805.24
587.42	22001.84
587.618	22223.02
587.815	22032.56
588.012	21708.98
588.21	21835.95
588.407	21770.42
588.604	21489.85
588.801	21788.85
588.999	21616.82
589.196	21631.16
589.393	21469.37
589.59	21508.28
589.787	21459.13
589.984	21213.37
590.182	21016.77
590.379	21301.43
590.576	21225.66
590.773	21420.22
590.97	20914.37
591.167	21039.29
591.364	20930.75
591.561	20660.42
591.758	20785.35
591.955	20521.16
592.152	20959.42
592.349	20560.07
592.546	20336.84
592.743	20379.85
592.94	20242.64
593.137	20140.24
593.334	20295.88
593.531	20082.89
593.727	20275.4
593.924	20023.5
594.121	19669.2
594.318	20218.06
594.515	19839.19
594.712	19970.26
594.908	19663.06
595.105	19724.5
595.302	19722.45
595.499	19679.44
595.696	19624.15
595.892	19345.62
596.089	19550.42
596.286	19429.59
596.482	19362.01
596.679	19300.57
596.876	19263.71
597.072	18964.7
597.269	19179.74
597.466	18864.35
597.662	18991.33
597.859	19038.43
598.055	18968.8
598.252	19030.24
598.448	19022.05
598.645	18774.24
598.841	18854.11
599.038	18704.61
599.234	18741.47
599.431	18282.73
599.627	18634.98
599.824	18729.19
600.02	18155.75
600.217	18456.81
600.413	18329.83
600.609	18084.08
600.806	18030.83
601.002	18381.03
601.198	17877.23
601.395	17993.97
601.591	17834.22
601.787	17828.08
601.984	17594.61
602.18	17830.13
602.376	17627.38
602.572	17492.21
602.769	17596.66
602.965	17449.21
603.161	17625.33
603.357	17318.14
603.553	17375.48
603.75	17125.63
603.946	17096.96
604.142	17219.83
604.338	17113.34
604.534	17193.21
604.73	17006.84
604.926	16996.6
605.122	17113.34
605.318	16617.73
605.514	16951.55
605.71	16787.71
605.906	16679.17
606.102	16675.07
606.298	16724.22
606.494	16716.03
606.69	16632.07
606.886	16519.43
607.082	16374.02
607.278	16681.22
607.474	16337.16
607.67	16421.13
607.866	16181.51
608.062	16306.44
608.257	16072.97
608.453	16255.24
608.649	16144.65
608.845	15849.74
609.041	16050.44
609.236	16027.92
609.432	15964.43
609.628	16148.75
609.824	15796.49
610.019	16015.63
610.215	15855.89
610.411	15923.47
610.606	15591.7
610.802	15745.3
610.998	15806.73
611.193	15755.54
611.389	15630.61
611.584	15358.23
611.78	15548.69
611.976	15794.45
612.171	15606.03
612.367	15722.77
612.562	15249.69
612.758	15149.34
612.953	15331.61
613.149	15401.24
613.344	15302.93
613.539	15450.39
613.735	15366.42
613.93	15294.74
614.126	15114.52
614.321	15399.19
614.517	15266.07
614.712	15149.34
614.907	15135
615.103	15147.29
615.298	15173.91
615.493	15278.36
615.688	14852.38
615.884	15235.35
616.079	15008.03
616.274	14885.15
616.47	14799.13
616.665	14819.61
616.86	14772.51
617.055	14930.2
617.25	14760.22
617.445	15010.07
617.641	14455.08
617.836	14891.29
618.031	14641.44
618.226	14565.67
618.421	14563.62
618.616	14530.85
618.811	14381.35
619.006	14414.12
619.201	14266.66
619.396	14317.86
619.591	14258.47
619.786	14381.35
619.981	14203.18
620.176	14008.62
620.371	14022.95
620.566	13828.4
620.761	13814.06
620.956	13885.74
621.151	13879.6
621.346	13623.6
621.541	13531.44
621.735	13762.86
621.93	13410.61
622.125	13400.37
622.32	13273.4
622.515	13490.48
622.709	12955.96
622.904	13197.62
623.099	13168.95
623.294	13037.88
623.488	13062.46
623.683	13095.22
623.878	12712.25
624.072	12759.36
624.267	12681.53
624.462	12501.31
624.656	12616
624.851	12558.66
625.046	12300.61
625.24	12259.65
625.435	12314.95
625.629	12308.8
625.824	12226.89
626.018	12071.24
626.213	11919.69
626.407	12007.75
626.602	11940.17
626.796	12030.28
626.991	11753.8
627.185	11780.43
627.38	11669.84
627.574	11651.41
627.768	11540.82
627.963	11481.42
628.157	11352.4
628.352	11641.17
628.546	11215.19
628.74	11307.35
628.935	11120.98
629.129	11020.63
629.323	10875.23
629.517	11151.7
629.712	10912.09
629.906	10899.8
630.1	10676.57
630.294	10971.48
630.489	10664.29
630.683	10602.85
630.877	10563.93
631.071	10760.54
631.265	10666.33
631.459	10555.74
631.653	10473.82
631.848	10604.89
632.042	10131.81
632.236	10385.76
632.43	10244.45
632.624	10056.04
632.818	10111.33
633.012	9949.54
633.206	9972.07
633.4	9898.34
633.594	9884.01
633.788	9836.91
633.982	9722.22
634.176	9632.11
634.369	9699.69
634.563	9509.23
634.757	9345.39
634.951	9640.3
635.145	9490.8
635.339	9421.17
635.533	9435.5
635.726	9380.21
635.92	9316.72
636.114	9206.13
636.308	9234.8
636.501	9179.51
636.695	9218.42
636.889	8943.99
637.083	8860.02
637.276	9007.48
637.47	8948.09
637.664	8806.78
637.857	9003.38
638.051	8796.54
638.244	8524.16
638.438	8739.19
638.632	8604.03
638.825	8679.8
639.019	8642.94
639.212	8554.88
639.406	8563.07
639.599	8444.29
639.793	8276.35
639.986	8089.99
640.18	8264.07
640.373	8235.39
640.567	8010.12
640.76	8155.52
640.954	8118.66
641.147	7977.35
641.34	7743.88
641.534	7948.68
641.727	7901.58
641.92	7825.8
642.114	7768.46
642.307	7864.71
642.5	7819.66
642.694	7584.14
642.887	7625.1
643.08	7686.54
643.273	7549.32
643.467	7588.24
643.66	7586.19
643.853	7446.93
644.046	7385.49
644.239	7354.77
644.432	7375.25
644.626	7502.22
644.819	7352.72
645.012	7315.86
645.205	7338.38
645.398	7143.83
645.591	7018.9
645.784	7154.07
645.977	6789.53
646.17	7008.66
646.363	7070.1
646.556	6900.12
646.749	6750.62
646.942	6818.2
647.135	6916.5
647.328	6996.37
647.521	6683.03
647.714	6734.23
647.907	6607.26
648.099	6721.95
648.292	6576.54
648.485	6578.59
648.678	6429.09
648.871	6345.12
649.064	6347.17
649.256	6472.09
649.449	6373.79
649.642	6373.79
649.835	6234.53
650.027	6355.36
650.22	6226.34
650.413	6212
650.605	6222.24
650.798	6146.47
650.991	5988.77
651.183	6177.19
651.376	6099.36
651.568	5982.63
651.761	6117.79
651.954	5847.46
652.146	5943.72
652.339	5869.99
652.531	5988.77
652.724	5728.68
652.916	5691.82
653.109	5753.26
653.301	5775.78
653.494	5822.89
653.686	5575.08
653.879	5716.39
654.071	5640.62
654.263	5613.99
654.456	5659.05
654.648	5679.53
654.84	5499.31
655.033	5480.88
655.225	5595.56
655.417	5470.64
655.61	5405.1
655.802	5583.27
655.994	5274.03
656.186	5296.56
656.379	5314.99
656.571	5372.33
656.763	5200.3
656.955	5274.03
657.148	5296.56
657.34	5224.88
657.532	5237.17
657.724	5155.25
657.916	5173.68
658.108	5104.05
658.3	4876.73
658.492	5124.53
658.684	5007.8
658.876	5032.37
659.068	4882.87
659.26	4997.56
659.452	4866.49
659.644	4835.77
659.836	4837.81
660.028	4911.54
660.22	4737.46
660.412	4669.88
660.604	4665.78
660.796	4772.28
660.988	4764.09
661.18	4622.78
661.372	4585.91
661.563	4716.98
661.755	4704.7
661.947	4555.19
662.139	4528.57
662.331	4518.33
662.522	4491.71
662.714	4348.35
662.906	4385.21
663.097	4254.14
663.289	4479.42
663.481	4340.16
663.673	4440.51
663.864	4450.75
664.056	4256.19
664.247	4229.57
664.439	4184.51
664.631	4213.18
664.822	4211.14
665.014	4272.57
665.205	4321.73
665.397	4147.65
665.588	4174.27
665.78	3949
665.971	4063.68
666.163	4065.73
666.354	4047.3
666.546	4125.12
666.737	4028.87
666.929	3858.89
667.12	3850.69
667.311	4071.87
667.503	4012.48
667.694	4008.39
667.885	3926.47
668.077	3975.62
668.268	3916.23
668.459	3817.93
668.651	3973.57
668.842	3865.03
669.033	3746.25
669.224	3684.81
669.416	3893.7
669.607	3748.29
669.798	3592.65
669.989	3697.1
670.18	3736.01
670.371	3662.28
670.563	3795.4
670.754	3721.67
670.945	3670.47
671.136	3697.1
671.327	3594.7
671.518	3625.42
671.709	3572.17
671.9	3539.4
672.091	3529.16
672.282	3645.9
672.473	3473.87
672.664	3545.55
672.855	3430.86
673.046	3539.4
673.237	3453.39
673.428	3461.58
673.619	3457.48
673.809	3437
674	3422.67
674.191	3475.91
674.382	3338.7
674.573	3244.49
674.764	3234.25
674.954	3426.76
675.145	3348.94
675.336	3367.37
675.527	3277.26
675.717	3416.52
675.908	3353.04
676.099	3219.92
676.289	3176.91
676.48	3264.97
676.671	3219.92
676.861	3195.34
677.052	3217.87
677.243	3205.58
677.433	3158.48
677.624	3217.87
677.814	3185.1
678.005	3224.01
678.195	3176.91
678.386	3342.8
678.576	3195.34
678.767	3168.72
678.957	3248.59
679.148	3176.91
679.338	3156.43
679.529	3166.67
679.719	3070.42
679.909	3230.16
680.1	3078.61
680.29	3131.86
680.481	3111.38
680.671	3125.71
680.861	3082.7
681.052	3004.88
681.242	3107.28
681.432	2974.16
681.622	2937.3
681.813	2943.44
682.003	3056.08
682.193	2922.96
682.383	2994.64
682.573	2968.02
682.764	2961.87
682.954	3113.42
683.144	3033.55
683.334	3078.61
683.524	2982.35
683.714	2904.53
683.904	2945.49
684.094	3011.03
684.284	2968.02
684.474	2791.89
684.664	2841.04
684.854	2861.52
685.044	2955.73
685.234	2820.56
685.424	3021.27
685.614	2812.37
685.804	2814.42
685.994	2910.68
686.184	2857.43
686.374	2890.2
686.564	2767.32
686.753	2849.24
686.943	2771.41
687.133	2681.3
687.323	2687.45
687.513	2738.65
687.702	2759.13
687.892	2666.97
688.082	2834.9
688.272	2644.44
688.461	2640.34
688.651	2685.4
688.841	2810.33
689.03	2658.78
689.22	2644.44
689.41	2855.38
689.599	2673.11
689.789	2660.82
689.979	2574.81
690.168	2580.95
690.358	2542.04
690.547	2591.19
690.737	2478.55
690.926	2533.85
691.116	2585.05
691.305	2544.09
691.495	2576.86
691.684	2537.95
691.874	2359.77
692.063	2546.14
692.252	2496.99
692.442	2382.3
692.631	2435.55
692.82	2453.98
693.01	2490.84
693.199	2484.7
693.388	2376.16
693.578	2415.07
693.767	2388.44
693.956	2519.51
694.146	2427.35
694.335	2281.95
694.524	2367.96
694.713	2300.38
694.902	2259.42
695.092	2363.87
695.281	2265.57
695.47	2228.7
695.659	2200.03
695.848	2286.05
696.037	2353.63
696.226	2281.95
696.415	2271.71
696.604	2259.42
696.793	2243.04
696.982	2179.55
697.171	2302.43
697.36	2464.22
697.549	2347.48
697.738	2394.59
697.927	2249.18
698.116	2361.82
698.305	2343.39
698.494	2339.29
698.683	2236.89
698.872	2247.13
699.061	2243.04
699.25	2267.61
699.438	2214.37
699.627	2275.81
699.816	2284
700.005	2347.48
700.193	2238.94
700.382	2269.66
700.571	2236.89
700.76	2197.98
700.948	2202.08
701.137	2365.92
701.326	2212.32
701.514	2093.54
701.703	2128.35
701.892	2148.83
702.08	2243.04
702.269	2273.76
702.457	2284
702.646	2308.57
702.834	2077.15
703.023	2185.69
703.212	2279.9
703.4	2138.59
703.589	2206.17
703.777	2173.41
703.965	2185.69
704.154	2195.93
704.342	2138.59
704.531	2230.75
704.719	2189.79
704.907	2253.28
705.096	2013.67
705.284	2142.69
705.472	2189.79
705.661	2218.46
705.849	2187.74
706.037	2046.43
706.226	2093.54
706.414	2195.93
706.602	2214.37
706.79	2181.6
706.979	2152.93
707.167	2226.65
707.355	2200.03
707.543	2091.49
707.731	2066.91
707.919	2146.78
708.107	2152.93
708.296	2212.32
708.484	2124.26
708.672	2161.12
708.86	2128.35
709.048	2101.73
709.236	2134.5
709.424	2122.21
709.612	2077.15
709.8	2081.25
709.988	2036.19
710.176	2185.69
710.364	2116.06
710.551	2036.19
710.739	1984.99
710.927	2165.21
711.115	2175.45
711.303	2191.84
711.491	2118.11
711.679	2169.31
711.866	2105.82
712.054	2093.54
712.242	2116.06
712.43	2206.17
712.617	2154.98
712.805	2023.91
712.993	1970.66
713.181	2071.01
713.368	2191.84
713.556	2050.53
713.744	2019.81
713.931	2114.02
714.119	2107.87
714.306	2079.2
714.494	2023.91
714.682	2015.71
714.869	2046.43
715.057	2105.82
715.244	2054.62
715.432	2075.1
715.619	2101.73
715.807	2009.57
715.994	2017.76
716.182	2025.95
716.369	2144.74
716.556	2044.38
716.744	2025.95
716.931	1989.09
717.119	2179.55
717.306	2089.44
717.493	2083.3
717.681	1997.28
717.868	2202.08
718.055	2048.48
718.242	2085.34
718.43	2071.01
718.617	2118.11
718.804	2058.72
718.991	2021.86
719.179	2136.54
719.366	2095.58
719.553	2044.38
719.74	2042.34
719.927	2073.06
720.114	2054.62
720.301	2058.72
720.488	2003.43
720.676	2089.44
720.863	2021.86
721.05	2028
721.237	2048.48
721.424	2017.76
721.611	2101.73
721.798	2066.91
721.985	1976.8
722.172	2001.38
722.358	2011.62
722.545	2093.54
722.732	2046.43
722.919	1952.23
723.106	2101.73
723.293	2003.43
723.48	2066.91
723.667	1954.27
723.853	1958.37
724.04	2038.24
724.227	1968.61
724.414	2107.87
724.6	1931.75
724.787	2058.72
724.974	2052.58
725.161	2040.29
725.347	1898.98
725.534	1991.14
725.72	2007.52
725.907	2073.06
726.094	2005.47
726.28	1972.71
726.467	2060.77
726.653	1962.47
726.84	1962.47
727.027	2128.35
727.213	2005.47
727.4	2099.68
727.586	2001.38
727.773	2056.67
727.959	1886.69
728.145	1915.36
728.332	1982.95
728.518	2118.11
728.705	1968.61
728.891	1966.56
729.077	2036.19
729.264	1894.88
729.45	2097.63
729.636	1991.14
729.823	1948.13
730.009	2009.57
730.195	2064.86
730.382	2050.53
730.568	1956.32
730.754	2050.53
730.94	2015.71
731.126	2042.34
731.313	1993.19
731.499	1974.75
731.685	1939.94
731.871	1919.46
732.057	2034.14
732.243	1997.28
732.429	1960.42
732.615	2005.47
732.801	2021.86
732.987	1964.51
733.173	2044.38
733.359	1952.23
733.545	2021.86
733.731	2028
733.917	1952.23
734.103	1923.55
734.289	1970.66
734.475	1999.33
734.661	1946.08
734.847	1888.74
735.033	1974.75
735.219	2015.71
735.404	1984.99
735.59	1972.71
735.776	1853.92
735.962	1878.5
736.148	1868.26
736.333	1917.41
736.519	1960.42
736.705	1946.08
736.89	1915.36
737.076	2077.15
737.262	1880.55
737.447	2019.81
737.633	1905.12
737.819	1880.55
738.004	1993.19
738.19	1800.68
738.375	1978.85
738.561	1948.13
738.747	1931.75
738.932	1901.03
739.118	1944.03
739.303	1941.99
739.489	1993.19
739.674	1855.97
739.859	1888.74
740.045	1968.61
740.23	1966.56
740.416	1878.5
740.601	1946.08
740.786	1849.83
740.972	1823.2
741.157	1798.63
741.342	1755.62
741.528	1808.87
741.713	1815.01
741.898	1935.84
742.084	1882.6
742.269	1886.69
742.454	1849.83
742.639	1952.23
742.824	1737.19
743.01	1769.96
743.195	1698.28
743.38	1772
743.565	1890.79
743.75	1761.77
743.935	1704.42
744.12	1724.9
744.305	1784.29
744.49	1765.86
744.675	1698.28
744.86	1821.16
745.045	1653.22
745.23	1698.28
745.415	1614.31
745.6	1778.15
745.785	1571.3
745.97	1735.14
746.155	1624.55
746.34	1671.65
746.525	1624.55
746.71	1700.33
746.895	1663.46
747.079	1683.94
747.264	1653.22
747.449	1663.46
747.634	1550.82
747.819	1548.78
748.003	1593.83
748.188	1524.2
748.373	1669.61
748.557	1538.54
748.742	1563.11
748.927	1475.05
749.111	1518.06
749.296	1532.39
749.481	1538.54
749.665	1546.73
749.85	1534.44
750.034	1487.34
750.219	1497.58
750.404	1427.95
750.588	1505.77
750.773	1364.46
750.957	1444.33
751.141	1466.86
751.326	1446.38
751.51	1421.8
751.695	1343.98
751.879	1380.84
752.064	1386.99
752.248	1382.89
752.432	1313.26
752.617	1305.07
752.801	1329.64
752.985	1382.89
753.17	1411.56
753.354	1186.29
753.538	1266.16
753.722	1217.01
753.907	1280.49
754.091	1190.38
754.275	1319.4
754.459	1214.96
754.643	1266.16
754.828	1278.44
755.012	1290.73
755.196	1133.04
755.38	1169.9
755.564	1200.62
755.748	1079.79
755.932	1192.43
756.116	1112.56
756.3	1210.86
756.484	1196.53
756.668	1196.53
756.852	1155.57
757.036	1202.67
757.22	1126.89
757.404	1137.13
757.588	1075.7
757.772	1128.94
757.956	1169.9
758.14	1122.8
758.323	1032.69
758.507	1141.23
758.691	1112.56
758.875	1106.42
759.059	1141.23
759.242	993.78
759.426	1044.98
759.61	1087.98
759.794	999.92
759.977	1020.4
760.161	1040.88
760.345	985.58
760.528	1032.69
760.712	969.2
760.895	1014.26
761.079	1018.35
761.263	999.92
761.446	899.57
761.63	1032.69
761.813	950.77
761.997	1008.11
762.18	1026.54
762.364	1047.02
762.547	1079.79
762.731	977.39
762.914	958.96
763.098	889.33
763.281	977.39
763.464	944.63
763.648	932.34
763.831	907.76
764.015	963.06
764.198	993.78
764.381	965.11
764.564	954.87
764.748	911.86
764.931	909.81
765.114	954.87
765.297	864.75
765.481	842.23
765.664	864.75
765.847	872.95
766.03	942.58
766.213	819.7
766.397	854.51
766.58	854.51
766.763	858.61
766.946	834.04
767.129	870.9
767.312	815.6
767.495	887.28
767.678	838.13
767.861	825.84
768.044	821.75
768.227	797.17
768.41	819.7
768.593	858.61
768.776	844.28
768.959	852.47
769.142	881.14
769.324	819.7
769.507	838.13
769.69	811.51
769.873	774.64
770.056	770.55
770.239	731.64
770.421	864.75
770.604	895.47
770.787	717.3
770.97	862.71
771.152	731.64
771.335	827.89
771.518	733.68
771.7	754.16
771.883	813.56
772.066	754.16
772.248	772.6
772.431	750.07
772.613	809.46
772.796	684.53
772.978	715.25
773.161	774.64
773.343	688.63
773.526	694.77
773.708	713.21
773.891	702.97
774.073	727.54
774.256	690.68
774.438	782.84
774.621	664.05
774.803	653.81
774.985	676.34
775.168	657.91
775.35	602.61
775.532	682.49
775.715	596.47
775.897	612.85
776.079	651.77
776.261	678.39
776.444	649.72
776.626	686.58
776.808	645.62
776.99	596.47
777.173	647.67
777.355	633.33
777.537	641.53
777.719	700.92
777.901	606.71
778.083	600.57
778.265	559.61
778.447	586.23
778.629	559.61
778.811	567.8
778.993	383.48
779.175	569.85
779.357	588.28
779.539	510.46
779.721	555.51
779.903	543.22
780.085	514.55
780.267	498.17
780.449	547.32
780.631	559.61
780.812	594.42
780.994	483.83
781.176	492.02
781.358	512.5
781.54	530.94
781.721	498.17
781.903	575.99
782.085	489.98
782.267	502.26
782.448	471.54
782.63	502.26
782.812	512.5
782.993	471.54
783.175	567.8
783.357	449.02
783.538	440.83
783.72	578.04
783.901	494.07
784.083	453.11
784.264	571.9
784.446	469.5
784.627	514.55
784.809	479.74
784.99	406.01
785.172	457.21
785.353	469.5
785.535	377.34
785.716	428.54
785.897	428.54
786.079	485.88
786.26	449.02
786.441	393.72
786.623	412.15
786.804	440.83
786.985	377.34
787.167	406.01
787.348	432.63
787.529	358.91
787.71	494.07
787.891	295.42
788.073	346.62
788.254	442.87
788.435	391.67
788.616	363
788.797	309.76
788.978	320
789.159	289.28
789.34	367.1
789.522	401.91
789.703	375.29
789.884	346.62
790.065	289.28
790.246	279.04
790.427	346.62
790.607	408.06
790.788	344.57
790.969	297.47
791.15	371.19
791.331	352.76
791.512	352.76
791.693	309.76
791.874	324.09
792.054	336.38
792.235	360.95
792.416	363
792.597	346.62
792.778	283.13
792.958	322.04
793.139	287.23
793.32	360.95
793.5	313.85
793.681	303.61
793.862	360.95
794.042	289.28
794.223	365.05
794.404	291.32
794.584	305.66
794.765	324.09
794.945	324.09
795.126	240.12
795.306	289.28
795.487	363
795.667	276.99
795.848	336.38
796.028	274.94
796.209	266.75
796.389	363
796.57	340.47
796.75	242.17
796.93	225.79
797.111	238.08
797.291	244.22
797.471	313.85
797.652	254.46
797.832	248.32
798.012	240.12
798.192	299.52
798.373	252.41
798.553	276.99
798.733	276.99
798.913	264.7
799.093	190.97
799.274	219.64
799.454	233.98
799.634	252.41
799.814	262.65
799.994	223.74
800.174	262.65
800.354	221.69
800.534	135.68
800.714	236.03
800.894	238.08
801.074	150.01
801.254	240.12
801.434	281.08
801.614	272.89
801.794	164.35
801.974	494.07
802.154	166.4
802.334	240.12
802.514	227.84
802.693	129.53
802.873	231.93
803.053	258.56
803.233	168.45
803.413	285.18
803.592	223.74
803.772	236.03
803.952	145.92
804.131	270.84
804.311	225.79
804.491	221.69
804.67	141.82
804.85	238.08
805.03	207.36
805.209	256.51
805.389	172.54
805.568	213.5
805.748	162.3
805.928	158.21
806.107	203.26
806.287	188.93
806.466	227.84
806.646	231.93
806.825	135.68
807.004	203.26
807.184	197.12
807.363	158.21
807.543	209.4
807.722	227.84
807.901	215.55
808.081	231.93
808.26	199.16
808.439	178.69
808.619	166.4
808.798	160.25
808.977	147.97
809.156	160.25
809.336	186.88
809.515	176.64
809.694	131.58
809.873	129.53
810.052	242.17
810.231	215.55
810.411	162.3
810.59	166.4
810.769	145.92
810.948	164.35
811.127	84.48
811.306	150.01
811.485	172.54
811.664	266.75
811.843	123.39
812.022	172.54
812.201	76.29
812.38	213.5
812.559	139.77
812.737	197.12
812.916	137.73
813.095	78.33
813.274	152.06
813.453	199.16
813.632	182.78
813.811	121.34
813.989	98.81
814.168	184.83
814.347	119.29
814.526	158.21
814.704	137.73
814.883	145.92
815.062	133.63
815.24	201.21
815.419	139.77
815.598	180.73
815.776	123.39
815.955	59.9
816.133	129.53
816.312	154.11
816.49	115.2
816.669	102.91
816.847	76.29
817.026	180.73
817.204	100.86
817.383	121.34
817.561	107.01
817.74	201.21
817.918	143.87
818.097	127.49
818.275	78.33
818.453	111.1
818.632	123.39
818.81	156.16
818.988	154.11
819.167	109.05
819.345	154.11
819.523	68.09
819.701	170.49
819.879	158.21
820.058	90.62
820.236	125.44
820.414	156.16
820.592	137.73
820.77	193.02
820.948	72.19
821.127	123.39
821.305	72.19
821.483	190.97
821.661	160.25
821.839	76.29
822.017	84.48
822.195	168.45
822.373	74.24
822.551	123.39
822.729	80.38
822.907	129.53
823.085	158.21
823.262	109.05
823.44	96.77
823.618	53.76
823.796	68.09
823.974	113.15
824.152	109.05
824.329	92.67
824.507	55.81
824.685	72.19
824.863	150.01
825.04	74.24
825.218	111.1
825.396	64
825.574	82.43
825.751	152.06
825.929	109.05
826.107	33.28
826.284	207.36
826.462	131.58
826.639	96.77
826.817	119.29
826.994	141.82
827.172	100.86
827.349	139.77
827.527	98.81
827.704	115.2
827.882	143.87
828.059	152.06
828.237	147.97
828.414	100.86
828.591	47.62
828.769	61.95
828.946	39.42
829.124	92.67
829.301	121.34
829.478	49.66
829.655	129.53
829.833	168.45
830.01	59.9
830.187	66.05
830.364	107.01
830.542	84.48
830.719	76.29
830.896	115.2
831.073	80.38
831.25	84.48
831.427	150.01
831.604	141.82
831.782	16.9
831.959	182.78
832.136	90.62
832.313	96.77
832.49	113.15
832.667	100.86
832.844	25.09
833.021	76.29
833.198	90.62
833.374	70.14
833.551	107.01
833.728	123.39
833.905	125.44
834.082	31.23
834.259	53.76
834.436	92.67
834.612	14.85
834.789	72.19
834.966	92.67
835.143	25.09
835.319	-30.21
835.496	96.77
835.673	104.96
835.85	141.82
836.026	92.67
836.203	64
836.38	111.1
836.556	0.51
836.733	94.72
836.909	74.24
837.086	6.66
837.262	-1.54
837.439	51.71
837.616	92.67
837.792	61.95
837.968	70.14
838.145	66.05
838.321	94.72
838.498	66.05
838.674	92.67
838.851	27.14
839.027	107.01
839.203	80.38
839.38	82.43
839.556	74.24
839.732	78.33
839.909	64
840.085	86.53
840.261	14.85
840.437	64
840.614	59.9
840.79	162.3
840.966	78.33
841.142	14.85
841.318	23.04
841.494	29.18
841.671	20.99
841.847	100.86
842.023	27.14
842.199	139.77
842.375	45.57
842.551	23.04
842.727	59.9
842.903	57.86
843.079	16.9
843.255	72.19
843.431	43.52
843.607	51.71
843.783	16.9
843.959	66.05
844.134	47.62
844.31	64
844.486	82.43
844.662	12.8
844.838	100.86
845.013	107.01
845.189	115.2
845.365	33.28
845.541	84.48
845.716	164.35
845.892	47.62
846.068	61.95
846.244	94.72
846.419	4.61
846.595	23.04
846.77	39.42
846.946	64
847.122	82.43
847.297	55.81
847.473	72.19
847.648	47.62
847.824	61.95
847.999	-30.21
848.175	35.33
848.35	74.24
848.526	35.33
848.701	29.18
848.876	84.48
849.052	123.39
849.227	47.62
849.403	45.57
849.578	-19.97
849.753	-1.54
849.929	72.19
850.104	88.57
850.279	33.28
850.454	51.71
850.63	43.52
850.805	59.9
850.98	104.96
851.155	39.42
851.33	59.9
851.505	57.86
851.681	84.48
851.856	14.85
852.031	145.92
852.206	104.96
852.381	68.09
852.556	68.09
852.731	115.2
852.906	68.09
853.081	72.19
853.256	61.95
853.431	16.9
853.606	66.05
853.781	-15.87
853.956	-26.11
854.131	64
854.305	29.18
854.48	80.38
854.655	68.09
854.83	51.71
855.005	53.76
855.18	64
855.354	4.61
855.529	57.86
855.704	25.09
855.879	-38.4
856.053	-13.82
856.228	43.52
856.403	-9.73
856.577	-11.78
856.752	20.99
856.926	29.18
857.101	33.28
857.276	43.52
857.45	-17.92
857.625	31.23
857.799	6.66
857.974	-15.87
858.148	0.51
858.323	51.71
858.497	84.48
858.672	-11.78
858.846	-5.63
859.02	35.33
859.195	66.05
859.369	8.7
859.543	59.9
859.718	129.53
859.892	37.38
860.066	68.09
860.241	2.56
860.415	18.94
860.589	-5.63
860.763	49.66
860.938	41.47
861.112	-9.73
861.286	-1.54
861.46	35.33
861.634	33.28
861.808	39.42
861.982	23.04
862.157	94.72
862.331	20.99
862.505	16.9
862.679	-22.02
862.853	70.14
863.027	64
863.201	94.72
863.375	10.75
863.549	92.67
863.722	18.94
863.896	39.42
864.07	39.42
864.244	90.62
864.418	-15.87
864.592	8.7
864.766	-26.11
864.939	76.29
865.113	88.57
865.287	45.57
865.461	78.33
865.634	10.75
865.808	14.85
865.982	27.14
866.156	18.94
866.329	41.47
866.503	-85.5
866.676	31.23
866.85	51.71
867.024	59.9
867.197	12.8
867.371	113.15
867.544	82.43
867.718	-30.21
867.891	16.9
868.065	-1.54
868.238	-40.45
868.412	49.66
868.585	80.38
868.759	51.71
868.932	8.7
869.105	-36.35
869.279	-38.4
869.452	0.51
869.625	8.7
869.799	-3.58
869.972	57.86
870.145	-9.73
870.319	53.76
870.492	76.29
870.665	16.9
870.838	39.42
871.011	96.77
871.185	47.62
871.358	16.9
871.531	59.9
871.704	-11.78
871.877	25.09
872.05	-22.02
872.223	57.86
872.396	-7.68
872.569	61.95
872.742	-30.21
872.915	49.66
873.088	59.9
873.261	2.56
873.434	33.28
873.607	43.52
873.78	10.75
873.953	23.04
874.126	72.19
874.299	6.66
874.471	16.9
874.644	-5.63
874.817	43.52
874.99	96.77
875.163	0.51
875.335	86.53
875.508	39.42
875.681	29.18
875.853	25.09
876.026	-17.92
876.199	33.28
876.371	25.09
876.544	23.04
876.717	12.8
876.889	12.8
877.062	57.86
877.234	41.47
877.407	41.47
877.579	-15.87
877.752	49.66
877.924	57.86
878.097	66.05
878.269	47.62
878.442	-15.87
878.614	37.38
878.786	-1.54
878.959	31.23
879.131	16.9
879.303	2.56
879.476	-5.63
879.648	-13.82
879.82	35.33
879.993	-38.4
880.165	29.18
880.337	-42.5
880.509	96.77
880.681	72.19
880.854	-50.69
881.026	27.14
881.198	64
881.37	23.04
881.542	59.9
881.714	29.18
881.886	-5.63
882.058	88.57
882.23	-5.63
882.402	23.04
882.574	53.76
882.746	37.38
882.918	59.9
883.09	43.52
883.262	4.61
883.434	-32.26
883.606	-52.74
883.778	6.66
883.95	84.48
884.122	20.99
884.293	6.66
884.465	-40.45
884.637	-13.82
884.809	-17.92
884.98	-22.02
885.152	8.7
885.324	51.71
885.496	10.75
885.667	-22.02
885.839	2.56
886.011	31.23
886.182	45.57
886.354	18.94
886.525	59.9
886.697	-11.78
886.869	98.81
887.04	-9.73
887.212	57.86
887.383	80.38
887.555	-48.64
887.726	37.38
887.897	66.05
888.069	66.05
888.24	72.19
888.412	-34.3
888.583	23.04
888.754	47.62
888.926	-26.11
889.097	-30.21
889.268	20.99
889.44	23.04
889.611	6.66
889.782	14.85
889.953	-30.21
890.125	74.24
890.296	16.9
890.467	18.94
890.638	66.05
890.809	-11.78
890.98	-1.54
891.151	84.48
891.323	64
891.494	70.14
891.665	-32.26
891.836	98.81
892.007	-81.41
892.178	25.09
892.349	-40.45
892.52	14.85
892.691	8.7
892.862	-17.92
893.032	45.57
893.203	39.42
893.374	59.9
893.545	82.43
893.716	20.99
893.887	23.04
894.057	-3.58
894.228	35.33
894.399	12.8
894.57	51.71
894.74	-3.58
894.911	6.66
895.082	-15.87
895.253	68.09
895.423	-30.21
895.594	33.28
895.764	-5.63
895.935	18.94
896.106	-26.11
896.276	-34.3
896.447	27.14
896.617	43.52
896.788	-5.63
896.958	121.34
897.129	-22.02
897.299	-24.06
897.47	47.62
897.64	66.05
897.81	-36.35
897.981	16.9
898.151	-44.54
898.322	33.28
898.492	-5.63
898.662	-44.54
898.832	-50.69
899.003	66.05
899.173	-79.36
899.343	53.76
899.513	10.75
