Data from USB4F104151__236__11-11-16-459.txt Node

Date: Wed Mar 12 11:11:16 EDT 2025
User: louis
Spectrometer: USB4F10415
Trigger mode: 4
Integration Time (sec): 2.000000E-2
Scans to average: 1
Electric dark correction enabled: true
Nonlinearity correction enabled: false
Boxcar width: 0
XAxis mode: Wavelengths
Number of Pixels in Spectrum: 3648
>>>>>Begin Spectral Data<<<<<
178.204	-101.89
178.424	-101.89
178.644	-101.89
178.864	-181.76
179.084	-132.61
179.304	41.47
179.524	-17.92
179.744	-17.92
179.964	-26.11
180.184	37.38
180.404	6.66
180.624	-11.78
180.844	6.66
181.064	-19.97
181.283	25.09
181.503	18.94
181.723	-42.5
181.943	-110.08
182.163	109.05
182.383	0.51
182.602	35.33
182.822	37.38
183.042	59.9
183.262	18.94
183.482	31.23
183.701	-3.58
183.921	14.85
184.141	-13.82
184.361	29.18
184.58	72.19
184.8	29.18
185.02	-9.73
185.239	25.09
185.459	35.33
185.679	47.62
185.898	-28.16
186.118	18.94
186.338	-3.58
186.557	25.09
186.777	-7.68
186.997	29.18
187.216	-77.31
187.436	59.9
187.655	12.8
187.875	59.9
188.095	-52.74
188.314	51.71
188.534	-34.3
188.753	16.9
188.973	-3.58
189.192	6.66
189.412	68.09
189.631	27.14
189.851	10.75
190.07	43.52
190.29	20.99
190.509	12.8
190.729	53.76
190.948	-48.64
191.168	94.72
191.387	-13.82
191.607	-24.06
191.826	72.19
192.045	-38.4
192.265	90.62
192.484	64
192.704	10.75
192.923	-30.21
193.142	59.9
193.362	88.57
193.581	-19.97
193.8	-28.16
194.02	47.62
194.239	-7.68
194.458	29.18
194.678	68.09
194.897	0.51
195.116	18.94
195.335	31.23
195.555	88.57
195.774	18.94
195.993	29.18
196.212	41.47
196.432	27.14
196.651	-24.06
196.87	25.09
197.089	35.33
197.308	74.24
197.528	20.99
197.747	2.56
197.966	88.57
198.185	29.18
198.404	61.95
198.623	-9.73
198.842	41.47
199.062	-15.87
199.281	43.52
199.5	72.19
199.719	43.52
199.938	150.01
200.157	-3.58
200.376	51.71
200.595	35.33
200.814	18.94
201.033	8.7
201.252	35.33
201.471	2.56
201.69	39.42
201.909	-62.98
202.128	68.09
202.347	51.71
202.566	-24.06
202.785	59.9
203.004	10.75
203.223	45.57
203.442	4.61
203.661	-5.63
203.879	16.9
204.098	51.71
204.317	-1.54
204.536	2.56
204.755	12.8
204.974	51.71
205.193	14.85
205.411	61.95
205.63	88.57
205.849	49.66
206.068	84.48
206.287	45.57
206.505	55.81
206.724	90.62
206.943	-22.02
207.162	68.09
207.381	100.86
207.599	51.71
207.818	90.62
208.037	88.57
208.255	82.43
208.474	4.61
208.693	57.86
208.911	-42.5
209.13	27.14
209.349	35.33
209.567	53.76
209.786	92.67
210.005	20.99
210.223	55.81
210.442	84.48
210.661	16.9
210.879	45.57
211.098	72.19
211.316	10.75
211.535	25.09
211.753	-1.54
211.972	66.05
212.191	-52.74
212.409	-44.54
212.628	82.43
212.846	45.57
213.065	41.47
213.283	74.24
213.502	-1.54
213.72	29.18
213.938	2.56
214.157	23.04
214.375	6.66
214.594	55.81
214.812	68.09
215.031	-9.73
215.249	-13.82
215.467	-7.68
215.686	10.75
215.904	61.95
216.122	4.61
216.341	88.57
216.559	0.51
216.778	35.33
216.996	0.51
217.214	47.62
217.432	20.99
217.651	27.14
217.869	2.56
218.087	14.85
218.306	35.33
218.524	41.47
218.742	-5.63
218.96	49.66
219.179	10.75
219.397	14.85
219.615	70.14
219.833	94.72
220.051	-15.87
220.27	2.56
220.488	25.09
220.706	47.62
220.924	33.28
221.142	-36.35
221.36	-3.58
221.578	51.71
221.796	0.51
222.015	78.33
222.233	14.85
222.451	59.9
222.669	-11.78
222.887	78.33
223.105	-9.73
223.323	80.38
223.541	-11.78
223.759	55.81
223.977	-38.4
224.195	27.14
224.413	-1.54
224.631	39.42
224.849	-9.73
225.067	96.77
225.285	64
225.503	-56.83
225.721	-105.98
225.939	57.86
226.157	31.23
226.375	-5.63
226.592	66.05
226.81	66.05
227.028	-5.63
227.246	68.09
227.464	-32.26
227.682	45.57
227.9	96.77
228.117	-22.02
228.335	39.42
228.553	43.52
228.771	27.14
228.989	-9.73
229.206	33.28
229.424	8.7
229.642	33.28
229.86	39.42
230.077	-65.02
230.295	14.85
230.513	4.61
230.731	55.81
230.948	109.05
231.166	47.62
231.384	12.8
231.601	-48.64
231.819	25.09
232.037	68.09
232.254	-15.87
232.472	10.75
232.689	-54.78
232.907	125.44
233.125	6.66
233.342	55.81
233.56	12.8
233.777	-30.21
233.995	-24.06
234.213	137.73
234.43	0.51
234.648	57.86
234.865	10.75
235.083	41.47
235.3	47.62
235.518	64
235.735	64
235.953	123.39
236.17	51.71
236.388	-95.74
236.605	74.24
236.822	70.14
237.04	53.76
237.257	29.18
237.475	70.14
237.692	25.09
237.909	35.33
238.127	-24.06
238.344	16.9
238.562	16.9
238.779	18.94
238.996	31.23
239.214	27.14
239.431	2.56
239.648	20.99
239.865	-40.45
240.083	29.18
240.3	25.09
240.517	12.8
240.735	64
240.952	57.86
241.169	55.81
241.386	84.48
241.603	29.18
241.821	6.66
242.038	31.23
242.255	4.61
242.472	6.66
242.689	51.71
242.907	-30.21
243.124	31.23
243.341	-3.58
243.558	-1.54
243.775	16.9
243.992	-17.92
244.209	12.8
244.426	78.33
244.643	66.05
244.86	27.14
245.078	64
245.295	6.66
245.512	72.19
245.729	35.33
245.946	-30.21
246.163	-3.58
246.38	41.47
246.597	14.85
246.814	74.24
247.031	59.9
247.248	61.95
247.464	8.7
247.681	45.57
247.898	47.62
248.115	74.24
248.332	-19.97
248.549	133.63
248.766	43.52
248.983	90.62
249.2	66.05
249.417	23.04
249.633	31.23
249.85	43.52
250.067	6.66
250.284	-17.92
250.501	45.57
250.717	90.62
250.934	-7.68
251.151	14.85
251.368	23.04
251.585	47.62
251.801	16.9
252.018	-69.12
252.235	10.75
252.451	-28.16
252.668	18.94
252.885	6.66
253.102	59.9
253.318	72.19
253.535	4.61
253.752	47.62
253.968	33.28
254.185	-24.06
254.401	6.66
254.618	35.33
254.835	25.09
255.051	96.77
255.268	49.66
255.484	16.9
255.701	64
255.917	35.33
256.134	20.99
256.351	-1.54
256.567	31.23
256.784	117.25
257	31.23
257.217	49.66
257.433	41.47
257.65	61.95
257.866	78.33
258.082	10.75
258.299	-19.97
258.515	-9.73
258.732	2.56
258.948	39.42
259.165	53.76
259.381	51.71
259.597	29.18
259.814	12.8
260.03	88.57
260.246	80.38
260.463	47.62
260.679	76.29
260.895	35.33
261.112	25.09
261.328	66.05
261.544	12.8
261.761	98.81
261.977	72.19
262.193	64
262.409	25.09
262.626	12.8
262.842	8.7
263.058	25.09
263.274	33.28
263.49	41.47
263.707	98.81
263.923	70.14
264.139	72.19
264.355	133.63
264.571	-30.21
264.787	47.62
265.004	82.43
265.22	27.14
265.436	12.8
265.652	-62.98
265.868	53.76
266.084	8.7
266.3	78.33
266.516	2.56
266.732	-22.02
266.948	39.42
267.164	4.61
267.38	6.66
267.596	-24.06
267.812	70.14
268.028	53.76
268.244	18.94
268.46	-30.21
268.676	10.75
268.892	84.48
269.108	14.85
269.324	47.62
269.54	55.81
269.756	29.18
269.972	55.81
270.188	107.01
270.403	39.42
270.619	6.66
270.835	47.62
271.051	80.38
271.267	14.85
271.483	-13.82
271.698	70.14
271.914	98.81
272.13	86.53
272.346	14.85
272.562	12.8
272.777	18.94
272.993	25.09
273.209	35.33
273.425	14.85
273.64	20.99
273.856	-1.54
274.072	55.81
274.287	4.61
274.503	57.86
274.719	-5.63
274.934	14.85
275.15	35.33
275.366	27.14
275.581	-5.63
275.797	109.05
276.012	29.18
276.228	18.94
276.444	37.38
276.659	57.86
276.875	23.04
277.09	-7.68
277.306	31.23
277.521	78.33
277.737	78.33
277.952	33.28
278.168	86.53
278.383	51.71
278.599	16.9
278.814	45.57
279.03	-11.78
279.245	66.05
279.461	2.56
279.676	25.09
279.892	2.56
280.107	16.9
280.322	14.85
280.538	33.28
280.753	74.24
280.969	59.9
281.184	47.62
281.399	64
281.615	61.95
281.83	55.81
282.045	-17.92
282.26	20.99
282.476	80.38
282.691	55.81
282.906	111.1
283.122	41.47
283.337	39.42
283.552	-13.82
283.767	76.29
283.983	49.66
284.198	68.09
284.413	23.04
284.628	39.42
284.843	104.96
285.058	92.67
285.274	20.99
285.489	-13.82
285.704	29.18
285.919	-50.69
286.134	0.51
286.349	31.23
286.564	68.09
286.779	35.33
286.995	-7.68
287.21	-34.3
287.425	84.48
287.64	2.56
287.855	41.47
288.07	31.23
288.285	27.14
288.5	-1.54
288.715	82.43
288.93	-26.11
289.145	64
289.36	41.47
289.575	-9.73
289.79	31.23
290.004	117.25
290.219	47.62
290.434	51.71
290.649	53.76
290.864	-11.78
291.079	76.29
291.294	57.86
291.509	-24.06
291.724	-9.73
291.938	-13.82
292.153	68.09
292.368	29.18
292.583	70.14
292.798	76.29
293.012	-36.35
293.227	-17.92
293.442	82.43
293.657	6.66
293.871	135.68
294.086	45.57
294.301	111.1
294.516	59.9
294.73	31.23
294.945	-15.87
295.16	6.66
295.374	25.09
295.589	43.52
295.804	18.94
296.018	29.18
296.233	47.62
296.447	43.52
296.662	47.62
296.877	100.86
297.091	-22.02
297.306	29.18
297.52	66.05
297.735	100.86
297.949	0.51
298.164	90.62
298.378	61.95
298.593	-15.87
298.807	0.51
299.022	33.28
299.236	51.71
299.451	-50.69
299.665	12.8
299.88	4.61
300.094	43.52
300.309	31.23
300.523	16.9
300.737	47.62
300.952	49.66
301.166	57.86
301.381	18.94
301.595	6.66
301.809	74.24
302.024	-9.73
302.238	47.62
302.452	61.95
302.667	59.9
302.881	88.57
303.095	49.66
303.309	49.66
303.524	-9.73
303.738	16.9
303.952	45.57
304.166	4.61
304.381	-3.58
304.595	55.81
304.809	10.75
305.023	57.86
305.237	41.47
305.452	109.05
305.666	55.81
305.88	64
306.094	64
306.308	-26.11
306.522	-3.58
306.736	-1.54
306.95	70.14
307.164	-26.11
307.379	68.09
307.593	51.71
307.807	23.04
308.021	27.14
308.235	61.95
308.449	39.42
308.663	14.85
308.877	72.19
309.091	31.23
309.305	43.52
309.519	4.61
309.733	82.43
309.947	23.04
310.161	80.38
310.374	59.9
310.588	20.99
310.802	14.85
311.016	31.23
311.23	-17.92
311.444	-1.54
311.658	61.95
311.872	59.9
312.085	64
312.299	57.86
312.513	70.14
312.727	72.19
312.941	23.04
313.154	27.14
313.368	82.43
313.582	41.47
313.796	57.86
314.009	-36.35
314.223	31.23
314.437	41.47
314.651	45.57
314.864	47.62
315.078	33.28
315.292	2.56
315.505	27.14
315.719	123.39
315.933	41.47
316.146	27.14
316.36	90.62
316.573	20.99
316.787	68.09
317.001	76.29
317.214	51.71
317.428	61.95
317.641	66.05
317.855	-50.69
318.068	10.75
318.282	27.14
318.495	39.42
318.709	61.95
318.922	39.42
319.136	49.66
319.349	49.66
319.563	18.94
319.776	82.43
319.99	23.04
320.203	18.94
320.417	70.14
320.63	64
320.843	-24.06
321.057	53.76
321.27	49.66
321.483	2.56
321.697	43.52
321.91	-19.97
322.124	107.01
322.337	16.9
322.55	2.56
322.763	129.53
322.977	90.62
323.19	-15.87
323.403	49.66
323.617	147.97
323.83	53.76
324.043	94.72
324.256	14.85
324.469	100.86
324.683	96.77
324.896	55.81
325.109	6.66
325.322	37.38
325.535	107.01
325.748	78.33
325.962	-5.63
326.175	35.33
326.388	35.33
326.601	8.7
326.814	88.57
327.027	-13.82
327.24	82.43
327.453	53.76
327.666	47.62
327.879	92.67
328.092	47.62
328.305	59.9
328.518	10.75
328.731	29.18
328.944	78.33
329.157	76.29
329.37	-44.54
329.583	100.86
329.796	2.56
330.009	-36.35
330.222	0.51
330.435	23.04
330.648	84.48
330.861	-17.92
331.073	-7.68
331.286	121.34
331.499	59.9
331.712	45.57
331.925	78.33
332.138	-32.26
332.35	20.99
332.563	10.75
332.776	94.72
332.989	4.61
333.202	55.81
333.414	76.29
333.627	16.9
333.84	27.14
334.053	117.25
334.265	-11.78
334.478	92.67
334.691	23.04
334.903	20.99
335.116	51.71
335.329	12.8
335.541	78.33
335.754	33.28
335.966	37.38
336.179	37.38
336.392	45.57
336.604	10.75
336.817	41.47
337.029	18.94
337.242	88.57
337.454	55.81
337.667	64
337.88	107.01
338.092	88.57
338.305	27.14
338.517	49.66
338.729	-32.26
338.942	-54.78
339.154	-11.78
339.367	53.76
339.579	64
339.792	41.47
340.004	35.33
340.217	35.33
340.429	113.15
340.641	12.8
340.854	45.57
341.066	-11.78
341.278	66.05
341.491	20.99
341.703	39.42
341.915	-15.87
342.128	31.23
342.34	16.9
342.552	64
342.764	47.62
342.977	55.81
343.189	14.85
343.401	33.28
343.613	-3.58
343.826	45.57
344.038	37.38
344.25	-40.45
344.462	43.52
344.674	86.53
344.886	35.33
345.099	59.9
345.311	2.56
345.523	-60.93
345.735	-46.59
345.947	35.33
346.159	-36.35
346.371	6.66
346.583	-3.58
346.795	20.99
347.007	27.14
347.219	25.09
347.431	20.99
347.643	66.05
347.855	0.51
348.067	16.9
348.279	-1.54
348.491	55.81
348.703	92.67
348.915	74.24
349.127	-5.63
349.339	41.47
349.551	39.42
349.763	-13.82
349.975	4.61
350.187	57.86
350.399	-13.82
350.61	86.53
350.822	39.42
351.034	47.62
351.246	47.62
351.458	76.29
351.669	59.9
351.881	0.51
352.093	16.9
352.305	66.05
352.517	64
352.728	2.56
352.94	8.7
353.152	0.51
353.363	35.33
353.575	53.76
353.787	-34.3
353.999	84.48
354.21	-3.58
354.422	20.99
354.633	-3.58
354.845	10.75
355.057	70.14
355.268	18.94
355.48	23.04
355.692	6.66
355.903	104.96
356.115	-34.3
356.326	-30.21
356.538	131.58
356.749	27.14
356.961	41.47
357.172	80.38
357.384	4.61
357.595	76.29
357.807	74.24
358.018	98.81
358.23	94.72
358.441	98.81
358.653	66.05
358.864	53.76
359.075	68.09
359.287	27.14
359.498	66.05
359.709	80.38
359.921	6.66
360.132	33.28
360.344	29.18
360.555	64
360.766	78.33
360.977	35.33
361.189	53.76
361.4	20.99
361.611	72.19
361.823	92.67
362.034	-22.02
362.245	4.61
362.456	10.75
362.667	20.99
362.879	6.66
363.09	84.48
363.301	-7.68
363.512	35.33
363.723	70.14
363.935	12.8
364.146	115.2
364.357	35.33
364.568	64
364.779	29.18
364.99	76.29
365.201	64
365.412	66.05
365.623	-40.45
365.834	10.75
366.045	-112.13
366.256	76.29
366.467	76.29
366.678	29.18
366.889	31.23
367.1	90.62
367.311	31.23
367.522	-30.21
367.733	135.68
367.944	115.2
368.155	12.8
368.366	80.38
368.577	43.52
368.788	125.44
368.999	82.43
369.209	8.7
369.42	35.33
369.631	125.44
369.842	82.43
370.053	119.29
370.264	102.91
370.474	88.57
370.685	29.18
370.896	33.28
371.107	90.62
371.317	61.95
371.528	-30.21
371.739	88.57
371.95	111.1
372.16	41.47
372.371	-5.63
372.582	66.05
372.792	45.57
373.003	80.38
373.214	80.38
373.424	35.33
373.635	72.19
373.846	59.9
374.056	111.1
374.267	59.9
374.477	23.04
374.688	72.19
374.898	37.38
375.109	43.52
375.319	68.09
375.53	84.48
375.74	37.38
375.951	-1.54
376.161	74.24
376.372	61.95
376.582	-26.11
376.793	2.56
377.003	84.48
377.214	86.53
377.424	61.95
377.635	88.57
377.845	-30.21
378.055	86.53
378.266	-11.78
378.476	-32.26
378.686	23.04
378.897	66.05
379.107	35.33
379.317	55.81
379.528	70.14
379.738	59.9
379.948	45.57
380.158	-3.58
380.369	14.85
380.579	47.62
380.789	80.38
380.999	86.53
381.21	72.19
381.42	57.86
381.63	-1.54
381.84	133.63
382.05	18.94
382.261	84.48
382.471	55.81
382.681	64
382.891	55.81
383.101	64
383.311	31.23
383.521	43.52
383.731	-11.78
383.941	100.86
384.151	2.56
384.361	55.81
384.571	84.48
384.781	45.57
384.991	16.9
385.201	98.81
385.411	18.94
385.621	59.9
385.831	14.85
386.041	57.86
386.251	0.51
386.461	82.43
386.671	74.24
386.881	88.57
387.091	-50.69
387.301	47.62
387.511	68.09
387.72	8.7
387.93	64
388.14	-3.58
388.35	35.33
388.56	33.28
388.769	39.42
388.979	78.33
389.189	66.05
389.399	59.9
389.609	98.81
389.818	76.29
390.028	6.66
390.238	80.38
390.447	27.14
390.657	43.52
390.867	86.53
391.076	12.8
391.286	20.99
391.496	43.52
391.705	64
391.915	92.67
392.125	39.42
392.334	119.29
392.544	59.9
392.753	57.86
392.963	133.63
393.172	55.81
393.382	66.05
393.591	139.77
393.801	80.38
394.01	170.49
394.22	72.19
394.429	14.85
394.639	137.73
394.848	49.66
395.058	47.62
395.267	98.81
395.477	86.53
395.686	127.49
395.895	47.62
396.105	129.53
396.314	129.53
396.524	172.54
396.733	117.25
396.942	94.72
397.152	14.85
397.361	94.72
397.57	66.05
397.78	129.53
397.989	147.97
398.198	139.77
398.407	98.81
398.617	49.66
398.826	88.57
399.035	84.48
399.244	80.38
399.453	92.67
399.663	72.19
399.872	123.39
400.081	14.85
400.29	147.97
400.499	-50.69
400.708	121.34
400.917	102.91
401.127	107.01
401.336	96.77
401.545	113.15
401.754	109.05
401.963	125.44
402.172	16.9
402.381	86.53
402.59	55.81
402.799	-17.92
403.008	209.4
403.217	145.92
403.426	64
403.635	76.29
403.844	121.34
404.053	76.29
404.262	188.93
404.471	137.73
404.68	115.2
404.888	152.06
405.097	70.14
405.306	143.87
405.515	102.91
405.724	152.06
405.933	86.53
406.142	195.07
406.35	131.58
406.559	104.96
406.768	135.68
406.977	231.93
407.185	100.86
407.394	195.07
407.603	115.2
407.812	160.25
408.02	246.27
408.229	172.54
408.438	147.97
408.646	193.02
408.855	231.93
409.064	209.4
409.272	203.26
409.481	236.03
409.69	250.36
409.898	129.53
410.107	199.16
410.315	330.23
410.524	276.99
410.733	197.12
410.941	299.52
411.15	336.38
411.358	379.39
411.567	385.53
411.775	317.95
411.984	383.48
412.192	336.38
412.401	338.43
412.609	342.52
412.818	332.28
413.026	430.59
413.234	379.39
413.443	334.33
413.651	444.92
413.86	481.78
414.068	500.22
414.276	494.07
414.485	522.74
414.693	479.74
414.901	604.66
415.11	545.27
415.318	575.99
415.526	571.9
415.734	553.46
415.943	573.94
416.151	621.05
416.359	715.25
416.567	696.82
416.776	733.68
416.984	719.35
417.192	735.73
417.4	733.68
417.608	723.44
417.817	799.22
418.025	899.57
418.233	899.57
418.441	805.36
418.649	854.51
418.857	1063.41
419.065	1022.45
419.273	948.72
419.481	995.82
419.689	1090.03
419.897	1159.66
420.105	1137.13
420.313	1221.1
420.521	1171.95
420.729	1208.81
420.937	1380.84
421.145	1284.59
421.353	1411.56
421.561	1434.09
421.769	1534.44
421.977	1509.86
422.185	1608.17
422.393	1681.89
422.601	1747.43
422.809	1790.44
423.017	1841.64
423.224	1851.88
423.432	1888.74
423.64	1958.37
423.848	2177.5
424.056	2132.45
424.263	2154.98
424.471	2230.75
424.679	2212.32
424.887	2449.88
425.094	2576.86
425.302	2503.13
425.51	2623.96
425.718	2695.64
425.925	2656.73
426.133	2759.13
426.341	2937.3
426.548	2998.74
426.756	3131.86
426.964	3039.7
427.171	3226.06
427.379	3314.13
427.586	3477.96
427.794	3439.05
428.001	3719.62
428.209	3981.76
428.417	3801.54
428.624	3946.95
428.832	3977.67
429.039	3885.51
429.247	4161.98
429.454	4434.36
429.662	4739.51
429.869	4344.25
430.076	4612.54
430.284	4696.5
430.491	4790.71
430.699	5128.63
430.906	5015.99
431.114	5104.05
431.321	5161.39
431.528	5525.93
431.736	5595.56
431.943	5962.15
432.15	5884.33
432.358	5812.65
432.565	6341.02
432.772	5978.53
432.979	6586.78
433.187	6640.03
433.394	6676.89
433.601	7117.2
433.808	7270.8
434.016	7053.72
434.223	7264.66
434.43	7733.64
434.637	7707.02
434.844	8063.36
435.052	8329.6
435.259	8008.07
435.466	8305.03
435.673	8161.67
435.88	8790.39
436.087	9292.15
436.294	9255.28
436.501	8941.94
436.708	9236.85
436.915	9398.64
437.122	9935.21
437.329	9613.68
437.537	10094.95
437.743	10203.49
437.95	10336.61
438.157	10879.32
438.364	11170.13
438.571	11090.26
438.778	11305.3
438.985	12224.84
439.192	11831.63
439.399	12323.14
439.606	11704.65
439.813	12452.16
440.02	13261.11
440.227	12876.09
440.433	12992.83
440.64	13306.16
440.847	13132.09
441.054	13666.61
441.261	14440.74
441.467	14143.78
441.674	14567.71
441.881	15159.58
442.088	15012.12
442.294	14905.63
442.501	15212.82
442.708	15661.33
442.914	16292.1
443.121	16881.92
443.328	16423.17
443.534	17787.12
443.741	17119.48
443.948	16888.06
444.154	18268.39
444.361	17924.33
444.568	18036.97
444.774	18051.31
444.981	18325.74
445.187	19085.53
445.394	19773.65
445.6	19546.33
445.807	21262.52
446.013	20076.75
446.22	20705.48
446.426	21352.63
446.633	21717.17
446.839	22333.61
447.046	21495.99
447.252	22644.9
447.459	22513.83
447.665	22708.39
447.871	23812.24
448.078	24227.98
448.284	23320.73
448.491	23750.81
448.697	25172.1
448.903	25415.8
449.11	25333.89
449.316	24893.57
449.522	25643.13
449.728	25567.35
449.935	26110.07
450.141	26187.89
450.347	26658.92
450.553	25784.44
450.76	26110.07
450.966	27267.17
451.172	26964.07
451.378	27398.24
451.584	26863.72
451.791	27381.85
451.997	27029.6
452.203	28039.25
452.409	27887.7
452.615	28043.35
452.821	26814.57
453.027	26120.31
453.233	27981.91
453.44	26368.11
453.646	26538.09
453.852	26534
454.058	27529.31
454.264	26257.52
454.47	26974.31
454.676	26048.63
454.882	27232.35
455.088	24854.66
455.294	25215.1
455.5	25401.47
455.705	25993.33
455.911	24785.03
456.117	24322.19
456.323	23890.07
456.529	22452.39
456.735	23380.12
456.941	23173.28
457.147	22579.37
457.352	21680.31
457.558	21704.88
457.764	21584.05
457.97	21139.65
458.176	20875.46
458.381	20914.37
458.587	19726.55
458.793	20007.12
458.999	18921.7
459.204	19910.86
459.41	19785.94
459.616	17959.15
459.821	18239.72
460.027	18104.56
460.233	17877.23
460.438	16738.56
460.644	17152.25
460.85	16386.31
461.055	16097.55
461.261	15952.14
461.466	14864.67
461.672	14360.87
461.878	15227.16
462.083	14338.34
462.289	14188.84
462.494	14033.19
462.7	13224.25
462.905	13300.02
463.111	13521.2
463.316	13607.22
463.522	13453.62
463.727	13480.24
463.932	13402.42
464.138	13064.5
464.343	13013.31
464.549	12753.21
464.754	13396.28
464.959	13154.62
465.165	12925.24
465.37	12495.17
465.575	12245.32
465.781	12636.48
465.986	12644.67
466.191	12147.01
466.397	12063.05
466.602	11518.29
466.807	11823.44
467.012	11870.54
467.218	11792.72
467.423	11805
467.628	11843.92
467.833	12089.67
468.038	11802.96
468.244	11491.66
468.449	11866.44
468.654	11374.93
468.859	11626.83
469.064	11401.55
469.269	11100.5
469.474	11104.6
469.679	11284.82
469.885	10688.86
470.09	11153.75
470.295	10864.99
470.5	10606.94
470.705	10809.69
470.91	10543.46
471.115	10408.29
471.32	10570.08
471.525	10529.12
471.73	10103.14
471.935	10254.69
472.139	9785.71
472.344	9914.73
472.549	9869.67
472.754	9775.47
472.959	9654.64
473.164	9341.3
473.369	9335.15
473.574	9714.03
473.778	9374.06
473.983	9619.82
474.188	9324.91
474.393	8831.35
474.598	8987
474.802	8835.45
475.007	8819.07
475.212	8821.11
475.417	8647.04
475.621	8561.02
475.826	8509.82
476.031	8341.89
476.235	8466.81
476.44	8276.35
476.645	8077.7
476.849	8329.6
477.054	8106.37
477.259	7899.53
477.463	8110.47
477.668	7827.85
477.872	7887.24
478.077	7774.6
478.282	7520.65
478.486	7514.51
478.691	7377.3
478.895	7532.94
479.1	7432.59
479.304	7401.87
479.509	7326.1
479.713	7420.3
479.918	7180.69
480.122	7016.85
480.326	7301.52
480.531	7254.42
480.735	7100.82
480.94	6877.59
481.144	7393.68
481.348	7094.68
481.553	7131.54
481.757	6982.04
481.961	7031.19
482.166	7074.2
482.37	7025.04
482.574	6887.83
482.778	6764.95
482.983	6865.3
483.187	6900.12
483.391	6824.34
483.595	6998.42
483.8	6834.58
484.004	6887.83
484.208	6945.17
484.412	6955.41
484.616	6971.8
484.821	6848.92
485.025	6863.26
485.229	6959.51
485.433	6918.55
485.637	6982.04
485.841	6891.93
486.045	6867.35
486.249	6848.92
486.453	6830.49
486.657	6939.03
486.861	7006.61
487.065	6758.81
487.269	6810.01
487.473	6707.61
487.677	7000.47
487.881	6896.02
488.085	7029.14
488.289	6977.94
488.493	6752.66
488.697	6904.21
488.901	6834.58
489.105	6769.05
489.309	7006.61
489.512	6908.31
489.716	7029.14
489.92	7010.71
490.124	6943.13
490.328	6896.02
490.531	7043.48
490.735	7143.83
490.939	7051.67
491.143	6932.89
491.346	7082.39
491.55	7305.62
491.754	7201.17
491.958	7418.25
492.161	7166.35
492.365	7291.28
492.569	7037.33
492.772	7215.51
492.976	7487.89
493.18	7373.2
493.383	7424.4
493.587	7637.39
493.79	7653.77
493.994	7465.36
494.197	7563.66
494.401	7545.23
494.605	7850.38
494.808	7704.97
495.012	7811.46
495.215	7846.28
495.419	7987.59
495.622	7862.66
495.825	8020.36
496.029	7997.83
496.232	8124.8
496.436	8292.74
496.639	8204.67
496.843	8225.15
497.046	8688
497.249	8370.56
497.453	8444.29
497.656	8642.94
497.859	8704.38
498.063	8698.24
498.266	8913.27
498.469	8829.31
498.673	9015.67
498.876	9177.46
499.079	9288.05
499.282	9173.36
499.485	9505.13
499.689	9560.43
499.892	9658.73
500.095	9699.69
500.298	10004.84
500.501	9472.37
500.705	10146.15
500.908	10068.33
501.111	10135.91
501.314	10400.1
501.517	10441.06
501.72	10551.65
501.923	10496.35
502.126	10715.48
502.329	10998.1
502.532	11080.02
502.735	10996.06
502.938	11346.26
503.141	11417.94
503.344	11161.94
503.547	11540.82
503.75	11741.52
503.953	11805
504.156	11970.89
504.359	12056.9
504.562	12204.36
504.765	12605.76
504.968	12355.91
505.17	12464.45
505.373	12652.86
505.576	12912.95
505.779	13031.74
505.982	13025.59
506.185	13379.89
506.387	13332.79
506.59	13410.61
506.793	13648.18
506.996	13738.29
507.198	14072.11
507.401	13850.92
507.604	14106.92
507.807	14514.47
508.009	14584.1
508.212	14575.91
508.415	14795.04
508.617	15005.98
508.82	14934.3
509.022	14811.42
509.225	15202.58
509.428	15593.75
509.63	15481.11
509.833	15724.82
510.035	16197.9
510.238	15984.91
510.44	16347.4
510.643	16394.5
510.845	16326.92
511.048	16484.61
511.25	16699.65
511.453	16980.22
511.655	17447.16
511.858	17135.87
512.06	17414.39
512.262	17617.14
512.465	17764.59
512.667	17965.29
512.87	18069.74
513.072	18182.38
513.274	18663.65
513.477	18964.7
513.679	18931.94
513.881	19024.09
514.084	19370.2
514.286	19226.84
514.488	19165.4
514.69	19986.64
514.893	20015.31
515.095	20095.18
515.297	20259.02
515.499	20039.89
515.701	20627.65
515.904	20793.54
516.106	20859.07
516.308	20826.31
516.51	21354.68
516.712	21213.37
516.914	21608.63
517.116	22114.48
517.318	21979.31
517.52	22020.27
517.722	22429.87
517.925	22626.47
518.127	22671.53
518.329	22929.57
518.531	22589.61
518.733	23341.21
518.935	23572.63
519.136	23806.1
519.338	23931.03
519.54	23857.3
519.742	24021.14
519.944	24387.72
520.146	24694.92
520.348	24819.85
520.55	25014.4
520.752	25057.41
520.954	25512.06
521.155	25432.19
521.357	25841.78
521.559	26138.74
521.761	26065.01
521.963	25876.6
522.164	26595.43
522.366	26445.93
522.568	27189.35
522.77	27215.97
522.971	27373.66
523.173	26816.61
523.375	27336.8
523.576	27555.93
523.778	27480.16
523.98	27963.48
524.181	27863.13
524.383	28397.65
524.584	28285.01
524.786	28356.69
524.988	28340.3
525.189	28971.08
525.391	29282.37
525.592	29161.54
525.794	29163.59
525.995	29218.88
526.197	29415.49
526.398	29663.29
526.6	29683.77
526.801	29587.52
527.003	29902.9
527.204	29947.96
527.406	30375.98
527.607	30167.09
527.808	30836.78
528.01	29999.16
528.211	30298.16
528.412	30728.24
528.614	30502.96
528.815	30621.74
529.016	31219.75
529.218	30748.71
529.419	31117.35
529.62	31125.54
529.822	30945.32
530.023	31168.55
530.224	31209.51
530.425	31189.03
530.626	31080.49
530.828	31152.16
531.029	32071.7
531.23	31166.5
531.431	31463.46
531.632	31432.74
531.833	31703.07
532.035	31637.53
532.236	31725.6
532.437	32063.51
532.638	31889.43
532.839	31911.96
533.04	31899.67
533.241	31512.61
533.442	32333.84
533.643	32047.13
533.844	32096.28
534.045	32198.68
534.246	31860.76
534.447	31973.4
534.648	31840.28
534.849	32262.16
535.05	31934.49
535.251	31883.29
535.451	31946.78
535.652	31950.87
535.853	32319.51
536.054	32364.56
536.255	32309.27
536.456	31856.67
536.657	32475.15
536.857	32081.94
537.058	32268.31
537.259	32258.07
537.46	32477.2
537.66	32000.02
537.861	32215.06
538.062	32088.09
538.263	32440.34
538.463	31842.33
538.664	32022.55
538.865	31860.76
539.065	32378.9
539.266	31907.87
539.466	32208.92
539.667	31463.46
539.868	32227.35
540.068	32170.01
540.269	32280.6
540.469	32428.05
540.67	32305.17
540.87	31985.69
541.071	32350.23
541.271	32038.94
541.472	32086.04
541.672	31778.84
541.873	32188.44
542.073	31875.1
542.274	32530.45
542.474	32051.22
542.675	31885.34
542.875	32045.08
543.075	31987.74
543.276	31957.02
543.476	32061.46
543.676	32014.36
543.877	31778.84
544.077	31760.41
544.277	32102.42
544.478	31823.9
544.678	32374.8
544.878	32170.01
545.078	32190.48
545.279	31608.86
545.479	31852.57
545.679	31977.5
545.879	31846.43
546.079	31787.03
546.28	31653.92
546.48	31572
546.68	32190.48
546.88	32024.6
547.08	31813.66
547.28	31916.06
547.48	31703.07
547.68	31977.5
547.88	31387.68
548.081	31952.92
548.281	32118.81
548.481	31696.92
548.681	32161.81
548.881	31889.43
549.081	31479.84
549.28	31561.76
549.48	31965.21
549.68	31877.15
549.88	32110.61
550.08	31199.27
550.28	31725.6
550.48	31596.57
550.68	32241.68
550.88	31768.6
551.08	31576.09
551.279	31662.11
551.479	31326.24
551.679	32020.5
551.879	31655.96
552.079	31862.81
552.278	31602.72
552.478	31770.65
552.678	31748.12
552.878	31686.68
553.077	31567.9
553.277	31105.06
553.477	31604.77
553.676	31492.13
553.876	31735.84
554.076	31074.34
554.275	31309.86
554.475	31043.62
554.674	31787.03
554.874	31399.97
555.074	31385.63
555.273	31371.3
555.473	31432.74
555.672	31172.64
555.872	31246.37
556.071	31496.22
556.271	30918.7
556.47	31041.57
556.67	31019.05
556.869	30875.69
557.068	31258.66
557.268	31068.2
557.467	30996.52
557.667	30994.47
557.866	31062.05
558.065	30881.83
558.265	30515.25
558.464	30644.27
558.663	31121.45
558.863	30595.12
559.062	30980.14
559.261	30644.27
559.461	30982.18
559.66	30476.33
559.859	30425.14
560.058	30017.59
560.258	30445.62
560.457	30117.94
560.656	30554.16
560.855	30134.32
561.054	30476.33
561.253	29990.97
561.453	30119.99
561.652	30275.63
561.851	30097.46
562.05	30046.26
562.249	29950.01
562.448	29988.92
562.647	30021.69
562.846	29446.21
563.045	30009.4
563.244	29278.27
563.443	29894.71
563.642	28866.63
563.841	29468.73
564.04	29577.28
564.239	30103.6
564.438	29261.89
564.637	29327.42
564.836	29411.39
565.035	29089.86
565.234	29194.31
565.432	29009.99
565.631	29077.57
565.83	28944.45
566.029	28794.95
566.228	28971.08
566.427	28995.65
566.625	28411.98
566.824	28268.62
567.023	28887.11
567.222	27910.23
567.42	28928.07
567.619	28379.21
567.818	28510.28
568.016	28379.21
568.215	28153.94
568.414	27904.09
568.612	28584.01
568.811	28051.54
569.01	28432.46
569.208	27877.46
569.407	28076.12
569.605	27504.73
569.804	28000.34
570.002	27572.32
570.201	27588.7
570.4	27512.92
570.598	27111.52
570.797	27115.62
570.995	27670.62
571.193	27039.84
571.392	27242.59
571.59	27015.27
571.789	27058.28
571.987	26843.24
572.186	26804.33
572.384	26763.37
572.582	26957.92
572.781	26794.09
572.979	26456.17
573.177	26521.71
573.376	26816.61
573.574	26017.91
573.772	26656.87
573.971	26290.29
574.169	26316.91
574.367	25890.93
574.565	26472.56
574.763	26038.39
574.962	25981.04
575.16	25843.83
575.358	25677.94
575.556	25555.07
575.754	25919.6
575.952	25507.96
576.151	25985.14
576.349	25641.08
576.547	25477.24
576.745	25821.3
576.943	25292.93
577.141	25411.71
577.339	25223.3
577.537	25053.31
577.735	24985.73
577.933	24881.28
578.131	25016.45
578.329	24797.32
578.527	24660.1
578.725	24678.54
578.923	24590.47
579.121	24631.43
579.319	24746.12
579.516	24549.51
579.714	24682.63
579.912	24238.22
580.11	24346.76
580.308	24225.93
580.506	24227.98
580.704	23877.78
580.901	24289.42
581.099	24258.7
581.297	23896.21
581.495	24090.77
581.692	23996.56
581.89	23662.74
582.088	23824.53
582.285	23724.18
582.483	23834.77
582.681	23154.85
582.878	23457.95
583.076	22974.63
583.274	23539.86
583.471	23189.66
583.669	23206.05
583.866	22741.16
584.064	23074.98
584.262	22753.44
584.459	22913.19
584.657	22851.75
584.854	22868.13
585.052	22579.37
585.249	22864.04
585.447	22769.83
585.644	22454.44
585.841	22687.91
586.039	22696.1
586.236	22567.08
586.434	22368.43
586.631	22358.19
586.828	22223.02
587.026	22487.21
587.223	22509.74
587.42	21952.69
587.618	22055.09
587.815	22077.62
588.012	21713.08
588.21	21665.97
588.407	22202.54
588.604	21715.12
588.801	21547.19
588.999	21655.73
589.196	21600.44
589.393	21495.99
589.59	21577.91
589.787	21465.27
589.984	21010.62
590.182	21084.35
590.379	21403.83
590.576	21014.72
590.773	21176.51
590.97	21061.82
591.167	21113.02
591.364	21074.11
591.561	20734.15
591.758	20660.42
591.955	20844.74
592.152	20732.1
592.349	20719.81
592.546	20598.98
592.743	20721.86
592.94	20201.68
593.137	20349.13
593.334	20488.39
593.531	20060.37
593.727	20125.9
593.924	20336.84
594.121	19984.59
594.318	19976.4
594.515	19798.23
594.712	20398.28
594.908	20273.35
595.105	19964.11
595.302	19792.08
595.499	19874
595.696	19716.31
595.892	19554.52
596.089	19572.95
596.286	19445.98
596.482	19228.89
596.679	19597.52
596.876	19366.1
597.072	19185.88
597.269	19194.08
597.466	19060.96
597.662	18878.69
597.859	19120.35
598.055	19028.19
598.252	18690.27
598.448	18647.27
598.645	18655.46
598.841	18946.27
599.038	18876.64
599.234	18837.73
599.431	18465
599.627	18290.92
599.824	18471.14
600.02	18102.51
600.217	18491.62
600.413	18204.91
600.609	18188.52
600.806	18022.64
601.002	18190.57
601.198	17918.19
601.395	18131.18
601.591	18127.08
601.787	17940.72
601.984	17494.26
602.18	17930.48
602.376	17948.91
602.572	17686.77
602.769	17637.62
602.965	17363.19
603.161	17688.82
603.357	17338.62
603.553	17492.21
603.75	17387.77
603.946	17236.22
604.142	17174.78
604.338	16969.98
604.534	16945.41
604.73	16871.68
604.926	16779.52
605.122	17088.76
605.318	17123.58
605.514	16894.21
605.71	16949.5
605.906	16769.28
606.102	17027.32
606.298	16732.42
606.494	16627.97
606.69	16627.97
606.886	16783.62
607.082	16435.46
607.278	16673.03
607.474	16177.42
607.67	16648.45
607.866	16105.74
608.062	16511.24
608.257	16265.48
608.453	16382.21
608.649	16245
608.845	16091.4
609.041	16255.24
609.236	16304.39
609.432	16048.4
609.628	16179.47
609.824	15866.13
610.019	15982.86
610.215	15993.1
610.411	15939.85
610.606	15847.69
610.802	16013.58
610.998	15716.62
611.193	15673.62
611.389	15483.16
611.584	15716.62
611.78	15710.48
611.976	15653.14
612.171	15726.86
612.367	15444.24
612.562	15782.16
612.758	15257.88
612.953	15327.51
613.149	15595.79
613.344	15419.67
613.539	15665.42
613.735	15511.83
613.93	15462.68
614.126	15184.15
614.321	15315.22
614.517	15163.67
614.712	15057.18
614.907	15014.17
615.103	15255.83
615.298	15122.71
615.493	15603.99
615.688	14807.33
615.884	15180.06
616.079	14952.73
616.274	15005.98
616.47	15126.81
616.665	14809.37
616.86	15016.22
617.055	14897.44
617.25	14948.64
617.445	15077.66
617.641	14473.51
617.836	14797.09
618.031	14346.53
618.226	14754.08
618.421	14547.23
618.616	14440.74
618.811	14422.31
619.006	14598.43
619.201	14115.11
619.396	14477.6
619.591	14119.21
619.786	14242.09
619.981	14141.74
620.176	14041.39
620.371	13932.84
620.566	13924.65
620.761	13893.93
620.956	13902.12
621.151	13848.88
621.346	13664.56
621.541	13574.45
621.735	13719.85
621.93	13429.04
622.125	13605.17
622.32	13246.77
622.515	13334.84
622.709	13408.56
622.904	13117.75
623.099	13005.11
623.294	12990.78
623.488	12953.91
623.683	12996.92
623.878	12798.27
624.072	13015.35
624.267	12593.47
624.462	12749.12
624.656	12497.22
624.851	12458.31
625.046	12378.44
625.24	12388.67
625.435	12157.25
625.629	12329.28
625.824	12294.47
626.018	12081.48
626.213	11827.53
626.407	12063.05
626.602	11870.54
626.796	11747.66
626.991	11960.65
627.185	11802.96
627.38	11610.45
627.574	11813.2
627.768	11528.53
627.963	11501.9
628.157	11307.35
628.352	11557.2
628.546	11465.04
628.74	11411.79
628.935	11194.71
629.129	11299.16
629.323	11082.07
629.517	10946.9
629.712	11014.49
629.906	11082.07
630.1	11000.15
630.294	10998.1
630.489	10918.23
630.683	10924.38
630.877	10555.74
631.071	10570.08
631.265	10592.61
631.459	10463.58
631.653	10402.15
631.848	10412.39
632.042	10238.31
632.236	10379.62
632.43	10070.37
632.624	10295.65
632.818	10217.83
633.012	9931.11
633.206	10013.03
633.4	10006.89
633.594	9849.19
633.788	9955.69
633.982	9853.29
634.176	9822.57
634.369	9834.86
634.563	9533.81
634.757	9462.13
634.951	9580.91
635.145	9611.63
635.339	9451.89
635.533	9353.59
635.726	9382.26
635.92	9181.56
636.114	9286
636.308	9199.99
636.501	9058.68
636.695	9269.62
636.889	9052.53
637.083	8857.98
637.276	9042.29
637.47	9030.01
637.664	8968.57
637.857	8943.99
638.051	8960.38
638.244	8794.49
638.438	8659.32
638.632	8511.87
638.825	8679.8
639.019	8491.39
639.212	8544.64
639.406	8597.88
639.599	8434.05
639.793	8331.65
639.986	8343.94
640.18	8352.13
640.373	8296.83
640.567	8124.8
640.76	8075.65
640.954	7981.45
641.147	7895.43
641.34	8118.66
641.534	7872.9
641.727	7934.34
641.92	7807.37
642.114	7864.71
642.307	7960.97
642.5	7762.31
642.694	7737.74
642.887	7657.87
643.08	7754.12
643.273	7678.35
643.467	7571.85
643.66	7348.62
643.853	7455.12
644.046	7410.06
644.239	7412.11
644.432	7479.69
644.626	7207.31
644.819	7100.82
645.012	7268.75
645.205	7162.26
645.398	7416.21
645.591	7170.45
645.784	7100.82
645.977	7068.05
646.17	7076.24
646.363	6898.07
646.556	6850.97
646.749	6754.71
646.942	6930.84
647.135	6869.4
647.328	6693.27
647.521	6699.42
647.714	6775.19
647.907	6746.52
648.099	6541.72
648.292	6730.14
648.485	6392.22
648.678	6461.85
648.871	6410.65
649.064	6504.86
649.256	6603.16
649.449	6568.35
649.642	6394.27
649.835	6181.28
650.027	6334.88
650.22	6330.78
650.413	6130.08
650.605	6162.85
650.798	6164.9
650.991	6152.61
651.183	6171.04
651.376	6123.94
651.568	6152.61
651.761	5994.92
651.954	5988.77
652.146	5951.91
652.339	5960.1
652.531	5884.33
652.724	5833.13
652.916	5587.37
653.109	6046.12
653.301	5792.17
653.494	5904.81
653.686	5704.1
653.879	5783.98
654.071	5786.02
654.263	5585.32
654.456	5519.79
654.648	5548.46
654.84	5599.66
655.033	5478.83
655.225	5573.03
655.417	5370.29
655.61	5538.22
655.802	5298.61
655.994	5333.42
656.186	5409.2
656.379	5378.48
656.571	5214.64
656.763	5335.47
656.955	5179.82
657.148	5251.5
657.34	5224.88
657.532	5085.62
657.724	5073.33
657.916	5120.43
658.108	5032.37
658.3	4901.3
658.492	5140.91
658.684	4983.22
658.876	5036.47
659.068	4923.83
659.26	4934.07
659.452	4889.01
659.644	4897.21
659.836	4858.29
660.028	4850.1
660.22	4798.9
660.412	4645.31
660.604	4708.79
660.796	4630.97
660.988	4686.26
661.18	4667.83
661.372	4602.3
661.563	4590.01
661.755	4561.34
661.947	4688.31
662.139	4448.7
662.331	4532.67
662.522	4557.24
662.714	4499.9
662.906	4317.63
663.097	4350.4
663.289	4383.17
663.481	4272.57
663.673	4458.94
663.864	4317.63
664.056	4188.61
664.247	4282.81
664.439	4131.26
664.631	4293.05
664.822	4348.35
665.014	4196.8
665.205	4153.79
665.397	4094.4
665.588	4387.26
665.78	4106.69
665.971	4221.38
666.163	4067.78
666.354	4071.87
666.546	3887.56
666.737	4139.46
666.929	3989.96
667.12	3914.18
667.311	3785.16
667.503	3787.21
667.694	3994.05
667.885	3924.42
668.077	3987.91
668.268	3893.7
668.459	3869.12
668.651	3801.54
668.842	3813.83
669.033	3783.11
669.224	3672.52
669.416	3830.21
669.607	3729.86
669.798	3617.22
669.989	3738.05
670.18	3783.11
670.371	3674.57
670.563	3649.99
670.754	3588.55
670.945	3588.55
671.136	3756.49
671.327	3570.12
671.518	3529.16
671.709	3693
671.9	3725.77
672.091	3633.61
672.282	3369.42
672.473	3557.83
672.664	3578.31
672.855	3529.16
673.046	3402.19
673.237	3549.64
673.428	3410.38
673.619	3518.92
673.809	3533.26
674	3336.65
674.191	3269.07
674.382	3387.85
674.573	3443.15
674.764	3357.13
674.954	3340.75
675.145	3246.54
675.336	3506.63
675.527	3367.37
675.717	3156.43
675.908	3262.93
676.099	3269.07
676.289	3293.65
676.48	3176.91
676.671	3156.43
676.861	3232.21
677.052	3279.31
677.243	3078.61
677.433	3162.58
677.624	3176.91
677.814	3209.68
678.005	3215.82
678.195	3037.65
678.386	3189.2
678.576	3129.81
678.767	3047.89
678.957	3131.86
679.148	3131.86
679.338	3113.42
679.529	3111.38
679.719	3060.18
679.909	3228.11
680.1	3146.19
680.29	3088.85
680.481	3103.18
680.671	3084.75
680.861	3062.23
681.052	3011.03
681.242	2951.63
681.432	3019.22
681.622	3125.71
681.813	3006.93
682.003	3058.13
682.193	3041.75
682.383	3000.79
682.573	3021.27
682.764	2929.11
682.954	3056.08
683.144	2998.74
683.334	3094.99
683.524	2892.24
683.714	2877.91
683.904	2859.48
684.094	2972.11
684.284	2816.47
684.474	2834.9
684.664	2800.09
684.854	2984.4
685.044	2798.04
685.234	2916.82
685.424	2859.48
685.614	2884.05
685.804	2871.76
685.994	2873.81
686.184	2761.17
686.374	2875.86
686.564	2855.38
686.753	2830.8
686.943	2763.22
687.133	2650.58
687.323	2689.49
687.513	2709.97
687.702	2767.32
687.892	2689.49
688.082	2611.67
688.272	2818.52
688.461	2660.82
688.651	2714.07
688.841	2736.6
689.03	2587.1
689.22	2689.49
689.41	2648.54
689.599	2525.66
689.789	2652.63
689.979	2652.63
690.168	2732.5
690.358	2589.14
690.547	2589.14
690.737	2652.63
690.926	2660.82
691.116	2509.27
691.305	2521.56
691.495	2464.22
691.684	2453.98
691.874	2443.74
692.063	2410.97
692.252	2546.14
692.442	2525.66
692.631	2429.4
692.82	2396.64
693.01	2359.77
693.199	2341.34
693.388	2410.97
693.578	2404.83
693.767	2339.29
693.956	2316.76
694.146	2238.94
694.335	2249.18
694.524	2304.48
694.713	2288.09
694.902	2255.33
695.092	2410.97
695.281	2224.61
695.47	2179.55
695.659	2370.01
695.848	2245.09
696.037	2361.82
696.226	2361.82
696.415	2296.28
696.604	2320.86
696.793	2181.6
696.982	2288.09
697.171	2398.68
697.36	2288.09
697.549	2316.76
697.738	2159.07
697.927	2226.65
698.116	2232.8
698.305	2228.7
698.494	2255.33
698.683	2271.71
698.872	2204.13
699.061	2144.74
699.25	2128.35
699.438	2234.85
699.627	2146.78
699.816	2286.05
700.005	2247.13
700.193	2216.41
700.382	2177.5
700.571	2167.26
700.76	2169.31
700.948	2077.15
701.137	2271.71
701.326	2277.85
701.514	2349.53
701.703	2236.89
701.892	2132.45
702.08	2165.21
702.269	2122.21
702.457	2214.37
702.646	2167.26
702.834	2126.3
703.023	2138.59
703.212	2167.26
703.4	2230.75
703.589	2054.62
703.777	2157.02
703.965	2122.21
704.154	2136.54
704.342	2091.49
704.531	2130.4
704.719	2206.17
704.907	2152.93
705.096	2159.07
705.284	1989.09
705.472	2138.59
705.661	2197.98
705.849	2165.21
706.037	2210.27
706.226	2132.45
706.414	2105.82
706.602	2091.49
706.79	2204.13
706.979	2064.86
707.167	2060.77
707.355	2218.46
707.543	2181.6
707.731	2105.82
707.919	2163.17
708.107	2062.82
708.296	2060.77
708.484	2085.34
708.672	2144.74
708.86	2165.21
709.048	2068.96
709.236	2161.12
709.424	2066.91
709.612	2202.08
709.8	2140.64
709.988	2068.96
710.176	2107.87
710.364	2132.45
710.551	2075.1
710.739	2124.26
710.927	2114.02
711.115	2187.74
711.303	2165.21
711.491	2130.4
711.679	2154.98
711.866	2062.82
712.054	2107.87
712.242	2011.62
712.43	2050.53
712.617	2083.3
712.805	2011.62
712.993	1964.51
713.181	2019.81
713.368	2128.35
713.556	2154.98
713.744	2021.86
713.931	2175.45
714.119	2101.73
714.306	2101.73
714.494	2124.26
714.682	2165.21
714.869	2105.82
715.057	2236.89
715.244	2038.24
715.432	2159.07
715.619	2017.76
715.807	2124.26
715.994	2015.71
716.182	2019.81
716.369	2023.91
716.556	2056.67
716.744	2097.63
716.931	1950.18
717.119	2091.49
717.306	2042.34
717.493	2034.14
717.681	1903.07
717.868	2058.72
718.055	2050.53
718.242	2181.6
718.43	2159.07
718.617	2099.68
718.804	2087.39
718.991	2064.86
719.179	1997.28
719.366	2040.29
719.553	2028
719.74	2111.97
719.927	2175.45
720.114	1931.75
720.301	1939.94
720.488	1984.99
720.676	1991.14
720.863	2023.91
721.05	2066.91
721.237	2011.62
721.424	1870.31
721.611	1964.51
721.798	2075.1
721.985	2040.29
722.172	1999.33
722.358	1978.85
722.545	1984.99
722.732	2071.01
722.919	2036.19
723.106	1997.28
723.293	2013.67
723.48	2013.67
723.667	1984.99
723.853	2040.29
724.04	2052.58
724.227	2054.62
724.414	2028
724.6	2042.34
724.787	2105.82
724.974	1898.98
725.161	1968.61
725.347	2005.47
725.534	2001.38
725.72	1946.08
725.907	2099.68
726.094	1941.99
726.28	2028
726.467	2044.38
726.653	1984.99
726.84	1941.99
727.027	2077.15
727.213	2114.02
727.4	1927.65
727.586	2073.06
727.773	2030.05
727.959	2034.14
728.145	2017.76
728.332	1937.89
728.518	1956.32
728.705	2052.58
728.891	1997.28
729.077	2064.86
729.264	1968.61
729.45	1968.61
729.636	1995.23
729.823	1909.22
730.009	2050.53
730.195	2009.57
730.382	1984.99
730.568	2068.96
730.754	1948.13
730.94	1919.46
731.126	2009.57
731.313	2038.24
731.499	1849.83
731.685	1874.4
731.871	1948.13
732.057	2003.43
732.243	2013.67
732.429	1993.19
732.615	2064.86
732.801	1921.51
732.987	1927.65
733.173	1944.03
733.359	1919.46
733.545	2001.38
733.731	2028
733.917	1944.03
734.103	1892.84
734.289	2068.96
734.475	1982.95
734.661	1855.97
734.847	1858.02
735.033	2003.43
735.219	1825.25
735.404	1872.36
735.59	1907.17
735.776	2019.81
735.962	1853.92
736.148	1956.32
736.333	1923.55
736.519	2034.14
736.705	1921.51
736.89	1880.55
737.076	1862.12
737.262	1837.54
737.447	1864.16
737.633	1872.36
737.819	1886.69
738.004	1843.68
738.19	1966.56
738.375	1880.55
738.561	1882.6
738.747	1866.21
738.932	1950.18
739.118	1909.22
739.303	1993.19
739.489	1829.35
739.674	1841.64
739.859	1921.51
740.045	1929.7
740.23	1810.92
740.416	1851.88
740.601	1792.48
740.786	1812.96
740.972	1898.98
741.157	1712.61
741.342	1903.07
741.528	1841.64
741.713	1845.73
741.898	1878.5
742.084	1753.57
742.269	1817.06
742.454	1812.96
742.639	1810.92
742.824	1782.24
743.01	1792.48
743.195	1827.3
743.38	1665.51
743.565	1759.72
743.75	1690.09
743.935	1681.89
744.12	1731.05
744.305	1733.09
744.49	1778.15
744.675	1690.09
744.86	1591.78
745.045	1636.84
745.23	1657.32
745.415	1698.28
745.6	1663.46
745.785	1651.17
745.97	1608.17
746.155	1645.03
746.34	1595.88
746.525	1640.93
746.71	1749.48
746.895	1579.5
747.079	1700.33
747.264	1559.02
747.449	1602.02
747.634	1675.75
747.819	1462.76
748.003	1509.86
748.188	1464.81
748.373	1602.02
748.557	1561.06
748.742	1534.44
748.927	1573.35
749.111	1585.64
749.296	1522.15
749.481	1493.48
749.665	1473
749.85	1442.28
750.034	1485.29
750.219	1425.9
750.404	1425.9
750.588	1409.51
750.773	1278.44
750.957	1470.95
751.141	1341.93
751.326	1323.5
751.51	1360.36
751.695	1300.97
751.879	1401.32
752.064	1362.41
752.248	1231.34
752.432	1366.51
752.617	1411.56
752.801	1389.03
752.985	1319.4
753.17	1298.92
753.354	1366.51
753.538	1298.92
753.722	1188.33
753.907	1309.16
754.091	1274.35
754.275	1231.34
754.459	1192.43
754.643	1214.96
754.828	1141.23
755.012	1235.44
755.196	1219.05
755.38	1139.18
755.564	1139.18
755.748	1104.37
755.932	1210.86
756.116	1210.86
756.3	1104.37
756.484	1122.8
756.668	1104.37
756.852	1135.09
757.036	1114.61
757.22	1104.37
757.404	973.3
757.588	1137.13
757.772	1104.37
757.956	1090.03
758.14	1122.8
758.323	1067.5
758.507	1098.22
758.691	1053.17
758.875	1001.97
759.059	1059.31
759.242	997.87
759.426	971.25
759.61	1028.59
759.794	1032.69
759.977	993.78
760.161	1151.47
760.345	1034.74
760.528	985.58
760.712	915.95
760.895	956.91
761.079	930.29
761.263	897.52
761.446	963.06
761.63	963.06
761.813	918
761.997	987.63
762.18	907.76
762.364	938.48
762.547	920.05
762.731	963.06
762.914	891.38
763.098	907.76
763.281	905.71
763.464	936.43
763.648	844.28
763.831	1014.26
764.015	893.43
764.198	987.63
764.381	905.71
764.564	911.86
764.748	961.01
764.931	899.57
765.114	936.43
765.297	897.52
765.481	836.08
765.664	872.95
765.847	840.18
766.03	848.37
766.213	905.71
766.397	870.9
766.58	799.22
766.763	856.56
766.946	809.46
767.129	913.91
767.312	788.98
767.495	860.66
767.678	782.84
767.861	985.58
768.044	862.71
768.227	858.61
768.41	899.57
768.593	836.08
768.776	821.75
768.959	811.51
769.142	856.56
769.324	764.4
769.507	760.31
769.69	774.64
769.873	784.88
770.056	872.95
770.239	842.23
770.421	844.28
770.604	844.28
770.787	815.6
770.97	864.75
771.152	846.32
771.335	831.99
771.518	741.88
771.7	758.26
771.883	717.3
772.066	752.12
772.248	645.62
772.431	778.74
772.613	772.6
772.796	678.39
772.978	776.69
773.161	795.12
773.343	664.05
773.526	731.64
773.708	545.27
773.891	666.1
774.073	686.58
774.256	705.01
774.438	731.64
774.621	670.2
774.803	721.4
774.985	690.68
775.168	604.66
775.35	621.05
775.532	707.06
775.715	666.1
775.897	643.57
776.079	653.81
776.261	627.19
776.444	707.06
776.626	633.33
776.808	639.48
776.99	553.46
777.173	592.37
777.355	565.75
777.537	594.42
777.719	664.05
777.901	657.91
778.083	598.52
778.265	535.03
778.447	653.81
778.629	623.09
778.811	506.36
778.993	649.72
779.175	547.32
779.357	596.47
779.539	512.5
779.721	582.14
779.903	635.38
780.085	518.65
780.267	471.54
780.449	537.08
780.631	489.98
780.812	604.66
780.994	573.94
781.176	629.24
781.358	547.32
781.54	494.07
781.721	535.03
781.903	373.24
782.085	481.78
782.267	446.97
782.448	522.74
782.63	451.07
782.812	522.74
782.993	485.88
783.175	492.02
783.357	422.39
783.538	520.7
783.72	449.02
783.901	496.12
784.083	455.16
784.264	455.16
784.446	489.98
784.627	403.96
784.809	416.25
784.99	459.26
785.172	457.21
785.353	424.44
785.535	330.23
785.716	391.67
785.897	397.82
786.079	500.22
786.26	455.16
786.441	422.39
786.623	363
786.804	430.59
786.985	469.5
787.167	420.35
787.348	416.25
787.529	381.43
787.71	428.54
787.891	363
788.073	332.28
788.254	346.62
788.435	393.72
788.616	375.29
788.797	283.13
788.978	340.47
789.159	399.87
789.34	354.81
789.522	397.82
789.703	334.33
789.884	322.04
790.065	266.75
790.246	367.1
790.427	317.95
790.607	303.61
790.788	377.34
790.969	315.9
791.15	236.03
791.331	326.14
791.512	330.23
791.693	303.61
791.874	412.15
792.054	469.5
792.235	340.47
792.416	283.13
792.597	367.1
792.778	328.19
792.958	299.52
793.139	381.43
793.32	324.09
793.5	307.71
793.681	291.32
793.862	248.32
794.042	252.41
794.223	262.65
794.404	264.7
794.584	231.93
794.765	350.71
794.945	332.28
795.126	246.27
795.306	317.95
795.487	311.8
795.667	217.6
795.848	248.32
796.028	289.28
796.209	281.08
796.389	322.04
796.57	231.93
796.75	252.41
796.93	250.36
797.111	274.94
797.291	240.12
797.471	334.33
797.652	268.8
797.832	264.7
798.012	322.04
798.192	260.6
798.373	205.31
798.553	203.26
798.733	248.32
798.913	258.56
799.093	297.47
799.274	283.13
799.454	229.88
799.634	293.37
799.814	231.93
799.994	274.94
800.174	236.03
800.354	299.52
800.534	201.21
800.714	236.03
800.894	195.07
801.074	229.88
801.254	238.08
801.434	299.52
801.614	207.36
801.794	254.46
801.974	614.9
802.154	174.59
802.334	217.6
802.514	199.16
802.693	188.93
802.873	152.06
803.053	215.55
803.233	195.07
803.413	172.54
803.592	190.97
803.772	107.01
803.952	195.07
804.131	231.93
804.311	184.83
804.491	311.8
804.67	158.21
804.85	186.88
805.03	221.69
805.209	199.16
805.389	141.82
805.568	203.26
805.748	139.77
805.928	107.01
806.107	160.25
806.287	172.54
806.466	162.3
806.646	188.93
806.825	203.26
807.004	186.88
807.184	213.5
807.363	170.49
807.543	143.87
807.722	221.69
807.901	152.06
808.081	211.45
808.26	219.64
808.439	283.13
808.619	264.7
808.798	127.49
808.977	147.97
809.156	270.84
809.336	170.49
809.515	203.26
809.694	162.3
809.873	160.25
810.052	131.58
810.231	203.26
810.411	180.73
810.59	129.53
810.769	96.77
810.948	162.3
811.127	147.97
811.306	168.45
811.485	141.82
811.664	168.45
811.843	123.39
812.022	182.78
812.201	111.1
812.38	117.25
812.559	211.45
812.737	205.31
812.916	115.2
813.095	88.57
813.274	123.39
813.453	121.34
813.632	127.49
813.811	215.55
813.989	152.06
814.168	88.57
814.347	154.11
814.526	174.59
814.704	217.6
814.883	268.8
815.062	104.96
815.24	107.01
815.419	145.92
815.598	170.49
815.776	84.48
815.955	154.11
816.133	115.2
816.312	121.34
816.49	131.58
816.669	186.88
816.847	174.59
817.026	158.21
817.204	86.53
817.383	160.25
817.561	98.81
817.74	143.87
817.918	94.72
818.097	139.77
818.275	82.43
818.453	168.45
818.632	80.38
818.81	137.73
818.988	117.25
819.167	113.15
819.345	55.81
819.523	143.87
819.701	139.77
819.879	102.91
820.058	59.9
820.236	117.25
820.414	96.77
820.592	94.72
820.77	104.96
820.948	86.53
821.127	80.38
821.305	131.58
821.483	102.91
821.661	113.15
821.839	49.66
822.017	80.38
822.195	64
822.373	113.15
822.551	143.87
822.729	129.53
822.907	117.25
823.085	125.44
823.262	139.77
823.44	111.1
823.618	135.68
823.796	123.39
823.974	188.93
824.152	86.53
824.329	57.86
824.507	158.21
824.685	102.91
824.863	76.29
825.04	88.57
825.218	90.62
825.396	100.86
825.574	111.1
825.751	100.86
825.929	147.97
826.107	121.34
826.284	49.66
826.462	76.29
826.639	72.19
826.817	113.15
826.994	76.29
827.172	25.09
827.349	61.95
827.527	74.24
827.704	100.86
827.882	137.73
828.059	90.62
828.237	14.85
828.414	129.53
828.591	31.23
828.769	135.68
828.946	23.04
829.124	61.95
829.301	117.25
829.478	174.59
829.655	14.85
829.833	117.25
830.01	131.58
830.187	76.29
830.364	92.67
830.542	88.57
830.719	96.77
830.896	127.49
831.073	88.57
831.25	92.67
831.427	59.9
831.604	80.38
831.782	49.66
831.959	86.53
832.136	98.81
832.313	84.48
832.49	68.09
832.667	55.81
832.844	53.76
833.021	141.82
833.198	25.09
833.374	41.47
833.551	78.33
833.728	4.61
833.905	70.14
834.082	43.52
834.259	64
834.436	35.33
834.612	27.14
834.789	160.25
834.966	43.52
835.143	76.29
835.319	4.61
835.496	78.33
835.673	90.62
835.85	104.96
836.026	135.68
836.203	94.72
836.38	78.33
836.556	-11.78
836.733	76.29
836.909	59.9
837.086	109.05
837.262	47.62
837.439	117.25
837.616	53.76
837.792	133.63
837.968	100.86
838.145	-1.54
838.321	49.66
838.498	53.76
838.674	72.19
838.851	88.57
839.027	59.9
839.203	20.99
839.38	4.61
839.556	35.33
839.732	104.96
839.909	66.05
840.085	66.05
840.261	23.04
840.437	88.57
840.614	43.52
840.79	29.18
840.966	64
841.142	74.24
841.318	-17.92
841.494	37.38
841.671	68.09
841.847	8.7
842.023	49.66
842.199	84.48
842.375	41.47
842.551	64
842.727	49.66
842.903	141.82
843.079	88.57
843.255	72.19
843.431	8.7
843.607	80.38
843.783	35.33
843.959	94.72
844.134	82.43
844.31	37.38
844.486	-5.63
844.662	-30.21
844.838	49.66
845.013	47.62
845.189	55.81
845.365	111.1
845.541	82.43
845.716	107.01
845.892	96.77
846.068	49.66
846.244	57.86
846.419	-3.58
846.595	33.28
846.77	51.71
846.946	113.15
847.122	55.81
847.297	104.96
847.473	61.95
847.648	35.33
847.824	70.14
847.999	31.23
848.175	64
848.35	18.94
848.526	90.62
848.701	25.09
848.876	41.47
849.052	98.81
849.227	45.57
849.403	35.33
849.578	57.86
849.753	27.14
849.929	12.8
850.104	74.24
850.279	53.76
850.454	-13.82
850.63	66.05
850.805	-34.3
850.98	127.49
851.155	-3.58
851.33	84.48
851.505	57.86
851.681	107.01
851.856	49.66
852.031	90.62
852.206	68.09
852.381	0.51
852.556	57.86
852.731	47.62
852.906	37.38
853.081	20.99
853.256	47.62
853.431	-46.59
853.606	80.38
853.781	14.85
853.956	51.71
854.131	-13.82
854.305	92.67
854.48	74.24
854.655	-1.54
854.83	45.57
855.005	51.71
855.18	37.38
855.354	94.72
855.529	-5.63
855.704	49.66
855.879	82.43
856.053	47.62
856.228	37.38
856.403	-38.4
856.577	70.14
856.752	51.71
856.926	121.34
857.101	27.14
857.276	94.72
857.45	33.28
857.625	90.62
857.799	20.99
857.974	70.14
858.148	18.94
858.323	29.18
858.497	47.62
858.672	-13.82
858.846	12.8
859.02	10.75
859.195	57.86
859.369	-52.74
859.543	20.99
859.718	8.7
859.892	43.52
860.066	39.42
860.241	4.61
860.415	23.04
860.589	23.04
860.763	45.57
860.938	2.56
861.112	35.33
861.286	20.99
861.46	123.39
861.634	70.14
861.808	45.57
861.982	2.56
862.157	37.38
862.331	61.95
862.505	64
862.679	-5.63
862.853	35.33
863.027	51.71
863.201	119.29
863.375	45.57
863.549	-19.97
863.722	10.75
863.896	84.48
864.07	37.38
864.244	-3.58
864.418	37.38
864.592	18.94
864.766	-24.06
864.939	39.42
865.113	70.14
865.287	-1.54
865.461	-26.11
865.634	6.66
865.808	0.51
865.982	-13.82
866.156	23.04
866.329	49.66
866.503	2.56
866.676	92.67
866.85	27.14
867.024	20.99
867.197	-3.58
867.371	107.01
867.544	70.14
867.718	43.52
867.891	0.51
868.065	-13.82
868.238	2.56
868.412	27.14
868.585	10.75
868.759	10.75
868.932	35.33
869.105	-54.78
869.279	23.04
869.452	66.05
869.625	59.9
869.799	61.95
869.972	-17.92
870.145	-36.35
870.319	80.38
870.492	-3.58
870.665	45.57
870.838	4.61
871.011	-44.54
871.185	10.75
871.358	14.85
871.531	20.99
871.704	-54.78
871.877	20.99
872.05	2.56
872.223	49.66
872.396	20.99
872.569	12.8
872.742	51.71
872.915	23.04
873.088	10.75
873.261	45.57
873.434	-1.54
873.607	-13.82
873.78	-26.11
873.953	14.85
874.126	12.8
874.299	27.14
874.471	35.33
874.644	78.33
874.817	-1.54
874.99	104.96
875.163	10.75
875.335	-15.87
875.508	39.42
875.681	59.9
875.853	2.56
876.026	12.8
876.199	16.9
876.371	-69.12
876.544	27.14
876.717	133.63
876.889	10.75
877.062	-28.16
877.234	-28.16
877.407	55.81
877.579	-13.82
877.752	90.62
877.924	2.56
878.097	25.09
878.269	61.95
878.442	16.9
878.614	59.9
878.786	84.48
878.959	41.47
879.131	55.81
879.303	12.8
879.476	68.09
879.648	16.9
879.82	53.76
879.993	-5.63
880.165	18.94
880.337	8.7
880.509	23.04
880.681	102.91
880.854	90.62
881.026	-52.74
881.198	39.42
881.37	8.7
881.542	-32.26
881.714	59.9
881.886	-44.54
882.058	29.18
882.23	2.56
882.402	-42.5
882.574	12.8
882.746	31.23
882.918	6.66
883.09	39.42
883.262	39.42
883.434	-26.11
883.606	6.66
883.778	0.51
883.95	86.53
884.122	14.85
884.293	59.9
884.465	10.75
884.637	10.75
884.809	4.61
884.98	23.04
885.152	57.86
885.324	31.23
885.496	16.9
885.667	-11.78
885.839	-34.3
886.011	74.24
886.182	18.94
886.354	10.75
886.525	27.14
886.697	51.71
886.869	-36.35
887.04	0.51
887.212	12.8
887.383	-11.78
887.555	-24.06
887.726	43.52
887.897	-46.59
888.069	20.99
888.24	-13.82
888.412	-32.26
888.583	-1.54
888.754	61.95
888.926	-19.97
889.097	-40.45
889.268	10.75
889.44	-5.63
889.611	39.42
889.782	-30.21
889.953	16.9
890.125	12.8
890.296	-9.73
890.467	-22.02
890.638	-34.3
890.809	51.71
890.98	-54.78
891.151	49.66
891.323	76.29
891.494	-19.97
891.665	51.71
891.836	74.24
892.007	35.33
892.178	8.7
892.349	-9.73
892.52	-22.02
892.691	16.9
892.862	-13.82
893.032	49.66
893.203	-40.45
893.374	80.38
893.545	-1.54
893.716	-17.92
893.887	-13.82
894.057	-15.87
894.228	-5.63
894.399	14.85
894.57	113.15
894.74	20.99
894.911	-36.35
895.082	51.71
895.253	14.85
895.423	-81.41
895.594	39.42
895.764	-17.92
895.935	74.24
896.106	129.53
896.276	57.86
896.447	23.04
896.617	31.23
896.788	2.56
896.958	59.9
897.129	14.85
897.299	10.75
897.47	39.42
897.64	6.66
897.81	39.42
897.981	47.62
898.151	-103.93
898.322	82.43
898.492	-13.82
898.662	-15.87
898.832	-13.82
899.003	-40.45
899.173	6.66
899.343	-1.54
899.513	-9.73
