Data from USB4F104151__97__11-07-00-100.txt Node

Date: Wed Mar 12 11:07:00 EDT 2025
User: louis
Spectrometer: USB4F10415
Trigger mode: 4
Integration Time (sec): 2.000000E-2
Scans to average: 1
Electric dark correction enabled: true
Nonlinearity correction enabled: false
Boxcar width: 0
XAxis mode: Wavelengths
Number of Pixels in Spectrum: 3648
>>>>>Begin Spectral Data<<<<<
178.204	-46.93
178.424	-46.93
178.644	-46.93
178.864	-61.27
179.084	-159.57
179.304	-79.7
179.524	53.42
179.744	-12.12
179.964	28.84
180.184	30.89
180.404	16.55
180.624	0.17
180.844	-12.12
181.064	-5.97
181.283	-26.45
181.503	-22.36
181.723	28.84
181.943	-32.6
182.163	47.27
182.383	22.7
182.602	-51.03
182.822	28.84
183.042	37.03
183.262	-26.45
183.482	43.18
183.701	-20.31
183.921	-3.93
184.141	51.37
184.361	41.13
184.58	28.84
184.8	61.61
185.02	30.89
185.239	45.23
185.459	53.42
185.679	51.37
185.898	-20.31
186.118	75.95
186.338	-77.65
186.557	127.14
186.777	-48.98
186.997	75.95
187.216	-3.93
187.436	26.79
187.655	41.13
187.875	-26.45
188.095	53.42
188.314	125.1
188.534	-57.17
188.753	53.42
188.973	-8.02
189.192	65.71
189.412	41.13
189.631	16.55
189.851	32.94
190.07	-40.79
190.29	-34.64
190.509	116.9
190.729	43.18
190.948	47.27
191.168	161.96
191.387	-8.02
191.607	12.46
191.826	18.6
192.045	20.65
192.265	65.71
192.484	28.84
192.704	30.89
192.923	32.94
193.142	37.03
193.362	80.04
193.581	47.27
193.8	-44.88
194.02	28.84
194.239	10.41
194.458	61.61
194.678	2.22
194.897	39.08
195.116	-57.17
195.335	26.79
195.555	-32.6
195.774	10.41
195.993	12.46
196.212	32.94
196.432	-63.32
196.651	45.23
196.87	18.6
197.089	82.09
197.308	4.27
197.528	-46.93
197.747	-14.17
197.966	12.46
198.185	2.22
198.404	14.51
198.623	67.75
198.842	-14.17
199.062	32.94
199.281	94.38
199.5	-8.02
199.719	84.14
199.938	-20.31
200.157	-46.93
200.376	-14.17
200.595	-10.07
200.814	24.75
201.033	71.85
201.252	32.94
201.471	14.51
201.69	-3.93
201.909	14.51
202.128	32.94
202.347	34.99
202.566	-5.97
202.785	-22.36
203.004	-18.26
203.223	14.51
203.442	37.03
203.661	26.79
203.879	6.31
204.098	24.75
204.317	4.27
204.536	10.41
204.755	-16.21
204.974	-1.88
205.193	6.31
205.411	34.99
205.63	43.18
205.849	77.99
206.068	-81.75
206.287	12.46
206.505	0.17
206.724	-16.21
206.943	-30.55
207.162	-3.93
207.381	18.6
207.599	-40.79
207.818	34.99
208.037	8.36
208.255	16.55
208.474	0.17
208.693	-26.45
208.911	41.13
209.13	22.7
209.349	8.36
209.567	34.99
209.786	24.75
210.005	20.65
210.223	43.18
210.442	-16.21
210.661	16.55
210.879	-12.12
211.098	-12.12
211.316	63.66
211.535	114.86
211.753	41.13
211.972	-73.56
212.191	-26.45
212.409	51.37
212.628	49.32
212.846	-53.08
213.065	59.56
213.283	28.84
213.502	-5.97
213.72	16.55
213.938	49.32
214.157	80.04
214.375	-16.21
214.594	16.55
214.812	-55.12
215.031	24.75
215.249	22.7
215.467	37.03
215.686	82.09
215.904	32.94
216.122	121
216.341	18.6
216.559	39.08
216.778	30.89
216.996	26.79
217.214	-3.93
217.432	-14.17
217.651	-18.26
217.869	-28.5
218.087	-24.4
218.306	16.55
218.524	16.55
218.742	-24.4
218.96	-18.26
219.179	-34.64
219.397	22.7
219.615	88.23
219.833	59.56
220.051	16.55
220.27	22.7
220.488	-18.26
220.706	18.6
220.924	-12.12
221.142	-20.31
221.36	28.84
221.578	49.32
221.796	57.51
222.015	102.57
222.233	37.03
222.451	-112.47
222.669	24.75
222.887	-44.88
223.105	-135
223.323	45.23
223.541	-1.88
223.759	73.9
223.977	-32.6
224.195	57.51
224.413	24.75
224.631	-12.12
224.849	26.79
225.067	86.19
225.285	24.75
225.503	43.18
225.721	-51.03
225.939	-32.6
226.157	32.94
226.375	106.67
226.592	51.37
226.81	-14.17
227.028	-8.02
227.246	77.99
227.464	-10.07
227.682	51.37
227.9	26.79
228.117	18.6
228.335	-42.84
228.553	20.65
228.771	30.89
228.989	69.8
229.206	69.8
229.424	-14.17
229.642	71.85
229.86	61.61
230.077	86.19
230.295	32.94
230.513	41.13
230.731	-5.97
230.948	-28.5
231.166	47.27
231.384	6.31
231.601	51.37
231.819	94.38
232.037	-10.07
232.254	10.41
232.472	12.46
232.689	-5.97
232.907	20.65
233.125	20.65
233.342	65.71
233.56	26.79
233.777	61.61
233.995	49.32
234.213	86.19
234.43	39.08
234.648	-3.93
234.865	2.22
235.083	47.27
235.3	63.66
235.518	14.51
235.735	-10.07
235.953	39.08
236.17	20.65
236.388	32.94
236.605	57.51
236.822	-12.12
237.04	55.47
237.257	-22.36
237.475	0.17
237.692	28.84
237.909	34.99
238.127	65.71
238.344	-91.99
238.562	32.94
238.779	-34.64
238.996	-36.69
239.214	22.7
239.431	-30.55
239.648	-24.4
239.865	-12.12
240.083	4.27
240.3	20.65
240.517	65.71
240.735	-51.03
240.952	106.67
241.169	24.75
241.386	-44.88
241.603	45.23
241.821	53.42
242.038	53.42
242.255	2.22
242.472	14.51
242.689	-20.31
242.907	37.03
243.124	47.27
243.341	26.79
243.558	8.36
243.775	14.51
243.992	-1.88
244.209	37.03
244.426	6.31
244.643	77.99
244.86	43.18
245.078	8.36
245.295	-12.12
245.512	-28.5
245.729	-5.97
245.946	12.46
246.163	20.65
246.38	28.84
246.597	20.65
246.814	0.17
247.031	-34.64
247.248	88.23
247.464	43.18
247.681	59.56
247.898	-22.36
248.115	-1.88
248.332	-20.31
248.549	-32.6
248.766	30.89
248.983	12.46
249.2	133.29
249.417	67.75
249.633	10.41
249.85	63.66
250.067	69.8
250.284	77.99
250.501	18.6
250.717	-24.4
250.934	-48.98
251.151	16.55
251.368	-40.79
251.585	34.99
251.801	57.51
252.018	-28.5
252.235	0.17
252.451	-28.5
252.668	32.94
252.885	65.71
253.102	-34.64
253.318	49.32
253.535	102.57
253.752	39.08
253.968	16.55
254.185	-5.97
254.401	10.41
254.618	55.47
254.835	10.41
255.051	51.37
255.268	20.65
255.484	53.42
255.701	-3.93
255.917	32.94
256.134	-65.36
256.351	-32.6
256.567	-42.84
256.784	-28.5
257	12.46
257.217	61.61
257.433	98.47
257.65	12.46
257.866	14.51
258.082	16.55
258.299	24.75
258.515	65.71
258.732	-16.21
258.948	45.23
259.165	0.17
259.381	-51.03
259.597	-1.88
259.814	-40.79
260.03	49.32
260.246	6.31
260.463	24.75
260.679	92.33
260.895	80.04
261.112	65.71
261.328	-16.21
261.544	-10.07
261.761	-32.6
261.977	63.66
262.193	-18.26
262.409	75.95
262.626	12.46
262.842	82.09
263.058	8.36
263.274	-22.36
263.49	-24.4
263.707	43.18
263.923	18.6
264.139	-14.17
264.355	34.99
264.571	16.55
264.787	4.27
265.004	57.51
265.22	34.99
265.436	-10.07
265.652	-8.02
265.868	20.65
266.084	32.94
266.3	-28.5
266.516	12.46
266.732	-59.22
266.948	88.23
267.164	-36.69
267.38	-46.93
267.596	-3.93
267.812	67.75
268.028	22.7
268.244	-8.02
268.46	59.56
268.676	53.42
268.892	-24.4
269.108	-38.74
269.324	43.18
269.54	-20.31
269.756	32.94
269.972	10.41
270.188	53.42
270.403	-32.6
270.619	37.03
270.835	-48.98
271.051	69.8
271.267	-69.46
271.483	94.38
271.698	86.19
271.914	69.8
272.13	32.94
272.346	47.27
272.562	8.36
272.777	24.75
272.993	2.22
273.209	18.6
273.425	106.67
273.64	-18.26
273.856	51.37
274.072	28.84
274.287	10.41
274.503	16.55
274.719	104.62
274.934	-5.97
275.15	-28.5
275.366	16.55
275.581	65.71
275.797	2.22
276.012	16.55
276.228	14.51
276.444	-5.97
276.659	45.23
276.875	-16.21
277.09	41.13
277.306	8.36
277.521	98.47
277.737	-55.12
277.952	34.99
278.168	12.46
278.383	8.36
278.599	-8.02
278.814	32.94
279.03	49.32
279.245	-8.02
279.461	-22.36
279.676	102.57
279.892	-1.88
280.107	39.08
280.322	-61.27
280.538	-22.36
280.753	8.36
280.969	96.43
281.184	47.27
281.399	24.75
281.615	102.57
281.83	4.27
282.045	-10.07
282.26	4.27
282.476	-30.55
282.691	75.95
282.906	-12.12
283.122	32.94
283.337	-1.88
283.552	96.43
283.767	-1.88
283.983	100.52
284.198	14.51
284.413	4.27
284.628	8.36
284.843	69.8
285.058	16.55
285.274	45.23
285.489	-1.88
285.704	61.61
285.919	65.71
286.134	32.94
286.349	28.84
286.564	98.47
286.779	57.51
286.995	10.41
287.21	41.13
287.425	16.55
287.64	41.13
287.855	47.27
288.07	53.42
288.285	-14.17
288.5	69.8
288.715	51.37
288.93	51.37
289.145	2.22
289.36	39.08
289.575	-5.97
289.79	-36.69
290.004	-30.55
290.219	125.1
290.434	6.31
290.649	41.13
290.864	-53.08
291.079	24.75
291.294	51.37
291.509	-5.97
291.724	94.38
291.938	0.17
292.153	20.65
292.368	-32.6
292.583	-1.88
292.798	12.46
293.012	-65.36
293.227	32.94
293.442	-8.02
293.657	69.8
293.871	65.71
294.086	-12.12
294.301	92.33
294.516	51.37
294.73	10.41
294.945	18.6
295.16	-3.93
295.374	129.19
295.589	30.89
295.804	-8.02
296.018	32.94
296.233	67.75
296.447	51.37
296.662	20.65
296.877	37.03
297.091	20.65
297.306	14.51
297.52	34.99
297.735	2.22
297.949	28.84
298.164	8.36
298.378	39.08
298.593	20.65
298.807	-28.5
299.022	16.55
299.236	37.03
299.451	20.65
299.665	-48.98
299.88	-18.26
300.094	67.75
300.309	14.51
300.523	43.18
300.737	12.46
300.952	-28.5
301.166	47.27
301.381	-73.56
301.595	8.36
301.809	20.65
302.024	43.18
302.238	-1.88
302.452	26.79
302.667	-1.88
302.881	28.84
303.095	-12.12
303.309	-12.12
303.524	-42.84
303.738	-14.17
303.952	-10.07
304.166	32.94
304.381	-32.6
304.595	80.04
304.809	14.51
305.023	-55.12
305.237	-12.12
305.452	63.66
305.666	45.23
305.88	37.03
306.094	0.17
306.308	32.94
306.522	34.99
306.736	75.95
306.95	-18.26
307.164	82.09
307.379	30.89
307.593	61.61
307.807	69.8
308.021	59.56
308.235	-53.08
308.449	43.18
308.663	8.36
308.877	69.8
309.091	8.36
309.305	34.99
309.519	45.23
309.733	4.27
309.947	-14.17
310.161	49.32
310.374	8.36
310.588	61.61
310.802	41.13
311.016	-5.97
311.23	-14.17
311.444	59.56
311.658	0.17
311.872	39.08
312.085	67.75
312.299	135.34
312.513	51.37
312.727	28.84
312.941	28.84
313.154	80.04
313.368	16.55
313.582	10.41
313.796	55.47
314.009	94.38
314.223	41.13
314.437	49.32
314.651	-5.97
314.864	51.37
315.078	-18.26
315.292	65.71
315.505	-65.36
315.719	55.47
315.933	-8.02
316.146	28.84
316.36	-14.17
316.573	53.42
316.787	49.32
317.001	-20.31
317.214	-14.17
317.428	-30.55
317.641	22.7
317.855	110.76
318.068	37.03
318.282	49.32
318.495	14.51
318.709	96.43
318.922	26.79
319.136	63.66
319.349	43.18
319.563	24.75
319.776	30.89
319.99	-12.12
320.203	26.79
320.417	45.23
320.63	32.94
320.843	37.03
321.057	69.8
321.27	6.31
321.483	0.17
321.697	32.94
321.91	69.8
322.124	-1.88
322.337	2.22
322.55	28.84
322.763	69.8
322.977	20.65
323.19	69.8
323.403	88.23
323.617	53.42
323.83	63.66
324.043	-14.17
324.256	32.94
324.469	88.23
324.683	32.94
324.896	32.94
325.109	34.99
325.322	-5.97
325.535	-40.79
325.748	-3.93
325.962	28.84
326.175	16.55
326.388	67.75
326.601	18.6
326.814	16.55
327.027	84.14
327.24	45.23
327.453	0.17
327.666	61.61
327.879	57.51
328.092	57.51
328.305	20.65
328.518	-32.6
328.731	20.65
328.944	37.03
329.157	49.32
329.37	-34.64
329.583	12.46
329.796	100.52
330.009	-65.36
330.222	-5.97
330.435	34.99
330.648	73.9
330.861	30.89
331.073	82.09
331.286	28.84
331.499	18.6
331.712	16.55
331.925	110.76
332.138	39.08
332.35	30.89
332.563	-59.22
332.776	28.84
332.989	-26.45
333.202	-8.02
333.414	24.75
333.627	51.37
333.84	24.75
334.053	2.22
334.265	43.18
334.478	-20.31
334.691	32.94
334.903	47.27
335.116	4.27
335.329	55.47
335.541	-22.36
335.754	30.89
335.966	-32.6
336.179	32.94
336.392	-38.74
336.604	-42.84
336.817	41.13
337.029	73.9
337.242	57.51
337.454	4.27
337.667	32.94
337.88	94.38
338.092	41.13
338.305	-3.93
338.517	-53.08
338.729	34.99
338.942	4.27
339.154	30.89
339.367	12.46
339.579	-3.93
339.792	20.65
340.004	51.37
340.217	39.08
340.429	14.51
340.641	24.75
340.854	47.27
341.066	53.42
341.278	43.18
341.491	30.89
341.703	26.79
341.915	45.23
342.128	14.51
342.34	-42.84
342.552	71.85
342.764	-61.27
342.977	114.86
343.189	32.94
343.401	-8.02
343.613	61.61
343.826	4.27
344.038	-32.6
344.25	20.65
344.462	-34.64
344.674	71.85
344.886	22.7
345.099	137.38
345.311	59.56
345.523	8.36
345.735	47.27
345.947	65.71
346.159	-26.45
346.371	10.41
346.583	51.37
346.795	100.52
347.007	65.71
347.219	92.33
347.431	-18.26
347.643	45.23
347.855	26.79
348.067	96.43
348.279	96.43
348.491	34.99
348.703	82.09
348.915	34.99
349.127	49.32
349.339	65.71
349.551	-1.88
349.763	20.65
349.975	86.19
350.187	92.33
350.399	8.36
350.61	57.51
350.822	41.13
351.034	30.89
351.246	-32.6
351.458	18.6
351.669	8.36
351.881	102.57
352.093	51.37
352.305	47.27
352.517	10.41
352.728	34.99
352.94	65.71
353.152	45.23
353.363	47.27
353.575	-1.88
353.787	6.31
353.999	77.99
354.21	73.9
354.422	49.32
354.633	8.36
354.845	86.19
355.057	-48.98
355.268	26.79
355.48	22.7
355.692	-10.07
355.903	30.89
356.115	26.79
356.326	-20.31
356.538	8.36
356.749	75.95
356.961	82.09
357.172	6.31
357.384	73.9
357.595	63.66
357.807	-22.36
358.018	12.46
358.23	-22.36
358.441	84.14
358.653	-40.79
358.864	16.55
359.075	0.17
359.287	34.99
359.498	51.37
359.709	4.27
359.921	18.6
360.132	6.31
360.344	34.99
360.555	16.55
360.766	47.27
360.977	-20.31
361.189	55.47
361.4	-22.36
361.611	75.95
361.823	63.66
362.034	47.27
362.245	-67.41
362.456	24.75
362.667	123.05
362.879	8.36
363.09	73.9
363.301	8.36
363.512	-8.02
363.723	6.31
363.935	-24.4
364.146	80.04
364.357	133.29
364.568	108.71
364.779	-48.98
364.99	24.75
365.201	69.8
365.412	-20.31
365.623	-8.02
365.834	47.27
366.045	37.03
366.256	94.38
366.467	41.13
366.678	2.22
366.889	30.89
367.1	6.31
367.311	63.66
367.522	10.41
367.733	67.75
367.944	77.99
368.155	94.38
368.366	26.79
368.577	69.8
368.788	96.43
368.999	0.17
369.209	112.81
369.42	75.95
369.631	135.34
369.842	30.89
370.053	-12.12
370.264	94.38
370.474	37.03
370.685	8.36
370.896	69.8
371.107	84.14
371.317	45.23
371.528	51.37
371.739	18.6
371.95	30.89
372.16	49.32
372.371	0.17
372.582	2.22
372.792	71.85
373.003	143.53
373.214	69.8
373.424	-5.97
373.635	41.13
373.846	43.18
374.056	53.42
374.267	75.95
374.477	92.33
374.688	-12.12
374.898	20.65
375.109	30.89
375.319	4.27
375.53	4.27
375.74	-1.88
375.951	65.71
376.161	6.31
376.372	63.66
376.582	-14.17
376.793	14.51
377.003	75.95
377.214	55.47
377.424	57.51
377.635	61.61
377.845	65.71
378.055	86.19
378.266	24.75
378.476	22.7
378.686	8.36
378.897	0.17
379.107	-8.02
379.317	2.22
379.528	37.03
379.738	53.42
379.948	77.99
380.158	55.47
380.369	63.66
380.579	22.7
380.789	-1.88
380.999	16.55
381.21	55.47
381.42	104.62
381.63	-24.4
381.84	106.67
382.05	22.7
382.261	84.14
382.471	65.71
382.681	-36.69
382.891	116.9
383.101	84.14
383.311	20.65
383.521	-10.07
383.731	77.99
383.941	123.05
384.151	53.42
384.361	12.46
384.571	-14.17
384.781	10.41
384.991	69.8
385.201	49.32
385.411	32.94
385.621	73.9
385.831	90.28
386.041	41.13
386.251	34.99
386.461	45.23
386.671	49.32
386.881	20.65
387.091	28.84
387.301	59.56
387.511	90.28
387.72	4.27
387.93	59.56
388.14	47.27
388.35	121
388.56	73.9
388.769	65.71
388.979	-10.07
389.189	59.56
389.399	90.28
389.609	59.56
389.818	102.57
390.028	-10.07
390.238	125.1
390.447	8.36
390.657	75.95
390.867	65.71
391.076	8.36
391.286	102.57
391.496	47.27
391.705	106.67
391.915	65.71
392.125	59.56
392.334	104.62
392.544	0.17
392.753	37.03
392.963	-14.17
393.172	131.24
393.382	57.51
393.591	80.04
393.801	67.75
394.01	49.32
394.22	102.57
394.429	-18.26
394.639	34.99
394.848	92.33
395.058	34.99
395.267	49.32
395.477	112.81
395.686	75.95
395.895	121
396.105	80.04
396.314	41.13
396.524	123.05
396.733	6.31
396.942	116.9
397.152	69.8
397.361	41.13
397.57	69.8
397.78	102.57
397.989	98.47
398.198	211.11
398.407	22.7
398.617	100.52
398.826	71.85
399.035	96.43
399.244	61.61
399.453	172.2
399.663	88.23
399.872	116.9
400.081	121
400.29	155.82
400.499	32.94
400.708	135.34
400.917	127.14
401.127	108.71
401.336	166.06
401.545	53.42
401.754	125.1
401.963	114.86
402.172	118.95
402.381	63.66
402.59	135.34
402.799	98.47
403.008	141.48
403.217	155.82
403.426	200.87
403.635	98.47
403.844	102.57
404.053	153.77
404.262	73.9
404.471	100.52
404.68	164.01
404.888	80.04
405.097	147.62
405.306	139.43
405.515	96.43
405.724	153.77
405.933	202.92
406.142	182.44
406.35	155.82
406.559	184.49
406.768	157.86
406.977	194.73
407.185	161.96
407.394	161.96
407.603	186.54
407.812	262.31
408.02	239.78
408.229	274.6
408.438	204.97
408.646	217.26
408.855	196.78
409.064	202.92
409.272	241.83
409.481	321.7
409.69	284.84
409.898	209.06
410.107	262.31
410.315	299.17
410.524	333.99
410.733	268.45
410.941	260.26
411.15	297.13
411.358	336.04
411.567	391.33
411.775	364.71
411.984	362.66
412.192	399.52
412.401	362.66
412.609	417.96
412.818	467.11
413.026	422.05
413.234	440.48
413.443	393.38
413.651	579.75
413.86	448.68
414.068	589.99
414.276	553.12
414.485	628.9
414.693	610.47
414.901	665.76
415.11	686.24
415.318	600.23
415.526	702.62
415.734	729.25
415.943	831.65
416.151	721.06
416.359	704.67
416.567	798.88
416.776	819.36
416.984	858.27
417.192	923.8
417.4	946.33
417.608	960.67
417.817	1073.31
418.025	1001.63
418.233	1032.35
418.441	1120.41
418.649	1142.94
418.857	1235.1
419.065	1204.38
419.273	1255.58
419.481	1265.82
419.689	1423.51
419.897	1411.22
420.105	1384.6
420.313	1544.34
420.521	1507.48
420.729	1548.44
420.937	1622.16
421.145	1765.52
421.353	1806.48
421.561	1798.29
421.769	1880.21
421.977	1876.11
422.185	1958.03
422.393	2138.25
422.601	2173.07
422.809	2160.78
423.017	2136.2
423.224	2234.5
423.432	2513.03
423.64	2396.29
423.848	2498.69
424.056	2500.74
424.263	2562.18
424.471	2713.73
424.679	2830.46
424.887	2973.82
425.094	2961.53
425.302	3127.42
425.51	3158.14
425.718	3225.72
425.925	3297.4
426.133	3448.95
426.341	3563.64
426.548	3657.84
426.756	3760.24
426.964	3780.72
427.171	3922.03
427.379	4010.09
427.586	4192.36
427.794	4157.55
428.001	4616.29
428.209	4683.88
428.417	4446.31
428.624	4995.17
428.832	5044.32
429.039	4892.77
429.247	4962.4
429.454	5427.29
429.662	5804.11
429.869	5476.44
430.076	5509.21
430.284	5523.54
430.491	5791.83
430.699	6029.39
430.906	6252.62
431.114	6164.56
431.321	6508.62
431.528	6719.56
431.736	7080
431.943	7374.91
432.15	7231.55
432.358	7362.62
432.565	7602.23
432.772	7557.18
432.979	7923.76
433.187	8212.53
433.394	8149.04
433.601	8751.14
433.808	8667.17
434.016	8507.43
434.223	9068.58
434.43	9519.13
434.637	9201.69
434.844	10121.23
435.052	10295.31
435.259	10164.24
435.466	10151.95
435.673	10242.06
435.88	10936.32
436.087	11292.67
436.294	11350.01
436.501	11194.37
436.708	11227.14
436.915	11687.93
437.122	12251.12
437.329	12249.07
437.537	12439.53
437.743	12787.69
437.95	12533.74
438.157	13305.82
438.364	13653.98
438.571	13715.42
438.778	13807.58
438.985	15136.71
439.192	14659.53
439.399	15142.85
439.606	14714.83
439.813	15536.06
440.02	16658.35
440.227	16160.69
440.433	16089.01
440.64	16582.57
440.847	16363.44
441.054	17055.65
441.261	18110.36
441.467	17764.25
441.674	18204.56
441.881	18818.96
442.088	18831.24
442.294	18272.15
442.501	18870.15
442.708	19130.25
442.914	20246.39
443.121	21200.74
443.328	20297.59
443.534	21995.36
443.741	21102.44
443.948	20963.18
444.154	22603.6
444.361	22710.1
444.568	22421.33
444.774	22456.15
444.981	22714.19
445.187	23615.3
445.394	24315.7
445.6	24268.6
445.807	26713.88
446.013	25478.95
446.22	25947.93
446.426	26816.27
446.633	26910.48
446.839	28061.44
447.046	26949.39
447.252	28372.73
447.459	28303.1
447.665	28196.6
447.871	29667.05
448.078	30828.24
448.284	29099.76
448.491	29896.42
448.697	31092.43
448.903	31770.31
449.11	31641.29
449.316	31217.36
449.522	31979.2
449.728	32589.5
449.935	33023.67
450.141	32943.8
450.347	33490.6
450.553	32870.07
450.76	32870.07
450.966	34268.83
451.172	33642.15
451.378	34039.46
451.584	33586.86
451.791	34358.94
451.997	34311.84
452.203	35014.29
452.409	34877.08
452.615	34635.42
452.821	32941.75
453.027	33205.94
453.233	34641.56
453.44	33521.32
453.646	33474.22
453.852	34031.27
454.058	34490.01
454.264	33289.9
454.47	33920.68
454.676	33179.31
454.882	34313.89
455.088	31358.67
455.294	31913.67
455.5	32341.69
455.705	32816.82
455.911	31518.41
456.117	30531.29
456.323	30453.47
456.529	28653.3
456.735	30105.31
456.941	29286.12
457.147	28772.08
457.352	27879.17
457.558	27160.33
457.764	27600.65
457.97	27000.59
458.176	26408.73
458.381	26328.86
458.587	25083.69
458.793	25349.93
458.999	23936.83
459.204	25538.34
459.41	24885.04
459.616	23140.17
459.821	23002.96
460.027	23080.78
460.233	22597.46
460.438	21454.69
460.644	21856.09
460.85	20811.63
461.055	20301.68
461.261	20273.01
461.466	19081.1
461.672	18401.17
461.878	19890.04
462.083	18653.07
462.289	18139.03
462.494	17952.66
462.7	17323.94
462.905	16568.24
463.111	17295.27
463.316	17235.88
463.522	16779.18
463.727	16965.54
463.932	16963.5
464.138	16535.47
464.343	16904.1
464.549	16367.54
464.754	16695.21
464.959	16580.53
465.165	16435.12
465.37	15716.28
465.575	15441.86
465.781	16271.28
465.986	16117.68
466.191	15478.72
466.397	15355.84
466.602	14516.17
466.807	15144.9
467.012	15126.47
467.218	15136.71
467.423	14960.58
467.628	15067.08
467.833	15341.5
468.038	15116.23
468.244	14569.42
468.449	15185.86
468.654	14770.12
468.859	14673.87
469.064	14430.16
469.269	13737.95
469.474	14018.52
469.679	14176.21
469.885	13936.6
470.09	14004.18
470.295	13942.74
470.5	13651.93
470.705	13658.07
470.91	13590.49
471.115	13316.06
471.32	13293.54
471.525	13428.7
471.73	12847.08
471.935	12906.47
472.139	12660.71
472.344	12736.49
472.549	12560.36
472.754	12500.97
472.959	12134.39
473.164	12021.75
473.369	11882.49
473.574	12031.99
473.778	12384.24
473.983	11829.24
474.188	11939.83
474.393	11485.18
474.598	11493.37
474.802	11356.16
475.007	11360.25
475.212	11325.44
475.417	11061.25
475.621	10977.28
475.826	10733.57
476.031	10764.29
476.235	10418.19
476.44	10643.46
476.645	10391.56
476.849	10543.11
477.054	10305.55
477.259	10268.69
477.463	10141.71
477.668	10061.84
477.872	10192.91
478.077	9916.44
478.282	9664.54
478.486	9736.21
478.691	9650.2
478.895	9484.31
479.1	9439.26
479.304	9627.67
479.509	9228.32
479.713	9474.07
479.918	9115.68
480.122	9177.12
480.326	9189.41
480.531	9232.41
480.735	8929.31
480.94	9101.34
481.144	9261.09
481.348	8763.43
481.553	8747.05
481.757	8783.91
481.961	8972.32
482.166	8859.68
482.37	8790.05
482.574	8726.57
482.778	8896.55
482.983	8955.94
483.187	8896.55
483.391	8917.03
483.595	8554.54
483.8	8749.09
484.004	8785.96
484.208	8775.72
484.412	8710.18
484.616	8697.89
484.821	8968.23
485.025	8624.17
485.229	8826.92
485.433	8714.28
485.637	8910.88
485.841	8671.27
486.045	8759.33
486.249	8806.44
486.453	8517.67
486.657	8890.4
486.861	8890.4
487.065	8474.67
487.269	8749.09
487.473	8654.89
487.677	9025.57
487.881	8933.41
488.085	8798.24
488.289	9044
488.493	8796.2
488.697	8929.31
488.901	9091.1
489.105	8865.83
489.309	8798.24
489.512	9005.09
489.716	8869.92
489.92	8738.85
490.124	8546.34
490.328	9218.08
490.531	8998.95
490.735	9025.57
490.939	9017.38
491.143	8939.55
491.346	8937.51
491.55	9134.11
491.754	9334.81
491.958	9367.58
492.161	9125.92
492.365	9304.09
492.569	9459.74
492.772	9232.41
492.976	9461.79
493.18	9377.82
493.383	9404.44
493.587	9488.41
493.79	9533.47
493.994	9515.03
494.197	9629.72
494.401	9879.57
494.605	9805.85
494.808	9957.39
495.012	9959.44
495.215	10297.36
495.419	10162.19
495.622	9705.49
495.825	10100.75
496.029	10407.95
496.232	10579.98
496.436	10440.72
496.639	10637.32
496.843	10700.81
497.046	10711.05
497.249	10854.41
497.453	10913.8
497.656	11335.68
497.859	11411.45
498.063	11323.39
498.266	11679.74
498.469	11597.82
498.673	11583.48
498.876	11827.19
499.079	11737.08
499.282	11876.34
499.485	12187.63
499.689	12425.2
499.892	12201.97
500.095	12490.73
500.298	12826.6
500.501	12384.24
500.705	12951.53
500.908	13166.56
501.111	13164.51
501.314	13467.61
501.517	13641.69
501.72	13488.09
501.923	13574.11
502.126	13983.7
502.329	14227.41
502.532	14454.73
502.735	14354.38
502.938	14806.98
503.141	14632.91
503.344	14942.15
503.547	14845.9
503.75	15241.15
503.953	15318.98
504.156	15443.9
504.359	15685.56
504.562	15820.73
504.765	16213.94
504.968	16046.01
505.17	16445.36
505.373	16474.03
505.576	16654.25
505.779	16650.16
505.982	17135.53
506.185	17131.43
506.387	17162.15
506.59	17368.99
506.793	18089.88
506.996	17702.81
507.198	18257.81
507.401	18345.87
507.604	18446.23
507.807	18646.93
508.009	19033.99
508.212	19310.47
508.415	19105.67
508.617	19758.97
508.82	19564.42
509.022	19662.72
509.225	20006.78
509.428	20105.08
509.63	20324.21
509.833	20279.16
510.035	21020.52
510.238	20844.4
510.44	21440.36
510.643	21358.44
510.845	21606.24
511.048	21456.74
511.25	21935.96
511.453	22036.31
511.655	23082.83
511.858	22769.49
512.06	22810.45
512.262	23091.02
512.465	23267.14
512.667	23576.39
512.87	23643.97
513.072	23777.09
513.274	24473.4
513.477	24332.09
513.679	24962.86
513.881	25114.41
514.084	25532.2
514.286	25452.33
514.488	25472.81
514.69	26050.33
514.893	26214.17
515.095	26224.41
515.297	26785.55
515.499	26986.25
515.701	26933.01
515.904	27483.91
516.106	27463.43
516.308	27541.25
516.51	28290.81
516.712	28194.56
516.914	28661.49
517.116	29056.75
517.318	29243.12
517.52	29574.89
517.722	29484.78
517.925	29783.78
518.127	30181.09
518.329	30316.25
518.531	30220
518.733	30891.73
518.935	30914.26
519.136	31403.72
519.338	31891.14
519.54	31874.76
519.742	32317.12
519.944	32476.86
520.146	32806.58
520.348	33013.43
520.55	32816.82
520.752	33484.46
520.954	33785.51
521.155	33758.89
521.357	34070.18
521.559	34334.37
521.761	35167.89
521.963	34944.66
522.164	35102.36
522.366	35591.82
522.568	35249.81
522.77	35751.56
522.971	36349.57
523.173	36292.22
523.375	36421.25
523.576	36494.97
523.778	36773.5
523.98	37308.02
524.181	37211.76
524.383	37283.44
524.584	37660.27
524.786	37828.2
524.988	37693.04
525.189	38223.46
525.391	38671.96
525.592	38467.17
525.794	39044.69
525.995	39011.93
526.197	39013.98
526.398	38970.97
526.6	39626.32
526.801	39747.15
527.003	39548.5
527.204	39892.55
527.406	40222.28
527.607	40289.86
527.808	40662.59
528.01	39888.46
528.211	40492.61
528.412	41125.43
528.614	40881.72
528.815	41170.49
529.016	41291.32
529.218	41025.08
529.419	41358.9
529.62	41215.54
529.822	41258.55
530.023	41541.17
530.224	41895.47
530.425	41184.82
530.626	41354.8
530.828	41516.59
531.029	42415.65
531.23	41954.86
531.431	41760.3
531.632	41928.23
531.833	42094.12
532.035	42298.92
532.236	42208.81
532.437	42497.57
532.638	42268.2
532.839	42317.35
533.04	42425.89
533.241	42343.97
533.442	43152.92
533.643	42657.31
533.844	42450.47
534.045	42677.79
534.246	42593.82
534.447	42763.81
534.648	42804.77
534.849	42853.92
535.05	42429.99
535.251	42466.85
535.451	42376.74
535.652	42518.05
535.853	42503.71
536.054	43132.44
536.255	42921.5
536.456	42331.68
536.657	43302.42
536.857	42456.61
537.058	42845.72
537.259	43304.47
537.46	42958.36
537.66	42679.84
537.861	42878.49
538.062	43064.86
538.263	43191.83
538.463	42685.98
538.664	42862.11
538.865	43091.48
539.065	43032.09
539.266	42380.84
539.466	42911.26
539.667	42733.09
539.868	43363.86
540.068	42772
540.269	42614.3
540.469	43030.04
540.67	42929.69
540.87	43066.91
541.071	42620.45
541.271	43140.63
541.472	42505.76
541.672	42591.78
541.873	42886.68
542.073	42526.24
542.274	43142.68
542.474	42604.06
542.675	42624.54
542.875	42974.75
543.075	42632.74
543.276	42561.06
543.476	43191.83
543.676	42311.21
543.877	42647.07
544.077	42763.81
544.277	42270.25
544.478	42735.13
544.678	42931.74
544.878	42550.82
545.078	42685.98
545.279	42663.46
545.479	42583.58
545.679	43085.34
545.879	42550.82
546.079	42419.75
546.28	42468.9
546.48	42223.14
546.68	42823.2
546.88	42579.49
547.08	42556.96
547.28	42694.18
547.48	42436.13
547.68	42769.95
547.88	42241.57
548.081	42829.34
548.281	42079.78
548.481	42051.11
548.681	42960.41
548.881	42251.81
549.081	42341.92
549.28	42016.3
549.48	42833.44
549.68	42296.87
549.88	42997.27
550.08	42395.17
550.28	42317.35
550.48	42214.95
550.68	42466.85
550.88	42012.2
551.08	42235.43
551.279	42401.32
551.479	42067.5
551.679	42300.97
551.879	42286.63
552.079	42468.9
552.278	41969.19
552.478	42223.14
552.678	42106.41
552.878	42677.79
553.077	41709.1
553.277	41954.86
553.477	42511.91
553.676	42128.94
553.876	41915.95
554.076	42153.51
554.275	41848.36
554.475	41518.64
554.674	42042.92
554.874	41754.16
555.074	41866.8
555.273	42016.3
555.473	41903.66
555.672	41715.25
555.872	41823.79
556.071	42008.11
556.271	41766.45
556.47	41717.29
556.67	41535.02
556.869	41164.34
557.068	41801.26
557.268	41465.39
557.467	40998.46
557.667	41330.23
557.866	41535.02
558.065	41231.93
558.265	41145.91
558.464	41107
558.663	41381.43
558.863	40728.13
559.062	41580.08
559.261	40728.13
559.461	41379.38
559.66	40724.03
559.859	40617.53
560.058	40445.51
560.258	40975.93
560.457	39966.28
560.656	40875.58
560.855	40523.33
561.054	40570.43
561.253	40332.87
561.453	40336.96
561.652	40531.52
561.851	40504.9
562.05	40379.97
562.249	40103.49
562.448	40003.14
562.647	40244.8
562.846	39880.27
563.045	39667.28
563.244	39478.86
563.443	39876.17
563.642	39065.17
563.841	39597.65
564.04	39040.6
564.239	39654.99
564.438	38921.82
564.637	39517.78
564.836	39077.46
565.035	38477.41
565.234	39083.61
565.432	38573.66
565.631	38633.05
565.83	38786.65
566.029	38565.47
566.228	38800.99
566.427	38884.95
566.625	38260.32
566.824	37875.3
567.023	38356.58
567.222	37951.08
567.42	38278.75
567.619	37895.78
567.818	37946.98
568.016	37733.99
568.215	38157.92
568.414	37428.85
568.612	37834.35
568.811	37686.89
569.01	37516.91
569.208	37234.29
569.407	37762.67
569.605	37103.22
569.804	37545.58
570.002	37297.78
570.201	37314.16
570.4	36707.96
570.598	36695.67
570.797	36171.39
570.995	36652.67
571.193	35923.59
571.392	36566.65
571.59	36112
571.789	36177.54
571.987	36013.7
572.186	35894.92
572.384	35939.97
572.582	35962.5
572.781	35712.65
572.979	35294.86
573.177	35769.99
573.376	35931.78
573.574	35456.65
573.772	35557
573.971	35450.51
574.169	34995.86
574.367	35061.4
574.565	35327.63
574.763	34961.05
574.962	34881.17
575.16	34420.38
575.358	34793.11
575.556	34453.15
575.754	34750.1
575.952	34510.49
576.151	34401.95
576.349	33982.12
576.547	34164.39
576.745	34133.67
576.943	34082.47
577.141	33971.88
577.339	34203.3
577.537	33908.39
577.735	33775.27
577.933	33453.74
578.131	33756.84
578.329	33396.4
578.527	33105.59
578.725	33195.7
578.923	33597.1
579.121	33259.18
579.319	33087.15
579.516	33099.44
579.714	32929.46
579.912	32923.32
580.11	32839.35
580.308	32614.07
580.506	32630.46
580.704	32116.42
580.901	32382.65
581.099	32554.68
581.297	32124.61
581.495	31915.72
581.692	32054.98
581.89	31606.47
582.088	31999.68
582.285	31870.66
582.483	32081.6
582.681	31921.86
582.878	31559.37
583.076	31260.37
583.274	31950.53
583.471	31258.32
583.669	31227.6
583.866	30975.7
584.064	30910.16
584.262	30693.08
584.459	31286.99
584.657	30764.76
584.854	31094.48
585.052	30441.18
585.249	30932.69
585.447	30887.64
585.644	30389.98
585.841	30263
586.039	30664.41
586.236	29902.56
586.434	29900.51
586.631	30050.02
586.828	30000.86
587.026	30334.68
587.223	30299.87
587.42	29718.25
587.618	29785.83
587.815	29165.29
588.012	29447.91
588.21	29443.82
588.407	30101.22
588.604	29077.23
588.801	29189.87
588.999	28991.22
589.196	29200.11
589.393	29013.74
589.59	28704.5
589.787	28712.69
589.984	28847.86
590.182	28473.08
590.379	28661.49
590.576	28577.53
590.773	28667.64
590.97	28188.41
591.167	28446.46
591.364	27774.72
591.561	28354.3
591.758	27977.47
591.955	27819.78
592.152	27889.41
592.349	27725.57
592.546	27881.22
592.743	27668.23
592.94	27242.25
593.137	27731.72
593.334	27827.97
593.531	26795.79
593.727	27358.99
593.924	27092.75
594.121	26711.83
594.318	27318.03
594.515	26803.99
594.712	27240.2
594.908	26752.79
595.105	27105.04
595.302	26267.42
595.499	26711.83
595.696	26816.27
595.892	26564.37
596.089	26648.34
596.286	26445.59
596.482	25960.22
596.679	26408.73
596.876	26312.47
597.072	25833.25
597.269	26169.12
597.466	25739.04
597.662	25644.84
597.859	25859.87
598.055	25919.26
598.252	25542.44
598.448	25630.5
598.645	25071.4
598.841	25222.95
599.038	25364.26
599.234	25489.19
599.431	24774.45
599.627	24934.19
599.824	25231.15
600.02	24815.41
600.217	24971.05
600.413	24874.8
600.609	25022.25
600.806	24219.45
601.002	24510.26
601.198	24596.28
601.395	24401.72
601.591	24473.4
601.787	24383.29
601.984	24178.49
602.18	24282.94
602.376	24162.11
602.572	23912.25
602.769	23844.67
602.965	23861.05
603.161	23725.89
603.357	23834.43
603.553	23514.95
603.75	23768.9
603.946	23357.25
604.142	23678.79
604.338	23418.69
604.534	23177.03
604.73	23420.74
604.926	23236.42
605.122	23492.42
605.318	23103.31
605.514	22662.99
605.71	22613.84
605.906	22839.12
606.102	22992.72
606.298	22826.83
606.494	22695.76
606.69	22730.58
606.886	22916.94
607.082	22437.72
607.278	22462.29
607.474	22300.5
607.67	22515.54
607.866	22120.28
608.062	22452.05
608.257	22376.28
608.453	22384.47
608.649	22386.52
608.845	21813.09
609.041	22081.37
609.236	21952.35
609.432	22087.51
609.628	22052.7
609.824	22099.8
610.019	21657.44
610.215	21698.4
610.411	21657.44
610.606	21321.57
610.802	21948.25
610.998	21831.52
611.193	21976.92
611.389	21264.23
611.584	21241.7
611.78	21481.31
611.976	21282.66
612.171	21532.51
612.367	21174.12
612.562	21315.43
612.758	20985.71
612.953	20981.61
613.149	21458.79
613.344	20877.16
613.539	21268.33
613.735	20934.51
613.93	21104.49
614.126	20905.84
614.321	21217.13
614.517	21059.43
614.712	20748.14
614.907	20610.93
615.103	21045.1
615.298	20907.88
615.493	20881.26
615.688	20506.48
615.884	20934.51
616.079	20336.5
616.274	20733.81
616.47	20682.61
616.665	20395.89
616.86	20526.96
617.055	20621.17
617.25	20311.92
617.445	20563.82
617.641	20139.9
617.836	20408.18
618.031	19914.62
618.226	20076.41
618.421	20010.87
618.616	19883.9
618.811	19810.17
619.006	19869.56
619.201	19437.44
619.396	19742.59
619.591	19597.18
619.786	19548.03
619.981	19255.17
620.176	19693.44
620.371	19244.93
620.566	19216.26
620.761	19339.14
620.956	19169.16
621.151	19060.62
621.346	19044.23
621.541	18790.28
621.735	18950.03
621.93	18648.97
622.125	18724.75
622.32	18435.99
622.515	18309.01
622.709	18315.16
622.904	18419.6
623.099	18288.53
623.294	17874.84
623.488	17915.8
623.683	18161.56
623.878	17465.25
624.072	18016.15
624.267	17762.2
624.462	17784.73
624.656	17432.48
624.851	17186.72
625.046	17190.82
625.24	17471.39
625.435	17039.27
625.629	16986.02
625.824	16893.86
626.018	17016.74
626.213	16646.06
626.407	16717.74
626.602	16492.46
626.796	16496.56
626.991	16662.44
627.185	16293.81
627.38	16234.42
627.574	15929.27
627.768	15986.61
627.963	16113.59
628.157	16009.14
628.352	15890.36
628.546	15630.27
628.74	15691.71
628.935	15601.6
629.129	15630.27
629.323	15314.88
629.517	15241.15
629.712	15271.87
629.906	15189.95
630.1	15110.08
630.294	14960.58
630.489	14792.65
630.683	14962.63
630.877	14710.73
631.071	14792.65
631.265	14606.28
631.459	14577.61
631.653	14532.56
631.848	14426.06
632.042	14233.55
632.236	14168.02
632.43	14125.01
632.624	14151.63
632.818	13846.49
633.012	13924.31
633.206	13985.75
633.4	14069.72
633.594	13746.14
633.788	13805.53
633.982	13535.2
634.176	13715.42
634.369	13357.02
634.563	13438.94
634.757	13260.77
634.951	13543.39
635.145	13242.34
635.339	13473.76
635.533	13236.19
635.726	12951.53
635.92	12984.29
636.114	12922.85
636.308	12670.95
636.501	12759.02
636.695	12664.81
636.889	12445.68
637.083	12726.25
637.276	12486.64
637.47	12212.21
637.664	12312.56
637.857	12302.32
638.051	12277.74
638.244	11827.19
638.438	12046.32
638.632	11999.22
638.825	11997.17
639.019	12216.3
639.212	11775.99
639.406	11794.42
639.599	11608.06
639.793	11659.26
639.986	11548.67
640.18	11558.91
640.373	11280.38
640.567	11284.48
640.76	11483.13
640.954	11511.8
641.147	11280.38
641.34	11243.52
641.534	11114.5
641.727	11059.2
641.92	11159.55
642.114	10850.31
642.307	10921.99
642.5	10958.85
642.694	10831.88
642.887	10670.09
643.08	10758.15
643.273	10565.64
643.467	10469.39
643.66	10594.31
643.853	10303.5
644.046	10098.7
644.239	10444.81
644.432	10145.81
644.626	10145.81
644.819	10338.32
645.012	10057.75
645.205	10256.4
645.398	9973.78
645.591	9971.73
645.784	9777.17
645.977	9908.24
646.17	9777.17
646.363	9627.67
646.556	9689.11
646.749	9705.49
646.942	9582.62
647.135	9693.21
647.328	9564.18
647.521	9408.54
647.714	9443.35
647.907	9289.76
648.099	9050.14
648.292	9386.01
648.485	9105.44
648.678	9213.98
648.871	9109.54
649.064	8914.98
649.256	9099.3
649.449	8945.7
649.642	8767.52
649.835	8882.21
650.027	8845.35
650.22	8740.9
650.413	8597.54
650.605	8570.92
650.798	8749.09
650.991	8685.61
651.183	8673.32
651.376	8308.78
651.568	8458.28
651.761	8402.99
651.954	8421.42
652.146	8437.8
652.339	8407.08
652.531	8190
652.724	8177.71
652.916	8024.11
653.109	8159.28
653.301	8245.29
653.494	8112.17
653.686	7880.75
653.879	7979.06
654.071	7944.24
654.263	7823.41
654.456	7903.28
654.648	7997.49
654.84	7503.93
655.033	7497.78
655.225	7804.98
655.417	7673.91
655.61	7843.89
655.802	7594.04
655.994	7608.37
656.186	7606.33
656.379	7280.7
656.571	7344.19
656.763	7268.41
656.955	7303.23
657.148	7258.17
657.34	7258.17
657.532	7088.19
657.724	7247.93
657.916	7159.87
658.108	7106.62
658.3	7151.68
658.492	7123.01
658.684	6955.07
658.876	6930.5
659.068	7010.37
659.26	6957.12
659.452	6983.74
659.644	6809.67
659.836	6830.15
660.028	6842.43
660.22	6619.21
660.412	6662.21
660.604	6516.81
660.796	6631.49
660.988	6445.13
661.18	6486.09
661.372	6494.28
661.563	6647.88
661.755	6269
661.947	6473.8
662.139	6385.74
662.331	6357.07
662.522	6219.85
662.714	6189.13
662.906	6168.65
663.097	6250.57
663.289	6060.11
663.481	6223.95
663.673	6008.91
663.864	6031.44
664.056	6185.04
664.247	6144.08
664.439	5886.03
664.631	6039.63
664.822	5910.61
665.014	5900.37
665.205	5994.58
665.397	5797.97
665.588	5922.9
665.78	5830.74
665.971	5732.44
666.163	5654.61
666.354	5648.47
666.546	5898.32
666.737	5687.38
666.929	5632.08
667.12	5681.24
667.311	5550.17
667.503	5490.77
667.694	5615.7
667.885	5398.62
668.077	5462.1
668.268	5308.51
668.459	5537.88
668.651	5302.36
668.842	5363.8
669.033	5339.23
669.224	5242.97
669.416	5318.75
669.607	5273.69
669.798	5159
669.989	5279.83
670.18	5265.5
670.371	5247.07
670.563	5072.99
670.754	5093.47
670.945	4976.73
671.136	5105.76
671.327	5005.41
671.518	5089.37
671.709	5072.99
671.9	5023.84
672.091	5013.6
672.282	4862.05
672.473	4903.01
672.664	4931.68
672.855	4888.67
673.046	4929.63
673.237	4950.11
673.428	4870.24
673.619	4831.33
673.809	4730.98
674	4796.51
674.191	4773.99
674.382	4696.16
674.573	4671.59
674.764	4755.55
674.954	4839.52
675.145	4698.21
675.336	4649.06
675.527	4706.4
675.717	4563.05
675.908	4509.8
676.099	4626.53
676.289	4493.41
676.48	4403.3
676.671	4425.83
676.861	4466.79
677.052	4563.05
677.243	4538.47
677.433	4483.17
677.624	4335.72
677.814	4460.65
678.005	4470.89
678.195	4309.1
678.386	4550.76
678.576	4407.4
678.767	4173.93
678.957	4481.13
679.148	4309.1
679.338	4436.07
679.529	4157.55
679.719	4386.92
679.909	4384.87
680.1	4333.67
680.29	4214.89
680.481	4221.03
680.671	4268.14
680.861	4223.08
681.052	4153.45
681.242	4198.51
681.432	4118.64
681.622	3924.08
681.813	4175.98
682.003	4132.97
682.193	4124.78
682.383	4128.88
682.573	4208.75
682.764	4028.53
682.954	4010.09
683.144	3960.94
683.334	4137.07
683.524	4016.24
683.714	3946.61
683.904	4124.78
684.094	4116.59
684.284	3958.89
684.474	3903.6
684.664	4014.19
684.854	3940.46
685.044	3960.94
685.234	3979.37
685.424	3883.12
685.614	3833.97
685.804	3866.74
685.994	4108.4
686.184	3926.13
686.374	3905.65
686.564	3850.35
686.753	3811.44
686.943	3686.51
687.133	3719.28
687.323	3866.74
687.513	3784.82
687.702	3752.05
687.892	3758.19
688.082	3733.62
688.272	3850.35
688.461	3614.84
688.651	3713.14
688.841	3715.19
689.03	3739.76
689.22	3620.98
689.41	3663.99
689.599	3555.44
689.789	3584.12
689.979	3747.95
690.168	3522.68
690.358	3451
690.547	3530.87
690.737	3477.62
690.926	3580.02
691.116	3565.68
691.305	3649.65
691.495	3360.89
691.684	3395.7
691.874	3309.69
692.063	3475.57
692.252	3440.76
692.442	3397.75
692.631	3215.48
692.82	3444.85
693.01	3324.02
693.199	3190.91
693.388	3344.5
693.578	3379.32
693.767	3344.5
693.956	3313.78
694.146	3309.69
694.335	3332.22
694.524	3201.15
694.713	3301.5
694.902	3190.91
695.092	3238.01
695.281	3268.73
695.47	3217.53
695.659	3047.55
695.848	3184.76
696.037	3162.23
696.226	3147.9
696.415	3170.43
696.604	3268.73
696.793	3141.75
696.982	3215.48
697.171	3221.63
697.36	3139.71
697.549	3059.84
697.738	3186.81
697.927	3174.52
698.116	3100.8
698.305	3213.43
698.494	3221.63
698.683	3176.57
698.872	3166.33
699.061	3072.12
699.25	3092.6
699.438	3119.23
699.627	3106.94
699.816	3154.04
700.005	3225.72
700.193	3098.75
700.382	3115.13
700.571	3147.9
700.76	3068.03
700.948	3143.8
701.137	3139.71
701.326	3133.56
701.514	3121.28
701.703	3129.47
701.892	3096.7
702.08	3145.85
702.269	3002.49
702.457	3092.6
702.646	3119.23
702.834	3158.14
703.023	3027.07
703.212	2945.15
703.4	3088.51
703.589	2977.92
703.777	3104.89
703.965	2887.81
704.154	3045.5
704.342	2979.97
704.531	2943.1
704.719	2947.2
704.907	3068.03
705.096	3139.71
705.284	3117.18
705.472	3041.4
705.661	3018.88
705.849	3061.88
706.037	3045.5
706.226	3006.59
706.414	2998.4
706.602	3147.9
706.79	3149.95
706.979	3002.49
707.167	3006.59
707.355	2916.48
707.543	2955.39
707.731	3102.84
707.919	2922.62
708.107	3010.68
708.296	2922.62
708.484	2928.77
708.672	3037.31
708.86	3010.68
709.048	2924.67
709.236	2996.35
709.424	2914.43
709.612	3027.07
709.8	2973.82
709.988	3051.64
710.176	2936.96
710.364	2900.09
710.551	2930.81
710.739	2787.46
710.927	2949.25
711.115	2969.73
711.303	2984.06
711.491	3025.02
711.679	2967.68
711.866	2846.85
712.054	3008.64
712.242	2840.7
712.43	2842.75
712.617	2988.16
712.805	2885.76
712.993	2922.62
713.181	2734.21
713.368	2891.9
713.556	2951.29
713.744	2932.86
713.931	2996.35
714.119	2799.74
714.306	2900.09
714.494	2697.35
714.682	2818.18
714.869	2906.24
715.057	2887.81
715.244	2867.33
715.432	2949.25
715.619	2850.94
715.807	2924.67
715.994	2887.81
716.182	2871.42
716.369	2779.26
716.556	2824.32
716.744	2846.85
716.931	2793.6
717.119	2820.22
717.306	3012.73
717.493	2830.46
717.681	2838.66
717.868	2756.74
718.055	2783.36
718.242	2855.04
718.43	2746.5
718.617	2758.78
718.804	2769.02
718.991	2842.75
719.179	2744.45
719.366	2715.78
719.553	2809.98
719.74	2695.3
719.927	2932.86
720.114	2812.03
720.301	2773.12
720.488	2617.47
720.676	2723.97
720.863	2769.02
721.05	2855.04
721.237	2781.31
721.424	2723.97
721.611	2779.26
721.798	2691.2
721.985	2666.63
722.172	2742.4
722.358	2807.94
722.545	2816.13
722.732	2719.87
722.919	2846.85
723.106	2629.76
723.293	2764.93
723.48	2758.78
723.667	2723.97
723.853	2656.39
724.04	2717.83
724.227	2758.78
724.414	2642.05
724.6	2664.58
724.787	2809.98
724.974	2748.54
725.161	2683.01
725.347	2594.95
725.534	2824.32
725.72	2637.95
725.907	2662.53
726.094	2564.23
726.28	2674.82
726.467	2617.47
726.653	2711.68
726.84	2734.21
727.027	2711.68
727.213	2635.91
727.4	2699.39
727.586	2637.95
727.773	2619.52
727.959	2537.6
728.145	2678.91
728.332	2711.68
728.518	2553.99
728.705	2664.58
728.891	2601.09
729.077	2680.96
729.264	2617.47
729.45	2459.78
729.636	2654.34
729.823	2666.63
730.009	2646.15
730.195	2709.63
730.382	2701.44
730.568	2529.41
730.754	2717.83
730.94	2523.27
731.126	2619.52
731.313	2599.04
731.499	2617.47
731.685	2504.84
731.871	2676.87
732.057	2574.47
732.243	2572.42
732.429	2560.13
732.615	2640
732.801	2535.56
732.987	2597
733.173	2549.89
733.359	2637.95
733.545	2631.81
733.731	2459.78
733.917	2568.32
734.103	2510.98
734.289	2619.52
734.475	2435.21
734.661	2599.04
734.847	2519.17
735.033	2371.72
735.219	2455.69
735.404	2500.74
735.59	2476.16
735.776	2553.99
735.962	2574.47
736.148	2609.28
736.333	2472.07
736.519	2545.8
736.705	2496.64
736.89	2496.64
737.076	2492.55
737.262	2551.94
737.447	2490.5
737.633	2588.8
737.819	2482.31
738.004	2412.68
738.19	2560.13
738.375	2445.45
738.561	2533.51
738.747	2318.47
738.932	2300.04
739.118	2429.06
739.303	2373.77
739.489	2363.53
739.674	2420.87
739.859	2338.95
740.045	2420.87
740.23	2295.94
740.416	2318.47
740.601	2414.73
740.786	2396.29
740.972	2226.31
741.157	2345.09
741.342	2447.49
741.528	2304.14
741.713	2177.16
741.898	2361.48
742.084	2316.42
742.269	2353.29
742.454	2373.77
742.639	2365.57
742.824	2216.07
743.01	2283.66
743.195	2263.18
743.38	2171.02
743.565	2228.36
743.75	2371.72
743.935	2209.93
744.12	2197.64
744.305	2166.92
744.49	2109.58
744.675	2150.54
744.86	2232.46
745.045	2295.94
745.23	2103.43
745.415	2136.2
745.6	2252.94
745.785	2074.76
745.97	2246.79
746.155	2095.24
746.34	2082.95
746.525	2031.76
746.71	2076.81
746.895	2005.13
747.079	1986.7
747.264	1986.7
747.449	1996.94
747.634	1910.93
747.819	2001.04
748.003	1945.74
748.188	1949.84
748.373	1947.79
748.557	1935.5
748.742	1937.55
748.927	1949.84
749.111	1761.42
749.296	1958.03
749.481	1927.31
749.665	1894.54
749.85	1841.29
750.034	1874.06
750.219	1849.49
750.404	1888.4
750.588	1892.49
750.773	1927.31
750.957	1863.82
751.141	1734.8
751.326	1790.1
751.51	1781.9
751.695	1800.34
751.879	1724.56
752.064	1792.14
752.248	1753.23
752.432	1679.51
752.617	1767.57
752.801	1685.65
752.985	1763.47
753.17	1597.59
753.354	1618.07
753.538	1693.84
753.722	1605.78
753.907	1540.24
754.091	1626.26
754.275	1579.15
754.459	1577.11
754.643	1462.42
754.828	1609.87
755.012	1552.53
755.196	1493.14
755.38	1546.39
755.564	1540.24
755.748	1613.97
755.932	1521.81
756.116	1548.44
756.3	1532.05
756.484	1478.8
756.668	1489.04
756.852	1376.41
757.036	1351.83
757.22	1456.28
757.404	1411.22
757.588	1394.84
757.772	1370.26
757.956	1396.89
758.14	1417.37
758.323	1298.58
758.507	1417.37
758.691	1353.88
758.875	1337.49
759.059	1372.31
759.242	1222.81
759.426	1351.83
759.61	1310.87
759.794	1269.91
759.977	1388.69
760.161	1306.77
760.345	1294.49
760.528	1362.07
760.712	1302.68
760.895	1286.3
761.079	1259.67
761.263	1237.14
761.446	1173.66
761.63	1228.95
761.813	1226.9
761.997	1163.42
762.18	1226.9
762.364	1136.79
762.547	1161.37
762.731	1208.47
762.914	1161.37
763.098	1147.03
763.281	1122.46
763.464	1286.3
763.648	1144.99
763.831	1108.12
764.015	1114.27
764.198	1167.51
764.381	1165.46
764.564	1163.42
764.748	1048.73
764.931	1214.62
765.114	1069.21
765.297	1058.97
765.481	1136.79
765.664	1056.92
765.847	1136.79
766.03	1147.03
766.213	1116.31
766.397	1089.69
766.58	1101.98
766.763	983.2
766.946	1108.12
767.129	987.29
767.312	1149.08
767.495	1032.35
767.678	1007.77
767.861	1089.69
768.044	1118.36
768.227	1130.65
768.41	977.05
768.593	1081.5
768.776	1097.88
768.959	915.61
769.142	983.2
769.324	999.58
769.507	968.86
769.69	1063.07
769.873	1042.59
770.056	1038.49
770.239	1032.35
770.421	1018.01
770.604	1018.01
770.787	960.67
770.97	966.81
771.152	997.53
771.335	989.34
771.518	987.29
771.7	975
771.883	929.95
772.066	901.28
772.248	897.18
772.431	975
772.613	868.51
772.796	884.89
772.978	868.51
773.161	952.48
773.343	868.51
773.526	942.24
773.708	848.03
773.891	856.22
774.073	858.27
774.256	891.04
774.438	886.94
774.621	868.51
774.803	864.41
774.985	835.74
775.168	843.93
775.35	831.65
775.532	772.25
775.715	833.69
775.897	794.78
776.079	719.01
776.261	796.83
776.444	792.73
776.626	788.64
776.808	813.21
776.99	782.49
777.173	739.49
777.355	716.96
777.537	768.16
777.719	737.44
777.901	704.67
778.083	710.82
778.265	702.62
778.447	772.25
778.629	723.1
778.811	723.1
778.993	751.78
779.175	792.73
779.357	764.06
779.539	719.01
779.721	630.95
779.903	665.76
780.085	725.15
780.267	686.24
780.449	731.3
780.631	602.27
780.812	692.38
780.994	676
781.176	583.84
781.358	626.85
781.54	608.42
781.721	620.71
781.903	561.31
782.085	573.6
782.267	665.76
782.448	520.35
782.63	553.12
782.812	688.29
782.993	592.03
783.175	594.08
783.357	501.92
783.538	530.59
783.72	546.98
783.901	598.18
784.083	536.74
784.264	565.41
784.446	530.59
784.627	483.49
784.809	428.2
784.99	563.36
785.172	555.17
785.353	555.17
785.535	487.59
785.716	567.46
785.897	540.83
786.079	448.68
786.26	450.72
786.441	600.23
786.623	428.2
786.804	546.98
786.985	514.21
787.167	508.07
787.348	467.11
787.529	479.4
787.71	489.64
787.891	475.3
788.073	454.82
788.254	477.35
788.435	446.63
788.616	493.73
788.797	426.15
788.978	430.24
789.159	407.72
789.34	444.58
789.522	377
789.703	391.33
789.884	372.9
790.065	397.48
790.246	487.59
790.427	432.29
790.607	424.1
790.788	405.67
790.969	446.63
791.15	395.43
791.331	450.72
791.512	342.18
791.693	307.37
791.874	348.33
792.054	370.85
792.235	377
792.416	374.95
792.597	393.38
792.778	350.37
792.958	391.33
793.139	360.61
793.32	383.14
793.5	399.52
793.681	409.76
793.862	346.28
794.042	372.9
794.223	356.52
794.404	245.93
794.584	272.55
794.765	368.81
794.945	299.17
795.126	397.48
795.306	366.76
795.487	317.61
795.667	301.22
795.848	290.98
796.028	325.8
796.209	364.71
796.389	342.18
796.57	346.28
796.75	250.02
796.93	293.03
797.111	381.09
797.291	305.32
797.471	293.03
797.652	247.97
797.832	288.93
798.012	237.74
798.192	250.02
798.373	276.65
798.553	305.32
798.733	288.93
798.913	260.26
799.093	282.79
799.274	268.45
799.454	284.84
799.634	252.07
799.814	315.56
799.994	293.03
800.174	299.17
800.354	293.03
800.534	305.32
800.714	282.79
800.894	293.03
801.074	284.84
801.254	233.64
801.434	274.6
801.614	225.45
801.794	237.74
801.974	589.99
802.154	223.4
802.334	270.5
802.514	262.31
802.693	192.68
802.873	239.78
803.053	272.55
803.233	215.21
803.413	215.21
803.592	295.08
803.772	245.93
803.952	352.42
804.131	229.54
804.311	223.4
804.491	276.65
804.67	211.11
804.85	217.26
805.03	301.22
805.209	327.85
805.389	194.73
805.568	196.78
805.748	125.1
805.928	207.02
806.107	198.82
806.287	329.89
806.466	243.88
806.646	272.55
806.825	166.06
807.004	121
807.184	245.93
807.363	221.35
807.543	186.54
807.722	270.5
807.901	215.21
808.081	256.17
808.26	151.72
808.439	194.73
808.619	198.82
808.798	217.26
808.977	280.74
809.156	155.82
809.336	184.49
809.515	188.58
809.694	202.92
809.873	129.19
810.052	159.91
810.231	166.06
810.411	213.16
810.59	139.43
810.769	221.35
810.948	221.35
811.127	174.25
811.306	198.82
811.485	147.62
811.664	149.67
811.843	57.51
812.022	196.78
812.201	135.34
812.38	137.38
812.559	153.77
812.737	260.26
812.916	178.34
813.095	116.9
813.274	145.58
813.453	204.97
813.632	131.24
813.811	143.53
813.989	143.53
814.168	213.16
814.347	147.62
814.526	108.71
814.704	131.24
814.883	143.53
815.062	151.72
815.24	176.3
815.419	104.62
815.598	170.15
815.776	137.38
815.955	153.77
816.133	151.72
816.312	125.1
816.49	133.29
816.669	184.49
816.847	168.1
817.026	131.24
817.204	168.1
817.383	121
817.561	155.82
817.74	102.57
817.918	159.91
818.097	145.58
818.275	43.18
818.453	96.43
818.632	237.74
818.81	53.42
818.988	151.72
819.167	84.14
819.345	129.19
819.523	137.38
819.701	80.04
819.879	219.3
820.058	141.48
820.236	133.29
820.414	102.57
820.592	121
820.77	49.32
820.948	200.87
821.127	77.99
821.305	172.2
821.483	77.99
821.661	100.52
821.839	147.62
822.017	155.82
822.195	39.08
822.373	104.62
822.551	190.63
822.729	145.58
822.907	151.72
823.085	127.14
823.262	178.34
823.44	170.15
823.618	174.25
823.796	147.62
823.974	108.71
824.152	116.9
824.329	69.8
824.507	65.71
824.685	104.62
824.863	45.23
825.04	110.76
825.218	65.71
825.396	49.32
825.574	110.76
825.751	80.04
825.929	147.62
826.107	100.52
826.284	133.29
826.462	116.9
826.639	123.05
826.817	116.9
826.994	96.43
827.172	47.27
827.349	98.47
827.527	110.76
827.704	82.09
827.882	139.43
828.059	61.61
828.237	96.43
828.414	104.62
828.591	73.9
828.769	190.63
828.946	57.51
829.124	102.57
829.301	82.09
829.478	75.95
829.655	77.99
829.833	16.55
830.01	77.99
830.187	75.95
830.364	108.71
830.542	90.28
830.719	127.14
830.896	47.27
831.073	92.33
831.25	75.95
831.427	123.05
831.604	61.61
831.782	16.55
831.959	143.53
832.136	104.62
832.313	110.76
832.49	24.75
832.667	98.47
832.844	57.51
833.021	135.34
833.198	61.61
833.374	51.37
833.551	65.71
833.728	45.23
833.905	137.38
834.082	43.18
834.259	110.76
834.436	143.53
834.612	86.19
834.789	39.08
834.966	112.81
835.143	77.99
835.319	106.67
835.496	-3.93
835.673	14.51
835.85	112.81
836.026	57.51
836.203	88.23
836.38	-16.21
836.556	118.95
836.733	118.95
836.909	118.95
837.086	32.94
837.262	37.03
837.439	104.62
837.616	34.99
837.792	20.65
837.968	39.08
838.145	73.9
838.321	88.23
838.498	45.23
838.674	10.41
838.851	30.89
839.027	137.38
839.203	59.56
839.38	80.04
839.556	32.94
839.732	141.48
839.909	159.91
840.085	37.03
840.261	22.7
840.437	100.52
840.614	100.52
840.79	129.19
840.966	65.71
841.142	102.57
841.318	63.66
841.494	0.17
841.671	22.7
841.847	59.56
842.023	24.75
842.199	26.79
842.375	104.62
842.551	94.38
842.727	51.37
842.903	129.19
843.079	65.71
843.255	61.61
843.431	75.95
843.607	88.23
843.783	16.55
843.959	84.14
844.134	102.57
844.31	20.65
844.486	-40.79
844.662	55.47
844.838	-12.12
845.013	37.03
845.189	49.32
845.365	118.95
845.541	8.36
845.716	57.51
845.892	37.03
846.068	34.99
846.244	39.08
846.419	47.27
846.595	96.43
846.77	-8.02
846.946	10.41
847.122	-16.21
847.297	10.41
847.473	73.9
847.648	-12.12
847.824	20.65
847.999	0.17
848.175	67.75
848.35	-1.88
848.526	94.38
848.701	20.65
848.876	69.8
849.052	57.51
849.227	14.51
849.403	61.61
849.578	26.79
849.753	49.32
849.929	51.37
850.104	16.55
850.279	2.22
850.454	6.31
850.63	2.22
850.805	-12.12
850.98	43.18
851.155	4.27
851.33	37.03
851.505	73.9
851.681	82.09
851.856	4.27
852.031	106.67
852.206	67.75
852.381	10.41
852.556	-32.6
852.731	2.22
852.906	49.32
853.081	77.99
853.256	59.56
853.431	20.65
853.606	-59.22
853.781	14.51
853.956	-59.22
854.131	65.71
854.305	-1.88
854.48	34.99
854.655	63.66
854.83	75.95
855.005	47.27
855.18	90.28
855.354	28.84
855.529	10.41
855.704	77.99
855.879	59.56
856.053	-10.07
856.228	51.37
856.403	47.27
856.577	71.85
856.752	6.31
856.926	-14.17
857.101	-5.97
857.276	14.51
857.45	94.38
857.625	24.75
857.799	26.79
857.974	-36.69
858.148	75.95
858.323	98.47
858.497	47.27
858.672	12.46
858.846	43.18
859.02	10.41
859.195	8.36
859.369	59.56
859.543	16.55
859.718	82.09
859.892	-73.56
860.066	16.55
860.241	-55.12
860.415	30.89
860.589	37.03
860.763	69.8
860.938	16.55
861.112	-12.12
861.286	-67.41
861.46	-16.21
861.634	-77.65
861.808	30.89
861.982	24.75
862.157	-32.6
862.331	-8.02
862.505	-59.22
862.679	-48.98
862.853	24.75
863.027	-8.02
863.201	47.27
863.375	10.41
863.549	65.71
863.722	-48.98
863.896	41.13
864.07	-69.46
864.244	-24.4
864.418	41.13
864.592	41.13
864.766	-3.93
864.939	24.75
865.113	16.55
865.287	41.13
865.461	-36.69
865.634	75.95
865.808	30.89
865.982	-46.93
866.156	-40.79
866.329	-28.5
866.503	-51.03
866.676	73.9
866.85	22.7
867.024	30.89
867.197	14.51
867.371	18.6
867.544	45.23
867.718	-5.97
867.891	77.99
868.065	8.36
868.238	18.6
868.412	53.42
868.585	24.75
868.759	65.71
868.932	18.6
869.105	-12.12
869.279	-3.93
869.452	-67.41
869.625	10.41
869.799	-65.36
869.972	-85.84
870.145	-61.27
870.319	8.36
870.492	10.41
870.665	28.84
870.838	2.22
871.011	39.08
871.185	34.99
871.358	-26.45
871.531	30.89
871.704	-65.36
871.877	32.94
872.05	-36.69
872.223	0.17
872.396	77.99
872.569	51.37
872.742	-14.17
872.915	-3.93
873.088	-40.79
873.261	47.27
873.434	57.51
873.607	41.13
873.78	16.55
873.953	-5.97
874.126	37.03
874.299	77.99
874.471	-40.79
874.644	24.75
874.817	82.09
874.99	77.99
875.163	18.6
875.335	30.89
875.508	-26.45
875.681	20.65
875.853	-28.5
876.026	41.13
876.199	0.17
876.371	34.99
876.544	-10.07
876.717	-18.26
876.889	-28.5
877.062	12.46
877.234	-26.45
877.407	88.23
877.579	43.18
877.752	-26.45
877.924	-20.31
878.097	16.55
878.269	-10.07
878.442	-26.45
878.614	0.17
878.786	-94.04
878.959	45.23
879.131	16.55
879.303	-8.02
879.476	-12.12
879.648	51.37
879.82	-3.93
879.993	75.95
880.165	32.94
880.337	20.65
880.509	71.85
880.681	-89.94
880.854	24.75
881.026	16.55
881.198	75.95
881.37	8.36
881.542	-34.64
881.714	-5.97
881.886	82.09
882.058	-8.02
882.23	55.47
882.402	-20.31
882.574	-44.88
882.746	-32.6
882.918	12.46
883.09	55.47
883.262	-16.21
883.434	-48.98
883.606	10.41
883.778	-5.97
883.95	34.99
884.122	-42.84
884.293	12.46
884.465	8.36
884.637	34.99
884.809	-55.12
884.98	-28.5
885.152	110.76
885.324	-75.6
885.496	8.36
885.667	32.94
885.839	-20.31
886.011	100.52
886.182	116.9
886.354	10.41
886.525	8.36
886.697	4.27
886.869	12.46
887.04	-42.84
887.212	39.08
887.383	-22.36
887.555	8.36
887.726	2.22
887.897	20.65
888.069	-8.02
888.24	41.13
888.412	4.27
888.583	39.08
888.754	61.61
888.926	20.65
889.097	61.61
889.268	-1.88
889.44	4.27
889.611	16.55
889.782	-42.84
889.953	-16.21
890.125	-20.31
890.296	-26.45
890.467	6.31
890.638	-18.26
890.809	26.79
890.98	67.75
891.151	24.75
891.323	37.03
891.494	22.7
891.665	100.52
891.836	-57.17
892.007	-10.07
892.178	-20.31
892.349	-59.22
892.52	-8.02
892.691	75.95
892.862	53.42
893.032	24.75
893.203	-48.98
893.374	86.19
893.545	32.94
893.716	-40.79
893.887	6.31
894.057	-57.17
894.228	24.75
894.399	16.55
894.57	-10.07
894.74	16.55
894.911	-63.32
895.082	-28.5
895.253	57.51
895.423	82.09
895.594	34.99
895.764	57.51
895.935	6.31
896.106	16.55
896.276	32.94
896.447	-53.08
896.617	-8.02
896.788	-55.12
896.958	32.94
897.129	-42.84
897.299	-28.5
897.47	20.65
897.64	-24.4
897.81	39.08
897.981	-18.26
898.151	39.08
898.322	18.6
898.492	37.03
898.662	4.27
898.832	-46.93
899.003	-73.56
899.173	-12.12
899.343	8.36
899.513	47.27
