Data from USB4F104151__163__11-08-47-548.txt Node

Date: Wed Mar 12 11:08:47 EDT 2025
User: louis
Spectrometer: USB4F10415
Trigger mode: 4
Integration Time (sec): 2.000000E-2
Scans to average: 1
Electric dark correction enabled: true
Nonlinearity correction enabled: false
Boxcar width: 0
XAxis mode: Wavelengths
Number of Pixels in Spectrum: 3648
>>>>>Begin Spectral Data<<<<<
178.204	-95.91
178.424	-95.91
178.644	-95.91
178.864	-11.95
179.084	-100.01
179.304	-5.8
179.524	-20.14
179.744	10.58
179.964	-24.23
180.184	22.87
180.404	-16.04
180.624	20.82
180.844	-20.14
181.064	14.68
181.283	-9.9
181.503	78.16
181.723	-50.86
181.943	-67.24
182.163	37.2
182.383	-16.04
182.602	14.68
182.822	29.01
183.042	45.4
183.262	35.16
183.482	49.49
183.701	-34.47
183.921	14.68
184.141	-38.57
184.361	65.88
184.58	-28.33
184.8	0.34
185.02	39.25
185.239	43.35
185.459	47.44
185.679	12.63
185.898	-5.8
186.118	92.5
186.338	-18.09
186.557	47.44
186.777	-1.71
186.997	10.58
187.216	6.49
187.436	104.79
187.655	4.44
187.875	22.87
188.095	55.64
188.314	72.02
188.534	-16.04
188.753	57.68
188.973	-1.71
189.192	110.93
189.412	18.77
189.631	10.58
189.851	-13.99
190.07	55.64
190.29	-5.8
190.509	4.44
190.729	33.11
190.948	47.44
191.168	84.31
191.387	78.16
191.607	24.92
191.826	76.12
192.045	92.5
192.265	63.83
192.484	2.39
192.704	26.96
192.923	0.34
193.142	104.79
193.362	72.02
193.581	22.87
193.8	4.44
194.02	63.83
194.239	-22.19
194.458	39.25
194.678	-3.75
194.897	-22.19
195.116	22.87
195.335	-16.04
195.555	39.25
195.774	-9.9
195.993	115.03
196.212	29.01
196.432	-22.19
196.651	55.64
196.87	-7.85
197.089	100.69
197.308	72.02
197.528	76.12
197.747	59.73
197.966	69.97
198.185	63.83
198.404	-44.71
198.623	26.96
198.842	86.36
199.062	-7.85
199.281	117.08
199.5	4.44
199.719	31.06
199.938	69.97
200.157	20.82
200.376	51.54
200.595	35.16
200.814	-9.9
201.033	18.77
201.252	51.54
201.471	-28.33
201.69	45.4
201.909	55.64
202.128	35.16
202.347	26.96
202.566	41.3
202.785	53.59
203.004	47.44
203.223	2.39
203.442	0.34
203.661	-54.95
203.879	6.49
204.098	51.54
204.317	6.49
204.536	14.68
204.755	18.77
204.974	39.25
205.193	10.58
205.411	63.83
205.63	4.44
205.849	-42.67
206.068	53.59
206.287	45.4
206.505	72.02
206.724	14.68
206.943	-13.99
207.162	4.44
207.381	37.2
207.599	74.07
207.818	22.87
208.037	35.16
208.255	-22.19
208.474	-22.19
208.693	39.25
208.911	-9.9
209.13	59.73
209.349	33.11
209.567	26.96
209.786	45.4
210.005	2.39
210.223	39.25
210.442	63.83
210.661	41.3
210.879	43.35
211.098	0.34
211.316	139.6
211.535	8.53
211.753	-38.57
211.972	-36.52
212.191	0.34
212.409	92.5
212.628	94.55
212.846	84.31
213.065	16.73
213.283	53.59
213.502	8.53
213.72	31.06
213.938	-1.71
214.157	-18.09
214.375	26.96
214.594	20.82
214.812	76.12
215.031	37.2
215.249	-20.14
215.467	14.68
215.686	10.58
215.904	24.92
216.122	6.49
216.341	59.73
216.559	10.58
216.778	18.77
216.996	49.49
217.214	8.53
217.432	39.25
217.651	59.73
217.869	20.82
218.087	18.77
218.306	26.96
218.524	53.59
218.742	29.01
218.96	18.77
219.179	29.01
219.397	26.96
219.615	-3.75
219.833	16.73
220.051	29.01
220.27	49.49
220.488	98.64
220.706	51.54
220.924	96.6
221.142	-1.71
221.36	74.07
221.578	63.83
221.796	12.63
222.015	65.88
222.233	6.49
222.451	26.96
222.669	37.2
222.887	59.73
223.105	49.49
223.323	-20.14
223.541	-75.43
223.759	69.97
223.977	-16.04
224.195	-3.75
224.413	29.01
224.631	102.74
224.849	-16.04
225.067	31.06
225.285	-1.71
225.503	-9.9
225.721	-44.71
225.939	-20.14
226.157	26.96
226.375	115.03
226.592	20.82
226.81	6.49
227.028	59.73
227.246	67.92
227.464	39.25
227.682	45.4
227.9	45.4
228.117	104.79
228.335	51.54
228.553	16.73
228.771	26.96
228.989	53.59
229.206	53.59
229.424	-5.8
229.642	14.68
229.86	12.63
230.077	104.79
230.295	-16.04
230.513	35.16
230.731	35.16
230.948	6.49
231.166	78.16
231.384	100.69
231.601	-18.09
231.819	76.12
232.037	12.63
232.254	55.64
232.472	117.08
232.689	49.49
232.907	-20.14
233.125	-48.81
233.342	92.5
233.56	78.16
233.777	18.77
233.995	147.8
234.213	82.26
234.43	14.68
234.648	8.53
234.865	92.5
235.083	-5.8
235.3	4.44
235.518	51.54
235.735	96.6
235.953	10.58
236.17	-16.04
236.388	121.17
236.605	74.07
236.822	110.93
237.04	18.77
237.257	94.55
237.475	-22.19
237.692	117.08
237.909	6.49
238.127	47.44
238.344	39.25
238.562	29.01
238.779	22.87
238.996	4.44
239.214	72.02
239.431	76.12
239.648	29.01
239.865	153.94
240.083	-32.43
240.3	-7.85
240.517	-5.8
240.735	4.44
240.952	86.36
241.169	61.78
241.386	18.77
241.603	67.92
241.821	14.68
242.038	43.35
242.255	72.02
242.472	117.08
242.689	12.63
242.907	47.44
243.124	33.11
243.341	78.16
243.558	39.25
243.775	24.92
243.992	12.63
244.209	100.69
244.426	119.12
244.643	22.87
244.86	-20.14
245.078	-22.19
245.295	45.4
245.512	31.06
245.729	4.44
245.946	108.88
246.163	33.11
246.38	-22.19
246.597	20.82
246.814	63.83
247.031	112.98
247.248	-16.04
247.464	39.25
247.681	96.6
247.898	63.83
248.115	104.79
248.332	-38.57
248.549	86.36
248.766	78.16
248.983	57.68
249.2	51.54
249.417	55.64
249.633	51.54
249.85	-13.99
250.067	-54.95
250.284	59.73
250.501	12.63
250.717	72.02
250.934	-5.8
251.151	61.78
251.368	69.97
251.585	80.21
251.801	102.74
252.018	39.25
252.235	24.92
252.451	8.53
252.668	26.96
252.885	12.63
253.102	39.25
253.318	33.11
253.535	35.16
253.752	53.59
253.968	-7.85
254.185	-22.19
254.401	29.01
254.618	78.16
254.835	31.06
255.051	59.73
255.268	14.68
255.484	-9.9
255.701	78.16
255.917	76.12
256.134	-42.67
256.351	-28.33
256.567	39.25
256.784	69.97
257	2.39
257.217	76.12
257.433	88.4
257.65	-9.9
257.866	76.12
258.082	26.96
258.299	-13.99
258.515	43.35
258.732	14.68
258.948	72.02
259.165	20.82
259.381	-38.57
259.597	35.16
259.814	26.96
260.03	-7.85
260.246	20.82
260.463	55.64
260.679	26.96
260.895	20.82
261.112	61.78
261.328	121.17
261.544	8.53
261.761	59.73
261.977	12.63
262.193	22.87
262.409	55.64
262.626	20.82
262.842	90.45
263.058	-54.95
263.274	139.6
263.49	67.92
263.707	-1.71
263.923	47.44
264.139	14.68
264.355	41.3
264.571	108.88
264.787	22.87
265.004	-20.14
265.22	82.26
265.436	2.39
265.652	-1.71
265.868	43.35
266.084	49.49
266.3	20.82
266.516	55.64
266.732	74.07
266.948	45.4
267.164	57.68
267.38	76.12
267.596	96.6
267.812	-5.8
268.028	55.64
268.244	-20.14
268.46	-38.57
268.676	57.68
268.892	6.49
269.108	-48.81
269.324	-22.19
269.54	69.97
269.756	88.4
269.972	6.49
270.188	67.92
270.403	96.6
270.619	-3.75
270.835	35.16
271.051	80.21
271.267	6.49
271.483	-5.8
271.698	-13.99
271.914	117.08
272.13	26.96
272.346	51.54
272.562	-26.28
272.777	47.44
272.993	26.96
273.209	41.3
273.425	31.06
273.64	2.39
273.856	108.88
274.072	39.25
274.287	8.53
274.503	59.73
274.719	39.25
274.934	43.35
275.15	18.77
275.366	53.59
275.581	-20.14
275.797	51.54
276.012	22.87
276.228	57.68
276.444	24.92
276.659	108.88
276.875	8.53
277.09	18.77
277.306	-34.47
277.521	47.44
277.737	-42.67
277.952	29.01
278.168	0.34
278.383	10.58
278.599	35.16
278.814	90.45
279.03	6.49
279.245	51.54
279.461	26.96
279.676	102.74
279.892	-16.04
280.107	35.16
280.322	-54.95
280.538	39.25
280.753	72.02
280.969	115.03
281.184	-5.8
281.399	76.12
281.615	39.25
281.83	2.39
282.045	-46.76
282.26	55.64
282.476	2.39
282.691	33.11
282.906	63.83
283.122	33.11
283.337	-5.8
283.552	45.4
283.767	31.06
283.983	80.21
284.198	35.16
284.413	98.64
284.628	6.49
284.843	39.25
285.058	10.58
285.274	63.83
285.489	4.44
285.704	24.92
285.919	53.59
286.134	55.64
286.349	-36.52
286.564	-34.47
286.779	65.88
286.995	53.59
287.21	-5.8
287.425	31.06
287.64	45.4
287.855	37.2
288.07	-32.43
288.285	18.77
288.5	55.64
288.715	49.49
288.93	-28.33
289.145	47.44
289.36	-7.85
289.575	67.92
289.79	47.44
290.004	41.3
290.219	47.44
290.434	51.54
290.649	-9.9
290.864	31.06
291.079	14.68
291.294	0.34
291.509	31.06
291.724	6.49
291.938	63.83
292.153	31.06
292.368	-1.71
292.583	84.31
292.798	67.92
293.012	59.73
293.227	-38.57
293.442	108.88
293.657	24.92
293.871	106.84
294.086	33.11
294.301	29.01
294.516	39.25
294.73	76.12
294.945	55.64
295.16	65.88
295.374	37.2
295.589	51.54
295.804	37.2
296.018	65.88
296.233	74.07
296.447	26.96
296.662	8.53
296.877	49.49
297.091	-9.9
297.306	14.68
297.52	51.54
297.735	14.68
297.949	2.39
298.164	-7.85
298.378	-9.9
298.593	-13.99
298.807	2.39
299.022	51.54
299.236	88.4
299.451	-13.99
299.665	74.07
299.88	14.68
300.094	26.96
300.309	43.35
300.523	-9.9
300.737	88.4
300.952	80.21
301.166	26.96
301.381	-9.9
301.595	16.73
301.809	49.49
302.024	18.77
302.238	61.78
302.452	84.31
302.667	37.2
302.881	82.26
303.095	18.77
303.309	0.34
303.524	-1.71
303.738	10.58
303.952	18.77
304.166	41.3
304.381	-26.28
304.595	69.97
304.809	80.21
305.023	45.4
305.237	33.11
305.452	4.44
305.666	49.49
305.88	45.4
306.094	61.78
306.308	53.59
306.522	47.44
306.736	55.64
306.95	12.63
307.164	69.97
307.379	39.25
307.593	65.88
307.807	125.27
308.021	22.87
308.235	10.58
308.449	-102.06
308.663	-13.99
308.877	96.6
309.091	115.03
309.305	6.49
309.519	6.49
309.733	6.49
309.947	88.4
310.161	57.68
310.374	49.49
310.588	88.4
310.802	-26.28
311.016	84.31
311.23	2.39
311.444	8.53
311.658	-9.9
311.872	61.78
312.085	43.35
312.299	74.07
312.513	47.44
312.727	24.92
312.941	12.63
313.154	59.73
313.368	18.77
313.582	43.35
313.796	90.45
314.009	4.44
314.223	47.44
314.437	65.88
314.651	61.78
314.864	100.69
315.078	20.82
315.292	80.21
315.505	-5.8
315.719	76.12
315.933	53.59
316.146	84.31
316.36	8.53
316.573	51.54
316.787	67.92
317.001	20.82
317.214	20.82
317.428	90.45
317.641	72.02
317.855	12.63
318.068	4.44
318.282	29.01
318.495	119.12
318.709	59.73
318.922	20.82
319.136	26.96
319.349	69.97
319.563	51.54
319.776	20.82
319.99	170.32
320.203	35.16
320.417	47.44
320.63	-7.85
320.843	96.6
321.057	47.44
321.27	69.97
321.483	45.4
321.697	49.49
321.91	45.4
322.124	106.84
322.337	63.83
322.55	-30.38
322.763	37.2
322.977	51.54
323.19	-22.19
323.403	78.16
323.617	51.54
323.83	41.3
324.043	65.88
324.256	-5.8
324.469	2.39
324.683	59.73
324.896	53.59
325.109	49.49
325.322	35.16
325.535	112.98
325.748	2.39
325.962	-16.04
326.175	43.35
326.388	76.12
326.601	-16.04
326.814	-11.95
327.027	72.02
327.24	102.74
327.453	47.44
327.666	98.64
327.879	18.77
328.092	37.2
328.305	119.12
328.518	63.83
328.731	14.68
328.944	61.78
329.157	10.58
329.37	45.4
329.583	110.93
329.796	78.16
330.009	10.58
330.222	45.4
330.435	22.87
330.648	0.34
330.861	41.3
331.073	76.12
331.286	35.16
331.499	67.92
331.712	61.78
331.925	49.49
332.138	-7.85
332.35	-18.09
332.563	47.44
332.776	-24.23
332.989	35.16
333.202	94.55
333.414	63.83
333.627	59.73
333.84	55.64
334.053	12.63
334.265	61.78
334.478	80.21
334.691	31.06
334.903	69.97
335.116	69.97
335.329	72.02
335.541	18.77
335.754	153.94
335.966	67.92
336.179	6.49
336.392	86.36
336.604	2.39
336.817	80.21
337.029	33.11
337.242	51.54
337.454	86.36
337.667	-22.19
337.88	22.87
338.092	8.53
338.305	18.77
338.517	45.4
338.729	59.73
338.942	98.64
339.154	26.96
339.367	-26.28
339.579	76.12
339.792	-3.75
340.004	35.16
340.217	-11.95
340.429	-3.75
340.641	65.88
340.854	121.17
341.066	59.73
341.278	164.18
341.491	86.36
341.703	57.68
341.915	-3.75
342.128	-1.71
342.34	45.4
342.552	29.01
342.764	80.21
342.977	45.4
343.189	53.59
343.401	90.45
343.613	22.87
343.826	47.44
344.038	22.87
344.25	129.36
344.462	26.96
344.674	80.21
344.886	61.78
345.099	41.3
345.311	53.59
345.523	61.78
345.735	-20.14
345.947	94.55
346.159	43.35
346.371	-1.71
346.583	-28.33
346.795	18.77
347.007	-20.14
347.219	47.44
347.431	63.83
347.643	55.64
347.855	39.25
348.067	67.92
348.279	14.68
348.491	92.5
348.703	-5.8
348.915	29.01
349.127	63.83
349.339	57.68
349.551	47.44
349.763	63.83
349.975	20.82
350.187	63.83
350.399	47.44
350.61	45.4
350.822	31.06
351.034	31.06
351.246	51.54
351.458	53.59
351.669	55.64
351.881	-5.8
352.093	125.27
352.305	55.64
352.517	18.77
352.728	69.97
352.94	10.58
353.152	74.07
353.363	45.4
353.575	59.73
353.787	16.73
353.999	37.2
354.21	86.36
354.422	51.54
354.633	6.49
354.845	39.25
355.057	88.4
355.268	41.3
355.48	43.35
355.692	29.01
355.903	29.01
356.115	72.02
356.326	51.54
356.538	78.16
356.749	49.49
356.961	65.88
357.172	117.08
357.384	35.16
357.595	55.64
357.807	35.16
358.018	31.06
358.23	41.3
358.441	35.16
358.653	88.4
358.864	45.4
359.075	41.3
359.287	129.36
359.498	76.12
359.709	78.16
359.921	45.4
360.132	92.5
360.344	-1.71
360.555	18.77
360.766	6.49
360.977	45.4
361.189	53.59
361.4	53.59
361.611	129.36
361.823	20.82
362.034	39.25
362.245	22.87
362.456	80.21
362.667	47.44
362.879	22.87
363.09	92.5
363.301	39.25
363.512	82.26
363.723	-20.14
363.935	20.82
364.146	86.36
364.357	33.11
364.568	67.92
364.779	-22.19
364.99	121.17
365.201	26.96
365.412	33.11
365.623	-40.62
365.834	61.78
366.045	72.02
366.256	33.11
366.467	14.68
366.678	18.77
366.889	6.49
367.1	104.79
367.311	49.49
367.522	16.73
367.733	53.59
367.944	72.02
368.155	29.01
368.366	22.87
368.577	39.25
368.788	82.26
368.999	43.35
369.209	47.44
369.42	69.97
369.631	108.88
369.842	29.01
370.053	74.07
370.264	47.44
370.474	51.54
370.685	74.07
370.896	14.68
371.107	63.83
371.317	16.73
371.528	100.69
371.739	88.4
371.95	72.02
372.16	47.44
372.371	31.06
372.582	16.73
372.792	29.01
373.003	76.12
373.214	26.96
373.424	43.35
373.635	61.78
373.846	41.3
374.056	106.84
374.267	37.2
374.477	78.16
374.688	63.83
374.898	41.3
375.109	43.35
375.319	29.01
375.53	53.59
375.74	53.59
375.951	141.65
376.161	-22.19
376.372	80.21
376.582	61.78
376.793	31.06
377.003	22.87
377.214	-28.33
377.424	76.12
377.635	102.74
377.845	57.68
378.055	94.55
378.266	39.25
378.476	29.01
378.686	35.16
378.897	61.78
379.107	31.06
379.317	12.63
379.528	133.46
379.738	94.55
379.948	31.06
380.158	61.78
380.369	55.64
380.579	53.59
380.789	18.77
380.999	61.78
381.21	78.16
381.42	112.98
381.63	110.93
381.84	82.26
382.05	0.34
382.261	123.22
382.471	43.35
382.681	78.16
382.891	69.97
383.101	47.44
383.311	33.11
383.521	31.06
383.731	22.87
383.941	41.3
384.151	53.59
384.361	45.4
384.571	37.2
384.781	129.36
384.991	98.64
385.201	12.63
385.411	98.64
385.621	98.64
385.831	39.25
386.041	104.79
386.251	10.58
386.461	-13.99
386.671	4.44
386.881	69.97
387.091	-11.95
387.301	24.92
387.511	67.92
387.72	82.26
387.93	22.87
388.14	20.82
388.35	65.88
388.56	115.03
388.769	121.17
388.979	86.36
389.189	29.01
389.399	6.49
389.609	96.6
389.818	98.64
390.028	121.17
390.238	137.56
390.447	29.01
390.657	82.26
390.867	47.44
391.076	45.4
391.286	-22.19
391.496	55.64
391.705	55.64
391.915	33.11
392.125	12.63
392.334	16.73
392.544	69.97
392.753	92.5
392.963	37.2
393.172	37.2
393.382	35.16
393.591	108.88
393.801	47.44
394.01	65.88
394.22	90.45
394.429	86.36
394.639	74.07
394.848	106.84
395.058	45.4
395.267	74.07
395.477	119.12
395.686	94.55
395.895	67.92
396.105	86.36
396.314	108.88
396.524	98.64
396.733	145.75
396.942	78.16
397.152	74.07
397.361	90.45
397.57	43.35
397.78	69.97
397.989	127.32
398.198	129.36
398.407	57.68
398.617	125.27
398.826	53.59
399.035	102.74
399.244	186.71
399.453	160.08
399.663	72.02
399.872	143.7
400.081	100.69
400.29	174.42
400.499	61.78
400.708	139.6
400.917	74.07
401.127	61.78
401.336	45.4
401.545	151.89
401.754	94.55
401.963	119.12
402.172	72.02
402.381	-20.14
402.59	72.02
402.799	94.55
403.008	145.75
403.217	33.11
403.426	110.93
403.635	37.2
403.844	78.16
404.053	123.22
404.262	110.93
404.471	194.9
404.68	39.25
404.888	149.84
405.097	110.93
405.306	63.83
405.515	143.7
405.724	125.27
405.933	170.32
406.142	170.32
406.35	274.77
406.559	184.66
406.768	143.7
406.977	215.38
407.185	194.9
407.394	215.38
407.603	76.12
407.812	184.66
408.02	137.56
408.229	178.51
408.438	239.95
408.646	164.18
408.855	153.94
409.064	176.47
409.272	198.99
409.481	246.1
409.69	168.27
409.898	227.67
410.107	246.1
410.315	239.95
410.524	223.57
410.733	309.58
410.941	291.15
411.15	229.71
411.358	317.78
411.567	299.34
411.775	387.41
411.984	274.77
412.192	287.06
412.401	385.36
412.609	368.98
412.818	383.31
413.026	399.7
413.234	405.84
413.443	438.61
413.651	350.54
413.86	504.14
414.068	506.19
414.276	524.62
414.485	495.95
414.693	569.68
414.901	600.4
415.11	567.63
415.318	579.92
415.526	584.01
415.734	588.11
415.943	588.11
416.151	641.36
416.359	678.22
416.567	733.51
416.776	704.84
416.984	758.09
417.192	776.52
417.4	772.43
417.608	803.15
417.817	753.99
418.025	850.25
418.233	966.98
418.441	907.59
418.649	944.45
418.857	1075.52
419.065	995.65
419.273	1018.18
419.481	1085.76
419.689	1159.49
419.897	1194.31
420.105	1204.55
420.313	1292.61
420.521	1265.99
420.729	1296.71
420.937	1331.52
421.145	1290.56
421.353	1454.4
421.561	1513.79
421.769	1532.22
421.977	1634.62
422.185	1636.67
422.393	1773.88
422.601	1788.22
422.809	1708.35
423.017	1806.65
423.224	1841.47
423.432	1980.73
423.64	1866.04
423.848	2052.41
424.056	2138.42
424.263	2079.03
424.471	2193.72
424.679	2320.69
424.887	2345.27
425.094	2527.53
425.302	2470.19
425.51	2615.6
425.718	2525.49
425.925	2660.65
426.133	2742.57
426.341	2980.14
426.548	3045.67
426.756	3115.3
426.964	3158.31
427.171	3295.52
427.379	3387.68
427.586	3461.41
427.794	3531.04
428.001	3670.3
428.209	3873.05
428.417	3926.3
428.624	3995.93
428.832	4004.12
429.039	3995.93
429.247	3954.97
429.454	4434.19
429.662	4755.72
429.869	4366.61
430.076	4710.67
430.284	4595.98
430.491	4722.96
430.699	5077.26
430.906	5034.25
431.114	5214.47
431.321	5374.21
431.528	5449.99
431.736	5785.85
431.943	6119.67
432.15	5785.85
432.358	6015.23
432.565	6111.48
432.772	6187.25
432.979	6580.46
433.187	6613.23
433.394	6682.86
433.601	7035.11
433.808	7131.37
434.016	7084.27
434.223	7450.85
434.43	7596.26
434.637	7790.81
434.844	8255.7
435.052	8128.73
435.259	8288.47
435.466	8190.17
435.673	8335.57
435.88	8825.04
436.087	9359.56
436.294	9310.41
436.501	9027.79
436.708	9195.72
436.915	9472.2
437.122	10008.76
437.329	9949.37
437.537	10178.75
437.743	10258.62
437.95	10381.49
438.157	11065.52
438.364	11530.41
438.571	11274.41
438.778	11229.35
438.985	12347.54
439.192	11868.32
439.399	12214.43
439.606	12050.59
439.813	12605.59
440.02	13424.78
440.227	13082.77
440.433	13117.58
440.64	13496.46
440.847	13285.51
441.054	13605
441.261	14813.3
441.467	14559.35
441.674	14618.74
441.881	15247.47
442.088	15085.68
442.294	14944.37
442.501	15425.64
442.708	16040.03
442.914	16418.91
443.121	17080.4
443.328	16726.1
443.534	17713.22
443.741	17311.82
443.948	16941.14
444.154	18358.33
444.361	18438.2
444.568	18300.99
444.774	18444.35
444.981	18473.02
445.187	19157.04
445.394	20017.19
445.6	19648.55
445.807	21522.44
446.013	20637.72
446.22	20983.83
446.426	21991.43
446.633	21950.47
446.839	22564.86
447.046	21694.47
447.252	22958.07
447.459	22988.79
447.665	22595.58
447.871	23887.85
448.078	24621.02
448.284	23752.68
448.491	24405.98
448.697	25239.51
448.903	25528.27
449.11	25565.14
449.316	25030.62
449.522	25731.02
449.728	26388.42
449.935	26599.36
450.141	26161.09
450.347	27211.7
450.553	26058.7
450.76	26513.34
450.966	27223.99
451.172	27340.72
451.378	27797.42
451.584	26953.66
451.791	28100.52
451.997	27887.53
452.203	28473.25
452.409	28080.04
452.615	28065.71
452.821	26736.57
453.027	26423.23
453.233	27905.96
453.44	26929.08
453.646	27029.43
453.852	27428.79
454.058	27678.64
454.264	26523.58
454.47	27840.43
454.676	26990.52
454.882	27883.44
455.088	25186.26
455.294	25561.04
455.5	25757.64
455.705	26200.01
455.911	25020.38
456.117	24737.76
456.323	24377.31
456.529	23099.38
456.735	23877.61
456.941	23130.1
457.147	23136.24
457.352	22392.83
457.558	21934.09
457.764	22024.2
457.97	21653.51
458.176	20977.69
458.381	20998.16
458.587	20095.01
458.793	19875.88
458.999	19349.55
459.204	20477.98
459.41	19882.02
459.616	18432.06
459.821	18606.14
460.027	18520.12
460.233	18047.04
460.438	17297.49
460.644	17625.16
460.85	16496.73
461.055	16429.15
461.261	16183.39
461.466	14876.79
461.672	14696.57
461.878	15583.34
462.083	14930.03
462.289	14481.53
462.494	14180.48
462.7	13787.27
462.905	13314.19
463.111	13707.4
463.316	13766.79
463.522	13334.67
463.727	13326.47
463.932	13535.37
464.138	13338.76
464.343	13330.57
464.549	12832.91
464.754	13475.98
464.959	13301.9
465.165	13002.89
465.37	12656.79
465.575	12269.72
465.781	12748.95
465.986	12898.45
466.191	12503.19
466.397	12236.95
466.602	11765.92
466.807	12048.54
467.012	12138.65
467.218	12009.63
467.423	11690.15
467.628	11876.51
467.833	12497.05
468.038	12097.69
468.244	11858.08
468.449	12155.04
468.654	11600.04
468.859	11716.77
469.064	11720.87
469.269	11186.35
469.474	11145.39
469.679	11333.8
469.885	11368.62
470.09	11292.84
470.295	11141.29
470.5	10819.76
470.705	10926.25
470.91	10500.28
471.115	10479.8
471.32	10766.51
471.525	10610.87
471.73	10334.39
471.935	10289.34
472.139	10059.96
472.344	10166.46
472.549	10055.87
472.754	9902.27
472.959	9918.65
473.164	9631.94
473.369	9523.4
473.574	9697.47
473.778	9713.86
473.983	9644.23
474.188	9410.76
474.393	9248.97
474.598	9130.19
474.802	9423.05
475.007	9040.08
475.212	8923.34
475.417	8575.19
475.621	8749.26
475.826	8806.61
476.031	8521.94
476.235	8276.18
476.44	8620.24
476.645	8444.12
476.849	8386.77
477.054	8098.01
477.259	8122.59
477.463	8339.67
477.668	8044.76
477.872	8118.49
478.077	8018.14
478.282	7688.42
478.486	7801.05
478.691	7710.94
478.895	7729.38
479.1	7614.69
479.304	7674.08
479.509	7289.06
479.713	7524.58
479.918	7366.88
480.122	7188.71
480.326	7457
480.531	7276.77
480.735	7262.44
480.94	7256.29
481.144	7366.88
481.348	7153.9
481.553	7149.8
481.757	6981.87
481.961	7071.98
482.166	7201
482.37	7207.14
482.574	6863.08
482.778	7137.51
482.983	7141.61
483.187	7131.37
483.391	7067.88
483.595	6928.62
483.8	7059.69
484.004	7262.44
484.208	7268.58
484.412	7049.45
484.616	6959.34
484.821	7074.03
485.025	6842.6
485.229	7059.69
485.433	6772.97
485.637	6951.15
485.841	6924.52
486.045	6951.15
486.249	6838.51
486.453	6871.28
486.657	7065.83
486.861	7084.27
487.065	6996.2
487.269	6969.58
487.473	6834.41
487.677	7024.87
487.881	7104.74
488.085	7078.12
488.289	6899.95
488.493	7170.28
488.697	7250.15
488.901	7045.35
489.105	7076.07
489.309	6992.11
489.512	7088.36
489.716	6813.93
489.92	7028.97
490.124	7190.76
490.328	7291.11
490.531	7076.07
490.735	7166.18
490.939	7186.66
491.143	7162.09
491.346	7067.88
491.55	7340.26
491.754	7354.6
491.958	7411.94
492.161	7295.21
492.365	7387.36
492.569	7401.7
492.772	7334.12
492.976	7608.55
493.18	7395.56
493.383	7559.39
493.587	7631.07
493.79	7739.62
493.994	7760.09
494.197	7698.66
494.401	7864.54
494.605	7756
494.808	7991.52
495.012	7932.12
495.215	7944.41
495.419	7946.46
495.622	8018.14
495.825	8145.11
496.029	8173.78
496.232	8171.74
496.436	8224.98
496.639	8605.91
496.843	8302.81
497.046	8407.25
497.249	8872.14
497.453	8812.75
497.656	8913.1
497.859	8923.34
498.063	8763.6
498.266	9074.89
498.469	9083.08
498.673	9078.99
498.876	9408.71
499.079	9285.83
499.282	9326.79
499.485	9722.05
499.689	9584.84
499.892	9822.4
500.095	9826.5
500.298	10019
500.501	10019
500.705	10262.71
500.908	10318.01
501.111	10586.29
501.314	10617.01
501.517	10574
501.72	10936.49
501.923	10782.9
502.126	11083.95
502.329	11126.96
502.532	11034.8
502.735	11253.93
502.938	11442.34
503.141	11616.42
503.344	11851.94
503.547	11653.28
503.75	11845.79
503.953	12175.52
504.156	12085.4
504.359	12380.31
504.562	12355.74
504.765	12640.4
504.968	12652.69
505.17	12736.66
505.373	12974.22
505.576	12966.03
505.779	13281.42
505.982	13164.68
506.185	13492.36
506.387	13324.43
506.59	13504.65
506.793	13850.75
506.996	13717.64
507.198	14372.99
507.401	14284.92
507.604	14415.99
507.807	14899.31
508.009	14938.23
508.212	14841.97
508.415	14876.79
508.617	15161.45
508.82	15300.72
509.022	15396.97
509.225	15851.62
509.428	15812.71
509.63	15894.63
509.833	15962.21
510.035	16224.35
510.238	16271.45
510.44	16435.29
510.643	16885.84
510.845	16873.56
511.048	16797.78
511.25	16973.91
511.453	17199.18
511.655	17573.96
511.858	17649.74
512.06	17563.72
512.262	17983.55
512.465	17709.13
512.667	18280.51
512.87	18380.86
513.072	18559.03
513.274	19161.14
513.477	18942
513.679	19245.1
513.881	19107.89
514.084	19746.86
514.286	19482.67
514.488	19566.63
514.69	20045.86
514.893	20215.84
515.095	20049.96
515.297	20813.85
515.499	20621.34
515.701	20822.04
515.904	21131.28
516.106	21184.53
516.308	21434.38
516.51	21657.61
516.712	21635.08
516.914	21835.78
517.116	22157.32
517.318	22417.41
517.52	22142.98
517.722	22288.39
517.925	22859.77
518.127	23015.41
518.329	23263.22
518.531	23646.19
518.733	23711.72
518.935	23953.38
519.136	23758.83
519.338	24358.88
519.54	24547.29
519.742	24059.88
519.944	24502.24
520.146	24842.2
520.348	24901.59
520.55	25563.09
520.752	25386.96
520.954	25919.43
521.155	25634.77
521.357	25882.57
521.559	26118.09
521.761	26580.93
521.963	26308.55
522.164	26374.08
522.366	26867.64
522.568	27033.53
522.77	27160.5
522.971	27981.74
523.173	27332.53
523.375	27568.05
523.576	27533.23
523.778	27676.59
523.98	28149.67
524.181	28239.78
524.383	28155.82
524.584	28606.37
524.786	28608.42
524.988	28600.22
525.189	28960.67
525.391	28962.72
525.592	29165.46
525.794	29429.65
525.995	29343.64
526.197	29374.36
526.398	29456.28
526.6	29816.72
526.801	29855.63
527.003	30193.54
527.204	29767.57
527.406	30242.7
527.607	30314.37
527.808	30586.75
528.01	30461.83
528.211	30416.77
528.412	30680.96
528.614	31151.99
528.815	30889.85
529.016	30809.98
529.218	30842.75
529.419	30932.86
529.62	30936.96
529.822	31231.86
530.023	31180.67
530.224	31504.24
530.425	30906.24
530.626	30957.44
530.828	30756.74
531.029	31776.62
531.23	30992.25
531.431	31526.77
531.632	31307.64
531.833	31522.68
532.035	31612.79
532.236	31625.07
532.437	31774.58
532.638	31586.16
532.839	31715.19
533.04	31967.09
533.241	31561.59
533.442	32196.46
533.643	31987.57
533.844	31809.39
534.045	32130.92
534.246	31688.56
534.447	32159.59
534.648	31612.79
534.849	32087.92
535.05	31778.67
535.251	31944.56
535.451	31836.02
535.652	31586.16
535.853	31711.09
536.054	31983.47
536.255	31825.78
536.456	31719.28
536.657	32298.86
536.857	31743.86
537.058	31752.05
537.259	32139.11
537.46	31625.07
537.66	31956.85
537.861	31919.98
538.062	31809.39
538.263	31780.72
538.463	31948.65
538.664	31854.45
538.865	31862.64
539.065	32313.19
539.266	31682.42
539.466	32116.59
539.667	31676.27
539.868	32081.77
540.068	31786.86
540.269	32079.72
540.469	32026.48
540.67	31678.32
540.87	31608.69
541.071	31844.21
541.271	31848.3
541.472	31790.96
541.672	31496.05
541.873	31799.15
542.073	31256.44
542.274	31743.86
542.474	31928.17
542.675	31252.34
542.875	32092.01
543.075	32192.36
543.276	31434.61
543.476	31844.21
543.676	31426.42
543.877	31577.97
544.077	31715.19
544.277	31451
544.478	31385.46
544.678	31876.97
544.878	31297.4
545.078	31805.3
545.279	31287.16
545.479	31465.33
545.679	31870.83
545.879	31659.89
546.079	31469.43
546.28	31326.07
546.48	31231.86
546.68	31651.7
546.88	32003.95
547.08	31489.91
547.28	31434.61
547.48	31057.79
547.68	31336.31
547.88	31121.27
548.081	31745.9
548.281	31068.03
548.481	31373.17
548.681	31215.48
548.881	31467.38
549.081	31123.32
549.28	31111.03
549.48	31551.35
549.68	31459.19
549.88	32032.62
550.08	31082.36
550.28	31641.46
550.48	30961.53
550.68	31334.26
550.88	31373.17
551.08	31022.97
551.279	31168.38
551.479	31293.3
551.679	31192.95
551.879	31303.54
552.079	30986.11
552.278	30984.06
552.478	31082.36
552.678	31137.66
552.878	31213.43
553.077	31180.67
553.277	30945.15
553.477	31287.16
553.676	30930.81
553.876	31172.47
554.076	30879.61
554.275	31139.71
554.475	30277.51
554.674	30916.48
554.874	30711.68
555.074	30762.88
555.273	30893.95
555.473	30766.98
555.672	30584.71
555.872	30793.6
556.071	30701.44
556.271	30971.77
556.47	30379.91
556.67	30326.66
556.869	30392.2
557.068	30742.4
557.268	30510.98
557.467	30726.02
557.667	30367.62
557.866	30384.01
558.065	29976.46
558.265	30545.8
558.464	29958.03
558.663	30502.79
558.863	29962.12
559.062	30578.56
559.261	29837.2
559.461	30480.26
559.66	29872.01
559.859	30080.91
560.058	29714.32
560.258	29882.25
560.457	29863.82
560.656	30289.8
560.855	29943.69
561.054	29771.66
561.253	29376.41
561.453	30041.99
561.652	29923.21
561.851	29654.93
562.05	29239.19
562.249	29417.36
562.448	29597.59
562.647	29568.91
562.846	29474.71
563.045	29341.59
563.244	28958.62
563.443	29396.88
563.642	28891.04
563.841	29085.59
564.04	29018.01
564.239	29384.6
564.438	28917.66
564.637	29341.59
564.836	28843.93
565.035	28774.3
565.234	28712.86
565.432	28530.59
565.631	28524.45
565.83	28583.84
566.029	28495.78
566.228	28764.06
566.427	28444.58
566.625	28067.75
566.824	27664.3
567.023	28571.55
567.222	27742.13
567.42	28522.4
567.619	28196.78
567.818	28065.71
568.016	27889.58
568.215	28159.91
568.414	27762.61
568.612	28110.76
568.811	27682.73
569.01	27953.07
569.208	27340.72
569.407	27781.04
569.605	27371.44
569.804	27690.93
570.002	27514.8
570.201	27520.95
570.4	26894.27
570.598	27127.74
570.797	26918.84
570.995	27019.19
571.193	26730.43
571.392	27133.88
571.59	26795.96
571.789	26793.92
571.987	26456
572.186	26644.41
572.384	26697.66
572.582	26638.27
572.781	26425.28
572.979	26044.36
573.177	26267.59
573.376	26652.61
573.574	26157
573.772	26331.08
573.971	25987.02
574.169	25847.75
574.367	25630.67
574.565	26240.96
574.763	25755.6
574.962	25606.09
575.16	25423.83
575.358	25679.82
575.556	25472.98
575.754	25851.85
575.952	25362.39
576.151	25702.35
576.349	25130.97
576.547	25059.29
576.745	25409.49
576.943	25006.04
577.141	25001.94
577.339	25059.29
577.537	25223.12
577.735	24975.32
577.933	24692.7
578.131	25081.81
578.329	24725.47
578.527	24608.73
578.725	24532.96
578.923	24709.08
579.121	24584.16
579.319	24362.98
579.516	24377.31
579.714	24414.18
579.912	24111.08
580.11	24051.69
580.308	24276.96
580.506	24131.56
580.704	23807.98
580.901	23832.55
581.099	24293.35
581.297	23820.27
581.495	23623.66
581.692	23617.52
581.89	23205.88
582.088	23607.28
582.285	23433.2
582.483	23814.12
582.681	23220.21
582.878	23187.44
583.076	23222.26
583.274	23445.49
583.471	23074.81
583.669	22849.53
583.866	22847.48
584.064	23283.7
584.262	22589.44
584.459	23246.83
584.657	22779.9
584.854	22921.21
585.052	22681.6
585.249	22775.8
585.447	22644.73
585.644	22407.17
585.841	22233.09
586.039	22509.57
586.236	22224.9
586.434	22482.94
586.631	22216.71
586.828	22501.37
587.026	22110.21
587.223	22020.1
587.42	21936.13
587.618	22044.68
587.815	21690.38
588.012	21774.35
588.21	21579.79
588.407	21489.68
588.604	21663.75
588.801	21577.74
588.999	21471.25
589.196	21301.26
589.393	21317.65
589.59	21088.28
589.787	21078.04
589.984	21379.09
590.182	21022.74
590.379	20998.16
590.576	20914.2
590.773	20803.61
590.97	20881.43
591.167	20834.33
591.364	20721.69
591.561	20650.01
591.758	20758.55
591.955	20428.83
592.152	20873.24
592.349	20115.49
592.546	20535.32
592.743	20512.8
592.94	19847.21
593.137	20228.13
593.334	20285.47
593.531	19970.08
593.727	20207.65
593.924	20133.92
594.121	19793.96
594.318	20058.15
594.515	19601.45
594.712	19912.74
594.908	19687.46
595.105	20019.24
595.302	19234.86
595.499	19599.4
595.696	19257.39
595.892	19361.84
596.089	19431.47
596.286	19339.31
596.482	19271.73
596.679	19140.66
596.876	19154.99
597.072	18985.01
597.269	19333.17
597.466	18985.01
597.662	18853.94
597.859	18860.09
598.055	19038.26
598.252	18735.16
598.448	18524.22
598.645	18987.06
598.841	18532.41
599.038	18800.69
599.234	18755.64
599.431	18634.81
599.627	18401.34
599.824	18634.81
600.02	18149.44
600.217	18516.03
600.413	18153.54
600.609	18075.71
600.806	18247.74
601.002	18077.76
601.198	18065.47
601.395	17969.22
601.591	17852.48
601.787	17834.05
601.984	17717.32
602.18	18030.66
602.376	17719.37
602.572	17850.44
602.769	17561.67
602.965	17420.36
603.161	17424.46
603.357	17283.15
603.553	17262.67
603.75	17449.04
603.946	17197.13
604.142	17287.25
604.338	17117.26
604.534	17088.59
604.73	17109.07
604.926	16887.89
605.122	17176.66
605.318	16765.01
605.514	16767.06
605.71	16877.65
605.906	16924.76
606.102	16687.19
606.298	16719.96
606.494	16683.09
606.69	16679
606.886	16576.6
607.082	16453.72
607.278	16574.55
607.474	16169.05
607.67	16351.32
607.866	16175.2
608.062	16275.55
608.257	16406.62
608.453	16232.54
608.649	16054.37
608.845	16017.5
609.041	16226.4
609.236	16091.23
609.432	16130.14
609.628	15947.87
609.824	16040.03
610.019	15947.87
610.215	15843.43
610.411	15878.24
610.606	15890.53
610.802	15630.44
610.998	15925.35
611.193	15868
611.389	15722.6
611.584	15753.32
611.78	15476.84
611.976	15513.7
612.171	15618.15
612.367	15720.55
612.562	15517.8
612.758	14987.38
612.953	15421.55
613.149	15245.42
613.344	15186.03
613.539	15482.99
613.735	15317.1
613.93	15437.93
614.126	15108.21
614.321	15454.31
614.517	15073.39
614.712	15315.05
614.907	15112.3
615.103	15235.18
615.298	15011.95
615.493	15097.97
615.688	14952.56
615.884	15464.55
616.079	14979.18
616.274	15034.48
616.47	14774.39
616.665	14813.3
616.86	14884.98
617.055	14663.8
617.25	14766.2
617.445	14631.03
617.641	14608.5
617.836	14755.96
618.031	14407.8
618.226	14622.84
618.421	14659.7
618.616	14694.52
618.811	14286.97
619.006	14680.18
619.201	13828.23
619.396	14266.49
619.591	14200.96
619.786	14278.78
619.981	13887.62
620.176	14233.72
620.371	14143.61
620.566	14211.2
620.761	14053.5
620.956	14053.5
621.151	13826.18
621.346	13774.98
621.541	13754.5
621.735	13637.77
621.93	13389.96
622.125	13512.84
622.32	13213.84
622.515	13367.43
622.709	13070.48
622.904	13273.23
623.099	12976.27
623.294	13158.54
623.488	13080.72
623.683	12927.12
623.878	12728.47
624.072	12728.47
624.267	12697.75
624.462	12671.12
624.656	12472.47
624.851	12462.23
625.046	12484.76
625.24	12421.27
625.435	12374.17
625.629	12161.18
625.824	12224.67
626.018	12255.39
626.213	11958.43
626.407	12173.47
626.602	11714.72
626.796	11825.31
626.991	11995.29
627.185	11632.8
627.38	11745.44
627.574	11655.33
627.768	11604.13
627.963	11397.29
628.157	11417.77
628.352	11493.54
628.546	11212.97
628.74	11466.92
628.935	11129
629.129	11262.12
629.323	11223.21
629.517	10987.69
629.712	11049.13
629.906	10838.19
630.1	10791.09
630.294	10881.2
630.489	10875.06
630.683	10936.49
630.877	10506.42
631.071	10516.66
631.265	10569.91
631.459	10424.5
631.653	10307.77
631.848	10412.21
632.042	10569.91
632.236	10324.15
632.43	10207.42
632.624	10184.89
632.818	9900.22
633.012	9879.74
633.206	9939.13
633.4	10014.91
633.594	9869.5
633.788	9855.17
633.982	9902.27
634.176	9869.5
634.369	9568.45
634.563	9623.75
634.757	9674.95
634.951	9615.55
635.145	9392.33
635.339	9406.66
635.533	9396.42
635.726	9562.31
635.92	9502.92
636.114	9359.56
636.308	9199.82
636.501	9320.65
636.695	9228.49
636.889	9046.22
637.083	9087.18
637.276	8999.12
637.47	8843.47
637.664	8978.64
637.857	8949.96
638.051	8741.07
638.244	8573.14
638.438	8765.65
638.632	8831.18
638.825	8624.34
639.019	8767.7
639.212	8655.06
639.406	8566.99
639.599	8347.86
639.793	8517.84
639.986	8151.26
640.18	8222.94
640.373	8206.55
640.567	8057.05
640.76	8200.41
640.954	7930.08
641.147	8024.28
641.34	8020.19
641.534	8044.76
641.727	7964.89
641.92	7811.29
642.114	7950.56
642.307	7813.34
642.5	7885.02
642.694	7715.04
642.887	7649.5
643.08	7854.3
643.273	7633.12
643.467	7553.25
643.66	7506.15
643.853	7422.18
644.046	7424.23
644.239	7461.09
644.432	7487.72
644.626	7383.27
644.819	7297.25
645.012	7164.14
645.205	7268.58
645.398	7239.91
645.591	7237.86
645.784	7151.85
645.977	7063.79
646.17	7049.45
646.363	7041.26
646.556	6877.42
646.749	6992.11
646.942	6826.22
647.135	6867.18
647.328	6818.03
647.521	6770.93
647.714	6713.58
647.907	6715.63
648.099	6695.15
648.292	6648.05
648.485	6672.62
648.678	6471.92
648.871	6523.12
649.064	6371.57
649.256	6680.82
649.449	6537.46
649.642	6299.89
649.835	6408.44
650.027	6451.44
650.22	6426.87
650.413	6246.65
650.605	6283.51
650.798	6256.89
650.991	5974.27
651.183	6156.54
651.376	6152.44
651.568	6129.91
651.761	6277.37
651.954	6121.72
652.146	6052.09
652.339	5933.31
652.531	5802.24
652.724	5929.21
652.916	5835
653.109	5808.38
653.301	5941.5
653.494	5757.18
653.686	5624.06
653.879	5775.61
654.071	5568.77
654.263	5652.74
654.456	5769.47
654.648	5593.34
654.84	5601.54
655.033	5431.55
655.225	5452.03
655.417	5396.74
655.61	5462.27
655.802	5361.92
655.994	5261.57
656.186	5458.18
656.379	5380.36
656.571	5388.55
656.763	5216.52
656.955	5105.93
657.148	5122.31
657.34	5146.89
657.532	5181.7
657.724	5157.13
657.916	5210.37
658.108	5054.73
658.3	5107.98
658.492	5056.78
658.684	5079.3
658.876	5005.58
659.068	4872.46
659.26	5062.92
659.452	4952.33
659.644	5001.48
659.836	4800.78
660.028	4876.55
660.22	4757.77
660.412	4774.16
660.604	4706.57
660.796	4620.56
660.988	4628.75
661.18	4735.25
661.372	4677.9
661.563	4761.87
661.755	4561.17
661.947	4704.53
662.139	4757.77
662.331	4534.54
662.522	4452.63
662.714	4534.54
662.906	4403.47
663.097	4352.27
663.289	4370.71
663.481	4329.75
663.673	4489.49
663.864	4278.55
664.056	4342.04
664.247	4249.88
664.439	4296.98
664.631	4319.51
664.822	4374.8
665.014	4139.29
665.205	4204.82
665.397	4075.8
665.588	4165.91
665.78	4067.61
665.971	4127
666.163	4114.71
666.354	4131.09
666.546	4202.77
666.737	4057.37
666.929	4010.26
667.12	4016.41
667.311	4069.66
667.503	3936.54
667.694	3965.21
667.885	3881.24
668.077	3993.88
668.268	3823.9
668.459	3926.3
668.651	4086.04
668.842	3926.3
669.033	3752.22
669.224	3729.69
669.416	3766.56
669.607	3758.36
669.798	3758.36
669.989	3649.82
670.18	3764.51
670.371	3668.25
670.563	3750.17
670.754	3561.76
670.945	3582.24
671.136	3592.48
671.327	3559.71
671.518	3502.37
671.709	3588.38
671.9	3553.57
672.091	3582.24
672.282	3569.95
672.473	3402.02
672.664	3430.69
672.855	3516.7
673.046	3535.14
673.237	3494.18
673.428	3389.73
673.619	3432.74
673.809	3348.77
674	3330.34
674.191	3316
674.382	3279.14
674.573	3324.19
674.764	3359.01
674.954	3330.34
675.145	3311.91
675.336	3240.23
675.527	3334.43
675.717	3209.51
675.908	3254.56
676.099	3309.86
676.289	3316
676.48	3205.41
676.671	3217.7
676.861	3225.89
677.052	3098.92
677.243	3174.69
677.433	3238.18
677.624	3232.04
677.814	3107.11
678.005	3131.69
678.195	3164.45
678.386	3225.89
678.576	3031.34
678.767	3064.1
678.957	3168.55
679.148	3051.81
679.338	3131.69
679.529	3156.26
679.719	3088.68
679.909	3139.88
680.1	2957.61
680.29	2967.85
680.481	3158.31
680.671	3070.25
680.861	2873.64
681.052	2957.61
681.242	2988.33
681.432	3055.91
681.622	2965.8
681.813	2951.46
682.003	2885.93
682.193	2949.42
682.383	2869.55
682.573	2916.65
682.764	2947.37
682.954	2918.7
683.144	2853.16
683.334	2720.04
683.524	3006.76
683.714	2976.04
683.904	2890.03
684.094	2783.53
684.284	2806.06
684.474	2920.74
684.664	2744.62
684.854	2871.59
685.044	2754.86
685.234	2763.05
685.424	2697.52
685.614	2754.86
685.804	2771.24
685.994	2703.66
686.184	2644.27
686.374	2777.39
686.564	2756.91
686.753	2820.39
686.943	2545.97
687.133	2629.93
687.323	2631.98
687.513	2609.45
687.702	2615.6
687.892	2548.01
688.082	2679.08
688.272	2638.13
688.461	2580.78
688.651	2611.5
688.841	2541.87
689.03	2644.27
689.22	2521.39
689.41	2593.07
689.599	2490.67
689.789	2496.82
689.979	2611.5
690.168	2531.63
690.358	2490.67
690.547	2466.1
690.737	2541.87
690.926	2421.04
691.116	2451.76
691.305	2384.18
691.495	2416.94
691.684	2474.29
691.874	2453.81
692.063	2408.75
692.252	2353.46
692.442	2322.74
692.631	2359.6
692.82	2367.79
693.01	2408.75
693.199	2246.96
693.388	2423.09
693.578	2251.06
693.767	2306.35
693.956	2269.49
694.146	2308.4
694.335	2341.17
694.524	2244.92
694.713	2234.68
694.902	2220.34
695.092	2177.33
695.281	2349.36
695.47	2216.24
695.659	2281.78
695.848	2189.62
696.037	2138.42
696.226	2206
696.415	2134.32
696.604	2246.96
696.793	2107.7
696.982	2287.92
697.171	2160.95
697.36	2060.6
697.549	2115.89
697.738	2201.91
697.927	2203.96
698.116	2173.24
698.305	2167.09
698.494	2115.89
698.683	2193.72
698.872	2052.41
699.061	2238.77
699.25	2031.93
699.438	2156.85
699.627	2099.51
699.816	2285.87
700.005	2169.14
700.193	1997.11
700.382	2093.37
700.571	2091.32
700.76	2144.56
700.948	2101.56
701.137	2044.21
701.326	2058.55
701.514	2140.47
701.703	2072.89
701.892	2072.89
702.08	2079.03
702.269	2033.97
702.457	2009.4
702.646	2052.41
702.834	2103.61
703.023	2167.09
703.212	2081.08
703.4	2119.99
703.589	2013.49
703.777	2124.08
703.965	1947.96
704.154	2050.36
704.342	2101.56
704.531	1999.16
704.719	2054.45
704.907	2081.08
705.096	1950.01
705.284	1915.19
705.472	2056.5
705.661	2150.71
705.849	2042.17
706.037	2001.21
706.226	1999.16
706.414	1980.73
706.602	2003.25
706.79	2017.59
706.979	1980.73
707.167	2007.35
707.355	1997.11
707.543	1986.87
707.731	1974.58
707.919	1974.58
708.107	2074.93
708.296	1947.96
708.484	2001.21
708.672	1958.2
708.86	1978.68
709.048	2011.45
709.236	1933.62
709.424	1999.16
709.612	1859.9
709.8	1988.92
709.988	1945.91
710.176	2003.25
710.364	2017.59
710.551	1968.44
710.739	1995.06
710.927	1941.82
711.115	1947.96
711.303	1999.16
711.491	1935.67
711.679	2042.17
711.866	2009.4
712.054	1874.23
712.242	1894.71
712.43	2068.79
712.617	1939.77
712.805	1892.66
712.993	1997.11
713.181	2029.88
713.368	1894.71
713.556	1907
713.744	1892.66
713.931	2038.07
714.119	1929.53
714.306	1954.1
714.494	1956.15
714.682	1841.47
714.869	1933.62
715.057	1898.81
715.244	1913.14
715.432	1872.18
715.619	1904.95
715.807	1929.53
715.994	1919.29
716.182	1796.41
716.369	1962.3
716.556	1966.39
716.744	1796.41
716.931	1870.14
717.119	1874.23
717.306	1962.3
717.493	1968.44
717.681	1913.14
717.868	1886.52
718.055	1927.48
718.242	1974.58
718.43	1956.15
718.617	1810.75
718.804	2001.21
718.991	1839.42
719.179	1898.81
719.366	1874.23
719.553	1853.75
719.74	1880.38
719.927	1890.62
720.114	1859.9
720.301	1886.52
720.488	1919.29
720.676	1929.53
720.863	1896.76
721.05	1800.51
721.237	1786.17
721.424	1861.94
721.611	1898.81
721.798	1878.33
721.985	1816.89
722.172	1751.35
722.358	1726.78
722.545	1843.51
722.732	1904.95
722.919	1950.01
723.106	1917.24
723.293	1902.9
723.48	1837.37
723.667	1890.62
723.853	1849.66
724.04	1845.56
724.227	1837.37
724.414	1878.33
724.6	1870.14
724.787	1878.33
724.974	1898.81
725.161	1886.52
725.347	1780.03
725.534	1804.6
725.72	1825.08
725.907	1829.18
726.094	1753.4
726.28	1794.36
726.467	1812.79
726.653	1784.12
726.84	1775.93
727.027	1769.79
727.213	1718.59
727.4	1751.35
727.586	1849.66
727.773	1804.6
727.959	1849.66
728.145	1874.23
728.332	1616.19
728.518	1786.17
728.705	1841.47
728.891	1771.83
729.077	1734.97
729.264	1775.93
729.45	1726.78
729.636	1724.73
729.823	1726.78
730.009	1837.37
730.195	1755.45
730.382	1808.7
730.568	1911.1
730.754	1765.69
730.94	1788.22
731.126	1831.23
731.313	1796.41
731.499	1872.18
731.685	1757.5
731.871	1755.45
732.057	1757.5
732.243	1710.4
732.429	1825.08
732.615	1794.36
732.801	1732.92
732.987	1638.72
733.173	1730.87
733.359	1796.41
733.545	1775.93
733.731	1667.39
733.917	1878.33
734.103	1780.03
734.289	1876.28
734.475	1638.72
734.661	1859.9
734.847	1698.11
735.033	1771.83
735.219	1710.4
735.404	1782.07
735.59	1749.31
735.776	1792.31
735.962	1775.93
736.148	1708.35
736.333	1771.83
736.519	1628.48
736.705	1620.28
736.89	1767.74
737.076	1771.83
737.262	1689.92
737.447	1634.62
737.633	1800.51
737.819	1661.24
738.004	1755.45
738.19	1722.68
738.375	1696.06
738.561	1720.64
738.747	1763.64
738.932	1683.77
739.118	1804.6
739.303	1726.78
739.489	1616.19
739.674	1642.81
739.859	1687.87
740.045	1775.93
740.23	1628.48
740.416	1644.86
740.601	1734.97
740.786	1651
740.972	1624.38
741.157	1655.1
741.342	1616.19
741.528	1714.49
741.713	1605.95
741.898	1640.76
742.084	1614.14
742.269	1640.76
742.454	1552.7
742.639	1599.8
742.824	1548.61
743.01	1524.03
743.195	1700.16
743.38	1665.34
743.565	1487.17
743.75	1591.61
743.935	1597.76
744.12	1628.48
744.305	1608
744.49	1550.65
744.675	1587.52
744.86	1548.61
745.045	1462.59
745.23	1423.68
745.415	1505.6
745.6	1521.98
745.785	1593.66
745.97	1560.89
746.155	1466.69
746.34	1628.48
746.525	1423.68
746.71	1481.02
746.895	1519.93
747.079	1462.59
747.264	1521.98
747.449	1429.82
747.634	1481.02
747.819	1411.39
748.003	1395.01
748.188	1374.53
748.373	1349.95
748.557	1433.92
748.742	1405.25
748.927	1354.05
749.111	1392.96
749.296	1378.62
749.481	1427.78
749.665	1270.08
749.85	1358.14
750.034	1323.33
750.219	1247.55
750.404	1321.28
750.588	1352
750.773	1272.13
750.957	1249.6
751.141	1249.6
751.326	1300.8
751.51	1200.45
751.695	1261.89
751.879	1192.26
752.064	1222.98
752.248	1225.03
752.432	1315.14
752.617	1313.09
752.801	1214.79
752.985	1169.73
753.17	1208.64
753.354	1159.49
753.538	1153.35
753.722	1126.72
753.907	1143.11
754.091	1159.49
754.275	1073.48
754.459	1120.58
754.643	1208.64
754.828	1106.24
755.012	1053
755.196	1087.81
755.38	1184.07
755.564	1104.2
755.748	1098.05
755.932	1091.91
756.116	993.61
756.3	1030.47
756.484	948.55
756.668	1005.89
756.852	917.83
757.036	1028.42
757.22	1063.24
757.404	985.41
757.588	993.61
757.772	1007.94
757.956	1007.94
758.14	1003.85
758.323	997.7
758.507	1007.94
758.691	946.5
758.875	991.56
759.059	964.93
759.242	1009.99
759.426	930.12
759.61	940.36
759.794	950.6
759.977	934.22
760.161	1055.05
760.345	887.11
760.528	954.69
760.712	846.15
760.895	825.67
761.079	858.44
761.263	883.02
761.446	856.39
761.63	905.54
761.813	915.78
761.997	901.45
762.18	946.5
762.364	821.58
762.547	868.68
762.731	872.78
762.914	858.44
763.098	831.82
763.281	917.83
763.464	835.91
763.648	809.29
763.831	719.18
764.015	801.1
764.198	770.38
764.381	784.71
764.564	835.91
764.748	842.06
764.931	823.62
765.114	880.97
765.297	829.77
765.481	848.2
765.664	753.99
765.847	801.1
766.03	784.71
766.213	848.2
766.397	811.34
766.58	721.23
766.763	743.75
766.946	797
767.129	721.23
767.312	772.43
767.495	696.65
767.678	774.47
767.861	766.28
768.044	694.6
768.227	733.51
768.41	735.56
768.593	747.85
768.776	792.91
768.959	717.13
769.142	721.23
769.324	710.99
769.507	684.36
769.69	764.23
769.873	719.18
770.056	735.56
770.239	678.22
770.421	784.71
770.604	731.47
770.787	663.88
770.97	708.94
771.152	586.06
771.335	727.37
771.518	682.31
771.7	747.85
771.883	692.55
772.066	635.21
772.248	674.12
772.431	731.47
772.613	643.4
772.796	672.08
772.978	645.45
773.161	758.09
773.343	680.27
773.526	612.68
773.708	614.73
773.891	633.16
774.073	667.98
774.256	653.64
774.438	608.59
774.621	719.18
774.803	674.12
774.985	559.44
775.168	688.46
775.35	600.4
775.532	584.01
775.715	508.24
775.897	688.46
776.079	547.15
776.261	651.6
776.444	594.25
776.626	604.49
776.808	579.92
776.99	584.01
777.173	598.35
777.355	549.2
777.537	573.77
777.719	510.29
777.901	614.73
778.083	573.77
778.265	534.86
778.447	512.33
778.629	551.24
778.811	502.09
778.993	454.99
779.175	538.96
779.357	483.66
779.539	541.01
779.721	510.29
779.903	518.48
780.085	457.04
780.267	495.95
780.449	508.24
780.631	436.56
780.812	461.13
780.994	475.47
781.176	438.61
781.358	440.65
781.54	448.85
781.721	534.86
781.903	495.95
782.085	481.61
782.267	479.57
782.448	422.22
782.63	432.46
782.812	432.46
782.993	352.59
783.175	432.46
783.357	465.23
783.538	393.55
783.72	440.65
783.901	393.55
784.083	432.46
784.264	375.12
784.446	473.42
784.627	401.74
784.809	385.36
784.99	438.61
785.172	426.32
785.353	332.11
785.535	403.79
785.716	395.6
785.897	381.26
786.079	411.98
786.26	371.02
786.441	334.16
786.623	377.17
786.804	364.88
786.985	340.3
787.167	291.15
787.348	315.73
787.529	289.1
787.71	299.34
787.891	383.31
788.073	301.39
788.254	272.72
788.435	373.07
788.616	366.93
788.797	350.54
788.978	350.54
789.159	315.73
789.34	336.21
789.522	305.49
789.703	282.96
789.884	362.83
790.065	323.92
790.246	368.98
790.427	340.3
790.607	311.63
790.788	244.05
790.969	309.58
791.15	268.63
791.331	301.39
791.512	321.87
791.693	295.25
791.874	250.19
792.054	256.34
792.235	180.56
792.416	266.58
792.597	276.82
792.778	301.39
792.958	305.49
793.139	371.02
793.32	201.04
793.5	239.95
793.681	250.19
793.862	227.67
794.042	348.5
794.223	252.24
794.404	237.91
794.584	205.14
794.765	229.71
794.945	213.33
795.126	297.3
795.306	340.3
795.487	256.34
795.667	256.34
795.848	260.43
796.028	231.76
796.209	340.3
796.389	182.61
796.57	323.92
796.75	252.24
796.93	260.43
797.111	223.57
797.291	186.71
797.471	303.44
797.652	250.19
797.832	315.73
798.012	221.52
798.192	168.27
798.373	162.13
798.553	149.84
798.733	213.33
798.913	317.78
799.093	252.24
799.274	260.43
799.454	246.1
799.634	242
799.814	246.1
799.994	291.15
800.174	217.43
800.354	213.33
800.534	213.33
800.714	205.14
800.894	215.38
801.074	211.28
801.254	151.89
801.434	219.47
801.614	258.39
801.794	162.13
801.974	600.4
802.154	174.42
802.334	239.95
802.514	143.7
802.693	184.66
802.873	164.18
803.053	280.91
803.233	194.9
803.413	194.9
803.592	231.76
803.772	106.84
803.952	188.75
804.131	260.43
804.311	180.56
804.491	299.34
804.67	149.84
804.85	147.8
805.03	213.33
805.209	164.18
805.389	153.94
805.568	174.42
805.748	215.38
805.928	174.42
806.107	231.76
806.287	110.93
806.466	145.75
806.646	170.32
806.825	205.14
807.004	188.75
807.184	147.8
807.363	170.32
807.543	115.03
807.722	149.84
807.901	176.47
808.081	233.81
808.26	125.27
808.439	131.41
808.619	78.16
808.798	98.64
808.977	121.17
809.156	153.94
809.336	147.8
809.515	225.62
809.694	178.51
809.873	188.75
810.052	203.09
810.231	172.37
810.411	137.56
810.59	143.7
810.769	145.75
810.948	121.17
811.127	92.5
811.306	151.89
811.485	121.17
811.664	137.56
811.843	158.03
812.022	211.28
812.201	90.45
812.38	229.71
812.559	133.46
812.737	139.6
812.916	186.71
813.095	139.6
813.274	149.84
813.453	145.75
813.632	135.51
813.811	112.98
813.989	119.12
814.168	141.65
814.347	207.19
814.526	172.37
814.704	176.47
814.883	186.71
815.062	143.7
815.24	96.6
815.419	137.56
815.598	102.74
815.776	41.3
815.955	112.98
816.133	149.84
816.312	158.03
816.49	84.31
816.669	125.27
816.847	90.45
817.026	143.7
817.204	117.08
817.383	69.97
817.561	104.79
817.74	239.95
817.918	104.79
818.097	108.88
818.275	127.32
818.453	92.5
818.632	121.17
818.81	94.55
818.988	135.51
819.167	106.84
819.345	67.92
819.523	110.93
819.701	53.59
819.879	110.93
820.058	96.6
820.236	63.83
820.414	112.98
820.592	108.88
820.77	100.69
820.948	92.5
821.127	65.88
821.305	151.89
821.483	137.56
821.661	129.36
821.839	110.93
822.017	137.56
822.195	131.41
822.373	158.03
822.551	86.36
822.729	104.79
822.907	145.75
823.085	53.59
823.262	90.45
823.44	137.56
823.618	127.32
823.796	76.12
823.974	74.07
824.152	18.77
824.329	80.21
824.507	112.98
824.685	92.5
824.863	106.84
825.04	74.07
825.218	106.84
825.396	135.51
825.574	57.68
825.751	100.69
825.929	67.92
826.107	20.82
826.284	108.88
826.462	178.51
826.639	29.01
826.817	67.92
826.994	86.36
827.172	49.49
827.349	112.98
827.527	131.41
827.704	110.93
827.882	102.74
828.059	100.69
828.237	98.64
828.414	151.89
828.591	61.78
828.769	139.6
828.946	49.49
829.124	121.17
829.301	139.6
829.478	61.78
829.655	65.88
829.833	65.88
830.01	96.6
830.187	55.64
830.364	51.54
830.542	55.64
830.719	141.65
830.896	106.84
831.073	137.56
831.25	55.64
831.427	149.84
831.604	78.16
831.782	63.83
831.959	74.07
832.136	39.25
832.313	24.92
832.49	76.12
832.667	131.41
832.844	82.26
833.021	61.78
833.198	55.64
833.374	51.54
833.551	84.31
833.728	26.96
833.905	69.97
834.082	22.87
834.259	16.73
834.436	12.63
834.612	86.36
834.789	110.93
834.966	31.06
835.143	145.75
835.319	82.26
835.496	41.3
835.673	117.08
835.85	106.84
836.026	106.84
836.203	115.03
836.38	82.26
836.556	94.55
836.733	24.92
836.909	127.32
837.086	57.68
837.262	43.35
837.439	98.64
837.616	125.27
837.792	137.56
837.968	86.36
838.145	49.49
838.321	63.83
838.498	76.12
838.674	72.02
838.851	88.4
839.027	29.01
839.203	47.44
839.38	65.88
839.556	45.4
839.732	69.97
839.909	59.73
840.085	53.59
840.261	92.5
840.437	18.77
840.614	20.82
840.79	98.64
840.966	31.06
841.142	12.63
841.318	18.77
841.494	102.74
841.671	41.3
841.847	-26.28
842.023	-1.71
842.199	125.27
842.375	84.31
842.551	18.77
842.727	41.3
842.903	59.73
843.079	47.44
843.255	98.64
843.431	-38.57
843.607	43.35
843.783	57.68
843.959	6.49
844.134	29.01
844.31	131.41
844.486	20.82
844.662	37.2
844.838	100.69
845.013	127.32
845.189	6.49
845.365	61.78
845.541	10.58
845.716	12.63
845.892	55.64
846.068	49.49
846.244	47.44
846.419	26.96
846.595	-40.62
846.77	2.39
846.946	16.73
847.122	31.06
847.297	82.26
847.473	96.6
847.648	35.16
847.824	55.64
847.999	-13.99
848.175	-16.04
848.35	80.21
848.526	35.16
848.701	121.17
848.876	59.73
849.052	53.59
849.227	43.35
849.403	-11.95
849.578	67.92
849.753	20.82
849.929	86.36
850.104	88.4
850.279	82.26
850.454	14.68
850.63	51.54
850.805	35.16
850.98	67.92
851.155	-50.86
851.33	59.73
851.505	10.58
851.681	84.31
851.856	67.92
852.031	74.07
852.206	69.97
852.381	-5.8
852.556	29.01
852.731	55.64
852.906	49.49
853.081	82.26
853.256	143.7
853.431	92.5
853.606	31.06
853.781	-22.19
853.956	-9.9
854.131	115.03
854.305	-59.05
854.48	-3.75
854.655	6.49
854.83	-38.57
855.005	43.35
855.18	39.25
855.354	67.92
855.529	92.5
855.704	100.69
855.879	41.3
856.053	10.58
856.228	26.96
856.403	35.16
856.577	35.16
856.752	108.88
856.926	123.22
857.101	78.16
857.276	47.44
857.45	16.73
857.625	16.73
857.799	47.44
857.974	31.06
858.148	96.6
858.323	35.16
858.497	20.82
858.672	59.73
858.846	92.5
859.02	143.7
859.195	35.16
859.369	29.01
859.543	51.54
859.718	39.25
859.892	41.3
860.066	45.4
860.241	53.59
860.415	-5.8
860.589	12.63
860.763	63.83
860.938	-9.9
861.112	33.11
861.286	35.16
861.46	43.35
861.634	-1.71
861.808	55.64
861.982	59.73
862.157	-9.9
862.331	-18.09
862.505	-18.09
862.679	57.68
862.853	49.49
863.027	-38.57
863.201	104.79
863.375	20.82
863.549	84.31
863.722	-13.99
863.896	63.83
864.07	2.39
864.244	14.68
864.418	55.64
864.592	29.01
864.766	92.5
864.939	-11.95
865.113	16.73
865.287	51.54
865.461	-7.85
865.634	45.4
865.808	31.06
865.982	72.02
866.156	22.87
866.329	26.96
866.503	41.3
866.676	61.78
866.85	84.31
867.024	31.06
867.197	14.68
867.371	4.44
867.544	39.25
867.718	26.96
867.891	6.49
868.065	24.92
868.238	4.44
868.412	55.64
868.585	43.35
868.759	43.35
868.932	-36.52
869.105	4.44
869.279	-5.8
869.452	29.01
869.625	-50.86
869.799	49.49
869.972	-52.91
870.145	35.16
870.319	29.01
870.492	43.35
870.665	-11.95
870.838	-5.8
871.011	-11.95
871.185	59.73
871.358	98.64
871.531	51.54
871.704	-77.48
871.877	39.25
872.05	63.83
872.223	-5.8
872.396	43.35
872.569	65.88
872.742	4.44
872.915	43.35
873.088	-5.8
873.261	63.83
873.434	31.06
873.607	-13.99
873.78	65.88
873.953	67.92
874.126	-30.38
874.299	10.58
874.471	31.06
874.644	-9.9
874.817	-46.76
874.99	55.64
875.163	12.63
875.335	63.83
875.508	53.59
875.681	69.97
875.853	47.44
876.026	88.4
876.199	82.26
876.371	96.6
876.544	53.59
876.717	-11.95
876.889	-3.75
877.062	20.82
877.234	26.96
877.407	-22.19
877.579	2.39
877.752	26.96
877.924	8.53
878.097	39.25
878.269	35.16
878.442	57.68
878.614	12.63
878.786	80.21
878.959	-9.9
879.131	69.97
879.303	-18.09
879.476	-32.43
879.648	-16.04
879.82	4.44
879.993	4.44
880.165	20.82
880.337	12.63
880.509	96.6
880.681	0.34
880.854	10.58
881.026	-3.75
881.198	49.49
881.37	-1.71
881.542	37.2
881.714	76.12
881.886	31.06
882.058	65.88
882.23	-3.75
882.402	-16.04
882.574	55.64
882.746	-5.8
882.918	76.12
883.09	41.3
883.262	14.68
883.434	29.01
883.606	18.77
883.778	-18.09
883.95	59.73
884.122	61.78
884.293	-7.85
884.465	-42.67
884.637	-46.76
884.809	12.63
884.98	-57
885.152	-9.9
885.324	67.92
885.496	16.73
885.667	22.87
885.839	-54.95
886.011	-32.43
886.182	29.01
886.354	8.53
886.525	76.12
886.697	-24.23
886.869	2.39
887.04	-11.95
887.212	41.3
887.383	31.06
887.555	-1.71
887.726	8.53
887.897	0.34
888.069	80.21
888.24	98.64
888.412	69.97
888.583	31.06
888.754	26.96
888.926	-61.1
889.097	41.3
889.268	-22.19
889.44	31.06
889.611	24.92
889.782	37.2
889.953	16.73
890.125	37.2
890.296	16.73
890.467	20.82
890.638	20.82
890.809	47.44
890.98	22.87
891.151	-11.95
891.323	45.4
891.494	-7.85
891.665	61.78
891.836	-7.85
892.007	-5.8
892.178	26.96
892.349	55.64
892.52	8.53
892.691	-11.95
892.862	-13.99
893.032	8.53
893.203	-18.09
893.374	16.73
893.545	10.58
893.716	-30.38
893.887	67.92
894.057	-7.85
894.228	59.73
894.399	6.49
894.57	51.54
894.74	94.55
894.911	47.44
895.082	72.02
895.253	31.06
895.423	-26.28
895.594	53.59
895.764	-122.54
895.935	6.49
896.106	31.06
896.276	10.58
896.447	18.77
896.617	-5.8
896.788	-40.62
896.958	24.92
897.129	-5.8
897.299	-9.9
897.47	14.68
897.64	33.11
897.81	41.3
897.981	12.63
898.151	-69.29
898.322	102.74
898.492	20.82
898.662	6.49
898.832	-26.28
899.003	8.53
899.173	-13.99
899.343	12.63
899.513	24.92
