Data from USB4F104151__120__11-07-25-977.txt Node

Date: Wed Mar 12 11:07:25 EDT 2025
User: louis
Spectrometer: USB4F10415
Trigger mode: 4
Integration Time (sec): 2.000000E-2
Scans to average: 1
Electric dark correction enabled: true
Nonlinearity correction enabled: false
Boxcar width: 0
XAxis mode: Wavelengths
Number of Pixels in Spectrum: 3648
>>>>>Begin Spectral Data<<<<<
178.204	-1.37
178.424	-1.37
178.644	-1.37
178.864	-81.24
179.084	-64.85
179.304	58.03
179.524	-50.52
179.744	-27.99
179.964	12.97
180.184	-1.37
180.404	-17.75
180.624	51.88
180.844	23.21
181.064	12.97
181.283	-5.46
181.503	-19.8
181.723	-36.18
181.943	-11.61
182.163	45.74
182.383	-13.65
182.602	58.03
182.822	-46.42
183.042	72.36
183.262	-15.7
183.482	64.17
183.701	49.83
183.921	-34.13
184.141	39.59
184.361	-27.99
184.58	10.92
184.8	-11.61
185.02	70.31
185.239	-9.56
185.459	45.74
185.679	53.93
185.898	-3.41
186.118	47.79
186.338	111.27
186.557	25.26
186.777	-36.18
186.997	-5.46
187.216	41.64
187.436	64.17
187.655	53.93
187.875	-36.18
188.095	4.78
188.314	43.69
188.534	58.03
188.753	15.02
188.973	-9.56
189.192	62.12
189.412	-32.08
189.631	76.46
189.851	41.64
190.07	70.31
190.29	39.59
190.509	72.36
190.729	17.07
190.948	51.88
191.168	111.27
191.387	68.27
191.607	-36.18
191.826	45.74
192.045	-3.41
192.265	-27.99
192.484	12.97
192.704	4.78
192.923	-32.08
193.142	19.11
193.362	12.97
193.581	76.46
193.8	64.17
194.02	127.66
194.239	80.55
194.458	103.08
194.678	35.5
194.897	4.78
195.116	-32.08
195.335	-5.46
195.555	45.74
195.774	88.75
195.993	12.97
196.212	51.88
196.432	0.68
196.651	103.08
196.87	-46.42
197.089	111.27
197.308	10.92
197.528	70.31
197.747	60.07
197.966	76.46
198.185	37.55
198.404	103.08
198.623	29.35
198.842	31.4
199.062	-66.9
199.281	96.94
199.5	-9.56
199.719	17.07
199.938	29.35
200.157	64.17
200.376	58.03
200.595	72.36
200.814	23.21
201.033	80.55
201.252	72.36
201.471	10.92
201.69	10.92
201.909	23.21
202.128	12.97
202.347	55.98
202.566	15.02
202.785	90.79
203.004	4.78
203.223	101.03
203.442	45.74
203.661	4.78
203.879	125.61
204.098	-21.84
204.317	2.73
204.536	68.27
204.755	-54.61
204.974	55.98
205.193	21.16
205.411	47.79
205.63	96.94
205.849	41.64
206.068	58.03
206.287	12.97
206.505	66.22
206.724	19.11
206.943	-79.19
207.162	21.16
207.381	2.73
207.599	6.83
207.818	6.83
208.037	12.97
208.255	64.17
208.474	53.93
208.693	-1.37
208.911	64.17
209.13	55.98
209.349	90.79
209.567	41.64
209.786	98.99
210.005	55.98
210.223	-42.32
210.442	-1.37
210.661	15.02
210.879	17.07
211.098	101.03
211.316	45.74
211.535	80.55
211.753	0.68
211.972	111.27
212.191	-27.99
212.409	60.07
212.628	74.41
212.846	-46.42
213.065	53.93
213.283	101.03
213.502	-60.76
213.72	-46.42
213.938	68.27
214.157	84.65
214.375	12.97
214.594	23.21
214.812	47.79
215.031	29.35
215.249	-34.13
215.467	29.35
215.686	82.6
215.904	68.27
216.122	86.7
216.341	-7.51
216.559	-11.61
216.778	-3.41
216.996	-13.65
217.214	29.35
217.432	-30.04
217.651	-15.7
217.869	15.02
218.087	45.74
218.306	19.11
218.524	70.31
218.742	64.17
218.96	15.02
219.179	53.93
219.397	64.17
219.615	64.17
219.833	-25.94
220.051	25.26
220.27	60.07
220.488	64.17
220.706	78.51
220.924	2.73
221.142	39.59
221.36	15.02
221.578	25.26
221.796	62.12
222.015	12.97
222.233	82.6
222.451	98.99
222.669	8.87
222.887	62.12
223.105	-19.8
223.323	66.22
223.541	-5.46
223.759	15.02
223.977	39.59
224.195	64.17
224.413	60.07
224.631	-11.61
224.849	84.65
225.067	17.07
225.285	2.73
225.503	45.74
225.721	31.4
225.939	-5.46
226.157	43.69
226.375	127.66
226.592	-34.13
226.81	66.22
227.028	49.83
227.246	129.7
227.464	17.07
227.682	60.07
227.9	21.16
228.117	105.13
228.335	45.74
228.553	84.65
228.771	51.88
228.989	49.83
229.206	119.46
229.424	29.35
229.642	25.26
229.86	21.16
230.077	58.03
230.295	12.97
230.513	53.93
230.731	10.92
230.948	86.7
231.166	51.88
231.384	-13.65
231.601	10.92
231.819	105.13
232.037	33.45
232.254	53.93
232.472	76.46
232.689	45.74
232.907	0.68
233.125	-36.18
233.342	80.55
233.56	43.69
233.777	33.45
233.995	27.31
234.213	80.55
234.43	45.74
234.648	31.4
234.865	-25.94
235.083	12.97
235.3	19.11
235.518	47.79
235.735	53.93
235.953	53.93
236.17	139.94
236.388	66.22
236.605	60.07
236.822	39.59
237.04	-1.37
237.257	45.74
237.475	-17.75
237.692	17.07
237.909	53.93
238.127	33.45
238.344	45.74
238.562	17.07
238.779	33.45
238.996	4.78
239.214	107.18
239.431	78.51
239.648	-1.37
239.865	29.35
240.083	35.5
240.3	58.03
240.517	41.64
240.735	43.69
240.952	88.75
241.169	80.55
241.386	72.36
241.603	60.07
241.821	21.16
242.038	96.94
242.255	-11.61
242.472	35.5
242.689	19.11
242.907	49.83
243.124	64.17
243.341	25.26
243.558	-27.99
243.775	-11.61
243.992	72.36
244.209	60.07
244.426	49.83
244.643	51.88
244.86	43.69
245.078	62.12
245.295	96.94
245.512	39.59
245.729	43.69
245.946	72.36
246.163	29.35
246.38	35.5
246.597	86.7
246.814	152.23
247.031	55.98
247.248	45.74
247.464	47.79
247.681	31.4
247.898	64.17
248.115	70.31
248.332	-1.37
248.549	23.21
248.766	29.35
248.983	4.78
249.2	82.6
249.417	-3.41
249.633	55.98
249.85	66.22
250.067	55.98
250.284	33.45
250.501	98.99
250.717	15.02
250.934	-9.56
251.151	88.75
251.368	72.36
251.585	68.27
251.801	41.64
252.018	55.98
252.235	25.26
252.451	25.26
252.668	-17.75
252.885	29.35
253.102	6.83
253.318	47.79
253.535	47.79
253.752	41.64
253.968	92.84
254.185	15.02
254.401	72.36
254.618	41.64
254.835	70.31
255.051	176.81
255.268	68.27
255.484	80.55
255.701	47.79
255.917	152.23
256.134	-66.9
256.351	33.45
256.567	-5.46
256.784	60.07
257	35.5
257.217	64.17
257.433	23.21
257.65	35.5
257.866	113.32
258.082	35.5
258.299	62.12
258.515	10.92
258.732	23.21
258.948	4.78
259.165	39.59
259.381	-23.89
259.597	-52.56
259.814	-3.41
260.03	23.21
260.246	4.78
260.463	55.98
260.679	84.65
260.895	37.55
261.112	62.12
261.328	23.21
261.544	47.79
261.761	72.36
261.977	25.26
262.193	47.79
262.409	45.74
262.626	58.03
262.842	101.03
263.058	0.68
263.274	23.21
263.49	39.59
263.707	62.12
263.923	68.27
264.139	117.42
264.355	-7.51
264.571	107.18
264.787	29.35
265.004	23.21
265.22	6.83
265.436	-3.41
265.652	105.13
265.868	115.37
266.084	6.83
266.3	17.07
266.516	-23.89
266.732	131.75
266.948	10.92
267.164	53.93
267.38	109.23
267.596	62.12
267.812	103.08
268.028	37.55
268.244	49.83
268.46	109.23
268.676	21.16
268.892	49.83
269.108	72.36
269.324	23.21
269.54	49.83
269.756	31.4
269.972	80.55
270.188	78.51
270.403	29.35
270.619	-44.37
270.835	72.36
271.051	55.98
271.267	29.35
271.483	2.73
271.698	-13.65
271.914	123.56
272.13	47.79
272.346	35.5
272.562	55.98
272.777	0.68
272.993	31.4
273.209	-11.61
273.425	55.98
273.64	-1.37
273.856	68.27
274.072	4.78
274.287	47.79
274.503	72.36
274.719	27.31
274.934	80.55
275.15	68.27
275.366	58.03
275.581	109.23
275.797	0.68
276.012	10.92
276.228	23.21
276.444	96.94
276.659	53.93
276.875	90.79
277.09	76.46
277.306	86.7
277.521	68.27
277.737	-1.37
277.952	55.98
278.168	80.55
278.383	94.89
278.599	60.07
278.814	150.18
279.03	64.17
279.245	88.75
279.461	64.17
279.676	0.68
279.892	55.98
280.107	19.11
280.322	2.73
280.538	125.61
280.753	-1.37
280.969	72.36
281.184	-1.37
281.399	37.55
281.615	39.59
281.83	84.65
282.045	47.79
282.26	31.4
282.476	29.35
282.691	31.4
282.906	39.59
283.122	51.88
283.337	41.64
283.552	39.59
283.767	33.45
283.983	86.7
284.198	58.03
284.413	103.08
284.628	68.27
284.843	39.59
285.058	119.46
285.274	53.93
285.489	31.4
285.704	78.51
285.919	23.21
286.134	47.79
286.349	17.07
286.564	33.45
286.779	-1.37
286.995	96.94
287.21	35.5
287.425	66.22
287.64	-17.75
287.855	76.46
288.07	-5.46
288.285	64.17
288.5	62.12
288.715	72.36
288.93	15.02
289.145	8.87
289.36	10.92
289.575	70.31
289.79	53.93
290.004	-17.75
290.219	82.6
290.434	-3.41
290.649	74.41
290.864	82.6
291.079	-17.75
291.294	68.27
291.509	92.84
291.724	49.83
291.938	47.79
292.153	68.27
292.368	82.6
292.583	86.7
292.798	72.36
293.012	84.65
293.227	45.74
293.442	-42.32
293.657	101.03
293.871	17.07
294.086	47.79
294.301	98.99
294.516	2.73
294.73	31.4
294.945	27.31
295.16	-5.46
295.374	31.4
295.589	72.36
295.804	12.97
296.018	68.27
296.233	96.94
296.447	8.87
296.662	2.73
296.877	8.87
297.091	39.59
297.306	78.51
297.52	6.83
297.735	92.84
297.949	19.11
298.164	-13.65
298.378	43.69
298.593	33.45
298.807	27.31
299.022	72.36
299.236	96.94
299.451	-21.84
299.665	-9.56
299.88	-7.51
300.094	82.6
300.309	74.41
300.523	68.27
300.737	8.87
300.952	31.4
301.166	12.97
301.381	35.5
301.595	105.13
301.809	33.45
302.024	76.46
302.238	88.75
302.452	92.84
302.667	31.4
302.881	82.6
303.095	37.55
303.309	68.27
303.524	82.6
303.738	96.94
303.952	10.92
304.166	-3.41
304.381	27.31
304.595	107.18
304.809	39.59
305.023	94.89
305.237	58.03
305.452	127.66
305.666	-5.46
305.88	78.51
306.094	64.17
306.308	41.64
306.522	43.69
306.736	21.16
306.95	43.69
307.164	78.51
307.379	-17.75
307.593	86.7
307.807	45.74
308.021	12.97
308.235	60.07
308.449	-5.46
308.663	72.36
308.877	96.94
309.091	10.92
309.305	60.07
309.519	105.13
309.733	37.55
309.947	12.97
310.161	62.12
310.374	19.11
310.588	51.88
310.802	19.11
311.016	94.89
311.23	29.35
311.444	21.16
311.658	166.57
311.872	92.84
312.085	31.4
312.299	49.83
312.513	55.98
312.727	64.17
312.941	43.69
313.154	27.31
313.368	23.21
313.582	96.94
313.796	115.37
314.009	29.35
314.223	43.69
314.437	88.75
314.651	105.13
314.864	12.97
315.078	-3.41
315.292	-9.56
315.505	92.84
315.719	90.79
315.933	-1.37
316.146	47.79
316.36	76.46
316.573	43.69
316.787	70.31
317.001	8.87
317.214	55.98
317.428	76.46
317.641	37.55
317.855	80.55
318.068	88.75
318.282	72.36
318.495	55.98
318.709	74.41
318.922	58.03
319.136	150.18
319.349	51.88
319.563	12.97
319.776	119.46
319.99	17.07
320.203	107.18
320.417	2.73
320.63	80.55
320.843	64.17
321.057	113.32
321.27	-1.37
321.483	60.07
321.697	78.51
321.91	51.88
322.124	49.83
322.337	49.83
322.55	101.03
322.763	76.46
322.977	82.6
323.19	92.84
323.403	68.27
323.617	74.41
323.83	25.26
324.043	19.11
324.256	55.98
324.469	6.83
324.683	47.79
324.896	8.87
325.109	31.4
325.322	2.73
325.535	103.08
325.748	37.55
325.962	115.37
326.175	135.85
326.388	15.02
326.601	80.55
326.814	94.89
327.027	49.83
327.24	47.79
327.453	80.55
327.666	23.21
327.879	92.84
328.092	41.64
328.305	90.79
328.518	82.6
328.731	19.11
328.944	43.69
329.157	-11.61
329.37	8.87
329.583	39.59
329.796	127.66
330.009	17.07
330.222	82.6
330.435	2.73
330.648	98.99
330.861	27.31
331.073	115.37
331.286	23.21
331.499	90.79
331.712	37.55
331.925	74.41
332.138	-1.37
332.35	84.65
332.563	31.4
332.776	47.79
332.989	55.98
333.202	72.36
333.414	33.45
333.627	60.07
333.84	17.07
334.053	101.03
334.265	45.74
334.478	29.35
334.691	78.51
334.903	60.07
335.116	70.31
335.329	31.4
335.541	72.36
335.754	86.7
335.966	94.89
336.179	17.07
336.392	60.07
336.604	17.07
336.817	39.59
337.029	146.09
337.242	-11.61
337.454	191.14
337.667	127.66
337.88	105.13
338.092	55.98
338.305	158.38
338.517	19.11
338.729	80.55
338.942	80.55
339.154	15.02
339.367	43.69
339.579	82.6
339.792	90.79
340.004	133.8
340.217	84.65
340.429	47.79
340.641	66.22
340.854	21.16
341.066	-25.94
341.278	21.16
341.491	80.55
341.703	45.74
341.915	55.98
342.128	37.55
342.34	41.64
342.552	88.75
342.764	41.64
342.977	74.41
343.189	62.12
343.401	47.79
343.613	21.16
343.826	55.98
344.038	70.31
344.25	80.55
344.462	68.27
344.674	72.36
344.886	29.35
345.099	29.35
345.311	88.75
345.523	12.97
345.735	23.21
345.947	6.83
346.159	62.12
346.371	168.62
346.583	45.74
346.795	58.03
347.007	96.94
347.219	107.18
347.431	-21.84
347.643	158.38
347.855	23.21
348.067	86.7
348.279	29.35
348.491	70.31
348.703	45.74
348.915	84.65
349.127	64.17
349.339	8.87
349.551	98.99
349.763	55.98
349.975	62.12
350.187	45.74
350.399	111.27
350.61	49.83
350.822	55.98
351.034	74.41
351.246	64.17
351.458	72.36
351.669	60.07
351.881	137.9
352.093	60.07
352.305	109.23
352.517	117.42
352.728	107.18
352.94	70.31
353.152	60.07
353.363	37.55
353.575	144.04
353.787	27.31
353.999	84.65
354.21	133.8
354.422	53.93
354.633	23.21
354.845	45.74
355.057	-52.56
355.268	27.31
355.48	12.97
355.692	103.08
355.903	90.79
356.115	72.36
356.326	-44.37
356.538	27.31
356.749	78.51
356.961	45.74
357.172	96.94
357.384	86.7
357.595	139.94
357.807	53.93
358.018	127.66
358.23	64.17
358.441	35.5
358.653	78.51
358.864	139.94
359.075	94.89
359.287	121.51
359.498	39.59
359.709	164.52
359.921	101.03
360.132	-7.51
360.344	96.94
360.555	60.07
360.766	41.64
360.977	49.83
361.189	90.79
361.4	92.84
361.611	119.46
361.823	47.79
362.034	64.17
362.245	113.32
362.456	101.03
362.667	101.03
362.879	66.22
363.09	76.46
363.301	96.94
363.512	35.5
363.723	31.4
363.935	-54.61
364.146	117.42
364.357	60.07
364.568	82.6
364.779	25.26
364.99	80.55
365.201	60.07
365.412	144.04
365.623	94.89
365.834	21.16
366.045	129.7
366.256	109.23
366.467	15.02
366.678	107.18
366.889	82.6
367.1	55.98
367.311	162.47
367.522	103.08
367.733	23.21
367.944	80.55
368.155	6.83
368.366	55.98
368.577	84.65
368.788	150.18
368.999	47.79
369.209	80.55
369.42	123.56
369.631	51.88
369.842	39.59
370.053	103.08
370.264	111.27
370.474	62.12
370.685	21.16
370.896	80.55
371.107	103.08
371.317	88.75
371.528	51.88
371.739	98.99
371.95	92.84
372.16	2.73
372.371	29.35
372.582	51.88
372.792	27.31
373.003	101.03
373.214	-27.99
373.424	58.03
373.635	127.66
373.846	211.62
374.056	84.65
374.267	19.11
374.477	31.4
374.688	90.79
374.898	86.7
375.109	51.88
375.319	127.66
375.53	84.65
375.74	64.17
375.951	64.17
376.161	88.75
376.372	111.27
376.582	72.36
376.793	109.23
377.003	111.27
377.214	31.4
377.424	88.75
377.635	49.83
377.845	82.6
378.055	25.26
378.266	96.94
378.476	-5.46
378.686	21.16
378.897	15.02
379.107	6.83
379.317	47.79
379.528	31.4
379.738	109.23
379.948	121.51
380.158	109.23
380.369	105.13
380.579	94.89
380.789	58.03
380.999	123.56
381.21	117.42
381.42	160.42
381.63	68.27
381.84	86.7
382.05	51.88
382.261	111.27
382.471	39.59
382.681	29.35
382.891	76.46
383.101	141.99
383.311	45.74
383.521	119.46
383.731	74.41
383.941	82.6
384.151	60.07
384.361	64.17
384.571	94.89
384.781	94.89
384.991	94.89
385.201	133.8
385.411	51.88
385.621	64.17
385.831	29.35
386.041	51.88
386.251	80.55
386.461	111.27
386.671	88.75
386.881	113.32
387.091	115.37
387.301	94.89
387.511	58.03
387.72	88.75
387.93	70.31
388.14	82.6
388.35	88.75
388.56	156.33
388.769	82.6
388.979	82.6
389.189	19.11
389.399	70.31
389.609	105.13
389.818	98.99
390.028	98.99
390.238	94.89
390.447	96.94
390.657	49.83
390.867	62.12
391.076	139.94
391.286	31.4
391.496	62.12
391.705	92.84
391.915	109.23
392.125	101.03
392.334	115.37
392.544	162.47
392.753	103.08
392.963	176.81
393.172	148.14
393.382	8.87
393.591	101.03
393.801	129.7
394.01	139.94
394.22	96.94
394.429	29.35
394.639	101.03
394.848	166.57
395.058	152.23
395.267	88.75
395.477	148.14
395.686	119.46
395.895	182.95
396.105	185
396.314	74.41
396.524	135.85
396.733	64.17
396.942	211.62
397.152	127.66
397.361	185
397.57	144.04
397.78	199.34
397.989	158.38
398.198	185
398.407	205.48
398.617	113.32
398.826	139.94
399.035	137.9
399.244	156.33
399.453	156.33
399.663	156.33
399.872	174.76
400.081	96.94
400.29	205.48
400.499	158.38
400.708	209.58
400.917	168.62
401.127	174.76
401.336	164.52
401.545	182.95
401.754	209.58
401.963	172.71
402.172	166.57
402.381	221.86
402.59	137.9
402.799	215.72
403.008	189.1
403.217	201.38
403.426	187.05
403.635	174.76
403.844	174.76
404.053	156.33
404.262	182.95
404.471	172.71
404.68	178.86
404.888	199.34
405.097	193.19
405.306	180.9
405.515	322.21
405.724	174.76
405.933	244.39
406.142	264.87
406.35	307.88
406.559	275.11
406.768	232.1
406.977	346.79
407.185	289.45
407.394	322.21
407.603	248.49
407.812	373.41
408.02	297.64
408.229	309.93
408.438	365.22
408.646	361.13
408.855	324.26
409.064	397.99
409.272	397.99
409.481	441
409.69	438.95
409.898	309.93
410.107	529.06
410.315	506.53
410.524	471.72
410.733	449.19
410.941	522.91
411.15	500.39
411.358	572.07
411.567	514.72
411.775	592.55
411.984	527.01
412.192	705.18
412.401	651.94
412.609	742.05
412.818	740
413.026	688.8
413.234	789.15
413.443	795.29
413.651	815.77
413.86	787.1
414.068	901.79
414.276	889.5
414.485	948.89
414.693	950.94
414.901	957.08
415.11	1067.67
415.318	973.47
415.526	1077.91
415.734	1100.44
415.943	1149.59
416.151	1290.9
416.359	1192.6
416.567	1247.9
416.776	1413.78
416.984	1460.88
417.192	1446.55
417.4	1424.02
417.608	1475.22
417.817	1583.76
418.025	1618.58
418.233	1663.63
418.441	1755.79
418.649	1804.94
418.857	1907.34
419.065	1974.92
419.273	1897.1
419.481	2011.79
419.689	2230.92
419.897	2228.87
420.105	2222.73
420.313	2415.24
420.521	2351.75
420.729	2452.1
420.937	2566.79
421.145	2570.88
421.353	2718.34
421.561	2810.5
421.769	2910.85
421.977	2984.57
422.185	3005.05
422.393	3236.47
422.601	3390.07
422.809	3424.89
423.017	3461.75
423.224	3607.16
423.432	3734.13
423.64	3689.07
423.848	4076.14
424.056	4061.8
424.263	4188.78
424.471	4256.36
424.679	4325.99
424.887	4641.38
425.094	4696.68
425.302	4713.06
425.51	5010.01
425.718	5005.92
425.925	5204.57
426.133	5270.11
426.341	5737.04
426.548	5894.74
426.756	6013.52
426.964	6040.14
427.171	6439.5
427.379	6509.13
427.586	6675.01
427.794	6761.03
428.001	7121.47
428.209	7494.2
428.417	7305.79
428.624	7725.62
428.832	7762.48
429.039	7754.29
429.247	7838.26
429.454	8524.33
429.662	9067.04
429.869	8493.61
430.076	9114.14
430.284	8743.46
430.491	9210.4
430.699	9808.41
430.906	9800.21
431.114	10058.26
431.321	10127.89
431.528	10523.15
431.736	11108.87
431.943	11844.09
432.15	11239.94
432.358	11448.83
432.565	12075.51
432.772	11782.65
432.979	12650.99
433.187	12810.73
433.394	12870.12
433.601	13726.17
433.808	13687.26
434.016	13822.42
434.223	14320.08
434.43	15094.21
434.637	14684.62
434.844	15888.82
435.052	16214.45
435.259	15915.45
435.466	16173.49
435.673	16034.23
435.88	17291.68
436.087	17877.4
436.294	18084.25
436.501	17645.98
436.708	18114.97
436.915	18608.53
437.122	19417.47
437.329	19464.58
437.537	19843.45
437.743	20273.53
437.95	20085.11
438.157	21498.21
438.364	21926.24
438.571	21907.8
438.778	22045.02
438.985	23775.55
439.192	23146.83
439.399	23630.15
439.606	23200.07
439.813	24559.92
440.02	26032.41
440.227	25477.41
440.433	25489.7
440.64	26284.31
440.847	26114.33
441.054	26882.32
441.261	28678.39
441.467	28117.25
441.674	28799.22
441.881	29509.86
442.088	29753.57
442.294	29178.09
442.501	30367.96
442.708	30798.04
442.914	32282.81
443.121	33292.46
443.328	32329.92
443.534	34826.39
443.741	33915.05
443.948	33300.65
444.154	36235.39
444.361	35143.83
444.568	36104.32
444.774	35811.46
444.981	36356.22
445.187	37118.07
445.394	38838.36
445.6	38297.7
445.807	41846.83
446.013	39731.28
446.22	40828.99
446.426	42401.83
446.633	42536.99
446.839	43923.47
447.046	41883.69
447.252	44279.81
447.459	44707.84
447.665	44197.9
447.871	46301.16
448.078	48109.52
448.284	45797.36
448.491	46970.85
448.697	48316.36
448.903	49698.74
449.11	49272.76
449.316	48963.52
449.522	49514.42
449.728	50696.1
449.935	51503
450.141	51001.25
450.347	52117.39
450.553	50763.68
450.76	51294.11
450.966	52555.66
451.172	52305.8
451.378	53479.29
451.584	52506.51
451.791	53606.26
451.997	53239.68
452.203	54378.35
452.409	54157.17
452.615	53933.94
452.821	52230.03
453.027	51748.76
453.233	53888.88
453.44	51568.54
453.646	52092.82
453.852	52617.1
454.058	53831.54
454.264	51371.93
454.47	52948.87
454.676	51533.72
454.882	53200.77
455.088	48488.39
455.294	49002.43
455.5	50102.19
455.705	50405.29
455.911	48771.01
456.117	47783.89
456.323	47175.64
456.529	44431.36
456.735	45981.68
456.941	45475.83
457.147	44427.27
457.352	42924.06
457.558	42278.95
457.764	42557.47
457.97	41787.44
458.176	40874.04
458.381	41146.42
458.587	38496.35
458.793	38772.83
458.999	36675.71
459.204	39909.45
459.41	38297.7
459.616	36128.9
459.821	35979.4
460.027	36038.79
460.233	35014.8
460.438	33265.84
460.644	33573.03
460.85	32268.48
461.055	31858.88
461.261	31715.53
461.466	29198.57
461.672	28629.24
461.878	30607.58
462.083	28606.71
462.289	28010.75
462.494	28154.11
462.7	26497.3
462.905	25852.19
463.111	26546.45
463.316	26915.09
463.522	26554.65
463.727	26284.31
463.932	26151.2
464.138	26018.08
464.343	26134.81
464.549	25284.9
464.754	26335.51
464.959	26075.42
465.165	25631.01
465.37	24744.24
465.575	24269.11
465.781	25157.93
465.986	25446.69
466.191	24283.45
466.397	23984.44
466.602	22491.48
466.807	23578.95
467.012	23669.06
467.218	23513.41
467.423	23181.64
467.628	23515.46
467.833	24611.12
468.038	23368.01
468.244	22659.41
468.449	23863.61
468.654	22966.6
468.859	22661.46
469.064	22903.12
469.269	21967.2
469.474	21860.7
469.679	22294.87
469.885	21762.4
470.09	22278.49
470.295	22008.15
470.5	21088.62
470.705	21340.52
470.91	20988.27
471.115	20463.99
471.32	20787.57
471.525	21010.79
471.73	20386.16
471.935	20238.71
472.139	19530.11
472.344	19743.1
472.549	19526.02
472.754	19366.28
472.959	18930.06
473.164	18878.86
473.369	18631.05
473.574	19020.17
473.778	18928.01
473.983	18764.17
474.188	18637.2
474.393	17768.86
474.598	18076.05
474.802	17498.53
475.007	17580.45
475.212	17584.54
475.417	16931.24
475.621	16841.13
475.826	16976.3
476.031	16533.93
476.235	16378.29
476.44	16263.6
476.645	16263.6
476.849	16322.99
477.054	16239.03
477.259	15751.61
477.463	15972.79
477.668	15378.88
477.872	15720.89
478.077	15284.67
478.282	14924.23
478.486	14971.33
478.691	15028.68
478.895	14866.89
479.1	14770.63
479.304	14703.05
479.509	14154.19
479.713	14649.8
479.918	14387.66
480.122	14098.9
480.326	14168.53
480.531	14152.15
480.735	14025.17
480.94	14127.57
481.144	14342.61
481.348	13564.38
481.553	14121.43
481.757	13873.62
481.961	13963.73
482.166	13867.48
482.37	13871.58
482.574	13443.55
482.778	13758.94
482.983	13765.08
483.187	13818.33
483.391	13879.77
483.595	13642.2
483.8	13533.66
484.004	13687.26
484.208	13885.91
484.412	13799.9
484.616	13707.74
484.821	13978.07
485.025	13468.13
485.229	13748.7
485.433	13443.55
485.637	13724.12
485.841	13617.63
486.045	13449.69
486.249	13752.79
486.453	13666.78
486.657	13656.54
486.861	13748.7
487.065	13355.49
487.269	13640.15
487.473	13433.31
487.677	13894.1
487.881	13623.77
488.085	13685.21
488.289	13595.1
488.493	13375.97
488.697	13705.69
488.901	13720.03
489.105	13765.08
489.309	13781.46
489.512	14000.6
489.716	13779.42
489.92	13836.76
490.124	13617.63
490.328	14135.76
490.531	13666.78
490.735	14055.89
490.939	13963.73
491.143	13945.3
491.346	14115.28
491.55	14399.95
491.754	14277.07
491.958	14416.33
492.161	14395.85
492.365	14537.16
492.569	14174.67
492.772	14293.46
492.976	14447.05
493.18	14578.12
493.383	15063.49
493.587	14727.63
493.79	14883.27
493.994	14713.29
494.197	15116.74
494.401	15204.8
494.605	15266.24
494.808	15235.52
495.012	15497.66
495.215	15598.01
495.419	15606.2
495.622	15970.74
495.825	15882.68
496.029	15724.99
496.232	16421.3
496.436	16234.93
496.639	16384.43
496.843	16466.35
497.046	16828.84
497.249	17170.85
497.453	17164.71
497.656	17045.93
497.859	17428.9
498.063	17801.63
498.266	17854.87
498.469	17725.85
498.673	17846.68
498.876	18219.41
499.079	18213.27
499.282	18102.68
499.485	18821.52
499.689	19005.83
499.892	19153.29
500.095	19409.28
500.298	19601.79
500.501	19696
500.705	20128.12
500.908	20439.41
501.111	20302.2
501.314	20535.67
501.517	20586.86
501.72	20963.69
501.923	21182.82
502.126	21469.54
502.329	21950.81
502.532	22034.78
502.735	21932.38
502.938	22712.66
503.141	22798.67
503.344	23095.63
503.547	22835.53
503.75	23449.92
503.953	23599.43
504.156	24273.21
504.359	24203.58
504.562	24377.65
504.765	24824.11
504.968	24967.47
505.17	25108.78
505.373	25260.33
505.576	25823.52
505.779	25985.31
505.982	26208.54
506.185	26870.03
506.387	26792.21
506.59	26816.79
506.793	27468.04
506.996	27533.57
507.198	28223.74
507.401	28182.78
507.604	28387.58
507.807	29067.5
508.009	29038.83
508.212	29206.76
508.415	29800.68
508.617	29872.35
508.82	30095.58
509.022	29796.58
509.225	30621.91
509.428	31045.84
509.63	31281.36
509.833	31746.25
510.035	32041.15
510.238	31711.43
510.44	32360.64
510.643	33065.14
510.845	33046.71
511.048	32655.54
511.25	33573.03
511.453	33798.31
511.655	34625.69
511.858	34476.19
512.06	34711.7
512.262	35006.61
512.465	35559.56
512.667	35793.03
512.87	36003.97
513.072	35844.23
513.274	36972.66
513.477	37267.57
513.679	37412.98
513.881	37812.33
514.084	37916.78
514.286	38373.47
514.488	38463.58
514.69	39774.28
514.893	39530.58
515.095	39827.53
515.297	40456.26
515.499	40403.01
515.701	40720.45
515.904	41234.49
516.106	41338.93
516.308	41742.38
516.51	42182.69
516.712	41932.84
516.914	42659.87
517.116	43356.18
517.318	43675.66
517.52	43878.41
517.722	44281.86
517.925	43941.9
518.127	44851.2
518.329	45285.37
518.531	45025.28
518.733	46151.66
518.935	46358.5
519.136	46274.54
519.338	46876.64
519.54	47038.43
519.742	47554.52
519.944	47886.29
520.146	48324.55
520.348	48490.44
520.55	48949.18
520.752	48914.37
520.954	50018.22
521.155	49369.02
521.357	50489.26
521.559	50421.67
521.761	50997.15
521.963	51244.96
522.164	51242.91
522.366	51566.49
522.568	51971.99
522.77	52174.73
522.971	52924.29
523.173	52463.5
523.375	53184.38
523.576	53104.51
523.778	53436.28
523.98	54488.94
524.181	54079.35
524.383	54198.13
524.584	54597.48
524.786	54620.01
524.988	55080.8
525.189	55328.61
525.391	55603.03
525.592	56221.52
525.794	56069.97
525.995	56426.32
526.197	56397.65
526.398	56624.97
526.6	56993.6
526.801	57075.52
527.003	57294.66
527.204	57124.67
527.406	57519.93
527.607	57720.63
527.808	58490.67
528.01	57560.89
528.211	57950.01
528.412	58916.65
528.614	58146.61
528.815	58375.98
529.016	59019.05
529.218	58623.79
529.419	58425.14
529.62	58906.41
529.822	58912.55
530.023	59168.55
530.224	59186.98
530.425	59191.08
530.626	58625.84
530.828	58355.5
531.029	60206.87
531.23	59250.47
531.431	58976.04
531.632	59678.49
531.833	59756.31
532.035	59367.2
532.236	60063.51
532.437	59977.5
532.638	60129.05
532.839	59993.88
533.04	60030.74
533.241	59854.62
533.442	60475.15
533.643	60325.65
533.844	60524.3
534.045	60145.43
534.246	59973.4
534.447	60358.42
534.648	59582.24
534.849	60469.01
535.05	59977.5
535.251	60215.06
535.451	60444.43
535.652	60655.37
535.853	59809.56
536.054	60614.41
536.255	60524.3
536.456	60049.17
536.657	61214.47
536.857	59643.68
537.058	59991.83
537.259	60653.33
537.46	60659.47
537.66	60213.01
537.861	60276.5
538.062	59911.96
538.263	60583.69
538.463	60124.95
538.664	60395.28
538.865	60106.52
539.065	60636.94
539.266	60006.17
539.466	60362.51
539.667	59651.87
539.868	60907.27
540.068	60040.98
540.269	60200.72
540.469	60696.33
540.67	60682
540.87	60178.2
541.071	59950.87
541.271	60385.04
541.472	60520.21
541.672	60018.45
541.873	60280.59
542.073	59191.08
542.274	60509.97
542.474	59885.34
542.675	60002.07
542.875	60382.99
543.075	59995.93
543.276	59195.17
543.476	60264.21
543.676	59563.81
543.877	60120.85
544.077	60047.13
544.277	59752.22
544.478	60024.6
544.678	60256.02
544.878	59989.78
545.078	60024.6
545.279	59916.06
545.479	59772.7
545.679	59932.44
545.879	59815.71
546.079	59969.3
546.28	59854.62
546.48	59139.88
546.68	59866.91
546.88	59920.15
547.08	60059.41
547.28	59498.27
547.48	59440.93
547.68	59653.92
547.88	59117.35
548.081	59696.92
548.281	59469.6
548.481	59176.74
548.681	60069.65
548.881	59485.98
549.081	59686.68
549.28	59381.54
549.48	60081.94
549.68	58814.25
549.88	59592.48
550.08	59258.66
550.28	59676.44
550.48	59463.46
550.68	59563.81
550.88	59041.57
551.08	59244.32
551.279	59457.31
551.479	59017
551.679	59021.09
551.879	59178.79
552.079	59387.68
552.278	58904.36
552.478	59068.2
552.678	58943.27
552.878	59326.24
553.077	59111.2
553.277	58511.15
553.477	59418.4
553.676	59012.9
553.876	58455.85
554.076	58443.57
554.275	58654.51
554.475	58314.54
554.674	58466.09
554.874	58818.35
555.074	58617.64
555.273	58818.35
555.473	59365.15
555.672	58603.31
555.872	58347.31
556.071	58713.9
556.271	58990.37
556.47	58517.29
556.67	58318.64
556.869	58144.56
557.068	58605.36
557.268	58103.6
557.467	57970.49
557.667	58185.52
557.866	58476.33
558.065	57589.56
558.265	58150.71
558.464	57966.39
558.663	58027.83
558.863	57220.93
559.062	58300.21
559.261	57419.58
559.461	58335.02
559.66	56893.25
559.859	57581.37
560.058	57366.34
560.258	57593.66
560.457	57159.49
560.656	57843.51
560.855	57175.87
561.054	57091.91
561.253	56756.04
561.453	57077.57
561.652	57184.07
561.851	57241.41
562.05	56680.27
562.249	56254.29
562.448	57009.99
562.647	56606.54
562.846	56371.02
563.045	56706.89
563.244	56291.15
563.443	56762.18
563.642	55549.79
563.841	56368.97
564.04	55637.85
564.239	56332.11
564.438	55312.22
564.637	55707.48
564.836	55730.01
565.035	55295.84
565.234	55306.08
565.432	54867.81
565.631	54935.4
565.83	55156.58
566.029	55469.92
566.228	55078.75
566.427	54574.95
566.625	54615.91
566.824	54085.49
567.023	54746.98
567.222	53968.76
567.42	54431.6
567.619	54288.24
567.818	54126.45
568.016	53931.89
568.215	54468.46
568.414	53938.04
568.612	54273.9
568.811	53772.15
569.01	53747.57
569.208	52684.68
569.407	53780.34
569.605	52881.28
569.804	53442.43
570.002	52750.21
570.201	53409.66
570.4	52516.75
570.598	52604.81
570.797	52778.89
570.995	52877.19
571.193	52180.88
571.392	52641.67
571.59	51738.52
571.789	52359.05
571.987	51916.69
572.186	51935.12
572.384	51789.72
572.582	52002.71
572.781	52035.47
572.979	51390.36
573.177	51832.72
573.376	51249.05
573.574	51218.33
573.772	51482.52
573.971	50988.96
574.169	50960.29
574.367	50470.82
574.565	51158.94
574.763	50372.52
574.962	50257.84
575.16	49893.3
575.358	50513.83
575.556	50055.09
575.754	50454.44
575.952	49500.09
576.151	50198.44
576.349	49629.11
576.547	49424.31
576.745	49811.38
576.943	49690.55
577.141	49557.43
577.339	49291.19
577.537	48975.81
577.735	49051.58
577.933	48685
578.131	49178.56
578.329	48506.82
578.527	48504.77
578.725	48433.1
578.923	48926.66
579.121	47597.52
579.319	48138.19
579.516	48373.7
579.714	48070.61
579.912	47468.5
580.11	47792.08
580.308	47910.86
580.506	47779.79
580.704	47038.43
580.901	47814.61
581.099	47425.49
581.297	46893.02
581.495	46907.36
581.692	46976.99
581.89	46661.6
582.088	46999.52
582.285	46401.51
582.483	46774.24
582.681	46637.03
582.878	46735.33
583.076	45793.26
583.274	46082.03
583.471	45533.17
583.669	46055.4
583.866	45391.86
584.064	45580.28
584.262	45096.95
584.459	45684.72
584.657	44836.86
584.854	45400.05
585.052	44343.3
585.249	45080.57
585.447	45078.52
585.644	44208.14
585.841	44285.96
586.039	45012.99
586.236	44120.07
586.434	44101.64
586.631	43685.9
586.828	43810.83
587.026	43667.47
587.223	44011.53
587.42	43423.76
587.618	44109.83
587.815	43069.47
588.012	43122.71
588.21	43245.59
588.407	43540.5
588.604	42831.9
588.801	42942.49
588.999	43053.08
589.196	42678.3
589.393	42608.67
589.59	42311.72
589.787	42397.73
589.984	42108.97
590.182	41746.48
590.379	41904.17
590.576	41764.91
590.773	41961.51
590.97	41271.35
591.167	41617.46
591.364	41420.85
591.561	41492.53
591.758	40900.67
591.955	41308.21
592.152	41080.89
592.349	41007.16
592.546	40577.09
592.743	40976.44
592.94	39934.03
593.137	40556.61
593.334	40493.12
593.531	40190.02
593.727	40077.38
593.924	39972.94
594.121	39542.86
594.318	40239.17
594.515	39108.69
594.712	39835.72
594.908	39080.02
595.105	39776.33
595.302	38985.82
595.499	39227.48
595.696	38864.99
595.892	38815.83
596.089	39041.11
596.286	39018.58
596.482	38152.29
596.679	38654.04
596.876	38252.64
597.072	38473.82
597.269	38506.59
597.466	37972.07
597.662	38068.33
597.859	37849.19
598.055	37666.92
598.252	37574.77
598.448	37613.68
598.645	37288.05
598.841	37349.49
599.038	37501.04
599.234	37218.42
599.431	36950.13
599.627	36366.46
599.824	37169.27
600.02	36524.16
600.217	36577.4
600.413	36581.5
600.609	36286.59
600.806	36245.63
601.002	36397.18
601.198	36176
601.395	35991.69
601.591	35610.76
601.787	35471.5
601.984	35510.41
602.18	35471.5
602.376	35418.25
602.572	35362.96
602.769	35522.7
602.965	34691.23
603.161	35145.87
603.357	34480.28
603.553	34951.32
603.75	34652.31
603.946	34468
604.142	34541.72
604.338	34306.21
604.534	34447.52
604.73	33913
604.926	34166.95
605.122	34242.72
605.318	33704.1
605.514	34089.12
605.71	33839.27
605.906	33933.48
606.102	33409.2
606.298	33464.49
606.494	33192.11
606.69	33523.88
606.886	33351.85
607.082	32776.37
607.278	33216.69
607.474	32927.92
607.67	33200.3
607.866	32452.8
608.062	33173.68
608.257	32463.04
608.453	33120.43
608.649	32780.47
608.845	32612.54
609.041	32575.67
609.236	32526.52
609.432	32182.46
609.628	32739.51
609.824	31762.63
610.019	31965.38
610.215	31965.38
610.411	32301.25
610.606	32037.06
610.802	31893.7
610.998	31865.03
611.193	31891.65
611.389	31553.74
611.584	31781.06
611.78	31326.41
611.976	31678.66
612.171	31490.25
612.367	31992
612.562	31310.03
612.758	30968.02
612.953	31115.47
613.149	31410.38
613.344	30861.52
613.539	31752.39
613.735	31510.73
613.93	31105.23
614.126	30927.06
614.321	31281.36
614.517	31129.81
614.712	31058.13
614.907	31000.79
615.103	30988.5
615.298	30617.82
615.493	31166.67
615.688	30298.33
615.884	31305.93
616.079	30376.16
616.274	30380.25
616.47	30335.2
616.665	30146.78
616.86	30073.06
617.055	30376.16
617.25	29870.31
617.445	30515.42
617.641	29692.13
617.836	30023.9
618.031	29597.93
618.226	29948.13
618.421	29526.25
618.616	29518.06
618.811	29214.96
619.006	29571.3
619.201	28895.47
619.396	29280.49
619.591	28627.19
619.786	29495.53
619.981	28657.91
620.176	28698.87
620.371	28250.36
620.566	28348.67
620.761	28262.65
620.956	28240.12
621.151	28043.52
621.346	28225.79
621.541	27773.19
621.735	28152.06
621.93	27814.15
622.125	27891.97
622.32	27437.32
622.515	27293.96
622.709	27050.25
622.904	26970.38
623.099	26837.27
623.294	26978.58
623.488	26599.7
623.683	26616.08
623.878	26337.56
624.072	26114.33
624.267	26222.87
624.462	26026.27
624.656	25958.69
624.851	25635.11
625.046	25778.47
625.24	25565.48
625.435	25286.95
625.629	25252.14
625.824	25401.64
626.018	24992.05
626.213	24416.57
626.407	24899.89
626.602	24457.53
626.796	24602.93
626.991	24480.05
627.185	24060.22
627.38	24156.47
627.574	23970.11
627.768	23839.04
627.963	23804.22
628.157	23634.24
628.352	23615.81
628.546	23187.78
628.74	23374.15
628.935	22808.91
629.129	23181.64
629.323	22808.91
629.517	22923.6
629.712	22755.66
629.906	22624.59
630.1	22301.01
630.294	22212.95
630.489	22118.75
630.683	22546.77
630.877	21971.29
631.071	21741.92
631.265	22182.23
631.459	21793.12
631.653	21598.56
631.848	21573.99
632.042	21350.76
632.236	21291.37
632.43	21197.16
632.624	21244.26
632.818	20871.53
633.012	20670.83
633.206	20750.7
633.4	20713.84
633.594	20574.58
633.788	20552.05
633.982	20302.2
634.176	20267.38
634.369	20228.47
634.563	19915.13
634.757	19667.33
634.951	19841.4
635.145	19794.3
635.339	19712.38
635.533	19532.16
635.726	19304.84
635.92	19319.17
636.114	19366.28
636.308	19200.39
636.501	19005.83
636.695	19048.84
636.889	18645.39
637.083	18569.62
637.276	18590.1
637.47	18719.12
637.664	18622.86
637.857	18448.79
638.051	18362.77
638.244	18059.67
638.438	18004.38
638.632	18100.63
638.825	17807.77
639.019	17844.63
639.212	17803.67
639.406	17772.96
639.599	17523.1
639.793	17432.99
639.986	17242.53
640.18	17047.97
640.373	17346.98
640.567	17064.36
640.76	16771.5
640.954	16957.86
641.147	16935.34
641.34	16773.55
641.534	16738.73
641.727	16578.99
641.92	16722.35
642.114	16284.08
642.307	16466.35
642.5	16198.07
642.694	16026.04
642.887	16048.57
643.08	16036.28
643.273	16042.42
643.467	15876.54
643.66	15659.45
643.853	15700.41
644.046	15389.12
644.239	15720.89
644.432	15620.54
644.626	15415.74
644.819	15491.52
645.012	15047.11
645.205	15284.67
645.398	15077.83
645.591	15096.26
645.784	15061.44
645.977	14987.72
646.17	14789.07
646.363	15012.29
646.556	14666.19
646.749	14614.99
646.942	14690.76
647.135	14342.61
647.328	14510.54
647.521	14346.7
647.714	13998.55
647.907	14180.82
648.099	14135.76
648.292	13861.34
648.485	14186.96
648.678	13984.21
648.871	13789.66
649.064	13754.84
649.256	13695.45
649.449	13607.39
649.642	13451.74
649.835	13404.64
650.027	13529.56
650.22	13154.79
650.413	13111.78
650.605	12952.04
650.798	13296.1
650.991	12984.8
651.183	13060.58
651.376	12726.76
651.568	12956.13
651.761	12706.28
651.954	12786.15
652.146	12691.94
652.339	12577.26
652.531	12579.31
652.724	12380.65
652.916	12270.06
653.109	12153.33
653.301	12132.85
653.494	12190.19
653.686	12149.23
653.879	12270.06
654.071	12077.55
654.263	11706.87
654.456	12089.84
654.648	11987.44
654.84	11856.37
655.033	11905.52
655.225	11667.96
655.417	11643.39
655.61	11581.95
655.802	11569.66
655.994	11530.75
656.186	11291.13
656.379	11342.33
656.571	11524.6
656.763	11145.73
656.955	11387.39
657.148	11217.41
657.34	11209.22
657.532	10942.98
657.724	10811.91
657.916	10740.23
658.108	10803.72
658.3	10875.4
658.492	10838.53
658.684	10580.49
658.876	10527.24
659.068	10521.1
659.26	10422.8
659.452	10471.95
659.644	10455.56
659.836	10330.64
660.028	10488.33
660.22	10252.81
660.412	9976.34
660.604	10027.54
660.796	10095.12
660.988	10013.2
661.18	9931.28
661.372	9882.13
661.563	9812.5
661.755	9660.95
661.947	9935.38
662.139	9710.1
662.331	9566.74
662.522	9566.74
662.714	9671.19
662.906	9392.67
663.097	9552.41
663.289	9320.99
663.481	9347.61
663.673	9454.11
663.864	9064.99
664.056	9218.59
664.247	9318.94
664.439	8938.02
664.631	9300.51
664.822	8899.11
665.014	8978.98
665.205	8876.58
665.397	8985.12
665.588	9054.75
665.78	8786.47
665.971	8704.55
666.163	8684.07
666.354	8553
666.546	8682.02
666.737	8452.65
666.929	8442.41
667.12	8673.83
667.311	8487.47
667.503	8086.06
667.694	8436.27
667.885	8385.07
668.077	8309.29
668.268	8260.14
668.459	8131.12
668.651	8198.7
668.842	8163.89
669.033	8145.45
669.224	8038.96
669.416	8036.91
669.607	8047.15
669.798	7815.73
669.989	8043.06
670.18	7928.37
670.371	7871.03
670.563	7963.19
670.754	7903.79
670.945	7604.79
671.136	7688.76
671.327	7641.65
671.518	7547.45
671.709	7905.84
671.9	7610.93
672.091	7641.65
672.282	7647.8
672.473	7313.98
672.664	7510.58
672.855	7498.3
673.046	7313.98
673.237	7383.61
673.428	7221.82
673.619	7309.88
673.809	7313.98
674	7195.2
674.191	7146.05
674.382	7250.49
674.573	7311.93
674.764	7082.56
674.954	7096.89
675.145	7080.51
675.336	7080.51
675.527	7062.08
675.717	7047.74
675.908	6928.96
676.099	7023.17
676.289	6998.59
676.48	6826.56
676.671	6853.19
676.861	6828.61
677.052	6715.97
677.243	6732.36
677.433	6740.55
677.624	6767.17
677.814	6632.01
678.005	6742.6
678.195	6740.55
678.386	6623.81
678.576	6738.5
678.767	6662.73
678.957	6423.11
679.148	6701.64
679.338	6449.74
679.529	6431.3
679.719	6378.06
679.909	6568.52
680.1	6429.26
680.29	6517.32
680.481	6439.5
680.671	6285.9
680.861	6255.18
681.052	6359.63
681.242	6318.67
681.432	6249.04
681.622	6036.05
681.813	6142.54
682.003	6382.15
682.193	6185.55
682.383	6185.55
682.573	6130.25
682.764	5956.18
682.954	5997.14
683.144	5937.74
683.334	6017.61
683.524	6107.73
683.714	5986.9
683.904	5999.18
684.094	6005.33
684.284	5952.08
684.474	6011.47
684.664	5767.76
684.854	5849.68
685.044	5716.56
685.234	5751.38
685.424	5829.2
685.614	5769.81
685.804	5794.39
685.994	5732.95
686.184	5620.31
686.374	5665.36
686.564	5556.82
686.753	5651.03
686.943	5522.01
687.133	5470.81
687.323	5628.5
687.513	5657.17
687.702	5476.95
687.892	5485.14
688.082	5565.01
688.272	5513.81
688.461	5601.88
688.651	5419.61
688.841	5272.15
689.03	5573.21
689.22	5220.95
689.41	5429.85
689.599	5089.89
689.789	5192.28
689.979	5313.11
690.168	5223
690.358	5075.55
690.547	5040.73
690.737	5200.48
690.926	5157.47
691.116	5022.3
691.305	5081.69
691.495	4967.01
691.684	4977.25
691.874	5014.11
692.063	5042.78
692.252	4956.77
692.442	4964.96
692.631	4840.03
692.82	4960.86
693.01	4876.9
693.199	4829.79
693.388	4801.12
693.578	4756.07
693.767	4868.7
693.956	4835.94
694.146	4743.78
694.335	4831.84
694.524	4799.07
694.713	4766.31
694.902	4739.68
695.092	4727.39
695.281	4700.77
695.47	4706.91
695.659	4622.95
695.848	4647.52
696.037	4524.65
696.226	4665.96
696.415	4487.78
696.604	4457.06
696.793	4620.9
696.982	4500.07
697.171	4631.14
697.36	4471.4
697.549	4524.65
697.738	4506.21
697.927	4409.96
698.116	4526.69
698.305	4448.87
698.494	4532.84
698.683	4459.11
698.872	4446.82
699.061	4321.9
699.25	4432.49
699.438	4338.28
699.627	4405.86
699.816	4432.49
700.005	4444.77
700.193	4405.86
700.382	4541.03
700.571	4401.77
700.76	4395.62
700.948	4266.6
701.137	4385.38
701.326	4250.22
701.514	4340.33
701.703	4209.26
701.892	4170.35
702.08	4340.33
702.269	4373.1
702.457	4262.51
702.646	4158.06
702.834	4274.79
703.023	4065.9
703.212	4242.03
703.4	4211.31
703.589	4176.49
703.777	4254.31
703.965	4305.51
704.154	4139.63
704.342	4174.44
704.531	4199.02
704.719	4045.42
704.907	4174.44
705.096	4020.85
705.284	4051.56
705.472	4205.16
705.661	4115.05
705.849	4090.48
706.037	4092.52
706.226	4016.75
706.414	3959.41
706.602	4057.71
706.79	3963.5
706.979	4106.86
707.167	4055.66
707.355	3953.26
707.543	3990.13
707.731	3979.89
707.919	3953.26
708.107	4014.7
708.296	4037.23
708.484	3918.45
708.672	4043.37
708.86	3865.2
709.048	3883.63
709.236	3914.35
709.424	3957.36
709.612	3869.3
709.8	3938.93
709.988	3897.97
710.176	3904.11
710.364	3910.26
710.551	3881.58
710.739	3852.91
710.927	3904.11
711.115	3840.62
711.303	3695.22
711.491	3834.48
711.679	3861.1
711.866	3750.51
712.054	3928.69
712.242	3738.23
712.43	3877.49
712.617	3836.53
712.805	3664.5
712.993	3754.61
713.181	3785.33
713.368	3820.14
713.556	3732.08
713.744	3648.12
713.931	3732.08
714.119	3662.45
714.306	3830.38
714.494	3670.64
714.682	3727.99
714.869	3820.14
715.057	3744.37
715.244	3689.07
715.432	3629.68
715.619	3842.67
715.807	3660.4
715.994	3570.29
716.182	3531.38
716.369	3584.63
716.556	3709.55
716.744	3578.48
716.931	3578.48
717.119	3576.44
717.306	3605.11
717.493	3605.11
717.681	3428.98
717.868	3531.38
718.055	3572.34
718.242	3592.82
718.43	3646.07
718.617	3570.29
718.804	3588.72
718.991	3568.24
719.179	3504.76
719.366	3375.74
719.553	3512.95
719.74	3508.85
719.927	3508.85
720.114	3601.01
720.301	3625.59
720.488	3478.13
720.676	3553.91
720.863	3498.61
721.05	3363.45
721.237	3463.8
721.424	3410.55
721.611	3494.52
721.798	3478.13
721.985	3361.4
722.172	3564.15
722.358	3545.72
722.545	3459.7
722.732	3320.44
722.919	3439.22
723.106	3351.16
723.293	3379.83
723.48	3478.13
723.667	3383.93
723.853	3396.21
724.04	3443.32
724.227	3385.98
724.414	3336.82
724.6	3377.78
724.787	3320.44
724.974	3320.44
725.161	3299.96
725.347	3295.86
725.534	3347.06
725.72	3322.49
725.907	3318.39
726.094	3379.83
726.28	3275.38
726.467	3115.64
726.653	3295.86
726.84	3179.13
727.027	3400.31
727.213	3207.8
727.4	3199.61
727.586	3248.76
727.773	3267.19
727.959	3351.16
728.145	3215.99
728.332	3103.36
728.518	3244.67
728.705	3099.26
728.891	3332.73
729.077	3074.68
729.264	3218.04
729.45	3142.27
729.636	3183.23
729.823	3252.86
730.009	3119.74
730.195	3179.13
730.382	3267.19
730.568	3132.03
730.754	3136.12
730.94	3021.44
731.126	3193.47
731.313	3119.74
731.499	3138.17
731.685	3197.56
731.871	3060.35
732.057	3113.6
732.243	3029.63
732.429	3152.51
732.615	3189.37
732.801	3158.65
732.987	3091.07
733.173	3132.03
733.359	3197.56
733.545	3113.6
733.731	3148.41
733.917	2960
734.103	3199.61
734.289	3154.55
734.475	2988.67
734.661	3144.31
734.847	3172.99
735.033	3140.22
735.219	3054.2
735.404	3066.49
735.59	3086.97
735.776	2890.37
735.962	3003
736.148	2953.85
736.333	3025.53
736.519	3050.11
736.705	3060.35
736.89	3093.12
737.076	2986.62
737.262	2923.13
737.447	2996.86
737.633	2925.18
737.819	2925.18
738.004	2876.03
738.19	2982.53
738.375	2974.33
738.561	3054.2
738.747	2845.31
738.932	2964.09
739.118	2972.29
739.303	2826.88
739.489	2818.69
739.674	2902.65
739.859	2908.8
740.045	2814.59
740.23	2828.93
740.416	2871.93
740.601	2704
740.786	2869.89
740.972	2781.82
741.157	2882.17
741.342	2759.3
741.528	2751.1
741.713	2693.76
741.898	2742.91
742.084	2699.91
742.269	2730.63
742.454	2695.81
742.639	2763.39
742.824	2568.84
743.01	2771.58
743.195	2757.25
743.38	2732.67
743.565	2599.56
743.75	2650.75
743.935	2675.33
744.12	2833.02
744.305	2519.68
744.49	2640.51
744.675	2603.65
744.86	2515.59
745.045	2554.5
745.23	2656.9
745.415	2538.12
745.6	2572.93
745.785	2581.12
745.97	2515.59
746.155	2519.68
746.34	2411.14
746.525	2423.43
746.71	2505.35
746.895	2497.16
747.079	2382.47
747.264	2427.53
747.449	2380.42
747.634	2378.37
747.819	2341.51
748.003	2347.65
748.188	2247.3
748.373	2382.47
748.557	2310.79
748.742	2275.98
748.927	2222.73
749.111	2267.78
749.296	2200.2
749.481	2308.74
749.665	2263.69
749.85	2126.47
750.034	2208.39
750.219	2232.97
750.404	2149
750.588	2034.32
750.773	2103.95
750.957	2204.3
751.141	2103.95
751.326	2138.76
751.51	2155.15
751.695	2083.47
751.879	1956.49
752.064	2146.95
752.248	2124.43
752.432	1997.45
752.617	2058.89
752.801	2024.08
752.985	2062.99
753.17	1997.45
753.354	1876.62
753.538	1919.63
753.722	1860.24
753.907	1907.34
754.091	1819.28
754.275	1825.42
754.459	1872.53
754.643	1813.14
754.828	1940.11
755.012	1827.47
755.196	1831.57
755.38	1786.51
755.564	1727.12
755.748	1868.43
755.932	1667.73
756.116	1792.66
756.3	1895.05
756.484	1702.54
756.668	1682.07
756.852	1587.86
757.036	1790.61
757.22	1690.26
757.404	1626.77
757.588	1628.82
757.772	1655.44
757.956	1591.95
758.14	1497.75
758.323	1639.06
758.507	1569.43
758.691	1553.04
758.875	1663.63
759.059	1598.1
759.242	1634.96
759.426	1548.95
759.61	1567.38
759.794	1542.8
759.977	1487.51
760.161	1571.47
760.345	1514.13
760.528	1434.26
760.712	1551
760.895	1499.8
761.079	1458.84
761.263	1606.29
761.446	1428.12
761.63	1370.77
761.813	1505.94
761.997	1419.93
762.18	1370.77
762.364	1419.93
762.547	1401.49
762.731	1376.92
762.914	1450.64
763.098	1403.54
763.281	1372.82
763.464	1409.69
763.648	1411.73
763.831	1385.11
764.015	1276.57
764.198	1450.64
764.381	1319.57
764.564	1376.92
764.748	1370.77
764.931	1325.72
765.114	1362.58
765.297	1305.24
765.481	1319.57
765.664	1395.35
765.847	1360.53
766.03	1362.58
766.213	1348.25
766.397	1262.23
766.58	1215.13
766.763	1270.42
766.946	1235.61
767.129	1340.05
767.312	1272.47
767.495	1237.66
767.678	1231.51
767.861	1225.37
768.044	1231.51
768.227	1325.72
768.41	1213.08
768.593	1256.09
768.776	1211.03
768.959	1260.18
769.142	1272.47
769.324	1161.88
769.507	1198.74
769.69	1268.38
769.873	1213.08
770.056	1204.89
770.239	1170.07
770.421	1258.14
770.604	1163.93
770.787	1200.79
770.97	1206.94
771.152	1116.83
771.335	1170.07
771.518	1118.87
771.7	1168.02
771.883	1127.07
772.066	1149.59
772.248	1151.64
772.431	1219.22
772.613	1194.65
772.796	1155.74
772.978	1094.3
773.161	1039
773.343	1110.68
773.526	989.85
773.708	1000.09
773.891	1014.43
774.073	1043.1
774.256	1137.31
774.438	1022.62
774.621	1030.81
774.803	1026.72
774.985	979.61
775.168	1094.3
775.35	987.8
775.532	1008.28
775.715	987.8
775.897	1024.67
776.079	897.69
776.261	967.32
776.444	1026.72
776.626	993.95
776.808	930.46
776.99	893.6
777.173	944.8
777.355	1002.14
777.537	811.68
777.719	955.04
777.901	944.8
778.083	869.02
778.265	912.03
778.447	881.31
778.629	858.78
778.811	926.36
778.993	926.36
779.175	828.06
779.357	807.58
779.539	811.68
779.721	883.36
779.903	809.63
780.085	969.37
780.267	830.11
780.449	762.53
780.631	877.21
780.812	834.21
780.994	768.67
781.176	735.9
781.358	766.62
781.54	793.25
781.721	752.29
781.903	815.77
782.085	748.19
782.267	752.29
782.448	756.38
782.63	729.76
782.812	760.48
782.993	778.91
783.175	703.14
783.357	688.8
783.538	707.23
783.72	699.04
783.901	635.55
784.083	617.12
784.264	686.75
784.446	672.42
784.627	721.57
784.809	627.36
784.99	592.55
785.172	643.74
785.353	680.61
785.535	586.4
785.716	651.94
785.897	608.93
786.079	619.17
786.26	643.74
786.441	578.21
786.623	570.02
786.804	529.06
786.985	619.17
787.167	551.59
787.348	535.2
787.529	641.7
787.71	582.31
787.891	580.26
788.073	613.03
788.254	504.48
788.435	576.16
788.616	543.39
788.797	510.63
788.978	514.72
789.159	484
789.34	547.49
789.522	504.48
789.703	567.97
789.884	539.3
790.065	498.34
790.246	574.11
790.427	465.57
790.607	498.34
790.788	570.02
790.969	481.96
791.15	420.52
791.331	504.48
791.512	463.52
791.693	428.71
791.874	428.71
792.054	477.86
792.235	531.11
792.416	465.57
792.597	422.56
792.778	438.95
792.958	475.81
793.139	432.8
793.32	510.63
793.5	545.44
793.681	486.05
793.862	459.43
794.042	371.37
794.223	455.33
794.404	441
794.584	432.8
794.765	414.37
794.945	367.27
795.126	420.52
795.306	406.18
795.487	451.24
795.667	397.99
795.848	428.71
796.028	475.81
796.209	428.71
796.389	451.24
796.57	434.85
796.75	455.33
796.93	424.61
797.111	434.85
797.291	379.56
797.471	414.37
797.652	434.85
797.832	379.56
798.012	445.09
798.192	369.32
798.373	389.8
798.553	268.97
798.733	350.89
798.913	391.84
799.093	322.21
799.274	430.76
799.454	438.95
799.634	359.08
799.814	422.56
799.994	469.67
800.174	410.28
800.354	367.27
800.534	400.04
800.714	350.89
800.894	281.25
801.074	266.92
801.254	307.88
801.434	342.69
801.614	291.49
801.794	277.16
801.974	574.11
802.154	318.12
802.334	397.99
802.514	340.65
802.693	293.54
802.873	293.54
803.053	441
803.233	330.41
803.413	314.02
803.592	205.48
803.772	285.35
803.952	311.97
804.131	295.59
804.311	303.78
804.491	309.93
804.67	318.12
804.85	330.41
805.03	268.97
805.209	303.78
805.389	275.11
805.568	309.93
805.748	381.6
805.928	305.83
806.107	285.35
806.287	287.4
806.466	264.87
806.646	232.1
806.825	256.68
807.004	248.49
807.184	266.92
807.363	318.12
807.543	316.07
807.722	279.21
807.901	289.45
808.081	295.59
808.26	230.06
808.439	256.68
808.619	307.88
808.798	311.97
808.977	271.01
809.156	221.86
809.336	211.62
809.515	201.38
809.694	254.63
809.873	223.91
810.052	275.11
810.231	277.16
810.411	252.58
810.59	293.54
810.769	203.43
810.948	275.11
811.127	189.1
811.306	266.92
811.485	266.92
811.664	178.86
811.843	252.58
812.022	201.38
812.201	195.24
812.38	258.73
812.559	131.75
812.737	211.62
812.916	205.48
813.095	228.01
813.274	197.29
813.453	234.15
813.632	221.86
813.811	258.73
813.989	152.23
814.168	223.91
814.347	182.95
814.526	244.39
814.704	150.18
814.883	213.67
815.062	158.38
815.24	176.81
815.419	219.82
815.598	180.9
815.776	150.18
815.955	244.39
816.133	238.25
816.312	238.25
816.49	148.14
816.669	199.34
816.847	185
817.026	141.99
817.204	193.19
817.383	230.06
817.561	178.86
817.74	144.04
817.918	228.01
818.097	221.86
818.275	240.3
818.453	209.58
818.632	189.1
818.81	129.7
818.988	178.86
819.167	166.57
819.345	125.61
819.523	150.18
819.701	127.66
819.879	228.01
820.058	205.48
820.236	160.42
820.414	84.65
820.592	146.09
820.77	152.23
820.948	230.06
821.127	117.42
821.305	154.28
821.483	168.62
821.661	84.65
821.839	152.23
822.017	129.7
822.195	80.55
822.373	148.14
822.551	168.62
822.729	105.13
822.907	135.85
823.085	187.05
823.262	125.61
823.44	139.94
823.618	213.67
823.796	168.62
823.974	121.51
824.152	117.42
824.329	98.99
824.507	182.95
824.685	203.43
824.863	174.76
825.04	172.71
825.218	150.18
825.396	164.52
825.574	109.23
825.751	94.89
825.929	164.52
826.107	131.75
826.284	176.81
826.462	129.7
826.639	117.42
826.817	168.62
826.994	187.05
827.172	82.6
827.349	164.52
827.527	187.05
827.704	205.48
827.882	141.99
828.059	131.75
828.237	96.94
828.414	158.38
828.591	123.56
828.769	148.14
828.946	121.51
829.124	146.09
829.301	160.42
829.478	115.37
829.655	105.13
829.833	180.9
830.01	92.84
830.187	139.94
830.364	105.13
830.542	70.31
830.719	217.77
830.896	129.7
831.073	146.09
831.25	129.7
831.427	127.66
831.604	74.41
831.782	101.03
831.959	80.55
832.136	47.79
832.313	154.28
832.49	90.79
832.667	133.8
832.844	64.17
833.021	154.28
833.198	170.66
833.374	170.66
833.551	45.74
833.728	127.66
833.905	86.7
834.082	21.16
834.259	84.65
834.436	154.28
834.612	115.37
834.789	191.14
834.966	146.09
835.143	119.46
835.319	170.66
835.496	135.85
835.673	74.41
835.85	123.56
836.026	21.16
836.203	121.51
836.38	119.46
836.556	88.75
836.733	82.6
836.909	109.23
837.086	125.61
837.262	39.59
837.439	174.76
837.616	82.6
837.792	119.46
837.968	62.12
838.145	68.27
838.321	139.94
838.498	96.94
838.674	84.65
838.851	27.31
839.027	72.36
839.203	121.51
839.38	172.71
839.556	98.99
839.732	109.23
839.909	70.31
840.085	111.27
840.261	121.51
840.437	113.32
840.614	90.79
840.79	121.51
840.966	62.12
841.142	82.6
841.318	78.51
841.494	187.05
841.671	105.13
841.847	92.84
842.023	105.13
842.199	47.79
842.375	117.42
842.551	64.17
842.727	96.94
842.903	105.13
843.079	109.23
843.255	31.4
843.431	72.36
843.607	105.13
843.783	-3.41
843.959	135.85
844.134	98.99
844.31	131.75
844.486	90.79
844.662	109.23
844.838	33.45
845.013	0.68
845.189	90.79
845.365	80.55
845.541	139.94
845.716	70.31
845.892	78.51
846.068	105.13
846.244	90.79
846.419	37.55
846.595	123.56
846.77	35.5
846.946	-1.37
847.122	68.27
847.297	68.27
847.473	-7.51
847.648	19.11
847.824	80.55
847.999	12.97
848.175	41.64
848.35	109.23
848.526	90.79
848.701	80.55
848.876	29.35
849.052	29.35
849.227	51.88
849.403	113.32
849.578	25.26
849.753	96.94
849.929	64.17
850.104	53.93
850.279	82.6
850.454	6.83
850.63	23.21
850.805	80.55
850.98	111.27
851.155	29.35
851.33	96.94
851.505	111.27
851.681	2.73
851.856	96.94
852.031	68.27
852.206	92.84
852.381	68.27
852.556	27.31
852.731	98.99
852.906	133.8
853.081	62.12
853.256	23.21
853.431	80.55
853.606	53.93
853.781	105.13
853.956	-23.89
854.131	117.42
854.305	66.22
854.48	74.41
854.655	31.4
854.83	27.31
855.005	96.94
855.18	101.03
855.354	31.4
855.529	49.83
855.704	19.11
855.879	45.74
856.053	10.92
856.228	64.17
856.403	37.55
856.577	4.78
856.752	-21.84
856.926	33.45
857.101	31.4
857.276	72.36
857.45	62.12
857.625	64.17
857.799	68.27
857.974	45.74
858.148	27.31
858.323	31.4
858.497	33.45
858.672	64.17
858.846	33.45
859.02	45.74
859.195	23.21
859.369	51.88
859.543	72.36
859.718	55.98
859.892	-11.61
860.066	-44.37
860.241	72.36
860.415	23.21
860.589	84.65
860.763	49.83
860.938	31.4
861.112	84.65
861.286	72.36
861.46	19.11
861.634	-27.99
861.808	86.7
861.982	76.46
862.157	82.6
862.331	43.69
862.505	60.07
862.679	-19.8
862.853	-1.37
863.027	60.07
863.201	47.79
863.375	23.21
863.549	6.83
863.722	62.12
863.896	58.03
864.07	23.21
864.244	64.17
864.418	41.64
864.592	68.27
864.766	19.11
864.939	-1.37
865.113	-7.51
865.287	74.41
865.461	-9.56
865.634	55.98
865.808	-46.42
865.982	-5.46
866.156	-7.51
866.329	66.22
866.503	31.4
866.676	96.94
866.85	27.31
867.024	39.59
867.197	17.07
867.371	51.88
867.544	25.26
867.718	21.16
867.891	123.56
868.065	-34.13
868.238	-38.23
868.412	90.79
868.585	-1.37
868.759	84.65
868.932	45.74
869.105	29.35
869.279	107.18
869.452	78.51
869.625	6.83
869.799	76.46
869.972	19.11
870.145	31.4
870.319	43.69
870.492	-15.7
870.665	47.79
870.838	10.92
871.011	45.74
871.185	80.55
871.358	4.78
871.531	35.5
871.704	-30.04
871.877	-7.51
872.05	72.36
872.223	-15.7
872.396	39.59
872.569	70.31
872.742	-3.41
872.915	94.89
873.088	21.16
873.261	17.07
873.434	17.07
873.607	35.5
873.78	41.64
873.953	64.17
874.126	92.84
874.299	-9.56
874.471	33.45
874.644	80.55
874.817	17.07
874.99	111.27
875.163	51.88
875.335	33.45
875.508	74.41
875.681	66.22
875.853	15.02
876.026	-7.51
876.199	60.07
876.371	88.75
876.544	-3.41
876.717	35.5
876.889	-5.46
877.062	23.21
877.234	2.73
877.407	-32.08
877.579	144.04
877.752	74.41
877.924	76.46
878.097	64.17
878.269	43.69
878.442	39.59
878.614	35.5
878.786	-25.94
878.959	10.92
879.131	74.41
879.303	41.64
879.476	-30.04
879.648	64.17
879.82	23.21
879.993	-27.99
880.165	66.22
880.337	27.31
880.509	72.36
880.681	17.07
880.854	-54.61
881.026	27.31
881.198	58.03
881.37	-27.99
881.542	53.93
881.714	92.84
881.886	51.88
882.058	-11.61
882.23	76.46
882.402	35.5
882.574	82.6
882.746	-11.61
882.918	94.89
883.09	27.31
883.262	92.84
883.434	-9.56
883.606	12.97
883.778	-34.13
883.95	41.64
884.122	-23.89
884.293	49.83
884.465	10.92
884.637	53.93
884.809	33.45
884.98	-34.13
885.152	4.78
885.324	82.6
885.496	-34.13
885.667	21.16
885.839	62.12
886.011	58.03
886.182	68.27
886.354	37.55
886.525	51.88
886.697	-40.28
886.869	-38.23
887.04	-21.84
887.212	27.31
887.383	45.74
887.555	76.46
887.726	-30.04
887.897	49.83
888.069	21.16
888.24	25.26
888.412	12.97
888.583	10.92
888.754	101.03
888.926	-54.61
889.097	105.13
889.268	-134.48
889.44	25.26
889.611	-30.04
889.782	15.02
889.953	-13.65
890.125	64.17
890.296	-23.89
890.467	0.68
890.638	4.78
890.809	39.59
890.98	84.65
891.151	39.59
891.323	64.17
891.494	-44.37
891.665	55.98
891.836	15.02
892.007	76.46
892.178	27.31
892.349	-5.46
892.52	-30.04
892.691	-11.61
892.862	43.69
893.032	43.69
893.203	-38.23
893.374	2.73
893.545	-27.99
893.716	2.73
893.887	55.98
894.057	-36.18
894.228	-32.08
894.399	15.02
894.57	101.03
894.74	-40.28
894.911	6.83
895.082	23.21
895.253	68.27
895.423	68.27
895.594	31.4
895.764	-1.37
895.935	-60.76
896.106	8.87
896.276	8.87
896.447	55.98
896.617	6.83
896.788	39.59
896.958	6.83
897.129	-5.46
897.299	70.31
897.47	45.74
897.64	17.07
897.81	-11.61
897.981	43.69
898.151	76.46
898.322	94.89
898.492	92.84
898.662	-42.32
898.832	66.22
899.003	4.78
899.173	2.73
899.343	-40.28
899.513	41.64
