Data from USB4F104151__256__11-11-48-535.txt Node

Date: Wed Mar 12 11:11:48 EDT 2025
User: louis
Spectrometer: USB4F10415
Trigger mode: 4
Integration Time (sec): 2.000000E-2
Scans to average: 1
Electric dark correction enabled: true
Nonlinearity correction enabled: false
Boxcar width: 0
XAxis mode: Wavelengths
Number of Pixels in Spectrum: 3648
>>>>>Begin Spectral Data<<<<<
178.204	-59.05
178.424	-59.05
178.644	-59.05
178.864	-95.91
179.084	-104.11
179.304	2.39
179.524	20.82
179.744	-30.38
179.964	20.82
180.184	-22.19
180.404	-22.19
180.624	8.53
180.844	-5.8
181.064	-28.33
181.283	20.82
181.503	26.96
181.723	8.53
181.943	-30.38
182.163	63.83
182.383	12.63
182.602	20.82
182.822	18.77
183.042	22.87
183.262	26.96
183.482	18.77
183.701	-30.38
183.921	53.59
184.141	-16.04
184.361	55.64
184.58	-42.67
184.8	63.83
185.02	4.44
185.239	29.01
185.459	29.01
185.679	45.4
185.898	-59.05
186.118	45.4
186.338	-3.75
186.557	72.02
186.777	-3.75
186.997	37.2
187.216	6.49
187.436	69.97
187.655	-40.62
187.875	-52.91
188.095	31.06
188.314	31.06
188.534	37.2
188.753	31.06
188.973	123.22
189.192	63.83
189.412	29.01
189.631	-48.81
189.851	20.82
190.07	100.69
190.29	-18.09
190.509	59.73
190.729	82.26
190.948	106.84
191.168	102.74
191.387	86.36
191.607	-1.71
191.826	20.82
192.045	-7.85
192.265	59.73
192.484	53.59
192.704	-11.95
192.923	57.68
193.142	69.97
193.362	72.02
193.581	-1.71
193.8	29.01
194.02	96.6
194.239	31.06
194.458	22.87
194.678	88.4
194.897	6.49
195.116	22.87
195.335	8.53
195.555	69.97
195.774	22.87
195.993	108.88
196.212	-32.43
196.432	12.63
196.651	47.44
196.87	10.58
197.089	112.98
197.308	12.63
197.528	69.97
197.747	-40.62
197.966	18.77
198.185	98.64
198.404	74.07
198.623	43.35
198.842	33.11
199.062	115.03
199.281	39.25
199.5	98.64
199.719	31.06
199.938	29.01
200.157	102.74
200.376	18.77
200.595	86.36
200.814	0.34
201.033	45.4
201.252	65.88
201.471	31.06
201.69	59.73
201.909	92.5
202.128	20.82
202.347	59.73
202.566	24.92
202.785	22.87
203.004	16.73
203.223	92.5
203.442	31.06
203.661	31.06
203.879	-16.04
204.098	94.55
204.317	2.39
204.536	39.25
204.755	14.68
204.974	84.31
205.193	31.06
205.411	12.63
205.63	92.5
205.849	131.41
206.068	-42.67
206.287	12.63
206.505	57.68
206.724	37.2
206.943	2.39
207.162	-13.99
207.381	16.73
207.599	-1.71
207.818	14.68
208.037	39.25
208.255	-5.8
208.474	10.58
208.693	67.92
208.911	92.5
209.13	24.92
209.349	59.73
209.567	10.58
209.786	51.54
210.005	-30.38
210.223	20.82
210.442	47.44
210.661	26.96
210.879	6.49
211.098	63.83
211.316	22.87
211.535	-11.95
211.753	51.54
211.972	82.26
212.191	-18.09
212.409	47.44
212.628	-11.95
212.846	69.97
213.065	35.16
213.283	45.4
213.502	22.87
213.72	35.16
213.938	24.92
214.157	18.77
214.375	55.64
214.594	61.78
214.812	39.25
215.031	100.69
215.249	47.44
215.467	45.4
215.686	33.11
215.904	59.73
216.122	33.11
216.341	55.64
216.559	20.82
216.778	59.73
216.996	67.92
217.214	43.35
217.432	-32.43
217.651	45.4
217.869	-38.57
218.087	51.54
218.306	61.78
218.524	65.88
218.742	-42.67
218.96	51.54
219.179	-22.19
219.397	43.35
219.615	72.02
219.833	6.49
220.051	90.45
220.27	69.97
220.488	47.44
220.706	33.11
220.924	67.92
221.142	8.53
221.36	14.68
221.578	37.2
221.796	69.97
222.015	63.83
222.233	26.96
222.451	16.73
222.669	14.68
222.887	61.78
223.105	39.25
223.323	12.63
223.541	82.26
223.759	78.16
223.977	31.06
224.195	31.06
224.413	86.36
224.631	-50.86
224.849	22.87
225.067	92.5
225.285	39.25
225.503	37.2
225.721	18.77
225.939	8.53
226.157	24.92
226.375	145.75
226.592	35.16
226.81	39.25
227.028	76.12
227.246	92.5
227.464	57.68
227.682	6.49
227.9	43.35
228.117	55.64
228.335	-24.23
228.553	78.16
228.771	16.73
228.989	8.53
229.206	65.88
229.424	22.87
229.642	35.16
229.86	-36.52
230.077	55.64
230.295	20.82
230.513	26.96
230.731	86.36
230.948	69.97
231.166	65.88
231.384	-28.33
231.601	20.82
231.819	47.44
232.037	33.11
232.254	84.31
232.472	26.96
232.689	4.44
232.907	33.11
233.125	57.68
233.342	-16.04
233.56	10.58
233.777	45.4
233.995	45.4
234.213	0.34
234.43	47.44
234.648	35.16
234.865	12.63
235.083	22.87
235.3	-22.19
235.518	63.83
235.735	72.02
235.953	72.02
236.17	4.44
236.388	61.78
236.605	12.63
236.822	65.88
237.04	39.25
237.257	24.92
237.475	53.59
237.692	96.6
237.909	72.02
238.127	20.82
238.344	80.21
238.562	104.79
238.779	47.44
238.996	-3.75
239.214	-16.04
239.431	94.55
239.648	-61.1
239.865	29.01
240.083	4.44
240.3	65.88
240.517	-38.57
240.735	24.92
240.952	51.54
241.169	12.63
241.386	22.87
241.603	12.63
241.821	63.83
242.038	55.64
242.255	20.82
242.472	-7.85
242.689	55.64
242.907	65.88
243.124	33.11
243.341	49.49
243.558	39.25
243.775	20.82
243.992	-46.76
244.209	53.59
244.426	84.31
244.643	37.2
244.86	53.59
245.078	26.96
245.295	-24.23
245.512	16.73
245.729	10.58
245.946	16.73
246.163	55.64
246.38	16.73
246.597	61.78
246.814	24.92
247.031	26.96
247.248	72.02
247.464	74.07
247.681	6.49
247.898	35.16
248.115	18.77
248.332	4.44
248.549	29.01
248.766	35.16
248.983	-7.85
249.2	55.64
249.417	35.16
249.633	0.34
249.85	12.63
250.067	76.12
250.284	33.11
250.501	94.55
250.717	59.73
250.934	-22.19
251.151	16.73
251.368	82.26
251.585	6.49
251.801	20.82
252.018	20.82
252.235	94.55
252.451	-9.9
252.668	33.11
252.885	100.69
253.102	69.97
253.318	90.45
253.535	37.2
253.752	55.64
253.968	26.96
254.185	41.3
254.401	31.06
254.618	47.44
254.835	49.49
255.051	67.92
255.268	29.01
255.484	-1.71
255.701	69.97
255.917	51.54
256.134	6.49
256.351	22.87
256.567	92.5
256.784	67.92
257	-5.8
257.217	74.07
257.433	31.06
257.65	43.35
257.866	29.01
258.082	86.36
258.299	24.92
258.515	72.02
258.732	-24.23
258.948	59.73
259.165	22.87
259.381	55.64
259.597	-1.71
259.814	39.25
260.03	102.74
260.246	41.3
260.463	45.4
260.679	55.64
260.895	16.73
261.112	76.12
261.328	39.25
261.544	14.68
261.761	61.78
261.977	33.11
262.193	-9.9
262.409	14.68
262.626	12.63
262.842	53.59
263.058	61.78
263.274	16.73
263.49	-18.09
263.707	12.63
263.923	39.25
264.139	-5.8
264.355	74.07
264.571	26.96
264.787	115.03
265.004	-1.71
265.22	37.2
265.436	72.02
265.652	69.97
265.868	-16.04
266.084	123.22
266.3	-13.99
266.516	-1.71
266.732	74.07
266.948	6.49
267.164	96.6
267.38	41.3
267.596	86.36
267.812	57.68
268.028	102.74
268.244	12.63
268.46	39.25
268.676	-5.8
268.892	88.4
269.108	55.64
269.324	69.97
269.54	16.73
269.756	63.83
269.972	39.25
270.188	20.82
270.403	31.06
270.619	37.2
270.835	26.96
271.051	14.68
271.267	10.58
271.483	41.3
271.698	69.97
271.914	26.96
272.13	41.3
272.346	20.82
272.562	74.07
272.777	10.58
272.993	49.49
273.209	39.25
273.425	6.49
273.64	-16.04
273.856	33.11
274.072	14.68
274.287	61.78
274.503	-52.91
274.719	72.02
274.934	24.92
275.15	35.16
275.366	-1.71
275.581	18.77
275.797	29.01
276.012	-22.19
276.228	49.49
276.444	84.31
276.659	22.87
276.875	47.44
277.09	-20.14
277.306	-24.23
277.521	86.36
277.737	10.58
277.952	6.49
278.168	26.96
278.383	39.25
278.599	47.44
278.814	37.2
279.03	59.73
279.245	29.01
279.461	20.82
279.676	72.02
279.892	67.92
280.107	-20.14
280.322	31.06
280.538	115.03
280.753	24.92
280.969	80.21
281.184	-9.9
281.399	119.12
281.615	0.34
281.83	-1.71
282.045	16.73
282.26	45.4
282.476	37.2
282.691	-5.8
282.906	22.87
283.122	53.59
283.337	10.58
283.552	2.39
283.767	43.35
283.983	108.88
284.198	-1.71
284.413	63.83
284.628	0.34
284.843	31.06
285.058	29.01
285.274	31.06
285.489	0.34
285.704	51.54
285.919	29.01
286.134	-7.85
286.349	-3.75
286.564	51.54
286.779	-1.71
286.995	88.4
287.21	-9.9
287.425	55.64
287.64	31.06
287.855	4.44
288.07	-7.85
288.285	76.12
288.5	-13.99
288.715	18.77
288.93	22.87
289.145	35.16
289.36	20.82
289.575	31.06
289.79	115.03
290.004	-7.85
290.219	-22.19
290.434	80.21
290.649	12.63
290.864	18.77
291.079	-5.8
291.294	57.68
291.509	63.83
291.724	39.25
291.938	6.49
292.153	45.4
292.368	26.96
292.583	24.92
292.798	33.11
293.012	57.68
293.227	86.36
293.442	8.53
293.657	2.39
293.871	49.49
294.086	100.69
294.301	37.2
294.516	24.92
294.73	67.92
294.945	86.36
295.16	61.78
295.374	-30.38
295.589	57.68
295.804	-5.8
296.018	39.25
296.233	41.3
296.447	0.34
296.662	4.44
296.877	102.74
297.091	24.92
297.306	45.4
297.52	0.34
297.735	39.25
297.949	12.63
298.164	14.68
298.378	16.73
298.593	29.01
298.807	24.92
299.022	76.12
299.236	63.83
299.451	18.77
299.665	8.53
299.88	102.74
300.094	49.49
300.309	-11.95
300.523	86.36
300.737	74.07
300.952	55.64
301.166	92.5
301.381	6.49
301.595	45.4
301.809	6.49
302.024	24.92
302.238	43.35
302.452	26.96
302.667	14.68
302.881	16.73
303.095	92.5
303.309	63.83
303.524	67.92
303.738	16.73
303.952	59.73
304.166	6.49
304.381	-3.75
304.595	43.35
304.809	61.78
305.023	31.06
305.237	0.34
305.452	53.59
305.666	57.68
305.88	72.02
306.094	43.35
306.308	63.83
306.522	112.98
306.736	141.65
306.95	63.83
307.164	-54.95
307.379	98.64
307.593	104.79
307.807	59.73
308.021	18.77
308.235	20.82
308.449	37.2
308.663	47.44
308.877	8.53
309.091	16.73
309.305	2.39
309.519	14.68
309.733	90.45
309.947	-13.99
310.161	61.78
310.374	125.27
310.588	37.2
310.802	14.68
311.016	-38.57
311.23	-9.9
311.444	24.92
311.658	14.68
311.872	26.96
312.085	76.12
312.299	80.21
312.513	18.77
312.727	76.12
312.941	-11.95
313.154	96.6
313.368	49.49
313.582	16.73
313.796	2.39
314.009	35.16
314.223	47.44
314.437	69.97
314.651	123.22
314.864	6.49
315.078	74.07
315.292	26.96
315.505	0.34
315.719	18.77
315.933	-9.9
316.146	-20.14
316.36	57.68
316.573	39.25
316.787	29.01
317.001	47.44
317.214	20.82
317.428	29.01
317.641	10.58
317.855	63.83
318.068	108.88
318.282	57.68
318.495	43.35
318.709	72.02
318.922	26.96
319.136	49.49
319.349	39.25
319.563	-34.47
319.776	29.01
319.99	-5.8
320.203	12.63
320.417	72.02
320.63	37.2
320.843	31.06
321.057	59.73
321.27	88.4
321.483	47.44
321.697	63.83
321.91	100.69
322.124	51.54
322.337	4.44
322.55	-5.8
322.763	61.78
322.977	-16.04
323.19	59.73
323.403	61.78
323.617	18.77
323.83	100.69
324.043	-54.95
324.256	63.83
324.469	-11.95
324.683	76.12
324.896	-24.23
325.109	63.83
325.322	39.25
325.535	96.6
325.748	65.88
325.962	35.16
326.175	39.25
326.388	22.87
326.601	47.44
326.814	123.22
327.027	57.68
327.24	67.92
327.453	47.44
327.666	63.83
327.879	43.35
328.092	74.07
328.305	47.44
328.518	39.25
328.731	8.53
328.944	45.4
329.157	8.53
329.37	63.83
329.583	59.73
329.796	18.77
330.009	-5.8
330.222	102.74
330.435	55.64
330.648	127.32
330.861	51.54
331.073	43.35
331.286	61.78
331.499	49.49
331.712	-38.57
331.925	26.96
332.138	26.96
332.35	80.21
332.563	41.3
332.776	55.64
332.989	-67.24
333.202	94.55
333.414	31.06
333.627	33.11
333.84	14.68
334.053	61.78
334.265	-28.33
334.478	39.25
334.691	31.06
334.903	-1.71
335.116	-7.85
335.329	14.68
335.541	-18.09
335.754	69.97
335.966	-11.95
336.179	29.01
336.392	53.59
336.604	74.07
336.817	94.55
337.029	22.87
337.242	29.01
337.454	22.87
337.667	26.96
337.88	78.16
338.092	65.88
338.305	69.97
338.517	12.63
338.729	47.44
338.942	18.77
339.154	55.64
339.367	22.87
339.579	57.68
339.792	37.2
340.004	-5.8
340.217	65.88
340.429	41.3
340.641	39.25
340.854	67.92
341.066	96.6
341.278	57.68
341.491	18.77
341.703	24.92
341.915	69.97
342.128	53.59
342.34	22.87
342.552	55.64
342.764	20.82
342.977	4.44
343.189	106.84
343.401	-11.95
343.613	14.68
343.826	76.12
344.038	-16.04
344.25	14.68
344.462	35.16
344.674	129.36
344.886	112.98
345.099	6.49
345.311	61.78
345.523	63.83
345.735	96.6
345.947	43.35
346.159	-40.62
346.371	47.44
346.583	-5.8
346.795	98.64
347.007	0.34
347.219	82.26
347.431	96.6
347.643	72.02
347.855	2.39
348.067	0.34
348.279	26.96
348.491	84.31
348.703	53.59
348.915	164.18
349.127	18.77
349.339	88.4
349.551	18.77
349.763	10.58
349.975	-11.95
350.187	106.84
350.399	139.6
350.61	-11.95
350.822	14.68
351.034	67.92
351.246	-22.19
351.458	133.46
351.669	110.93
351.881	84.31
352.093	45.4
352.305	51.54
352.517	61.78
352.728	18.77
352.94	31.06
353.152	72.02
353.363	-11.95
353.575	69.97
353.787	51.54
353.999	-13.99
354.21	61.78
354.422	74.07
354.633	57.68
354.845	51.54
355.057	131.41
355.268	57.68
355.48	96.6
355.692	10.58
355.903	-11.95
356.115	2.39
356.326	29.01
356.538	147.8
356.749	55.64
356.961	-1.71
357.172	10.58
357.384	37.2
357.595	45.4
357.807	8.53
358.018	33.11
358.23	-20.14
358.441	84.31
358.653	0.34
358.864	-1.71
359.075	61.78
359.287	80.21
359.498	123.22
359.709	4.44
359.921	96.6
360.132	67.92
360.344	39.25
360.555	-13.99
360.766	47.44
360.977	59.73
361.189	37.2
361.4	-16.04
361.611	125.27
361.823	82.26
362.034	121.17
362.245	94.55
362.456	41.3
362.667	119.12
362.879	4.44
363.09	61.78
363.301	-7.85
363.512	37.2
363.723	20.82
363.935	22.87
364.146	96.6
364.357	55.64
364.568	43.35
364.779	-16.04
364.99	-3.75
365.201	45.4
365.412	57.68
365.623	-26.28
365.834	31.06
366.045	43.35
366.256	-3.75
366.467	6.49
366.678	108.88
366.889	29.01
367.1	72.02
367.311	47.44
367.522	-5.8
367.733	49.49
367.944	82.26
368.155	37.2
368.366	65.88
368.577	110.93
368.788	92.5
368.999	80.21
369.209	115.03
369.42	10.58
369.631	86.36
369.842	-5.8
370.053	31.06
370.264	41.3
370.474	84.31
370.685	108.88
370.896	69.97
371.107	14.68
371.317	33.11
371.528	108.88
371.739	59.73
371.95	47.44
372.16	76.12
372.371	78.16
372.582	88.4
372.792	55.64
373.003	96.6
373.214	45.4
373.424	90.45
373.635	45.4
373.846	94.55
374.056	78.16
374.267	59.73
374.477	43.35
374.688	63.83
374.898	22.87
375.109	59.73
375.319	20.82
375.53	53.59
375.74	129.36
375.951	84.31
376.161	-18.09
376.372	24.92
376.582	53.59
376.793	78.16
377.003	92.5
377.214	-7.85
377.424	18.77
377.635	94.55
377.845	41.3
378.055	57.68
378.266	96.6
378.476	76.12
378.686	43.35
378.897	39.25
379.107	61.78
379.317	69.97
379.528	96.6
379.738	80.21
379.948	24.92
380.158	55.64
380.369	31.06
380.579	59.73
380.789	0.34
380.999	104.79
381.21	63.83
381.42	112.98
381.63	18.77
381.84	49.49
382.05	26.96
382.261	14.68
382.471	59.73
382.681	51.54
382.891	53.59
383.101	78.16
383.311	-1.71
383.521	18.77
383.731	63.83
383.941	78.16
384.151	67.92
384.361	59.73
384.571	18.77
384.781	-13.99
384.991	31.06
385.201	108.88
385.411	20.82
385.621	41.3
385.831	-1.71
386.041	69.97
386.251	24.92
386.461	86.36
386.671	88.4
386.881	45.4
387.091	55.64
387.301	31.06
387.511	55.64
387.72	82.26
387.93	47.44
388.14	10.58
388.35	39.25
388.56	59.73
388.769	80.21
388.979	26.96
389.189	98.64
389.399	37.2
389.609	90.45
389.818	57.68
390.028	35.16
390.238	-1.71
390.447	35.16
390.657	76.12
390.867	43.35
391.076	137.56
391.286	100.69
391.496	33.11
391.705	43.35
391.915	106.84
392.125	84.31
392.334	4.44
392.544	53.59
392.753	104.79
392.963	80.21
393.172	12.63
393.382	20.82
393.591	49.49
393.801	63.83
394.01	57.68
394.22	123.22
394.429	63.83
394.639	151.89
394.848	76.12
395.058	43.35
395.267	61.78
395.477	61.78
395.686	96.6
395.895	96.6
396.105	39.25
396.314	102.74
396.524	86.36
396.733	31.06
396.942	139.6
397.152	102.74
397.361	94.55
397.57	49.49
397.78	119.12
397.989	69.97
398.198	123.22
398.407	41.3
398.617	84.31
398.826	55.64
399.035	67.92
399.244	127.32
399.453	65.88
399.663	45.4
399.872	14.68
400.081	31.06
400.29	112.98
400.499	117.08
400.708	92.5
400.917	110.93
401.127	135.51
401.336	82.26
401.545	106.84
401.754	108.88
401.963	88.4
402.172	22.87
402.381	74.07
402.59	104.79
402.799	84.31
403.008	72.02
403.217	123.22
403.426	84.31
403.635	8.53
403.844	131.41
404.053	135.51
404.262	43.35
404.471	178.51
404.68	100.69
404.888	57.68
405.097	94.55
405.306	108.88
405.515	123.22
405.724	96.6
405.933	149.84
406.142	194.9
406.35	143.7
406.559	92.5
406.768	80.21
406.977	168.27
407.185	139.6
407.394	250.19
407.603	139.6
407.812	174.42
408.02	176.47
408.229	158.03
408.438	137.56
408.646	225.62
408.855	137.56
409.064	207.19
409.272	207.19
409.481	168.27
409.69	203.09
409.898	215.38
410.107	190.8
410.315	184.66
410.524	301.39
410.733	229.71
410.941	160.08
411.15	299.34
411.358	297.3
411.567	235.86
411.775	301.39
411.984	321.87
412.192	270.67
412.401	301.39
412.609	235.86
412.818	293.2
413.026	364.88
413.234	420.17
413.443	272.72
413.651	387.41
413.86	424.27
414.068	411.98
414.276	475.47
414.485	362.83
414.693	457.04
414.901	479.57
415.11	467.28
415.318	450.89
415.526	557.39
415.734	518.48
415.943	577.87
416.151	608.59
416.359	584.01
416.567	549.2
416.776	604.49
416.984	612.68
417.192	676.17
417.4	637.26
417.608	620.88
417.817	713.03
418.025	762.19
418.233	743.75
418.441	725.32
418.649	766.28
418.857	862.54
419.065	788.81
419.273	858.44
419.481	940.36
419.689	1046.85
419.897	932.17
420.105	1001.8
420.313	987.46
420.521	1093.96
420.729	1042.76
420.937	1104.2
421.145	1163.59
421.353	1216.83
421.561	1190.21
421.769	1268.03
421.977	1378.62
422.185	1337.66
422.393	1409.34
422.601	1493.31
422.809	1501.5
423.017	1577.28
423.224	1517.89
423.432	1704.25
423.64	1624.38
423.848	1861.94
424.056	1833.27
424.263	1833.27
424.471	1917.24
424.679	1833.27
424.887	2027.83
425.094	2156.85
425.302	2089.27
425.51	2101.56
425.718	2185.52
425.925	2373.94
426.133	2253.11
426.341	2457.9
426.548	2558.25
426.756	2593.07
426.964	2580.78
427.171	2779.43
427.379	2818.35
427.586	2859.31
427.794	2953.51
428.001	3062.05
428.209	3264.8
428.417	3072.29
428.624	3387.68
428.832	3289.38
429.039	3369.25
429.247	3496.22
429.454	3629.34
429.662	3952.92
429.869	3623.2
430.076	3965.21
430.284	3739.93
430.491	3918.11
430.699	4270.36
430.906	4120.85
431.114	4239.64
431.321	4528.4
431.528	4757.77
431.736	4835.6
431.943	5075.21
432.15	4868.36
432.358	4882.7
432.565	5204.23
432.772	5189.89
432.979	5495.04
433.187	5509.38
433.394	5540.1
433.601	5888.25
433.808	6021.37
434.016	5898.49
434.223	6129.91
434.43	6441.2
434.637	6414.58
434.844	6799.6
435.052	6818.03
435.259	6807.79
435.466	6836.46
435.673	6932.72
435.88	7237.86
436.087	7719.14
436.294	7790.81
436.501	7397.6
436.708	7788.77
436.915	8007.9
437.122	8151.26
437.329	8300.76
437.537	8462.55
437.743	8603.86
437.95	8722.64
438.157	8949.96
438.364	9324.74
438.571	9228.49
438.778	9398.47
438.985	10141.88
439.192	9806.02
439.399	10352.82
439.606	9840.83
439.813	10637.49
440.02	10881.2
440.227	11020.46
440.433	10838.19
440.64	11153.58
440.847	11266.22
441.054	11298.98
441.261	11915.42
441.467	11940
441.674	12294.3
441.881	12634.26
442.088	12572.82
442.294	12556.44
442.501	12787.86
442.708	12998.8
442.914	13496.46
443.121	14178.43
443.328	13817.99
443.534	14942.32
443.741	14356.6
443.948	14166.14
444.154	15229.04
444.361	15026.29
444.568	15126.64
444.774	15032.43
444.981	15321.2
445.187	15884.39
445.394	16506.97
445.6	16269.41
445.807	17850.44
446.013	16908.37
446.22	16947.28
446.426	17850.44
446.633	18063.43
446.839	18524.22
447.046	17918.02
447.252	18933.81
447.459	18960.44
447.665	18835.51
447.871	19865.64
448.078	20547.61
448.284	19329.07
448.491	20176.93
448.697	20803.61
448.903	21020.69
449.11	21170.19
449.316	20942.87
449.522	21002.26
449.728	21936.13
449.935	21905.42
450.141	21868.55
450.347	22321.15
450.553	21848.07
450.76	21985.29
450.966	22652.92
451.172	22411.26
451.378	22650.88
451.584	22374.4
451.791	23236.59
451.997	23035.89
452.203	23388.14
452.409	23183.35
452.615	23263.22
452.821	22163.46
453.027	21944.33
453.233	23160.82
453.44	22286.34
453.646	22280.19
453.852	22499.33
454.058	22990.84
454.264	21927.94
454.47	22685.69
454.676	22042.63
454.882	22798.33
455.088	20654.11
455.294	21090.32
455.5	21446.67
455.705	21590.03
455.911	20897.81
456.117	20690.97
456.323	20324.38
456.529	19124.27
456.735	19632.17
456.941	19271.73
457.147	19017.78
457.352	18503.74
457.558	18024.51
457.764	18339.9
457.97	17920.07
458.176	17324.11
458.381	17397.84
458.587	16658.52
458.793	16545.88
458.999	15876.2
459.204	16973.91
459.41	16687.19
459.616	15347.82
459.821	15315.05
460.027	15259.76
460.233	15026.29
460.438	14315.64
460.644	14354.55
460.85	13699.2
461.055	13627.53
461.261	13463.69
461.466	12538.01
461.672	12218.52
461.878	12998.8
462.083	12159.13
462.289	11614.37
462.494	11817.12
462.7	11442.34
462.905	10823.86
463.111	11120.81
463.316	11335.85
463.522	11106.48
463.727	11016.37
463.932	11286.7
464.138	10950.83
464.343	11102.38
464.549	10672.31
464.754	10928.3
464.959	11049.13
465.165	11042.99
465.37	10502.33
465.575	10203.32
465.781	10555.57
465.986	10541.24
466.191	10248.38
466.397	9982.14
466.602	9539.78
466.807	9859.26
467.012	9969.85
467.218	9709.76
467.423	9869.5
467.628	9986.24
467.833	10135.74
468.038	9687.23
468.244	9908.41
468.449	10012.86
468.654	9500.87
468.859	9523.4
469.064	9642.18
469.269	9212.1
469.474	9261.26
469.679	9234.63
469.885	9193.67
470.09	9263.3
470.295	9191.63
470.5	8921.29
470.705	9031.88
470.91	8653.01
471.115	8792.27
471.32	8794.32
471.525	8644.82
471.73	8491.22
471.935	8534.23
472.139	8382.68
472.344	8370.39
472.549	8356.05
472.754	8038.62
472.959	7868.64
473.164	7727.33
473.369	7854.3
473.574	8325.33
473.778	8034.52
473.983	7997.66
474.188	7893.21
474.393	7477.48
474.598	7561.44
474.802	7475.43
475.007	7327.97
475.212	7434.47
475.417	7098.6
475.621	7223.53
475.826	7194.86
476.031	6895.85
476.235	7014.63
476.44	6938.86
476.645	7053.55
476.849	6910.19
477.054	6789.36
477.259	6650.1
477.463	6721.77
477.668	6617.33
477.872	6637.81
478.077	6490.35
478.282	6441.2
478.486	6338.8
478.691	6338.8
478.895	6361.33
479.1	6183.16
479.304	6256.89
479.509	6041.85
479.713	6121.72
479.918	6013.18
480.122	5857.53
480.326	6101.24
480.531	6007.03
480.735	5927.16
480.94	5939.45
481.144	6064.38
481.348	5761.28
481.553	5794.04
481.757	5818.62
481.961	5667.07
482.166	5851.39
482.37	5808.38
482.574	5781.76
482.778	5837.05
482.983	5863.68
483.187	5794.04
483.391	5761.28
483.595	5576.96
483.8	5683.45
484.004	5687.55
484.208	5845.24
484.412	5712.13
484.616	5814.52
484.821	5726.46
485.025	5574.91
485.229	5703.93
485.433	5771.52
485.637	5759.23
485.841	5648.64
486.045	5654.78
486.249	5853.44
486.453	5626.11
486.657	5603.58
486.861	5626.11
487.065	5734.65
487.269	5744.89
487.473	5789.95
487.677	5697.79
487.881	5839.1
488.085	5722.37
488.289	5687.55
488.493	5734.65
488.697	5884.16
488.901	5773.57
489.105	5779.71
489.309	5761.28
489.512	5744.89
489.716	5894.4
489.92	5918.97
490.124	5740.8
490.328	5869.82
490.531	5968.12
490.735	5810.43
490.939	5955.83
491.143	5828.86
491.346	5886.2
491.55	6146.3
491.754	5931.26
491.958	6054.14
492.161	5890.3
492.365	6025.47
492.569	6000.89
492.772	6066.42
492.976	6213.88
493.18	6052.09
493.383	6303.99
493.587	6220.02
493.79	6260.98
493.994	6164.73
494.197	6281.46
494.401	6314.23
494.605	6334.71
494.808	6482.16
495.012	6541.55
495.215	6625.52
495.419	6535.41
495.622	6527.22
495.825	6549.75
496.029	6666.48
496.232	6932.72
496.436	6732.01
496.639	6908.14
496.843	6902
497.046	7121.13
497.249	6963.44
497.453	7203.05
497.656	7106.79
497.859	7299.3
498.063	7403.75
498.266	7459.04
498.469	7393.51
498.673	7604.45
498.876	7543.01
499.079	7581.92
499.282	7655.65
499.485	8038.62
499.689	7928.03
499.892	8065.24
500.095	8181.98
500.298	8419.54
500.501	8102.11
500.705	8349.91
500.908	8401.11
501.111	8397.01
501.314	8665.3
501.517	8767.7
501.72	8825.04
501.923	8784.08
502.126	9072.84
502.329	9265.35
502.532	9246.92
502.735	9162.95
502.938	9345.22
503.141	9365.7
503.344	9683.14
503.547	9709.76
503.75	9687.23
503.953	10000.57
504.156	10045.63
504.359	10129.59
504.562	10197.18
504.765	10475.7
504.968	10449.08
505.17	10520.76
505.373	10643.63
505.576	10588.34
505.779	10791.09
505.982	10795.18
506.185	11032.75
506.387	11278.51
506.59	11094.19
506.793	11520.17
506.996	11546.79
507.198	11813.03
507.401	11597.99
507.604	11841.7
507.807	11868.32
508.009	12163.23
508.212	12208.28
508.415	12351.64
508.617	12589.21
508.82	12550.29
509.022	12540.05
509.225	12642.45
509.428	12990.61
509.63	12896.4
509.833	13015.18
510.035	13250.7
510.238	13256.84
510.44	13457.54
510.643	13617.29
510.845	13750.4
511.048	13777.03
511.25	13928.58
511.453	13940.86
511.655	14563.45
511.858	14391.42
512.06	14459
512.262	14839.92
512.465	14737.52
512.667	15179.89
512.87	15186.03
513.072	15212.65
513.274	15382.63
513.477	15399.02
513.679	15708.26
513.881	15825
514.084	15841.38
514.286	15853.67
514.488	16330.84
514.69	16552.02
514.893	16341.08
515.095	16722.01
515.297	16953.43
515.499	17043.54
515.701	16998.48
515.904	17205.33
516.106	17307.73
516.308	17637.45
516.51	17907.78
516.712	18044.99
516.914	17817.67
517.116	18341.95
517.318	18366.53
517.52	18235.46
517.722	18552.89
517.925	18573.37
518.127	19241.01
518.329	18976.82
518.531	19007.54
518.733	19281.97
518.935	19552.3
519.136	19607.59
519.338	19816.49
519.54	20115.49
519.742	20346.91
519.944	20447.26
520.146	20346.91
520.348	20865.05
520.55	20598.81
520.752	20883.48
520.954	21149.71
521.155	20918.29
521.357	21346.32
521.559	21461.01
521.761	22003.72
521.963	22093.83
522.164	22020.1
522.366	22048.77
522.568	22392.83
522.77	22519.81
522.971	22636.54
523.173	23003.13
523.375	22818.81
523.576	22847.48
523.778	22968.31
523.98	23070.71
524.181	23660.52
524.383	23365.62
524.584	23844.84
524.786	23914.47
524.988	23787.5
525.189	23799.79
525.391	24256.48
525.592	24078.31
525.794	24422.37
525.995	24467.42
526.197	24358.88
526.398	24516.58
526.6	24850.39
526.801	24821.72
527.003	24700.89
527.204	25063.38
527.406	25208.79
527.607	24977.37
527.808	25434.07
528.01	25278.42
528.211	24903.64
528.412	25733.07
528.614	25501.65
528.815	25429.97
529.016	25999.3
529.218	25835.47
529.419	26007.5
529.62	25706.45
529.822	25919.43
530.023	26130.37
530.224	26208.2
530.425	25718.73
530.626	25812.94
530.828	25905.1
531.029	26523.58
531.23	26277.83
531.431	26298.31
531.632	26347.46
531.833	26398.66
532.035	26238.92
532.236	26318.79
532.437	26380.23
532.638	26734.53
532.839	26578.88
533.04	26464.19
533.241	26470.34
533.442	26755.01
533.643	26836.92
533.844	26881.98
534.045	26724.29
534.246	26597.31
534.447	26808.25
534.648	26902.46
534.849	26703.81
535.05	26335.17
535.251	26603.46
535.451	26910.65
535.652	26746.81
535.853	26912.7
536.054	26613.7
536.255	26783.68
536.456	26423.23
536.657	26955.71
536.857	26843.07
537.058	26603.46
537.259	26771.39
537.46	26806.2
537.66	26699.71
537.861	26525.63
538.062	26642.37
538.263	26709.95
538.463	26726.33
538.664	27031.48
538.865	26857.4
539.065	27054.01
539.266	26826.68
539.466	27191.22
539.667	26568.64
539.868	27148.22
540.068	26578.88
540.269	26834.88
540.469	27090.87
540.67	26675.13
540.87	27008.95
541.071	26668.99
541.271	27207.61
541.472	26984.38
541.672	26582.98
541.873	26580.93
542.073	26648.51
542.274	26865.6
542.474	26826.68
542.675	26744.77
542.875	27000.76
543.075	26605.5
543.276	26511.3
543.476	27142.07
543.676	26488.77
543.877	26996.67
544.077	26447.81
544.277	26480.58
544.478	26697.66
544.678	26785.72
544.878	26544.06
545.078	26855.36
545.279	26509.25
545.479	26740.67
545.679	26611.65
545.879	26707.9
546.079	26736.57
546.28	26755.01
546.48	26501.06
546.68	26609.6
546.88	26728.38
547.08	26697.66
547.28	26560.45
547.48	26486.72
547.68	26761.15
547.88	26427.33
548.081	26746.81
548.281	26486.72
548.481	26634.17
548.681	26462.15
548.881	26574.78
549.081	26435.52
549.28	26220.49
549.48	26675.13
549.68	26570.69
549.88	26888.12
550.08	26122.18
550.28	26542.02
550.48	26488.77
550.68	26765.24
550.88	26302.4
551.08	26138.57
551.279	26466.24
551.479	26380.23
551.679	26421.19
551.879	26320.84
552.079	26472.39
552.278	25989.06
552.478	26310.6
552.678	26255.3
552.878	26232.77
553.077	26255.3
553.277	25827.28
553.477	26367.94
553.676	26261.44
553.876	26009.54
554.076	26226.63
554.275	26187.72
554.475	25712.59
554.674	26085.32
554.874	26001.35
555.074	25901
555.273	26200.01
555.473	26226.63
555.672	25905.1
555.872	26161.09
556.071	25960.39
556.271	26275.78
556.47	25733.07
556.67	25677.77
556.869	25944.01
557.068	25751.5
557.268	25366.48
557.467	25860.04
557.667	25569.23
557.866	25851.85
558.065	25577.42
558.265	25354.19
558.464	25477.07
558.663	25997.26
558.863	25112.53
559.062	25599.95
559.261	25292.76
559.461	25731.02
559.66	25165.78
559.859	25315.28
560.058	25327.57
560.258	25331.67
560.457	25073.62
560.656	25128.92
560.855	25147.35
561.054	25255.89
561.253	25184.21
561.453	25122.77
561.652	24911.83
561.851	24860.63
562.05	25118.68
562.249	24758.24
562.448	25151.45
562.647	24899.55
562.846	24756.19
563.045	25178.07
563.244	24375.27
563.443	24956.89
563.642	24201.19
563.841	24561.63
564.04	24383.46
564.239	24418.27
564.438	24049.64
564.637	24262.63
564.836	24254.44
565.035	24096.74
565.234	24264.68
565.432	23893.99
565.631	23945.19
565.83	24072.17
566.029	24029.16
566.228	23670.76
566.427	23719.92
566.625	23535.6
566.824	23293.94
567.023	23910.38
567.222	23033.85
567.42	23820.27
567.619	23349.23
567.818	23246.83
568.016	23576.56
568.215	23388.14
568.414	23445.49
568.612	23480.3
568.811	22960.12
569.01	23246.83
569.208	22794.23
569.407	23173.11
569.605	22710.27
569.804	23214.07
570.002	22401.02
570.201	22943.74
570.4	22636.54
570.598	22528
570.797	22241.28
570.995	22511.61
571.193	22452.22
571.392	22583.29
571.59	22042.63
571.789	22278.15
571.987	22269.95
572.186	22073.35
572.384	22196.23
572.582	22011.91
572.781	22204.42
572.979	21880.84
573.177	21788.68
573.376	21895.18
573.574	21616.65
573.772	22192.13
573.971	21651.47
574.169	21606.41
574.367	21544.97
574.565	21569.55
574.763	21442.57
574.962	21309.46
575.16	21266.45
575.358	21162
575.556	21043.22
575.754	21405.71
575.952	20949.01
576.151	20879.38
576.349	20598.81
576.547	20721.69
576.745	20574.24
576.943	20893.72
577.141	20506.65
577.339	20867.09
577.537	20709.4
577.735	20379.68
577.933	20361.25
578.131	20748.31
578.329	20328.48
578.527	20264.99
578.725	20351.01
578.923	20224.03
579.121	19957.8
579.319	20158.5
579.516	20154.4
579.714	19965.99
579.912	20172.83
580.11	19839.01
580.308	19963.94
580.506	19839.01
580.704	19671.08
580.901	19642.41
581.099	19912.74
581.297	19318.83
581.495	19562.54
581.692	19478.57
581.89	19204.14
582.088	19394.61
582.285	19548.2
582.483	19122.23
582.681	19337.26
582.878	19132.47
583.076	18935.86
583.274	19132.47
583.471	18866.23
583.669	19073.07
583.866	18796.6
584.064	18927.67
584.262	18645.05
584.459	18815.03
584.657	18391.1
584.854	18591.8
585.052	18217.02
585.249	18655.29
585.447	18675.77
585.644	18360.38
585.841	18540.6
586.039	18528.31
586.236	18599.99
586.434	18034.75
586.631	18198.59
586.828	18288.7
587.026	18237.5
587.223	18102.34
587.42	17891.4
587.618	18100.29
587.815	17651.78
588.012	17756.23
588.21	17895.49
588.407	17754.18
588.604	17801.29
588.801	17530.95
588.999	17551.43
589.196	17694.79
589.393	17745.99
589.59	17406.03
589.787	17528.91
589.984	17203.28
590.182	16984.15
590.379	17223.76
590.576	17268.81
590.773	17229.9
590.97	17178.7
591.167	17066.06
591.364	16842.84
591.561	17043.54
591.758	16646.23
591.955	16744.53
592.152	17125.46
592.349	16580.7
592.546	16648.28
592.743	16590.94
592.94	16435.29
593.137	16613.46
593.334	16701.53
593.531	16259.17
593.727	16468.06
593.924	16525.4
594.121	16386.14
594.318	16506.97
594.515	15896.67
594.712	16435.29
594.908	15779.94
595.105	16136.29
595.302	15638.63
595.499	15954.02
595.696	15765.6
595.892	15929.44
596.089	16056.42
596.286	15990.88
596.482	15853.67
596.679	15657.06
596.876	15687.78
597.072	15534.18
597.269	15777.89
597.466	15384.68
597.662	15558.76
597.859	15429.74
598.055	15585.38
598.252	15304.81
598.448	15364.2
598.645	15433.83
598.841	15237.23
599.038	15161.45
599.234	15202.41
599.431	14958.71
599.627	14958.71
599.824	14925.94
600.02	15038.58
600.217	14882.93
600.413	14729.33
600.609	14772.34
600.806	14770.29
601.002	14831.73
601.198	14545.02
601.395	14741.62
601.591	14698.61
601.787	14616.69
601.984	14297.21
602.18	14626.93
602.376	14463.1
602.572	14332.03
602.769	14280.83
602.965	14342.27
603.161	14262.4
603.357	14043.26
603.553	14243.96
603.75	14178.43
603.946	13973.63
604.142	14192.76
604.338	13983.87
604.534	13936.77
604.73	13908.1
604.926	13822.08
605.122	13797.51
605.318	13641.86
605.514	13699.2
605.71	13639.81
605.906	13592.71
606.102	13588.61
606.298	13541.51
606.494	13539.46
606.69	13392.01
606.886	13504.65
607.082	13228.17
607.278	13232.27
607.474	13537.41
607.67	13566.09
607.866	13052.05
608.062	13097.1
608.257	13209.74
608.453	13127.82
608.649	13244.56
608.845	13129.87
609.041	13142.16
609.236	13211.79
609.432	12966.03
609.628	13041.81
609.824	13131.92
610.019	12920.98
610.215	13166.73
610.411	13146.25
610.606	12941.46
610.802	12789.91
610.998	12925.07
611.193	12855.44
611.389	12699.8
611.584	12642.45
611.78	12734.61
611.976	12720.28
612.171	12798.1
612.367	12701.84
612.562	12425.37
612.758	12357.78
612.953	12486.81
613.149	12443.8
613.344	12542.1
613.539	12730.52
613.735	12540.05
613.93	12386.46
614.126	12257.43
614.321	12341.4
614.517	12171.42
614.712	12451.99
614.907	12204.19
615.103	12167.32
615.298	12247.19
615.493	12155.04
615.688	12304.54
615.884	12529.81
616.079	12181.66
616.274	12130.46
616.47	12157.08
616.665	12075.17
616.86	12232.86
617.055	12398.74
617.25	12056.73
617.445	12310.68
617.641	11862.18
617.836	12013.73
618.031	11862.18
618.226	12200.09
618.421	11796.64
618.616	11794.59
618.811	11860.13
619.006	12001.44
619.201	11557.03
619.396	11620.52
619.591	11425.96
619.786	11475.11
619.981	11411.62
620.176	11352.23
620.371	11466.92
620.566	11403.43
620.761	11329.7
620.956	11434.15
621.151	11309.22
621.346	11141.29
621.541	10924.21
621.735	11245.74
621.93	10834.1
622.125	10932.4
622.32	10668.21
622.515	10866.86
622.709	10846.38
622.904	10725.55
623.099	10571.96
623.294	10623.16
623.488	10784.94
623.683	10401.97
623.878	10279.1
624.072	10447.03
624.267	10371.26
624.462	10369.21
624.656	10197.18
624.851	10275
625.046	10272.95
625.24	10088.64
625.435	10131.64
625.629	10117.31
625.824	9793.73
626.018	9939.13
626.213	9803.97
626.407	9947.33
626.602	9455.81
626.796	9734.34
626.991	9699.52
627.185	9437.38
627.38	9543.88
627.574	9390.28
627.768	9390.28
627.963	9441.48
628.157	9259.21
628.352	9431.24
628.546	9310.41
628.74	9355.46
628.935	9189.58
629.129	9087.18
629.323	8812.75
629.517	9210.06
629.712	8966.35
629.906	8861.9
630.1	8628.43
630.294	8902.86
630.489	8882.38
630.683	8909.01
630.877	8655.06
631.071	8708.3
631.265	8542.42
631.459	8620.24
631.653	8456.4
631.848	8282.33
632.042	8333.53
632.236	8298.71
632.43	8448.21
632.624	8485.08
632.818	8214.74
633.012	8095.96
633.206	8075.48
633.4	8102.11
633.594	7973.08
633.788	7995.61
633.982	7778.53
634.176	8012
634.369	7897.31
634.563	7776.48
634.757	7801.05
634.951	7674.08
635.145	7551.2
635.339	7835.87
635.533	7454.95
635.726	7543.01
635.92	7565.54
636.114	7487.72
636.308	7567.59
636.501	7516.39
636.695	7401.7
636.889	7342.31
637.083	7332.07
637.276	7305.45
637.47	7282.92
637.664	7268.58
637.857	7166.18
638.051	7088.36
638.244	7090.41
638.438	7182.57
638.632	7098.6
638.825	6973.67
639.019	6836.46
639.212	6906.09
639.406	6936.81
639.599	6869.23
639.793	6920.43
639.986	6791.41
640.18	6824.17
640.373	6752.49
640.567	6670.58
640.76	6750.45
640.954	6637.81
641.147	6410.48
641.34	6582.51
641.534	6463.73
641.727	6500.59
641.92	6359.28
642.114	6527.22
642.307	6138.1
642.5	6293.75
642.694	6293.75
642.887	6275.32
643.08	6385.91
643.273	6267.13
643.467	6088.95
643.66	6129.91
643.853	6062.33
644.046	6078.71
644.239	5918.97
644.432	5964.03
644.626	5857.53
644.819	5826.81
645.012	5976.31
645.205	5994.75
645.398	5839.1
645.591	5808.38
645.784	5708.03
645.977	5826.81
646.17	5626.11
646.363	5679.36
646.556	5740.8
646.749	5617.92
646.942	5628.16
647.135	5632.26
647.328	5568.77
647.521	5470.47
647.714	5415.17
647.907	5488.9
648.099	5314.82
648.292	5345.54
648.485	5376.26
648.678	5329.16
648.871	5333.25
649.064	5099.78
649.256	5216.52
649.449	5232.9
649.642	5071.11
649.835	5046.54
650.027	5087.5
650.22	5050.63
650.413	5009.67
650.605	5204.23
650.798	4966.67
650.991	4993.29
651.183	5079.3
651.376	4856.08
651.568	4964.62
651.761	4749.58
651.954	4940.04
652.146	4854.03
652.339	4884.75
652.531	4821.26
652.724	4657.42
652.916	4544.78
653.109	4632.85
653.301	4573.46
653.494	4643.09
653.686	4497.68
653.879	4645.13
654.071	4606.22
654.263	4665.61
654.456	4524.3
654.648	4589.84
654.84	4407.57
655.033	4493.58
655.225	4342.04
655.417	4376.85
655.61	4446.48
655.802	4581.65
655.994	4438.29
656.186	4327.7
656.379	4368.66
656.571	4253.97
656.763	4280.6
656.955	4151.57
657.148	4223.25
657.34	4186.39
657.532	4114.71
657.724	4118.81
657.916	4010.26
658.108	4139.29
658.3	4120.85
658.492	4059.42
658.684	4032.79
658.876	4202.77
659.068	3922.2
659.26	4032.79
659.452	3936.54
659.644	3987.74
659.836	3879.19
660.028	3991.83
660.22	3836.19
660.412	3901.72
660.604	3879.19
660.796	3836.19
660.988	3848.47
661.18	3830.04
661.372	3744.03
661.563	3850.52
661.755	3957.02
661.947	3797.28
662.139	3789.08
662.331	3674.4
662.522	3600.67
662.714	3645.73
662.906	3666.21
663.097	3590.43
663.289	3506.46
663.481	3494.18
663.673	3494.18
663.864	3588.38
664.056	3414.31
664.247	3498.27
664.439	3490.08
664.631	3565.85
664.822	3453.22
665.014	3502.37
665.205	3422.5
665.397	3479.84
665.588	3424.55
665.78	3311.91
665.971	3289.38
666.163	3363.11
666.354	3307.81
666.546	3428.64
666.737	3238.18
666.929	3426.59
667.12	3430.69
667.311	3283.24
667.503	3262.76
667.694	3240.23
667.885	3207.46
668.077	3178.79
668.268	3178.79
668.459	3244.32
668.651	3219.75
668.842	3019.05
669.033	3248.42
669.224	3029.29
669.416	3115.3
669.607	3166.5
669.798	3166.5
669.989	3113.25
670.18	2986.28
670.371	2957.61
670.563	3053.86
670.754	2992.42
670.945	2973.99
671.136	3051.81
671.327	2861.35
671.518	3064.1
671.709	2984.23
671.9	2957.61
672.091	2920.74
672.282	2890.03
672.473	2920.74
672.664	2916.65
672.855	2973.99
673.046	2820.39
673.237	2730.28
673.428	2881.83
673.619	2855.21
673.809	2775.34
674	2887.98
674.191	2799.91
674.382	2855.21
674.573	2844.97
674.764	2720.04
674.954	2738.48
675.145	2763.05
675.336	2777.39
675.527	2715.95
675.717	2742.57
675.908	2709.8
676.099	2619.69
676.289	2824.49
676.48	2644.27
676.671	2670.89
676.861	2636.08
677.052	2591.02
677.243	2617.65
677.433	2595.12
677.624	2603.31
677.814	2482.48
678.005	2672.94
678.195	2713.9
678.386	2615.6
678.576	2515.25
678.767	2513.2
678.957	2619.69
679.148	2728.24
679.338	2584.88
679.529	2564.4
679.719	2468.14
679.909	2519.34
680.1	2570.54
680.29	2554.16
680.481	2529.58
680.671	2601.26
680.861	2605.36
681.052	2498.86
681.242	2498.86
681.432	2634.03
681.622	2443.57
681.813	2482.48
682.003	2502.96
682.193	2408.75
682.383	2531.63
682.573	2435.38
682.764	2513.2
682.954	2392.37
683.144	2470.19
683.334	2429.23
683.524	2435.38
683.714	2509.1
683.904	2380.08
684.094	2511.15
684.284	2476.34
684.474	2517.29
684.664	2378.03
684.854	2437.42
685.044	2439.47
685.234	2488.62
685.424	2464.05
685.614	2314.55
685.804	2439.47
685.994	2353.46
686.184	2367.79
686.374	2259.25
686.564	2337.07
686.753	2357.55
686.943	2349.36
687.133	2335.03
687.323	2314.55
687.513	2144.56
687.702	2324.79
687.892	2296.11
688.082	2185.52
688.272	2218.29
688.461	2257.2
688.651	2304.31
688.841	2201.91
689.03	2218.29
689.22	2238.77
689.41	2101.56
689.599	2177.33
689.789	2193.72
689.979	2171.19
690.168	2097.46
690.358	2187.57
690.547	2156.85
690.737	2156.85
690.926	2111.8
691.116	2150.71
691.305	2158.9
691.495	2117.94
691.684	2097.46
691.874	2095.41
692.063	2107.7
692.252	2029.88
692.442	2109.75
692.631	2007.35
692.82	1995.06
693.01	2038.07
693.199	2033.97
693.388	2003.25
693.578	2072.89
693.767	1943.86
693.956	2158.9
694.146	1937.72
694.335	1945.91
694.524	1884.47
694.713	2007.35
694.902	1966.39
695.092	1960.25
695.281	2009.4
695.47	2013.49
695.659	1945.91
695.848	1890.62
696.037	1976.63
696.226	1947.96
696.415	1925.43
696.604	1937.72
696.793	1898.81
696.982	1990.97
697.171	1849.66
697.36	1937.72
697.549	1929.53
697.738	1823.03
697.927	1753.4
698.116	1909.05
698.305	1818.94
698.494	1929.53
698.683	1870.14
698.872	1816.89
699.061	1782.07
699.25	1868.09
699.438	1884.47
699.627	1829.18
699.816	1804.6
700.005	1857.85
700.193	1734.97
700.382	1980.73
700.571	1755.45
700.76	1835.32
700.948	1859.9
701.137	1751.35
701.326	1855.8
701.514	1810.75
701.703	1857.85
701.892	1689.92
702.08	1841.47
702.269	1849.66
702.457	1704.25
702.646	1833.27
702.834	1777.98
703.023	1804.6
703.212	1818.94
703.4	1720.64
703.589	1849.66
703.777	1855.8
703.965	1763.64
704.154	1882.42
704.342	1837.37
704.531	1825.08
704.719	1843.51
704.907	1880.38
705.096	1720.64
705.284	1786.17
705.472	1775.93
705.661	1786.17
705.849	1718.59
706.037	1827.13
706.226	1769.79
706.414	1775.93
706.602	1810.75
706.79	1898.81
706.979	1683.77
707.167	1780.03
707.355	1823.03
707.543	1702.2
707.731	1802.55
707.919	1749.31
708.107	1734.97
708.296	1759.55
708.484	1661.24
708.672	1763.64
708.86	1890.62
709.048	1810.75
709.236	1806.65
709.424	1907
709.612	1747.26
709.8	1712.44
709.988	1833.27
710.176	1788.22
710.364	1718.59
710.551	1704.25
710.739	1788.22
710.927	1761.59
711.115	1722.68
711.303	1859.9
711.491	1691.96
711.679	1804.6
711.866	1849.66
712.054	1808.7
712.242	1687.87
712.43	1788.22
712.617	1739.07
712.805	1751.35
712.993	1794.36
713.181	1737.02
713.368	1761.59
713.556	1786.17
713.744	1790.27
713.931	1845.56
714.119	1831.23
714.306	1759.55
714.494	1833.27
714.682	1622.33
714.869	1724.73
715.057	1806.65
715.244	1792.31
715.432	1831.23
715.619	1839.42
715.807	1698.11
715.994	1681.72
716.182	1802.55
716.369	1726.78
716.556	1771.83
716.744	1712.44
716.931	1732.92
717.119	1866.04
717.306	1831.23
717.493	1802.55
717.681	1823.03
717.868	1790.27
718.055	1769.79
718.242	1745.21
718.43	1698.11
718.617	1816.89
718.804	1685.82
718.991	1780.03
719.179	1751.35
719.366	1745.21
719.553	1708.35
719.74	1730.87
719.927	1749.31
720.114	1743.16
720.301	1782.07
720.488	1835.32
720.676	1663.29
720.863	1734.97
721.05	1739.07
721.237	1796.41
721.424	1882.42
721.611	1706.3
721.798	1669.44
721.985	1818.94
722.172	1689.92
722.358	1749.31
722.545	1773.88
722.732	1751.35
722.919	1759.55
723.106	1630.52
723.293	1732.92
723.48	1894.71
723.667	1767.74
723.853	1751.35
724.04	1812.79
724.227	1833.27
724.414	1773.88
724.6	1796.41
724.787	1796.41
724.974	1874.23
725.161	1902.9
725.347	1816.89
725.534	1745.21
725.72	1739.07
725.907	1798.46
726.094	1782.07
726.28	1798.46
726.467	1880.38
726.653	1827.13
726.84	1804.6
727.027	1739.07
727.213	1659.2
727.4	1710.4
727.586	1814.84
727.773	1863.99
727.959	1745.21
728.145	1786.17
728.332	1825.08
728.518	1724.73
728.705	1902.9
728.891	1677.63
729.077	1728.83
729.264	1769.79
729.45	1728.83
729.636	1734.97
729.823	1876.28
730.009	1849.66
730.195	1769.79
730.382	1837.37
730.568	1732.92
730.754	1775.93
730.94	1753.4
731.126	1710.4
731.313	1696.06
731.499	1845.56
731.685	1661.24
731.871	1763.64
732.057	1806.65
732.243	1841.47
732.429	1747.26
732.615	1900.86
732.801	1763.64
732.987	1780.03
733.173	1782.07
733.359	1640.76
733.545	1653.05
733.731	1818.94
733.917	1804.6
734.103	1804.6
734.289	1706.3
734.475	1706.3
734.661	1806.65
734.847	1790.27
735.033	1829.18
735.219	1792.31
735.404	1677.63
735.59	1743.16
735.776	1685.82
735.962	1802.55
736.148	1771.83
736.333	1696.06
736.519	1751.35
736.705	1820.99
736.89	1857.85
737.076	1724.73
737.262	1599.8
737.447	1640.76
737.633	1769.79
737.819	1755.45
738.004	1694.01
738.19	1720.64
738.375	1773.88
738.561	1773.88
738.747	1702.2
738.932	1696.06
739.118	1601.85
739.303	1739.07
739.489	1710.4
739.674	1636.67
739.859	1794.36
740.045	1677.63
740.23	1751.35
740.416	1706.3
740.601	1638.72
740.786	1673.53
740.972	1657.15
741.157	1761.59
741.342	1661.24
741.528	1730.87
741.713	1720.64
741.898	1669.44
742.084	1651
742.269	1608
742.454	1665.34
742.639	1677.63
742.824	1610.04
743.01	1667.39
743.195	1624.38
743.38	1571.13
743.565	1728.83
743.75	1726.78
743.935	1620.28
744.12	1603.9
744.305	1493.31
744.49	1585.47
744.675	1564.99
744.86	1552.7
745.045	1558.85
745.23	1536.32
745.415	1579.33
745.6	1450.3
745.785	1474.88
745.97	1564.99
746.155	1577.28
746.34	1544.51
746.525	1571.13
746.71	1452.35
746.895	1483.07
747.079	1411.39
747.264	1327.43
747.449	1415.49
747.634	1470.78
747.819	1511.74
748.003	1388.86
748.188	1284.42
748.373	1446.21
748.557	1415.49
748.742	1472.83
748.927	1474.88
749.111	1442.11
749.296	1413.44
749.481	1458.5
749.665	1397.06
749.85	1276.23
750.034	1360.19
750.219	1333.57
750.404	1298.75
750.588	1345.86
750.773	1325.38
750.957	1317.19
751.141	1313.09
751.326	1286.47
751.51	1331.52
751.695	1251.65
751.879	1282.37
752.064	1284.42
752.248	1231.17
752.432	1235.27
752.617	1349.95
752.801	1288.51
752.985	1198.4
753.17	1222.98
753.354	1184.07
753.538	1255.75
753.722	1182.02
753.907	1241.41
754.091	1190.21
754.275	1079.62
754.459	1110.34
754.643	1075.52
754.828	1114.44
755.012	1087.81
755.196	1136.96
755.38	1091.91
755.564	1063.24
755.748	1014.09
755.932	1108.29
756.116	1106.24
756.3	1073.48
756.484	1069.38
756.668	1139.01
756.852	954.69
757.036	983.37
757.22	1161.54
757.404	975.17
757.588	956.74
757.772	1089.86
757.956	1048.9
758.14	1100.1
758.323	973.13
758.507	989.51
758.691	936.26
758.875	964.93
759.059	1005.89
759.242	923.98
759.426	952.65
759.61	989.51
759.794	917.83
759.977	885.06
760.161	1003.85
760.345	969.03
760.528	911.69
760.712	926.02
760.895	1059.14
761.079	956.74
761.263	850.25
761.446	817.48
761.63	850.25
761.813	878.92
761.997	995.65
762.18	915.78
762.364	891.21
762.547	876.87
762.731	813.38
762.914	944.45
763.098	844.1
763.281	856.39
763.464	823.62
763.648	878.92
763.831	899.4
764.015	803.15
764.198	842.06
764.381	809.29
764.564	862.54
764.748	909.64
764.931	901.45
765.114	837.96
765.297	805.19
765.481	784.71
765.664	811.34
765.847	829.77
766.03	878.92
766.213	784.71
766.397	741.71
766.58	883.02
766.763	772.43
766.946	729.42
767.129	776.52
767.312	768.33
767.495	741.71
767.678	698.7
767.861	854.34
768.044	741.71
768.227	764.23
768.41	764.23
768.593	821.58
768.776	788.81
768.959	749.9
769.142	717.13
769.324	629.07
769.507	764.23
769.69	710.99
769.873	741.71
770.056	807.24
770.239	751.95
770.421	735.56
770.604	715.08
770.787	731.47
770.97	635.21
771.152	608.59
771.335	727.37
771.518	655.69
771.7	733.51
771.883	643.4
772.066	606.54
772.248	725.32
772.431	756.04
772.613	737.61
772.796	618.83
772.978	719.18
773.161	670.03
773.343	680.27
773.526	596.3
773.708	645.45
773.891	649.55
774.073	610.64
774.256	645.45
774.438	686.41
774.621	653.64
774.803	614.73
774.985	588.11
775.168	674.12
775.35	600.4
775.532	571.72
775.715	629.07
775.897	635.21
776.079	569.68
776.261	604.49
776.444	577.87
776.626	620.88
776.808	549.2
776.99	590.16
777.173	614.73
777.355	498
777.537	534.86
777.719	575.82
777.901	637.26
778.083	577.87
778.265	559.44
778.447	559.44
778.629	565.58
778.811	530.77
778.993	569.68
779.175	567.63
779.357	487.76
779.539	481.61
779.721	526.67
779.903	545.1
780.085	536.91
780.267	471.37
780.449	555.34
780.631	510.29
780.812	491.85
780.994	520.53
781.176	516.43
781.358	426.32
781.54	446.8
781.721	600.4
781.903	487.76
782.085	450.89
782.267	551.24
782.448	504.14
782.63	434.51
782.812	469.33
782.993	477.52
783.175	444.75
783.357	545.1
783.538	467.28
783.72	440.65
783.901	397.65
784.083	397.65
784.264	436.56
784.446	465.23
784.627	340.3
784.809	397.65
784.99	422.22
785.172	405.84
785.353	436.56
785.535	334.16
785.716	373.07
785.897	366.93
786.079	381.26
786.26	373.07
786.441	325.97
786.623	325.97
786.804	293.2
786.985	311.63
787.167	346.45
787.348	334.16
787.529	385.36
787.71	330.06
787.891	334.16
788.073	358.74
788.254	371.02
788.435	371.02
788.616	303.44
788.797	319.82
788.978	346.45
789.159	309.58
789.34	313.68
789.522	362.83
789.703	325.97
789.884	330.06
790.065	313.68
790.246	342.35
790.427	299.34
790.607	260.43
790.788	348.5
790.969	325.97
791.15	330.06
791.331	256.34
791.512	278.87
791.693	346.45
791.874	250.19
792.054	254.29
792.235	301.39
792.416	248.15
792.597	250.19
792.778	293.2
792.958	256.34
793.139	285.01
793.32	285.01
793.5	319.82
793.681	282.96
793.862	268.63
794.042	293.2
794.223	217.43
794.404	244.05
794.584	160.08
794.765	282.96
794.945	182.61
795.126	299.34
795.306	307.54
795.487	250.19
795.667	244.05
795.848	289.1
796.028	278.87
796.209	289.1
796.389	221.52
796.57	194.9
796.75	244.05
796.93	268.63
797.111	217.43
797.291	262.48
797.471	254.29
797.652	239.95
797.832	235.86
798.012	285.01
798.192	268.63
798.373	213.33
798.553	227.67
798.733	215.38
798.913	217.43
799.093	256.34
799.274	127.32
799.454	215.38
799.634	244.05
799.814	229.71
799.994	196.95
800.174	155.99
800.354	153.94
800.534	192.85
800.714	213.33
800.894	225.62
801.074	153.94
801.254	215.38
801.434	289.1
801.614	186.71
801.794	203.09
801.974	590.16
802.154	188.75
802.334	158.03
802.514	141.65
802.693	178.51
802.873	166.23
803.053	225.62
803.233	158.03
803.413	174.42
803.592	153.94
803.772	170.32
803.952	192.85
804.131	166.23
804.311	282.96
804.491	219.47
804.67	203.09
804.85	190.8
805.03	215.38
805.209	231.76
805.389	239.95
805.568	194.9
805.748	203.09
805.928	229.71
806.107	153.94
806.287	215.38
806.466	180.56
806.646	213.33
806.825	221.52
807.004	211.28
807.184	168.27
807.363	168.27
807.543	207.19
807.722	88.4
807.901	137.56
808.081	221.52
808.26	131.41
808.439	162.13
808.619	160.08
808.798	192.85
808.977	190.8
809.156	182.61
809.336	190.8
809.515	143.7
809.694	225.62
809.873	149.84
810.052	194.9
810.231	194.9
810.411	127.32
810.59	198.99
810.769	125.27
810.948	168.27
811.127	139.6
811.306	123.22
811.485	242
811.664	225.62
811.843	168.27
812.022	102.74
812.201	145.75
812.38	194.9
812.559	158.03
812.737	80.21
812.916	149.84
813.095	92.5
813.274	145.75
813.453	182.61
813.632	170.32
813.811	235.86
813.989	108.88
814.168	119.12
814.347	141.65
814.526	168.27
814.704	115.03
814.883	164.18
815.062	88.4
815.24	217.43
815.419	149.84
815.598	135.51
815.776	53.59
815.955	67.92
816.133	37.2
816.312	123.22
816.49	166.23
816.669	162.13
816.847	190.8
817.026	162.13
817.204	22.87
817.383	153.94
817.561	119.12
817.74	127.32
817.918	123.22
818.097	180.56
818.275	61.78
818.453	82.26
818.632	196.95
818.81	164.18
818.988	121.17
819.167	125.27
819.345	82.26
819.523	117.08
819.701	149.84
819.879	129.36
820.058	119.12
820.236	125.27
820.414	108.88
820.592	78.16
820.77	112.98
820.948	100.69
821.127	96.6
821.305	149.84
821.483	108.88
821.661	125.27
821.839	69.97
822.017	86.36
822.195	86.36
822.373	155.99
822.551	119.12
822.729	82.26
822.907	98.64
823.085	37.2
823.262	53.59
823.44	86.36
823.618	49.49
823.796	88.4
823.974	125.27
824.152	141.65
824.329	88.4
824.507	88.4
824.685	43.35
824.863	39.25
825.04	129.36
825.218	100.69
825.396	129.36
825.574	162.13
825.751	63.83
825.929	76.12
826.107	108.88
826.284	90.45
826.462	72.02
826.639	63.83
826.817	170.32
826.994	145.75
827.172	31.06
827.349	112.98
827.527	104.79
827.704	26.96
827.882	53.59
828.059	104.79
828.237	-59.05
828.414	53.59
828.591	80.21
828.769	102.74
828.946	63.83
829.124	153.94
829.301	88.4
829.478	92.5
829.655	98.64
829.833	106.84
830.01	96.6
830.187	141.65
830.364	145.75
830.542	51.54
830.719	149.84
830.896	155.99
831.073	59.73
831.25	69.97
831.427	43.35
831.604	14.68
831.782	37.2
831.959	76.12
832.136	94.55
832.313	135.51
832.49	8.53
832.667	96.6
832.844	76.12
833.021	88.4
833.198	72.02
833.374	112.98
833.551	43.35
833.728	104.79
833.905	135.51
834.082	26.96
834.259	57.68
834.436	96.6
834.612	69.97
834.789	82.26
834.966	96.6
835.143	76.12
835.319	31.06
835.496	129.36
835.673	108.88
835.85	0.34
836.026	86.36
836.203	82.26
836.38	49.49
836.556	108.88
836.733	45.4
836.909	80.21
837.086	45.4
837.262	12.63
837.439	76.12
837.616	65.88
837.792	45.4
837.968	84.31
838.145	104.79
838.321	53.59
838.498	20.82
838.674	41.3
838.851	45.4
839.027	0.34
839.203	33.11
839.38	141.65
839.556	35.16
839.732	119.12
839.909	108.88
840.085	72.02
840.261	-13.99
840.437	92.5
840.614	37.2
840.79	106.84
840.966	59.73
841.142	98.64
841.318	57.68
841.494	59.73
841.671	53.59
841.847	59.73
842.023	57.68
842.199	61.78
842.375	24.92
842.551	72.02
842.727	102.74
842.903	121.17
843.079	10.58
843.255	67.92
843.431	-34.47
843.607	117.08
843.783	12.63
843.959	69.97
844.134	129.36
844.31	115.03
844.486	20.82
844.662	43.35
844.838	84.31
845.013	55.64
845.189	76.12
845.365	72.02
845.541	43.35
845.716	22.87
845.892	41.3
846.068	26.96
846.244	76.12
846.419	12.63
846.595	53.59
846.77	86.36
846.946	59.73
847.122	39.25
847.297	63.83
847.473	74.07
847.648	8.53
847.824	29.01
847.999	41.3
848.175	35.16
848.35	29.01
848.526	59.73
848.701	22.87
848.876	69.97
849.052	35.16
849.227	57.68
849.403	57.68
849.578	90.45
849.753	47.44
849.929	72.02
850.104	18.77
850.279	16.73
850.454	72.02
850.63	39.25
850.805	55.64
850.98	43.35
851.155	55.64
851.33	10.58
851.505	6.49
851.681	33.11
851.856	14.68
852.031	61.78
852.206	10.58
852.381	72.02
852.556	33.11
852.731	37.2
852.906	20.82
853.081	33.11
853.256	29.01
853.431	18.77
853.606	22.87
853.781	78.16
853.956	31.06
854.131	121.17
854.305	31.06
854.48	10.58
854.655	96.6
854.83	12.63
855.005	37.2
855.18	92.5
855.354	2.39
855.529	65.88
855.704	20.82
855.879	63.83
856.053	61.78
856.228	47.44
856.403	-26.28
856.577	84.31
856.752	47.44
856.926	57.68
857.101	78.16
857.276	57.68
857.45	102.74
857.625	57.68
857.799	2.39
857.974	84.31
858.148	-22.19
858.323	63.83
858.497	29.01
858.672	84.31
858.846	57.68
859.02	22.87
859.195	94.55
859.369	45.4
859.543	84.31
859.718	4.44
859.892	37.2
860.066	24.92
860.241	14.68
860.415	-36.52
860.589	6.49
860.763	59.73
860.938	-11.95
861.112	96.6
861.286	29.01
861.46	59.73
861.634	51.54
861.808	49.49
861.982	33.11
862.157	55.64
862.331	33.11
862.505	43.35
862.679	0.34
862.853	65.88
863.027	0.34
863.201	55.64
863.375	33.11
863.549	-9.9
863.722	53.59
863.896	69.97
864.07	20.82
864.244	2.39
864.418	61.78
864.592	8.53
864.766	49.49
864.939	100.69
865.113	94.55
865.287	8.53
865.461	61.78
865.634	-11.95
865.808	-3.75
865.982	8.53
866.156	55.64
866.329	-7.85
866.503	-26.28
866.676	98.64
866.85	2.39
867.024	16.73
867.197	22.87
867.371	84.31
867.544	31.06
867.718	-22.19
867.891	47.44
868.065	76.12
868.238	72.02
868.412	29.01
868.585	-36.52
868.759	-20.14
868.932	96.6
869.105	22.87
869.279	-1.71
869.452	65.88
869.625	4.44
869.799	29.01
869.972	-48.81
870.145	-24.23
870.319	-9.9
870.492	35.16
870.665	18.77
870.838	26.96
871.011	31.06
871.185	51.54
871.358	67.92
871.531	-40.62
871.704	0.34
871.877	6.49
872.05	67.92
872.223	0.34
872.396	2.39
872.569	98.64
872.742	-7.85
872.915	133.46
873.088	-32.43
873.261	47.44
873.434	53.59
873.607	6.49
873.78	-1.71
873.953	47.44
874.126	26.96
874.299	39.25
874.471	80.21
874.644	-40.62
874.817	-16.04
874.99	33.11
875.163	35.16
875.335	53.59
875.508	16.73
875.681	37.2
875.853	43.35
876.026	10.58
876.199	10.58
876.371	115.03
876.544	-26.28
876.717	22.87
876.889	-20.14
877.062	26.96
877.234	-11.95
877.407	33.11
877.579	78.16
877.752	24.92
877.924	10.58
878.097	76.12
878.269	63.83
878.442	29.01
878.614	20.82
878.786	18.77
878.959	61.78
879.131	-40.62
879.303	39.25
879.476	-11.95
879.648	98.64
879.82	49.49
879.993	8.53
880.165	131.41
880.337	16.73
880.509	29.01
880.681	39.25
880.854	10.58
881.026	55.64
881.198	22.87
881.37	-44.71
881.542	2.39
881.714	-34.47
881.886	33.11
882.058	55.64
882.23	59.73
882.402	41.3
882.574	115.03
882.746	51.54
882.918	-34.47
883.09	69.97
883.262	31.06
883.434	24.92
883.606	33.11
883.778	41.3
883.95	72.02
884.122	53.59
884.293	41.3
884.465	18.77
884.637	43.35
884.809	-20.14
884.98	22.87
885.152	-1.71
885.324	45.4
885.496	6.49
885.667	10.58
885.839	84.31
886.011	-46.76
886.182	6.49
886.354	41.3
886.525	-30.38
886.697	-1.71
886.869	-20.14
887.04	26.96
887.212	145.75
887.383	61.78
887.555	43.35
887.726	2.39
887.897	-22.19
888.069	-22.19
888.24	45.4
888.412	22.87
888.583	43.35
888.754	57.68
888.926	6.49
889.097	26.96
889.268	-24.23
889.44	65.88
889.611	57.68
889.782	-26.28
889.953	-16.04
890.125	39.25
890.296	78.16
890.467	90.45
890.638	22.87
890.809	123.22
890.98	53.59
891.151	37.2
891.323	72.02
891.494	59.73
891.665	-44.71
891.836	12.63
892.007	6.49
892.178	72.02
892.349	39.25
892.52	61.78
892.691	100.69
892.862	59.73
893.032	-34.47
893.203	47.44
893.374	57.68
893.545	-5.8
893.716	-26.28
893.887	59.73
894.057	41.3
894.228	-9.9
894.399	2.39
894.57	51.54
894.74	-1.71
894.911	6.49
895.082	0.34
895.253	47.44
895.423	67.92
895.594	31.06
895.764	-20.14
895.935	-95.91
896.106	14.68
896.276	31.06
896.447	29.01
896.617	24.92
896.788	47.44
896.958	31.06
897.129	-36.52
897.299	33.11
897.47	86.36
897.64	63.83
897.81	41.3
897.981	10.58
898.151	4.44
898.322	53.59
898.492	-9.9
898.662	67.92
898.832	24.92
899.003	16.73
899.173	63.83
899.343	-3.75
899.513	24.92
